
 $NMID
 id='ANONYMOUS ', fmtdat='(2E16.6)'
 volume=1.0
 tramp=1.0
 $END
  -2.473238e+03  -1.414568e+02
  -1.967002e+03  -1.273967e+03
  -4.686015e+02  -1.692238e+03
   7.887823e+02  -1.183378e+03
   9.013708e+02  -3.685456e+02
   1.799309e+02   5.802904e+01
  -1.325992e+02  -1.223028e+02
  -1.850026e+01  -2.566040e+02
   3.622887e+02  -4.559476e+02
   5.977726e+02  -1.809930e+02
   4.615083e+02   4.023652e+02
   2.445690e+01   6.048173e+02
  -1.976862e+02   9.373665e+01
  -1.784466e+02  -2.215017e+02
   1.196700e+02  -4.771544e+02
   3.514764e+02  -4.120978e+01
   1.138660e+02   3.235242e+02
  -1.349593e+02   4.198113e+02
  -3.828438e+02   1.768665e+02
  -3.338890e+02  -1.836863e+02
   5.766924e+01  -3.009903e+02
  -1.001200e+02  -3.204803e+02
  -1.092240e+02  -1.227528e+02
  -1.168539e+02  -1.071891e+02
  -3.611318e+02  -2.205787e+02
   1.677687e+01  -3.309468e+02
   4.556250e+02  -1.467131e+02
   5.017449e+02   1.766844e+02
   1.334480e+02   2.311814e+02
  -3.151626e+02   1.978995e+02
  -4.152210e+02  -1.025620e+02
  -1.907361e+02  -2.439290e+02
   2.276002e+02  -3.507626e+02
   4.542548e+02  -1.139335e+02
   2.868326e+02   1.183354e+02
   9.056033e+01   2.999770e+02
   5.496688e+01   1.033300e+02
   1.651712e+02  -7.759053e+01
   1.345853e+02  -8.672509e+01
   1.318941e+01   1.571441e+02
  -3.521274e+01   4.106746e+02
  -2.247146e+02   3.498767e+02
  -2.510862e+02   5.097423e+01
   1.226257e+00  -1.948599e+02
   7.683689e+01  -8.287044e+01
   7.125798e+01   2.005769e+02
  -1.147647e+02   3.029275e+02
  -3.529658e+02   5.595085e+01
  -4.403218e+02  -2.469520e+02
  -1.849486e+02  -3.926521e+02
   1.467695e+02  -2.627537e+02
   3.979270e+02  -7.492776e+00
   2.630268e+02   1.298868e+02
  -2.310789e+01   1.062743e+02
  -2.494418e+02   1.495762e+01
  -2.249390e+02  -2.350295e+01
  -4.699144e+01   2.473578e+01
   9.229970e+01   4.094290e+01
  -1.316190e+01   3.971240e+01
  -1.283218e+02  -7.909079e+01
  -1.220010e+02  -1.692438e+02
   1.478053e+02  -2.543637e+02
   3.413486e+02  -1.661683e+02
   3.122689e+02   6.483054e+01
  -5.425979e+01   2.883309e+02
  -3.214537e+02   3.655508e+02
  -3.887838e+02   1.644031e+02
  -1.942965e+02  -1.320264e+02
   1.842884e+01  -3.316997e+02
   2.436355e+01  -3.026445e+02
   2.673444e+01  -2.131052e+02
   6.046378e+01  -1.727930e+02
   1.809936e+02  -1.201818e+02
   2.690987e+02  -9.615506e+00
   2.091873e+02   1.727110e+02
   8.589331e+01   2.633190e+02
  -7.857147e+01   1.725826e+02
  -1.879433e+02  -2.847116e+01
  -1.271972e+02  -2.404524e+02
   6.025126e+01  -2.338158e+02
   2.716893e+02  -2.241774e+01
   3.520929e+02   2.159363e+02
   1.541525e+02   3.115483e+02
  -1.100880e+02   2.612136e+02
  -2.122165e+02   1.388191e+02
  -2.077237e+02   1.105973e+01
  -1.743250e+02   2.510153e+01
  -2.557179e+02   9.927968e+00
  -3.358500e+02  -1.319468e+02
  -2.528558e+02  -2.419066e+02
   7.756297e+01  -3.991549e+02
   3.624103e+02  -3.613761e+02
   4.472529e+02  -1.968099e+02
   2.485722e+02   8.542345e+01
   7.118023e+01   2.113486e+02
  -8.114540e+01   1.983340e+02
   2.014078e+01   4.474921e+01
   1.062467e+02   2.324212e+01
   1.133857e+02   9.915368e+01
   2.379080e+01   1.711022e+02
  -1.315003e+02   1.249043e+02
  -9.568049e+01  -6.951657e+01
  -2.351896e+01  -1.287263e+02
   9.087355e+01   2.161172e+01
   1.075468e+02   2.190350e+02
  -2.384908e+00   2.960628e+02
  -1.926314e+02   1.711938e+02
  -2.977047e+02  -8.526063e+01
  -2.504699e+02  -2.229070e+02
  -7.448041e+01  -2.402756e+02
   1.102842e+02  -1.240228e+02
   1.590629e+02  -1.114386e+01
   6.830403e+01   4.092144e+01
  -5.010482e+01  -1.165103e+01
   2.185150e+01  -7.982107e+01
   1.115112e+02  -8.456290e+01
   1.259807e+02   4.408702e+01
  -1.591803e+01   6.404059e+01
  -1.231312e+02   4.478519e+01
  -1.813117e+01  -1.111968e+02
   1.545435e+02  -9.796604e+01
   3.101013e+02  -2.289278e+01
   2.215010e+02   1.604389e+02
  -1.975108e+01   3.165873e+02
  -2.383915e+02   1.996119e+02
  -2.541089e+02   1.406135e+01
  -1.648316e+02  -6.077559e+01
   6.399719e+01  -1.081525e+02
   8.090022e+01   8.754083e+00
  -4.375541e+01   1.258653e+02
  -1.702213e+02   1.640647e+01
  -1.929955e+02  -7.778012e+01
  -8.309354e+01  -1.657507e+02
   9.681332e+01  -1.058203e+02
   1.336840e+02  -1.668516e+01
   4.488442e+01   6.924266e+01
  -6.616627e+01  -2.863656e+01
  -7.064498e+01  -5.537072e+01
   1.124395e+02  -1.295930e+02
   1.734392e+02  -5.712673e+00
   1.597235e+02   1.644551e+02
   2.925106e+00   2.027884e+02
  -1.562048e+02   1.396897e+02
  -1.459584e+02  -3.588223e+01
  -8.150746e+01  -8.608935e+01
   4.415670e+01  -9.907512e+01
   5.207330e+01  -3.915604e+01
   2.858169e+01   5.500970e+01
  -7.357152e+01  -1.666568e+01
  -2.126628e+01  -5.476028e+01
   5.087488e+01  -3.241039e+01
   9.528236e+01   7.786000e+01
   4.736033e+01   1.907185e+02
  -1.302143e+02   1.806063e+02
  -2.078950e+02   1.870697e+01
  -2.247348e+02  -1.461413e+02
  -3.643137e+01  -1.746540e+02
   7.668966e+01  -1.613958e+02
   1.064415e+02   1.235960e+01
   5.660682e+01   2.720598e+01
   1.306745e+01   9.362206e+00
   4.631208e+01  -3.325783e+01
   3.219258e+01  -2.246685e+01
   3.239833e+00   4.557394e+01
  -4.439639e+01   7.296649e+01
  -1.010186e+02   5.673319e+01
  -1.309503e+02   2.318759e+00
   1.768866e+01  -1.171013e+02
   1.613473e+02  -1.255848e+02
   2.301245e+02   3.326439e+01
   9.699081e+01   1.932781e+02
  -1.291139e+02   2.826903e+02
  -2.590607e+02   8.433292e+01
  -1.777756e+02  -8.263013e+01
  -5.764800e+01  -1.478625e+02
   3.107555e+01  -1.601752e+02
   6.628365e+01  -7.250055e+01
   5.766938e+01  -1.284234e+01
   3.372787e+01  -7.970138e+01
   7.007125e+01  -2.583072e+01
   1.041128e+02   1.764739e+01
   1.224917e+02   1.112430e+02
   2.163530e+01   2.383898e+02
  -6.781424e+01   1.221806e+02
  -1.567736e+02  -1.782564e+01
  -1.326121e+02  -1.302574e+02
  -8.975086e-01  -1.765713e+02
   4.159449e+01  -5.304162e+01
   6.359426e+01   2.109514e+01
  -6.275102e+00   3.146564e+01
  -4.036113e+01   1.341536e+01
  -7.483682e+00  -4.440325e+01
   5.777451e+01  -9.034953e+00
   5.337196e+01   8.119446e-01
  -2.832958e+01   2.630287e+01
  -7.995688e+01   3.432174e+00
  -9.244842e+01  -2.043745e+01
   4.401481e+01  -7.412308e+01
   1.186569e+02  -6.833482e+01
   1.159685e+02  -2.581579e+01
   2.885355e+01   5.247708e+01
  -7.850708e+01   7.949796e+01
  -7.157160e+01   9.802737e+00
   2.140730e+00  -4.024889e+01
   3.799674e+01  -6.007840e+01
   6.841781e+01   5.205529e+01
   7.095381e+01   6.544513e+01
   1.700998e+01   3.143260e+01
   6.365442e+01   4.994990e+01
   6.437584e+01  -1.837429e+01
   1.381529e+01   7.790621e+01
  -4.231525e+01   9.461373e+01
  -1.332139e+02   1.238750e+02
  -1.242951e+02   3.145468e+01
  -1.271933e+02  -1.599737e+02
  -1.779042e+01  -9.246249e+01
   9.165214e+01  -6.158427e+01
   9.486418e+01  -5.762074e+00
  -1.154578e+01   3.352711e+01
  -8.241101e+01  -8.877569e+00
  -9.096524e+01  -9.591742e+01
   9.449670e+01  -1.107316e+02
   1.700791e+02  -4.221078e+01
   1.263415e+02   2.167947e+01
   2.088097e+01   8.140753e+01
  -5.463184e+01   4.588832e+01
  -3.910123e+01  -1.563696e+01
   1.134652e+01  -2.420742e+00
   8.423681e+01   2.288770e+01
   2.683410e+01   1.155247e+02
  -3.565928e+01   1.416656e+02
  -1.026191e+02   6.787170e+01
  -9.834654e+01  -4.266154e+01
  -3.079591e+01  -1.654047e+02
   6.314877e+01  -4.968981e+01
   1.725205e+01   1.685649e+01
   4.136177e+01   9.734439e+01
  -1.654595e+01   7.161519e+01
  -4.790910e+01  -5.599440e+01
  -1.366381e+01  -7.163902e+00
  -2.007579e+01   8.985630e+00
  -2.279488e+01   5.450451e+01
  -1.693070e+01  -1.163910e+01
  -3.389948e+01  -8.362798e+01
  -4.513990e+01  -9.586557e+01
   1.250612e+02  -4.162961e+01
   1.098883e+02  -2.120111e+01
   8.555407e+01   9.283921e+01
  -4.137177e+00   1.040677e+02
  -7.425444e+01   3.823597e+01
  -4.761127e+01  -3.075853e+00
  -5.292023e+00  -2.515278e+01
   1.212046e+01  -4.006341e+01
  -1.497310e+01   1.796334e+01
   8.569861e+00   1.719616e+01
   4.430883e+01   1.445666e+01
   5.784914e+01   1.000348e+01
   1.032067e+02  -1.447551e+01
   2.254001e+01   5.500250e+01
  -9.789006e+01   1.054151e+02
  -1.679030e+02   1.016586e+02
  -1.143805e+02   2.614170e-01
  -7.138195e+01  -1.296993e+02
   2.111251e+01  -1.578199e+02
   8.318579e+01  -1.602920e+01
   5.520497e+01   6.223550e+01
   2.431213e+01   5.124897e+01
   6.922119e+00   1.630149e+01
   4.027054e+00  -3.088782e+00
   2.192571e+01   5.424353e+01
   2.299738e+01   5.841104e+01
  -8.150795e+01   2.222271e+01
  -6.790680e+01  -2.016176e+01
  -7.525558e+01  -4.303428e+01
  -1.180854e+01  -7.950333e+01
   1.106874e+01  -6.500221e+01
   9.370309e+01   2.524757e+01
   2.849061e+01   5.539096e+01
  -1.785040e+01   3.696784e+01
  -9.947050e+01   3.605305e+00
  -2.061901e+01  -5.150779e+01
   5.565232e+01  -5.013359e+01
   2.496845e+01  -1.222480e+01
  -1.703547e+01   4.549201e+00
  -3.528314e+01  -9.313747e+00
   1.766133e+01  -3.422535e+01
   5.529768e+01  -2.462353e+01
   7.337543e+01  -2.869155e+01
   5.580008e+01   1.109566e+01
  -1.056368e+01   7.539740e+01
  -3.769873e+01   7.670295e+01
  -5.627226e+01   4.624974e+01
  -4.241307e+01  -1.080699e+01
   4.108108e+01  -3.017520e+01
   1.069519e+01   2.846258e+01
   8.117690e+00   6.234054e+01
  -9.737440e+00   1.694756e+01
  -2.954666e+01  -2.295173e+01
  -4.470862e+01  -5.095387e+01
  -4.588936e+01  -4.642927e+01
  -1.598966e+01   1.697657e+01
   1.123361e+01  -1.644606e+00
  -7.687651e+00  -4.836940e+01
  -1.592607e+01  -5.006529e+01
   1.806298e+01   8.565079e+00
   6.471231e+01   5.302067e+01
  -2.371646e+01   6.619516e+01
  -9.918864e+00   5.442807e+01
  -9.619064e+01  -2.349046e+01
  -4.028269e+01  -6.663171e+01
   4.708918e+01  -1.686381e+01
   8.414097e+01   1.128995e+00
   6.635890e+01   4.379017e+01
  -3.936195e+01   5.956092e+01
  -8.025396e+01   5.746030e+01
   1.862131e+01  -1.689160e+01
   1.853120e+01  -1.727681e+00
  -6.357657e+00   1.511251e+01
  -9.363471e+00   6.283602e+01
  -1.054860e+02   3.431805e+01
