
 $NMID
 id='ANONYMOUS ', fmtdat='(2E16.6)'
 volume=1.0
 tramp=1.0
 $END
  -2.985124e+03  -4.084491e+02
  -1.901103e+03  -1.379059e+03
  -5.082467e+02  -1.757536e+03
   9.147908e+02  -1.483441e+03
   1.029066e+03  -5.896621e+02
   2.519157e+02   2.178959e+01
  -1.592558e+02  -1.675647e+02
   2.403285e+01  -4.319806e+02
   3.542839e+02  -4.160786e+02
   4.656217e+02  -3.271565e+02
   3.528291e+02   3.638488e+02
  -3.063186e+01   4.402186e+02
  -4.110934e+01   7.638734e+01
  -1.400691e+02  -3.504073e+02
   1.016329e+02  -5.410112e+02
   3.193982e+02  -2.417572e+02
   3.694518e+02   4.002772e+02
   3.244213e+01   6.824007e+02
  -4.764037e+02   3.752229e+02
  -3.676695e+02  -2.640886e+01
  -2.287639e+02  -3.608664e+02
   1.032472e+02  -9.627828e+01
   6.815391e+01  -1.350183e+02
  -3.339792e+01  -1.417904e+02
  -1.806800e+02  -5.091475e+02
   7.718733e+01  -2.130974e+02
   4.083948e+02  -8.752349e+01
   5.840552e+02   3.551615e+02
   1.195196e+02   3.330030e+02
  -3.289226e+02   1.320961e+02
  -4.272810e+02  -2.066135e+02
  -1.958911e+02  -3.735121e+02
   1.838374e+02  -3.141602e+02
   4.246084e+02  -1.238006e+02
   2.962629e+02   2.915721e+01
   9.233115e+01   2.714846e+02
   1.311099e+02   2.241804e+02
   9.085162e+01  -1.223436e+01
   1.723650e+02  -1.494410e+02
   2.333088e+01   1.382306e+02
  -7.174132e+01   3.370847e+02
  -2.474342e+02   3.228750e+02
  -1.967881e+02  -6.348197e+01
  -3.199786e+01  -2.206842e+02
   1.021150e+02  -1.452768e+02
   3.541874e+01   2.616253e+02
  -1.347915e+02   3.027356e+02
  -3.486466e+02   7.597698e+00
  -3.714730e+02  -3.736511e+02
  -1.337064e+02  -4.865679e+02
   2.597609e+02  -1.886161e+02
   5.011339e+02   2.306686e+01
   3.737632e+02   2.623023e+02
  -3.139429e+01   1.622912e+02
  -2.450558e+02   1.543042e+02
  -2.510996e+02   6.854571e+01
  -5.497971e+01   5.795894e+01
   1.220078e+00   2.469362e+01
  -7.607179e+01   9.762060e+00
  -1.925648e+02  -8.615705e+01
  -8.074552e+01  -1.737982e+02
   1.346784e+02  -2.561556e+02
   3.261944e+02  -1.329152e+02
   2.546903e+02   1.594260e+02
  -4.129400e+01   3.510155e+02
  -2.707985e+02   3.972923e+02
  -3.083384e+02   1.125312e+02
  -2.033487e+02  -2.475835e+02
  -5.060573e+01  -3.669053e+02
  -9.936689e+00  -3.423507e+02
   7.254284e+01  -1.422487e+02
   8.443147e+01  -1.292796e+02
   2.275893e+02  -6.817969e+01
   2.327235e+02  -1.702001e+01
   1.878358e+02   1.513319e+02
   1.025083e+02   2.579662e+02
  -7.876756e+01   1.815626e+02
  -1.976289e+02  -7.014118e+01
  -1.582063e+02  -2.188574e+02
   2.750830e+01  -2.078270e+02
   2.593515e+02  -1.017231e+02
   2.671487e+02   1.544082e+02
   1.646328e+02   2.482283e+02
   1.330179e+01   2.132287e+02
  -9.910307e+01   2.245158e+02
  -1.431090e+02   1.203911e+02
  -1.921758e+02   1.138617e+02
  -3.170910e+02   1.479304e+01
  -4.343821e+02  -1.680989e+02
  -3.153489e+02  -3.075384e+02
   4.497597e+01  -4.102230e+02
   4.076402e+02  -3.731631e+02
   4.625434e+02  -1.736286e+02
   2.875731e+02   1.480841e+02
   8.061193e+00   2.035783e+02
  -8.381977e+01   1.841477e+02
  -1.360467e+01   9.656404e+01
   1.090677e+02   1.378151e+00
   6.465990e+01   5.782264e+01
  -5.059913e+01   1.373374e+02
  -1.258209e+02   1.397570e+02
  -8.562064e+01  -5.849976e+01
  -7.608911e-01  -1.316844e+02
   1.421080e+02  -1.609400e+01
   1.080048e+02   2.144551e+02
  -3.958303e+01   3.372504e+02
  -2.463523e+02   1.633044e+02
  -3.720258e+02  -9.180280e+01
  -2.751051e+02  -2.899322e+02
  -5.140307e+00  -2.998314e+02
   1.338982e+02  -1.419346e+02
   1.502524e+02   3.277177e+01
   2.368914e+01   1.091376e+01
  -4.793370e+01  -4.156104e+01
   2.487247e+01  -9.174685e+01
   1.237237e+02  -8.188423e+01
   1.272558e+02   2.214619e+01
   2.655718e+01   1.191753e+02
  -1.013803e+02  -1.115753e+01
  -5.000406e+01  -5.685998e+01
   1.236243e+02  -9.694741e+01
   2.909436e+02   1.194515e+01
   2.312197e+02   1.690800e+02
  -5.650419e+00   2.807155e+02
  -2.635821e+02   2.283990e+02
  -2.467783e+02   1.038082e+02
  -1.367777e+02  -3.958579e+01
   8.327483e+01  -7.356825e+01
   6.362415e+01  -6.433695e+01
  -4.677804e+01   3.370300e+01
  -1.946200e+02   4.271176e+01
  -1.972058e+02  -5.199740e+01
  -3.674861e+01  -1.404151e+02
   9.675363e+01  -1.096142e+02
   1.028361e+02   1.334116e+01
   8.312343e+00   4.475009e+01
  -2.116516e+01  -3.296363e+01
  -6.652616e+01  -1.389979e+02
   1.144393e+02  -9.851734e+01
   1.973309e+02  -3.757811e+01
   1.615002e+02   1.329781e+02
  -5.630165e+00   2.602250e+02
  -1.552772e+02   1.412968e+02
  -1.652893e+02   5.434801e+00
  -6.943313e+01  -1.212958e+02
   8.770693e+01  -8.288034e+01
   9.246111e+01   4.669291e+01
  -3.011299e+01   2.656372e+01
  -4.836292e+01  -1.443207e+01
  -2.483119e+01  -3.663398e+01
   6.990791e+01   3.721623e+00
   1.348664e+02   7.787051e+01
   7.100688e+01   1.863858e+02
  -1.054003e+02   1.133210e+02
  -2.208489e+02   2.185306e+00
  -1.911989e+02  -1.690122e+02
  -6.149629e+01  -2.216634e+02
   9.124840e+01  -1.377578e+02
   1.366475e+02  -5.677635e+01
   1.066502e+02   5.030571e+01
   4.905389e+01   5.887297e+01
   2.308270e+01  -1.414805e+01
   9.361794e+01  -3.434423e+01
   8.472875e+01   7.898224e+01
  -4.001282e+01   7.768018e+01
  -1.244085e+02   7.431932e+01
  -1.153938e+02  -7.790455e+01
   3.502712e+01  -1.365543e+02
   1.099595e+02  -6.505074e+01
   1.674813e+02   8.722657e+01
   6.800047e+01   2.476005e+02
  -7.685238e+01   2.232474e+02
  -2.540644e+02   8.199810e+01
  -2.332821e+02  -1.127556e+02
  -8.742297e+01  -1.887839e+02
  -1.126695e+01  -1.008572e+02
   5.764893e+01  -5.106071e+01
   5.469143e+01  -8.795768e+01
   9.902545e+01  -1.014498e+02
   1.506183e+02  -6.250187e+01
   1.705620e+02   6.124682e+01
   9.623538e+01   1.294892e+02
   1.413098e+01   2.524944e+02
  -1.175992e+02   1.178493e+02
  -1.566724e+02   8.527092e+00
  -8.360989e+01  -1.476227e+02
   3.791179e-01  -1.455034e+02
   5.452386e+01   3.343306e+01
   6.458459e+01   7.471791e+01
   3.371382e+01   7.767000e+01
  -1.869546e+01   5.447178e+01
  -1.285682e+00   5.432191e+01
   6.584479e+01   8.796000e+01
  -2.251476e+01   6.171282e+01
  -9.593345e+01   6.498063e+01
  -2.134505e+02  -1.119394e+01
  -1.211112e+02  -1.067379e+02
   6.663733e+01  -1.091875e+02
   1.353427e+02  -9.446281e+01
   1.624875e+02  -1.639117e+01
   2.112481e+01   9.025121e+01
  -6.063924e+01   4.815503e+01
  -6.602050e+01   2.965497e+01
  -5.765589e+01  -5.508217e+01
   1.050923e+02  -8.844415e+01
   8.186499e+01   2.439862e+01
   5.477130e+01   5.444261e+01
   5.738168e+01   1.074056e+01
   5.478796e+01  -4.458441e+01
   9.059988e+01   3.199226e+01
   9.091628e+01   9.503812e+01
  -3.634322e+01   1.439695e+02
  -1.174204e+02   1.456273e+02
  -2.000017e+02   4.952787e+01
  -1.397312e+02  -4.104879e+01
  -2.192579e+01  -6.821912e+01
   6.310455e+01  -4.580084e+00
   2.350389e+01   1.512607e+01
  -8.185840e+01   6.343644e+01
  -1.345265e+02  -8.329760e+01
  -8.477699e+01  -9.873557e+01
   6.053175e+01  -1.187461e+02
   1.855783e+02  -5.239512e+01
   1.364001e+02   4.408128e+01
   2.305101e+01   5.571367e+01
  -2.275885e+01   6.975445e+01
  -3.600253e+01  -5.343428e+00
   5.258335e+01  -1.663075e+01
   1.132712e+02   6.594476e+00
   5.918860e+01   1.153557e+02
  -8.874760e+01   1.393911e+02
  -1.741176e+02   9.698327e+01
  -1.212629e+02  -9.557444e+01
  -3.227798e+01  -1.437087e+02
   8.077115e+01  -1.193872e+02
   1.300100e+02   3.901441e+01
  -4.680435e+01   1.695582e+02
  -8.609407e+00   6.634746e+01
  -5.108444e+01  -5.487575e+01
  -3.127388e+01  -1.712594e+01
  -5.690447e+00   7.771435e+00
  -1.721794e+01   3.690234e+01
  -5.305645e+01  -5.996960e+00
  -4.431086e+01  -8.639224e+01
  -4.025729e+01  -1.216896e+02
   9.616587e+01  -4.480912e+01
   1.792063e+02   4.151899e+01
   1.849849e+02   5.618924e+01
   1.083886e+01   1.101932e+02
  -6.629283e+01  -2.916872e+00
  -6.662687e+01  -1.617455e+01
  -3.768735e+01  -9.715958e+00
  -2.474254e+00  -6.136295e+01
  -1.386165e+01  -1.326704e+01
   8.331799e+00  -5.130474e+01
  -1.125043e+00   9.569104e+00
   1.109901e+02  -2.138429e+01
   6.636293e+01   3.854690e+01
   1.856473e+01   8.549577e+01
  -1.004869e+02   1.464116e+02
  -2.028939e+02   1.022190e+02
  -1.781002e+02  -4.824834e+01
  -6.721694e+01  -1.670133e+02
   2.341052e+01  -1.572020e+02
   1.341946e+02  -3.430294e+01
   1.154477e+02   6.993429e+01
  -9.439684e+00   4.768161e+01
  -1.105913e+01   6.433181e+01
  -2.965956e+00   6.729998e+00
  -3.962364e+01   3.685228e+01
  -6.129080e+00   1.735532e+01
  -3.959362e+01   7.406507e+01
  -1.126156e+02  -4.739046e+01
  -9.778809e+01  -1.077829e+02
  -1.764774e+00  -1.221594e+02
   6.202691e+01  -4.079918e+01
   5.570665e+01   3.906973e+01
   3.414232e+01   5.081948e+01
  -8.571656e+01   5.121652e+01
  -1.198197e+02   1.044121e+01
   1.264663e+01  -1.006233e+02
   3.811001e+01  -4.946801e+01
   4.804696e+01   1.132152e+01
  -2.285816e+01   3.499330e+01
  -6.741188e+01   4.299619e+01
   1.889419e+01  -1.970777e+01
   9.317868e+01  -5.034850e+01
   1.003743e+02  -3.822184e+01
   8.982884e+01   5.770211e+01
  -2.607512e+01   1.052595e+02
  -6.133707e+01   6.391594e+01
  -1.165081e+02   1.519563e+01
  -9.669544e+00  -6.480709e+01
  -7.401617e+00  -3.920145e+01
   5.570118e+01  -6.931689e+00
   1.593022e+01   4.100975e+01
   1.338840e+01   3.516217e+01
  -2.803719e+01  -2.084982e+01
  -5.658920e+01  -8.465089e+01
   8.257084e+00  -3.141386e+01
  -3.706689e+01  -3.984176e+00
   3.278743e+01   2.776997e+01
  -4.945952e+01  -6.400957e+01
   3.566165e+01  -3.997983e+01
   3.643458e+01  -3.059964e+01
   3.003377e+01  -1.795988e+01
  -8.068190e+00   4.769050e+01
  -2.601639e+01   5.177613e+01
  -7.150756e+01  -2.139470e+01
  -1.632419e+01  -5.257621e+01
   9.191090e+01  -7.672758e+01
   7.166748e+01   1.397702e+01
   5.748149e+01   7.188005e+01
  -5.182018e-01   4.212873e+01
  -7.236855e+01   5.317359e+01
  -6.738295e+01  -1.836643e+01
   2.633709e+01  -2.497196e+00
   7.667448e+01  -5.584601e+00
   6.838664e+01   7.480972e+01
  -8.869353e+01   3.735579e+01
