
 $NMID
 id='ANONYMOUS ', fmtdat='(2E16.6)'
 volume=1.0
 tramp=1.0
 $END
   3.274651e+03   1.176791e+02
   2.079549e+03   1.659236e+03
  -6.252528e+01   1.960460e+03
  -1.148734e+03   1.349941e+03
  -1.003666e+03   1.847159e+02
  -8.716483e+01  -3.422728e+02
   4.653328e+02  -5.140044e+01
   3.378370e+01   5.351735e+02
  -4.309127e+02   5.511736e+02
  -5.857551e+02   1.929233e+02
  -3.512422e+02  -5.538765e+02
  -5.061487e+01  -7.092993e+02
   2.545436e+02  -2.102873e+02
   2.352014e+02   4.810256e+02
  -2.075419e+02   5.363325e+02
  -4.342608e+02   1.368708e+02
  -2.970239e+02  -3.975696e+02
  -3.741235e+01  -5.100832e+02
   6.105678e+02  -4.369953e+02
   3.521100e+02   2.375619e+02
   2.278895e+02   4.460837e+02
  -1.999286e+02   3.291330e+02
  -6.128615e+01   1.211892e+02
   3.091936e+02   5.646768e+01
   3.341980e+02   2.917870e+02
  -1.296703e+01   5.581197e+02
  -4.643059e+02   2.217386e+02
  -5.081123e+02  -1.190173e+02
  -1.088499e+02  -2.813285e+02
   2.813391e+02  -2.729822e+02
   4.019872e+02   6.562889e+01
   2.789265e+02   4.294034e+02
  -1.340019e+02   2.445132e+02
  -4.688923e+02   9.456532e+01
  -3.520481e+02  -8.297432e+01
  -2.314538e+01  -2.814662e+02
   5.947653e+01  -1.303362e+02
   7.601222e+00   7.627212e+01
  -1.327981e+02   8.608414e+01
  -1.909774e+02  -8.185104e+01
  -2.329028e+01  -3.998540e+02
   2.109884e+02  -4.437115e+02
   3.296669e+02  -3.666178e+01
   1.327863e+02   2.575263e+02
  -2.361282e+02   1.656762e+02
  -2.070718e+02  -2.618981e+02
   8.856000e+01  -4.609061e+02
   4.790488e+02  -1.394773e+02
   4.848809e+02   3.806088e+02
   1.235957e+02   5.734921e+02
  -3.124648e+02   3.145037e+02
  -4.846236e+02  -6.791631e+01
  -2.794577e+02  -2.856245e+02
   5.644108e+01  -2.156009e+02
   3.052318e+02  -5.115113e+01
   2.120189e+02   4.196488e+01
   1.807890e+01   2.607283e+01
  -5.005287e+01  -2.962526e+01
   3.539370e+01  -5.491219e+01
   1.970577e+02   5.720851e+01
   1.591820e+02   1.927190e+02
  -1.116466e+02   2.961598e+02
  -3.896412e+02   1.864253e+02
  -3.031567e+02  -5.222663e+01
   7.813728e+00  -3.613632e+02
   3.412312e+02  -4.170603e+02
   4.180595e+02  -1.722183e+02
   2.047071e+02   1.783759e+02
  -1.968181e+01   3.454184e+02
  -4.476031e+01   3.121375e+02
  -3.405359e+01   2.173386e+02
  -1.904532e+01   1.123662e+02
  -1.220172e+02   1.149283e+02
  -2.393892e+02   7.150945e+01
  -2.444902e+02  -1.416854e+02
  -1.201398e+02  -2.851962e+02
   7.204953e+01  -1.798467e+02
   2.273364e+02   2.632056e+01
   2.061823e+02   2.790634e+02
  -8.254760e+01   2.881675e+02
  -2.718211e+02   6.715553e+01
  -3.536309e+02  -1.893535e+02
  -1.826201e+02  -3.019956e+02
   6.380139e+01  -2.112352e+02
   1.583788e+02  -1.225983e+02
   1.327997e+02  -1.013880e+02
   1.663814e+02  -9.066625e+01
   2.601096e+02  -3.070619e+01
   4.234297e+02   1.011327e+02
   3.101367e+02   3.187738e+02
  -4.727240e+01   4.381917e+02
  -3.718876e+02   3.412704e+02
  -4.781776e+02   1.236995e+02
  -3.354797e+02  -1.439910e+02
   1.515439e+01  -2.470221e+02
   1.363848e+02  -2.042681e+02
   3.859902e+01  -1.123468e+01
  -7.790498e+01   4.103189e+01
  -8.870116e+01  -7.825134e+01
  -4.993404e+00  -1.640798e+02
   1.069950e+02  -1.172537e+02
   6.669187e+01   1.003576e+02
  -6.384669e+01   1.526846e+02
  -2.118340e+02   1.072164e+00
  -1.430927e+02  -2.395054e+02
   1.231576e+01  -3.990528e+02
   2.488237e+02  -2.615129e+02
   4.021855e+02   4.055771e+01
   3.162518e+02   2.647596e+02
   4.400665e+01   2.644766e+02
  -1.488713e+02   1.774276e+02
  -1.297153e+02  -1.229676e+01
  -6.192203e+01   6.614588e+00
   4.640415e+01   6.599061e+01
   3.996556e+00   6.732771e+01
  -8.849278e+01   4.382737e+01
  -1.285885e+02  -5.820876e+01
  -2.408713e+01  -5.462537e+01
   7.976281e+01   2.537849e+01
   6.461336e+01   9.534631e+01
  -1.087427e+02   1.625517e+02
  -2.923267e+02   3.999276e+00
  -2.765757e+02  -1.799351e+02
  -1.956581e+01  -2.791926e+02
   1.990153e+02  -2.569338e+02
   2.868984e+02  -5.796144e+01
   8.198561e+01   6.319993e+01
  -2.081535e+01   9.587230e+01
  -3.585853e+01  -5.238515e+00
   5.466267e+01  -8.664089e+01
   1.149630e+02  -5.033504e+01
   1.676799e+02   7.914363e+01
   3.694637e+01   1.513507e+02
  -1.044426e+02   1.510850e+02
  -8.418635e+01   5.724179e+01
  -7.109861e+01  -4.962054e+01
  -1.273854e+01   5.104656e+01
   2.159947e+01   8.826321e+01
  -1.245278e+02   7.872583e+01
  -1.615067e+02  -7.576497e+01
  -1.085724e+02  -1.325054e+02
  -9.797187e-01  -1.495459e+02
   1.850317e+02  -1.224308e+02
   1.838257e+02   2.104106e+01
   2.588308e+01   1.319822e+02
  -3.854022e+01   8.723413e+01
  -8.738743e+01   3.336929e+01
  -2.118190e+01  -1.754815e+01
   3.858392e+01  -2.445716e+01
  -2.310422e+01  -3.827036e+00
  -1.129278e+02  -8.042265e+00
  -1.072894e+02  -1.260792e+02
   4.719978e+01  -1.639474e+02
   1.289392e+02  -1.298306e+02
   2.077553e+02  -1.051830e+01
   1.975951e+02   1.842831e+02
   3.120072e+01   1.699146e+02
  -1.052378e+02   8.679380e+01
  -7.831477e+01  -3.112340e+00
  -1.189617e+02  -4.446833e+01
  -2.058010e+01  -6.762815e+01
  -2.437439e+01   6.413519e+01
  -1.102788e+02  -2.231771e+00
  -3.422267e+01  -8.218807e+01
   6.488682e+01  -7.078469e+01
   8.689214e+01  -3.310068e+01
   1.200517e+02   7.603835e+00
  -6.432015e+01   1.157400e+02
  -1.994959e+02   1.019135e+02
  -1.681350e+02  -7.820254e+01
  -7.279132e+01  -1.823054e+02
   1.293653e+02  -2.094107e+02
   2.869245e+02  -8.708895e+01
   1.917939e+02   9.934882e+01
   8.983820e+01   1.759174e+02
  -7.852646e+01   1.014676e+02
  -9.344777e+01   4.656599e+01
  -8.046844e+01   8.821027e+01
  -7.777544e+01   2.760852e+01
  -4.404113e+01   7.751511e+01
  -1.328613e+02  -4.224325e+01
  -1.457438e+02  -1.898493e+02
  -1.564450e+01  -2.045316e+02
   8.851668e+01  -1.640610e+02
   1.945219e+02  -2.167430e+01
   1.264815e+02   1.447981e+02
   4.028773e+01   1.220760e+02
  -7.525569e+01   7.397618e+01
  -3.658381e+01  -9.385945e+00
  -5.706444e+00  -7.370283e+01
   3.856124e+01  -3.097157e+01
  -2.619953e+01   3.234364e+01
  -8.606306e+01  -7.762801e+01
  -6.265459e+01  -3.232151e+01
   5.644337e+01  -3.889427e+01
   1.417483e+02   1.645407e+01
   1.159466e+02   8.420875e+01
   6.809917e+00   9.021825e+01
  -1.305969e+02   3.540227e+01
  -1.136211e+02  -2.816023e+01
  -3.676066e+00  -4.945501e+01
   1.002164e+02  -1.672762e+01
   8.932604e+01   3.929967e+01
   3.590059e+00   5.005812e+01
  -7.979034e+01   6.599513e+01
  -6.704821e+01   8.704763e-01
  -7.559563e+01  -3.332881e+01
  -6.418523e+01  -3.395762e+01
  -8.405087e+01   2.263416e+00
  -3.401144e+01  -1.131237e+00
  -3.379168e+01  -1.045196e+02
   6.959459e+00  -1.201447e+02
   8.371378e+01  -1.165705e+02
   1.282064e+02  -5.431268e+01
   9.400607e+01   9.101138e+01
   5.201368e+01   7.894033e+01
  -3.563844e+01   5.747060e+01
  -2.727843e+01  -3.143616e+01
   6.378403e+01  -2.526708e+01
   1.345510e+02   9.515807e+01
   5.839780e+01   1.568767e+02
  -7.890741e+01   7.575384e+01
  -2.241107e+02   6.979265e+01
  -1.617920e+02  -5.276518e+01
  -3.111515e+01  -1.365253e+02
   7.340886e+01  -2.795109e+01
   4.932009e+01  -2.499579e+01
  -4.149475e+01   3.334857e+01
  -1.046238e+02  -1.040582e-01
  -9.658210e+00  -1.312343e+02
   9.965421e+01  -1.060857e+02
   1.355263e+02  -5.395166e+01
   7.830508e+01   7.938937e+01
   3.944669e+01   1.875959e+02
  -7.563145e+01   1.085610e+02
  -9.505481e+01  -4.342816e+01
  -6.156339e+01  -1.509296e+02
  -1.137067e+00  -1.064852e+02
   7.776710e+00  -3.340981e+01
   5.813911e+01  -1.783626e+01
   3.263648e+01   2.515444e+01
  -8.484772e+00  -1.815096e+01
   2.450590e+01   6.457979e+01
   2.694841e+00   9.988850e+01
   3.897436e+01   6.222179e+01
  -6.312692e+01   2.719429e+01
  -1.075268e+02  -6.087343e+01
  -9.015260e+01  -1.359217e+02
   2.879133e+01  -4.276291e+01
   8.709353e+01   3.613488e+01
   1.160041e+02   3.449431e+01
   2.272733e+01   2.645198e+01
  -7.988466e+01   3.487247e+01
  -2.124448e+01  -3.267067e+01
   5.552024e+01   3.628800e+01
   1.849143e+01   1.251456e+01
  -7.489174e+01   2.530967e+01
  -1.049013e+02  -7.343555e+01
  -2.054849e+01  -7.626975e+01
   1.178263e+02  -1.406608e+02
   2.134802e+02  -7.243639e+01
   1.395357e+02   2.211087e+01
  -7.206795e-01   1.082680e+02
  -9.148574e+01   1.607674e+02
  -1.601526e+02   6.406911e+01
  -7.260750e+01  -2.472349e+01
  -9.531828e+01   1.494860e+00
  -3.640156e+01  -4.949007e+01
   1.933425e+01  -4.089034e+01
   1.038581e+01  -6.154990e+01
  -1.671847e+01  -1.378644e+02
   2.429258e+01  -7.504873e+01
   6.613693e+01   2.816556e+01
   7.896089e+01   1.396036e+02
   3.872594e+01   1.292072e+02
  -5.905217e+01  -2.325586e+01
  -1.102558e+02  -4.003250e+01
  -5.195778e+01  -6.303456e+01
   1.001646e+02  -1.030015e+02
   1.387735e+02  -3.271769e+01
   6.339924e+01   5.780687e+01
  -5.572067e+01   5.561843e+01
  -2.564520e+01   5.468870e+01
   3.282783e+01  -1.342920e+00
   4.991962e+01   7.220466e+00
   2.710031e+01  -3.090779e+01
  -3.857397e+01   2.195155e+01
  -8.256085e+01   1.058245e+02
  -9.063925e+01  -2.464009e+01
   4.407397e+01  -2.623329e+01
   7.113685e+01  -7.417998e+01
   4.660509e+01   1.511137e+01
   1.485802e+01   4.012182e+01
   1.418156e+00   4.635551e+01
  -3.076061e+01  -3.254147e+01
  -4.213012e+01  -1.470959e+01
   8.590613e+00  -4.763604e-02
  -2.715037e+01   8.888206e+01
   6.565234e+00   9.408290e+01
   6.421012e+00  -3.563283e+00
  -2.863540e+00  -3.249640e+01
  -2.638893e+01  -6.151188e+01
  -2.000527e+01   3.799236e+01
   6.083263e+00   8.043723e+01
  -2.428204e+01   1.545098e+01
  -4.878322e+01  -8.065104e+01
   1.098579e+01  -7.501809e+01
   3.772709e+01  -1.215823e+01
   5.758384e+01   3.712438e+01
   7.024669e+01   4.591252e+01
  -4.736959e+01   8.482717e+00
  -1.066006e+02  -3.936202e+01
  -5.533832e+01  -4.881782e+01
   4.808270e+01  -7.041182e+01
   1.113499e+02  -2.695874e+00
   7.052316e+01   8.109731e+00
  -4.574692e+01  -1.582305e+01
   5.533465e+00   3.385138e+01
   3.584692e+01   2.841383e+01
   3.056677e+01  -9.988211e+00
