
 $NMID
 id='ANONYMOUS ', fmtdat='(2E16.6)'
 volume=1.0
 tramp=1.0
 $END
  -1.025145e+03  -6.456250e+01
  -4.097453e+02  -3.815238e+02
  -1.201941e+02  -6.496882e+02
   1.419200e+02  -3.523443e+02
   3.046643e+02  -1.027341e+02
  -3.520215e+00  -3.753424e+01
  -2.831907e+01  -7.348464e+01
   3.996960e+01  -2.144289e+02
   1.095539e+02  -1.647222e+02
   1.061791e+02  -8.933213e+00
   1.983715e+02   1.433375e+02
   1.059528e+02   1.527942e+02
  -2.601753e+01   4.714527e+00
  -8.621639e+01  -9.824235e+01
   2.875552e+01  -1.409457e+02
   5.417824e+01  -1.381300e+01
  -1.430857e+01   6.973093e+01
  -1.007999e+02   3.707368e+01
  -1.679401e+02   2.183020e+02
  -1.587493e+02   9.666789e+01
  -1.092869e+01  -1.786772e+02
  -1.682567e+02   1.674677e+01
   1.058152e+02  -1.298257e+00
  -1.757769e+02  -7.670042e+01
  -3.800519e+01  -1.234258e+02
   6.774544e+01  -1.810015e+02
   1.671964e+02   9.194703e+01
   2.455331e+02   1.061937e+02
  -1.760668e+01   1.356049e+02
  -5.383601e+01  -6.979774e+01
  -1.885052e+02  -6.895081e+01
  -5.727368e+01  -2.785697e-01
   6.398677e+01  -1.279503e+02
   1.425274e+02  -3.468767e+01
   1.106820e+02   1.619574e+02
  -6.039821e+00   7.807213e+01
   7.372207e+01   5.154611e+01
   1.350473e+01  -6.524616e+01
   2.122835e+01  -4.490972e+01
   3.722224e+01   2.567960e+00
  -3.407026e+01   1.441287e+02
   2.196721e+01   9.328520e+01
  -8.276786e+01  -4.104453e+01
  -3.504007e+01  -5.240058e+01
  -6.007878e+01  -5.171507e+01
  -1.588114e+01   6.799498e+01
  -5.287776e+01   1.058582e+02
  -6.056311e+01  -2.210306e+01
  -8.832700e+01  -1.288276e+02
  -1.131106e+01  -1.503671e+02
   7.182991e+01  -9.765270e+01
   1.337247e+02   7.201865e+01
   1.139661e+02   1.025812e+02
  -1.330051e+01   5.578532e+01
  -1.274017e+02   4.007156e+01
  -8.661141e+01   1.611769e+01
  -7.934916e+00  -1.838756e+00
   4.911359e+01   1.698947e+01
  -1.356521e+01  -3.991302e+01
  -1.148404e+02  -4.589269e+01
  -6.821923e+01  -4.445693e+01
   4.797314e+01  -5.630035e+01
   1.452242e+02   2.338198e+00
   1.238300e+02   3.368360e+01
  -6.189650e+01   1.096616e+02
  -8.071996e+01   1.431074e+02
  -1.013368e+02   3.721351e+01
  -4.740094e+01  -9.781013e+01
  -2.306837e+01  -1.202546e+02
  -2.231149e+01  -1.176092e+02
   6.590869e+00  -3.328707e+01
   9.970444e+01   6.586070e+00
   5.490297e+01  -6.022890e+01
   6.206236e+01  -5.274815e+00
   5.504166e+01   3.390542e+01
  -2.550776e+01   1.165524e+02
  -4.506357e+01   6.856063e+01
  -1.219079e+02  -7.992816e+01
  -6.373549e+01  -9.648115e+01
   2.809994e+01  -1.400533e+02
   8.532195e+01  -3.404693e+01
   1.221707e+02   2.635753e+01
   8.426687e+01   7.357796e+01
  -2.759887e+01   9.354974e+01
  -2.478347e+01   5.832538e+01
  -1.940622e+01   3.195749e+01
  -3.498812e+01   4.438628e+01
  -8.342757e+01  -4.805661e+00
  -1.077657e+02  -7.385834e+01
  -5.782465e+01  -9.638307e+01
   5.455827e+01  -1.053269e+02
   1.296374e+02  -9.359715e+01
   2.212249e+02   2.592589e+01
   4.844813e+01   6.650597e+01
  -2.474177e+01   1.177268e+02
  -5.393652e+01   4.807213e+01
  -2.848931e+01  -1.281701e+01
   2.857495e+01   3.923844e+01
   4.596266e+01   1.983899e+01
  -3.802528e+01   7.357214e+01
  -6.022399e+01  -1.058722e+01
  -6.822889e+01  -5.383146e+01
   4.413966e+01  -5.752397e+01
   9.187339e+01  -3.849545e+01
   8.126698e+01   8.201976e+01
  -7.215528e-01   1.472951e+02
  -9.128927e+01   1.144130e+02
  -1.171787e+02   6.084530e+00
  -7.415965e+01  -8.930031e+01
  -8.740384e+00  -1.031996e+02
   3.314565e+01  -2.579541e+01
   6.906425e+01   3.486938e+01
  -6.214242e+00   8.254346e+00
  -2.202348e+01  -3.125432e+01
  -1.932312e+01  -7.743848e+01
   4.846135e+01   7.171095e+00
   6.391988e+01   6.450045e+01
   1.336348e+01   6.020908e+01
  -5.350522e+01   1.971416e+01
  -5.613721e+01  -7.382301e+01
  -1.869611e+01  -7.381631e+00
   2.715304e+01   1.173962e+01
   8.562710e+01   2.138048e+01
  -1.234369e+01   7.224803e+01
  -5.716135e+01   4.692475e+01
  -1.024833e+02  -3.512763e+00
   1.020993e+01  -7.496184e-01
   4.154694e+01  -3.254865e+01
   3.039017e+01   3.777575e+01
  -1.975536e+01   2.680080e+01
  -1.154904e+02   4.669441e+01
  -6.997204e+01  -2.886903e+01
  -9.709073e+00  -7.239990e+01
   3.265220e+01  -6.407214e+01
   4.707529e+01  -4.420371e+01
   1.475157e+01  -2.534853e+00
   2.683359e+01  -3.640417e+00
   2.490972e+01  -3.353874e+01
   4.142644e+01  -4.394881e+01
   2.027830e+01   3.541767e+01
   3.972814e+01   7.166569e+01
   6.669377e+00   7.799879e+01
  -9.421684e+01   3.284484e+01
  -9.018460e+01   9.901796e+00
   2.422850e+01  -1.376144e+01
   3.869370e+01  -3.470344e+01
   4.127964e+01   2.377306e+01
   1.532391e+01   5.355134e+01
   1.261360e+01  -2.404816e-02
  -3.239782e+01  -8.594322e+00
   1.815929e+01   1.249593e+01
   6.129476e+01   1.397268e+01
   1.763860e+01   1.578397e+01
  -5.470149e+01   5.107339e+00
  -7.032424e+01  -1.754138e+01
  -4.241739e+01  -4.840177e+01
  -4.833423e+01  -5.536382e+01
   5.116386e+01  -2.475533e+01
   2.642582e+01  -3.194617e+01
   4.816105e+01   5.764828e+01
   4.256821e+01   3.826438e+01
   2.451196e+01   3.193113e+00
   1.327132e+01  -3.391745e+01
   5.588856e+00   3.998796e+01
   3.646077e+01   1.555451e+01
   7.428644e+00  -1.359463e+01
   6.059616e+00   1.757593e+01
   4.945263e+01  -1.462640e+01
   3.189556e+01  -4.934672e+01
   7.069644e+01   2.920094e+00
   7.108582e+01   8.129905e+01
  -4.199680e+01   2.459010e+01
  -8.841858e+01  -1.615832e+01
  -8.235225e+01  -4.401152e+01
  -1.688403e-01  -8.915463e+00
  -2.357439e+01  -7.835697e+01
  -2.354487e+00  -2.534051e+01
   5.872774e+01  -9.398266e-02
  -3.536026e+00  -3.739265e+01
   5.851164e+01  -1.571775e+01
   1.438055e+01  -1.597606e+01
   2.590265e+01   4.103382e+01
   4.367964e+01   2.823911e+01
  -2.025272e+00   3.935813e+01
  -1.805974e+01  -5.843713e+01
  -1.505127e+01  -2.138849e+01
  -2.188687e+01  -1.521694e+01
   9.555481e+00  -2.261655e+01
   3.129176e+01   9.649772e+00
  -6.233134e+00   2.464529e+01
  -3.701152e+01  -7.442519e+00
   3.048776e+01  -3.430229e+01
   2.069802e+01  -4.485930e+00
   4.959050e+01   1.285342e+01
  -1.589617e+01   3.871280e+01
  -3.697158e+01   4.159534e+01
  -7.476374e+01  -5.340354e+00
  -6.455269e+00  -5.272002e+01
  -6.347708e+00  -1.033590e+01
  -5.629218e+00  -9.996489e+00
  -7.708066e+00  -8.799745e+00
  -9.674469e+00   1.816847e+01
  -2.286417e+01   1.181529e+01
  -2.793136e+00  -2.055726e+01
  -1.247709e+01  -4.464158e+01
   3.498047e+01  -7.076219e+00
   1.534012e+01   2.416102e+01
   1.383580e+01   2.693470e+01
   2.642867e+01  -1.680458e+01
  -5.643730e+00  -5.965399e+00
  -2.942238e+00  -2.774927e+01
  -1.857962e+01   6.662148e+00
  -8.863617e+00   4.920394e+01
  -1.074026e+01   9.586138e+00
  -2.068143e+01   3.563704e+01
   2.319530e+01   2.504931e+01
   3.401059e+00  -3.532133e+01
   4.781355e+00  -4.677478e+01
  -2.702087e+01   2.873889e+00
  -1.380066e+01   1.035897e+01
   9.923422e+00  -1.211659e+01
  -5.553410e+01  -3.927852e+01
   3.652424e+00  -4.704680e+00
   3.683289e+01  -9.451775e+00
   1.382196e+01   5.994366e+00
  -5.096600e+01  -2.300069e+01
  -7.777857e+00   2.789520e+01
  -1.392839e+01  -3.239857e+01
   1.620286e+01   1.232231e+01
   9.616189e+00   3.138602e+00
  -4.984245e+01   1.658353e+01
  -9.235327e+00   2.229588e+01
   7.118507e+00   1.246430e+01
   8.046260e+00  -6.158844e+01
   1.681703e+01  -3.474639e+01
   3.825472e+00  -1.470714e+01
   5.881942e+01   1.894483e+01
   2.334981e+01   5.607313e+00
  -2.495237e+01   1.638663e+01
   2.729524e+01   2.476700e+01
  -1.787733e+01  -6.379108e+00
  -2.285223e+01   1.774677e+01
  -1.782315e-01   6.895178e+00
   5.796661e+00   4.312746e+00
  -3.893330e+01  -3.563932e+01
  -1.018199e+01  -2.109190e+01
   3.375638e+01   3.111536e+01
   3.823661e+01   1.160945e+01
   2.261778e+01   1.626854e+01
  -9.178145e+00   4.274801e+01
  -4.274753e+01  -4.771015e+00
  -4.614739e+01  -6.296048e+00
   2.637259e+01   2.669475e+01
  -1.881910e+00  -1.419012e+01
  -2.154977e+01  -4.741022e+01
   2.334984e+00   1.320595e+01
   3.109880e+01   1.690870e+01
   9.193060e-01   4.039364e+01
   1.036238e+01   1.903488e+01
  -1.700234e+01   6.203889e+01
   1.826229e+00   2.572821e+01
  -2.459451e+01  -1.809911e+01
   2.612611e+01  -4.899834e+01
   3.373870e+01  -3.401452e+01
  -8.641589e+00   2.161459e+01
   2.459659e+01   1.280249e+01
   6.782027e+00  -2.787222e+00
  -2.190487e+01   3.004451e+01
  -2.779432e+01  -3.146265e+01
  -2.357756e+01   4.501954e+01
  -1.182055e+01   3.628130e+01
  -2.847388e+01   3.060110e+01
  -2.135768e+01  -5.234503e+00
  -1.757328e+01  -1.693021e+01
  -7.118643e+00  -4.592602e+00
  -4.196235e+01  -6.490014e+00
   2.990035e+01   2.225840e+01
  -1.044433e+01  -1.077152e+01
  -2.115624e+01  -3.108390e+00
  -2.593580e+01   4.106535e+00
  -1.442036e+01  -1.100523e+01
  -3.502727e+01   1.651567e+00
  -1.526389e+01   1.521662e+01
   2.620238e+01   1.079182e+01
  -5.126878e+01   2.963151e+01
  -2.174579e+01  -3.545133e+01
   3.120609e+00  -2.436341e+01
   5.003888e+01  -6.509734e-01
  -5.581751e+00  -1.439052e+01
   2.235965e+01   1.428215e+01
  -2.496488e+01   5.290614e+01
   2.778360e+01  -3.811666e+01
  -1.332248e+01  -8.069348e+01
  -1.329634e+01  -4.321390e+01
   2.527315e+01  -1.925671e+01
  -1.067124e+01  -6.074588e+00
   4.257863e+00  -2.331298e+01
  -4.372807e+01  -1.691486e+00
  -8.251389e+00   2.667913e+01
  -6.390334e+00  -2.816861e+00
  -6.677505e+01   3.342674e+01
   3.674374e+00  -7.818891e+00
  -2.460944e+01  -1.059214e+00
   2.212249e+01  -2.078322e+01
   2.588580e+01   8.468124e+00
   2.607586e+01   2.299732e+00
   1.645745e+01   5.653231e+00
   2.697791e+01   2.762800e+01
  -2.824640e+01  -2.510430e+01
   4.969928e+00   1.418922e+01
   2.330323e+01  -4.431576e+01
   3.152790e+01   1.912897e+01
   3.623786e+01  -9.273485e+00
   1.786408e+00   1.835875e+00
  -2.642583e+01   2.304954e+00
   2.202439e+01  -8.945810e+00
  -4.339145e+00  -9.541389e+00
  -2.147279e+01  -9.339937e+00
  -2.071853e+01  -2.413507e+01
  -3.222636e+01   3.092134e+01
