
 $NMID
 id='ANONYMOUS ', fmtdat='(2E16.6)'
 volume=1.0
 tramp=1.0
 $END
   2.890827e+03   2.302296e+02
   2.072772e+03   1.266799e+03
   5.654148e+02   2.126818e+03
  -9.380495e+02   1.569323e+03
  -1.166163e+03   5.071979e+02
  -2.881563e+02  -1.906274e+01
   1.914268e+02   1.525429e+00
  -9.171844e+01   3.698102e+02
  -3.342505e+02   5.977198e+02
  -5.883107e+02   2.074417e+02
  -4.599991e+02  -3.161071e+02
  -1.311619e+02  -5.615658e+02
   1.167940e+02  -2.293846e+02
   2.179202e+02   3.843215e+02
  -9.628777e+01   5.284354e+02
  -3.647277e+02   1.409395e+02
  -3.318882e+02  -6.413334e+02
   2.105460e+02  -6.536417e+02
   5.900833e+02  -4.244295e+02
   5.210320e+02   9.775352e+01
   3.116536e+02   2.226012e+02
   3.284901e+01   3.864343e+02
  -2.698090e+00   1.166911e+02
   2.609145e+02   1.910595e+02
   8.683655e+00   4.084661e+02
  -1.775156e+02   2.596410e+02
  -5.824280e+02   1.491128e+02
  -5.418879e+02  -1.934613e+02
  -1.082789e+02  -2.290583e+02
   4.011504e+02  -7.165773e+01
   4.158437e+02   1.484043e+02
   1.386300e+02   3.157893e+02
  -2.566643e+02   2.295109e+02
  -4.136266e+02   1.146740e+02
  -2.442865e+02  -1.156056e+02
  -1.484522e+02  -2.371645e+02
  -1.592794e+02  -1.968979e+02
  -1.697233e+02  -5.676149e+01
  -1.847436e+02   2.330265e+01
  -1.040672e+02  -2.139079e+02
   1.314770e+02  -3.722585e+02
   2.818669e+02  -3.057605e+02
   2.561057e+02  -5.576954e+01
   9.949599e+01   2.406043e+02
  -1.079303e+02   4.161627e+01
  -4.303628e+01  -2.318635e+02
   1.985829e+02  -3.141844e+02
   4.052695e+02  -4.126518e+01
   4.229730e+02   3.256508e+02
   1.303238e+02   4.027705e+02
  -2.444443e+02   2.242998e+02
  -4.259154e+02  -4.696919e+01
  -2.657719e+02  -1.949128e+02
   6.707829e+00  -1.404564e+02
   1.831563e+02  -9.174703e+01
   1.783689e+02  -4.432409e+01
   9.122379e+01   2.370169e+01
   1.812019e+01  -3.491631e+01
   9.858767e+01  -5.538092e+01
   1.819215e+02   3.494771e+00
   9.035908e+01   1.208481e+02
  -1.684573e+02   2.243138e+02
  -3.643099e+02   1.281963e+02
  -3.106730e+02  -1.248508e+02
   1.664411e+01  -3.848187e+02
   3.470230e+02  -4.036830e+02
   4.133993e+02  -1.894063e+02
   2.632825e+02   1.751151e+02
   3.999699e+01   3.196937e+02
  -2.790484e+01   3.067021e+02
   1.760656e+01   2.219379e+02
  -4.593867e+01   2.109426e+02
  -1.420957e+02   1.193932e+02
  -2.588047e+02   7.722923e-01
  -2.518020e+02  -1.585072e+02
  -8.680886e+01  -2.990906e+02
   5.301867e+01  -1.905179e+02
   1.450822e+02   7.795969e+01
   9.071128e+01   2.214236e+02
  -5.832334e+01   2.541461e+02
  -2.165595e+02   1.525005e+01
  -2.415388e+02  -1.572923e+02
  -1.432293e+02  -3.428919e+02
   2.853996e+01  -2.294340e+02
   1.272671e+02  -1.917740e+02
   2.093098e+02  -9.698618e+01
   2.055719e+02  -1.201590e+02
   3.539355e+02  -2.149079e+01
   4.332536e+02   1.028811e+02
   2.969737e+02   2.842164e+02
  -4.912442e+01   4.246151e+02
  -3.530767e+02   3.952496e+02
  -4.583497e+02   1.773298e+02
  -1.810517e+02  -1.468805e+02
  -1.092303e+01  -2.327531e+02
   7.936536e+01  -1.612202e+02
   1.260675e+01  -3.608595e+01
  -5.025213e+01   4.911049e+01
  -7.497932e+01  -3.958426e+01
  -3.612162e+01  -1.212758e+02
   6.888501e+01  -4.598295e+01
   3.862468e+01   5.526387e+01
  -4.724634e+01   5.486578e+01
  -1.307509e+02  -3.685806e+01
  -1.679980e+02  -2.560367e+02
   7.226588e+00  -3.249565e+02
   2.111143e+02  -1.981279e+02
   3.458944e+02   3.611421e+01
   2.760008e+02   2.563684e+02
   6.092410e+01   2.689043e+02
  -1.007882e+02   1.563196e+02
  -7.710825e+01   1.114796e+01
  -4.817495e+01  -1.597893e+01
   7.424004e+00   4.977607e+01
  -2.503077e+01   9.089048e+01
  -1.297373e+02   5.868429e+01
  -4.260827e+01   1.840574e+01
  -7.898827e+00  -4.186762e+01
   5.301989e+01   3.590892e+01
  -3.944008e+01   1.114960e+02
  -1.725989e+02   9.821496e+01
  -2.780614e+02  -2.486027e+01
  -2.301776e+02  -2.163485e+02
  -2.314073e+01  -2.596530e+02
   1.705486e+02  -2.417575e+02
   2.525332e+02  -1.021014e+02
   1.301026e+02   3.967295e+00
  -3.373265e+01   6.550152e+01
  -8.673651e+01  -5.944936e+01
   6.889534e+01  -5.574105e+01
   1.313703e+02  -6.701461e+01
   1.253935e+02   5.332496e+01
   2.822520e+01   1.101621e+02
  -5.007581e+01   1.055108e+02
  -9.173418e+01   2.163741e+01
   9.270436e+00   1.449277e+01
   4.971226e+01   9.533572e+01
   3.890428e+01   1.171984e+02
  -1.165759e+02   1.120464e+02
  -1.980435e+02  -6.239106e+00
  -1.754842e+02  -1.387461e+02
  -1.096115e+01  -2.080787e+02
   1.179176e+02  -1.776359e+02
   1.507410e+02  -4.619649e+01
   5.551880e+01   5.338672e+01
  -3.980366e+01   6.430723e+01
  -7.412839e+01  -1.139512e+00
   1.227712e+01  -4.280022e+01
   4.102347e+01  -1.174365e+01
   1.491747e+01   2.235200e+01
  -1.040084e+02   8.015306e+00
  -1.216799e+02  -6.736624e+01
  -2.439088e+01  -1.966149e+02
   1.379593e+02  -1.271796e+02
   2.639697e+02   1.489166e+00
   2.216879e+02   1.254597e+02
   6.038405e+01   2.179462e+02
  -8.978332e+01   1.417311e+02
  -1.158655e+02   6.849476e+01
  -7.427902e+01  -3.439402e+01
  -2.689160e+01  -2.865651e+00
  -5.725816e+01   6.697522e+01
  -6.311460e+01   9.639385e-01
  -7.900782e+01  -6.567908e+01
   1.111444e+01  -1.206759e+02
   1.277902e+02  -9.604463e+01
   1.132597e+02   5.008830e+01
   9.953978e+00   9.327939e+01
  -1.646199e+02   6.035555e+01
  -2.113942e+02  -3.918036e+01
  -6.113134e+01  -1.717490e+02
   1.741864e+02  -2.129971e+02
   2.953496e+02  -8.068737e+01
   2.546044e+02   6.212030e+01
   6.381037e+01   1.604873e+02
  -3.314595e+01   1.348866e+02
  -8.540168e+01   8.562748e+01
  -8.066748e+01   7.905309e+01
  -6.596419e+01   1.131951e+02
  -1.105987e+02   9.250257e+01
  -1.177750e+02  -8.750649e+00
  -1.034438e+02  -1.678271e+02
  -2.802578e+01  -2.025060e+02
   1.268147e+02  -1.070021e+02
   1.449324e+02   7.157114e+01
   1.083081e+02   1.483766e+02
   2.566532e+01   1.479097e+02
  -6.979806e+01   7.875884e+01
  -3.859768e+01  -2.465714e+01
   5.450589e+01  -1.054034e+02
   4.073958e+01  -1.394842e+01
  -3.909032e+01   2.948828e+01
  -1.192874e+02  -4.990961e+00
  -5.913166e+01  -5.134536e+01
   7.119409e+01  -6.375469e+01
   1.527403e+02  -1.823057e+00
   1.428468e+02   3.965415e+01
   1.157677e+01   8.574452e+01
  -1.863386e+02   6.752693e+01
  -1.531593e+02  -1.311390e+00
   1.345367e+01  -5.214251e+01
   1.007603e+02  -7.862238e+01
   1.218290e+02  -3.748925e+01
   2.799688e+01   7.778108e+01
  -1.439435e+01   8.587981e+01
  -8.649686e+01   4.771686e+01
  -5.591990e+01  -4.087995e+01
  -7.389682e+01  -2.367257e+01
  -5.703970e+01   1.440852e+01
  -1.904139e+01   9.343248e+00
  -3.009625e+01  -5.191230e+01
  -1.774869e+01  -1.809936e+02
   1.198187e+02  -1.150697e+02
   1.776109e+02   1.353098e+01
   1.160261e+02   8.958975e+01
   2.229787e+01   1.609988e+02
  -1.171914e+02   6.444021e+01
  -1.322821e+01  -3.237698e+01
   6.492430e+01  -3.035494e+01
   1.051723e+02  -6.109273e+00
   5.331473e+01   7.879224e+01
  -1.226897e+02   1.000910e+02
  -2.074303e+02   2.486285e+01
  -1.026274e+02  -4.438796e+01
  -1.313271e+01  -1.007646e+02
   9.366400e+01  -4.652226e+01
   7.933540e+00   1.338547e+01
  -2.628831e+01   3.630228e+01
  -1.341916e+02  -1.681372e+01
  -8.232888e+01  -1.260912e+02
   6.930811e+01  -1.515364e+02
   1.761761e+02  -1.033653e+01
   1.784299e+02   1.233827e+02
   5.376244e+01   2.253433e+02
  -1.021606e+02   1.747911e+02
  -1.332139e+02  -4.725118e+01
  -5.424001e+01  -1.486166e+02
   4.261091e+01  -9.720646e+01
   6.815247e+01  -1.513334e+01
   5.818839e+01   2.525552e+01
   1.977667e+01  -3.491471e+00
  -2.546310e+01   4.049316e+00
  -2.818040e+01  -6.618247e+00
   2.686139e+01   5.161562e+01
   2.995130e+01   6.918281e+01
  -5.025592e+01   1.351029e+01
  -1.140660e+02  -5.025276e+01
  -6.396166e+01  -7.837104e+01
  -3.635117e+00  -5.616358e+01
   5.397290e+01  -7.255945e+00
   6.205642e+01   2.837930e+01
   3.706808e+01   4.717324e+01
  -3.358337e+00   4.425583e+01
  -4.197080e+01   2.846891e+01
   3.110643e+01  -5.148264e+01
  -1.345738e+01   4.840617e+01
  -9.023998e+01  -2.720909e+01
  -1.248513e+02  -2.221426e+01
  -4.814213e+01  -9.310991e+01
   1.259428e+02  -1.242505e+02
   2.356564e+02  -6.396528e+01
   1.664129e+02   6.555901e+01
   4.537069e+01   1.537482e+02
  -9.826187e+01   1.458232e+02
  -1.258638e+02   5.704674e+01
  -1.021531e+02  -2.607327e+01
  -1.764321e+01  -6.207665e+01
   1.095218e+01  -3.894522e+01
   3.743088e+01  -1.599771e+01
  -8.496875e+00  -6.724396e+01
   3.809171e+01  -7.892792e+01
   3.088490e+01  -9.068417e+01
   8.949329e+01   2.651028e+01
   5.693123e+01   1.018976e+02
   3.130058e+01   1.115325e+02
  -4.104645e+01   6.185462e+01
  -1.215973e+02  -9.334906e+01
  -6.523926e+01  -9.006446e+01
   3.832491e+01  -3.311087e+01
   9.461487e+01   2.554715e+00
   9.268562e+01   9.360403e+01
  -4.683146e+01   7.038525e+01
  -4.017032e+01   4.267406e+01
  -6.749750e+00   1.489184e+01
   8.665927e+01  -1.137022e+01
   6.649734e+01   3.231366e-01
  -5.661226e+01   4.417531e+01
  -1.274646e+02   2.023534e+01
  -6.929045e+01  -3.465799e+01
  -2.652262e-01  -6.205810e+01
   7.625832e+01  -8.562954e+01
   7.689437e+01  -6.461320e+01
   4.847821e+01   2.194574e+01
  -3.043836e+01   7.222985e+01
  -5.255817e+01  -2.489692e+01
  -1.434218e+01  -4.852543e+00
  -9.005318e+00  -2.234588e+01
   3.857962e+01  -4.008867e+01
   8.359275e+01   2.380858e+01
   5.942475e+01   3.971167e+00
  -9.949799e+00  -8.416859e+01
   1.552647e+00  -1.633276e+01
   1.657618e+01   6.183436e+01
  -3.493094e+00   7.085154e+01
  -5.336276e+01   3.384942e+01
  -9.230860e+01  -2.079096e+01
  -3.057568e+01  -1.402931e+02
   1.485162e+01  -4.808097e+01
   1.103133e+02   2.790240e+01
   5.033296e+01   3.449388e+01
  -4.885960e+01   6.607645e+01
  -8.945336e+01   4.314104e+00
   1.328381e+01  -9.278473e+01
   2.323997e+01  -4.441306e+01
   1.144635e+02  -2.391608e+01
   4.870417e+01  -1.017730e+00
  -6.589461e+01   2.945259e+01
   8.811579e+00   1.765796e+01
   2.800204e+01  -1.944814e+01
   6.179775e+01  -1.329295e+01
