
 $NMID
 id='ANONYMOUS ', fmtdat='(2E16.6)'
 volume=1.0
 tramp=1.0
 $END
   2.849229e+03   3.325391e+02
   1.990508e+03   1.406225e+03
   1.525641e+02   1.851057e+03
  -1.045729e+03   1.072435e+03
  -8.438049e+02   1.901101e+02
   7.887654e+01  -1.628320e+02
   3.984411e+02  -2.022842e+01
  -1.175761e+01   3.473311e+02
  -3.484436e+02   4.750018e+02
  -6.260880e+02   9.364739e+01
  -2.607987e+02  -4.232464e+02
  -8.089374e+00  -6.415510e+02
   1.841542e+02  -1.836660e+02
   2.318424e+02   5.279554e+02
  -1.748783e+01   6.283090e+02
  -4.409979e+02   2.553319e+01
  -2.917547e+02  -4.009837e+02
   3.337461e+01  -5.819420e+02
   5.012633e+02  -2.267000e+02
   4.660087e+02   2.386618e+02
  -2.523727e+01   3.230350e+02
   8.792640e+01   2.036325e+02
   7.688006e+01   2.820100e+02
   2.657222e+02   1.391541e+02
   1.942704e+02   1.710893e+02
  -7.644316e+01   4.755529e+02
  -3.768017e+02   1.556993e+02
  -5.848418e+02  -2.059033e+02
  -1.804968e+02  -4.003393e+02
   3.345098e+02  -2.245485e+02
   3.728194e+02   2.175350e+02
   1.816885e+02   1.953992e+02
  -1.800064e+02   3.721101e+02
  -3.924229e+02   2.836183e+01
  -2.716853e+02  -6.267186e+01
  -4.896573e+01  -2.460881e+02
   1.073130e+00  -2.031729e+02
   2.351203e+00   3.004982e+01
  -9.495262e+01   5.010258e+01
  -1.617017e+02  -5.361069e+01
   2.306041e+01  -3.877990e+02
   2.405114e+02  -4.116823e+02
   3.235618e+02   1.153009e+01
   7.866437e+01   2.242078e+02
  -6.792922e+01   7.916648e+01
  -9.524370e+01  -2.274879e+02
   8.589541e+01  -3.303956e+02
   3.687578e+02  -5.578640e+01
   3.942123e+02   3.742239e+02
   1.283420e+02   4.573185e+02
  -2.405104e+02   2.977127e+02
  -4.547726e+02  -2.108718e+01
  -2.841675e+02  -2.541773e+02
   1.105990e+01  -1.928291e+02
   2.180159e+02  -5.839834e+01
   1.479538e+02   3.478648e+01
   8.206669e+01   4.818186e+00
  -3.729193e+01  -2.861502e+01
   1.286167e+02  -5.707247e+01
   2.140552e+02   6.165897e+01
   1.151770e+02   1.698846e+02
  -1.117185e+02   2.468744e+02
  -2.868685e+02   1.429205e+02
  -2.700976e+02  -5.492186e+01
  -6.162130e+00  -2.639133e+02
   2.736439e+02  -3.081555e+02
   3.328828e+02  -1.479925e+02
   2.196182e+02   1.547787e+02
   3.246051e+01   3.411478e+02
  -2.084237e+01   2.996840e+02
  -1.817161e-01   1.326239e+02
   2.647364e+01   1.484048e+02
  -1.006278e+02   1.700427e+02
  -2.279234e+02   6.594235e+01
  -2.603802e+02  -6.064738e+01
  -6.157544e+01  -1.994960e+02
   5.506566e+01  -1.158229e+02
   1.522939e+02   5.138651e+01
   1.107108e+02   2.650777e+02
  -1.300258e+02   2.344648e+02
  -2.525470e+02   5.220958e+01
  -3.125235e+02  -2.458273e+02
  -1.043638e+02  -2.413835e+02
   4.944816e+01  -2.509532e+02
   1.271871e+02  -1.531427e+02
   1.487001e+02  -7.669464e+01
   2.234993e+02  -2.132101e+01
   3.136343e+02  -4.678062e+01
   3.703871e+02   8.027757e+01
   2.871221e+02   2.940189e+02
   5.322501e+00   4.244717e+02
  -3.399244e+02   3.769527e+02
  -5.050474e+02   1.711835e+02
  -2.675144e+02  -5.432679e+01
  -8.706099e+00  -2.516432e+02
   6.091585e+01  -1.983287e+02
   1.876915e+01  -5.853438e+01
  -1.182475e+02   9.415396e+01
  -1.852803e+02  -3.827364e+01
  -2.376837e+01  -1.346487e+02
   9.186540e+01  -1.133556e+02
   1.390447e+02   2.245752e+01
  -8.456353e+01   6.638569e+01
  -1.204585e+02  -3.074657e+01
  -1.141703e+02  -1.827974e+02
   2.898691e+01  -3.097991e+02
   2.078871e+02  -1.602487e+02
   3.553484e+02   4.622657e+01
   2.629303e+02   2.479978e+02
   8.882963e+01   2.106722e+02
  -9.560214e+01   1.481518e+02
  -7.058975e+01   6.093410e-01
  -8.898139e+00   3.584237e+01
   1.793867e+01   8.863417e+01
  -1.349750e+01   1.726488e+02
  -1.438116e+02   4.535871e+01
  -1.801411e+02  -4.399579e+01
  -2.997944e+01  -9.095187e+01
   1.310968e+02  -1.652538e+01
   7.770019e+01   9.849396e+01
  -1.470310e+02   1.097185e+02
  -2.957177e+02   3.438633e+01
  -1.931306e+02  -1.806473e+02
   9.720773e+00  -2.646086e+02
   1.948616e+02  -1.898913e+02
   2.535657e+02  -8.076118e+01
   1.086626e+02   6.606917e+01
  -7.411059e+00   1.149181e+02
  -6.190178e+01  -4.368982e+00
   1.508626e+01  -7.507722e+01
   1.721661e+02  -2.393323e+01
   1.577045e+02   9.479868e+01
   6.349295e+01   1.970885e+02
  -9.581237e+01   1.146618e+02
  -6.742084e+01   4.018285e-01
  -3.532759e+01  -7.287699e+00
   9.312324e+00   5.763930e+01
   1.845969e+01   1.097088e+02
  -1.038848e+02   1.076034e+02
  -1.915148e+02   3.230014e+01
  -2.305460e+02  -1.164658e+02
  -1.980433e+01  -1.849123e+02
   8.717134e+01  -1.739305e+02
   1.605047e+02  -3.938134e+01
   4.813099e+01   7.370692e+01
  -1.229112e+01   9.625539e+01
  -3.658369e+01   2.794764e+01
   5.033809e+01  -1.608049e+01
   8.263215e+00   5.717416e-01
  -1.971830e+01   5.875418e+01
  -1.280184e+02   4.294952e+01
  -7.100208e+01  -1.064995e+02
  -2.639993e+01  -1.394621e+02
   9.982478e+01  -1.283143e+02
   2.077230e+02   8.899555e+00
   1.154687e+02   1.597889e+02
   5.226138e+01   2.519068e+02
  -7.295343e+01   1.365323e+02
  -9.121942e+01   4.868503e+01
  -1.225973e+02  -6.123258e+01
  -2.667825e+01  -3.806637e+01
  -4.203034e+01   1.586938e+01
  -8.563723e+01  -1.251854e+01
  -6.127534e+01  -2.710355e+01
   4.359641e+01  -1.393863e+02
   5.805391e+01  -4.249491e+01
   1.059912e+02   1.364065e+01
   7.787014e+00   9.716395e+01
  -1.511349e+02   6.233233e+01
  -2.215181e+02  -3.119014e+01
  -1.402862e+02  -2.084820e+02
   1.298496e+02  -1.797368e+02
   2.299119e+02  -7.521359e+01
   2.165477e+02   1.701018e+01
   1.350938e+02   9.658260e+01
  -5.260088e+01   1.439995e+02
  -5.763816e+01   6.766644e+01
  -6.638260e+01   7.042784e+01
   3.276122e+00   9.098999e+01
  -1.035827e+02   1.339807e+02
  -1.004647e+02   5.234097e+00
  -1.592757e+02  -1.078950e+02
  -7.092175e+01  -1.931303e+02
   6.058748e+01  -1.614123e+02
   1.414685e+02  -3.410490e+01
   1.436896e+02   1.005260e+02
   8.689286e+00   9.959143e+01
  -9.749526e+01   7.294819e+01
  -5.835861e+01   4.458630e+01
  -1.315685e+01  -3.586654e+01
   3.674790e+01  -6.431031e+01
   7.259562e+01  -2.951709e+01
  -5.264370e+01   1.819854e+01
  -5.469870e+01  -4.767575e+01
   6.128437e+01  -6.944729e+01
   1.446250e+02   1.009810e+01
   1.696663e+02   3.128486e+01
   1.158329e+01   7.675092e+01
  -1.195933e+02   1.057273e+02
  -1.617412e+02   3.155177e+01
   1.681858e+01  -9.472929e+00
   4.297285e+01  -6.009566e+01
   2.795142e+01  -1.417144e+01
   3.306606e+01   5.106902e+01
   6.024677e+00   7.018634e+01
  -3.956530e+01   3.226684e+01
  -5.665666e+01  -3.152265e+01
  -6.425060e+01  -3.528059e+01
  -1.658833e+01  -5.306555e+00
  -1.303563e+02   1.021955e+01
  -2.580204e+01  -9.432908e+01
  -1.561124e+01  -1.310277e+02
   1.402983e+02  -8.601508e+01
   1.625505e+02  -1.914390e+01
   1.019290e+02   7.381033e+01
   5.033430e+00   1.021700e+02
  -1.267129e+02   3.679320e+01
   2.167561e+01   5.529002e+00
   4.517737e+01  -1.598506e+01
   1.209170e+02   6.897784e+01
   6.117455e+01   9.850668e+01
  -8.500853e+01   1.253362e+02
  -2.227161e+02   2.446510e+01
  -1.586046e+02  -2.328624e+01
  -1.812551e+01  -9.039403e+01
   6.307784e+01  -3.462350e+01
   5.035552e+01   3.163228e+01
   4.680078e+00   2.767184e+01
  -1.175714e+02  -4.863085e+01
  -5.574538e+01  -9.598506e+01
   9.671682e+01  -1.901130e+02
   1.499904e+02  -1.093560e+02
   1.674677e+02   7.933688e+01
   3.351071e+01   1.365143e+02
  -6.045773e+01   1.459350e+02
  -6.356258e+01  -9.869570e+00
  -5.703489e+01  -1.103113e+02
   1.064375e+01  -5.464369e+01
   3.945627e+01   2.634941e+00
   5.144381e+00   4.672670e+01
  -2.426111e+00   2.570238e+00
  -1.093482e+01   1.798867e+01
   9.449178e+00  -1.161362e+01
   1.561558e+01   6.285264e+01
   3.190855e+01   5.063247e+01
  -4.889336e+01   4.697251e+01
  -1.487610e+02  -6.381310e+00
  -9.278344e+01  -5.380561e+01
  -4.479164e+01  -6.367570e+01
   7.527802e+01  -4.390773e+01
   3.389777e+01  -6.018690e+01
   3.847697e+01  -3.823148e+01
  -2.006394e+01   8.132123e+00
  -2.748941e+00   8.473372e-01
   4.283019e+01  -1.708957e+01
   1.036257e+01  -5.572425e+00
  -2.468028e+01   2.358792e+01
  -7.796047e+01   1.752951e+01
   2.707933e+01  -2.797129e+01
   8.763289e+01  -1.275955e+02
   1.653108e+02  -5.233517e+01
   1.492482e+02   9.056031e+01
   5.005848e+01   1.218726e+02
  -1.362629e+02   1.581482e+02
  -9.328323e+01   5.513556e+01
  -2.178252e+01   2.102282e+01
   5.815390e+00   6.005947e+00
  -5.780768e+01  -1.493380e+01
  -5.535100e+01   1.576385e+00
  -7.252576e+01  -4.808706e+01
  -8.145325e+01  -7.949776e+01
   3.320872e+01  -9.535754e+01
   6.946029e+01  -3.450444e+01
   1.336027e+02   7.419586e+01
   4.335671e+01   8.101207e+01
  -6.005270e+01   6.024361e+01
  -1.187036e+02  -8.632151e+01
  -5.275874e+01  -1.081267e+02
   6.855504e+01  -8.198906e+01
   1.032346e+02  -2.165299e+01
   4.442474e+01   4.843981e+01
   1.100516e+01   5.798748e+01
   2.996119e+01   3.780349e+00
   3.521984e+01  -1.459140e+01
   7.973775e+01   8.713617e+00
   3.698441e+01   6.288837e+01
  -8.579849e+01   8.262208e+01
  -1.358205e+02   4.924062e+01
  -7.303505e+01  -6.052530e+00
  -1.760398e+01  -4.631253e+01
   6.692206e+01  -1.179433e+02
   4.106937e+01  -5.896419e-01
   2.689197e+00   6.090807e+01
  -3.734332e+01   1.128171e+00
  -3.284941e+01  -3.627582e+01
  -2.519935e+01  -6.642084e+01
   6.071394e-01  -5.521189e+01
   1.869824e+01  -2.891368e+01
   3.336752e+01   3.521851e+01
   3.425333e+01  -1.229846e+00
  -2.242749e+01  -5.476317e+01
   5.244894e+00  -7.708891e+01
  -4.035151e+00  -5.601783e+00
   2.064350e+01   1.829046e+01
  -2.290174e+01   1.520572e+01
   1.813722e+01  -1.621636e+01
  -1.517077e+01  -1.039639e+01
   1.171283e+01   5.323314e+01
   4.086572e+01   4.059226e+01
   6.067411e-01   2.977357e+01
  -8.321724e+01   2.348682e+01
  -9.682895e+01  -1.437350e+01
  -5.251297e+01  -1.090318e+01
  -2.907188e+01  -9.608051e+01
   4.405688e+01  -4.123686e+01
   1.287772e+00  -8.719074e+00
  -2.695705e+01  -1.539391e+01
  -4.882722e+01  -6.446612e+01
   5.043481e+01  -5.758431e+01
   8.577779e+01  -2.171868e+01
