
 $NMID
 id='ANONYMOUS ', fmtdat='(2E16.6)'
 volume=1.0
 tramp=1.0
 $END
   7.240347e+02  -5.678369e+01
   3.936724e+02   2.291628e+02
   7.175992e+01   3.997951e+02
  -3.142551e+02   3.513089e+02
  -2.504687e+02   2.197922e+02
  -1.110379e+02  -9.178643e+01
   1.021260e+02  -7.822547e+01
  -2.784716e+01  -5.774126e+01
  -6.767585e+01   2.029182e+02
  -1.554315e+02   1.163381e+02
  -1.676685e+02  -8.809810e+01
   2.248587e-01  -2.317744e+02
  -5.193167e+00  -1.848684e+02
   5.465011e+01   5.325322e+01
  -2.858017e+01   1.639066e+02
  -1.044664e+02   3.544658e+01
  -7.820442e+01  -1.407446e+02
   8.734424e+01  -1.602351e+02
   9.675038e+01  -1.009862e+02
   9.960650e+01   1.079498e+02
   4.855759e+00   6.456733e+01
   2.025228e+01   2.672256e+01
  -4.527606e+01  -4.610482e+01
   1.471295e+02  -3.685396e+00
   1.779757e+01   1.325328e+02
   1.119272e+01   7.907973e+01
  -4.633067e+01   4.516153e+01
  -1.743615e+02  -1.509836e+01
  -1.701251e+02  -1.332827e+02
   4.253190e+01  -4.070584e+01
   6.325873e+01  -2.839559e+00
   2.560790e+01  -4.297020e+01
  -3.029457e+01   3.839516e-01
  -2.802515e+01  -2.511431e+01
   6.590543e+01   6.938432e+01
  -2.938908e+01   4.623846e+01
  -2.531309e+01   3.400666e+01
  -6.749213e+01   1.286153e+01
  -7.342796e+01   1.361188e+01
  -4.027051e+01  -1.006031e+02
   7.670652e+01  -6.615783e+01
   5.403032e+01  -4.710493e+01
   3.964387e+01   4.140695e+01
  -1.181320e+00   8.288225e+01
  -3.575232e+01   4.508694e+01
   7.032700e+00  -3.513927e+01
   3.962581e+01  -5.230589e+01
   5.309063e+01  -1.019687e+01
   2.479544e+01   6.832261e+01
  -2.747024e+01   7.669246e+01
  -4.403081e+01   2.491398e+01
  -6.824032e+01  -2.299294e+01
  -2.764368e+01  -6.854356e+01
   2.102042e+01  -6.362927e+01
   8.660563e+01  -3.396268e+01
   4.687726e+01   1.110716e+01
   1.984311e+01   5.976948e+01
  -2.240479e+01   2.875147e+01
  -3.738647e+00   2.342601e+01
   7.080725e+00  -3.167319e+01
   3.465929e+01   2.422681e+01
  -4.372654e+01   5.420166e+01
  -7.005700e+01   5.488824e+01
  -4.957817e+01  -6.820136e+00
  -1.900892e+01  -8.145242e+01
   7.195264e+01  -8.224401e+01
   7.936429e+01  -4.062497e+01
   8.567040e+01   2.718233e+01
   4.640135e+01   8.218971e+01
  -1.902502e+01   8.348171e+01
  -1.665985e+01   7.844440e+01
  -5.666275e+01   5.387315e+01
   1.384568e+01   2.335304e+01
  -7.694637e+01  -2.471992e+01
  -6.279991e+01  -4.356803e+01
  -8.915348e-01   4.851793e+00
   8.083720e+00  -2.695509e+01
   7.456360e+01  -1.954358e+00
   3.334339e+01   3.181216e+01
  -2.443726e+01   1.715878e+01
  -4.089103e+01   1.170257e+01
  -5.727858e+01  -2.428534e+01
  -5.656614e+00  -4.246807e+01
  -3.395514e+01  -5.975719e+01
   4.630265e+01  -4.012950e+01
  -7.864304e-01  -2.367007e+01
   1.609288e+01  -2.919458e+01
   6.645358e+01  -1.930650e+01
   6.191946e+01  -2.092682e+00
   8.093431e+01   6.507706e+01
  -1.096200e+01   8.588230e+01
  -6.255355e+01   5.882691e+01
  -7.291550e+01   4.353445e+01
  -4.920705e+01   4.792691e+01
  -4.064106e+00  -7.290677e+00
  -1.332382e+01   2.901386e+01
   2.794528e+00   9.348560e+00
  -6.963576e+01   4.662714e+01
  -2.341384e+01  -3.748287e+01
   3.577955e+01  -3.578941e+01
  -3.635859e+00  -4.938123e+01
   3.711824e+01   1.392227e+01
  -1.333900e+01   6.584896e+01
  -1.806814e+01   1.479895e+01
  -2.050599e+01  -6.163867e+01
   4.883972e+01  -8.009048e+01
   7.709612e+01  -5.315005e+01
   8.753489e+01   2.574063e+01
   4.826309e+01   1.613375e+01
   4.283682e+01   3.232990e+01
  -8.501414e+00   5.886841e+01
   1.143693e+01   4.344880e+00
  -3.500865e+01   7.860806e+00
  -3.149886e-01   2.515699e+00
   1.022915e+01   3.768195e+01
  -5.974193e+01   3.725226e+01
  -2.007186e+01  -5.299437e+01
   8.969512e-01  -6.051410e+01
  -2.345870e+01  -5.576654e+01
   2.485542e+01   1.606943e+01
  -3.170386e+01   7.180287e+00
  -1.461188e+01  -8.947651e+00
  -5.006220e+01  -7.097374e+01
  -1.163827e+01  -3.885018e+01
   2.636726e+01  -4.833012e+01
   6.012104e+01  -3.038963e+01
  -1.361430e+01   2.459414e+00
   4.539157e+00   1.978605e+01
   1.986742e+01   3.632411e+01
   4.033730e+01  -3.120690e+01
   1.690899e+01   2.964394e+01
   3.917209e+01   2.142974e+01
  -5.903295e+00   7.037161e+01
  -5.512643e+01   1.525396e+01
  -1.954522e+01  -1.224183e+00
  -2.499176e+01   1.160275e+01
   6.841899e+01   2.950893e+01
   1.800249e+01   1.166016e+01
  -1.923795e+01   1.440095e+01
  -3.648969e+01   1.832108e+01
  -5.551056e+00  -2.160902e+01
  -7.558627e+00  -6.545866e+01
   3.612424e+01  -3.060944e+01
   3.044095e+01  -2.273344e+01
   4.571960e+01   1.250467e+01
   1.574553e+01  -4.341854e+00
  -2.301567e+01  -2.137338e+01
  -7.350521e+00  -9.054757e+00
   2.749266e+00  -2.819849e+01
   1.419118e+01   1.924646e+01
  -1.384429e+01  -2.815893e+01
  -2.268015e+01  -4.500237e+01
  -1.585176e+01  -7.351140e+01
   2.482191e+01  -3.967441e+01
   6.243586e+01   1.527295e+01
   2.631980e+01  -2.049437e+01
   2.965391e+01   1.439683e+01
  -7.198927e+01   3.903512e+01
  -4.638249e+01  -6.288611e+00
  -5.600972e+01  -3.406684e+01
  -5.041961e+01  -1.251926e+01
  -2.919514e+01   3.601357e+01
  -9.196795e+00   5.134119e+00
   8.212398e+00  -6.541120e+01
   1.391068e+01  -2.288660e+01
   2.546068e+01   4.316877e+00
   5.027628e+01  -3.872964e+00
   1.538579e+01   3.580541e+01
  -2.609461e+01   2.413212e+01
  -8.357943e+00   1.714410e+01
   7.731361e+00  -4.482664e+01
   5.275355e+00  -2.330400e+01
   1.950255e+01  -1.703227e+01
   8.365419e+01   6.978370e+00
   5.177605e+01   3.611116e+01
   1.572139e+01   6.975793e+01
  -4.672581e+01   8.436670e+01
  -9.603082e+01   1.161260e+01
  -6.122802e+01   6.185356e-01
  -4.057796e+01  -3.208068e+01
  -3.970075e+01  -6.725399e+00
  -6.333278e+00  -3.994340e+01
  -4.344628e+01  -7.875903e+01
  -1.288900e-01  -4.201758e+01
   5.754985e+01  -1.407566e+01
   4.290781e+00   1.637652e+01
   1.781514e+01   3.414511e+01
   5.983333e+00   5.867883e+01
  -1.037884e+01   7.034389e+00
   6.334383e+00  -4.718778e+01
   9.432788e+00  -1.153388e+01
   2.735457e+01   3.641765e+01
  -9.495113e-01  -3.725374e+00
  -1.556888e+01  -1.137223e+01
   1.285533e+01   4.170356e+01
   6.052411e+01   3.665502e+01
   2.618211e+01   3.916040e+01
  -7.637714e+00   1.865684e+01
  -5.105158e+01   3.889240e+01
  -4.574834e+00   7.134172e+00
  -1.873883e+01  -1.275858e+01
  -2.010182e+00  -1.504728e+01
  -1.597474e+01  -3.996860e+01
   6.872017e+00  -9.441382e+00
   4.929574e+01   7.944391e+00
   4.217227e+00  -3.603563e+01
  -2.885577e+01   9.939284e+00
   9.209523e+00   1.444956e+01
   2.477758e-01  -2.117737e+01
   3.367265e+01   1.163797e+01
   5.019191e+01  -4.254169e+01
   6.872219e+00  -2.307418e+00
   2.092982e+01  -1.233976e+01
  -1.326601e+01  -2.643815e+01
   2.972468e+01  -3.558092e+01
  -1.449046e+01   4.355038e+00
  -6.522986e+01   3.039265e+01
  -5.062776e+00   2.543345e+01
   1.454340e+01   1.091448e+01
   3.229781e+01  -1.379051e+01
  -3.996584e+01  -3.522774e+00
  -6.284979e+01   3.840487e+01
  -7.362419e+01  -8.086649e+00
  -4.347624e+01  -3.654600e+01
  -4.146120e+01  -1.939429e+01
   2.288341e+01  -6.881865e+00
   1.352278e+01  -8.573252e+00
  -9.438745e+00  -4.097226e+01
   1.335179e+01  -1.415457e+01
   2.330121e+01   5.045130e+00
   2.577896e+01  -1.843683e+00
   3.062085e+01   6.940173e-01
   2.679992e+01   4.628861e+01
   3.586564e+00   6.047963e+01
  -1.353255e+01   3.541506e+01
  -3.742495e+01   5.537647e+00
  -2.970481e+01  -1.717666e+01
  -4.779533e+01  -7.616133e+01
   1.540112e+01  -4.023147e+01
   4.494153e+00   1.872352e+01
   2.105944e+01  -3.207743e+01
   3.226485e+01  -1.291482e+01
   2.354077e+01   6.141342e+01
  -1.353549e+01   5.185791e+01
  -3.169134e+01   3.454182e+01
  -4.429826e+01   9.368215e+00
  -2.076810e+01  -2.248986e+00
  -1.595360e+01  -1.759324e+01
  -1.439139e+01   3.934740e-01
  -2.380504e+00   2.073435e+00
   2.135386e+01   2.144157e+01
   4.134438e+01   6.666552e+00
  -1.484110e+01   3.283807e+01
  -5.613784e+01   1.792057e+01
   2.085127e+01   3.053590e+01
   8.222349e+00   3.891494e+00
   2.703601e+01  -2.165866e+01
  -3.003732e+01  -2.210700e+01
   1.836838e+01  -1.640478e+00
   9.062439e+01  -3.821222e+01
   4.037336e+01  -1.307103e+01
  -1.003417e+00   3.333255e+01
   1.347605e+01   4.600661e+01
  -2.344280e+01   8.923802e+01
  -4.290343e+01   9.358584e+00
  -4.754941e+01  -1.193687e+00
  -2.021443e+01  -3.098656e+01
  -1.901737e+01  -3.486733e+01
  -3.289049e+00  -4.749649e+01
   4.730503e+01  -3.541598e+01
  -2.616007e+01  -2.182259e+00
  -1.038461e+01  -1.792577e+01
   3.930265e+01  -5.929614e+00
   1.961181e+01   8.934367e+00
   2.715606e+01   2.352882e+01
   2.989273e+01  -3.016371e+01
   1.736813e+01   5.136566e+00
   2.916641e+01  -2.204207e+01
   1.426646e+01  -1.300339e+01
  -9.785726e+00   1.506000e+01
   3.341819e+01   4.947791e+00
  -3.481693e+01   3.678250e+01
  -4.594748e+01   2.226850e+01
  -4.501046e+01   2.524512e+00
  -3.007803e+01  -7.077357e+00
   2.140162e+01   3.222733e+01
  -1.148752e+01   2.768830e+01
  -4.455410e+01  -3.597260e+00
  -4.112934e+01   2.792543e+01
  -1.551241e+01  -5.011565e+01
   2.218156e+00  -1.518896e+01
  -1.021171e+01  -5.000387e-04
   2.517952e-01  -2.171740e+01
   1.594118e+01   7.891355e+00
  -5.043220e+00   9.390701e+00
  -1.666336e+01  -4.960738e+01
   4.621634e+00  -8.475273e+00
  -9.457369e+00   2.956594e+01
  -3.092159e+01  -2.521261e+01
   3.274123e+00  -2.921653e+00
   2.731263e+01   8.449736e+00
  -8.002160e+00   1.752377e+01
   2.697328e+00  -1.678978e+01
   9.281592e+00  -1.970933e+01
  -2.461092e+01  -1.316328e+01
  -6.784030e+00  -3.300694e+01
   1.733481e+01  -3.319714e+01
   1.531158e+01  -1.882733e+01
  -4.656888e+01   4.289278e+01
   2.221258e+00   2.506845e+01
   3.043120e+01   2.468057e+01
  -2.897530e-01  -9.220138e+00
  -5.222954e+01   8.407624e+00
   6.577812e+01  -2.660014e+01
   3.136175e+01  -2.030407e+00
  -1.524384e+00   1.719424e+01
   7.084312e-02   4.056013e+01
   1.239207e+01   3.750368e+01
   4.059227e+01   3.330888e+00
   2.506106e+01   1.320801e+01
