
 $NMID
 id='ANONYMOUS ', fmtdat='(2E16.6)'
 volume=1.0
 tramp=1.0
 $END
   8.125218e+02   6.689198e+00
   4.749513e+02   3.651731e+02
   1.660715e+02   4.847683e+02
  -2.729797e+02   3.735887e+02
  -3.052993e+02   1.128200e+02
  -9.109750e+01   5.107400e+01
   7.670655e+01  -5.376498e+00
   1.055072e+02   2.207293e+02
  -1.236427e+02   1.942073e+02
  -1.843880e+02   1.141363e+01
  -1.107136e+02  -1.085407e+02
  -6.480224e+01  -8.270782e+01
  -4.848719e+01  -4.205355e+00
   8.666301e+01   9.808661e+01
   2.598341e+01   1.898266e+02
  -1.475747e+02   5.622534e+01
  -2.257409e+02  -1.619783e+02
   6.678927e+01  -9.216152e+01
   9.056821e+01  -5.312988e+01
   2.457159e+02   6.122402e+01
   6.291258e+01   2.090103e+02
   6.285060e+01   7.445126e+01
  -2.064770e+01   4.817001e+01
   2.668013e+02   5.364977e+01
   7.331938e+01   9.032840e+01
  -1.251563e+02   1.459175e+02
  -1.194745e+02  -3.678423e+01
  -1.250832e+02  -5.217663e+01
  -2.611764e+01  -9.325804e+01
   3.796989e+00  -6.090632e+01
   1.626090e+02   4.409665e+01
   5.528933e+01   1.113215e+02
  -6.930138e+01   6.382683e+01
  -8.404127e+01   7.960788e+01
  -1.832206e+02   6.332475e+01
  -6.305324e+01  -2.655168e+01
  -3.769292e+01  -3.258864e+01
  -3.297701e+01   4.689412e+01
  -5.620777e+01  -7.936178e+01
  -2.488761e+01  -7.123164e+01
   2.274590e+01  -1.175335e+02
   2.345509e+01  -9.722322e+01
   1.073428e+02  -7.528301e+00
   2.951002e+01  -1.049398e+01
   6.358256e+00   7.641046e+00
  -2.533072e+01  -5.990021e+01
   6.162193e+01  -6.431526e+01
   5.280962e+01  -1.506321e+01
   7.905947e+01   9.367287e+01
   7.259351e+01   1.198199e+02
  -8.605629e+01   7.368735e+01
  -1.576216e+02  -4.231015e+01
  -1.233124e+02  -3.402529e+01
   4.933215e-01  -8.144902e+01
   1.226060e+02  -8.958100e+01
   8.620484e+01   2.847868e+01
   2.984811e+00  -1.874802e+01
   1.205323e+01   3.665588e+00
   3.768899e+01  -2.280439e+01
   2.802706e+01   2.666596e+01
   4.651772e+01   1.419764e+01
  -1.914603e+01   5.999885e+01
  -9.902391e+01   5.234138e+01
  -9.064918e+01  -6.813320e+00
  -1.761072e+01  -9.518146e+01
   9.866509e+01  -1.260283e+02
   6.988682e+01  -7.065034e+01
   5.958680e+01   2.305588e+01
   2.158366e+00   1.279935e+02
   3.484757e+00   7.677490e+01
   1.034317e+01   4.863414e+01
  -5.338700e+00   5.374999e+01
  -5.291621e+01   4.774233e+01
  -6.488594e+01  -1.324777e+01
  -4.972211e+01  -4.656529e+01
  -4.655973e+00  -4.278250e+01
   4.799448e+01  -3.612373e+01
   4.940148e+01  -3.874218e+01
   1.582806e+01   5.773828e+01
  -2.783518e+01   9.461604e+01
  -5.413584e+01  -4.620765e+01
  -2.173446e+01  -5.623977e+01
  -3.904974e+01  -7.302185e+01
   4.360067e+01  -4.963725e+01
   7.400556e+01  -3.586783e+01
  -1.595546e+00  -5.715604e+00
   1.964628e+01   8.314942e+00
   1.153930e+02  -2.818134e+01
   1.090150e+02   2.663610e+01
   7.976425e+01   6.292800e+01
  -3.869806e+01   1.151513e+02
  -1.092362e+02   7.043770e+01
  -1.643799e+02   1.745150e+01
  -7.842852e+01  -1.543770e+01
   1.371681e+01  -8.909446e+01
   1.966700e+01  -2.760426e+01
  -2.827878e+01  -1.063939e+01
  -3.806276e+01  -2.419741e+01
   5.138511e+00  -1.275537e+01
  -2.659903e+00  -3.662429e+01
   1.025302e+01  -6.160997e+00
   3.457327e+01   2.593298e+01
  -7.562584e+01   4.655723e+01
  -5.206294e+01  -7.248342e+00
  -5.481663e+01  -1.107554e+02
   6.805108e+00  -9.651560e+01
   9.853377e+01  -6.067281e+01
   1.330764e+02   2.447959e+01
   1.068551e+02   6.182348e+01
   1.829412e+01   6.926571e+01
  -5.477756e+01   2.541575e+01
  -2.887005e+01  -6.228356e+00
   2.418678e+01  -1.069393e+01
   1.295076e+01   4.302565e+01
   3.097721e+00   5.579543e+01
  -4.771130e+01   4.525927e+01
  -8.355165e+01   2.221018e+01
  -8.616819e+00  -6.062162e+00
   3.753805e+01   3.934716e+01
  -2.052192e+00   4.629765e+01
  -7.686777e+01   2.947729e+01
  -8.173879e+01   5.516720e+00
  -7.589525e+01  -1.002773e+01
  -6.601231e+00  -9.350187e+01
   7.187195e+01  -4.675261e+01
   8.942459e+01   6.234562e+00
   2.408340e+01   4.081453e-01
  -6.376791e+00   6.898732e+00
   1.047702e+01  -1.655190e+01
   1.223914e+01  -3.540591e+01
   7.846031e+01   1.570370e+01
   1.127957e+02   1.024588e+01
  -3.155772e+01   7.688161e+01
  -1.829435e+01  -2.375935e+00
  -4.136385e+01  -7.786771e+00
  -1.220502e+01   2.922895e+00
   3.210700e+01   4.454166e+00
   2.608688e+01   4.160372e-01
  -1.679392e+01  -3.508235e+00
  -7.048428e+01  -2.546030e+01
  -5.063875e+01  -1.509253e+01
   1.297662e+01  -5.774176e+01
   1.662799e+01  -4.882569e+01
   2.270705e+01   2.274949e+01
   4.952197e+00   3.684997e+01
  -1.996495e+01   3.459004e+01
   1.736550e+00   5.190850e+01
   1.142357e+01  -9.458621e+00
  -2.075364e+01  -5.288657e+01
  -2.816347e+01   1.029207e+00
  -5.065937e+01  -4.130982e+01
  -6.261467e+01   1.160018e+00
   2.047457e+01  -7.994005e+01
   9.426331e+01  -2.626040e+01
   5.904620e+01   3.732886e+01
   5.771454e+01   3.373284e+01
   1.628326e+01   2.075537e+01
   4.874377e+00   2.300037e+01
  -2.441864e+01  -3.572408e+01
   2.390296e+01  -2.082813e+01
  -2.466518e+01   4.204136e+01
  -7.956729e+01   1.470509e+01
  -7.217129e+00   3.026216e+01
  -9.216640e+00  -3.715940e+01
  -2.013616e+01  -3.501730e+01
   5.739598e+01  -1.633254e+01
  -1.481109e+01   2.802338e+00
  -4.487742e+01   4.600553e+01
  -1.909062e+01   4.708159e+01
  -8.212548e+01  -1.780180e+01
   2.353252e+01  -3.798653e+01
   5.516959e+01  -4.107975e+01
   5.747606e+01  -4.205838e+01
   4.597730e+01   6.378689e+01
   2.365368e+01   3.572287e+01
  -3.695475e+01   4.033892e+00
  -1.447737e+01   1.179074e+01
  -3.888692e+00   1.533437e+01
  -1.754719e+01   4.383553e+01
   2.850313e+00   4.048704e+01
  -4.181137e+01   1.281909e+01
   4.148693e+01  -7.778704e+01
  -2.432855e+01  -4.817654e+01
  -1.860165e+01  -2.251073e+01
   6.324443e+01   2.894436e+01
   2.023904e+01  -7.571055e+00
   1.290432e+00   4.885818e+01
   1.504788e+01   2.481228e+01
  -6.066178e+01  -6.545517e+00
   6.546114e-01   9.158439e+00
  -1.091043e+01   5.764762e+00
  -2.609430e+01  -7.693184e+00
  -3.565308e+01   2.772660e+01
  -2.932551e+01  -7.378926e+01
  -1.676475e+01  -9.956645e+00
   2.565845e+01  -3.363391e+01
   7.405531e+01   2.194573e+01
   1.053799e+01   3.854156e+01
  -5.852736e+01  -1.919430e+01
  -4.084178e+01  -5.445712e+00
  -9.026278e-01  -4.326775e+00
   1.219158e+01   1.078161e+01
  -1.154203e+01   3.594978e+01
   3.432198e+01  -4.584202e+01
  -2.246359e+01   1.325840e+01
  -1.288383e+01   6.656309e+00
  -2.514431e+01  -4.294085e+01
  -1.294049e+01   2.510264e+01
  -2.371219e+01  -1.773115e+01
   3.836634e-01  -2.053488e+01
  -1.406882e+01  -1.043131e+01
   3.573888e+01  -2.926870e+01
   5.172387e+00  -5.651566e+01
   9.930006e+01  -7.360455e+01
   2.156475e+01   1.523715e+01
  -2.009628e+01   2.499414e+01
  -4.184973e+01   3.042850e+00
  -9.889351e+00  -4.651715e+00
   2.234528e+01   1.276587e+01
   4.678312e+01   3.411378e+01
   1.915977e+01   5.221290e+01
  -4.531152e+01   7.072899e+01
  -4.942105e+01  -1.117746e+01
  -7.854662e+01  -2.812577e+01
   1.338372e+01  -5.794895e+01
   5.630254e+00   5.445186e+00
   2.998000e+01  -1.417144e+01
   4.962205e+01   5.629037e+00
  -5.702154e-01   1.786639e+01
   2.040299e+00  -7.784370e+00
   1.250328e+01  -2.577958e+00
  -1.328024e+01  -1.880559e+01
   5.913156e+01   2.816317e+00
   6.145986e+01   8.632868e+01
  -2.612331e+01   3.646518e+01
  -1.294408e+01   1.216583e+01
  -1.636687e+01  -6.622856e+01
  -4.141204e+01  -4.716154e+01
   3.283246e+01  -2.041660e+01
   3.689588e+01  -2.869871e+00
   1.618180e+00   1.168338e+01
  -3.550954e+01  -2.535154e+01
   2.521433e+00   1.722427e+00
   1.156713e+01   1.105776e+01
   3.113978e+01  -1.337629e+00
   6.195407e+00   2.028764e+01
  -6.471787e+00  -4.810828e+01
  -5.873968e+01   7.105556e+00
  -1.959373e+01   5.680530e+01
   2.983725e+01   1.776565e+01
  -1.093388e+01   1.031995e+01
  -3.788362e+01  -2.121931e+01
   4.720355e+01  -3.021580e+01
  -3.938507e+01  -1.457980e+01
  -1.302311e+01  -3.913753e+01
  -1.252393e+01   3.868286e+01
   5.500412e+00  -3.103072e+00
  -2.117283e+00  -6.472548e+01
   3.441759e+01   4.263897e-01
   3.667474e+01  -3.030547e+01
   8.802679e+00   7.224945e+00
   5.385116e+01  -8.502542e+00
   2.099220e+01   1.150575e+01
  -2.626010e+01  -2.886061e+00
  -7.145701e+01   1.021097e+01
  -1.475546e+01  -3.411340e+01
   3.913478e+00   2.920945e+01
   1.850521e+01   1.144556e+01
  -1.367985e+01  -9.361341e+00
  -1.070488e+00  -2.550408e+01
  -5.641139e+01   2.594755e+01
  -1.974444e+01  -4.023004e+00
   6.191752e+01   3.088234e+01
   2.338172e+01   3.652984e+01
   3.130883e+00   3.134877e+01
  -1.043119e+01   2.562263e+01
  -4.480572e+01   1.945570e+01
  -4.137550e+01  -3.932339e+01
   7.897997e+00  -5.724887e+01
   2.182978e+01  -2.338823e+01
   3.887451e+01   2.254806e+01
   7.237596e+00   4.243990e+01
  -3.857544e+01   6.298592e+00
  -2.904881e+01  -1.257040e+01
   2.442743e+01  -8.260351e+00
   2.506298e+01  -4.121465e+01
  -6.672488e+00   5.272529e+00
  -4.319272e+01   1.517545e+01
   4.265026e+01   2.106996e+01
   1.199189e+01   2.068251e+01
   8.089341e+00  -3.671694e+01
  -1.145654e+01   3.320522e+01
  -2.075241e+01   3.980067e+01
  -4.750489e+01  -5.238633e+01
  -5.223960e+01   5.491140e+01
  -3.031299e+01  -7.062310e+00
  -4.510412e+01   2.280302e+01
  -1.686352e+01   2.085304e+01
   1.381695e+00   6.875081e+00
  -2.372323e+01  -9.295854e+00
  -1.025636e+01  -3.967587e+01
  -3.296400e+00   2.795002e+01
   4.241933e+01  -1.422061e+01
   2.377081e+01  -2.636700e+01
  -2.164280e+01   6.776551e+00
  -3.688047e+01   2.946897e+01
   3.674251e+01  -3.072658e+01
  -1.075956e+01  -2.784330e+00
   3.772891e+01  -4.278409e+00
   1.140139e+01  -2.232649e+01
  -1.957166e+01   3.512521e+01
  -4.826219e+01  -3.706432e+01
   8.689437e+00  -2.308300e+01
   1.971656e+01   3.297632e+01
   4.139790e+01   1.903228e+01
   4.473361e+01   4.119658e+01
  -6.726535e+00   1.921713e+01
  -2.193656e+01  -2.480391e+01
  -1.065895e+01   4.608093e+01
   8.616498e+00   8.583142e+00
