
 $NMID
 id='ANONYMOUS ', fmtdat='(2E16.6)'
 volume=1.0
 tramp=1.0
 $END
  -1.683477e+03  -2.911968e+02
  -1.259563e+03  -8.528736e+02
  -2.670109e+02  -1.372590e+03
   4.990067e+02  -1.046013e+03
   5.329718e+02  -3.359742e+02
   1.973723e+02  -1.153727e+02
  -2.182937e+02  -1.098466e+02
  -8.203810e+01  -2.676930e+02
   2.098798e+02  -2.018178e+02
   4.469338e+02  -4.159355e+00
   2.577842e+02   3.226062e+02
   9.789867e+01   3.596893e+02
  -1.615516e+02   1.299167e+02
  -1.677908e+02  -1.212710e+02
   6.500093e+01  -1.391567e+02
   3.583422e+02  -8.003495e+01
   2.942398e+02   2.295154e+02
  -4.806513e+01   3.047140e+02
  -2.778692e+02   2.362583e+02
  -3.843170e+02  -5.085633e+01
  -1.026695e+02  -1.153149e+02
   7.242986e+01  -2.198447e+02
   1.495821e+02  -2.434080e+02
  -1.118562e+02  -2.107334e+02
   5.400722e+01  -9.709664e+01
   1.335464e+01  -2.172674e+02
   1.601390e+02  -5.707406e+01
   3.641414e+02   5.487322e+01
   1.900806e+02   2.589760e+02
  -1.454155e+02   1.340225e+02
  -2.438408e+02  -8.265760e+01
   5.846041e-02  -1.701063e+02
   2.177219e+02  -2.061828e+02
   2.191634e+02  -4.407221e+01
   1.567135e+02   7.874066e+01
   5.508595e+01   1.409054e+02
   2.021137e+01   2.140778e+02
  -1.918620e+00  -1.721456e+01
   2.943746e+01  -3.535074e+01
   1.207642e+02   6.892540e+01
   2.707808e+01   2.458894e+02
  -2.281147e+01   2.763851e+02
  -1.186304e+02   3.498706e+01
  -9.502990e+01  -1.131069e+02
  -1.123195e+01  -5.448566e+01
   6.483341e+01   1.800455e+02
  -1.666986e+01   2.451321e+02
  -1.920171e+02   2.667078e+01
  -2.253236e+02  -1.836248e+02
  -6.655172e+01  -2.517528e+02
   1.243041e+02  -1.056800e+02
   1.832871e+02   9.416655e+01
   1.600478e+02   1.068329e+02
  -5.088865e+01   1.149156e+02
  -1.527245e+02   6.180155e+01
  -1.398846e+02   1.137446e+00
  -5.090772e+01   4.122751e+00
   5.801045e+01  -3.250379e+01
  -1.384266e+01   2.246146e+00
  -8.550460e+01  -1.551595e+01
  -9.534738e+01  -2.419114e+01
   2.581221e+01  -8.001436e+01
   1.999797e+02  -6.766034e+01
   1.548958e+02   1.035812e+02
  -1.791923e+01   1.991052e+02
  -2.370802e+02   1.873641e+02
  -2.246291e+02   2.863032e+01
  -8.714278e+01  -1.411871e+02
  -3.456104e+01  -1.872515e+02
  -1.740486e+01  -1.457316e+02
  -2.730623e+01  -1.409683e+02
   5.018945e+01  -9.248019e+01
   1.765041e+02  -8.957572e+01
   1.563983e+02  -3.413292e+01
   1.288781e+02   7.056939e+01
   5.821102e+01   1.705740e+02
  -7.182404e+01   1.207405e+02
  -6.630097e+01   4.240671e+00
  -3.737053e+01  -8.233957e+01
  -7.169357e+00  -1.301498e+02
   1.135871e+02  -1.060632e+01
   2.016822e+02   7.595081e+01
   1.377833e+02   1.831338e+02
  -4.942828e+01   1.382880e+02
  -8.346212e+01   5.255474e+01
  -6.541450e+01   6.657828e+01
  -4.673894e+01   4.721824e+01
  -1.874115e+02   8.514511e+01
  -2.284779e+02  -6.874959e+01
  -1.915437e+02  -2.152326e+02
  -1.965416e+01  -2.542310e+02
   2.478731e+02  -2.516787e+02
   3.022710e+02  -9.561410e+01
   1.546468e+02   9.829387e+01
  -3.774986e+01   1.609738e+02
  -6.279889e+01   8.847351e+01
  -2.267646e+01  -4.419637e+01
   4.530282e+01  -1.913102e+00
   4.109167e+01   2.370887e+01
  -1.274819e+01   5.442513e+01
  -2.180594e+01   5.182749e+01
  -2.169976e+01  -3.727525e+01
   1.333322e+01  -6.190445e+01
   5.366216e+01  -5.708626e+00
   1.037390e+02   1.442032e+02
   3.052831e+00   1.930531e+02
  -1.475136e+02   9.887223e+01
  -2.213640e+02  -3.158395e+01
  -1.091242e+02  -1.900021e+02
  -9.904229e+00  -1.572473e+02
   8.735390e+01  -7.758714e+01
   1.298069e+02  -4.065572e+01
   5.015400e-01   1.627983e+01
  -6.857501e+01  -4.807115e+00
   4.706512e+01  -6.502215e+01
   6.450426e+01  -3.636949e+01
   5.655198e+01   2.528710e+01
  -1.961030e+01   3.034980e+01
  -3.979790e+01  -1.671784e+01
  -5.645961e+00  -5.853135e+01
   8.967958e+01  -9.536653e+01
   2.285674e+02   7.431406e+00
   1.613879e+02   1.358362e+02
  -3.773287e+01   1.893478e+02
  -1.220534e+02   1.217789e+02
  -1.685506e+02   2.513191e+01
  -8.419997e+01   2.111949e+00
   4.574934e+01  -4.291674e+01
   4.269997e+01   2.125041e+01
  -6.765025e+01   6.708817e+01
  -1.318783e+02  -2.121567e+00
  -7.994607e+01  -8.882586e+01
  -1.640604e+01  -1.374687e+02
   4.111993e+01  -9.078877e+01
   7.422330e+01  -5.471013e+00
   1.437375e+01  -3.686905e+01
   1.310965e+01  -1.802269e+01
   3.235184e+01  -4.187950e+01
   8.707840e+01  -5.371278e+01
   1.161745e+02   4.705727e+01
   1.284630e+02   1.083209e+02
   1.399245e-01   1.120396e+02
  -8.550511e+01   1.070196e+02
  -1.086178e+02   2.874849e+01
  -4.340365e+01  -4.767258e+01
  -6.786748e+00  -2.551522e+01
  -3.178971e+01   4.746579e+00
  -1.573938e+01   1.939694e+01
  -1.697821e+01   1.122178e+01
  -3.462839e+00  -7.863702e+00
   7.267008e+01  -2.148336e+01
   1.058982e+02   3.555219e+01
   3.583137e+01   1.026697e+02
  -1.013461e+02   7.959488e+01
  -1.457612e+02  -2.390347e+01
  -1.126949e+02  -1.020596e+02
  -1.180249e+01  -1.266741e+02
   5.907597e+01  -1.322402e+02
   9.852222e+01  -7.847459e+01
   5.148920e+01   2.370249e+01
   6.741015e+01   1.171891e+01
   7.687434e+01  -1.608202e+01
   1.093077e+02  -4.556457e+01
   1.062014e+02  -8.817888e+00
   3.265691e+00   7.588561e+01
  -1.245225e+02   5.431318e+01
  -5.487173e+01   1.426155e+01
  -1.564721e+01  -6.191447e+01
   8.930430e+01  -1.415408e+00
   1.083901e+02   3.598035e+01
   4.951886e+01   1.496699e+02
  -6.891097e+01   8.389595e+01
  -1.607646e+02   2.551967e+01
  -1.463694e+02  -7.764869e+01
  -8.026687e+01  -1.173284e+02
   1.672797e+01  -1.089562e+02
   7.917374e+01  -2.733540e+01
   3.243466e+01  -5.219332e+01
   3.448304e+01  -4.800404e+01
   3.542473e+01  -6.177128e+01
   8.553410e+01  -8.653783e+00
   8.000058e+01   6.160461e+01
   5.941434e+01   8.210051e+01
  -2.817416e+01   4.810312e+01
  -6.703295e+01   2.422393e+01
  -4.675240e+01  -7.412327e+01
  -1.024291e+01  -9.707667e+01
   7.989909e+01   6.409591e+00
   2.082232e+01   2.713304e+00
  -1.299090e+00   3.197888e+01
   4.627623e+00   4.082575e+01
   1.433057e+01   1.952195e+00
   6.806627e+01  -3.347506e-01
   4.154210e+01  -1.964670e+01
  -2.853472e+01   4.450509e+01
  -7.821123e+01   2.422384e+00
  -7.245126e+01   2.454928e+01
   1.603672e+01  -6.443047e+01
   3.944193e+01  -4.447507e+01
   2.639565e+01  -8.136748e+00
   3.348809e+00   7.017435e+00
  -5.765472e+01   3.855106e+01
  -2.033441e+01  -9.774639e+00
  -1.320690e+01  -5.530444e+01
   3.853254e+01  -1.007151e+01
  -1.417109e+00  -1.918317e+01
   6.954108e+01   5.275355e+01
   3.584947e+01   3.022007e+01
   4.040586e+01   1.487445e+01
   1.747210e+01   1.919770e+01
   4.499213e+01   6.914115e+01
  -7.467959e+01   6.050755e+01
  -7.559690e+01   6.801270e+01
  -1.386215e+02   4.788840e+01
  -6.102374e+01  -4.477876e+01
   1.930727e+01  -6.580018e+01
   7.249082e+01   8.982645e-01
   1.344023e+01   7.253033e+00
   9.291708e+00   6.912406e+00
  -5.482479e+01   1.621127e+01
  -1.504914e+01  -3.236477e+01
   1.533864e+01  -4.484169e+01
   1.064633e+02  -3.999708e+01
   7.880097e+01   3.187858e+01
   1.297999e+01   6.410286e+01
  -7.626740e+01  -1.729587e+00
  -6.036162e+01  -1.909249e+01
   3.252168e+01  -2.680445e+01
   3.619332e+01   6.937224e+00
   1.140541e+01   8.042099e+01
   9.022843e-01   9.007320e+01
  -7.125703e+01   2.613246e+00
  -4.981070e+01  -2.953671e+01
  -2.547453e+01  -1.798468e+02
   7.282994e+00  -9.710832e+01
   1.203387e+01   3.458081e+01
   1.964599e+01   1.235070e+02
   1.656393e+01   3.286234e+01
  -5.713408e+01   5.091715e+01
  -3.133712e+00  -2.217963e+01
  -1.845889e+01   6.875108e+00
  -4.742130e+00  -1.793266e+01
   2.034034e+01   2.530338e+00
  -2.602095e+00  -4.516303e+01
  -1.237402e+01  -6.020107e+01
   2.589701e+01  -3.749720e+01
   8.009159e+01   2.135160e+01
   3.409413e+01   4.345834e+01
   1.360816e+01   2.571204e+01
  -6.617438e+01   1.397282e+01
  -3.344831e+01   1.567795e+01
  -4.011756e+01   2.054217e+01
   1.288205e+01  -5.202096e+01
  -1.695569e+01  -6.333838e+00
   4.053846e+01  -1.385408e+01
  -2.340097e+00  -3.134806e+01
   6.893687e+01  -1.762522e+01
   3.091897e+01   1.172157e+01
  -2.139601e+01   4.394255e+01
  -5.410999e+01   4.183274e+01
  -9.926128e+01   2.112645e+01
  -7.369447e+01  -5.693246e+01
   1.149250e+00  -8.683519e+01
   4.101706e+01  -6.398291e+01
   8.005407e+01  -2.438151e+01
   7.140394e+00   1.775117e+01
  -5.146849e+00   1.551673e+01
  -1.412689e+01  -5.234053e+01
   2.548378e+00   3.113078e+01
  -3.079048e+00  -4.937112e+00
   1.770192e+01   4.270689e+01
  -3.712469e+01   5.821746e+01
  -6.466220e+01  -3.447702e+01
  -9.955782e+00  -6.862964e+01
   1.510765e+01  -6.663647e+01
   6.224264e+01  -6.380900e-01
   5.322366e+01   3.117444e+01
   5.058565e+00   7.321802e+01
  -2.648720e+01   4.084386e+01
  -1.179469e+02  -2.764158e+01
  -2.026049e+01  -2.315269e+01
   2.736291e+01  -8.806692e+01
   3.946687e+01   2.236828e+01
  -1.306994e+00  -7.013705e-01
  -2.839190e+01   1.921646e+01
  -3.883537e+01   1.655020e+01
   6.282623e+01  -4.724078e+01
   6.127317e+01  -3.680371e+01
   4.877810e+01  -2.633250e+01
  -2.805713e+01   3.670903e+01
  -5.211964e+01   7.764684e+01
  -2.003381e+01   4.420807e+01
  -2.148411e+00  -3.150696e+01
  -6.302994e+00  -5.126824e+01
   4.277471e+01  -3.348507e+01
   5.110388e+01   4.636305e+01
  -2.243319e+01  -1.015131e+00
  -1.615430e+01   3.467348e+01
   9.758093e+00  -7.023137e+01
  -1.648674e+01   1.336595e+01
   7.909683e+00   2.166700e+01
   2.405071e+01  -1.899401e+01
  -3.827618e+01  -4.750139e+00
   6.583461e-01  -4.381943e+01
   3.213104e+01  -3.974979e+01
   4.905735e+01   4.574616e+01
   5.324605e+00   7.209012e+01
  -3.384952e+01   4.854592e+00
  -3.389937e+01  -2.475663e+01
  -4.976842e+01  -9.552053e+01
   1.343521e+01  -1.727214e+01
   5.843680e+01   1.584552e+01
  -8.764122e+00   5.223315e+01
   3.243208e+01   1.947610e+01
  -3.637215e+01  -1.214826e+01
  -4.795835e+00   1.189874e+01
   4.788701e+01  -9.282817e+00
  -4.160138e+00  -5.222739e+00
   7.108771e+00   3.698704e+01
  -5.841393e+01  -7.323784e-02
