
 $NMID
 id='ANONYMOUS ', fmtdat='(2E16.6)'
 volume=1.0
 tramp=1.0
 $END
  -1.471156e+03  -7.234903e-01
  -1.122370e+03  -8.785771e+02
  -1.048969e+01  -1.083953e+03
   5.995611e+02  -6.610497e+02
   4.013456e+02   3.473250e+01
  -2.800801e+01  -1.512079e+01
  -1.462121e+02  -1.403410e+02
  -8.403765e+01  -2.524555e+02
   1.666740e+02  -3.292372e+02
   2.929175e+02  -7.248492e+01
   1.614061e+02   1.923143e+02
  -1.606808e+02   3.444273e+02
  -2.028179e+02   1.976357e+01
  -1.074263e+02  -1.687630e+02
  -1.932040e+01  -2.805982e+02
   2.197202e+02  -1.712819e+02
   1.773067e+02   3.705175e+02
  -3.835163e+01   4.202323e+02
  -1.629393e+02   1.648520e+02
  -2.410689e+02  -1.115232e+02
  -9.446502e+01  -1.187408e+02
  -6.404153e+01  -1.355736e+02
   3.501633e+01  -1.000846e+02
  -2.030963e+01  -5.342761e+01
  -4.788558e+01  -1.277871e+02
  -9.649140e+00  -1.550887e+02
   1.805403e+02  -3.730619e+01
   3.648189e+02   1.939317e+02
   1.385987e+01   1.928891e+02
  -1.639168e+02   1.400956e+02
  -2.380202e+02  -6.482765e+01
  -6.301831e+01  -3.007807e+02
   1.492318e+02  -8.361731e+01
   2.610784e+02  -1.056515e+02
   1.736848e+02   4.694755e+01
   6.001548e+00   1.850529e+02
   2.514287e+01   4.277835e+01
   5.305353e+01  -5.446029e+01
   6.602756e+01  -9.008296e+01
   1.043489e+02   1.070586e+02
   9.288884e+00   2.230363e+02
  -1.560168e+02   1.703253e+02
  -1.375598e+02   3.055376e+01
   4.292666e+01  -1.575187e+02
   4.985274e+01  -3.032266e+01
   1.105094e+02   1.359883e+02
  -3.567945e+01   1.789032e+02
  -2.421176e+02  -4.729901e+00
  -2.449202e+02  -1.907602e+02
  -5.438550e+01  -2.494096e+02
   2.166379e+02  -9.502296e+01
   2.874916e+02   4.472237e+00
   2.255947e+02   1.430445e+02
   7.313000e+01   1.106757e+02
  -1.246525e+02  -2.856221e+01
  -1.528598e+02   1.810204e+01
  -2.368180e+01   5.010828e+00
  -3.013368e+01   9.425697e+01
  -4.995973e+01   6.256947e+01
  -1.345804e+02  -5.122063e+01
  -1.606005e+01  -1.346227e+02
   9.466296e+01  -9.855807e+01
   1.295787e+02  -5.096213e+01
   1.129271e+02   1.008373e+02
  -3.952324e+01   1.829965e+02
  -1.906648e+02   2.260412e+02
  -1.927909e+02   1.481064e+02
  -5.248489e+01  -7.181209e+01
   1.128404e+01  -1.588133e+02
   6.746434e+00  -2.014654e+02
  -5.894485e+01  -1.379532e+02
   6.532472e+01  -4.164979e+01
   6.359197e+01  -5.524677e-01
   1.734028e+02  -1.146315e+01
   1.582616e+02   4.084058e+01
   1.288465e+01   1.745097e+02
  -6.760597e+01   1.125847e+02
  -9.228377e+01  -3.277251e+01
  -8.186454e+01  -1.557518e+02
   2.263357e+00  -1.360150e+02
   1.129628e+02  -4.378961e+00
   1.422631e+02   1.508741e+02
   1.238250e+02   1.767826e+02
  -1.568996e+01   1.019389e+02
  -1.203340e+02   7.564469e+01
  -1.010351e+02   5.454279e+00
  -1.185411e+02   7.285509e+01
  -1.753687e+02   1.067722e+01
  -1.825345e+02  -7.322375e+01
  -1.550829e+02  -1.955778e+02
  -2.668802e+01  -1.775508e+02
   2.281050e+02  -2.391467e+02
   2.460541e+02  -1.339027e+02
   1.618015e+02   2.368520e+01
   6.331417e+01   1.544787e+02
  -6.458844e+00   1.258902e+02
   3.059092e+01   6.966399e+01
   6.450734e+01  -1.211737e+01
   3.196525e+01  -2.857619e+01
  -2.093310e+01   9.021246e+01
  -8.172262e+01   6.427241e+01
  -6.300608e+01  -3.073653e+01
   3.663116e+01  -5.497460e+01
   6.691031e+01   5.891161e+01
   8.727780e+01   1.441043e+02
   1.036888e+01   1.748474e+02
  -1.465468e+02   1.151908e+02
  -2.544153e+02  -4.629349e+01
  -1.782324e+02  -1.189030e+02
  -8.030809e+01  -1.447194e+02
   3.814890e+01  -7.828275e+01
   1.067108e+02  -1.001702e+01
   1.678891e+01  -1.740046e+01
   1.853943e+01  -9.436614e+01
   1.723971e+01  -1.043753e+02
   6.418383e+01  -1.924820e+01
   9.027868e+01   3.466612e+01
  -9.657404e+00   6.325426e+01
  -3.259028e+01  -1.193614e+00
  -1.047525e+00  -3.447200e+01
   8.968501e+01  -5.926204e+01
   1.516322e+02  -2.590117e+00
   1.187551e+02   7.668779e+01
  -1.246707e+01   1.684216e+02
  -1.004505e+02   1.718932e+02
  -1.473060e+02   5.127600e+01
  -8.708671e+01  -1.546984e+01
   4.668388e+01  -3.540564e+01
   3.698980e+01   9.603669e+00
  -4.472635e+01   2.299873e+01
  -8.652542e+01   1.511096e+01
  -1.049275e+02  -6.201478e+01
  -4.754794e+01  -1.063166e+02
   2.772333e+01  -9.524041e+01
   5.323098e+01  -2.602078e+01
   3.604170e+01   1.152336e+01
  -3.588581e+01  -1.675794e+01
  -1.731332e+01  -6.661725e+01
   9.883000e+01  -3.041959e+01
   1.159317e+02  -7.784687e+00
   9.792436e+01   6.898525e+01
  -1.483288e+01   1.067398e+02
  -7.321288e+01   9.806786e+01
  -8.584494e+01   1.729656e+00
   2.567694e+01  -8.014040e+01
   5.479987e+01  -4.720788e+01
   1.797507e+01   1.535169e+01
  -1.138757e+01   1.265598e+01
   2.007494e+00   4.772880e+01
  -3.162213e+01   3.516711e+00
   4.088334e+01  -9.826668e+00
   4.428244e+01   5.385673e+01
  -2.624420e+01   1.134529e+02
  -6.910088e+01   8.671031e+01
  -1.070782e+02   7.887816e+00
  -1.223794e+02  -5.277192e+01
  -6.350508e+01  -1.272641e+02
   4.425711e+01  -3.481060e+01
   5.130832e+01   1.566402e+01
   3.437593e+01  -1.481145e+01
   1.479245e+01  -1.636874e+01
   3.235465e+01  -3.388838e+01
   4.668959e+01  -1.897274e+01
   3.047074e+00   1.029393e+01
  -3.654401e+01   3.575420e+01
  -7.982639e+01   4.827965e+01
  -4.990449e+01  -2.716382e+01
   1.297315e+01  -7.476831e+01
   5.520076e+01  -1.472826e+01
   1.225080e+02   1.323822e+01
   2.647205e+01   1.057109e+02
  -8.172599e+01   1.096655e+02
  -1.093217e+02   3.127812e+01
  -9.045330e+01  -6.343222e+01
  -2.070296e+01  -1.165823e+02
   4.535787e+00  -5.377028e+01
  -2.300940e+01  -6.358907e+01
   1.038301e+02  -1.585266e+01
   2.982336e+01  -6.197209e+01
   1.751907e+01  -3.195023e+01
   6.118476e+01   5.572154e+01
   8.194347e+01   5.858443e+01
   1.634215e+01   1.476587e+02
  -6.864724e+01   6.656272e+01
  -4.694742e+01  -2.250703e+01
  -9.353814e+01  -5.755891e+01
  -4.561108e+01  -8.704861e+01
   4.828592e+01  -6.022619e+01
   2.681852e+01   4.754250e+01
   5.151445e+01  -1.458876e+01
   3.709480e+00   3.467182e+01
   7.491038e+00  -1.467876e+01
   8.690672e+01   2.548165e+01
   2.473935e+01   2.826161e+00
  -3.567977e+01  -1.259522e+01
  -8.716822e+01  -6.383453e+00
  -3.248458e+01  -5.647089e+01
  -9.820066e+00  -1.371047e+01
   8.720013e+01  -1.410661e+01
   9.121750e+01   1.883177e+01
   6.055264e+00   1.216002e+01
  -7.742058e+00   3.589422e+01
  -4.906796e+01   3.395995e+01
  -1.937573e+01  -2.647436e+01
   2.563866e+01  -2.048013e+01
   3.554138e+01   1.115628e+01
  -2.023414e+01   4.485718e+01
  -4.412697e+00   1.493988e+01
   2.555197e+01   1.573440e+01
   4.717460e+01  -9.401353e+00
   3.005051e+01   3.254353e+01
  -1.865595e+01   8.131339e+01
  -1.102776e+02   6.520571e+01
  -1.001411e+02   6.404012e+01
  -4.805305e+01   1.364482e+01
  -1.771726e+01  -1.005177e+02
   2.238212e+01  -1.009272e+01
   1.521410e+01   3.508863e+01
  -5.223483e+01  -7.873366e+00
  -3.464504e+01  -1.436964e+01
  -2.883635e+01  -6.976100e+01
   3.046010e+01  -5.818231e+01
   6.292618e+01  -2.841065e+01
   7.221794e+01   4.906903e+01
   4.006918e+01   2.447418e+01
  -2.615185e+01   1.494329e+01
  -1.014046e+02  -3.449598e+01
  -2.176939e+01  -1.447109e+01
   9.496143e+01   2.742320e+01
   4.803710e+01   4.307600e+01
  -8.256551e+00   6.360117e+01
  -9.464328e+01   3.439675e+01
  -5.892241e+01  -4.707606e+01
  -2.165705e+01  -1.276245e+02
   3.136647e+01  -6.034502e+01
   7.819135e+01   2.945677e+01
   3.956041e+01   6.958184e+01
   2.131039e+01   9.778548e+01
  -3.754454e+01   4.377716e-01
  -7.946568e+01   7.853206e+00
  -1.952184e+01  -1.247156e+00
   1.666058e+01   1.097251e+01
  -3.698752e+01  -4.196014e+01
  -5.841509e-01  -1.119333e+01
  -1.880961e+01  -1.356269e+01
   6.039109e+00  -3.982080e+01
   7.811831e+01  -2.269736e+01
   6.565904e+01   6.564718e+01
  -7.704101e+00   3.459395e+01
  -8.491649e+01   3.914723e+01
  -3.921354e+01   3.675136e+01
   1.713332e+01  -4.342301e+00
   9.177529e+00  -6.228782e+01
  -1.024822e+00  -6.141013e+00
   2.181501e+01   2.121575e+01
  -1.879184e+00  -2.709812e+01
   2.346260e+01  -3.167753e-02
  -5.019245e+01  -8.725639e+00
  -3.052030e+00   2.391912e+01
  -2.648296e+01   7.122273e+01
  -1.056007e+02   3.800805e+01
  -3.921499e+01  -5.391244e+01
  -3.177063e+01  -4.729612e+01
   4.126845e+01  -6.365084e+01
   6.773868e+01  -2.737817e+01
   3.288856e+01   4.185558e+00
  -8.394143e+00   4.196753e+01
  -3.348296e+01   6.312073e+00
   1.168340e+01   2.036123e+01
   4.727024e+00   2.844598e+01
  -4.334007e+00   6.103727e+01
   4.642932e-01   5.808595e+01
  -4.568342e+01  -1.668127e+01
  -9.061791e+01  -6.261859e+01
   1.209141e+01  -3.450870e+01
   4.299114e+01  -3.178176e+01
   1.078177e+01   3.940213e+01
   2.155280e+01   3.771946e+01
  -3.437091e+01   6.214202e+01
  -2.737020e+01   2.909356e+00
  -2.918838e+01  -1.492065e+00
  -9.662860e+00  -6.066692e+01
   3.655047e+01  -6.203549e+01
  -1.494329e+01   2.183481e+01
  -4.162927e+01  -5.976719e+01
   3.492811e+01  -4.083831e+01
   2.961704e+01  -1.095959e+01
   4.954011e+01   4.124221e+00
   3.847512e+01   5.692790e+00
  -7.801186e+00   5.021295e+01
  -1.442584e+01   6.104882e+01
  -4.319079e+01   9.303973e+00
  -3.063354e+01  -4.810969e+01
   2.723570e+01  -1.760629e+01
  -3.934157e+00   4.952187e+01
   1.592708e+01   2.876524e+01
  -3.828452e+01   3.143133e+01
  -2.194802e+01  -4.280961e+00
   1.275020e+00   4.786516e+00
  -3.247777e+00  -1.735720e+00
  -3.280281e+01  -4.219740e+01
  -2.889590e+01   1.371895e+01
  -6.103147e+00  -3.621089e+01
  -2.156256e+01  -4.364128e+01
  -2.686022e+01  -4.552778e+00
   1.911182e+01   1.580036e+01
   4.862948e+01   6.062798e+01
   6.446337e+00   2.599321e+01
  -3.630967e+01  -2.743572e+00
  -1.035088e+01  -2.463425e+01
   2.652153e+01   7.160257e+00
   5.811482e+01   5.176869e+00
   5.797546e+01  -1.500681e+01
   7.104028e+00   3.002673e+01
  -3.668902e+01   3.914567e+01
  -7.680364e+00   2.375568e+01
   1.189074e+01  -2.035833e+01
  -1.876263e+01   5.001660e+00
  -3.622538e+01   4.973451e+01
  -8.187246e+01   3.638943e+00
