
 $NMID
 id='ANONYMOUS ', fmtdat='(2E16.6)'
 volume=1.0
 tramp=1.0
 $END
   4.957928e+07   5.560291e+05
   2.975480e+07   3.023475e+07
  -6.267413e+06   3.319756e+07
  -2.405667e+07   1.343411e+07
  -1.473196e+07  -5.430412e+06
   2.570135e+06  -8.221521e+06
   8.740208e+06   5.659323e+05
   2.895109e+06   8.511152e+06
  -5.162866e+06   8.715691e+06
  -8.560870e+06   2.139143e+06
  -6.313163e+06  -5.613258e+06
  -6.981594e+05  -7.885767e+06
   3.684095e+06  -2.366942e+06
   2.470843e+06   5.212919e+06
  -3.290249e+06   6.198916e+06
  -7.050048e+06  -1.010242e+06
  -4.068484e+06  -9.090629e+06
   3.305858e+06  -1.055636e+07
   9.011626e+06  -5.186761e+06
   9.527021e+06   2.020963e+06
   5.582614e+06   6.714199e+06
   3.662313e+05   7.410287e+06
  -2.397769e+06   5.029277e+06
  -1.085548e+06   2.447550e+06
   1.385670e+06   2.429326e+06
   7.254491e+04   4.209289e+06
  -5.358644e+06   3.975329e+06
  -9.070127e+06   1.515220e+05
  -6.323129e+06  -3.980836e+06
   1.350806e+05  -4.602818e+06
   3.755250e+06  -2.108218e+06
   2.286160e+06   3.975108e+05
  -9.849670e+05   1.205986e+06
  -2.627550e+06   3.944428e+05
  -2.150141e+06  -1.743252e+06
  -3.541456e+05  -3.910665e+06
   1.826210e+06  -3.375642e+06
   2.702712e+06   4.063615e+05
   1.195353e+06   3.285877e+06
  -7.624327e+05   1.361837e+06
  -1.308779e+05  -2.599822e+06
   2.337416e+06  -2.246309e+06
   2.269996e+06   2.794331e+06
  -1.935704e+06   5.420338e+06
  -5.860572e+06   9.208568e+05
  -4.406232e+06  -6.035145e+06
   1.626697e+06  -7.452647e+06
   6.600991e+06  -2.100783e+06
   6.415516e+06   4.017934e+06
   1.875218e+06   5.549242e+06
  -3.156213e+06   2.645501e+06
  -4.992033e+06  -1.239361e+06
  -2.436739e+06  -3.134842e+06
   2.064288e+06  -2.046622e+06
   4.087881e+06   7.445819e+05
   1.825097e+06   2.387411e+06
  -1.519281e+06   1.236739e+06
  -1.682651e+06  -9.114855e+05
   1.003751e+06  -9.592820e+05
   2.228224e+06   1.267413e+06
  -2.644991e+05   2.832668e+06
  -3.833169e+06   1.727577e+06
  -4.680958e+06  -1.008029e+06
  -2.141374e+06  -3.455550e+06
   1.732474e+06  -4.796997e+06
   4.814822e+06  -4.411318e+06
   5.787305e+06  -1.459104e+06
   4.085955e+06   3.052058e+06
   7.556622e+05   5.740218e+06
  -1.624108e+06   4.473463e+06
  -1.500816e+06   1.349894e+06
  -2.696810e+05   4.882655e+04
  -3.312980e+05   1.037806e+06
  -1.842004e+06   1.545245e+06
  -2.788603e+06  -6.543799e+04
  -1.862566e+06  -2.120644e+06
   1.601752e+05  -2.204484e+06
   1.695066e+06  -1.621250e+05
   1.698457e+06   2.146129e+06
  -6.692085e+04   2.889253e+06
  -2.709269e+06   1.472147e+06
  -4.149885e+06  -1.284295e+06
  -2.847164e+06  -3.541697e+06
   1.277076e+05  -3.795974e+06
   2.051588e+06  -2.381064e+06
   1.952462e+06  -1.043061e+06
   1.661104e+06  -7.248664e+05
   2.808898e+06  -5.393876e+05
   4.193051e+06   6.822403e+05
   3.385766e+06   2.655775e+06
   1.362903e+05   4.021400e+06
  -3.164279e+06   3.799509e+06
  -4.139937e+06   1.993787e+06
  -2.578840e+06  -5.286534e+05
  -1.480729e+05  -2.230715e+06
   1.175585e+06  -1.842800e+06
   5.425683e+05   7.746060e+04
  -1.103546e+06   1.261972e+06
  -1.840074e+06   3.687768e+05
  -8.429328e+05  -1.166709e+06
   5.466900e+05  -1.096691e+06
   4.867626e+05   3.644986e+05
  -9.284980e+05   7.800972e+05
  -1.791713e+06  -1.014599e+06
  -8.267877e+05  -3.222766e+06
   1.262828e+06  -3.416454e+06
   2.945812e+06  -1.351968e+06
   3.353168e+06   1.240648e+06
   2.397799e+06   2.727972e+06
   4.978253e+05   2.641236e+06
  -1.253084e+06   1.448136e+06
  -1.575113e+06   1.973790e+05
  -4.847589e+05  -4.679687e+04
   3.529927e+05   7.374837e+05
  -3.862153e+05   1.287867e+06
  -1.825408e+06   5.568209e+05
  -1.969164e+06  -8.328414e+05
  -3.967395e+05  -1.355705e+06
   1.139844e+06  -5.730947e+05
   9.115365e+05   4.413935e+05
  -8.029716e+05   5.709167e+05
  -2.191336e+06  -2.369491e+05
  -1.810199e+06  -1.328564e+06
   1.940970e+05  -1.999929e+06
   2.281384e+06  -1.675348e+06
   2.740469e+06  -2.795441e+05
   1.188125e+06   1.226255e+06
  -8.942653e+05   1.437803e+06
  -1.493377e+06   1.700516e+05
  -1.701649e+05  -1.042756e+06
   1.486676e+06  -7.124873e+05
   1.692123e+06   7.530208e+05
   3.660892e+05   1.620150e+06
  -1.042565e+06   9.954526e+05
  -1.245203e+06  -2.622291e+05
  -2.737529e+05  -7.519442e+05
   7.612528e+05  -5.774775e+04
   7.126685e+05   1.033675e+06
  -5.813731e+05   1.395437e+06
  -1.984176e+06   5.161882e+05
  -1.996202e+06  -1.047402e+06
  -3.717480e+05  -2.038881e+06
   1.408763e+06  -1.613071e+06
   1.694276e+06  -2.168214e+05
   5.075194e+05   8.480280e+05
  -6.418822e+05   7.996530e+05
  -6.466708e+05   7.382524e+04
   9.560744e+04  -3.922453e+05
   5.122078e+05  -2.477097e+05
   1.848636e+05   6.937138e+04
  -4.036662e+05  -2.528783e+04
  -5.232508e+05  -6.173357e+05
   1.756280e+05  -1.158503e+06
   1.351864e+06  -8.868106e+05
   2.050049e+06   4.068928e+05
   1.437356e+06   1.917102e+06
  -2.192625e+05   2.395782e+06
  -1.598899e+06   1.418760e+06
  -1.693428e+06  -1.033244e+05
  -8.902588e+05  -9.091386e+05
  -3.315939e+05  -7.088329e+05
  -4.393746e+05  -2.618361e+05
  -5.745045e+05  -2.989165e+05
  -7.927926e+04  -7.270678e+05
   8.520381e+05  -8.926811e+05
   1.435029e+06  -3.401893e+05
   1.064969e+06   7.193203e+05
  -2.265915e+05   1.471982e+06
  -1.702489e+06   1.079747e+06
  -2.230475e+06  -4.734250e+05
  -1.133745e+06  -2.065860e+06
   9.701900e+05  -2.326565e+06
   2.484920e+06  -1.032418e+06
   2.330886e+06   6.200241e+05
   9.879312e+05   1.316923e+06
  -1.755273e+05   9.709849e+05
  -4.103483e+05   5.431680e+05
  -1.320328e+05   7.436503e+05
  -1.340897e+05   1.259537e+06
  -6.578920e+05   1.244651e+06
  -1.261520e+06   3.019618e+05
  -1.310442e+06  -1.073300e+06
  -5.414013e+05  -1.873822e+06
   6.217335e+05  -1.417915e+06
   1.271768e+06  -1.951944e+03
   8.064595e+05   1.252311e+06
  -3.639011e+05   1.371894e+06
  -1.116438e+06   4.243079e+05
  -7.907197e+05  -6.448133e+05
   9.508995e+04  -1.032502e+06
   4.909670e+05  -7.721270e+05
   6.716704e+04  -4.248132e+05
  -4.205783e+05  -3.416958e+05
  -5.395590e+04  -3.825173e+05
   1.119911e+06  -2.085876e+05
   2.015575e+06   3.260634e+05
   1.592372e+06   1.013158e+06
  -1.834767e+04   1.395577e+06
  -1.543707e+06   1.111620e+06
  -1.796569e+06   2.866023e+05
  -8.273992e+05  -4.569193e+05
   2.477719e+05  -5.450108e+05
   4.952794e+05  -4.424031e+04
   1.793773e+04   3.980483e+05
  -4.482944e+05   2.499333e+05
  -4.713784e+05  -3.394999e+05
  -2.275974e+05  -7.231588e+05
  -7.350776e+04  -4.771729e+05
  -1.365929e+05   1.087637e+05
  -2.910863e+05   3.089422e+05
  -2.754195e+05  -2.269096e+05
   1.509742e+05  -9.824963e+05
   8.889794e+05  -1.047341e+06
   1.321979e+06  -1.543178e+05
   8.158585e+05   9.079923e+05
  -4.137730e+05   1.105349e+06
  -1.231194e+06   3.102849e+05
  -7.218805e+05  -5.739392e+05
   6.890545e+05  -6.429707e+05
   1.576831e+06   8.532421e+04
   1.018156e+06   8.464592e+05
  -4.589720e+05   9.905652e+05
  -1.484135e+06   4.984546e+05
  -1.234238e+06  -1.745891e+05
  -1.421878e+05  -5.118709e+05
   6.393947e+05  -2.737807e+05
   3.731069e+05   2.864553e+05
  -5.884932e+05   5.091542e+05
  -1.170979e+06  -9.319009e+04
  -6.503834e+05  -1.177696e+06
   6.017723e+05  -1.682415e+06
   1.479078e+06  -8.680738e+05
   1.244520e+06   7.562665e+05
   1.990942e+05   1.779403e+06
  -7.333008e+05   1.290514e+06
  -9.182236e+05  -1.660934e+05
  -4.357557e+05  -1.178953e+06
   2.059139e+05  -9.648334e+05
   5.530993e+05  -8.709570e+04
   4.701109e+05   3.747689e+05
   1.710838e+05   1.373282e+05
   4.452876e+04  -9.643607e+04
   2.644091e+05   2.897142e+05
   5.003808e+05   9.567553e+05
   1.990355e+05   1.069131e+06
  -6.974646e+05   3.907805e+05
  -1.464290e+06  -4.609789e+05
  -1.277924e+06  -8.277078e+05
  -1.841016e+05  -6.907441e+05
   8.529434e+05  -4.173501e+05
   9.777756e+05  -1.842930e+05
   3.514633e+05   5.029658e+04
  -1.467456e+05   2.240446e+05
  -2.741971e+04   2.046525e+05
   2.709762e+05   9.468493e+04
   4.806029e+04   1.333606e+05
  -6.637174e+05   2.354469e+05
  -1.038596e+06  -1.159658e+04
  -4.219944e+05  -6.887275e+05
   8.393958e+05  -1.169489e+06
   1.683422e+06  -7.487189e+05
   1.396795e+06   4.306190e+05
   2.749633e+05   1.396569e+06
  -7.576835e+05   1.364840e+06
  -1.041891e+06   5.340194e+05
  -6.530657e+05  -2.305673e+05
  -1.321587e+05  -3.563583e+05
   7.420134e+04  -6.623679e+04
  -7.773026e+04   1.833919e+04
  -2.998866e+05  -3.621265e+05
  -2.486243e+05  -8.005961e+05
   1.768963e+05  -6.747202e+05
   6.787308e+05   1.185028e+05
   7.377851e+05   9.442063e+05
   1.172588e+05   1.025953e+06
  -7.493783e+05   2.498011e+05
  -1.032405e+06  -7.120988e+05
  -3.502105e+05  -1.081478e+06
   7.066446e+05  -6.757851e+05
   1.111090e+06   7.035444e+04
   5.284470e+05   6.065573e+05
  -2.839876e+05   6.738962e+05
  -3.751432e+05   3.648302e+05
   2.465744e+05   5.806741e+03
   6.449419e+05  -4.256687e+04
   1.465418e+05   3.058558e+05
  -8.162105e+05   6.774167e+05
  -1.246262e+06   5.396004e+05
  -7.560053e+05  -1.751394e+05
   9.247786e+04  -8.637468e+05
   5.454793e+05  -8.507047e+05
   4.239172e+05  -1.610356e+05
   5.708237e+04   4.762245e+05
  -2.362055e+05   4.343738e+05
  -3.522104e+05  -1.431340e+05
  -2.556321e+05  -5.720523e+05
   5.145797e+04  -4.259878e+05
   3.893365e+05   4.168006e+04
   4.727780e+05   2.775132e+05
   2.400582e+05   9.520054e+04
  -3.404550e+04  -1.508065e+05
  -7.925953e+04  -4.466676e+04
   1.710099e+04   3.526672e+05
  -4.550550e+04   5.519217e+05
  -3.179029e+05   2.229826e+05
  -4.618181e+05  -3.742985e+05
  -1.631369e+05  -6.452954e+05
   4.033431e+05  -3.168910e+05
   6.641627e+05   2.731023e+05
   2.577054e+05   5.679475e+05
  -5.024681e+05   3.660057e+05
  -8.791451e+05  -6.927124e+04
  -4.789753e+05  -3.723562e+05
   2.904921e+05  -4.012303e+05
   6.355335e+05  -2.325268e+05
   2.508862e+05  -1.879290e+04
  -3.420268e+05   7.456784e+04
  -4.062586e+05  -5.654467e+04
   1.611104e+05  -2.903234e+05
   7.321645e+05  -2.779089e+05
