
 $NMID
 id='ANONYMOUS ', fmtdat='(2E16.6)'
 volume=1.0
 tramp=1.0
 $END
   4.588295e+07   1.149358e+06
   2.720639e+07   2.805517e+07
  -6.001748e+06   3.050289e+07
  -2.225209e+07   1.239926e+07
  -1.361752e+07  -4.867654e+06
   2.323836e+06  -7.563653e+06
   8.081057e+06   4.104588e+05
   2.760659e+06   7.839289e+06
  -4.716490e+06   8.178417e+06
  -7.938833e+06   2.045547e+06
  -5.855221e+06  -5.294161e+06
  -5.867638e+05  -7.414484e+06
   3.492512e+06  -2.147999e+06
   2.318840e+06   4.988997e+06
  -3.064179e+06   5.861629e+06
  -6.546097e+06  -9.285479e+05
  -3.747213e+06  -8.473939e+06
   3.131646e+06  -9.796654e+06
   8.424048e+06  -4.720776e+06
   8.810877e+06   2.031138e+06
   5.020562e+06   6.319036e+06
   1.715615e+05   6.796569e+06
  -2.218988e+06   4.510296e+06
  -8.206666e+05   2.249696e+06
   1.441257e+06   2.429889e+06
   4.036372e+03   4.097951e+06
  -5.206700e+06   3.701337e+06
  -8.612846e+06  -1.439071e+04
  -5.875507e+06  -3.858526e+06
   2.892131e+05  -4.328774e+06
   3.676646e+06  -1.885167e+06
   2.172781e+06   5.322324e+05
  -1.064760e+06   1.269641e+06
  -2.661285e+06   3.622383e+05
  -2.079056e+06  -1.794423e+06
  -2.245629e+05  -3.797694e+06
   1.807418e+06  -3.112999e+06
   2.461814e+06   5.226506e+05
   9.675145e+05   3.098560e+06
  -7.654678e+05   1.136652e+06
  -6.013439e+04  -2.573510e+06
   2.231912e+06  -2.145079e+06
   2.114752e+06   2.591781e+06
  -1.765636e+06   4.991960e+06
  -5.335165e+06   7.940339e+05
  -3.981729e+06  -5.605559e+06
   1.554668e+06  -6.856450e+06
   6.149165e+06  -1.877652e+06
   6.010353e+06   3.792872e+06
   1.788640e+06   5.220273e+06
  -2.961638e+06   2.516417e+06
  -4.728830e+06  -1.131866e+06
  -2.337330e+06  -2.925297e+06
   1.897892e+06  -1.910038e+06
   3.806058e+06   6.948071e+05
   1.704519e+06   2.214531e+06
  -1.416864e+06   1.140947e+06
  -1.601884e+06  -8.514855e+05
   8.709644e+05  -9.217193e+05
   2.049421e+06   1.091299e+06
  -1.837282e+05   2.531037e+06
  -3.472774e+06   1.567546e+06
  -4.314498e+06  -9.078538e+05
  -1.982884e+06  -3.193469e+06
   1.687580e+06  -4.487627e+06
   4.628667e+06  -4.113085e+06
   5.489380e+06  -1.288758e+06
   3.785575e+06   2.953551e+06
   6.378328e+05   5.428550e+06
  -1.520470e+06   4.218195e+06
  -1.364563e+06   1.329246e+06
  -2.777527e+05   1.469440e+05
  -4.326481e+05   1.040149e+06
  -1.872333e+06   1.425418e+06
  -2.703617e+06  -1.673071e+05
  -1.752546e+06  -2.122292e+06
   2.157815e+05  -2.157566e+06
   1.684631e+06  -1.457180e+05
   1.645411e+06   2.098528e+06
  -9.609607e+04   2.780566e+06
  -2.613180e+06   1.355839e+06
  -3.912057e+06  -1.297115e+06
  -2.615307e+06  -3.381146e+06
   1.829906e+05  -3.538222e+06
   1.935315e+06  -2.179524e+06
   1.806062e+06  -9.595466e+05
   1.549996e+06  -7.011454e+05
   2.669143e+06  -5.272513e+05
   3.995148e+06   6.505108e+05
   3.226991e+06   2.541596e+06
   1.200307e+05   3.849193e+06
  -3.054701e+06   3.627781e+06
  -3.997092e+06   1.873922e+06
  -2.469185e+06  -5.547175e+05
  -9.661243e+04  -2.159188e+06
   1.167832e+06  -1.750668e+06
   5.186401e+05   9.066443e+04
  -1.075348e+06   1.200830e+06
  -1.756155e+06   3.385380e+05
  -7.830359e+05  -1.119312e+06
   5.402235e+05  -1.052697e+06
   4.865873e+05   3.413475e+05
  -8.477617e+05   7.706394e+05
  -1.691132e+06  -8.965373e+05
  -8.376645e+05  -3.015618e+06
   1.115908e+06  -3.279557e+06
   2.768368e+06  -1.368894e+06
   3.238725e+06   1.132612e+06
   2.349729e+06   2.619376e+06
   4.929841e+05   2.558172e+06
  -1.216759e+06   1.390782e+06
  -1.520926e+06   1.772214e+05
  -4.648382e+05  -4.666171e+04
   3.365671e+05   7.072024e+05
  -3.682360e+05   1.221437e+06
  -1.734155e+06   5.216836e+05
  -1.872008e+06  -7.908386e+05
  -3.809694e+05  -1.285771e+06
   1.088683e+06  -5.496188e+05
   8.857016e+05   4.207950e+05
  -7.559101e+05   5.653063e+05
  -2.112794e+06  -2.007234e+05
  -1.766969e+06  -1.270011e+06
   1.682594e+05  -1.936536e+06
   2.192006e+06  -1.619381e+06
   2.631437e+06  -2.662451e+05
   1.131291e+06   1.171708e+06
  -8.593138e+05   1.360362e+06
  -1.417182e+06   1.505928e+05
  -1.487724e+05  -9.937745e+05
   1.425170e+06  -6.740598e+05
   1.619354e+06   7.192665e+05
   3.599642e+05   1.549003e+06
  -9.867449e+05   9.628859e+05
  -1.192888e+06  -2.360727e+05
  -2.719648e+05  -7.123492e+05
   7.206064e+05  -5.350923e+04
   6.753632e+05   9.919755e+05
  -5.668261e+05   1.334265e+06
  -1.907073e+06   4.831119e+05
  -1.908264e+06  -1.014549e+06
  -3.487753e+05  -1.953669e+06
   1.350330e+06  -1.540292e+06
   1.621192e+06  -2.077471e+05
   4.891843e+05   8.098227e+05
  -6.136122e+05   7.678041e+05
  -6.290170e+05   7.000238e+04
   8.194220e+04  -3.893317e+05
   5.003661e+05  -2.548921e+05
   2.030155e+05   6.510298e+04
  -3.689144e+05  -7.078870e+03
  -5.031902e+05  -5.742291e+05
   1.600915e+05  -1.104379e+06
   1.293617e+06  -8.487630e+05
   1.964132e+06   3.941405e+05
   1.371410e+06   1.842424e+06
  -2.172865e+05   2.300995e+06
  -1.537455e+06   1.368183e+06
  -1.633759e+06  -9.239962e+04
  -8.715938e+05  -8.811990e+05
  -3.281725e+05  -7.059605e+05
  -4.111715e+05  -2.722636e+05
  -5.322983e+05  -2.865616e+05
  -6.886365e+04  -6.875455e+05
   8.138675e+05  -8.557207e+05
   1.378919e+06  -3.321918e+05
   1.032992e+06   6.931737e+05
  -2.100304e+05   1.423757e+06
  -1.635810e+06   1.041705e+06
  -2.143968e+06  -4.565355e+05
  -1.089329e+06  -1.980851e+06
   9.253306e+05  -2.225351e+06
   2.375438e+06  -9.900379e+05
   2.237733e+06   5.862962e+05
   9.633294e+05   1.261072e+06
  -1.566300e+05   9.451443e+05
  -4.032664e+05   5.382358e+05
  -1.508517e+05   7.166499e+05
  -1.464758e+05   1.197637e+06
  -6.340645e+05   1.181383e+06
  -1.205550e+06   2.807602e+05
  -1.251235e+06  -1.036430e+06
  -5.119322e+05  -1.801365e+06
   6.032601e+05  -1.359270e+06
   1.221249e+06  -9.150330e+02
   7.722060e+05   1.197070e+06
  -3.434672e+05   1.311772e+06
  -1.057695e+06   4.129885e+05
  -7.506480e+05  -6.027593e+05
   8.405758e+04  -9.767332e+05
   4.565210e+05  -7.376197e+05
   5.741436e+04  -4.124785e+05
  -4.003574e+05  -3.337022e+05
  -4.892346e+04  -3.693079e+05
   1.069099e+06  -1.973857e+05
   1.924339e+06   3.178925e+05
   1.523381e+06   9.717218e+05
  -1.385243e+04   1.328987e+06
  -1.473887e+06   1.055380e+06
  -1.718833e+06   2.756778e+05
  -7.929798e+05  -4.265529e+05
   2.356772e+05  -5.145025e+05
   4.703984e+05  -4.557053e+04
   9.707426e+03   3.748941e+05
  -4.361052e+05   2.369774e+05
  -4.496590e+05  -3.281486e+05
  -2.064918e+05  -7.003071e+05
  -5.950357e+04  -4.613008e+05
  -1.308869e+05   1.112756e+05
  -2.861667e+05   3.062547e+05
  -2.653659e+05  -2.170800e+05
   1.523905e+05  -9.473393e+05
   8.568959e+05  -1.000258e+06
   1.259226e+06  -1.338243e+05
   7.680910e+05   8.777922e+05
  -4.034511e+05   1.050018e+06
  -1.178451e+06   2.819110e+05
  -6.901308e+05  -5.572222e+05
   6.604681e+05  -6.163253e+05
   1.516654e+06   8.023675e+04
   9.877795e+05   8.098963e+05
  -4.316607e+05   9.556488e+05
  -1.425840e+06   4.890254e+05
  -1.192054e+06  -1.617027e+05
  -1.408324e+05  -4.931301e+05
   6.124208e+05  -2.654515e+05
   3.531506e+05   2.739017e+05
  -5.730215e+05   4.829473e+05
  -1.125012e+06  -1.018143e+05
  -6.116886e+05  -1.139723e+06
   5.964732e+05  -1.612170e+06
   1.431042e+06  -8.222444e+05
   1.193020e+06   7.354296e+05
   1.836173e+05   1.713192e+06
  -7.083020e+05   1.242930e+06
  -8.821777e+05  -1.559568e+05
  -4.211786e+05  -1.132012e+06
   1.914423e+05  -9.294324e+05
   5.283722e+05  -8.485545e+04
   4.572238e+05   3.618699e+05
   1.715581e+05   1.332394e+05
   3.989507e+04  -9.408505e+04
   2.417073e+05   2.768962e+05
   4.730494e+05   9.201289e+05
   1.963736e+05   1.027850e+06
  -6.615115e+05   3.723126e+05
  -1.407164e+06  -4.483878e+05
  -1.233352e+06  -7.983211e+05
  -1.749951e+05  -6.625905e+05
   8.286760e+05  -3.987102e+05
   9.425060e+05  -1.767894e+05
   3.305844e+05   4.680051e+04
  -1.448949e+05   2.146240e+05
  -1.773971e+04   1.988339e+05
   2.701781e+05   9.490089e+04
   4.223945e+04   1.297703e+05
  -6.493669e+05   2.221515e+05
  -9.975618e+05  -1.891390e+04
  -3.887835e+05  -6.654057e+05
   8.219792e+05  -1.116484e+06
   1.616766e+06  -7.034549e+05
   1.330296e+06   4.282327e+05
   2.542965e+05   1.345816e+06
  -7.330350e+05   1.304374e+06
  -1.005095e+06   5.019599e+05
  -6.289339e+05  -2.294833e+05
  -1.213528e+05  -3.438709e+05
   8.058629e+04  -5.982330e+04
  -7.049698e+04   2.261544e+04
  -2.899430e+05  -3.457974e+05
  -2.385498e+05  -7.696966e+05
   1.756503e+05  -6.460193e+05
   6.547892e+05   1.229175e+05
   7.002594e+05   9.182590e+05
   9.747195e+04   9.878346e+05
  -7.286379e+05   2.290138e+05
  -9.873950e+05  -6.981950e+05
  -3.250899e+05  -1.042002e+06
   6.855402e+05  -6.396771e+05
   1.063740e+06   7.697208e+04
   4.983979e+05   5.810371e+05
  -2.777204e+05   6.382348e+05
  -3.559147e+05   3.451414e+05
   2.452718e+05   8.060247e+03
   6.223347e+05  -3.670415e+04
   1.361858e+05   2.938342e+05
  -7.876964e+05   6.477384e+05
  -1.192540e+06   5.162141e+05
  -7.164741e+05  -1.680576e+05
   9.489750e+04  -8.266384e+05
   5.227460e+05  -8.098564e+05
   4.018737e+05  -1.450983e+05
   4.893646e+04   4.620964e+05
  -2.318006e+05   4.123082e+05
  -3.397433e+05  -1.462399e+05
  -2.414883e+05  -5.516759e+05
   5.515365e+04  -4.032163e+05
   3.743372e+05   4.532552e+04
   4.492423e+05   2.650437e+05
   2.290773e+05   8.849577e+04
  -2.710276e+04  -1.405093e+05
  -7.315753e+04  -3.214078e+04
   5.879183e+03   3.457509e+05
  -6.230961e+04   5.257422e+05
  -3.141427e+05   2.008460e+05
  -4.344071e+05  -3.727866e+05
  -1.410174e+05  -6.250872e+05
   3.937980e+05  -2.996200e+05
   6.331493e+05   2.720146e+05
   2.414804e+05   5.509683e+05
  -4.831340e+05   3.473303e+05
  -8.410789e+05  -7.577180e+04
  -4.561144e+05  -3.612813e+05
   2.827394e+05  -3.786555e+05
   6.117458e+05  -2.128787e+05
   2.359777e+05  -1.418369e+04
  -3.381760e+05   6.582296e+04
  -3.949777e+05  -6.385332e+04
   1.617378e+05  -2.842503e+05
   7.157027e+05  -2.649549e+05
