
 $NMID
 id='ANONYMOUS ', fmtdat='(2E16.6)'
 volume=1.0
 tramp=1.0
 $END
  -5.148331e+06  -6.889197e+05
  -3.291411e+06  -2.282269e+06
  -3.026585e+04  -3.031744e+06
   2.214243e+06  -2.452572e+06
   2.086501e+06  -6.380589e+05
   3.143277e+05   9.652032e+05
  -1.164247e+06   7.839875e+05
  -1.084585e+06  -8.290332e+05
   1.236490e+05  -1.795732e+06
   1.074005e+06  -8.661732e+05
   9.203910e+05   8.424202e+05
   2.062608e+04   1.333694e+06
  -6.457536e+05   1.600829e+05
  -4.579813e+05  -1.246800e+06
   3.577408e+05  -1.373633e+06
   9.738976e+05  -1.718323e+05
   7.059936e+05   1.144007e+06
  -2.974991e+05   1.411574e+06
  -1.117460e+06   5.456802e+05
  -9.968068e+05  -5.225664e+05
  -1.978135e+05  -8.410541e+05
   2.869949e+05  -4.109466e+05
  -8.653685e+04  -8.886503e+04
  -7.576291e+05  -4.814141e+05
  -7.174841e+05  -1.174193e+06
   3.166112e+05  -1.269909e+06
   1.533586e+06  -4.992866e+05
   1.808725e+06   5.093917e+05
   8.147438e+05   9.728443e+05
  -5.934385e+05   6.570038e+05
  -1.129109e+06  -9.923867e+04
  -3.397977e+05  -7.072918e+05
   8.868676e+05  -6.516471e+05
   1.255214e+06   1.237354e+05
   4.878331e+05   9.853123e+05
  -4.429613e+05   1.080903e+06
  -5.620999e+05   2.907569e+05
  -3.434990e+03  -5.107969e+05
   3.720833e+05  -4.236602e+05
   1.421871e+05   3.955556e+05
  -3.275328e+05   9.343743e+05
  -5.495029e+05   5.585655e+05
  -4.366307e+05  -2.797068e+05
  -1.321771e+05  -6.500742e+05
   2.157365e+05  -2.097667e+05
   3.446133e+05   5.043904e+05
  -4.236590e+04   7.190621e+05
  -7.840865e+05   1.947420e+05
  -1.144076e+06  -6.064331e+05
  -5.751351e+05  -9.959221e+05
   5.153883e+05  -6.832446e+05
   1.117965e+06   3.935401e+03
   7.350071e+05   4.716001e+05
  -1.281299e+05   4.143428e+05
  -6.077109e+05   3.057591e+04
  -3.759148e+05  -2.509425e+05
   1.707592e+05  -1.850147e+05
   4.171023e+05   1.248465e+05
   1.250040e+05   3.680908e+05
  -3.597790e+05   3.000844e+05
  -4.496053e+05  -3.914458e+04
   3.160349e+04  -3.187440e+05
   5.507006e+05  -1.976212e+05
   4.044299e+05   3.035615e+05
  -4.192328e+05   7.405468e+05
  -1.149843e+06   6.436078e+05
  -1.112640e+06  -5.445868e+03
  -4.751351e+05  -7.404669e+05
   6.958316e+04  -1.065597e+06
   1.750465e+05  -9.047594e+05
   1.159846e+05  -5.837668e+05
   2.677843e+05  -4.074936e+05
   6.163133e+05  -3.219229e+05
   8.496839e+05  -4.500815e+04
   7.237246e+05   4.817305e+05
   2.447909e+05   8.778696e+05
  -3.469557e+05   6.838747e+05
  -6.767231e+05  -6.171445e+04
  -4.697353e+05  -7.411539e+05
   1.556681e+05  -7.542874e+05
   6.975650e+05  -1.360348e+05
   7.182255e+05   5.207258e+05
   2.786944e+05   7.146624e+05
  -1.621890e+05   4.847874e+05
  -2.718887e+05   2.206303e+05
  -1.779225e+05   1.781947e+05
  -2.545902e+05   2.652298e+05
  -6.333871e+05   2.159809e+05
  -9.809627e+05  -1.217159e+05
  -8.038671e+05  -6.350624e+05
  -8.017275e+03  -9.975073e+05
   8.764836e+05  -8.997935e+05
   1.136691e+06  -3.339264e+05
   5.986100e+05   3.270436e+05
  -1.696293e+05   6.091594e+05
  -4.522487e+05   3.648717e+05
  -1.168260e+05  -8.519188e+04
   3.430461e+05  -2.716290e+05
   4.241840e+05  -4.767780e+04
   1.157204e+05   2.735485e+05
  -2.075187e+05   2.737080e+05
  -2.214797e+05  -8.010667e+04
   8.379917e+04  -3.494278e+05
   4.403670e+05  -9.609015e+04
   4.963436e+05   5.688551e+05
   7.653407e+04   1.011741e+06
  -6.056073e+05   7.261267e+05
  -1.033717e+06  -1.017356e+05
  -8.337983e+05  -7.741652e+05
  -1.706029e+05  -8.069038e+05
   3.873893e+05  -3.681991e+05
   4.379367e+05   8.720493e+03
   1.236990e+05   1.902190e+04
  -8.570135e+04  -1.874246e+05
   7.116145e+04  -2.801646e+05
   3.882992e+05  -1.170166e+05
   4.537554e+05   1.582968e+05
   1.268120e+05   2.914177e+05
  -2.744290e+05   1.586731e+05
  -2.896748e+05  -1.129064e+05
   1.655060e+05  -2.402811e+05
   6.444427e+05  -4.279734e+04
   6.064045e+05   3.575692e+05
   8.464089e+03   6.167790e+05
  -6.188999e+05   4.877812e+05
  -7.214978e+05   6.695637e+04
  -2.821056e+05  -2.883007e+05
   2.141773e+05  -2.958299e+05
   3.101287e+05  -1.284388e+04
  -5.740766e+03   2.273384e+05
  -3.702113e+05   1.508948e+05
  -4.298720e+05  -1.746512e+05
  -1.422753e+05  -4.099558e+05
   2.222995e+05  -3.115176e+05
   3.369104e+05  -2.293389e+03
   1.244774e+05   1.684272e+05
  -1.536373e+05   2.145821e+04
  -1.521454e+05  -2.573759e+05
   1.804287e+05  -3.339427e+05
   5.151878e+05  -8.315264e+04
   4.814518e+05   3.015417e+05
   7.042158e+04   5.113075e+05
  -3.508800e+05   3.941610e+05
  -4.240248e+05   6.343655e+04
  -1.491610e+05  -2.077847e+05
   1.568094e+05  -2.162586e+05
   2.046384e+05  -8.268786e+03
   3.761959e+03   1.680681e+05
  -1.891555e+05   1.283303e+05
  -1.577851e+05  -3.998616e+04
   4.665742e+04  -8.668250e+04
   1.618483e+05   8.515197e+04
  -6.631897e+02   2.808590e+05
  -3.335936e+05   2.277420e+05
  -5.183098e+05  -1.152236e+05
  -3.416782e+05  -5.011553e+05
   8.537520e+04  -6.271254e+05
   4.374065e+05  -3.983009e+05
   4.879763e+05   6.522575e+03
   2.969021e+05   2.945691e+05
   9.954773e+04   3.061521e+05
   4.605615e+04   1.448274e+05
   6.967909e+04   5.399638e+04
   1.947033e+03   1.379806e+05
  -2.048708e+05   2.337193e+05
  -3.880417e+05   1.117353e+05
  -3.210311e+05  -2.117737e+05
   3.948222e+04  -4.400341e+05
   4.580189e+05  -3.046943e+05
   5.954043e+05   1.341565e+05
   3.070871e+05   5.326749e+05
  -2.170856e+05   5.852488e+05
  -6.083453e+05   2.815281e+05
  -6.248087e+05  -1.227752e+05
  -3.285158e+05  -3.493879e+05
   9.793538e+03  -3.245901e+05
   1.664651e+05  -2.036006e+05
   1.394080e+05  -1.794172e+05
   9.599803e+04  -2.621878e+05
   1.667881e+05  -2.681943e+05
   2.976123e+05  -4.852112e+04
   3.100736e+05   2.987261e+05
   1.085476e+05   4.938424e+05
  -1.867718e+05   3.582541e+05
  -3.349391e+05  -2.201477e+03
  -2.111351e+05  -3.040918e+05
   6.304911e+04  -3.458055e+05
   2.397634e+05  -1.533450e+05
   1.915090e+05   8.965540e+04
   2.368787e+04   2.183798e+05
  -6.082602e+04   2.053742e+05
   7.523000e+03   1.400840e+05
   8.948343e+04   1.099167e+05
  -5.576703e+02   1.059874e+05
  -2.652339e+05   5.035698e+04
  -4.789923e+05  -9.234933e+04
  -3.981786e+05  -2.545588e+05
  -2.560486e+04  -3.252638e+05
   3.564252e+05  -2.532427e+05
   4.479907e+05  -8.668316e+04
   2.267467e+05   6.602699e+04
  -4.522357e+04   1.088920e+05
  -1.121260e+05   3.110828e+04
   1.909972e+04  -6.510640e+04
   1.393040e+05  -4.657183e+04
   1.094555e+05   9.545025e+04
   1.879176e+03   2.022061e+05
  -3.127556e+04   1.264480e+05
   4.281803e+04  -5.800938e+04
   1.157638e+05  -1.147623e+05
   7.678482e+04   5.702812e+04
  -7.577420e+04   2.668075e+05
  -2.410549e+05   2.494907e+05
  -2.879169e+05  -7.898253e+03
  -1.433743e+05  -2.463013e+05
   1.213544e+05  -2.361031e+05
   2.899258e+05  -1.842022e+04
   1.707925e+05   1.737602e+05
  -1.753557e+05   1.669641e+05
  -4.292631e+05  -1.738688e+04
  -3.158229e+05  -2.222800e+05
   8.721451e+04  -2.913949e+05
   4.066899e+05  -1.760806e+05
   3.622822e+05   2.780331e+04
   5.444857e+04   1.469309e+05
  -1.648803e+05   8.571234e+04
  -7.830131e+04  -6.415438e+04
   1.817210e+05  -1.001416e+05
   2.973450e+05   7.698480e+04
   1.074252e+05   3.333720e+05
  -2.335759e+05   4.087557e+05
  -4.231035e+05   1.692892e+05
  -3.098635e+05  -2.362079e+05
  -1.604387e+04  -4.805199e+05
   2.149448e+05  -3.523958e+05
   2.485895e+05   2.861167e+04
   1.277617e+05   3.137486e+05
  -2.993389e+04   2.747630e+05
  -1.353999e+05   3.188926e+04
  -1.469173e+05  -1.137365e+05
  -7.497751e+04  -5.030620e+04
  -1.176304e+03   3.530097e+04
  -1.930586e+04  -5.646048e+04
  -9.945598e+04  -2.496678e+05
  -7.461907e+04  -2.936517e+05
   1.452052e+05  -1.008065e+05
   3.851252e+05   1.465384e+05
   3.607220e+05   2.400332e+05
   4.213652e+04   1.771747e+05
  -2.639952e+05   9.074679e+04
  -2.732935e+05   4.439820e+04
  -6.491179e+04   1.376710e+03
   5.514820e+04  -5.257485e+04
  -2.691397e+04  -7.407274e+04
  -1.096354e+05  -5.332533e+04
   5.969593e+03  -3.772659e+04
   2.220074e+05  -3.172333e+04
   2.662289e+05   3.583786e+04
   3.674036e+04   1.798032e+05
  -2.816519e+05   2.630410e+05
  -4.271515e+05   1.321846e+05
  -3.049533e+05  -1.632106e+05
  -2.624886e+04  -3.777116e+05
   2.152981e+05  -3.278143e+05
   2.817782e+05  -8.986213e+04
   1.709243e+05   9.705771e+04
   9.429643e+03   9.455612e+04
  -5.510825e+04  -9.559719e+03
   8.531831e+03  -3.116215e+04
   9.016616e+04   8.930912e+04
   6.450116e+04   2.148489e+05
  -6.863860e+04   1.635792e+05
  -1.817349e+05  -7.326809e+04
  -1.470563e+05  -2.888931e+05
   3.617616e+04  -2.647908e+05
   2.239872e+05  -9.487154e+03
   2.394545e+05   2.445283e+05
   4.110367e+04   2.874378e+05
  -2.053619e+05   1.311347e+05
  -2.687755e+05  -5.446388e+04
  -1.027731e+05  -1.430888e+05
   8.561488e+04  -1.341182e+05
   7.404678e+04  -7.942333e+04
  -9.878778e+04  -2.204256e+04
  -1.783814e+05  -9.785131e+03
  -1.925195e+04  -7.598652e+04
   2.287396e+05  -1.631560e+05
   3.085351e+05  -1.400238e+05
   1.592621e+05   3.417470e+04
  -4.672255e+04   2.092458e+05
  -1.307642e+05   1.961033e+05
  -7.844204e+04   7.878833e+03
   1.543808e+04  -1.395284e+05
   7.790614e+04  -8.843325e+04
   8.946089e+04   7.713892e+04
   4.806645e+04   1.563994e+05
  -3.114641e+04   8.078719e+04
  -9.876345e+04  -3.402271e+04
  -1.064140e+05  -6.124661e+04
  -6.069629e+04  -1.078559e+04
  -9.869030e+03   1.479697e+04
   2.079904e+04  -3.786109e+04
   4.872975e+04  -1.113787e+05
   8.661193e+04  -1.059746e+05
   1.065192e+05   8.187977e+03
   6.784156e+04   1.454127e+05
  -2.992905e+04   1.755027e+05
  -1.287161e+05   5.633921e+04
  -1.443930e+05  -1.082291e+05
  -3.625456e+04  -1.668369e+05
   1.303493e+05  -7.853000e+04
   2.080421e+05   5.373721e+04
   1.060463e+05   1.095257e+05
  -8.499958e+04   7.336193e+04
  -1.619642e+05   1.553182e+04
  -4.062923e+04  -5.745353e+03
   1.254179e+05   1.610239e+04
   1.172156e+05   6.129591e+04
  -7.883932e+04   9.216142e+04
  -2.452558e+05   5.111470e+04
