
 $NMID
 id='ANONYMOUS ', fmtdat='(2E16.6)'
 volume=1.0
 tramp=1.0
 $END
  -5.337940e+07  -1.630907e+06
  -3.091848e+07  -3.412043e+07
   8.311911e+06  -3.584508e+07
   2.649866e+07  -1.289212e+07
   1.521965e+07   7.216798e+06
  -3.473278e+06   8.671845e+06
  -9.172678e+06  -1.521275e+06
  -2.248664e+06  -9.273292e+06
   6.118959e+06  -8.526526e+06
   9.121349e+06  -1.546878e+06
   6.427139e+06   6.033213e+06
   5.609599e+05   8.118348e+06
  -3.844530e+06   2.507705e+06
  -2.370626e+06  -5.140887e+06
   3.695753e+06  -6.011091e+06
   7.362000e+06   1.510306e+06
   3.886019e+06   9.745720e+06
  -3.908974e+06   1.101183e+07
  -9.717354e+06   5.301406e+06
  -1.019409e+07  -2.229066e+06
  -6.099929e+06  -7.301041e+06
  -4.032508e+05  -8.275879e+06
   3.012608e+06  -5.662228e+06
   1.911365e+06  -2.392225e+06
  -1.005218e+06  -1.921452e+06
  -2.300594e+05  -3.900241e+06
   5.131869e+06  -4.083849e+06
   9.119290e+06  -3.206990e+05
   6.583797e+06   4.045887e+06
   1.650142e+05   4.838175e+06
  -3.552076e+06   2.428317e+06
  -2.396048e+06   1.940551e+04
   4.722924e+05  -8.893567e+05
   2.086054e+06  -5.049476e+05
   2.080515e+06   1.311923e+06
   6.507487e+05   3.713817e+06
  -1.785639e+06   3.633334e+06
  -3.126757e+06  -1.712867e+05
  -1.571318e+06  -3.529497e+06
   8.327131e+05  -1.860617e+06
   3.481649e+05   2.300551e+06
  -2.335861e+06   2.104384e+06
  -2.201564e+06  -3.081041e+06
   2.504942e+06  -5.698737e+06
   6.637969e+06  -7.105997e+05
   4.643662e+06   6.730800e+06
  -2.077141e+06   8.012001e+06
  -7.094434e+06   2.082004e+06
  -6.420943e+06  -4.358034e+06
  -1.568755e+06  -5.693345e+06
   3.321322e+06  -2.441843e+06
   4.868949e+06   1.564255e+06
   2.156963e+06   3.322813e+06
  -2.349422e+06   1.982843e+06
  -4.235388e+06  -1.005928e+06
  -1.746501e+06  -2.621490e+06
   1.664120e+06  -1.243320e+06
   1.597647e+06   1.003141e+06
  -1.280053e+06   7.885092e+05
  -2.247746e+06  -1.763495e+06
   7.490903e+05  -3.225332e+06
   4.458493e+06  -1.623088e+06
   4.947314e+06   1.461261e+06
   2.055593e+06   3.821982e+06
  -1.818359e+06   4.928853e+06
  -4.807650e+06   4.476856e+06
  -5.882472e+06   1.531055e+06
  -4.278610e+06  -3.081259e+06
  -7.661573e+05  -5.843981e+06
   1.867852e+06  -4.424245e+06
   1.673816e+06  -1.059533e+06
   9.114488e+04   2.620015e+05
  -7.179215e+04  -9.607284e+05
   1.523408e+06  -1.720875e+06
   2.681029e+06  -2.280113e+05
   1.923941e+06   1.830149e+06
   3.061366e+04   2.029347e+06
  -1.446892e+06   2.009124e+05
  -1.554541e+06  -1.952619e+06
   3.058959e+04  -2.763147e+06
   2.641283e+06  -1.528995e+06
   4.218734e+06   1.200969e+06
   2.979876e+06   3.632277e+06
  -1.366804e+05   4.016410e+06
  -2.236650e+06   2.521189e+06
  -2.149507e+06   1.006617e+06
  -1.739316e+06   5.847678e+05
  -2.769396e+06   3.830315e+05
  -4.071242e+06  -8.038995e+05
  -3.224888e+06  -2.668398e+06
  -4.854675e+04  -3.884307e+06
   3.080384e+06  -3.620861e+06
   3.966230e+06  -1.945152e+06
   2.514014e+06   4.269134e+05
   2.471946e+05   2.120910e+06
  -1.062100e+06   1.824906e+06
  -5.390688e+05  -3.921157e+04
   1.045538e+06  -1.224996e+06
   1.813265e+06  -3.414503e+05
   8.555868e+05   1.164289e+06
  -5.017677e+05   1.046807e+06
  -3.841481e+05  -3.688948e+05
   1.023547e+06  -6.050079e+05
   1.694885e+06   1.292396e+06
   4.823009e+05   3.298691e+06
  -1.602264e+06   3.123916e+06
  -2.960219e+06   9.223450e+05
  -3.039256e+06  -1.436035e+06
  -2.061101e+06  -2.610468e+06
  -3.811044e+05  -2.442056e+06
   1.186651e+06  -1.360090e+06
   1.490403e+06  -1.954334e+05
   4.639817e+05   5.223483e+04
  -3.238975e+05  -7.174937e+05
   4.257312e+05  -1.263239e+06
   1.826993e+06  -5.053290e+05
   1.905378e+06   8.931359e+05
   3.253205e+05   1.353840e+06
  -1.121276e+06   5.126011e+05
  -8.211469e+05  -4.438977e+05
   8.104063e+05  -4.538782e+05
   2.026335e+06   3.583538e+05
   1.592324e+06   1.300446e+06
  -2.775710e+05   1.829574e+06
  -2.200673e+06   1.504263e+06
  -2.619537e+06   2.023530e+05
  -1.124188e+06  -1.227281e+06
   9.084195e+05  -1.411753e+06
   1.493888e+06  -1.460710e+05
   1.738112e+05   1.037353e+06
  -1.453040e+06   6.701022e+05
  -1.605927e+06  -7.792246e+05
  -2.723176e+05  -1.565650e+06
   1.058205e+06  -8.835135e+05
   1.172202e+06   3.361112e+05
   2.015730e+05   7.459208e+05
  -7.630454e+05   3.134969e+04
  -6.814700e+05  -1.014496e+06
   5.675825e+05  -1.342233e+06
   1.910589e+06  -4.835224e+05
   1.911242e+06   1.029394e+06
   3.235877e+05   1.973293e+06
  -1.400101e+06   1.525043e+06
  -1.637799e+06   1.577775e+05
  -4.501884e+05  -8.337876e+05
   6.416882e+05  -7.423414e+05
   5.933393e+05  -6.408269e+04
  -1.198142e+05   3.212755e+05
  -4.498590e+05   1.775995e+05
  -9.162763e+04  -4.942943e+04
   4.256949e+05   1.082026e+05
   4.612754e+05   6.594486e+05
  -2.320671e+05   1.115808e+06
  -1.327169e+06   8.146686e+05
  -1.959827e+06  -4.332311e+05
  -1.349827e+06  -1.866611e+06
   2.481671e+05  -2.281305e+06
   1.546363e+06  -1.293285e+06
   1.578179e+06   1.560401e+05
   7.786189e+05   8.448725e+05
   2.918142e+05   5.917757e+05
   4.675377e+05   2.042617e+05
   6.014538e+05   3.203073e+05
   6.988728e+04   7.355647e+05
  -8.488235e+05   8.286858e+05
  -1.366129e+06   2.712261e+05
  -9.652056e+05  -6.928983e+05
   2.665120e+05  -1.355037e+06
   1.640329e+06  -9.705737e+05
   2.107202e+06   4.991446e+05
   1.022007e+06   2.005242e+06
  -1.012778e+06   2.212846e+06
  -2.428977e+06   9.129533e+05
  -2.196271e+06  -6.801882e+05
  -8.561612e+05  -1.275978e+06
   2.174824e+05  -8.670537e+05
   3.579958e+05  -4.625728e+05
   6.475260e+04  -7.210852e+05
   1.151310e+05  -1.252098e+06
   6.651105e+05  -1.215115e+06
   1.237294e+06  -2.788434e+05
   1.249293e+06   1.044428e+06
   4.951480e+05   1.800106e+06
  -6.108780e+05   1.348157e+06
  -1.212311e+06  -2.773916e+04
  -7.375546e+05  -1.233294e+06
   4.066827e+05  -1.309215e+06
   1.114876e+06  -3.430792e+05
   7.478144e+05   6.959634e+05
  -1.552328e+05   1.021019e+06
  -5.393664e+05   7.200927e+05
  -9.321834e+04   3.810227e+05
   4.086509e+05   3.214435e+05
   5.306415e+04   3.619304e+05
  -1.094886e+06   1.731499e+05
  -1.951806e+06  -3.575960e+05
  -1.507861e+06  -1.015137e+06
   7.651468e+04  -1.360926e+06
   1.538158e+06  -1.049571e+06
   1.738346e+06  -2.188609e+05
   7.689645e+05   4.974011e+05
  -2.660045e+05   5.389277e+05
  -4.863765e+05   1.432474e+04
  -2.384440e+04  -4.104174e+05
   4.179310e+05  -2.416817e+05
   4.517463e+05   3.313654e+05
   2.429607e+05   6.873558e+05
   9.655514e+04   4.573649e+05
   1.267168e+05  -7.779446e+04
   2.540001e+05  -2.627883e+05
   2.531023e+05   2.244537e+05
  -1.406289e+05   9.266118e+05
  -8.681700e+05   9.958880e+05
  -1.310318e+06   1.496100e+05
  -8.092680e+05  -8.818505e+05
   4.138927e+05  -1.085024e+06
   1.208663e+06  -3.119659e+05
   6.886350e+05   5.483773e+05
  -6.775512e+05   5.968645e+05
  -1.489514e+06  -1.246297e+05
  -9.123831e+05  -8.313508e+05
   4.871339e+05  -9.079941e+05
   1.413398e+06  -4.038780e+05
   1.142812e+06   2.101386e+05
   1.100383e+05   4.816517e+05
  -6.185387e+05   2.345491e+05
  -3.634691e+05  -2.913766e+05
   5.539567e+05  -4.971182e+05
   1.123356e+06   7.839208e+04
   6.394888e+05   1.122577e+06
  -5.595222e+05   1.616196e+06
  -1.407346e+06   8.359388e+05
  -1.181421e+06  -7.243677e+05
  -1.728453e+05  -1.692516e+06
   7.142909e+05  -1.202293e+06
   8.652153e+05   1.926210e+05
   3.759132e+05   1.131463e+06
  -2.381516e+05   8.979398e+05
  -5.366896e+05   6.223062e+04
  -4.214825e+05  -3.567535e+05
  -1.373598e+05  -1.235981e+05
  -5.270189e+04   8.302045e+04
  -2.824882e+05  -2.990426e+05
  -4.773970e+05  -9.269290e+05
  -1.463043e+05  -1.014198e+06
   7.037803e+05  -3.555489e+05
   1.384857e+06   4.570232e+05
   1.179155e+06   8.034777e+05
   1.627503e+05   6.665078e+05
  -7.938451e+05   3.917561e+05
  -9.244434e+05   1.546088e+05
  -3.542214e+05  -6.856627e+04
   1.332087e+05  -2.151555e+05
   5.680397e+04  -1.780887e+05
  -2.275000e+05  -7.431357e+04
  -5.680752e+04  -1.266497e+05
   6.031775e+05  -2.319587e+05
   9.957997e+05   1.228231e+04
   4.413467e+05   6.699737e+05
  -7.843946e+05   1.129104e+06
  -1.636947e+06   7.201649e+05
  -1.369213e+06  -4.092141e+05
  -2.622413e+05  -1.331316e+06
   7.449916e+05  -1.305915e+06
   1.001762e+06  -5.215447e+05
   6.182652e+05   2.083603e+05
   1.364168e+05   3.429197e+05
  -4.598062e+04   8.270729e+04
   8.289232e+04   4.781506e+03
   2.680690e+05   3.568439e+05
   2.178337e+05   7.661290e+05
  -1.690254e+05   6.499507e+05
  -6.427153e+05  -9.780711e+04
  -7.164065e+05  -8.889652e+05
  -1.367791e+05  -9.865155e+05
   7.016607e+05  -2.626687e+05
   9.920267e+05   6.620994e+05
   3.454319e+05   1.038661e+06
  -6.768804e+05   6.622479e+05
  -1.075974e+06  -6.819879e+04
  -5.156021e+05  -6.047175e+05
   2.802706e+05  -6.682251e+05
   3.857619e+05  -3.503897e+05
  -2.096038e+05   4.589016e+03
  -6.096229e+05   4.052571e+04
  -1.464934e+05  -2.990533e+05
   7.847304e+05  -6.369753e+05
   1.216155e+06  -4.840234e+05
   7.459615e+05   1.959766e+05
  -9.331894e+04   8.352039e+05
  -5.516564e+05   8.178323e+05
  -4.340346e+05   1.681559e+05
  -6.588940e+04  -4.452812e+05
   2.247115e+05  -4.280516e+05
   3.354980e+05   1.154007e+05
   2.439900e+05   5.476503e+05
  -4.716849e+04   4.289072e+05
  -3.734323e+05  -3.210008e+04
  -4.570147e+05  -2.857773e+05
  -2.279077e+05  -1.076728e+05
   4.235336e+04   1.639459e+05
   7.321568e+04   8.221564e+04
  -4.831372e+04  -3.238173e+05
   1.599366e+03  -5.565792e+05
   2.929511e+05  -2.558382e+05
   4.726718e+05   3.341123e+05
   1.946972e+05   6.166269e+05
  -3.759086e+05   3.129754e+05
  -6.500856e+05  -2.501153e+05
  -2.557528e+05  -5.353324e+05
   4.899153e+05  -3.496611e+05
   8.547318e+05   6.170568e+04
   4.626395e+05   3.586575e+05
  -2.812752e+05   3.998135e+05
  -6.167691e+05   2.401714e+05
  -2.591373e+05   1.901784e+04
   3.019504e+05  -9.053617e+04
   3.791967e+05   2.863787e+04
  -1.327972e+05   2.616796e+05
  -6.654919e+05   2.645473e+05
