
 $NMID
 id='ANONYMOUS ', fmtdat='(2E16.6)'
 volume=1.0
 tramp=1.0
 $END
  -1.782338e+07   4.130737e+06
  -1.447483e+07  -6.163072e+06
  -2.632866e+06  -1.199172e+07
   6.793498e+06  -9.340818e+06
   7.001360e+06  -1.710239e+06
   1.002886e+06   3.447999e+06
  -3.700775e+06   2.156117e+06
  -3.305541e+06  -2.713927e+06
   2.881259e+05  -5.241284e+06
   3.213331e+06  -2.790086e+06
   3.301691e+06   1.765034e+06
   9.929020e+05   3.600060e+06
  -1.459639e+06   1.077493e+06
  -1.687806e+06  -2.811973e+06
   6.276686e+05  -3.824666e+06
   3.099352e+06  -8.571420e+05
   2.940051e+06   3.209845e+06
   2.566289e+04   4.743912e+06
  -2.991648e+06   2.891169e+06
  -3.649895e+06  -1.915281e+05
  -2.097747e+06  -1.996411e+06
  -4.507682e+05  -1.971534e+06
  -3.422086e+05  -1.378908e+06
  -1.367969e+06  -1.522966e+06
  -1.639797e+06  -2.406819e+06
   1.897698e+05  -2.904890e+06
   3.191563e+06  -2.026563e+06
   4.653176e+06  -2.572513e+04
   2.888379e+06   1.698156e+06
  -5.599407e+05   1.860120e+06
  -2.320083e+06   4.980866e+05
  -9.309238e+05  -1.051620e+06
   1.644508e+06  -1.336242e+06
   2.574508e+06  -2.165361e+04
   1.339789e+06   1.798906e+06
  -3.218238e+05   2.467943e+06
  -8.988912e+05   1.283992e+06
  -4.773759e+05  -5.933589e+05
   7.029630e+04  -1.112267e+06
   1.625818e+05   3.621829e+05
  -3.434364e+05   2.021872e+06
  -1.169336e+06   1.593398e+06
  -1.469940e+06  -7.506618e+05
  -4.543344e+05  -2.343579e+06
   1.345406e+06  -1.212402e+06
   2.052857e+06   1.470036e+06
   4.358822e+05   2.782953e+06
  -2.321436e+06   1.417021e+06
  -3.544508e+06  -1.143776e+06
  -1.882627e+06  -2.567081e+06
   1.212594e+06  -1.971092e+06
   2.971935e+06  -2.415169e+05
   2.039742e+06   1.151532e+06
  -3.705534e+05   1.297523e+06
  -1.858789e+06   3.465805e+05
  -1.235891e+06  -6.594187e+05
   4.278883e+05  -6.888181e+05
   1.110113e+06   2.155851e+05
   1.117259e+05   9.279153e+05
  -1.201250e+06   5.172825e+05
  -1.059200e+06  -6.513446e+05
   5.793733e+05  -1.319080e+06
   1.947818e+06  -6.679392e+05
   1.475967e+06   9.377736e+05
  -5.387870e+05   2.322645e+06
  -2.399188e+06   2.375686e+06
  -2.795792e+06   8.345774e+05
  -1.849511e+06  -1.386151e+06
  -5.985626e+05  -2.772850e+06
   1.448136e+05  -2.549583e+06
   3.669154e+05  -1.437094e+06
   5.583789e+05  -7.333518e+05
   1.052032e+06  -7.139247e+05
   1.627503e+06  -4.646189e+05
   1.697068e+06   6.045166e+05
   8.978416e+05   1.696605e+06
  -4.441323e+05   1.539351e+06
  -1.433192e+06   3.732531e+04
  -1.274487e+06  -1.511318e+06
   2.134144e+04  -1.801344e+06
   1.522383e+06  -7.418278e+05
   2.080478e+06   7.073097e+05
   1.349168e+06   1.555481e+06
   1.109379e+05   1.522983e+06
  -5.747757e+05   1.041044e+06
  -5.599101e+05   7.249564e+05
  -6.910134e+05   7.646947e+05
  -1.570189e+06   7.315609e+05
  -2.529082e+06   5.097320e+04
  -2.250369e+06  -1.267274e+06
  -4.013721e+05  -2.435612e+06
   1.740649e+06  -2.518216e+06
   2.508434e+06  -1.301390e+06
   1.515250e+06   4.167388e+05
  -7.209030e+04   1.408944e+06
  -8.030328e+05   1.044884e+06
  -2.858711e+05  -1.061090e+05
   6.707096e+05  -7.786082e+05
   1.013432e+06  -3.153411e+05
   4.537075e+05   5.862286e+05
  -3.486114e+05   6.970009e+05
  -4.894835e+05  -1.764997e+05
   2.690086e+05  -8.351326e+05
   1.218350e+06  -1.298462e+05
   1.324075e+06   1.532665e+06
   1.907741e+05   2.525192e+06
  -1.507964e+06   1.778849e+06
  -2.534193e+06  -1.179475e+05
  -2.111408e+06  -1.638063e+06
  -6.057757e+05  -1.831421e+06
   7.636886e+05  -1.005837e+06
   1.012701e+06  -1.628830e+05
   3.042521e+05  -5.818812e+03
  -2.731299e+05  -4.242735e+05
   7.577401e+04  -7.491834e+05
   9.439674e+05  -4.693057e+05
   1.209619e+06   2.416067e+05
   4.095281e+05   7.055927e+05
  -6.283356e+05   4.666750e+05
  -6.917743e+05  -2.084964e+05
   4.057436e+05  -5.908224e+05
   1.549119e+06  -2.060147e+05
   1.487875e+06   7.205238e+05
   1.398210e+05   1.450831e+06
  -1.339565e+06   1.342249e+06
  -1.712138e+06   4.103761e+05
  -8.126621e+05  -6.043643e+05
   3.902971e+05  -8.473565e+05
   7.795127e+05  -1.961003e+05
   1.149783e+05   5.537577e+05
  -8.381528e+05   5.176817e+05
  -1.111797e+06  -2.863067e+05
  -4.536201e+05  -9.676152e+05
   4.871410e+05  -8.079661e+05
   8.291498e+05  -6.218209e+04
   3.241312e+05   4.029601e+05
  -4.024240e+05   1.080504e+05
  -4.793374e+05  -5.747032e+05
   2.991806e+05  -8.799753e+05
   1.203291e+06  -4.099488e+05
   1.283023e+06   5.313983e+05
   3.715968e+05   1.214910e+06
  -7.116120e+05   1.097995e+06
  -1.013815e+06   3.041690e+05
  -4.210079e+05  -4.608764e+05
   3.153401e+05  -5.670457e+05
   4.531807e+05  -7.650207e+04
   4.457647e+03   3.693936e+05
  -4.104874e+05   2.961484e+05
  -3.046234e+05  -8.625426e+04
   1.775968e+05  -1.888931e+05
   4.451425e+05   2.218664e+05
   7.137199e+04   7.240644e+05
  -7.475268e+05   6.799699e+05
  -1.306289e+06  -9.042111e+04
  -1.023212e+06  -1.083984e+06
  -2.815820e+04  -1.533337e+06
   9.186742e+05  -1.083511e+06
   1.158526e+06  -1.173452e+05
   7.484444e+05   5.947267e+05
   2.844608e+05   6.209078e+05
   1.802108e+05   2.467332e+05
   2.619754e+05   9.042045e+04
   9.348662e+04   3.692797e+05
  -4.314714e+05   6.515621e+05
  -9.114639e+05   3.841908e+05
  -8.159920e+05  -4.089873e+05
  -1.468288e+04  -1.054712e+06
   1.012582e+06  -8.749996e+05
   1.477856e+06   1.222641e+05
   9.180484e+05   1.198604e+06
  -3.473328e+05   1.523976e+06
  -1.413814e+06   8.962360e+05
  -1.558495e+06  -1.216142e+05
  -8.573410e+05  -7.608212e+05
  -2.679249e+04  -7.516314e+05
   3.175503e+05  -4.765508e+05
   1.905077e+05  -4.452723e+05
   6.579287e+04  -6.893855e+05
   2.894822e+05  -7.506913e+05
   7.139267e+05  -2.557719e+05
   8.676180e+05   5.895509e+05
   4.522811e+05   1.140097e+06
  -3.069584e+05   9.272960e+05
  -8.071920e+05   1.071390e+05
  -6.229481e+05  -6.833532e+05
   5.474471e+04  -8.822947e+05
   5.877782e+05  -4.424024e+05
   5.416413e+05   2.069751e+05
   1.166581e+05   5.828191e+05
  -1.327542e+05   5.449602e+05
   3.348990e+04   3.240714e+05
   2.634143e+05   2.103970e+05
   4.534144e+04   2.474810e+05
  -6.467463e+05   2.295369e+05
  -1.228987e+06  -3.432608e+04
  -1.069605e+06  -4.828848e+05
  -1.634266e+05  -8.238177e+05
   7.987688e+05  -7.831650e+05
   1.075954e+06  -3.612978e+05
   5.854874e+05   1.298258e+05
  -7.285281e+04   3.147961e+05
  -2.840790e+05   1.064158e+05
  -1.492108e+04  -1.854784e+05
   2.936512e+05  -1.680708e+05
   3.067820e+05   1.804151e+05
   1.155584e+05   4.527518e+05
   7.292471e+03   2.924922e+05
   9.210200e+04  -1.302585e+05
   2.280908e+05  -2.729182e+05
   2.062612e+05   1.195935e+05
  -6.857110e+04   6.528079e+05
  -4.856240e+05   7.035625e+05
  -7.285171e+05   1.412203e+05
  -4.835568e+05  -5.116815e+05
   1.806681e+05  -6.504916e+05
   6.945208e+05  -2.083364e+05
   4.774587e+05   3.352243e+05
  -3.703099e+05   4.679349e+05
  -1.034440e+06   9.419532e+04
  -8.020493e+05  -4.518481e+05
   1.515760e+05  -7.255536e+05
   9.308927e+05  -5.210263e+05
   8.637944e+05  -2.372842e+04
   1.620407e+05   3.345542e+05
  -3.781706e+05   2.520343e+05
  -2.302379e+05  -1.298464e+05
   3.705149e+05  -3.175853e+05
   7.299757e+05   4.067531e+04
   4.118635e+05   7.229121e+05
  -3.511830e+05   1.060220e+06
  -9.112750e+05   5.847607e+05
  -8.263781e+05  -4.275118e+05
  -2.256830e+05  -1.129567e+06
   3.881904e+05  -9.045728e+05
   6.118928e+05   6.274380e+02
   4.021195e+05   7.188807e+05
  -1.000193e+04   6.680885e+05
  -3.297918e+05   1.188969e+05
  -3.677362e+05  -2.245171e+05
  -1.668434e+05  -9.863008e+04
  -3.304993e+03   8.185524e+04
  -1.145042e+05  -1.242663e+05
  -3.505577e+05  -5.570566e+05
  -2.552875e+05  -6.832409e+05
   3.467377e+05  -3.103885e+05
   9.685996e+05   2.035167e+05
   9.231529e+05   4.509848e+05
   1.691289e+05   4.154482e+05
  -5.668464e+05   3.070072e+05
  -6.309326e+05   1.957977e+05
  -1.854845e+05   2.557592e+04
   9.867779e+04  -1.430360e+05
  -5.447159e+04  -1.685113e+05
  -2.398171e+05  -8.688797e+04
  -1.152838e+04  -8.412710e+04
   4.751245e+05  -1.551036e+05
   6.469378e+05  -3.182325e+04
   2.098498e+05   3.909897e+05
  -5.231530e+05   7.396317e+05
  -9.719007e+05   5.226153e+05
  -8.210467e+05  -2.235894e+05
  -2.238593e+05  -8.757120e+05
   3.838924e+05  -8.838006e+05
   6.235715e+05  -3.496440e+05
   4.309551e+05   1.482717e+05
   7.410091e+04   2.144892e+05
  -9.629865e+04   1.659300e+03
   3.151571e+04  -6.215949e+04
   2.413462e+05   1.958210e+05
   2.260177e+05   4.940088e+05
  -8.772547e+04   4.191994e+05
  -4.424487e+05  -8.427234e+04
  -4.719993e+05  -5.952826e+05
  -5.804802e+04  -6.261914e+05
   4.912006e+05  -1.319992e+05
   6.618406e+05   4.494472e+05
   2.365045e+05   6.560270e+05
  -4.159942e+05   4.157328e+05
  -6.717220e+05  -1.848482e+03
  -3.331304e+05  -3.095784e+05
   1.349438e+05  -3.836103e+05
   1.658583e+05  -2.403967e+05
  -2.096345e+05  -1.725893e+04
  -4.186549e+05   4.988839e+04
  -9.010061e+04  -1.724984e+05
   4.797329e+05  -4.773115e+05
   7.131424e+05  -4.521058e+05
   4.336923e+05   2.112340e+04
  -1.622571e+04   5.259042e+05
  -2.480941e+05   5.460797e+05
  -1.989534e+05   8.824478e+04
  -2.853084e+04  -3.175176e+05
   1.343737e+05  -2.544327e+05
   2.277369e+05   1.225488e+05
   1.819646e+05   3.486441e+05
  -2.002811e+04   2.235511e+05
  -2.428472e+05  -2.860467e+04
  -2.973350e+05  -1.138037e+05
  -1.585908e+05  -1.596674e+04
   7.128299e+03   5.119670e+04
   5.919060e+04  -5.811947e+04
   4.509351e+04  -2.470443e+05
   9.556630e+04  -2.844511e+05
   2.120866e+05  -6.061853e+04
   2.360893e+05   2.666598e+05
   4.375678e+04   3.976898e+05
  -2.619158e+05   1.918053e+05
  -3.944600e+05  -1.700811e+05
  -1.619304e+05  -3.632972e+05
   2.825223e+05  -2.490712e+05
   5.243691e+05   2.087582e+04
   3.042316e+05   2.108531e+05
  -1.595823e+05   2.281193e+05
  -3.700671e+05   1.314522e+05
  -1.158851e+05   2.001526e+04
   2.636611e+05  -1.645654e+04
   2.746646e+05   7.529509e+04
  -1.367493e+05   2.200301e+05
  -5.226619e+05   2.007795e+05
