
 $NMID
 id='ANONYMOUS ', fmtdat='(2E16.6)'
 volume=1.0
 tramp=1.0
 $END
  -4.539736e+07   1.278848e+06
  -2.903392e+07  -2.538004e+07
   3.372790e+06  -3.036014e+07
   2.118376e+07  -1.460114e+07
   1.444348e+07   3.065976e+06
  -1.363270e+06   7.819238e+06
  -8.371037e+06   7.471374e+05
  -3.875098e+06  -7.668928e+06
   3.961142e+06  -9.184292e+06
   7.984072e+06  -3.022070e+06
   6.305403e+06   5.118710e+06
   9.288620e+05   7.708193e+06
  -3.515603e+06   2.236404e+06
  -2.657246e+06  -5.393664e+06
   2.794627e+06  -6.585648e+06
   6.782416e+06   3.175858e+05
   4.448638e+06   8.360222e+06
  -2.488944e+06   1.016516e+07
  -8.187538e+06   5.191195e+06
  -8.809315e+06  -1.700259e+06
  -5.043488e+06  -5.988071e+06
  -4.020983e+05  -6.374178e+06
   1.563574e+06  -4.313092e+06
   5.111783e+02  -2.610339e+06
  -1.893327e+06  -3.157529e+06
   1.365327e+05  -4.677749e+06
   5.724752e+06  -3.903062e+06
   9.141152e+06   3.469551e+04
   6.096343e+06   3.922610e+06
  -5.087461e+05   4.349076e+06
  -4.062774e+06   1.717900e+06
  -2.155008e+06  -9.445198e+05
   1.696350e+06  -1.619464e+06
   3.379657e+06  -2.316205e+05
   2.254874e+06   2.337962e+06
  -3.320077e+04   4.211724e+06
  -1.880417e+06   3.088573e+06
  -2.167962e+06  -6.911636e+05
  -7.406025e+05  -2.988726e+06
   6.466869e+05  -7.288675e+05
  -1.632554e+05   3.025181e+06
  -2.375733e+06   2.479191e+06
  -2.423513e+06  -2.455039e+06
   1.174887e+06  -5.180471e+06
   4.932730e+06  -1.283949e+06
   4.227937e+06   5.178701e+06
  -9.916724e+05   6.864777e+06
  -6.045217e+06   2.215527e+06
  -6.548115e+06  -3.605607e+06
  -2.342048e+06  -5.457893e+06
   2.990999e+06  -2.979417e+06
   5.259680e+06   8.176019e+05
   2.867222e+06   2.943809e+06
  -1.719126e+06   2.187930e+06
  -3.977132e+06  -3.879838e+05
  -1.978947e+06  -2.115017e+06
   1.349037e+06  -1.262161e+06
   1.830756e+06   8.048003e+05
  -6.622247e+05   1.222129e+06
  -2.273379e+06  -6.215717e+05
  -4.073589e+05  -2.389353e+06
   3.065230e+06  -1.946827e+06
   4.432646e+06   3.890780e+05
   2.324200e+06   3.020924e+06
  -1.618230e+06   4.708872e+06
  -4.877662e+06   4.411748e+06
  -5.741708e+06   1.415081e+06
  -3.908149e+06  -3.033874e+06
  -7.809976e+05  -5.689445e+06
   1.313311e+06  -4.629041e+06
   1.306668e+06  -1.770259e+06
   5.267985e+05  -4.509453e+05
   8.699877e+05  -1.134754e+06
   2.277785e+06  -1.326933e+06
   2.959864e+06   4.509073e+05
   1.801925e+06   2.530245e+06
  -4.192727e+05   2.462180e+06
  -2.049996e+06   1.041191e+05
  -1.913272e+06  -2.440812e+06
   1.137555e+05  -3.101371e+06
   2.834419e+06  -1.425999e+06
   4.124216e+06   1.395647e+06
   2.734533e+06   3.458452e+06
  -9.019668e+04   3.563845e+06
  -1.820108e+06   2.251173e+06
  -1.718850e+06   1.127061e+06
  -1.588543e+06   9.336956e+05
  -2.913111e+06   7.648525e+05
  -4.431295e+06  -5.215048e+05
  -3.664215e+06  -2.677072e+06
  -2.626963e+05  -4.272298e+06
   3.321374e+06  -4.104948e+06
   4.431455e+06  -2.095660e+06
   2.702125e+06   6.669051e+05
   2.056497e+04   2.406096e+06
  -1.339998e+06   1.892966e+06
  -5.543952e+05  -1.290301e+05
   1.196497e+06  -1.332564e+06
   1.906565e+06  -4.155377e+05
   8.435849e+05   1.185755e+06
  -6.157762e+05   1.179867e+06
  -6.337260e+05  -3.700198e+05
   8.253988e+05  -1.035647e+06
   1.971045e+06   6.603192e+05
   1.314877e+06   3.190928e+06
  -8.371291e+05   3.884693e+06
  -2.994206e+06   1.956202e+06
  -3.838975e+06  -1.006747e+06
  -2.885669e+06  -2.938140e+06
  -6.589611e+05  -2.952579e+06
   1.360487e+06  -1.588558e+06
   1.711651e+06  -2.035542e+05
   5.202291e+05   3.994654e+04
  -3.992078e+05  -7.766793e+05
   3.366546e+05  -1.345859e+06
   1.854340e+06  -6.413888e+05
   2.092949e+06   7.634220e+05
   5.026060e+05   1.384253e+06
  -1.185735e+06   6.666955e+05
  -1.049575e+06  -4.476951e+05
   8.102007e+05  -7.405740e+05
   2.454106e+06   7.966685e+04
   2.132581e+06   1.392883e+06
  -8.849453e+04   2.264206e+06
  -2.428793e+06   1.933486e+06
  -2.948329e+06   3.894783e+05
  -1.296359e+06  -1.244312e+06
   8.864878e+05  -1.499739e+06
   1.517796e+06  -2.097461e+05
   1.715136e+05   1.066550e+06
  -1.555577e+06   7.841270e+05
  -1.838507e+06  -7.294122e+05
  -4.990154e+05  -1.723358e+06
   1.042404e+06  -1.165136e+06
   1.368418e+06   1.686857e+05
   3.765411e+05   7.766979e+05
  -7.734526e+05   9.802281e+04
  -7.698655e+05  -1.074561e+06
   6.056669e+05  -1.490649e+06
   2.113336e+06  -5.721650e+05
   2.144175e+06   1.084909e+06
   4.457128e+05   2.160044e+06
  -1.442033e+06   1.760539e+06
  -1.799136e+06   3.010727e+05
  -5.936849e+05  -8.830185e+05
   6.537360e+05  -8.914611e+05
   7.290698e+05  -8.663097e+04
  -6.736183e+04   4.958717e+05
  -6.068428e+05   3.440644e+05
  -3.116043e+05  -1.017515e+05
   3.852392e+05  -8.815125e+04
   6.189766e+05   5.719054e+05
  -1.006502e+05   1.237317e+06
  -1.406269e+06   1.000910e+06
  -2.205542e+06  -3.750916e+05
  -1.581165e+06  -2.013758e+06
   1.818928e+05  -2.588198e+06
   1.696331e+06  -1.610730e+06
   1.876809e+06   3.567178e+04
   1.051480e+06   1.012454e+06
   3.843113e+05   8.765373e+05
   4.058397e+05   3.384031e+05
   5.503037e+05   2.703493e+05
   9.696664e+04   7.266179e+05
  -8.691839e+05   9.947139e+05
  -1.551140e+06   4.393005e+05
  -1.215275e+06  -7.666508e+05
   1.778561e+05  -1.653498e+06
   1.813580e+06  -1.245233e+06
   2.432842e+06   4.448042e+05
   1.305161e+06   2.181395e+06
  -9.262489e+05   2.521521e+06
  -2.601934e+06   1.214409e+06
  -2.553145e+06  -5.490535e+05
  -1.181385e+06  -1.396900e+06
   1.254212e+05  -1.128053e+06
   4.894889e+05  -6.570184e+05
   2.219548e+05  -7.811951e+05
   1.566582e+05  -1.288257e+06
   6.553551e+05  -1.306565e+06
   1.313737e+06  -3.411436e+05
   1.414882e+06   1.127039e+06
   6.143863e+05   2.002060e+06
  -6.446923e+05   1.534869e+06
  -1.372995e+06   4.288567e+04
  -9.149936e+05  -1.298461e+06
   3.110267e+05  -1.481277e+06
   1.139771e+06  -5.438738e+05
   8.665990e+05   5.861621e+05
  -1.267382e+04   1.068459e+06
  -4.343801e+05   8.591269e+05
  -3.492316e+04   4.919043e+05
   4.427960e+05   3.726505e+05
   5.625115e+04   4.153172e+05
  -1.171772e+06   2.622415e+05
  -2.135048e+06  -2.843343e+05
  -1.734243e+06  -1.024996e+06
  -6.278776e+04  -1.467776e+06
   1.574421e+06  -1.218093e+06
   1.905619e+06  -3.849361e+05
   9.230971e+05   4.107261e+05
  -2.252257e+05   5.638792e+05
  -5.166184e+05   8.637733e+04
  -1.297541e+04  -3.867692e+05
   4.949258e+05  -2.641208e+05
   5.053717e+05   3.548608e+05
   2.110288e+05   7.795151e+05
   4.449918e+04   5.087743e+05
   1.534208e+05  -1.515167e+05
   3.467551e+05  -3.740288e+05
   3.103417e+05   2.334366e+05
  -1.662542e+05   1.071578e+06
  -9.288885e+05   1.134709e+06
  -1.357243e+06   1.686080e+05
  -8.394235e+05  -9.532455e+05
   4.162354e+05  -1.151225e+06
   1.278302e+06  -3.167289e+05
   7.777636e+05   6.159150e+05
  -7.153966e+05   7.163448e+05
  -1.720387e+06  -3.370522e+04
  -1.177235e+06  -8.826655e+05
   4.300458e+05  -1.119713e+06
   1.605739e+06  -6.335244e+05
   1.378370e+06   1.310303e+05
   1.872812e+05   5.617390e+05
  -6.787888e+05   3.316705e+05
  -3.935176e+05  -2.833556e+05
   6.420643e+05  -5.332314e+05
   1.251752e+06   1.124940e+05
   6.760872e+05   1.266997e+06
  -6.646428e+05   1.795817e+06
  -1.595672e+06   9.252964e+05
  -1.348461e+06  -8.094592e+05
  -2.385389e+05  -1.923290e+06
   7.705813e+05  -1.429598e+06
   1.005630e+06   1.330159e+05
   5.240723e+05   1.262739e+06
  -1.666090e+05   1.072269e+06
  -5.849099e+05   1.230680e+05
  -5.425840e+05  -4.060056e+05
  -2.183606e+05  -1.595883e+05
  -3.497353e+04   1.166082e+05
  -2.464349e+05  -2.790583e+05
  -5.407678e+05  -1.010608e+06
  -2.730255e+05  -1.161895e+06
   7.006011e+05  -4.474275e+05
   1.594259e+06   4.726820e+05
   1.430960e+06   8.743018e+05
   2.167207e+05   7.342488e+05
  -9.446880e+05   4.571241e+05
  -1.065147e+06   2.270961e+05
  -3.547188e+05  -2.481141e+04
   1.667765e+05  -2.388878e+05
  -1.018768e+04  -2.454951e+05
  -3.320316e+05  -1.252914e+05
  -3.739113e+04  -1.434174e+05
   7.536541e+05  -2.421473e+05
   1.111603e+06   9.281043e+03
   4.043555e+05   7.207259e+05
  -9.232378e+05   1.240722e+06
  -1.769679e+06   8.023425e+05
  -1.455030e+06  -4.613360e+05
  -2.975224e+05  -1.504424e+06
   7.842068e+05  -1.466668e+06
   1.109616e+06  -5.606093e+05
   7.088207e+05   2.632315e+05
   1.292333e+05   3.787514e+05
  -1.113572e+05   4.348234e+04
   7.370787e+04  -5.023819e+04
   3.482165e+05   3.757078e+05
   2.946179e+05   8.600306e+05
  -1.888885e+05   7.183479e+05
  -7.361450e+05  -1.475184e+05
  -7.776522e+05  -1.030541e+06
  -9.464059e+04  -1.092115e+06
   8.222791e+05  -2.361485e+05
   1.101301e+06   7.879756e+05
   3.635618e+05   1.153693e+06
  -7.549213e+05   7.050307e+05
  -1.174907e+06  -7.179472e+04
  -5.563574e+05  -6.166808e+05
   2.904454e+05  -6.927665e+05
   3.660933e+05  -3.923321e+05
  -2.987522e+05  -2.156131e+04
  -7.017246e+05   4.622307e+04
  -1.497103e+05  -3.188339e+05
   8.705815e+05  -7.429633e+05
   1.307145e+06  -6.253682e+05
   7.832751e+05   1.472711e+05
  -9.100233e+04   9.153992e+05
  -5.440944e+05   9.104426e+05
  -4.154786e+05   1.567420e+05
  -4.597922e+04  -5.237247e+05
   2.535445e+05  -4.495580e+05
   3.782965e+05   1.819581e+05
   2.757911e+05   6.129648e+05
  -5.573835e+04   4.284303e+05
  -4.159032e+05  -5.453943e+04
  -5.029062e+05  -2.697382e+05
  -2.612978e+05  -7.983687e+04
   2.523043e+04   1.347603e+05
   9.167505e+04  -4.652955e+03
   2.491033e+04  -3.939836e+05
   1.018609e+05  -5.508202e+05
   3.523943e+05  -1.820116e+05
   4.528936e+05   4.305886e+05
   1.242466e+05   6.900532e+05
  -4.448528e+05   3.266340e+05
  -6.924476e+05  -3.058746e+05
  -2.643306e+05  -6.189765e+05
   5.263560e+05  -3.947254e+05
   9.247504e+05   7.819988e+04
   5.086903e+05   3.953186e+05
  -3.054517e+05   4.098308e+05
  -6.685315e+05   2.273001e+05
  -2.435348e+05   2.054224e+04
   3.991483e+05  -5.283767e+04
   4.466165e+05   9.492069e+04
  -2.022575e+05   3.315032e+05
  -8.319939e+05   2.981168e+05
