
 $NMID
 id='ANONYMOUS ', fmtdat='(2E16.6)'
 volume=1.0
 tramp=1.0
 $END
  -5.635047e+07   5.084992e+05
  -3.400193e+07  -3.492879e+07
   7.429886e+06  -3.826648e+07
   2.755835e+07  -1.450150e+07
   1.632994e+07   7.240819e+06
  -3.417054e+06   9.303235e+06
  -9.742146e+06  -1.395477e+06
  -2.613528e+06  -9.748051e+06
   6.236796e+06  -9.113212e+06
   9.568505e+06  -1.877495e+06
   6.963621e+06   6.078595e+06
   8.976610e+05   8.452776e+06
  -3.903225e+06   2.800861e+06
  -2.628396e+06  -5.219033e+06
   3.701457e+06  -6.364095e+06
   7.804915e+06   1.361860e+06
   4.429626e+06   1.011415e+07
  -3.714016e+06   1.172919e+07
  -1.001597e+07   5.972391e+06
  -1.082932e+07  -1.893222e+06
  -6.785583e+06  -7.414764e+06
  -8.332532e+05  -8.758594e+06
   2.982074e+06  -6.190447e+06
   2.081630e+06  -2.618881e+06
  -9.827512e+05  -1.870088e+06
  -3.997835e+05  -3.945874e+06
   5.092884e+06  -4.437070e+06
   9.429334e+06  -7.369774e+05
   7.046651e+06   3.918913e+06
   4.565942e+05   5.029139e+06
  -3.502658e+06   2.711251e+06
  -2.466977e+06   2.234417e+05
   3.629145e+05  -8.190286e+05
   2.005837e+06  -5.830262e+05
   2.156218e+06   1.182924e+06
   8.767635e+05   3.751949e+06
  -1.672567e+06   3.895232e+06
  -3.325565e+06   4.228571e+04
  -1.878508e+06  -3.616036e+06
   7.605140e+05  -2.082809e+06
   4.751430e+05   2.280652e+06
  -2.350348e+06   2.240260e+06
  -2.413410e+06  -3.176338e+06
   2.477505e+06  -6.117369e+06
   7.048556e+06  -1.018369e+06
   5.192629e+06   6.930579e+06
  -1.892649e+06   8.552607e+06
  -7.385253e+06   2.475701e+06
  -6.855487e+06  -4.341591e+06
  -1.791644e+06  -5.898185e+06
   3.399839e+06  -2.628518e+06
   5.106092e+06   1.513931e+06
   2.320369e+06   3.423983e+06
  -2.423299e+06   2.156727e+06
  -4.483224e+06  -9.204014e+05
  -1.917311e+06  -2.704886e+06
   1.705409e+06  -1.367078e+06
   1.683057e+06   1.003208e+06
  -1.372521e+06   8.507449e+05
  -2.445734e+06  -1.850661e+06
   7.262659e+05  -3.503112e+06
   4.709779e+06  -1.888251e+06
   5.286873e+06   1.399552e+06
   2.294415e+06   3.972081e+06
  -1.698306e+06   5.219579e+06
  -4.799087e+06   4.845688e+06
  -6.052189e+06   1.844757e+06
  -4.603743e+06  -3.013594e+06
  -1.038118e+06  -6.048742e+06
   1.819708e+06  -4.669788e+06
   1.758064e+06  -1.114895e+06
   9.283158e+04   3.533710e+05
  -1.965700e+05  -9.387376e+05
   1.421714e+06  -1.853455e+06
   2.716685e+06  -3.993542e+05
   2.053097e+06   1.746332e+06
   1.413826e+05   2.042030e+06
  -1.428172e+06   2.520485e+05
  -1.636134e+06  -1.928215e+06
  -7.536512e+04  -2.830490e+06
   2.654426e+06  -1.695858e+06
   4.427512e+06   1.051582e+06
   3.271418e+06   3.655181e+06
   3.551224e+04   4.220206e+06
  -2.248990e+06   2.751363e+06
  -2.237828e+06   1.138205e+06
  -1.810878e+06   6.492407e+05
  -2.860046e+06   4.656091e+05
  -4.233711e+06  -7.125857e+05
  -3.411139e+06  -2.655771e+06
  -1.704538e+05  -3.999028e+06
   3.046367e+06  -3.824219e+06
   3.997051e+06  -2.145412e+06
   2.596949e+06   3.244609e+05
   3.531350e+05   2.152647e+06
  -1.002189e+06   1.918619e+06
  -5.545716e+05  -9.603893e+03
   1.024125e+06  -1.295634e+06
   1.859780e+06  -4.167815e+05
   9.349229e+05   1.169507e+06
  -4.706765e+05   1.087709e+06
  -3.871156e+05  -3.767737e+05
   1.074555e+06  -6.332492e+05
   1.808322e+06   1.347124e+06
   5.558917e+05   3.447866e+06
  -1.641974e+06   3.262108e+06
  -3.072914e+06   9.736432e+05
  -3.151268e+06  -1.441428e+06
  -2.150638e+06  -2.626186e+06
  -4.463608e+05  -2.479664e+06
   1.168526e+06  -1.430300e+06
   1.517107e+06  -2.540458e+05
   4.786829e+05   3.850560e+04
  -3.547825e+05  -7.282741e+05
   4.029267e+05  -1.322548e+06
   1.877255e+06  -5.831757e+05
   1.998660e+06   8.693624e+05
   3.732035e+05   1.394068e+06
  -1.141548e+06   5.579090e+05
  -8.455376e+05  -4.364541e+05
   8.354446e+05  -4.743551e+05
   2.086370e+06   3.360546e+05
   1.647280e+06   1.298354e+06
  -2.507668e+05   1.874239e+06
  -2.217529e+06   1.598063e+06
  -2.684808e+06   2.845339e+05
  -1.198553e+06  -1.232454e+06
   8.905116e+05  -1.493372e+06
   1.543592e+06  -2.051710e+05
   2.211819e+05   1.065450e+06
  -1.474526e+06   7.381305e+05
  -1.676279e+06  -7.575931e+05
  -3.171743e+05  -1.606252e+06
   1.074347e+06  -9.317355e+05
   1.216090e+06   3.255363e+05
   2.200880e+05   7.685913e+05
  -7.918195e+05   5.479995e+04
  -7.357349e+05  -1.023640e+06
   5.382368e+05  -1.399247e+06
   1.947132e+06  -5.611915e+05
   1.999486e+06   9.952872e+05
   3.958648e+05   2.020898e+06
  -1.396148e+06   1.614094e+06
  -1.682393e+06   2.099608e+05
  -4.846184e+05  -8.466936e+05
   6.399720e+05  -7.801135e+05
   5.994178e+05  -8.282691e+04
  -1.245742e+05   3.221487e+05
  -4.510324e+05   1.785230e+05
  -7.247507e+04  -5.191741e+04
   4.591144e+05   1.131604e+05
   4.937183e+05   6.816310e+05
  -2.141038e+05   1.161357e+06
  -1.344800e+06   8.775193e+05
  -2.029724e+06  -3.865015e+05
  -1.447457e+06  -1.877728e+06
   1.840110e+05  -2.349931e+06
   1.549983e+06  -1.367325e+06
   1.619311e+06   1.216134e+05
   8.090337e+05   8.390493e+05
   3.070740e+05   5.774537e+05
   4.949593e+05   1.774931e+05
   6.446820e+05   3.117784e+05
   9.995963e+04   7.635860e+05
  -8.527514e+05   8.778168e+05
  -1.396408e+06   3.125712e+05
  -1.002738e+06  -6.835580e+05
   2.428788e+05  -1.391736e+06
   1.657864e+06  -1.039452e+06
   2.177362e+06   4.517406e+05
   1.106125e+06   2.033889e+06
  -9.831989e+05   2.310008e+06
  -2.478916e+06   1.008366e+06
  -2.276262e+06  -6.444570e+05
  -9.026921e+05  -1.290178e+06
   2.101574e+05  -8.859708e+05
   3.472298e+05  -4.699965e+05
   2.454348e+04  -7.391400e+05
   6.607991e+04  -1.299284e+06
   6.458641e+05  -1.279436e+06
   1.267887e+06  -3.301212e+05
   1.319093e+06   1.031922e+06
   5.667028e+05   1.832897e+06
  -5.835451e+05   1.403862e+06
  -1.245906e+06   6.594089e+03
  -7.947124e+05  -1.250898e+06
   3.858172e+05  -1.361732e+06
   1.148779e+06  -3.795813e+05
   7.964991e+05   7.083378e+05
  -1.365092e+05   1.066971e+06
  -5.471384e+05   7.590262e+05
  -9.147089e+04   3.901115e+05
   4.322000e+05   3.135171e+05
   6.746478e+04   3.686793e+05
  -1.125782e+06   2.119763e+05
  -2.025562e+06  -3.073759e+05
  -1.583045e+06  -1.001113e+06
   4.330709e+04  -1.410434e+06
   1.557727e+06  -1.132957e+06
   1.785163e+06  -2.739334e+05
   8.057398e+05   5.001637e+05
  -2.597142e+05   5.693954e+05
  -5.042025e+05   2.594213e+04
  -4.351588e+04  -4.276134e+05
   4.171610e+05  -2.631174e+05
   4.763794e+05   3.253667e+05
   2.801837e+05   6.935459e+05
   1.222801e+05   4.639047e+05
   1.285946e+05  -7.747860e+04
   2.480930e+05  -2.681230e+05
   2.658636e+05   2.247218e+05
  -1.117517e+05   9.526748e+05
  -8.610344e+05   1.052661e+06
  -1.351113e+06   2.039956e+05
  -8.702429e+05  -8.773745e+05
   3.886029e+05  -1.136722e+06
   1.235955e+06  -3.696402e+05
   7.257612e+05   5.381211e+05
  -6.801190e+05   6.335921e+05
  -1.531654e+06  -8.717709e+04
  -9.520084e+05  -8.311797e+05
   4.830226e+05  -9.430801e+05
   1.440351e+06  -4.456628e+05
   1.173992e+06   1.891342e+05
   1.227317e+05   4.903590e+05
  -6.302252e+05   2.561013e+05
  -3.862046e+05  -2.899874e+05
   5.476859e+05  -5.315080e+05
   1.155326e+06   3.753645e+04
   7.002500e+05   1.126641e+06
  -5.117207e+05   1.678780e+06
  -1.411818e+06   9.089183e+05
  -1.235955e+06  -7.019768e+05
  -2.325809e+05  -1.729520e+06
   6.959456e+05  -1.251989e+06
   8.940655e+05   1.765994e+05
   4.157355e+05   1.151940e+06
  -2.251922e+05   9.266623e+05
  -5.522331e+05   7.796004e+04
  -4.376764e+05  -3.529760e+05
  -1.377830e+05  -1.220414e+05
  -5.437894e+04   8.546995e+04
  -3.098637e+05  -3.000988e+05
  -5.234801e+05  -9.371527e+05
  -1.742212e+05  -1.036642e+06
   7.203482e+05  -3.881042e+05
   1.434497e+06   4.248948e+05
   1.228404e+06   7.888632e+05
   1.878152e+05   6.807776e+05
  -7.955181e+05   4.267200e+05
  -9.420369e+05   1.851579e+05
  -3.722813e+05  -6.158442e+04
   1.269694e+05  -2.251615e+05
   6.114716e+04  -1.826966e+05
  -2.265555e+05  -6.662572e+04
  -6.538144e+04  -1.269355e+05
   6.020146e+05  -2.586898e+05
   1.022916e+06  -2.269034e+04
   4.873908e+05   6.716265e+05
  -7.589242e+05   1.187768e+06
  -1.660577e+06   8.005554e+05
  -1.428010e+06  -3.676915e+05
  -3.160593e+05  -1.355676e+06
   7.231938e+05  -1.368378e+06
   1.009949e+06  -5.740125e+05
   6.391895e+05   1.892668e+05
   1.548251e+05   3.468062e+05
  -3.627073e+04   8.948172e+04
   8.925464e+04   7.053727e+03
   2.837180e+05   3.608747e+05
   2.455503e+05   7.800180e+05
  -1.498989e+05   6.739607e+05
  -6.599393e+05  -7.403123e+04
  -7.683417e+05  -8.820274e+05
  -1.823583e+05  -1.006673e+06
   7.047212e+05  -2.995200e+05
   1.041213e+06   6.386363e+05
   3.945963e+05   1.053732e+06
  -6.699470e+05   7.079207e+05
  -1.110052e+06  -3.082740e+04
  -5.551657e+05  -6.077740e+05
   2.642452e+05  -7.024827e+05
   3.902704e+05  -3.756764e+05
  -2.073587e+05   1.284366e+04
  -6.223091e+05   6.270402e+04
  -1.631824e+05  -3.028622e+05
   7.843893e+05  -6.790829e+05
   1.239419e+06  -5.336371e+05
   7.806286e+05   1.800154e+05
  -6.645503e+04   8.630494e+05
  -5.443016e+05   8.623443e+05
  -4.457069e+05   1.939939e+05
  -8.565613e+04  -4.510330e+05
   2.140139e+05  -4.504636e+05
   3.463532e+05   1.009557e+05
   2.698207e+05   5.534297e+05
  -3.085822e+04   4.472128e+05
  -3.839609e+05  -1.750076e+04
  -4.819940e+05  -2.818062e+05
  -2.385975e+05  -1.067812e+05
   5.338598e+04   1.710543e+05
   8.051533e+04   9.221191e+04
  -6.836381e+04  -3.244901e+05
  -3.141430e+04  -5.752885e+05
   2.851854e+05  -2.831773e+05
   5.031013e+05   3.172781e+05
   2.318071e+05   6.225756e+05
  -3.712245e+05   3.363660e+05
  -6.789927e+05  -2.294089e+05
  -2.833064e+05  -5.374406e+05
   4.927209e+05  -3.769111e+05
   8.824978e+05   3.055652e+04
   4.888766e+05   3.518015e+05
  -2.739434e+05   4.247074e+05
  -6.251509e+05   2.737956e+05
  -2.701243e+05   3.062167e+04
   2.984603e+05  -1.066384e+05
   3.856066e+05   9.941407e+03
  -1.226386e+05   2.673467e+05
  -6.644329e+05   2.921103e+05
