
 $NMID
 id='ANONYMOUS ', fmtdat='(2E16.6)'
 volume=1.0
 tramp=1.0
 $END
   5.922467e+07  -8.809982e+04
   3.566884e+07   3.705126e+07
  -8.036794e+06   4.033104e+07
  -2.929001e+07   1.511988e+07
  -1.734140e+07  -7.816019e+06
   3.674666e+06  -9.863020e+06
   1.038494e+07   1.570330e+06
   2.699057e+06   1.040732e+07
  -6.772087e+06   9.627855e+06
  -1.019472e+07   1.884706e+06
  -7.247191e+06  -6.499389e+06
  -7.968044e+05  -8.905916e+06
   4.120284e+06  -2.875088e+06
   2.615561e+06   5.558706e+06
  -4.064413e+06   6.681211e+06
  -8.255513e+06  -1.528184e+06
  -4.558278e+06  -1.073202e+07
   4.050934e+06  -1.233376e+07
   1.059586e+07  -6.182068e+06
   1.133669e+07   2.083195e+06
   7.056977e+06   7.799255e+06
   8.624124e+05   9.168314e+06
  -3.110352e+06   6.541257e+06
  -2.232570e+06   2.887325e+06
   8.806103e+05   2.086921e+06
   2.488595e+05   4.119540e+06
  -5.427484e+06   4.474212e+06
  -9.862242e+06   5.528653e+05
  -7.299890e+06  -4.214794e+06
  -4.031561e+05  -5.205941e+06
   3.668703e+06  -2.701139e+06
   2.491828e+06  -1.879491e+05
  -4.879770e+05   7.411740e+05
  -2.107270e+06   4.358123e+05
  -2.135872e+06  -1.319535e+06
  -7.768018e+05  -3.891525e+06
   1.787625e+06  -4.027189e+06
   3.420633e+06  -5.620321e+04
   1.927730e+06   3.741815e+06
  -7.305663e+05   2.166819e+06
  -3.684523e+05  -2.361242e+06
   2.550285e+06  -2.296529e+06
   2.521747e+06   3.394587e+06
  -2.663572e+06   6.476211e+06
  -7.439561e+06   1.083273e+06
  -5.430314e+06  -7.315717e+06
   2.047985e+06  -9.008458e+06
   7.792113e+06  -2.532397e+06
   7.161240e+06   4.704974e+06
   1.779229e+06   6.292662e+06
  -3.668890e+06   2.717818e+06
  -5.394681e+06  -1.728133e+06
  -2.401948e+06  -3.702929e+06
   2.597899e+06  -2.269176e+06
   4.732878e+06   1.030890e+06
   2.000832e+06   2.891844e+06
  -1.814693e+06   1.424621e+06
  -1.763514e+06  -1.108576e+06
   1.490423e+06  -9.266809e+05
   2.632466e+06   1.979903e+06
  -7.415904e+05   3.754451e+06
  -4.988756e+06   2.013191e+06
  -5.605413e+06  -1.519146e+06
  -2.397210e+06  -4.228051e+06
   1.872184e+06  -5.447967e+06
   5.132204e+06  -4.962688e+06
   6.370049e+06  -1.809529e+06
   4.755831e+06   3.224252e+06
   9.676007e+05   6.360562e+06
  -2.022974e+06   4.909435e+06
  -1.930640e+06   1.175368e+06
  -1.651363e+05  -4.037279e+05
   1.537319e+05   8.991807e+05
  -1.504475e+06   1.830726e+06
  -2.793616e+06   3.199771e+05
  -2.041835e+06  -1.874381e+06
  -5.339616e+04  -2.105077e+06
   1.501333e+06  -1.715639e+05
   1.628485e+06   2.099281e+06
  -1.881743e+04   2.964228e+06
  -2.812161e+06   1.696957e+06
  -4.595382e+06  -1.194832e+06
  -3.359471e+06  -3.876923e+06
   1.246517e+04  -4.420911e+06
   2.385836e+06  -2.869484e+06
   2.375937e+06  -1.186523e+06
   1.944048e+06  -6.596471e+05
   3.046934e+06  -4.152753e+05
   4.453452e+06   8.727525e+05
   3.520574e+06   2.902482e+06
   5.408847e+04   4.220929e+06
  -3.328946e+06   3.922585e+06
  -4.258043e+06   2.115261e+06
  -2.693125e+06  -4.201361e+05
  -2.904722e+05  -2.245578e+06
   1.103720e+06  -1.961672e+06
   5.720223e+05   2.532945e+04
  -1.114988e+06   1.321253e+06
  -1.966459e+06   3.867494e+05
  -9.509111e+05  -1.245450e+06
   5.321396e+05  -1.119618e+06
   4.003760e+05   4.280381e+05
  -1.179533e+06   6.648153e+05
  -1.930335e+06  -1.470243e+06
  -5.277600e+05  -3.705116e+06
   1.856783e+06  -3.467076e+06
   3.343216e+06  -9.631068e+05
   3.323449e+06   1.652698e+06
   2.174867e+06   2.885250e+06
   3.663912e+05   2.642981e+06
  -1.281351e+06   1.459046e+06
  -1.599373e+06   2.108053e+05
  -5.027273e+05  -5.631007e+04
   3.506143e+05   7.793374e+05
  -4.588251e+05   1.386588e+06
  -1.993835e+06   5.680516e+05
  -2.089909e+06  -9.723344e+05
  -3.590778e+05  -1.486701e+06
   1.224746e+06  -5.545485e+05
   8.789245e+05   4.989585e+05
  -9.144227e+05   4.825180e+05
  -2.212379e+06  -4.368361e+05
  -1.695880e+06  -1.451729e+06
   3.445953e+05  -1.983179e+06
   2.404821e+06  -1.608769e+06
   2.842702e+06  -2.085621e+05
   1.229014e+06   1.335268e+06
  -9.748916e+05   1.548122e+06
  -1.628467e+06   1.788828e+05
  -2.048019e+05  -1.121503e+06
   1.574303e+06  -7.318489e+05
   1.747625e+06   8.535050e+05
   2.840966e+05   1.714538e+06
  -1.173893e+06   9.576362e+05
  -1.285959e+06  -3.852530e+05
  -2.126160e+05  -8.277393e+05
   8.377880e+05  -3.929063e+04
   7.433267e+05   1.098997e+06
  -6.107180e+05   1.452757e+06
  -2.064793e+06   5.258064e+05
  -2.070918e+06  -1.111466e+06
  -3.529794e+05  -2.141187e+06
   1.522767e+06  -1.659319e+06
   1.783807e+06  -1.686260e+05
   4.859159e+05   9.126420e+05
  -7.028696e+05   8.038485e+05
  -6.339587e+05   6.026346e+04
   1.543371e+05  -3.424292e+05
   4.953643e+05  -1.638970e+05
   7.284885e+04   7.845856e+04
  -4.973450e+05  -1.219775e+05
  -5.131075e+05  -7.395578e+05
   2.603334e+05  -1.226964e+06
   1.448349e+06  -8.844873e+05
   2.127652e+06   4.737181e+05
   1.463732e+06   2.024934e+06
  -2.744750e+05   2.469288e+06
  -1.687969e+06   1.387988e+06
  -1.710157e+06  -1.910909e+05
  -8.165873e+05  -9.262537e+05
  -2.824898e+05  -6.249659e+05
  -5.008633e+05  -1.929501e+05
  -6.728927e+05  -3.355280e+05
  -8.903753e+04  -8.050958e+05
   9.297951e+05  -9.013856e+05
   1.489601e+06  -2.807696e+05
   1.032110e+06   7.642776e+05
  -3.135121e+05   1.466101e+06
  -1.790056e+06   1.039278e+06
  -2.281698e+06  -5.532248e+05
  -1.100371e+06  -2.186426e+06
   1.111132e+06  -2.411572e+06
   2.652292e+06  -9.884896e+05
   2.388754e+06   7.593753e+05
   9.097878e+05   1.405683e+06
  -2.642790e+05   9.363723e+05
  -3.952188e+05   4.746661e+05
  -5.032557e+04   7.595647e+05
  -1.024420e+05   1.356579e+06
  -7.142830e+05   1.328560e+06
  -1.343256e+06   3.109548e+05
  -1.353501e+06  -1.128303e+06
  -5.347567e+05  -1.947982e+06
   6.617036e+05  -1.457411e+06
   1.314945e+06   3.575966e+04
   8.008939e+05   1.346987e+06
  -4.503278e+05   1.430150e+06
  -1.232375e+06   3.723749e+05
  -8.312318e+05  -7.702955e+05
   1.696476e+05  -1.129722e+06
   6.025791e+05  -7.953561e+05
   1.146220e+05  -4.139572e+05
  -4.414835e+05  -3.422533e+05
  -5.735453e+04  -3.889709e+05
   1.194378e+06  -1.907337e+05
   2.125711e+06   3.843443e+05
   1.638807e+06   1.106894e+06
  -8.556955e+04   1.492283e+06
  -1.674896e+06   1.151238e+06
  -1.895479e+06   2.330276e+05
  -8.437476e+05  -5.561119e+05
   2.868148e+05  -5.952729e+05
   5.364602e+05  -1.394699e+04
   3.828615e+04   4.477730e+05
  -4.462409e+05   2.592875e+05
  -4.904444e+05  -3.571399e+05
  -2.687874e+05  -7.312416e+05
  -1.120901e+05  -4.845271e+05
  -1.440584e+05   7.675795e+04
  -2.781805e+05   2.679259e+05
  -2.736250e+05  -2.472442e+05
   1.528822e+05  -9.955327e+05
   9.404158e+05  -1.080009e+06
   1.423220e+06  -1.792466e+05
   8.859307e+05   9.429530e+05
  -4.392118e+05   1.183365e+06
  -1.305047e+06   3.530750e+05
  -7.432360e+05  -5.897856e+05
   7.391080e+05  -6.467560e+05
   1.615266e+06   1.468778e+05
   9.777401e+05   9.189179e+05
  -5.471841e+05   9.860265e+05
  -1.544514e+06   4.192001e+05
  -1.237061e+06  -2.464066e+05
  -1.108763e+05  -5.252747e+05
   6.765275e+05  -2.496967e+05
   3.994394e+05   3.154260e+05
  -5.906320e+05   5.366904e+05
  -1.208415e+06  -7.818279e+04
  -6.951150e+05  -1.201955e+06
   5.927520e+05  -1.740167e+06
   1.511191e+06  -9.038833e+05
   1.273592e+06   7.807375e+05
   1.834890e+05   1.827312e+06
  -7.802947e+05   1.294146e+06
  -9.407854e+05  -2.179899e+05
  -3.991174e+05  -1.232830e+06
   2.728430e+05  -9.754737e+05
   5.871408e+05  -6.544080e+04
   4.476182e+05   3.922250e+05
   1.392100e+05   1.393847e+05
   6.193923e+04  -9.051826e+04
   3.195319e+05   3.176943e+05
   5.203570e+05   1.001199e+06
   1.466584e+05   1.104664e+06
  -7.725889e+05   3.921667e+05
  -1.495191e+06  -4.980147e+05
  -1.266240e+06  -8.797393e+05
  -1.757489e+05  -7.238811e+05
   8.516538e+05  -4.156236e+05
   1.000399e+06  -1.602374e+05
   3.930973e+05   7.233861e+04
  -1.408455e+05   2.301717e+05
  -7.384878e+04   1.975254e+05
   2.323711e+05   8.578282e+04
   6.379178e+04   1.328640e+05
  -6.397326e+05   2.431387e+05
  -1.074440e+06  -1.035639e+04
  -4.903902e+05  -7.118868e+05
   8.346707e+05  -1.215843e+06
   1.768087e+06  -7.900763e+05
   1.484527e+06   4.263299e+05
   2.845530e+05   1.433653e+06
  -8.047653e+05   1.416334e+06
  -1.076608e+06   5.690498e+05
  -6.615528e+05  -2.222312e+05
  -1.509212e+05  -3.667433e+05
   3.705446e+04  -8.608903e+04
  -9.864332e+04  -7.771654e+03
  -2.885058e+05  -3.926555e+05
  -2.317437e+05  -8.317569e+05
   1.791318e+05  -7.019683e+05
   6.863942e+05   1.021338e+05
   7.725508e+05   9.494527e+05
   1.577741e+05   1.056421e+06
  -7.442845e+05   2.860606e+05
  -1.066163e+06  -7.049133e+05
  -3.790532e+05  -1.116502e+06
   7.231827e+05  -7.199588e+05
   1.163714e+06   6.681548e+04
   5.676595e+05   6.535729e+05
  -2.952034e+05   7.297160e+05
  -4.213047e+05   3.874799e+05
   2.162219e+05   1.838972e+02
   6.554130e+05  -4.291396e+04
   1.623881e+05   3.216513e+05
  -8.487508e+05   6.872231e+05
  -1.325937e+06   5.245674e+05
  -8.193941e+05  -2.091225e+05
   9.672768e+04  -9.043427e+05
   5.986893e+05  -8.936097e+05
   4.701345e+05  -1.950396e+05
   7.179705e+04   4.737201e+05
  -2.368449e+05   4.648297e+05
  -3.548272e+05  -1.185823e+05
  -2.644804e+05  -5.900347e+05
   4.239810e+04  -4.671990e+05
   4.003993e+05   3.135718e+04
   5.010405e+05   3.104018e+05
   2.508394e+05   1.201410e+05
  -5.475336e+04  -1.784320e+05
  -9.104159e+04  -9.912353e+04
   5.660711e+04   3.353919e+05
   1.933832e+04   5.938086e+05
  -2.987938e+05   2.836757e+05
  -5.105483e+05  -3.430976e+05
  -2.209788e+05  -6.517852e+05
   3.988259e+05  -3.377114e+05
   7.016516e+05   2.604710e+05
   2.768838e+05   5.715557e+05
  -5.297216e+05   3.810704e+05
  -9.235760e+05  -5.879155e+04
  -5.015544e+05  -3.846193e+05
   2.979027e+05  -4.367844e+05
   6.607498e+05  -2.677799e+05
   2.837427e+05  -2.761149e+04
  -3.127766e+05   9.511512e+04
  -3.983290e+05  -2.647239e+04
   1.422281e+05  -2.715855e+05
   7.083512e+05  -2.755019e+05
