
 $NMID
 id='ANONYMOUS ', fmtdat='(2E16.6)'
 volume=1.0
 tramp=1.0
 $END
   2.087776e+07   1.164610e+06
   1.334593e+07   1.046065e+07
  -7.080272e+05   1.311598e+07
  -9.366912e+06   8.353247e+06
  -7.576327e+06   6.220139e+05
  -3.394548e+05  -3.750222e+06
   4.294868e+06  -1.774103e+06
   3.104361e+06   3.449007e+06
  -1.164027e+06   5.775317e+06
  -4.023412e+06   2.462293e+06
  -3.314211e+06  -2.894834e+06
  -2.452055e+05  -4.485362e+06
   2.118849e+06  -8.274056e+05
   1.527509e+06   3.793427e+06
  -1.383327e+06   4.319209e+06
  -3.545479e+06   2.775153e+05
  -2.459306e+06  -4.255430e+06
   1.179259e+06  -5.214522e+06
   4.156700e+06  -2.301482e+06
   4.045942e+06   1.460995e+06
   1.546457e+06   3.084642e+06
  -4.982932e+05   2.283262e+06
  -1.672019e+05   1.159425e+06
   1.567435e+06   1.595254e+06
   1.901396e+06   3.150395e+06
  -6.985647e+05   3.678576e+06
  -4.466573e+06   1.896479e+06
  -5.792035e+06  -1.078057e+06
  -3.044719e+06  -2.898092e+06
   1.348362e+06  -2.323918e+06
   3.244253e+06  -1.642823e+05
   1.175965e+06   1.679226e+06
  -2.223878e+06   1.701157e+06
  -3.355517e+06  -2.154481e+05
  -1.510463e+06  -2.564223e+06
   9.262610e+05  -3.176351e+06
   1.581577e+06  -1.294665e+06
   4.882096e+05   1.205031e+06
  -6.051589e+05   1.541485e+06
  -4.343708e+05  -6.549857e+05
   7.231009e+05  -2.610351e+06
   1.676791e+06  -1.711027e+06
   1.446732e+06   1.132926e+06
   2.292142e+03   2.513318e+06
  -1.561041e+06   7.229141e+05
  -1.661939e+06  -2.214355e+06
   3.183874e+05  -3.037333e+06
   2.987866e+06  -8.967288e+05
   3.838303e+06   2.078485e+06
   1.709561e+06   3.296003e+06
  -1.744883e+06   2.078810e+06
  -3.496311e+06  -2.021439e+05
  -2.162539e+06  -1.640716e+06
   6.531381e+05  -1.343528e+06
   2.149554e+06   2.955181e+04
   1.219367e+06   9.937861e+05
  -6.576160e+05   6.617827e+05
  -1.271855e+06  -4.418293e+05
  -1.053990e+05  -1.034452e+06
   1.257531e+06  -4.765947e+05
   1.019159e+06   6.223947e+05
  -7.605472e+05   1.098483e+06
  -2.141258e+06   3.186989e+05
  -1.360260e+06  -1.311844e+06
   1.234948e+06  -2.592968e+06
   3.480968e+06  -2.320934e+06
   3.595577e+06  -3.022370e+05
   1.859571e+06   2.216797e+06
   2.649656e+04   3.483992e+06
  -6.619107e+05   2.913056e+06
  -5.363109e+05   1.607927e+06
  -6.754054e+05   9.458152e+05
  -1.475487e+06   9.179245e+05
  -2.273238e+06   3.833780e+05
  -2.159299e+06  -1.106200e+06
  -9.022772e+05  -2.387327e+06
   8.191012e+05  -1.962992e+06
   1.858943e+06   1.127598e+05
   1.393301e+06   2.086652e+06
  -3.546119e+05   2.255393e+06
  -2.081004e+06   5.959153e+05
  -2.409946e+06  -1.395752e+06
  -1.188961e+06  -2.257574e+06
   3.564821e+05  -1.804783e+06
   9.725173e+05  -9.645084e+05
   7.569546e+05  -6.244978e+05
   8.880079e+05  -7.585720e+05
   1.970403e+06  -6.140387e+05
   3.029154e+06   3.775981e+05
   2.484793e+06   1.923924e+06
   6.703163e+04   3.026970e+06
  -2.570156e+06   2.779746e+06
  -3.352249e+06   1.153667e+06
  -1.842443e+06  -8.315521e+05
   3.521925e+05  -1.799445e+06
   1.238623e+06  -1.175602e+06
   3.631723e+05   2.065498e+05
  -9.820319e+05   8.572687e+05
  -1.305579e+06   1.868999e+05
  -4.254267e+05  -8.328353e+05
   5.697601e+05  -8.268427e+05
   5.976961e+05   2.530786e+05
  -3.651180e+05   9.540542e+05
  -1.357554e+06   4.283016e+04
  -1.318177e+06  -1.902387e+06
   4.032787e+04  -2.969361e+06
   1.935471e+06  -1.937532e+06
   3.003624e+06   4.458197e+05
   2.368463e+06   2.270176e+06
   4.943294e+05   2.336055e+06
  -1.110533e+06   1.116933e+06
  -1.290546e+06   2.479449e+04
  -3.726403e+05  -4.877219e+04
   2.646879e+05   5.638134e+05
  -2.267757e+05   8.817235e+05
  -1.222166e+06   3.818473e+05
  -1.407077e+06  -5.044283e+05
  -3.705575e+05  -9.148684e+05
   8.372284e+05  -4.731702e+05
   8.330476e+05   3.396236e+05
  -5.302264e+05   6.628171e+05
  -1.888698e+06   6.316503e+04
  -1.731791e+06  -1.060729e+06
   9.131947e+03  -1.786694e+06
   1.832503e+06  -1.438901e+06
   2.156903e+06  -2.199247e+05
   8.724310e+05   8.783925e+05
  -6.451549e+05   9.469737e+05
  -9.824822e+05   7.080634e+04
  -2.365619e+04  -7.098294e+05
   1.117834e+06  -4.843935e+05
   1.301072e+06   5.300525e+05
   4.019449e+05   1.236931e+06
  -6.977703e+05   9.032295e+05
  -1.003942e+06  -3.774896e+04
  -3.384374e+05  -5.243636e+05
   4.940932e+05  -6.311288e+04
   4.858387e+05   7.784148e+05
  -5.143355e+05   1.026555e+06
  -1.544405e+06   2.963717e+05
  -1.477113e+06  -8.730954e+05
  -2.414761e+05  -1.545243e+06
   1.054051e+06  -1.208707e+06
   1.281918e+06  -1.953668e+05
   4.389223e+05   6.291092e+05
  -4.741348e+05   6.450894e+05
  -5.863035e+05   3.331912e+04
   1.141226e+04  -4.596281e+05
   5.309192e+05  -3.399943e+05
   3.958597e+05   1.089109e+05
  -1.861380e+05   1.996581e+05
  -4.754106e+05  -3.072945e+05
   2.615959e+04  -8.616385e+05
   1.009981e+06  -6.950193e+05
   1.569547e+06   3.274217e+05
   1.059699e+06   1.494095e+06
  -2.225499e+05   1.879963e+06
  -1.290192e+06   1.182801e+06
  -1.431864e+06  -2.560091e+04
  -8.481269e+05  -8.387962e+05
  -2.899456e+05  -8.298264e+05
  -1.865981e+05  -3.749733e+05
  -2.696647e+05  -1.733199e+05
  -2.631700e+04  -4.505602e+05
   6.216785e+05  -7.077528e+05
   1.154801e+06  -3.281430e+05
   9.378097e+05   6.136033e+05
  -1.252694e+05   1.283763e+06
  -1.359971e+06   9.082033e+05
  -1.780042e+06  -3.829020e+05
  -9.248090e+05  -1.597343e+06
   6.640933e+05  -1.778081e+06
   1.848477e+06  -8.506800e+05
   1.866832e+06   3.839327e+05
   9.416961e+05   1.040698e+06
  -5.223355e+04   9.249479e+05
  -4.560371e+05   5.669781e+05
  -3.385577e+05   5.458516e+05
  -2.349753e+05   8.324453e+05
  -4.948187e+05   8.485589e+05
  -9.125730e+05   1.751569e+05
  -9.581477e+05  -8.745342e+05
  -3.589510e+05  -1.473843e+06
   5.347108e+05  -1.085392e+06
   1.002380e+06  -1.727471e+03
   6.403301e+05   9.243873e+05
  -2.041928e+05   1.049162e+06
  -7.555232e+05   4.371710e+05
  -5.915845e+05  -3.206983e+05
  -4.362722e+04  -6.941552e+05
   2.270377e+05  -6.183536e+05
  -5.834964e+03  -4.001584e+05
  -2.847873e+05  -3.114952e+05
  -1.136169e+04  -3.129404e+05
   8.141048e+05  -1.617560e+05
   1.473160e+06   2.587343e+05
   1.213218e+06   7.616273e+05
   6.343226e+04   1.005319e+06
  -1.095702e+06   7.963275e+05
  -1.357557e+06   2.618087e+05
  -6.764881e+05  -2.324544e+05
   1.454397e+05  -3.529194e+05
   3.492750e+05  -8.275291e+04
  -3.582738e+04   2.224072e+05
  -3.990497e+05   1.553776e+05
  -3.399337e+05  -2.777259e+05
  -5.131825e+04  -5.933189e+05
   5.460111e+04  -3.755968e+05
  -1.236610e+05   1.535452e+05
  -3.185829e+05   3.201395e+05
  -2.292335e+05  -1.717476e+05
   1.954718e+05  -7.935137e+05
   7.106511e+05  -7.711527e+05
   9.035150e+05  -2.060878e+04
   4.856062e+05   7.254907e+05
  -3.464626e+05   7.484113e+05
  -8.886990e+05   1.088693e+05
  -5.276494e+05  -4.990206e+05
   5.253941e+05  -5.056282e+05
   1.275476e+06   4.706605e+04
   9.161648e+05   6.616739e+05
  -2.804745e+05   8.542888e+05
  -1.204835e+06   5.028207e+05
  -1.059485e+06  -9.077620e+04
  -1.531443e+05  -4.309479e+05
   4.951336e+05  -2.501643e+05
   2.505090e+05   1.977217e+05
  -5.211031e+05   3.264261e+05
  -8.967874e+05  -1.861930e+05
  -3.730623e+05  -9.754824e+05
   6.345975e+05  -1.248812e+06
   1.235195e+06  -5.564633e+05
   9.432097e+05   6.726069e+05
   8.383947e+04   1.427237e+06
  -6.208895e+05   1.049167e+06
  -7.408152e+05  -9.169949e+04
  -3.794662e+05  -9.350824e+05
   1.028506e+05  -8.097537e+05
   4.128894e+05  -9.230948e+04
   4.246879e+05   3.281232e+05
   2.029706e+05   1.407254e+05
   1.088746e+04  -9.901070e+04
   9.634338e+04   1.801805e+05
   3.261767e+05   7.451012e+05
   2.125893e+05   8.698289e+05
  -4.601801e+05   3.083536e+05
  -1.154693e+06  -4.123977e+05
  -1.066108e+06  -6.963687e+05
  -1.348384e+05  -5.326052e+05
   7.587524e+05  -2.888821e+05
   8.055514e+05  -1.407496e+05
   2.151321e+05   3.446060e+03
  -1.516018e+05   1.620655e+05
   5.653006e+04   2.084620e+05
   3.002402e+05   1.392290e+05
  -3.820632e+03   1.104334e+05
  -6.282912e+05   1.188369e+05
  -8.011884e+05  -7.780948e+04
  -1.674879e+05  -5.344436e+05
   7.913316e+05  -8.221741e+05
   1.283832e+06  -4.524014e+05
   9.588759e+05   4.425727e+05
   1.193214e+05   1.120342e+06
  -6.245296e+05   1.007919e+06
  -8.336549e+05   3.111987e+05
  -5.125622e+05  -2.608834e+05
  -4.840541e+04  -2.811461e+05
   1.380720e+05   9.963120e+03
  -3.503943e+04   7.516537e+04
  -2.640611e+05  -2.706025e+05
  -1.978336e+05  -6.390016e+05
   1.855992e+05  -4.999302e+05
   5.409970e+05   1.856086e+05
   4.778276e+05   8.300815e+05
  -5.416092e+04   7.933437e+05
  -6.477617e+05   7.212073e+04
  -7.419845e+05  -6.839156e+05
  -1.658550e+05  -8.547244e+05
   5.954089e+05  -4.296285e+05
   8.209825e+05   1.301227e+05
   3.379229e+05   4.363258e+05
  -2.433647e+05   4.341182e+05
  -2.371729e+05   2.526585e+05
   2.704731e+05   5.083728e+04
   5.269058e+05   1.079651e+04
   7.353175e+04   2.292552e+05
  -6.704631e+05   5.033563e+05
  -9.347272e+05   4.281472e+05
  -5.068743e+05  -1.053160e+05
   1.182933e+05  -6.391460e+05
   3.950362e+05  -6.106612e+05
   2.566902e+05  -5.214062e+04
  -2.201970e+04   4.060338e+05
  -2.185069e+05   2.842843e+05
  -2.695645e+05  -2.002838e+05
  -1.607605e+05  -4.619187e+05
   7.703121e+04  -2.641815e+05
   2.977220e+05   8.293094e+04
   3.335172e+05   1.886414e+05
   1.845455e+05   4.115813e+04
   1.423422e+04  -6.147366e+04
  -6.434337e+04   7.789485e+04
  -1.061415e+05   3.179887e+05
  -2.008486e+05   3.432010e+05
  -2.986740e+05   2.478054e+04
  -2.422957e+05  -3.968928e+05
   3.352084e+04  -5.177850e+05
   3.663146e+05  -1.896904e+05
   4.545338e+05   2.929647e+05
   1.339095e+05   4.844293e+05
  -3.889993e+05   2.508598e+05
  -6.388636e+05  -1.295457e+05
  -3.335709e+05  -3.162278e+05
   2.449323e+05  -2.441808e+05
   4.857216e+05  -8.316491e+04
   1.394384e+05   7.099987e+03
  -3.481357e+05  -2.189545e+04
  -3.419953e+05  -1.481074e+05
   2.087007e+05  -2.640019e+05
   6.938713e+05  -1.710079e+05
