
 $NMID
 id='ANONYMOUS ', fmtdat='(2E16.6)'
 volume=1.0
 tramp=1.0
 $END
   1.910163e+07  -1.484986e+06
   1.320562e+07   9.725091e+06
  -3.455236e+05   1.294151e+07
  -8.750290e+06   7.182014e+06
  -6.651920e+06  -6.405858e+05
   2.383489e+05  -3.593045e+06
   3.879179e+06  -8.395299e+05
   2.198903e+06   3.337843e+06
  -1.477955e+06   4.499267e+06
  -3.554647e+06   1.709469e+06
  -2.871906e+06  -2.231593e+06
  -4.206363e+05  -3.502596e+06
   1.600794e+06  -9.472121e+05
   1.260145e+06   2.591767e+06
  -1.154781e+06   3.184927e+06
  -3.030671e+06   1.005008e+05
  -2.149168e+06  -3.554594e+06
   8.635287e+05  -4.450967e+06
   3.402164e+06  -2.303478e+06
   3.678476e+06   6.677193e+05
   2.067846e+06   2.405149e+06
   2.384071e+05   2.483357e+06
  -3.730908e+05   1.742160e+06
   3.370007e+05   1.321145e+06
   9.351997e+05   1.720937e+06
  -1.976887e+05   2.248830e+06
  -2.722001e+06   1.682342e+06
  -4.156113e+06  -1.354018e+05
  -2.682854e+06  -1.799446e+06
   3.774003e+05  -1.894841e+06
   1.967338e+06  -6.171825e+05
   8.993578e+05   6.305732e+05
  -1.078853e+06   8.138664e+05
  -1.782238e+06  -6.157640e+04
  -9.361376e+05  -1.316543e+06
   2.752133e+05  -1.964430e+06
   8.883464e+05  -1.232402e+06
   7.433329e+05   4.174902e+05
   1.710580e+05   1.218319e+06
  -1.860677e+05   1.069323e+05
   2.430398e+05  -1.486865e+06
   1.116609e+06  -1.172075e+06
   1.171655e+06   1.034008e+06
  -2.413675e+05   2.342406e+06
  -1.926632e+06   8.012675e+05
  -1.929203e+06  -2.009807e+06
   1.509624e+05  -2.938267e+06
   2.526907e+06  -1.083644e+06
   3.029889e+06   1.500636e+06
   1.209822e+06   2.482991e+06
  -1.355405e+06   1.476709e+06
  -2.525109e+06  -2.767071e+05
  -1.440086e+06  -1.356918e+06
   7.188967e+05  -1.103884e+06
   1.825916e+06   6.208744e+04
   9.691839e+05   9.283617e+05
  -5.776995e+05   6.188059e+05
  -9.005461e+05  -3.692382e+05
   2.217600e+05  -7.133948e+05
   1.135335e+06   6.322694e+04
   4.841627e+05   1.021098e+06
  -1.127501e+06   1.042180e+06
  -1.965494e+06   4.786277e+04
  -1.135440e+06  -1.231081e+06
   7.059242e+05  -2.058165e+06
   2.232052e+06  -1.911648e+06
   2.551313e+06  -5.749885e+05
   1.659372e+06   1.362113e+06
   3.124878e+05   2.549178e+06
  -5.479707e+05   2.160667e+06
  -5.943209e+05   9.365960e+05
  -3.744860e+05   2.810915e+05
  -5.802317e+05   4.669889e+05
  -1.147239e+06   4.729140e+05
  -1.353015e+06  -3.609166e+05
  -7.436313e+05  -1.298967e+06
   3.277162e+05  -1.194673e+06
   1.068762e+06   1.481597e+04
   9.119806e+05   1.253190e+06
  -1.118165e+05   1.484689e+06
  -1.336308e+06   5.983402e+05
  -1.824992e+06  -6.976694e+05
  -1.161741e+06  -1.532919e+06
   3.609370e+04  -1.511628e+06
   7.321009e+05  -9.594144e+05
   6.931504e+05  -5.350550e+05
   7.050817e+05  -4.888837e+05
   1.364551e+06  -4.039871e+05
   2.078901e+06   2.171783e+05
   1.722845e+06   1.255360e+06
   1.187997e+05   2.024126e+06
  -1.595039e+06   1.919224e+06
  -2.121386e+06   9.199784e+05
  -1.252629e+06  -3.849554e+05
   6.723837e+04  -1.141706e+06
   6.964065e+05  -8.503364e+05
   2.676260e+05   8.774941e+04
  -5.891036e+05   6.246416e+05
  -9.097960e+05   1.939385e+05
  -3.813825e+05  -5.588719e+05
   3.337170e+05  -5.728655e+05
   3.619771e+05   1.833295e+05
  -3.560007e+05   5.874908e+05
  -9.936163e+05  -1.710100e+05
  -7.651260e+05  -1.474873e+06
   2.891959e+05  -1.967427e+06
   1.437127e+06  -1.084554e+06
   1.916943e+06   4.459756e+05
   1.431399e+06   1.473981e+06
   3.039870e+05   1.462205e+06
  -6.762597e+05   7.390660e+05
  -8.251995e+05   6.082283e+04
  -2.474651e+05  -2.796435e+04
   1.964355e+05   3.716080e+05
  -1.384229e+05   6.397425e+05
  -8.626466e+05   3.188060e+05
  -1.009386e+06  -3.414116e+05
  -2.702932e+05  -6.649632e+05
   5.675714e+05  -3.484614e+05
   5.413289e+05   2.113539e+05
  -3.665016e+05   3.986962e+05
  -1.207618e+06  -1.029842e+03
  -1.068455e+06  -6.846523e+05
   3.243194e+04  -1.126977e+06
   1.181955e+06  -9.401048e+05
   1.420805e+06  -1.756928e+05
   6.178056e+05   5.939985e+05
  -4.151597e+05   7.021235e+05
  -7.078139e+05   9.815694e+04
  -7.674748e+04  -4.989137e+05
   7.398227e+05  -3.737610e+05
   8.893254e+05   3.436905e+05
   2.592940e+05   8.408139e+05
  -4.991649e+05   5.955517e+05
  -6.869177e+05  -5.673033e+04
  -2.177743e+05  -3.827938e+05
   3.517677e+05  -7.572369e+04
   3.678536e+05   4.897432e+05
  -2.808490e+05   6.949683e+05
  -9.936361e+05   2.602069e+05
  -1.006643e+06  -5.210830e+05
  -2.057135e+05  -1.025648e+06
   6.884964e+05  -8.372683e+05
   8.679452e+05  -1.413735e+05
   2.986607e+05   4.362656e+05
  -3.155957e+05   4.453830e+05
  -3.751355e+05   3.691228e+04
   1.553275e+04  -2.710653e+05
   3.119006e+05  -1.912671e+05
   1.905189e+05   6.187357e+04
  -1.631145e+05   8.159309e+04
  -3.054313e+05  -2.426178e+05
   2.918035e+04  -5.791844e+05
   6.582306e+05  -4.732415e+05
   1.040569e+06   1.801934e+05
   7.383108e+05   9.565688e+05
  -1.055619e+05   1.234158e+06
  -8.321440e+05   7.755051e+05
  -9.210417e+05  -2.512314e+04
  -5.122617e+05  -5.279383e+05
  -1.597868e+05  -4.758816e+05
  -1.467310e+05  -1.821446e+05
  -2.272568e+05  -1.026067e+05
  -4.002306e+04  -3.133431e+05
   4.072420e+05  -4.642689e+05
   7.368145e+05  -2.077467e+05
   5.786319e+05   3.795357e+05
  -8.979635e+04   8.038415e+05
  -8.679188e+05   5.930721e+05
  -1.158912e+06  -2.201353e+05
  -6.293746e+05  -1.040087e+06
   4.222520e+05  -1.202498e+06
   1.231037e+06  -5.919043e+05
   1.237461e+06   2.532806e+05
   5.941643e+05   6.875792e+05
  -5.836919e+04   5.772396e+05
  -2.710882e+05   3.288409e+05
  -1.503036e+05   3.485261e+05
  -9.351230e+04   5.777563e+05
  -3.054505e+05   6.013531e+05
  -6.108365e+05   1.539968e+05
  -6.590518e+05  -5.436557e+05
  -2.776019e+05  -9.559411e+05
   3.188955e+05  -7.265667e+05
   6.599126e+05  -1.999673e+04
   4.428153e+05   6.111223e+05
  -1.334334e+05   7.092967e+05
  -5.301212e+05   2.889140e+05
  -4.207827e+05  -2.414407e+05
  -2.487440e+04  -4.956533e+05
   1.765231e+05  -4.254452e+05
   1.175032e+04  -2.555038e+05
  -1.932246e+05  -1.848229e+05
  -1.513792e+04  -1.955269e+05
   5.436674e+05  -1.236516e+05
   9.908568e+05   1.330118e+05
   8.207805e+05   4.819847e+05
   5.431283e+04   6.887331e+05
  -7.231569e+05   5.734697e+05
  -9.066791e+05   1.923950e+05
  -4.587215e+05  -1.739833e+05
   9.284941e+04  -2.558418e+05
   2.413101e+05  -5.220104e+04
  -3.149765e+03   1.592400e+05
  -2.473250e+05   1.069382e+05
  -2.305565e+05  -1.744957e+05
  -6.455954e+04  -3.684615e+05
   6.133063e+03  -2.351272e+05
  -8.176687e+04   8.238015e+04
  -1.875973e+05   1.870170e+05
  -1.450421e+05  -1.057378e+05
   1.006471e+05  -5.017591e+05
   4.384707e+05  -5.242873e+05
   6.045489e+05  -6.837582e+04
   3.617548e+05   4.444688e+05
  -1.955114e+05   5.188648e+05
  -5.816866e+05   1.225542e+05
  -3.553885e+05  -3.051794e+05
   3.421581e+05  -3.399103e+05
   8.311909e+05   2.321111e+04
   5.830372e+05   4.349094e+05
  -1.994078e+05   5.546128e+05
  -7.864468e+05   3.172359e+05
  -6.810138e+05  -6.360484e+04
  -9.481168e+04  -2.788558e+05
   3.270527e+05  -1.669753e+05
   1.823545e+05   1.253982e+05
  -3.132408e+05   2.329238e+05
  -5.834787e+05  -7.870300e+04
  -2.850068e+05  -6.070556e+05
   3.545181e+05  -8.267380e+05
   7.732397e+05  -4.014874e+05
   6.270730e+05   4.082515e+05
   8.688326e+04   9.211471e+05
  -3.867284e+05   6.842982e+05
  -4.871416e+05  -5.932512e+04
  -2.548348e+05  -6.089902e+05
   7.115388e+04  -5.287011e+05
   2.749978e+05  -6.614527e+04
   2.685532e+05   2.062699e+05
   1.185318e+05   8.941792e+04
   1.436046e+04  -6.379102e+04
   9.587980e+04   1.130255e+05
   2.417158e+05   4.781336e+05
   1.383049e+05   5.697168e+05
  -3.164841e+05   2.203934e+05
  -7.581051e+05  -2.436021e+05
  -6.915651e+05  -4.388196e+05
  -9.907376e+04  -3.474697e+05
   4.705306e+05  -1.977431e+05
   5.178133e+05  -1.008907e+05
   1.576768e+05  -4.752784e+02
  -8.896409e+04   1.081096e+05
   1.663613e+04   1.350893e+05
   1.726089e+05   8.151319e+04
   8.471033e+03   6.440993e+04
  -3.787556e+05   8.903348e+04
  -5.217754e+05  -2.114397e+04
  -1.537903e+05  -3.297665e+05
   4.678383e+05  -5.571007e+05
   8.280499e+05  -3.497814e+05
   6.522200e+05   2.379652e+05
   1.124280e+05   7.166453e+05
  -3.795393e+05   6.799114e+05
  -5.242354e+05   2.382083e+05
  -3.304587e+05  -1.445867e+05
  -4.883277e+04  -1.755075e+05
   6.579584e+04   6.947917e+02
  -3.413835e+04   4.007614e+04
  -1.733834e+05  -1.788313e+05
  -1.398299e+05  -4.140618e+05
   9.927017e+04  -3.332450e+05
   3.461251e+05   9.317820e+04
   3.390258e+05   5.068843e+05
   9.157559e+03   5.080351e+05
  -3.978689e+05   7.654592e+04
  -4.975188e+05  -4.039382e+05
  -1.437756e+05  -5.444721e+05
   3.636010e+05  -3.069345e+05
   5.419719e+05   5.059598e+04
   2.495392e+05   2.789130e+05
  -1.358829e+05   3.055428e+05
  -1.582846e+05   1.846331e+05
   1.567517e+05   3.023812e+04
   3.356089e+05  -7.476421e+03
   6.117206e+04   1.463947e+05
  -4.230245e+05   3.433715e+05
  -6.169342e+05   3.001058e+05
  -3.563665e+05  -5.797758e+04
   5.392930e+04  -4.245986e+05
   2.501683e+05  -4.227265e+05
   1.742572e+05  -6.221694e+04
   1.333799e+03   2.521815e+05
  -1.253955e+05   1.972175e+05
  -1.706260e+05  -1.086212e+05
  -1.192403e+05  -2.932213e+05
   3.057813e+04  -1.846720e+05
   1.926995e+05   3.850068e+04
   2.334836e+05   1.204136e+05
   1.265036e+05   3.096280e+04
  -7.211101e+03  -4.732857e+04
  -5.414541e+04   2.853946e+04
  -4.487676e+04   1.878394e+05
  -8.191802e+04   2.275516e+05
  -1.680119e+05   4.589266e+04
  -1.777400e+05  -2.215540e+05
  -1.776726e+04  -3.188384e+05
   2.201344e+05  -1.361797e+05
   3.069185e+05   1.609974e+05
   1.048539e+05   2.993158e+05
  -2.478768e+05   1.786791e+05
  -4.228692e+05  -5.325695e+04
  -2.300021e+05  -1.924033e+05
   1.452261e+05  -1.771317e+05
   3.091706e+05  -8.430654e+04
   1.012688e+05  -8.136453e+03
  -2.035160e+05  -1.117213e+03
  -2.105649e+05  -7.343740e+04
   1.201959e+05  -1.600445e+05
   4.232201e+05  -1.189177e+05
