
 $NMID
 id='ANONYMOUS ', fmtdat='(2E16.6)'
 volume=1.0
 tramp=1.0
 $END
  -4.294086e+07   9.088304e+05
  -2.733107e+07  -2.403762e+07
   3.268021e+06  -2.862802e+07
   2.004729e+07  -1.381990e+07
   1.368495e+07   2.817924e+06
  -1.252165e+06   7.388596e+06
  -7.927796e+06   7.715476e+05
  -3.717514e+06  -7.244541e+06
   3.720644e+06  -8.758592e+06
   7.570870e+06  -2.898566e+06
   5.975446e+06   4.893659e+06
   8.487275e+05   7.354626e+06
  -3.365931e+06   2.096507e+06
  -2.524914e+06  -5.187013e+06
   2.660497e+06  -6.296738e+06
   6.433736e+06   2.970348e+05
   4.201658e+06   7.945674e+06
  -2.394363e+06   9.637096e+06
  -7.792129e+06   4.873303e+06
  -8.331380e+06  -1.688750e+06
  -4.698949e+06  -5.713405e+06
  -3.038309e+05  -5.995642e+06
   1.469863e+06  -4.015200e+06
  -9.099541e+04  -2.479122e+06
  -1.857814e+06  -3.091282e+06
   1.739523e+05  -4.524349e+06
   5.542587e+06  -3.690673e+06
   8.752519e+06   1.202957e+05
   5.775383e+06   3.797983e+06
  -5.623361e+05   4.140822e+06
  -3.938443e+06   1.583758e+06
  -2.057373e+06  -9.766805e+05
   1.691350e+06  -1.598936e+06
   3.313911e+06  -2.029077e+05
   2.169025e+06   2.311019e+06
  -9.297958e+04   4.072718e+06
  -1.838544e+06   2.913978e+06
  -2.025963e+06  -7.230523e+05
  -6.311079e+05  -2.848896e+06
   6.329476e+05  -6.250605e+05
  -1.956009e+05   2.943144e+06
  -2.288355e+06   2.376040e+06
  -2.303350e+06  -2.327499e+06
   1.095537e+06  -4.894695e+06
   4.621746e+06  -1.194388e+06
   3.955038e+06   4.904601e+06
  -9.591125e+05   6.475092e+06
  -5.738222e+06   2.062798e+06
  -6.231165e+06  -3.454188e+06
  -2.239352e+06  -5.212997e+06
   2.855460e+06  -2.853734e+06
   5.035735e+06   7.718451e+05
   2.757207e+06   2.804658e+06
  -1.619417e+06   2.082977e+06
  -3.776988e+06  -3.684102e+05
  -1.884436e+06  -2.004915e+06
   1.280190e+06  -1.193868e+06
   1.756245e+06   7.675375e+05
  -5.984019e+05   1.178610e+06
  -2.152103e+06  -5.450320e+05
  -4.245276e+05  -2.220418e+06
   2.861884e+06  -1.833587e+06
   4.190989e+06   3.536952e+05
   2.202562e+06   2.858284e+06
  -1.577867e+06   4.477942e+06
  -4.707572e+06   4.181898e+06
  -5.499604e+06   1.300907e+06
  -3.694897e+06  -2.936966e+06
  -7.028299e+05  -5.441683e+06
   1.256408e+06  -4.422842e+06
   1.231649e+06  -1.719554e+06
   5.219842e+05  -4.758822e+05
   8.927053e+05  -1.104137e+06
   2.238565e+06  -1.241653e+06
   2.855136e+06   4.877311e+05
   1.710197e+06   2.475676e+06
  -4.367344e+05   2.384778e+06
  -1.997387e+06   8.994169e+04
  -1.841352e+06  -2.370358e+06
   1.302904e+05  -2.987128e+06
   2.735191e+06  -1.341022e+06
   3.933969e+06   1.379162e+06
   2.573838e+06   3.324869e+06
  -1.186558e+05   3.383606e+06
  -1.740517e+06   2.117984e+06
  -1.627670e+06   1.064625e+06
  -1.512940e+06   8.981622e+05
  -2.794648e+06   7.332441e+05
  -4.251376e+06  -5.112195e+05
  -3.510621e+06  -2.582749e+06
  -2.375480e+05  -4.107956e+06
   3.214740e+06  -3.933611e+06
   4.279992e+06  -1.988144e+06
   2.595330e+06   6.683293e+05
  -6.104813e+03   2.322168e+06
  -1.310529e+06   1.810508e+06
  -5.319218e+05  -1.313771e+05
   1.160797e+06  -1.274524e+06
   1.830716e+06  -3.899071e+05
   7.984179e+05   1.141629e+06
  -6.009355e+05   1.134247e+06
  -6.171625e+05  -3.533845e+05
   7.780162e+05  -1.004899e+06
   1.884354e+06   6.060965e+05
   1.278851e+06   3.042339e+06
  -7.735281e+05   3.740436e+06
  -2.863700e+06   1.908156e+06
  -3.704019e+06  -9.545149e+05
  -2.791720e+06  -2.837792e+06
  -6.326747e+05  -2.854385e+06
   1.320088e+06  -1.525782e+06
   1.652094e+06  -1.863696e+05
   5.007383e+05   4.041356e+04
  -3.812990e+05  -7.477891e+05
   3.254517e+05  -1.287784e+06
   1.777608e+06  -6.079477e+05
   2.004865e+06   7.347379e+05
   4.816858e+05   1.325889e+06
  -1.139233e+06   6.386067e+05
  -1.012932e+06  -4.316847e+05
   7.757779e+05  -7.174622e+05
   2.366210e+06   7.235621e+04
   2.061534e+06   1.344736e+06
  -8.370822e+04   2.186703e+06
  -2.343911e+06   1.859677e+06
  -2.839404e+06   3.668631e+05
  -1.241425e+06  -1.198071e+06
   8.562780e+05  -1.432974e+06
   1.453928e+06  -1.937733e+05
   1.567739e+05   1.022964e+06
  -1.497607e+06   7.467173e+05
  -1.765715e+06  -7.045080e+05
  -4.804572e+05  -1.657282e+06
   9.996323e+05  -1.122730e+06
   1.315788e+06   1.580926e+05
   3.651859e+05   7.436960e+05
  -7.391799e+05   9.130624e+04
  -7.334207e+05  -1.035590e+06
   5.909021e+05  -1.429876e+06
   2.036182e+06  -5.391829e+05
   2.057149e+06   1.053656e+06
   4.201787e+05   2.078495e+06
  -1.391241e+06   1.687756e+06
  -1.730471e+06   2.859017e+05
  -5.709298e+05  -8.490743e+05
   6.295482e+05  -8.565897e+05
   7.050336e+05  -8.165873e+04
  -6.212192e+04   4.819352e+05
  -5.886735e+05   3.361444e+05
  -3.100943e+05  -9.867602e+04
   3.638109e+05  -9.107153e+04
   5.949268e+05   5.448746e+05
  -9.686609e+04   1.187767e+06
  -1.354841e+06   9.584445e+05
  -2.120260e+06  -3.686410e+05
  -1.512917e+06  -1.943473e+06
   1.847356e+05  -2.491513e+06
   1.638252e+06  -1.549125e+06
   1.810539e+06   3.618908e+04
   1.017409e+06   9.815172e+05
   3.719770e+05   8.564851e+05
   3.848998e+05   3.361676e+05
   5.204619e+05   2.616579e+05
   8.795829e+04   6.955314e+05
  -8.382764e+05   9.548314e+05
  -1.495597e+06   4.205498e+05
  -1.172376e+06  -7.434136e+05
   1.730870e+05  -1.596279e+06
   1.750287e+06  -1.195719e+06
   2.341884e+06   4.359105e+05
   1.250879e+06   2.102140e+06
  -8.954403e+05   2.421038e+06
  -2.503226e+06   1.161853e+06
  -2.456420e+06  -5.310177e+05
  -1.140358e+06  -1.346351e+06
   1.184925e+05  -1.091385e+06
   4.772294e+05  -6.385040e+05
   2.263372e+05  -7.524289e+05
   1.617625e+05  -1.234557e+06
   6.351319e+05  -1.250172e+06
   1.262976e+06  -3.210661e+05
   1.356020e+06   1.091134e+06
   5.828074e+05   1.929742e+06
  -6.272212e+05   1.474869e+06
  -1.321719e+06   3.738372e+04
  -8.764670e+05  -1.249875e+06
   3.005689e+05  -1.422744e+06
   1.092264e+06  -5.231124e+05
   8.289120e+05   5.593178e+05
  -1.179076e+04   1.022056e+06
  -4.137724e+05   8.241688e+05
  -3.163113e+04   4.754995e+05
   4.238464e+05   3.626546e+05
   5.165475e+04   4.011011e+05
  -1.126224e+06   2.479717e+05
  -2.049858e+06  -2.817814e+05
  -1.664264e+06  -9.908633e+05
  -5.818931e+04  -1.408024e+06
   1.515088e+06  -1.163060e+06
   1.832653e+06  -3.659606e+05
   8.868453e+05   3.922461e+05
  -2.173932e+05   5.383551e+05
  -4.953442e+05   8.311001e+04
  -8.044032e+03  -3.694664e+05
   4.799423e+05  -2.519314e+05
   4.845317e+05   3.440165e+05
   1.958708e+05   7.539624e+05
   3.666265e+04   4.914548e+05
   1.481169e+05  -1.484992e+05
   3.377984e+05  -3.632290e+05
   2.982947e+05   2.256049e+05
  -1.666056e+05   1.033103e+06
  -8.990024e+05   1.087239e+06
  -1.302616e+06   1.518842e+05
  -7.986922e+05  -9.228033e+05
   4.066887e+05  -1.102147e+06
   1.230062e+06  -2.943317e+05
   7.459583e+05   5.978264e+05
  -6.901583e+05   6.874084e+05
  -1.657499e+06  -3.614390e+04
  -1.135634e+06  -8.516102e+05
   4.129750e+05  -1.078932e+06
   1.547911e+06  -6.103716e+05
   1.329689e+06   1.270887e+05
   1.807703e+05   5.419649e+05
  -6.535202e+05   3.186573e+05
  -3.756934e+05  -2.732447e+05
   6.230900e+05  -5.089609e+05
   1.205083e+06   1.170908e+05
   6.419227e+05   1.225600e+06
  -6.528810e+05   1.725934e+06
  -1.543625e+06   8.818475e+05
  -1.295456e+06  -7.869573e+05
  -2.213864e+05  -1.854489e+06
   7.474389e+05  -1.376106e+06
   9.679785e+05   1.291360e+05
   5.024077e+05   1.216977e+06
  -1.603834e+05   1.032976e+06
  -5.621222e+05   1.173323e+05
  -5.238232e+05  -3.930989e+05
  -2.130123e+05  -1.546422e+05
  -3.261476e+04   1.128328e+05
  -2.309988e+05  -2.688705e+05
  -5.146952e+05  -9.750195e+05
  -2.622900e+05  -1.119704e+06
   6.719607e+05  -4.275095e+05
   1.534230e+06   4.617115e+05
   1.378247e+06   8.469311e+05
   2.058825e+05   7.072315e+05
  -9.150928e+05   4.369006e+05
  -1.027686e+06   2.158255e+05
  -3.383379e+05  -2.428127e+04
   1.629143e+05  -2.294431e+05
  -1.307695e+04  -2.373679e+05
  -3.237659e+05  -1.231717e+05
  -3.376832e+04  -1.389616e+05
   7.316721e+05  -2.295065e+05
   1.070318e+06   1.534116e+04
   3.800833e+05   6.969842e+05
  -8.992747e+05   1.189428e+06
  -1.706180e+06   7.609201e+05
  -1.394967e+06  -4.547349e+05
  -2.782183e+05  -1.451474e+06
   7.614353e+05  -1.407238e+06
   1.071992e+06  -5.319320e+05
   6.825727e+05   2.589227e+05
   1.208707e+05   3.657672e+05
  -1.115705e+05   3.997524e+04
   6.916663e+04  -5.033371e+04
   3.350605e+05   3.617156e+05
   2.812786e+05   8.290693e+05
  -1.862811e+05   6.902335e+05
  -7.097255e+05  -1.479600e+05
  -7.424819e+05  -9.993888e+05
  -8.159879e+04  -1.053068e+06
   7.964586e+05  -2.205385e+05
   1.056706e+06   7.679703e+05
   3.420631e+05   1.113434e+06
  -7.319436e+05   6.727679e+05
  -1.129660e+06  -7.649933e+04
  -5.298589e+05  -5.946802e+05
   2.838816e+05  -6.622197e+05
   3.515746e+05  -3.742623e+05
  -2.915058e+05  -2.248486e+04
  -6.771592e+05   4.081203e+04
  -1.412653e+05  -3.075176e+05
   8.418688e+05  -7.118597e+05
   1.258195e+06  -5.977398e+05
   7.494649e+05   1.439158e+05
  -9.273863e+04   8.799213e+05
  -5.258391e+05   8.719418e+05
  -3.982725e+05   1.454371e+05
  -4.035591e+04  -5.066164e+05
   2.476202e+05  -4.300885e+05
   3.645962e+05   1.800972e+05
   2.621725e+05   5.919829e+05
  -5.746070e+04   4.098076e+05
  -4.005672e+05  -5.594099e+04
  -4.813160e+05  -2.604106e+05
  -2.506750e+05  -7.625650e+04
   2.134207e+04   1.279560e+05
   8.675165e+04  -9.017061e+03
   2.959874e+04  -3.826071e+05
   1.079099e+05  -5.284720e+05
   3.439631e+05  -1.685415e+05
   4.310978e+05   4.218769e+05
   1.109091e+05   6.674025e+05
  -4.321386e+05   3.113245e+05
  -6.639573e+05  -3.007691e+05
  -2.502620e+05  -5.992295e+05
   5.081463e+05  -3.767897e+05
   8.888424e+05   8.191119e+04
   4.870548e+05   3.836391e+05
  -2.969304e+05   3.908618e+05
  -6.450438e+05   2.124888e+05
  -2.324037e+05   1.735198e+04
   3.888371e+05  -4.743979e+04
   4.320806e+05   9.669212e+04
  -1.985968e+05   3.211911e+05
  -8.074431e+05   2.842452e+05
