
 $NMID
 id='ANONYMOUS ', fmtdat='(2E16.6)'
 volume=1.0
 tramp=1.0
 $END
   1.798069e+07  -1.132838e+06
   1.227008e+07   8.642216e+06
  -1.488029e+05   1.182311e+07
  -7.948822e+06   7.182683e+06
  -6.318575e+06  -4.755268e+04
  -3.573867e+04  -3.544117e+06
   3.729638e+06  -1.399605e+06
   2.575177e+06   3.004842e+06
  -9.658980e+05   4.741705e+06
  -3.379055e+06   2.019833e+06
  -2.969917e+06  -2.293344e+06
  -4.352082e+05  -3.731980e+06
   1.821373e+06  -9.667762e+05
   1.593181e+06   2.797095e+06
  -8.795253e+05   3.412522e+06
  -2.893055e+06   2.777310e+05
  -2.130624e+06  -3.369261e+06
   8.316203e+05  -4.218503e+06
   3.329022e+06  -2.027391e+06
   3.468373e+06   9.245947e+05
   1.689220e+06   2.475187e+06
  -9.748308e+04   2.238863e+06
  -3.711861e+05   1.336174e+06
   6.920453e+05   1.104533e+06
   1.316838e+06   1.854282e+06
  -1.153553e+05   2.549155e+06
  -2.964047e+06   1.887644e+06
  -4.491177e+06  -1.267844e+05
  -2.837677e+06  -1.971763e+06
   5.450053e+05  -2.159110e+06
   2.344544e+06  -7.443815e+05
   1.139241e+06   8.560657e+05
  -1.240734e+06   1.236725e+06
  -2.182658e+06   8.351404e+04
  -1.131418e+06  -1.638085e+06
   4.547941e+05  -2.335159e+06
   1.133531e+06  -1.174064e+06
   7.183728e+05   7.788928e+05
  -5.334882e+04   1.363118e+06
  -3.330231e+05  -1.344807e+05
   2.301285e+05  -1.790344e+06
   1.115500e+06  -1.292513e+06
   1.214235e+06   9.626409e+05
  -4.290742e+03   2.189243e+06
  -1.573366e+06   7.436453e+05
  -1.764799e+06  -1.801225e+06
   2.198675e+04  -2.657680e+06
   2.370092e+06  -1.043917e+06
   3.102181e+06   1.331550e+06
   1.415068e+06   2.422180e+06
  -1.285551e+06   1.659862e+06
  -2.660626e+06  -5.329559e+04
  -1.623057e+06  -1.319935e+06
   6.359475e+05  -1.232004e+06
   1.859433e+06  -5.752720e+04
   1.052341e+06   9.219529e+05
  -5.508366e+05   6.933138e+05
  -1.015206e+06  -3.291236e+05
   3.020080e+04  -8.227438e+05
   1.083095e+06  -1.983139e+05
   6.914742e+05   7.699059e+05
  -8.194809e+05   9.876035e+05
  -1.797695e+06   1.849794e+05
  -1.116026e+06  -1.088151e+06
   7.579105e+05  -2.033725e+06
   2.374202e+06  -1.934546e+06
   2.647782e+06  -5.232197e+05
   1.636068e+06   1.487271e+06
   2.842927e+05   2.665922e+06
  -4.783586e+05   2.247314e+06
  -5.064870e+05   1.041904e+06
  -4.022107e+05   4.290985e+05
  -7.334637e+05   6.170002e+05
  -1.355052e+06   5.518376e+05
  -1.570335e+06  -4.230687e+05
  -9.073427e+05  -1.516837e+06
   3.402787e+05  -1.459620e+06
   1.291150e+06  -1.064876e+05
   1.161900e+06   1.359044e+06
  -5.983727e+04   1.677356e+06
  -1.474155e+06   6.657230e+05
  -1.939136e+06  -7.909203e+05
  -1.127001e+06  -1.630142e+06
   1.257506e+05  -1.485107e+06
   7.403625e+05  -8.542791e+05
   6.190433e+05  -4.786702e+05
   6.389132e+05  -5.408951e+05
   1.369973e+06  -5.286675e+05
   2.171705e+06   1.003738e+05
   1.879343e+06   1.236109e+06
   2.470206e+05   2.153992e+06
  -1.613797e+06   2.139912e+06
  -2.291013e+06   1.073550e+06
  -1.418973e+06  -4.148208e+05
   4.971455e+04  -1.305269e+06
   7.981927e+05  -9.828121e+05
   3.444891e+05   9.779639e+04
  -6.146517e+05   7.378459e+05
  -9.930732e+05   2.750761e+05
  -4.395002e+05  -6.064310e+05
   3.565428e+05  -7.080371e+05
   4.768883e+05   1.166882e+05
  -2.207460e+05   7.055519e+05
  -9.883021e+05   5.473751e+04
  -9.720891e+05  -1.366749e+06
   5.761228e+03  -2.111737e+06
   1.336458e+06  -1.366465e+06
   2.099235e+06   2.633219e+05
   1.722266e+06   1.494895e+06
   4.596658e+05   1.591153e+06
  -7.138274e+05   8.387185e+05
  -9.242688e+05   9.186336e+04
  -2.750668e+05  -2.783190e+04
   2.502660e+05   3.815834e+05
  -8.364633e+04   6.854157e+05
  -8.850661e+05   4.024594e+05
  -1.115724e+06  -2.737163e+05
  -3.781300e+05  -6.928618e+05
   5.631861e+05  -4.646306e+05
   6.452127e+05   1.358653e+05
  -2.838883e+05   4.718622e+05
  -1.272793e+06   1.572116e+05
  -1.247337e+06  -6.168038e+05
  -9.853389e+04  -1.232323e+06
   1.201873e+06  -1.122994e+06
   1.536531e+06  -2.851711e+05
   7.062940e+05   6.092045e+05
  -4.120415e+05   7.759344e+05
  -7.578332e+05   1.360526e+05
  -1.125671e+05  -5.398870e+05
   7.711494e+05  -4.602758e+05
   9.928707e+05   2.948042e+05
   3.719327e+05   8.912458e+05
  -4.687532e+05   7.175384e+05
  -7.623467e+05   3.760377e+04
  -3.169717e+05  -3.832869e+05
   3.269122e+05  -1.352848e+05
   4.186547e+05   4.614220e+05
  -2.418300e+05   7.389356e+05
  -1.033361e+06   3.311032e+05
  -1.102864e+06  -5.002405e+05
  -2.818482e+05  -1.088721e+06
   6.896707e+05  -9.449695e+05
   9.423936e+05  -2.106354e+05
   3.837665e+05   4.613555e+05
  -2.961631e+05   5.343683e+05
  -4.403815e+05   9.433094e+04
  -6.633682e+04  -3.071210e+05
   3.009330e+05  -2.810543e+05
   2.565474e+05   1.022065e+04
  -1.002686e+05   1.043393e+05
  -3.092371e+05  -1.977518e+05
  -1.223645e+04  -5.811756e+05
   6.561146e+05  -5.284977e+05
   1.108400e+06   1.306883e+05
   8.337572e+05   9.790561e+05
  -4.957834e+04   1.342589e+06
  -8.556952e+05   9.113425e+05
  -1.016667e+06   4.565287e+04
  -6.274349e+05  -5.672920e+05
  -2.275094e+05  -5.745822e+05
  -1.408028e+05  -2.462903e+05
  -1.869074e+05  -9.963418e+04
  -2.036083e+04  -2.980275e+05
   4.039553e+05  -4.927399e+05
   7.556381e+05  -2.586696e+05
   6.387755e+05   3.733963e+05
  -3.355794e+04   8.682241e+05
  -8.787031e+05   6.856729e+05
  -1.249865e+06  -1.627189e+05
  -7.503059e+05  -1.056634e+06
   3.465497e+05  -1.294621e+06
   1.253083e+06  -7.199854e+05
   1.351623e+06   1.614235e+05
   7.307793e+05   6.879965e+05
   1.476234e+04   6.560378e+05
  -2.872586e+05   4.177638e+05
  -2.009422e+05   4.012646e+05
  -1.146070e+05   6.078832e+05
  -3.014553e+05   6.367084e+05
  -6.361662e+05   1.830901e+05
  -7.322885e+05  -5.564022e+05
  -3.491605e+05  -1.018260e+06
   3.068671e+05  -8.055049e+05
   7.105266e+05  -7.346728e+04
   5.150417e+05   6.072747e+05
  -7.654708e+04   7.557842e+05
  -5.052439e+05   3.620021e+05
  -4.364631e+05  -1.833052e+05
  -7.825666e+04  -4.836935e+05
   1.124029e+05  -4.536325e+05
  -2.879897e+04  -2.917179e+05
  -2.028991e+05  -2.083437e+05
  -1.213899e+04  -2.129725e+05
   5.544298e+05  -1.498552e+05
   1.030212e+06   9.765081e+04
   8.947750e+05   4.552095e+05
   1.230390e+05   6.961767e+05
  -7.092481e+05   6.288569e+05
  -9.462354e+05   2.749795e+05
  -5.019225e+05  -1.143376e+05
   7.915106e+04  -2.509582e+05
   2.370847e+05  -7.759030e+04
  -3.045194e+04   1.506667e+05
  -2.891982e+05   1.169078e+05
  -2.494675e+05  -1.890362e+05
  -4.887532e+04  -4.193827e+05
   2.780643e+04  -2.698162e+05
  -8.018582e+04   1.094195e+05
  -1.981828e+05   2.418513e+05
  -1.480827e+05  -9.439344e+04
   1.044996e+05  -5.448679e+05
   4.370485e+05  -5.637214e+05
   6.001763e+05  -6.279470e+04
   3.637964e+05   4.722219e+05
  -1.974300e+05   5.297949e+05
  -6.076621e+05   1.115567e+05
  -3.922052e+05  -3.293202e+05
   3.459720e+05  -3.830600e+05
   9.053870e+05  -3.088314e+04
   6.846207e+05   4.194697e+05
  -1.514030e+05   6.190484e+05
  -8.243081e+05   4.250038e+05
  -7.557222e+05  -4.982537e+02
  -1.362698e+05  -2.974262e+05
   3.329357e+05  -2.144352e+05
   1.899362e+05   1.146188e+05
  -3.441581e+05   2.542328e+05
  -6.367020e+05  -8.247816e+04
  -3.077803e+05  -6.662472e+05
   3.919301e+05  -9.091569e+05
   8.498683e+05  -4.474555e+05
   6.992987e+05   4.343472e+05
   1.272269e+05   1.006542e+06
  -3.855297e+05   7.758689e+05
  -5.270198e+05  -1.867748e+04
  -3.249102e+05  -6.337493e+05
   1.247285e+04  -5.794112e+05
   2.756306e+05  -9.495234e+04
   3.234540e+05   2.048076e+05
   1.622293e+05   8.751630e+04
   1.393899e+03  -7.640675e+04
   6.744812e+04   1.119484e+05
   2.695108e+05   5.051329e+05
   2.104017e+05   6.090670e+05
  -2.967816e+05   2.480183e+05
  -8.402017e+05  -2.313803e+05
  -7.976152e+05  -4.371085e+05
  -1.210575e+05  -3.640575e+05
   5.299825e+05  -2.381712e+05
   5.629048e+05  -1.434341e+05
   1.430736e+05  -1.368457e+04
  -1.045539e+05   1.244451e+05
   5.573810e+04   1.516104e+05
   2.255950e+05   8.419395e+04
   1.826881e+02   7.092156e+04
  -4.431925e+05   1.096707e+05
  -5.641711e+05  -1.263541e+04
  -1.299576e+05  -3.625693e+05
   5.248679e+05  -6.139123e+05
   8.731173e+05  -3.772387e+05
   6.817397e+05   2.697195e+05
   1.342311e+05   7.831845e+05
  -3.826145e+05   7.330671e+05
  -5.633483e+05   2.524473e+05
  -3.712821e+05  -1.585933e+05
  -4.584505e+04  -1.891143e+05
   1.039554e+05   7.879921e+03
  -1.692106e+04   6.184963e+04
  -2.049111e+05  -1.707774e+05
  -1.815528e+05  -4.365777e+05
   1.011775e+05  -3.615705e+05
   3.921917e+05   1.045039e+05
   3.764552e+05   5.649441e+05
  -7.787125e+03   5.620397e+05
  -4.604787e+05   7.405133e+04
  -5.539934e+05  -4.553181e+05
  -1.512825e+05  -5.926651e+05
   3.986908e+05  -3.221144e+05
   5.757167e+05   5.270852e+04
   2.529397e+05   2.774175e+05
  -1.436403e+05   3.042415e+05
  -1.392573e+05   1.902483e+05
   2.040601e+05   3.156316e+04
   3.715033e+05  -1.501496e+04
   5.783000e+04   1.551391e+05
  -4.471702e+05   3.900539e+05
  -6.287191e+05   3.578483e+05
  -3.530961e+05  -4.065654e+04
   5.219575e+04  -4.534293e+05
   2.388228e+05  -4.458129e+05
   1.664949e+05  -4.094133e+04
  -2.690608e+03   2.910436e+05
  -1.417214e+05   2.032885e+05
  -1.988077e+05  -1.383401e+05
  -1.338973e+05  -3.171732e+05
   4.337183e+04  -1.806559e+05
   2.138845e+05   4.739285e+04
   2.423803e+05   1.095750e+05
   1.322197e+05   1.494617e+04
   1.039124e+04  -3.547500e+04
  -4.243945e+04   7.354299e+04
  -7.212143e+04   2.348713e+05
  -1.430367e+05   2.407217e+05
  -2.153051e+05   1.422412e+04
  -1.770327e+05  -2.791482e+05
   1.602929e+04  -3.667910e+05
   2.530425e+05  -1.454693e+05
   3.260174e+05   1.900182e+05
   1.121082e+05   3.364590e+05
  -2.574693e+05   1.933514e+05
  -4.491650e+05  -6.319261e+04
  -2.479601e+05  -2.059047e+05
   1.599393e+05  -1.780446e+05
   3.366474e+05  -7.463566e+04
   9.260330e+04   1.121217e+03
  -2.574491e+05  -3.772119e+03
  -2.543255e+05  -9.809411e+04
   1.420381e+05  -2.042010e+05
   4.954573e+05  -1.548494e+05
