
 $NMID
 id='ANONYMOUS ', fmtdat='(2E16.6)'
 volume=1.0
 tramp=1.0
 $END
   1.982246e+07   1.052105e+06
   1.210468e+07   1.054776e+07
  -1.382087e+06   1.245392e+07
  -8.897031e+06   7.031213e+06
  -6.546205e+06  -1.279879e+05
   6.422993e+04  -3.345446e+06
   3.734643e+06  -1.160719e+06
   2.392911e+06   3.156898e+06
  -1.232326e+06   4.803637e+06
  -3.577018e+06   1.915967e+06
  -2.982187e+06  -2.569554e+06
  -3.079975e+05  -3.941210e+06
   1.877042e+06  -8.586937e+05
   1.424689e+06   3.135840e+06
  -1.195311e+06   3.620368e+06
  -3.140293e+06   9.537000e+04
  -2.127707e+06  -3.867972e+06
   1.151100e+06  -4.698906e+06
   3.847165e+06  -2.139895e+06
   3.859652e+06   1.255409e+06
   1.670003e+06   2.937008e+06
  -3.958436e+05   2.435578e+06
  -4.784888e+05   1.272478e+06
   9.833753e+05   1.191337e+06
   1.612865e+06   2.316131e+06
  -3.302021e+05   3.034962e+06
  -3.638310e+06   1.892906e+06
  -5.050184e+06  -5.939332e+05
  -2.862086e+06  -2.412301e+06
   9.209656e+05  -2.200148e+06
   2.695915e+06  -4.663925e+05
   1.176782e+06   1.180397e+06
  -1.533241e+06   1.436181e+06
  -2.611674e+06   6.897626e+04
  -1.410228e+06  -1.900840e+06
   4.831009e+05  -2.688451e+06
   1.304612e+06  -1.316855e+06
   7.157973e+05   9.296350e+05
  -2.794854e+05   1.510876e+06
  -4.858599e+05  -2.884802e+05
   3.656582e+05  -2.131924e+06
   1.349859e+06  -1.463050e+06
   1.224013e+06   1.052417e+06
  -2.169132e+05   2.242449e+06
  -1.693060e+06   4.984240e+05
  -1.572817e+06  -2.214399e+06
   4.359767e+05  -2.863778e+06
   2.778707e+06  -8.357502e+05
   3.345550e+06   1.797275e+06
   1.429547e+06   2.797007e+06
  -1.472852e+06   1.732344e+06
  -2.907639e+06  -1.826307e+05
  -1.758538e+06  -1.384634e+06
   6.440407e+05  -1.117574e+06
   1.894004e+06   8.464730e+04
   1.023681e+06   9.136907e+05
  -6.108241e+05   5.839987e+05
  -1.055100e+06  -3.636014e+05
  -7.269014e+03  -7.648559e+05
   1.018129e+06  -2.005685e+05
   6.074349e+05   6.469297e+05
  -9.220670e+05   8.565596e+05
  -1.916288e+06   1.001468e+05
  -1.140161e+06  -1.250148e+06
   1.007001e+06  -2.335418e+06
   2.888208e+06  -2.171750e+06
   3.125846e+06  -4.395246e+05
   1.785734e+06   1.855427e+06
   1.659903e+05   3.040055e+06
  -5.661739e+05   2.475055e+06
  -4.536171e+05   1.232373e+06
  -4.154143e+05   6.945179e+05
  -1.007516e+06   8.481475e+05
  -1.782101e+06   5.474245e+05
  -1.869200e+06  -6.923690e+05
  -9.349371e+05  -1.860833e+06
   5.009321e+05  -1.643390e+06
   1.470811e+06  -2.722474e+04
   1.225891e+06   1.612736e+06
  -1.764010e+05   1.884841e+06
  -1.727580e+06   6.354634e+05
  -2.168622e+06  -1.056892e+06
  -1.175421e+06  -1.944911e+06
   2.553998e+05  -1.676672e+06
   9.037021e+05  -9.231946e+05
   7.223965e+05  -5.287871e+05
   7.562913e+05  -6.063902e+05
   1.626394e+06  -5.312096e+05
   2.535882e+06   2.475174e+05
   2.125139e+06   1.534426e+06
   1.529848e+05   2.510377e+06
  -2.023313e+06   2.405208e+06
  -2.727893e+06   1.122213e+06
  -1.589947e+06  -5.744493e+05
   1.626680e+05  -1.508823e+06
   9.498589e+05  -1.061894e+06
   3.216255e+05   1.406384e+05
  -7.707300e+05   7.622327e+05
  -1.093477e+06   2.040838e+05
  -4.067821e+05  -6.950865e+05
   4.239150e+05  -7.108387e+05
   4.680673e+05   1.832312e+05
  -3.047039e+05   7.311982e+05
  -1.082577e+06  -4.215075e+04
  -1.021745e+06  -1.580032e+06
   5.766896e+04  -2.359112e+06
   1.541515e+06  -1.515518e+06
   2.409137e+06   3.262661e+05
   1.961087e+06   1.750182e+06
   4.810148e+05   1.864953e+06
  -8.609480e+05   9.646994e+05
  -1.060339e+06   8.348807e+04
  -3.100802e+05  -2.669618e+04
   2.372592e+05   4.583565e+05
  -1.751966e+05   7.479416e+05
  -1.026423e+06   3.516910e+05
  -1.187265e+06  -3.975230e+05
  -3.191158e+05  -7.594929e+05
   6.810062e+05  -4.106166e+05
   6.798719e+05   2.478924e+05
  -4.188703e+05   5.276661e+05
  -1.517023e+06   8.620521e+04
  -1.417089e+06  -7.994508e+05
  -4.074217e+04  -1.433636e+06
   1.450062e+06  -1.228718e+06
   1.767836e+06  -2.514037e+05
   7.512864e+05   7.096870e+05
  -5.172662e+05   8.236326e+05
  -8.365424e+05   8.990439e+04
  -5.283782e+04  -6.044011e+05
   9.152189e+05  -4.433653e+05
   1.089315e+06   4.041115e+05
   3.531592e+05   1.004699e+06
  -5.563463e+05   7.431463e+05
  -8.158489e+05  -2.105831e+04
  -2.748897e+05  -4.240818e+05
   4.186344e+05  -6.043261e+04
   4.341676e+05   6.334239e+05
  -3.852444e+05   8.745495e+05
  -1.269111e+06   3.090414e+05
  -1.259782e+06  -6.679680e+05
  -2.535147e+05  -1.274676e+06
   8.386661e+05  -1.035069e+06
   1.054646e+06  -1.966200e+05
   3.742505e+05   5.068936e+05
  -3.727956e+05   5.425769e+05
  -4.716361e+05   5.375751e+04
  -3.811041e+03  -3.541979e+05
   4.007757e+05  -2.827635e+05
   2.965264e+05   5.695447e+04
  -1.547083e+05   1.329801e+05
  -3.836857e+05  -2.595779e+05
   1.166910e+04  -7.116661e+05
   8.162869e+05  -6.027832e+05
   1.308959e+06   2.193217e+05
   9.303021e+05   1.200545e+06
  -1.149632e+05   1.557606e+06
  -1.015446e+06   1.007669e+06
  -1.162461e+06   2.258530e+04
  -7.104289e+05  -6.379838e+05
  -2.747594e+05  -6.334974e+05
  -1.965388e+05  -2.862553e+05
  -2.504678e+05  -1.514252e+05
  -3.563713e+04  -3.889287e+05
   4.951684e+05  -5.996969e+05
   9.331587e+05  -3.004748e+05
   7.800522e+05   4.627994e+05
  -6.261297e+04   1.040305e+06
  -1.083910e+06   7.845548e+05
  -1.474453e+06  -2.543487e+05
  -8.072439e+05  -1.286858e+06
   5.051535e+05  -1.487685e+06
   1.506816e+06  -7.498271e+05
   1.539243e+06   2.682046e+05
   7.858869e+05   8.171759e+05
  -1.719856e+04   7.359722e+05
  -3.311949e+05   4.681606e+05
  -2.294594e+05   4.771933e+05
  -1.555347e+05   7.214972e+05
  -3.890986e+05   7.319324e+05
  -7.596896e+05   1.789100e+05
  -8.288797e+05  -6.877474e+05
  -3.529785e+05  -1.204576e+06
   3.996682e+05  -9.172075e+05
   8.246503e+05  -3.417208e+04
   5.533842e+05   7.482475e+05
  -1.469260e+05   8.704458e+05
  -6.199667e+05   3.638547e+05
  -4.926582e+05  -2.725730e+05
  -3.605005e+04  -5.809103e+05
   1.887396e+05  -5.070851e+05
  -1.272121e+04  -3.169530e+05
  -2.531598e+05  -2.432397e+05
  -2.456632e+04  -2.569874e+05
   6.743570e+05  -1.568041e+05
   1.236966e+06   1.699916e+05
   1.027252e+06   5.941950e+05
   6.947512e+04   8.347103e+05
  -8.964360e+05   6.964929e+05
  -1.114913e+06   2.519038e+05
  -5.545784e+05  -1.860290e+05
   1.188659e+05  -3.035745e+05
   2.881707e+05  -7.075804e+04
  -1.951204e+04   1.994934e+05
  -3.187512e+05   1.489974e+05
  -2.937307e+05  -2.174517e+05
  -8.090348e+04  -4.893388e+05
   1.672368e+04  -3.163030e+05
  -9.118006e+04   1.215571e+05
  -2.353385e+05   2.672808e+05
  -1.921912e+05  -1.342306e+05
   1.230965e+05  -6.602684e+05
   5.606851e+05  -6.659217e+05
   7.671972e+05  -5.415216e+04
   4.460494e+05   5.872205e+05
  -2.636105e+05   6.454733e+05
  -7.457330e+05   1.339313e+05
  -4.585566e+05  -3.886885e+05
   4.182825e+05  -4.325089e+05
   1.045345e+06  -1.733555e+03
   7.590758e+05   5.097103e+05
  -2.107632e+05   6.977195e+05
  -9.645657e+05   4.392484e+05
  -8.601404e+05  -4.247358e+04
  -1.356093e+05  -3.436809e+05
   3.987859e+05  -2.167240e+05
   2.173901e+05   1.605639e+05
  -4.135718e+05   2.989833e+05
  -7.530728e+05  -1.091539e+05
  -3.608925e+05  -7.904192e+05
   4.622836e+05  -1.066891e+06
   9.943782e+05  -5.196811e+05
   8.070615e+05   5.135033e+05
   1.272227e+05   1.171537e+06
  -4.688896e+05   8.810587e+05
  -6.082029e+05  -5.593663e+04
  -3.379856e+05  -7.543697e+05
   6.417831e+04  -6.597554e+05
   3.388213e+05  -8.499402e+04
   3.540608e+05   2.488308e+05
   1.635143e+05   1.012640e+05
   8.037595e+03  -7.738927e+04
   9.871098e+04   1.573185e+05
   3.019641e+05   6.069275e+05
   1.967795e+05   7.021666e+05
  -3.811940e+05   2.643870e+05
  -9.658037e+05  -2.945476e+05
  -8.937112e+05  -5.289922e+05
  -1.292534e+05  -4.359632e+05
   6.044957e+05  -2.723491e+05
   6.534438e+05  -1.444794e+05
   1.841360e+05   3.903739e+03
  -1.150367e+05   1.420842e+05
   4.454076e+04   1.592152e+05
   2.424246e+05   9.140679e+04
   6.633453e+03   9.224938e+04
  -5.013688e+05   1.328533e+05
  -6.675079e+05  -2.892235e+04
  -1.782690e+05  -4.433862e+05
   6.105990e+05  -7.226949e+05
   1.054207e+06  -4.316526e+05
   8.284927e+05   3.249883e+05
   1.495694e+05   9.197830e+05
  -4.802560e+05   8.606337e+05
  -6.792424e+05   2.994583e+05
  -4.343776e+05  -1.867716e+05
  -5.693451e+04  -2.323868e+05
   1.056521e+05  -8.962681e+03
  -2.715920e+04   5.312764e+04
  -2.214759e+05  -2.147680e+05
  -1.837905e+05  -5.180541e+05
   1.313504e+05  -4.241314e+05
   4.547721e+05   1.216672e+05
   4.391119e+05   6.601588e+05
   1.415472e+03   6.637278e+05
  -5.285112e+05   1.009522e+05
  -6.489171e+05  -5.245035e+05
  -1.801405e+05  -7.027823e+05
   4.753381e+05  -3.894049e+05
   6.910831e+05   7.226073e+04
   3.014258e+05   3.576393e+05
  -1.879397e+05   3.798261e+05
  -1.968448e+05   2.177585e+05
   2.156397e+05   2.275194e+04
   4.333761e+05  -1.553557e+04
   7.337697e+04   1.899108e+05
  -5.327877e+05   4.417121e+05
  -7.616430e+05   3.801463e+05
  -4.315069e+05  -7.898923e+04
   7.199139e+04  -5.378157e+05
   3.128659e+05  -5.221448e+05
   2.240593e+05  -5.816085e+04
   6.139419e+03   3.336693e+05
  -1.686944e+05   2.508324e+05
  -2.336928e+05  -1.439614e+05
  -1.536804e+05  -3.751856e+05
   5.301690e+04  -2.317732e+05
   2.513736e+05   5.183915e+04
   2.846647e+05   1.504414e+05
   1.522102e+05   3.284746e+04
   6.648988e+03  -6.115265e+04
  -4.467499e+04   5.026330e+04
  -5.805310e+04   2.651944e+05
  -1.350756e+05   3.098958e+05
  -2.453838e+05   5.386248e+04
  -2.344824e+05  -3.100512e+05
  -1.276533e+04  -4.336183e+05
   2.912192e+05  -1.788971e+05
   3.970677e+05   2.184814e+05
   1.376011e+05   3.923119e+05
  -3.146542e+05   2.241145e+05
  -5.411375e+05  -7.767202e+04
  -2.921141e+05  -2.481615e+05
   1.947412e+05  -2.198901e+05
   4.038836e+05  -9.776190e+04
   1.242681e+05   9.839291e+02
  -2.799067e+05   8.583548e+03
  -2.881241e+05  -9.495251e+04
   1.498044e+05  -2.229904e+05
   5.510623e+05  -1.758287e+05
