
 $NMID
 id='ANONYMOUS ', fmtdat='(2E16.6)'
 volume=1.0
 tramp=1.0
 $END
  -5.220175e+07  -3.050249e+05
  -3.152209e+07  -3.203704e+07
   6.629583e+06  -3.521407e+07
   2.554033e+07  -1.401531e+07
   1.557553e+07   6.047913e+06
  -2.841089e+06   8.726496e+06
  -9.267136e+06  -8.085397e+05
  -2.895377e+06  -9.083293e+06
   5.636569e+06  -9.045676e+06
   9.062296e+06  -2.100403e+06
   6.575310e+06   5.874990e+06
   7.025773e+05   8.184088e+06
  -3.804071e+06   2.492320e+06
  -2.478435e+06  -5.347739e+06
   3.545365e+06  -6.368729e+06
   7.415882e+06   1.144776e+06
   4.220332e+06   9.565528e+06
  -3.511102e+06   1.107212e+07
  -9.447696e+06   5.468283e+06
  -1.000977e+07  -2.032334e+06
  -5.977622e+06  -6.981371e+06
  -5.308425e+05  -7.856817e+06
   2.538407e+06  -5.458141e+06
   1.376461e+06  -2.644665e+06
  -1.208806e+06  -2.413531e+06
  -5.525370e+04  -4.196712e+06
   5.417981e+06  -4.056698e+06
   9.287652e+06  -1.953341e+05
   6.567105e+06   4.067705e+06
  -1.462514e+04   4.734687e+06
  -3.735067e+06   2.212003e+06
  -2.299442e+06  -2.669753e+05
   9.170414e+05  -1.044970e+06
   2.513217e+06  -3.329225e+05
   2.103257e+06   1.675318e+06
   4.100660e+05   3.898949e+06
  -1.820003e+06   3.530366e+06
  -2.856180e+06  -2.724810e+05
  -1.377333e+06  -3.376771e+06
   7.145956e+05  -1.558260e+06
   1.389429e+05   2.537420e+06
  -2.428609e+06   2.256818e+06
  -2.354682e+06  -2.969560e+06
   2.118083e+06  -5.743877e+06
   6.286674e+06  -1.010857e+06
   4.705317e+06   6.366966e+06
  -1.719093e+06   7.892935e+06
  -6.928809e+06   2.225128e+06
  -6.636587e+06  -4.237971e+06
  -1.845795e+06  -5.796714e+06
   3.330121e+06  -2.675744e+06
   5.140537e+06   1.402447e+06
   2.443805e+06   3.327789e+06
  -2.218071e+06   2.126861e+06
  -4.282995e+06  -8.239857e+05
  -1.886322e+06  -2.536274e+06
   1.602830e+06  -1.292925e+06
   1.714941e+06   9.812113e+05
  -1.145800e+06   9.801060e+05
  -2.379079e+06  -1.450586e+06
   3.518485e+05  -3.111317e+06
   4.143584e+06  -1.846674e+06
   4.963385e+06   1.131476e+06
   2.231061e+06   3.675677e+06
  -1.789265e+06   4.973970e+06
  -4.935241e+06   4.534849e+06
  -5.956372e+06   1.524061e+06
  -4.249068e+06  -3.113321e+06
  -7.857263e+05  -5.919715e+06
   1.757218e+06  -4.615893e+06
   1.647160e+06  -1.327014e+06
   2.802551e+05   7.538378e+04
   2.359792e+05  -9.673209e+05
   1.765753e+06  -1.574985e+06
   2.774320e+06   5.369546e+03
   1.870788e+06   2.080729e+06
  -1.438319e+05   2.172686e+06
  -1.656765e+06   1.283715e+05
  -1.658294e+06  -2.173167e+06
   8.706971e+04  -2.918697e+06
   2.751296e+06  -1.508859e+06
   4.259975e+06   1.288567e+06
   2.970318e+06   3.642295e+06
  -1.009695e+05   3.962274e+06
  -2.139814e+06   2.515111e+06
  -2.071581e+06   1.091710e+06
  -1.755324e+06   7.124951e+05
  -2.900098e+06   4.927966e+05
  -4.286436e+06  -7.683078e+05
  -3.421961e+06  -2.765512e+06
  -7.931211e+04  -4.100886e+06
   3.262515e+06  -3.822008e+06
   4.208226e+06  -1.990007e+06
   2.605902e+06   5.290610e+05
   1.565933e+05   2.237260e+06
  -1.178577e+06   1.861524e+06
  -5.476467e+05  -6.956454e+04
   1.124158e+06  -1.269897e+06
   1.884752e+06  -3.608960e+05
   8.652053e+05   1.195215e+06
  -5.583276e+05   1.099835e+06
  -4.676049e+05  -3.953365e+05
   1.015376e+06  -7.623178e+05
   1.857573e+06   1.147045e+06
   7.512084e+05   3.394439e+06
  -1.458900e+06   3.476291e+06
  -3.108407e+06   1.253833e+06
  -3.379053e+06  -1.396306e+06
  -2.331340e+06  -2.830101e+06
  -4.333318e+05  -2.672293e+06
   1.284844e+06  -1.444505e+06
   1.591087e+06  -1.832270e+05
   4.919603e+05   5.430905e+04
  -3.478025e+05  -7.566603e+05
   4.157376e+05  -1.319884e+06
   1.883639e+06  -5.516132e+05
   2.009542e+06   8.886043e+05
   3.816561e+05   1.403606e+06
  -1.176015e+06   5.629259e+05
  -9.066818e+05  -4.726379e+05
   8.495658e+05  -5.498184e+05
   2.220575e+06   3.153545e+05
   1.783295e+06   1.398906e+06
  -2.602207e+05   2.015373e+06
  -2.351376e+06   1.647303e+06
  -2.789694e+06   2.354223e+05
  -1.197039e+06  -1.272334e+06
   9.294454e+05  -1.467532e+06
   1.536593e+06  -1.640695e+05
   1.721295e+05   1.067501e+06
  -1.524299e+06   7.083847e+05
  -1.712827e+06  -7.999838e+05
  -3.335834e+05  -1.663355e+06
   1.096799e+06  -9.876293e+05
   1.267885e+06   3.075688e+05
   2.557547e+05   7.830640e+05
  -7.866821e+05   4.917363e+04
  -7.155797e+05  -1.062641e+06
   6.057718e+05  -1.411937e+06
   2.021036e+06  -5.016113e+05
   2.016828e+06   1.089367e+06
   3.502897e+05   2.081639e+06
  -1.462249e+06   1.623604e+06
  -1.732141e+06   1.907431e+05
  -4.986422e+05  -8.768549e+05
   6.706349e+05  -8.011305e+05
   6.487894e+05  -6.137660e+04
  -1.199109e+05   3.850410e+05
  -5.204318e+05   2.199474e+05
  -1.575179e+05  -8.310078e+04
   4.364951e+05   4.772275e+04
   5.249077e+05   6.589252e+05
  -2.076517e+05   1.186141e+06
  -1.395058e+06   8.807858e+05
  -2.080307e+06  -4.465943e+05
  -1.434950e+06  -1.971087e+06
   2.597938e+05  -2.428352e+06
   1.650506e+06  -1.404612e+06
   1.711987e+06   1.465794e+05
   8.660595e+05   9.353896e+05
   3.055068e+05   6.995722e+05
   4.485531e+05   2.469671e+05
   6.012300e+05   3.097074e+05
   7.870752e+04   7.509099e+05
  -8.870627e+05   8.946041e+05
  -1.465469e+06   3.126642e+05
  -1.056618e+06  -7.508418e+05
   2.691864e+05  -1.482153e+06
   1.750761e+06  -1.059956e+06
   2.255220e+06   5.210876e+05
   1.113725e+06   2.124449e+06
  -1.034550e+06   2.358424e+06
  -2.556943e+06   1.007326e+06
  -2.360358e+06  -6.841839e+05
  -9.632026e+05  -1.364980e+06
   2.139997e+05  -9.719288e+05
   4.210048e+05  -5.223835e+05
   1.206562e+05  -7.436759e+05
   1.358062e+05  -1.286459e+06
   6.853166e+05  -1.268095e+06
   1.291997e+06  -2.956644e+05
   1.318475e+06   1.106571e+06
   5.239103e+05   1.909954e+06
  -6.504930e+05   1.430328e+06
  -1.292259e+06  -2.076944e+04
  -8.002719e+05  -1.293672e+06
   4.009444e+05  -1.395675e+06
   1.160976e+06  -4.078194e+05
   8.062840e+05   6.869856e+05
  -1.203582e+05   1.066877e+06
  -5.299143e+05   7.841750e+05
  -8.578645e+04   4.270567e+05
   4.237280e+05   3.475220e+05
   5.065606e+04   3.866495e+05
  -1.148693e+06   1.963663e+05
  -2.054253e+06  -3.602421e+05
  -1.606505e+06  -1.059276e+06
   4.615557e+04  -1.432194e+06
   1.596350e+06  -1.117419e+06
   1.838764e+06  -2.588474e+05
   8.374903e+05   4.937936e+05
  -2.621650e+05   5.603158e+05
  -5.111592e+05   3.356699e+04
  -2.180953e+04  -4.113896e+05
   4.526640e+05  -2.477008e+05
   4.756462e+05   3.503767e+05
   2.304565e+05   7.288664e+05
   7.799686e+04   4.795829e+05
   1.430450e+05  -1.001115e+05
   2.965468e+05  -2.955142e+05
   2.750884e+05   2.369997e+05
  -1.640060e+05   9.892706e+05
  -9.178176e+05   1.053543e+06
  -1.354668e+06   1.519319e+05
  -8.287365e+05  -9.269156e+05
   4.308016e+05  -1.127453e+06
   1.257129e+06  -3.123696e+05
   7.248794e+05   5.887048e+05
  -7.133486e+05   6.422270e+05
  -1.598460e+06  -1.187571e+05
  -1.007950e+06  -8.854490e+05
   4.967785e+05  -9.954555e+05
   1.519699e+06  -4.665233e+05
   1.244704e+06   2.093750e+05
   1.294447e+05   5.221823e+05
  -6.575119e+05   2.636851e+05
  -3.801836e+05  -2.981252e+05
   5.966910e+05  -5.113228e+05
   1.184288e+06   1.022576e+05
   6.516834e+05   1.195106e+06
  -6.201049e+05   1.697426e+06
  -1.503544e+06   8.650003e+05
  -1.250525e+06  -7.803425e+05
  -1.768315e+05  -1.804685e+06
   7.654620e+05  -1.292362e+06
   9.305740e+05   1.902295e+05
   4.176540e+05   1.207219e+06
  -2.355776e+05   9.750440e+05
  -5.673995e+05   7.750297e+04
  -4.634078e+05  -3.889641e+05
  -1.623263e+05  -1.432113e+05
  -5.083954e+04   9.619218e+04
  -2.780626e+05  -2.975608e+05
  -4.990403e+05  -9.779973e+05
  -1.757395e+05  -1.090288e+06
   7.250477e+05  -3.898551e+05
   1.476686e+06   4.893681e+05
   1.274998e+06   8.626364e+05
   1.765499e+05   7.057885e+05
  -8.626818e+05   4.080073e+05
  -9.928812e+05   1.682700e+05
  -3.648445e+05  -5.751518e+04
   1.484634e+05  -2.244264e+05
   4.243716e+04  -2.071029e+05
  -2.607948e+05  -9.939124e+04
  -5.050434e+04  -1.333947e+05
   6.636806e+05  -2.282299e+05
   1.052905e+06   2.208966e+04
   4.343051e+05   6.985143e+05
  -8.542934e+05   1.176156e+06
  -1.720260e+06   7.477357e+05
  -1.420432e+06  -4.432632e+05
  -2.635771e+05  -1.416174e+06
   7.873531e+05  -1.378835e+06
   1.060457e+06  -5.348235e+05
   6.550655e+05   2.375208e+05
   1.337503e+05   3.611733e+05
  -6.459923e+04   6.781890e+04
   8.562899e+04  -1.243452e+04
   2.962329e+05   3.764951e+05
   2.376700e+05   8.172016e+05
  -1.850847e+05   6.830375e+05
  -6.814891e+05  -1.232297e+05
  -7.386262e+05  -9.574646e+05
  -1.171146e+05  -1.037524e+06
   7.525586e+05  -2.501792e+05
   1.036636e+06   7.248735e+05
   3.479968e+05   1.098401e+06
  -7.199732e+05   6.826188e+05
  -1.129085e+06  -8.023920e+04
  -5.368414e+05  -6.255151e+05
   2.928374e+05  -6.887222e+05
   3.917910e+05  -3.711014e+05
  -2.397360e+05  -9.892966e+03
  -6.515409e+05   3.532925e+04
  -1.485558e+05  -3.121623e+05
   8.367707e+05  -6.753845e+05
   1.281081e+06  -5.285743e+05
   7.762998e+05   1.896207e+05
  -1.021448e+05   8.776870e+05
  -5.695497e+05   8.630041e+05
  -4.373334e+05   1.684748e+05
  -5.474700e+04  -4.777503e+05
   2.409398e+05  -4.413549e+05
   3.510361e+05   1.420633e+05
   2.531795e+05   5.822637e+05
  -5.184333e+04   4.372879e+05
  -3.928704e+05  -4.350118e+04
  -4.813059e+05  -2.912555e+05
  -2.447060e+05  -1.042804e+05
   3.957995e+04   1.574462e+05
   8.618954e+04   5.876399e+04
  -2.127843e+04  -3.474188e+05
   3.337605e+04  -5.599169e+05
   3.130678e+05  -2.339076e+05
   4.693511e+05   3.707106e+05
   1.707256e+05   6.480966e+05
  -4.068746e+05   3.182642e+05
  -6.726552e+05  -2.771298e+05
  -2.568327e+05  -5.737635e+05
   5.156072e+05  -3.673082e+05
   8.933271e+05   7.501643e+04
   4.833181e+05   3.819159e+05
  -2.964050e+05   4.091206e+05
  -6.456019e+05   2.363299e+05
  -2.600736e+05   2.036047e+04
   3.358764e+05  -7.349824e+04
   4.034045e+05   5.512041e+04
  -1.623813e+05   2.836234e+05
  -7.338251e+05   2.675005e+05
