
 $NMID
 id='ANONYMOUS ', fmtdat='(2E16.6)'
 volume=1.0
 tramp=1.0
 $END
   3.069117e+07   1.336137e+06
   1.900114e+07   1.694226e+07
  -2.387930e+06   1.981738e+07
  -1.432840e+07   1.049169e+07
  -1.027512e+07  -9.848798e+05
   4.301441e+05  -5.329032e+06
   5.938089e+06  -1.299384e+06
   3.341681e+06   5.180789e+06
  -2.399016e+06   7.150264e+06
  -5.671547e+06   2.598416e+06
  -4.432309e+06  -3.951178e+06
  -3.511878e+05  -5.862231e+06
   2.763991e+06  -1.303304e+06
   1.903508e+06   4.584336e+06
  -2.074753e+06   5.260628e+06
  -4.851620e+06  -6.810348e+04
  -3.106568e+06  -6.011356e+06
   1.916567e+06  -7.173494e+06
   5.907058e+06  -3.273046e+06
   5.916431e+06   1.802471e+06
   2.751983e+06   4.390655e+06
  -3.454736e+05   3.881092e+06
  -7.885441e+05   2.304836e+06
   1.017704e+06   2.002354e+06
   1.940816e+06   3.310956e+06
  -6.011821e+05   4.204946e+06
  -5.195920e+06   2.608586e+06
  -7.266368e+06  -9.202512e+05
  -4.209024e+06  -3.520635e+06
   1.192219e+06  -3.161219e+06
   3.725542e+06  -6.663762e+05
   1.580189e+06   1.529151e+06
  -2.146005e+06   1.731965e+06
  -3.517633e+06  -1.046031e+05
  -1.820562e+06  -2.631474e+06
   7.109412e+05  -3.701124e+06
   1.825891e+06  -1.970902e+06
   1.117024e+06   1.125889e+06
  -2.070579e+05   2.162861e+06
  -5.637395e+05  -1.942873e+05
   5.960806e+05  -2.879347e+06
   2.045285e+06  -2.020022e+06
   1.806929e+06   1.705815e+06
  -5.360439e+05   3.547811e+06
  -2.872606e+06   8.338039e+05
  -2.541805e+06  -3.479552e+06
   7.307750e+05  -4.526041e+06
   4.272165e+06  -1.281177e+06
   4.908843e+06   2.849557e+06
   1.904307e+06   4.258116e+06
  -2.321991e+06   2.432773e+06
  -4.260432e+06  -5.298834e+05
  -2.449509e+06  -2.228089e+06
   1.107203e+06  -1.663666e+06
   2.888871e+06   2.424940e+05
   1.498951e+06   1.477809e+06
  -9.613341e+05   8.765666e+05
  -1.510791e+06  -6.238570e+05
   1.858119e+05  -1.122796e+06
   1.649507e+06  -5.323856e+04
   7.787276e+05   1.280483e+06
  -1.665874e+06   1.371542e+06
  -3.043132e+06  -1.964234e+04
  -1.698632e+06  -2.031669e+06
   1.522052e+06  -3.442498e+06
   4.226242e+06  -3.091747e+06
   4.562550e+06  -6.086908e+05
   2.627886e+06   2.691556e+06
   1.912305e+05   4.452639e+06
  -1.012584e+06   3.629306e+06
  -8.613399e+05   1.705701e+06
  -6.467132e+05   8.047065e+05
  -1.337897e+06   1.036440e+06
  -2.405780e+06   7.124023e+05
  -2.546937e+06  -9.678038e+05
  -1.231752e+06  -2.578738e+06
   7.486499e+05  -2.228183e+06
   2.011467e+06   6.821640e+04
   1.603379e+06   2.335913e+06
  -3.360279e+05   2.659441e+06
  -2.474031e+06   8.726994e+05
  -3.115069e+06  -1.536524e+06
  -1.734609e+06  -2.849175e+06
   3.505503e+05  -2.521556e+06
   1.371294e+06  -1.433700e+06
   1.160169e+06  -7.948456e+05
   1.194033e+06  -8.221579e+05
   2.407599e+06  -6.416327e+05
   3.656454e+06   5.258224e+05
   2.970663e+06   2.344632e+06
   6.536164e+04   3.612848e+06
  -3.025909e+06   3.322791e+06
  -3.927796e+06   1.469419e+06
  -2.225972e+06  -8.560011e+05
   2.730778e+05  -2.101995e+06
   1.363591e+06  -1.466348e+06
   4.468050e+05   1.974651e+05
  -1.126338e+06   1.046372e+06
  -1.586922e+06   2.427683e+05
  -5.732666e+05  -1.013364e+06
   6.310669e+05  -9.803132e+05
   6.285316e+05   3.148600e+05
  -5.617754e+05   1.004843e+06
  -1.616039e+06  -2.459826e+05
  -1.310049e+06  -2.465567e+06
   3.946748e+05  -3.401422e+06
   2.425005e+06  -1.970378e+06
   3.410928e+06   7.296757e+05
   2.608062e+06   2.652678e+06
   5.274636e+05   2.669329e+06
  -1.276091e+06   1.313951e+06
  -1.503216e+06   6.211393e+04
  -4.414755e+05  -5.651377e+04
   3.108531e+05   6.721105e+05
  -3.014837e+05   1.080576e+06
  -1.515162e+06   4.571483e+05
  -1.700075e+06  -6.578592e+05
  -4.078118e+05  -1.131487e+06
   1.010542e+06  -5.413880e+05
   9.385520e+05   4.105543e+05
  -6.653754e+05   7.038647e+05
  -2.170235e+06  -2.685240e+04
  -1.926998e+06  -1.259827e+06
   7.505415e+04  -2.032750e+06
   2.158838e+06  -1.638029e+06
   2.542403e+06  -2.399921e+05
   1.040652e+06   1.071356e+06
  -7.882016e+05   1.171456e+06
  -1.222506e+06   9.559857e+04
  -5.820689e+04  -8.734788e+05
   1.338653e+06  -5.858785e+05
   1.537731e+06   6.571322e+05
   4.237975e+05   1.472906e+06
  -8.709832e+05   1.016648e+06
  -1.173336e+06  -1.104425e+05
  -3.517504e+05  -6.428931e+05
   6.182714e+05  -6.305008e+04
   5.903146e+05   9.339471e+05
  -5.966208e+05   1.229159e+06
  -1.828320e+06   3.721828e+05
  -1.764021e+06  -1.025536e+06
  -2.877690e+05  -1.842433e+06
   1.270721e+06  -1.434712e+06
   1.528650e+06  -2.104639e+05
   4.976681e+05   7.573047e+05
  -5.746541e+05   7.497014e+05
  -6.643534e+05   4.215159e+04
   3.958141e+04  -4.902510e+05
   5.855978e+05  -3.465919e+05
   3.808662e+05   1.136839e+05
  -2.656759e+05   1.595367e+05
  -5.361020e+05  -4.266097e+05
   7.629733e+04  -1.032015e+06
   1.214445e+06  -8.109348e+05
   1.861116e+06   3.973723e+05
   1.259298e+06   1.774675e+06
  -2.618559e+05   2.214543e+06
  -1.519280e+06   1.359527e+06
  -1.652841e+06  -6.134459e+04
  -9.421421e+05  -9.533887e+05
  -3.250540e+05  -8.878926e+05
  -2.707893e+05  -3.864558e+05
  -3.780397e+05  -2.278864e+05
  -3.935030e+04  -5.725375e+05
   7.551718e+05  -8.269501e+05
   1.355157e+06  -3.563058e+05
   1.066315e+06   7.150951e+05
  -1.766038e+05   1.469243e+06
  -1.603633e+06   1.038419e+06
  -2.085520e+06  -4.634071e+05
  -1.064128e+06  -1.899690e+06
   8.320509e+05  -2.106474e+06
   2.221322e+06  -9.725158e+05
   2.184480e+06   5.040096e+05
   1.044422e+06   1.232523e+06
  -9.860579e+04   1.034547e+06
  -4.970017e+05   6.168678e+05
  -3.242809e+05   6.536973e+05
  -2.405327e+05   1.032434e+06
  -5.983173e+05   1.039474e+06
  -1.103799e+06   2.192526e+05
  -1.145718e+06  -1.028726e+06
  -4.324130e+05  -1.739747e+06
   6.242349e+05  -1.284142e+06
   1.180254e+06   7.072967e+03
   7.440062e+05   1.115413e+06
  -2.777992e+05   1.244298e+06
  -9.354872e+05   4.730392e+05
  -7.042047e+05  -4.464580e+05
  -4.860114e+03  -8.581202e+05
   3.270531e+05  -7.225211e+05
   1.647634e+04  -4.489394e+05
  -3.486449e+05  -3.550645e+05
  -2.132670e+04  -3.648711e+05
   9.834074e+05  -1.841930e+05
   1.771737e+06   3.173004e+05
   1.435987e+06   9.202633e+05
   3.905172e+04   1.216334e+06
  -1.338502e+06   9.547603e+05
  -1.620517e+06   2.839012e+05
  -7.859540e+05  -3.229833e+05
   1.913923e+05  -4.402225e+05
   4.259086e+05  -7.810119e+04
  -2.715638e+04   2.926693e+05
  -4.556680e+05   1.937913e+05
  -4.086235e+05  -3.264961e+05
  -9.881246e+04  -6.913490e+05
   2.940153e+04  -4.420948e+05
  -1.414613e+05   1.568576e+05
  -3.478108e+05   3.483416e+05
  -2.645485e+05  -2.068629e+05
   2.111898e+05  -9.266095e+05
   8.406007e+05  -9.203720e+05
   1.111499e+06  -5.025630e+04
   6.188980e+05   8.556220e+05
  -4.079409e+05   9.199863e+05
  -1.075419e+06   1.663176e+05
  -6.310582e+05  -5.764578e+05
   6.290736e+05  -5.911550e+05
   1.490376e+06   7.337409e+04
   1.034475e+06   7.888798e+05
  -3.651943e+05   9.784663e+05
  -1.411105e+06   5.442515e+05
  -1.217317e+06  -1.320273e+05
  -1.626138e+05  -4.994087e+05
   5.881856e+05  -2.784260e+05
   3.078891e+05   2.447085e+05
  -5.972786e+05   4.052304e+05
  -1.063404e+06  -1.890441e+05
  -4.780720e+05  -1.136155e+06
   7.039709e+05  -1.491337e+06
   1.435949e+06  -6.878367e+05
   1.117621e+06   7.743316e+05
   1.110342e+05   1.673013e+06
  -7.257265e+05   1.219146e+06
  -8.656767e+05  -1.278214e+05
  -4.263227e+05  -1.102441e+06
   1.484872e+05  -9.357746e+05
   4.948834e+05  -9.691140e+04
   4.788209e+05   3.789987e+05
   2.146086e+05   1.564042e+05
   2.185434e+04  -1.086020e+05
   1.498217e+05   2.295935e+05
   4.005908e+05   8.834045e+05
   2.236986e+05   1.016736e+06
  -5.750090e+05   3.587178e+05
  -1.355869e+06  -4.791278e+05
  -1.229269e+06  -8.143563e+05
  -1.575703e+05  -6.324110e+05
   8.666596e+05  -3.472480e+05
   9.379596e+05  -1.602069e+05
   2.742853e+05   1.834922e+04
  -1.677155e+05   1.944464e+05
   3.830703e+04   2.298077e+05
   3.229963e+05   1.445827e+05
   8.669130e+03   1.283499e+05
  -7.053063e+05   1.572249e+05
  -9.487692e+05  -7.546095e+04
  -2.485723e+05  -6.339370e+05
   8.951514e+05  -9.951443e+05
   1.530559e+06  -5.680741e+05
   1.173633e+06   4.947696e+05
   1.637461e+05   1.313790e+06
  -7.351676e+05   1.204459e+06
  -9.804243e+05   3.963696e+05
  -6.021443e+05  -2.849083e+05
  -7.341952e+04  -3.315460e+05
   1.355847e+05  -8.301616e+03
  -5.075184e+04   6.753245e+04
  -2.991024e+05  -3.260071e+05
  -2.266024e+05  -7.514992e+05
   2.074007e+05  -5.978903e+05
   6.334694e+05   1.920788e+05
   5.906050e+05   9.526591e+05
  -2.103053e+04   9.390843e+05
  -7.441448e+05   1.216669e+05
  -8.922048e+05  -7.702949e+05
  -2.251959e+05  -1.007301e+06
   6.920078e+05  -5.357195e+05
   9.843327e+05   1.352084e+05
   4.206936e+05   5.311473e+05
  -2.839866e+05   5.420718e+05
  -3.015185e+05   3.071356e+05
   2.922279e+05   4.634759e+04
   6.141353e+05   2.253610e+03
   9.882634e+04   2.746932e+05
  -7.847513e+05   5.972013e+05
  -1.120593e+06   4.948168e+05
  -6.261083e+05  -1.397548e+05
   1.295759e+05  -7.657620e+05
   4.825176e+05  -7.358545e+05
   3.291727e+05  -8.444026e+04
  -6.672821e+03   4.675939e+05
  -2.489113e+05   3.526347e+05
  -3.185318e+05  -2.084859e+05
  -1.990786e+05  -5.416558e+05
   8.075832e+04  -3.347903e+05
   3.530158e+05   8.328030e+04
   4.042855e+05   2.353677e+05
   2.184725e+05   6.160861e+04
   3.449836e+03  -9.184398e+04
  -7.563136e+04   5.270584e+04
  -8.707147e+04   3.600774e+05
  -1.835941e+05   4.338165e+05
  -3.357856e+05   7.794212e+04
  -3.233301e+05  -4.350396e+05
  -1.108002e+04  -6.065447e+05
   4.166624e+05  -2.406354e+05
   5.562102e+05   3.226871e+05
   1.769871e+05   5.592341e+05
  -4.627395e+05   3.047362e+05
  -7.696330e+05  -1.328142e+05
  -4.049549e+05  -3.676572e+05
   2.852571e+05  -3.098643e+05
   5.779804e+05  -1.276281e+05
   1.839662e+05   2.213598e+03
  -3.831444e+05  -1.346198e+03
  -3.941174e+05  -1.421902e+05
   2.202543e+05  -2.971638e+05
   7.789096e+05  -2.117231e+05
