
 $NMID
 id='ANONYMOUS ', fmtdat='(2E16.6)'
 volume=1.0
 tramp=1.0
 $END
   2.101783e+07   9.497415e+05
   1.346594e+07   1.072117e+07
  -8.194468e+05   1.334284e+07
  -9.512424e+06   8.187471e+06
  -7.528132e+06   3.390830e+05
  -2.021793e+05  -3.744528e+06
   4.277661e+06  -1.557725e+06
   2.924951e+06   3.506167e+06
  -1.302162e+06   5.594396e+06
  -4.015985e+06   2.313743e+06
  -3.257198e+06  -2.838342e+06
  -2.541318e+05  -4.363788e+06
   2.043949e+06  -8.402852e+05
   1.451602e+06   3.642538e+06
  -1.413151e+06   4.163974e+06
  -3.521693e+06   2.115040e+05
  -2.418423e+06  -4.238554e+06
   1.181206e+06  -5.187277e+06
   4.124637e+06  -2.340711e+06
   4.068094e+06   1.362444e+06
   1.667458e+06   3.040637e+06
  -3.884037e+05   2.375461e+06
  -2.212779e+05   1.291610e+06
   1.366418e+06   1.584661e+06
   1.748346e+06   2.966427e+06
  -6.488406e+05   3.488720e+06
  -4.255991e+06   1.857244e+06
  -5.592204e+06  -9.792105e+05
  -2.998641e+06  -2.772294e+06
   1.221145e+06  -2.258538e+06
   3.063168e+06  -2.065428e+05
   1.126119e+06   1.529917e+06
  -2.063461e+06   1.550765e+06
  -3.126031e+06  -2.062204e+05
  -1.433445e+06  -2.377015e+06
   8.187858e+05  -3.002997e+06
   1.479902e+06  -1.310266e+06
   5.381452e+05   1.072557e+06
  -4.852340e+05   1.505518e+06
  -4.004608e+05  -5.268551e+05
   6.634485e+05  -2.450245e+06
   1.619970e+06  -1.637702e+06
   1.407536e+06   1.143458e+06
  -8.249725e+04   2.522059e+06
  -1.676742e+06   7.187132e+05
  -1.711986e+06  -2.257716e+06
   3.473807e+05  -3.086232e+06
   2.987252e+06  -9.140350e+05
   3.747376e+06   2.060172e+06
   1.619270e+06   3.227591e+06
  -1.720028e+06   1.984443e+06
  -3.373499e+06  -2.511392e+05
  -2.053277e+06  -1.620133e+06
   6.811904e+05  -1.294098e+06
   2.115189e+06   6.213186e+04
   1.176540e+06   9.953679e+05
  -6.595716e+05   6.444955e+05
  -1.214537e+06  -4.421549e+05
  -3.787040e+04  -9.755048e+05
   1.245701e+06  -3.663539e+05
   9.110309e+05   7.049815e+05
  -8.648119e+05   1.087248e+06
  -2.153008e+06   2.513716e+05
  -1.333551e+06  -1.338095e+06
   1.180202e+06  -2.551373e+06
   3.339887e+06  -2.285066e+06
   3.487066e+06  -3.407107e+05
   1.853677e+06   2.119643e+06
   5.980277e+04   3.382165e+06
  -6.679186e+05   2.823159e+06
  -5.554904e+05   1.514308e+06
  -6.291804e+05   8.517786e+05
  -1.349156e+06   8.578008e+05
  -2.125162e+06   3.944726e+05
  -2.051784e+06  -1.010746e+06
  -8.718751e+05  -2.239828e+06
   7.583706e+05  -1.846837e+06
   1.741081e+06   1.146540e+05
   1.308992e+06   1.980269e+06
  -3.339769e+05   2.148984e+06
  -1.987289e+06   5.911816e+05
  -2.342776e+06  -1.311130e+06
  -1.197683e+06  -2.179039e+06
   3.148691e+05  -1.790229e+06
   9.574321e+05  -9.835964e+05
   7.689614e+05  -6.206738e+05
   8.809246e+05  -7.190925e+05
   1.907636e+06  -5.714118e+05
   2.918767e+06   3.802594e+05
   2.384143e+06   1.859183e+06
   5.396099e+04   2.905433e+06
  -2.466255e+06   2.661521e+06
  -3.201228e+06   1.112319e+06
  -1.761185e+06  -7.779232e+05
   3.204657e+05  -1.709942e+06
   1.165858e+06  -1.126929e+06
   3.429944e+05   1.919295e+05
  -9.373396e+05   8.183553e+05
  -1.253726e+06   1.756084e+05
  -4.136088e+05  -7.994236e+05
   5.405957e+05  -7.813271e+05
   5.538169e+05   2.546913e+05
  -3.850338e+05   8.930244e+05
  -1.315424e+06  -2.029212e+04
  -1.220933e+06  -1.874594e+06
   1.131052e+05  -2.835162e+06
   1.895290e+06  -1.798166e+06
   2.857624e+06   4.733979e+05
   2.226115e+06   2.179060e+06
   4.534684e+05   2.223378e+06
  -1.058531e+06   1.064695e+06
  -1.227955e+06   2.605220e+04
  -3.556946e+05  -4.631800e+04
   2.496751e+05   5.426368e+05
  -2.272427e+05   8.504510e+05
  -1.183679e+06   3.620716e+05
  -1.350085e+06  -4.995180e+05
  -3.424623e+05  -8.853808e+05
   8.103359e+05  -4.421760e+05
   7.862361e+05   3.369958e+05
  -5.252238e+05   6.224296e+05
  -1.805801e+06   3.257273e+04
  -1.634565e+06  -1.029206e+06
   3.017626e+04  -1.700084e+06
   1.760574e+06  -1.360061e+06
   2.063318e+06  -1.999746e+05
   8.330425e+05   8.473416e+05
  -6.231907e+05   9.118385e+05
  -9.484170e+05   6.748596e+04
  -2.401807e+04  -6.834824e+05
   1.074878e+06  -4.605817e+05
   1.242924e+06   5.183598e+05
   3.694904e+05   1.187648e+06
  -6.815973e+05   8.513239e+05
  -9.582752e+05  -5.486163e+04
  -3.094368e+05  -5.091728e+05
   4.841585e+05  -5.449552e+04
   4.667850e+05   7.538760e+05
  -4.958970e+05   9.872278e+05
  -1.482649e+06   2.835433e+05
  -1.415757e+06  -8.395241e+05
  -2.270814e+05  -1.482891e+06
   1.016392e+06  -1.154754e+06
   1.227941e+06  -1.794385e+05
   4.110916e+05   6.050928e+05
  -4.606183e+05   6.106970e+05
  -5.540169e+05   2.584897e+04
   2.376374e+04  -4.331124e+05
   5.079999e+05  -3.109441e+05
   3.630884e+05   1.096841e+05
  -1.929288e+05   1.815670e+05
  -4.559549e+05  -3.082467e+05
   3.346501e+04  -8.320954e+05
   9.742560e+05  -6.641843e+05
   1.505547e+06   3.191200e+05
   1.013575e+06   1.435423e+06
  -2.174849e+05   1.797544e+06
  -1.237977e+06   1.120625e+06
  -1.363483e+06  -3.518481e+04
  -7.961630e+05  -7.980818e+05
  -2.684658e+05  -7.755600e+05
  -1.862583e+05  -3.448733e+05
  -2.728164e+05  -1.681478e+05
  -3.061852e+04  -4.401492e+05
   6.000172e+05  -6.785714e+05
   1.108258e+06  -3.085790e+05
   8.918090e+05   5.887575e+05
  -1.288776e+05   1.223398e+06
  -1.306691e+06   8.623326e+05
  -1.702536e+06  -3.735492e+05
  -8.764972e+05  -1.537062e+06
   6.509937e+05  -1.705066e+06
   1.781810e+06  -8.045668e+05
   1.783902e+06   3.840598e+05
   8.843268e+05   1.002551e+06
  -6.308973e+04   8.752079e+05
  -4.320763e+05   5.289408e+05
  -3.093697e+05   5.197064e+05
  -2.166636e+05   8.040675e+05
  -4.765316e+05   8.190119e+05
  -8.787088e+05   1.690808e+05
  -9.176004e+05  -8.382429e+05
  -3.411294e+05  -1.411351e+06
   5.135335e+05  -1.037342e+06
   9.594349e+05   3.984321e+03
   6.090789e+05   8.929138e+05
  -2.059075e+05   1.006954e+06
  -7.362699e+05   4.094589e+05
  -5.708312e+05  -3.229421e+05
  -3.210723e+04  -6.757992e+05
   2.326265e+05  -5.931713e+05
   1.990800e+03  -3.787360e+05
  -2.748580e+05  -2.946102e+05
  -1.282770e+04  -2.983282e+05
   7.852044e+05  -1.539718e+05
   1.418853e+06   2.510144e+05
   1.162204e+06   7.368423e+05
   5.123542e+04   9.719442e+05
  -1.060696e+06   7.655271e+05
  -1.305250e+06   2.421613e+05
  -6.465224e+05  -2.361231e+05
   1.428661e+05  -3.441364e+05
   3.388162e+05  -7.526703e+04
  -2.825759e+04   2.184043e+05
  -3.767527e+05   1.498609e+05
  -3.263393e+05  -2.647391e+05
  -5.682600e+04  -5.630265e+05
   4.504023e+04  -3.566492e+05
  -1.188779e+05   1.417200e+05
  -3.020219e+05   2.982423e+05
  -2.201844e+05  -1.665613e+05
   1.837451e+05  -7.575182e+05
   6.827395e+05  -7.408603e+05
   8.754867e+05  -2.693822e+04
   4.745709e+05   6.930703e+05
  -3.308316e+05   7.246588e+05
  -8.547808e+05   1.132373e+05
  -5.053480e+05  -4.748978e+05
   5.057859e+05  -4.822388e+05
   1.218050e+06   5.196880e+04
   8.657880e+05   6.393724e+05
  -2.791157e+05   8.126131e+05
  -1.154638e+06   4.673282e+05
  -1.008131e+06  -9.676795e+04
  -1.409048e+05  -4.118473e+05
   4.766517e+05  -2.342809e+05
   2.426611e+05   1.923620e+05
  -4.948271e+05   3.149709e+05
  -8.575930e+05  -1.731636e+05
  -3.627522e+05  -9.288565e+05
   5.983338e+05  -1.195031e+06
   1.175845e+06  -5.359558e+05
   9.009688e+05   6.403576e+05
   7.977447e+04   1.362358e+06
  -5.956928e+05   9.980732e+05
  -7.082907e+05  -9.434151e+04
  -3.562658e+05  -8.972521e+05
   1.082754e+05  -7.723430e+05
   3.986460e+05  -8.510402e+04
   4.001926e+05   3.149019e+05
   1.872854e+05   1.348700e+05
   1.322325e+04  -9.307746e+04
   1.014596e+05   1.745989e+05
   3.142782e+05   7.138694e+05
   1.941469e+05   8.321828e+05
  -4.490443e+05   2.947620e+05
  -1.101961e+06  -3.957054e+05
  -1.011606e+06  -6.686495e+05
  -1.281794e+05  -5.111362e+05
   7.193131e+05  -2.747978e+05
   7.687018e+05  -1.309578e+05
   2.117922e+05   5.670111e+03
  -1.424329e+05   1.544811e+05
   4.620676e+04   1.973803e+05
   2.787721e+05   1.315251e+05
  -7.970229e+02   1.049769e+05
  -5.922161e+05   1.143676e+05
  -7.666784e+05  -7.226460e+04
  -1.715358e+05  -5.094898e+05
   7.483092e+05  -7.885495e+05
   1.231129e+06  -4.394666e+05
   9.251470e+05   4.160665e+05
   1.170522e+05   1.069080e+06
  -5.984348e+05   9.673182e+05
  -7.963262e+05   3.031721e+05
  -4.883529e+05  -2.457577e+05
  -4.960132e+04  -2.685791e+05
   1.245155e+05   6.702518e+03
  -3.736262e+04   6.751815e+04
  -2.497447e+05  -2.621910e+05
  -1.859270e+05  -6.122426e+05
   1.759278e+05  -4.791891e+05
   5.146202e+05   1.731598e+05
   4.598986e+05   7.875990e+05
  -4.330924e+04   7.569231e+05
  -6.127691e+05   7.490937e+04
  -7.101552e+05  -6.461484e+05
  -1.640327e+05  -8.160821e+05
   5.662804e+05  -4.163051e+05
   7.882557e+05   1.207719e+05
   3.290540e+05   4.210933e+05
  -2.313422e+05   4.223083e+05
  -2.326131e+05   2.448832e+05
   2.511841e+05   4.737755e+04
   5.019001e+05   9.180840e+03
   7.323849e+04   2.197472e+05
  -6.409657e+05   4.806748e+05
  -9.004016e+05   4.064111e+05
  -4.925703e+05  -1.036734e+05
   1.113896e+05  -6.134482e+05
   3.822095e+05  -5.883884e+05
   2.505963e+05  -5.677123e+04
  -1.790408e+04   3.844607e+05
  -2.063461e+05   2.753141e+05
  -2.558871e+05  -1.853802e+05
  -1.550078e+05  -4.409866e+05
   7.027487e+04  -2.575852e+05
   2.841632e+05   7.641107e+04
   3.221507e+05   1.836134e+05
   1.775446e+05   4.278007e+04
   9.310637e+03  -6.265608e+04
  -6.424846e+04   6.494660e+04
  -9.409370e+04   2.979284e+05
  -1.781485e+05   3.313975e+05
  -2.785694e+05   3.371239e+04
  -2.378439e+05  -3.697838e+05
   2.117626e+04  -4.910394e+05
   3.460924e+05  -1.838981e+05
   4.378042e+05   2.744126e+05
   1.310251e+05   4.597702e+05
  -3.731876e+05   2.417570e+05
  -6.137401e+05  -1.194432e+05
  -3.209453e+05  -3.013083e+05
   2.326178e+05  -2.380794e+05
   4.641320e+05  -8.589583e+04
   1.375245e+05   4.214039e+03
  -3.248557e+05  -1.785997e+04
  -3.223807e+05  -1.353365e+05
   1.951021e+05  -2.469210e+05
   6.541355e+05  -1.618410e+05
