
 $NMID
 id='ANONYMOUS ', fmtdat='(2E16.6)'
 volume=1.0
 tramp=1.0
 $END
   4.303183e+07  -1.788399e+06
   2.792428e+07   2.395794e+07
  -2.934971e+06   2.902379e+07
  -2.014464e+07   1.396963e+07
  -1.381956e+07  -3.011450e+06
   1.313586e+06  -7.499007e+06
   8.010690e+06  -6.398354e+05
   3.651286e+06   7.350109e+06
  -3.838794e+06   8.683984e+06
  -7.605176e+06   2.835212e+06
  -5.972095e+06  -4.790126e+06
  -9.075557e+05  -7.229228e+06
   3.266091e+06  -2.142360e+06
   2.463416e+06   5.014098e+06
  -2.673611e+06   6.173365e+06
  -6.444268e+06  -3.021853e+05
  -4.246019e+06  -7.900234e+06
   2.304261e+06  -9.640594e+06
   7.697176e+06  -4.993314e+06
   8.346292e+06   1.476815e+06
   4.893581e+06   5.566314e+06
   5.426545e+05   6.064647e+06
  -1.436731e+06   4.221144e+06
  -1.331974e+05   2.554159e+06
   1.629743e+06   2.911861e+06
  -1.354353e+05   4.278609e+06
  -5.260061e+06   3.632991e+06
  -8.487537e+06   3.478675e+04
  -5.739381e+06  -3.597113e+06
   3.716484e+05  -4.037829e+06
   3.689796e+06  -1.631250e+06
   1.958731e+06   7.863725e+05
  -1.541440e+06   1.378942e+06
  -3.039232e+06   1.578374e+05
  -2.026317e+06  -2.109298e+06
  -7.167507e+02  -3.840113e+06
   1.690600e+06  -2.916484e+06
   2.050543e+06   5.286202e+05
   7.998484e+05   2.757141e+06
  -5.300743e+05   7.724062e+05
   1.546405e+05  -2.732561e+06
   2.225074e+06  -2.292573e+06
   2.299266e+06   2.333349e+06
  -1.122390e+06   4.961893e+06
  -4.745611e+06   1.303514e+06
  -4.103132e+06  -4.878911e+06
   8.817959e+05  -6.555218e+06
   5.701153e+06  -2.159423e+06
   6.162312e+06   3.387014e+06
   2.172448e+06   5.144038e+06
  -2.832496e+06   2.776895e+06
  -4.930165e+06  -8.147800e+05
  -2.664045e+06  -2.804655e+06
   1.648010e+06  -2.077442e+06
   3.768180e+06   3.654442e+05
   1.874162e+06   2.011272e+06
  -1.273091e+06   1.203398e+06
  -1.707496e+06  -7.708551e+05
   6.840254e+05  -1.156306e+06
   2.200779e+06   6.474068e+05
   3.723905e+05   2.363431e+06
  -2.963741e+06   1.906388e+06
  -4.242851e+06  -3.766731e+05
  -2.219014e+06  -2.876343e+06
   1.482101e+06  -4.423572e+06
   4.512423e+06  -4.132811e+06
   5.342613e+06  -1.364237e+06
   3.683808e+06   2.783439e+06
   7.654543e+05   5.307245e+06
  -1.252987e+06   4.344132e+06
  -1.284392e+06   1.633510e+06
  -5.101078e+05   3.430290e+05
  -7.534246e+05   9.817896e+05
  -2.035706e+06   1.219570e+06
  -2.691416e+06  -3.795542e+05
  -1.648633e+06  -2.291617e+06
   3.790566e+05  -2.233539e+06
   1.860877e+06  -7.012014e+04
   1.734418e+06   2.256717e+06
  -1.094925e+05   2.860270e+06
  -2.612584e+06   1.335176e+06
  -3.840787e+06  -1.259786e+06
  -2.593268e+06  -3.202219e+06
   3.715502e+04  -3.354200e+06
   1.693283e+06  -2.154204e+06
   1.633544e+06  -1.081095e+06
   1.510519e+06  -8.646090e+05
   2.727486e+06  -6.903167e+05
   4.126052e+06   5.092879e+05
   3.395700e+06   2.506756e+06
   2.230359e+05   3.967247e+06
  -3.092205e+06   3.789584e+06
  -4.096699e+06   1.929977e+06
  -2.490058e+06  -6.051944e+05
  -2.577449e+04  -2.205343e+06
   1.224815e+06  -1.745100e+06
   5.093963e+05   1.124545e+05
  -1.105463e+06   1.228797e+06
  -1.772729e+06   3.845421e+05
  -7.907471e+05  -1.097974e+06
   5.695542e+05  -1.084603e+06
   5.748858e+05   3.594899e+05
  -8.083065e+05   9.535266e+05
  -1.865824e+06  -6.684687e+05
  -1.191392e+06  -3.033076e+06
   8.675830e+05  -3.625760e+06
   2.851505e+06  -1.763941e+06
   3.557287e+06   1.005690e+06
   2.622609e+06   2.759651e+06
   5.725989e+05   2.732264e+06
  -1.264087e+06   1.458325e+06
  -1.578853e+06   1.815404e+05
  -4.818216e+05  -3.951611e+04
   3.662040e+05   7.228940e+05
  -3.190787e+05   1.255993e+06
  -1.732023e+06   5.951692e+05
  -1.949678e+06  -7.232290e+05
  -4.605485e+05  -1.297514e+06
   1.107914e+06  -6.115063e+05
   9.638912e+05   4.281600e+05
  -7.718388e+05   6.742505e+05
  -2.277314e+06  -1.120624e+05
  -1.949795e+06  -1.319658e+06
   1.155607e+05  -2.093492e+06
   2.268272e+06  -1.767189e+06
   2.735422e+06  -3.407959e+05
   1.200611e+06   1.163878e+06
  -8.262165e+05   1.396808e+06
  -1.415634e+06   1.967110e+05
  -1.629615e+05  -9.904136e+05
   1.446355e+06  -7.227734e+05
   1.703759e+06   6.905859e+05
   4.464077e+05   1.608325e+06
  -9.865826e+05   1.072247e+06
  -1.274046e+06  -1.759986e+05
  -3.402886e+05  -7.320638e+05
   7.241049e+05  -8.965982e+04
   7.119599e+05   9.995567e+05
  -5.650812e+05   1.378649e+06
  -1.958377e+06   5.226122e+05
  -1.982695e+06  -1.013119e+06
  -4.039454e+05  -2.005913e+06
   1.348686e+06  -1.627856e+06
   1.673628e+06  -2.678785e+05
   5.439353e+05   8.264968e+05
  -6.144861e+05   8.224433e+05
  -6.709805e+05   7.290367e+04
   7.656872e+04  -4.540820e+05
   5.649288e+05  -3.007485e+05
   2.719807e+05   1.055930e+05
  -3.753767e+05   7.355359e+04
  -5.749824e+05  -5.470473e+05
   1.054053e+05  -1.154279e+06
   1.313088e+06  -9.208560e+05
   2.043743e+06   3.602775e+05
   1.456334e+06   1.874706e+06
  -1.833613e+05   2.395608e+06
  -1.584817e+06   1.476226e+06
  -1.736676e+06  -5.371376e+04
  -9.537512e+05  -9.460838e+05
  -3.355260e+05  -8.017852e+05
  -3.743055e+05  -2.996381e+05
  -5.210655e+05  -2.489000e+05
  -9.271799e+04  -6.789920e+05
   8.153422e+05  -9.181127e+05
   1.442286e+06  -3.920679e+05
   1.113500e+06   7.211668e+05
  -1.850904e+05   1.527181e+06
  -1.691251e+06   1.137640e+06
  -2.250097e+06  -4.295853e+05
  -1.194405e+06  -2.033963e+06
   8.786293e+05  -2.338475e+06
   2.427652e+06  -1.110896e+06
   2.365980e+06   5.335905e+05
   1.076360e+06   1.310552e+06
  -1.363775e+05   1.040174e+06
  -4.577401e+05   5.916716e+05
  -1.965011e+05   7.133710e+05
  -1.393779e+05   1.195333e+06
  -6.113152e+05   1.214731e+06
  -1.221346e+06   3.144458e+05
  -1.306227e+06  -1.049192e+06
  -5.594160e+05  -1.856703e+06
   6.041504e+05  -1.417691e+06
   1.272834e+06  -3.025791e+04
   8.418437e+05   1.213376e+06
  -3.014070e+05   1.376459e+06
  -1.071799e+06   4.966583e+05
  -8.098913e+05  -5.578561e+05
   1.975842e+04  -1.002368e+06
   4.176360e+05  -8.004457e+05
   4.208754e+04  -4.549734e+05
  -4.083134e+05  -3.439086e+05
  -5.040113e+04  -3.831952e+05
   1.091418e+06  -2.384150e+05
   1.983013e+06   2.726053e+05
   1.604309e+06   9.619423e+05
   4.841549e+04   1.369676e+06
  -1.470313e+06   1.128239e+06
  -1.773724e+06   3.444921e+05
  -8.575555e+05  -3.951150e+05
   2.116348e+05  -5.276072e+05
   4.839405e+05  -7.588605e+04
   1.645984e+04   3.610815e+05
  -4.560563e+05   2.414229e+05
  -4.671606e+05  -3.303106e+05
  -1.959999e+05  -7.164964e+05
  -4.383415e+04  -4.664539e+05
  -1.456456e+05   1.349373e+05
  -3.228447e+05   3.358296e+05
  -2.857106e+05  -2.194680e+05
   1.582760e+05  -9.873026e+05
   8.655950e+05  -1.047723e+06
   1.261704e+06  -1.590329e+05
   7.794513e+05   8.811678e+05
  -3.867064e+05   1.069767e+06
  -1.184823e+06   2.959982e+05
  -7.165839e+05  -5.717026e+05
   6.688939e+05  -6.599052e+05
   1.593477e+06   4.577788e+04
   1.079125e+06   8.319807e+05
  -4.142423e+05   1.034758e+06
  -1.496021e+06   5.684543e+05
  -1.274182e+06  -1.376659e+05
  -1.661550e+05  -5.224225e+05
   6.335435e+05  -3.012833e+05
   3.664722e+05   2.647541e+05
  -5.920611e+05   4.910650e+05
  -1.155358e+06  -1.055531e+05
  -6.231302e+05  -1.169674e+06
   6.160229e+05  -1.656267e+06
   1.475390e+06  -8.501281e+05
   1.242548e+06   7.535846e+05
   2.105632e+05   1.779343e+06
  -7.232885e+05   1.315873e+06
  -9.320939e+05  -1.331666e+05
  -4.747801e+05  -1.175378e+06
   1.674081e+05  -9.928612e+05
   5.453469e+05  -1.098581e+05
   4.955752e+05   3.808856e+05
   1.960341e+05   1.509483e+05
   3.563594e+04  -1.077584e+05
   2.348517e+05   2.575395e+05
   4.983399e+05   9.375892e+05
   2.407071e+05   1.079978e+06
  -6.572787e+05   4.141498e+05
  -1.471943e+06  -4.464765e+05
  -1.314916e+06  -8.206665e+05
  -1.969193e+05  -6.821615e+05
   8.721142e+05  -4.151490e+05
   9.866730e+05  -2.016876e+05
   3.336800e+05   2.441605e+04
  -1.535801e+05   2.193076e+05
   1.253215e+03   2.288214e+05
   2.990755e+05   1.191045e+05
   3.566120e+04   1.308842e+05
  -6.912805e+05   2.177614e+05
  -1.027830e+06  -1.172673e+04
  -3.791170e+05  -6.632724e+05
   8.524363e+05  -1.142687e+06
   1.641407e+06  -7.409299e+05
   1.348076e+06   4.252006e+05
   2.696839e+05   1.390640e+06
  -7.322018e+05   1.356280e+06
  -1.026331e+06   5.172541e+05
  -6.514386e+05  -2.444829e+05
  -1.201613e+05  -3.492268e+05
   9.621259e+04  -3.905328e+04
  -7.300511e+04   4.403822e+04
  -3.193613e+05  -3.527560e+05
  -2.666361e+05  -7.987926e+05
   1.759956e+05  -6.639756e+05
   6.764892e+05   1.371162e+05
   7.150950e+05   9.508635e+05
   8.883196e+04   1.006613e+06
  -7.546394e+05   2.171786e+05
  -1.013237e+06  -7.278346e+05
  -3.348347e+05  -1.066346e+06
   6.975047e+05  -6.519417e+05
   1.087798e+06   6.797788e+04
   5.176486e+05   5.738638e+05
  -2.682418e+05   6.443704e+05
  -3.434924e+05   3.658025e+05
   2.703996e+05   2.321669e+04
   6.475550e+05  -3.949715e+04
   1.393917e+05   2.951520e+05
  -8.090668e+05   6.829315e+05
  -1.218520e+06   5.727236e+05
  -7.313291e+05  -1.393788e+05
   8.620193e+04  -8.478487e+05
   5.095660e+05  -8.449825e+05
   3.867362e+05  -1.501781e+05
   4.114038e+04   4.808311e+05
  -2.335481e+05   4.164911e+05
  -3.455767e+05  -1.661420e+05
  -2.530472e+05  -5.674564e+05
   4.919609e+04  -3.988041e+05
   3.831732e+05   5.027335e+04
   4.678087e+05   2.532117e+05
   2.435120e+05   7.740382e+04
  -2.743938e+04  -1.261940e+05
  -9.035077e+04  -2.520515e+03
  -2.127488e+04   3.570532e+05
  -8.487050e+04   5.068173e+05
  -3.179871e+05   1.720968e+05
  -4.184441e+05  -3.908361e+05
  -1.187064e+05  -6.321064e+05
   4.090447e+05  -3.005741e+05
   6.396456e+05   2.807505e+05
   2.426813e+05   5.701850e+05
  -4.891322e+05   3.645803e+05
  -8.558509e+05  -7.220611e+04
  -4.700165e+05  -3.665559e+05
   2.815928e+05  -3.808563e+05
   6.171761e+05  -2.121933e+05
   2.279494e+05  -2.135297e+04
  -3.621730e+05   4.678603e+04
  -4.071115e+05  -8.651533e+04
   1.870277e+05  -3.000096e+05
   7.645468e+05  -2.675231e+05
