
 $NMID
 id='ANONYMOUS ', fmtdat='(2E16.6)'
 volume=1.0
 tramp=1.0
 $END
  -3.149591e+07   1.317583e+06
  -2.032412e+07  -1.713831e+07
   2.010186e+06  -2.094433e+07
   1.443007e+07  -1.040820e+07
   9.971520e+06   1.846943e+06
  -8.831419e+05   5.468401e+06
  -5.856129e+06   7.416191e+05
  -2.891539e+06  -5.270955e+06
   2.564863e+06  -6.560423e+06
   5.523217e+06  -2.269060e+06
   4.469430e+06   3.573378e+06
   6.818552e+05   5.458391e+06
  -2.544168e+06   1.561651e+06
  -2.027676e+06  -3.866544e+06
   1.804959e+06  -4.734472e+06
   4.704876e+06   8.929460e+04
   3.200678e+06   5.722690e+06
  -1.590339e+06   7.028989e+06
  -5.599483e+06   3.615307e+06
  -6.079755e+06  -1.164294e+06
  -3.460436e+06  -4.143434e+06
  -2.307518e+05  -4.371396e+06
   1.065166e+06  -2.878437e+06
  -1.461147e+05  -1.699968e+06
  -1.522882e+06  -2.189117e+06
  -2.104791e+04  -3.386613e+06
   4.049522e+06  -2.905786e+06
   6.544847e+06  -8.913751e+04
   4.369382e+06   2.775273e+06
  -4.075386e+05   3.180521e+06
  -3.009201e+06   1.296334e+06
  -1.631728e+06  -7.322545e+05
   1.214031e+06  -1.315266e+06
   2.486312e+06  -2.713076e+05
   1.654179e+06   1.685757e+06
  -4.152608e+04   3.036728e+06
  -1.353930e+06   2.136509e+06
  -1.502661e+06  -6.015583e+05
  -4.644645e+05  -2.152507e+06
   5.087837e+05  -4.480297e+05
  -5.548413e+04   2.224269e+06
  -1.614714e+06   1.806296e+06
  -1.722927e+06  -1.678593e+06
   7.007794e+05  -3.605095e+06
   3.343631e+06  -9.332158e+05
   2.988616e+06   3.534297e+06
  -5.622937e+05   4.756618e+06
  -4.167629e+06   1.629961e+06
  -4.673946e+06  -2.381082e+06
  -1.781181e+06  -3.767712e+06
   2.044775e+06  -2.176423e+06
   3.736288e+06   4.427734e+05
   2.067998e+06   2.016560e+06
  -1.198207e+06   1.579780e+06
  -2.813160e+06  -2.162683e+05
  -1.405421e+06  -1.480739e+06
   9.534281e+05  -9.232749e+05
   1.321794e+06   5.440821e+05
  -4.136998e+05   8.977558e+05
  -1.583553e+06  -3.485281e+05
  -3.542176e+05  -1.609581e+06
   2.039236e+06  -1.383259e+06
   3.043595e+06   1.816262e+05
   1.650967e+06   2.035599e+06
  -1.069252e+06   3.297798e+06
  -3.371775e+06   3.158179e+06
  -4.017478e+06   1.058987e+06
  -2.767361e+06  -2.105045e+06
  -6.055013e+05  -4.001951e+06
   8.445691e+05  -3.261483e+06
   8.486291e+05  -1.254970e+06
   3.322958e+05  -3.545845e+05
   6.107659e+05  -8.762927e+05
   1.644750e+06  -1.022555e+06
   2.171829e+06   2.784311e+05
   1.363874e+06   1.827487e+06
  -2.707051e+05   1.829682e+06
  -1.521369e+06   1.395303e+05
  -1.460179e+06  -1.728417e+06
   2.724662e+04  -2.242920e+06
   2.019307e+06  -1.058152e+06
   2.944649e+06   9.532635e+05
   1.943158e+06   2.412416e+06
  -4.810221e+04   2.479191e+06
  -1.239262e+06   1.556829e+06
  -1.149507e+06   7.873977e+05
  -1.065871e+06   6.932614e+05
  -2.023993e+06   6.277306e+05
  -3.135482e+06  -2.470313e+05
  -2.653883e+06  -1.802185e+06
  -2.954932e+05  -3.028645e+06
   2.259295e+06  -3.002141e+06
   3.122717e+06  -1.585729e+06
   1.960368e+06   4.445169e+05
   5.507896e+04   1.746075e+06
  -9.547105e+05   1.383023e+06
  -4.219556e+05  -1.016586e+05
   8.371765e+05  -9.955800e+05
   1.371067e+06  -3.353476e+05
   6.232434e+05   8.482757e+05
  -4.425994e+05   8.804501e+05
  -5.004684e+05  -2.406346e+05
   5.251596e+05  -7.879388e+05
   1.400276e+06   3.545361e+05
   1.036808e+06   2.175082e+06
  -4.389240e+05   2.772058e+06
  -2.026653e+06   1.502617e+06
  -2.745766e+06  -5.823589e+05
  -2.149177e+06  -2.011220e+06
  -5.587965e+05  -2.093170e+06
   9.342172e+05  -1.161241e+06
   1.223059e+06  -1.732874e+05
   3.696844e+05   2.272271e+04
  -3.122196e+05  -5.466055e+05
   2.009698e+05  -9.717438e+05
   1.307191e+06  -5.051423e+05
   1.519879e+06   4.942538e+05
   4.020922e+05   9.892502e+05
  -8.369171e+05   5.317498e+05
  -7.935318e+05  -2.797261e+05
   5.215365e+05  -5.718974e+05
   1.744144e+06  -4.920144e+04
   1.580695e+06   9.143638e+05
   2.102877e+04   1.623778e+06
  -1.676197e+06   1.453510e+06
  -2.095303e+06   3.498110e+05
  -9.500260e+05  -8.633048e+05
   6.061597e+05  -1.088410e+06
   1.081649e+06  -1.737224e+05
   1.448577e+05   7.679671e+05
  -1.095852e+06   6.037585e+05
  -1.336486e+06  -4.726891e+05
  -4.072892e+05  -1.223016e+06
   7.136273e+05  -8.724040e+05
   9.946895e+05   7.561896e+04
   3.073813e+05   5.541641e+05
  -5.442190e+05   1.133607e+05
  -5.896973e+05  -7.295815e+05
   3.761885e+05  -1.077776e+06
   1.482227e+06  -4.690718e+05
   1.553377e+06   7.143000e+05
   3.714463e+05   1.527017e+06
  -9.857538e+05   1.288401e+06
  -1.280163e+06   2.519384e+05
  -4.509463e+05  -6.289998e+05
   4.489394e+05  -6.681649e+05
   5.412245e+05  -8.414336e+04
  -7.763747e+03   3.741772e+05
  -4.195927e+05   2.923001e+05
  -2.516658e+05  -4.682612e+04
   2.386756e+05  -8.373527e+04
   4.440489e+05   3.638666e+05
  -2.774459e+04   8.627510e+05
  -9.584808e+05   7.448008e+05
  -1.569914e+06  -2.032846e+05
  -1.172168e+06  -1.385234e+06
   6.780866e+04  -1.845538e+06
   1.170817e+06  -1.194530e+06
   1.342078e+06  -2.406346e+04
   7.797149e+05   7.062975e+05
   2.938546e+05   6.372855e+05
   2.808475e+05   2.445675e+05
   3.759610e+05   1.686239e+05
   7.925242e+04   4.909143e+05
  -5.792508e+05   7.154828e+05
  -1.072110e+06   3.563008e+05
  -8.783901e+05  -5.023773e+05
   7.202424e+04  -1.174571e+06
   1.241914e+06  -9.350475e+05
   1.736263e+06   2.456062e+05
   9.934290e+05   1.509165e+06
  -5.771940e+05   1.814749e+06
  -1.808448e+06   9.384945e+05
  -1.835523e+06  -3.143302e+05
  -8.937293e+05  -9.642149e+05
   4.918641e+04  -8.205501e+05
   3.403539e+05  -4.939181e+05
   1.595422e+05  -5.604948e+05
   9.373005e+04  -9.078931e+05
   4.334377e+05  -9.346542e+05
   9.196730e+05  -2.709462e+05
   1.031059e+06   7.678222e+05
   4.857274e+05   1.410020e+06
  -4.227732e+05   1.109823e+06
  -9.792560e+05   7.015591e+04
  -6.890336e+05  -8.923706e+05
   1.728289e+05  -1.059586e+06
   7.832169e+05  -4.292325e+05
   6.278709e+05   3.723802e+05
   3.280578e+04   7.465453e+05
  -2.667955e+05   6.250915e+05
  -6.609473e+03   3.599981e+05
   3.143086e+05   2.563665e+05
   4.510534e+04   2.901751e+05
  -8.134449e+05   2.148886e+05
  -1.506093e+06  -1.426418e+05
  -1.256154e+06  -6.751759e+05
  -9.823959e+04  -1.032620e+06
   1.071305e+06  -9.025081e+05
   1.341927e+06  -3.294801e+05
   6.736947e+05   2.534359e+05
  -1.388168e+05   3.969083e+05
  -3.585445e+05   8.010919e+04
  -9.296702e+03  -2.593252e+05
   3.518899e+05  -1.885904e+05
   3.607321e+05   2.430009e+05
   1.500604e+05   5.492203e+05
   2.955588e+04   3.601002e+05
   1.051102e+05  -1.167731e+05
   2.420013e+05  -2.852035e+05
   2.237173e+05   1.476451e+05
  -9.584512e+04   7.585085e+05
  -6.217020e+05   8.234228e+05
  -9.356256e+05   1.498567e+05
  -6.017986e+05  -6.507554e+05
   2.643250e+05  -8.121911e+05
   8.862310e+05  -2.413337e+05
   5.610543e+05   4.233207e+05
  -4.885228e+05   5.255221e+05
  -1.225962e+06   2.015430e+04
  -8.707075e+05  -5.963367e+05
   2.678758e+05  -8.133907e+05
   1.128422e+06  -5.039265e+05
   9.932846e+05   5.093644e+04
   1.530531e+05   3.982144e+05
  -4.740007e+05   2.603577e+05
  -2.851440e+05  -1.860079e+05
   4.466922e+05  -3.880633e+05
   8.890015e+05   5.862887e+04
   4.965368e+05   8.871355e+05
  -4.462520e+05   1.282135e+06
  -1.118755e+06   6.800218e+05
  -9.724125e+05  -5.518725e+05
  -2.074183e+05  -1.362942e+06
   5.168478e+05  -1.038716e+06
   7.201738e+05   6.270244e+04
   4.114165e+05   8.836535e+05
  -7.991348e+04   7.746769e+05
  -4.080863e+05   1.090902e+05
  -4.044487e+05  -2.775399e+05
  -1.702886e+05  -1.125975e+05
  -2.011086e+04   8.783305e+04
  -1.690144e+05  -1.830796e+05
  -4.030412e+05  -7.029929e+05
  -2.321766e+05  -8.256036e+05
   4.748472e+05  -3.387516e+05
   1.145583e+06   3.019028e+05
   1.047024e+06   5.912936e+05
   1.715064e+05   5.130145e+05
  -6.705933e+05   3.413864e+05
  -7.553483e+05   1.880705e+05
  -2.440336e+05  -2.307167e+03
   1.186583e+05  -1.720727e+05
  -2.188541e+04  -1.813759e+05
  -2.502452e+05  -8.821865e+04
  -2.658954e+04  -9.912146e+04
   5.410885e+05  -1.816944e+05
   7.870983e+05  -1.518399e+04
   2.843483e+05   4.974728e+05
  -6.403695e+05   8.910148e+05
  -1.229010e+06   5.985108e+05
  -1.024182e+06  -3.019101e+05
  -2.367269e+05  -1.061837e+06
   5.198060e+05  -1.052318e+06
   7.715359e+05  -4.132894e+05
   5.091292e+05   1.769052e+05
   9.604675e+04   2.636991e+05
  -8.701667e+04   2.441388e+04
   4.799650e+04  -4.645441e+04
   2.621019e+05   2.552503e+05
   2.344964e+05   6.048055e+05
  -1.199978e+05   5.126157e+05
  -5.279873e+05  -9.650574e+04
  -5.661444e+05  -7.228280e+05
  -7.596674e+04  -7.707219e+05
   5.852326e+05  -1.712223e+05
   7.916652e+05   5.478689e+05
   2.728872e+05   8.088794e+05
  -5.212825e+05   5.054190e+05
  -8.273382e+05  -2.884024e+04
  -4.021517e+05  -4.148892e+05
   1.872042e+05  -4.860785e+05
   2.398848e+05  -2.865835e+05
  -2.221683e+05  -1.701619e+04
  -4.982544e+05   4.470994e+04
  -1.085780e+05  -2.197692e+05
   6.028673e+05  -5.463931e+05
   9.065446e+05  -4.804600e+05
   5.488065e+05   7.827320e+04
  -4.673634e+04   6.469374e+05
  -3.569997e+05   6.535295e+05
  -2.783450e+05   1.128287e+05
  -3.589984e+04  -3.739182e+05
   1.716496e+05  -3.167752e+05
   2.703934e+05   1.318549e+05
   2.060574e+05   4.290793e+05
  -3.220307e+04   2.950643e+05
  -2.952200e+05  -3.484332e+04
  -3.599426e+05  -1.738414e+05
  -1.875892e+05  -4.532130e+04
   1.716790e+04   8.620735e+04
   6.749669e+04  -2.170196e+04
   2.501777e+04  -2.844313e+05
   7.994663e+04  -3.783138e+05
   2.501068e+05  -1.160048e+05
   3.139663e+05   3.067809e+05
   8.299658e+04   4.854300e+05
  -3.131562e+05   2.341691e+05
  -4.885662e+05  -2.086868e+05
  -1.937706e+05  -4.363637e+05
   3.615499e+05  -2.891322e+05
   6.502410e+05   4.052056e+04
   3.655986e+05   2.700638e+05
  -2.075755e+05   2.892873e+05
  -4.660698e+05   1.651136e+05
  -1.640376e+05   1.803218e+04
   2.930153e+05  -3.578995e+04
   3.221029e+05   7.131498e+04
  -1.475018e+05   2.453316e+05
  -6.000374e+05   2.250680e+05
