
 $NMID
 id='ANONYMOUS ', fmtdat='(2E16.6)'
 volume=1.0
 tramp=1.0
 $END
   2.972807e+07  -5.087988e+05
   1.981952e+07   1.476639e+07
  -5.742736e+05   1.930875e+07
  -1.323365e+07   1.169537e+07
  -1.050939e+07   2.018976e+05
  -2.095325e+05  -5.364301e+06
   5.932019e+06  -2.026733e+06
   3.977063e+06   4.900441e+06
  -1.789708e+06   7.586564e+06
  -5.519610e+06   3.180970e+06
  -4.656900e+06  -3.694473e+06
  -6.367039e+05  -5.900056e+06
   2.701659e+06  -1.381091e+06
   2.140553e+06   4.668263e+06
  -1.780061e+06   5.575940e+06
  -4.868085e+06   3.504103e+05
  -3.515122e+06  -5.761672e+06
   1.413822e+06  -7.241298e+06
   5.601954e+06  -3.542794e+06
   5.814520e+06   1.499558e+06
   2.766025e+06   4.077518e+06
  -1.603459e+05   3.569894e+06
  -3.815842e+05   2.152083e+06
   1.477103e+06   2.132329e+06
   2.203950e+06   3.601600e+06
  -5.907810e+05   4.440606e+06
  -5.319385e+06   2.752821e+06
  -7.414230e+06  -7.826008e+05
  -4.305353e+06  -3.405825e+06
   1.225120e+06  -3.132546e+06
   3.845075e+06  -6.369508e+05
   1.569843e+06   1.691500e+06
  -2.411536e+06   1.931352e+06
  -3.841455e+06  -1.087294e+05
  -1.928162e+06  -2.851031e+06
   7.775035e+05  -3.874373e+06
   1.804410e+06  -1.947865e+06
   9.589480e+05   1.184469e+06
  -2.912833e+05   2.065188e+06
  -4.946489e+05  -4.074159e+05
   6.539866e+05  -3.077885e+06
   2.044855e+06  -2.192376e+06
   1.966607e+06   1.561357e+06
  -1.351160e+05   3.573167e+06
  -2.564189e+06   1.126111e+06
  -2.669990e+06  -3.118492e+06
   3.303859e+05  -4.427900e+06
   4.091784e+06  -1.503463e+06
   5.136444e+06   2.595639e+06
   2.237778e+06   4.256593e+06
  -2.241256e+06   2.675500e+06
  -4.465621e+06  -2.672874e+05
  -2.729477e+06  -2.148081e+06
   9.500284e+05  -1.805745e+06
   2.923264e+06   1.348193e+04
   1.648129e+06   1.365427e+06
  -8.834049e+05   9.444640e+05
  -1.617564e+06  -5.559812e+05
   3.946131e+04  -1.268432e+06
   1.731556e+06  -3.453812e+05
   1.112984e+06   1.152015e+06
  -1.373565e+06   1.571207e+06
  -3.035064e+06   3.154299e+05
  -1.878082e+06  -1.861505e+06
   1.399090e+06  -3.510163e+06
   4.224397e+06  -3.253922e+06
   4.592243e+06  -7.355689e+05
   2.680039e+06   2.637308e+06
   3.381826e+05   4.497676e+06
  -8.161159e+05   3.793747e+06
  -7.837469e+05   1.926254e+06
  -7.594990e+05   9.654364e+05
  -1.533302e+06   1.087629e+06
  -2.562697e+06   6.833422e+05
  -2.648618e+06  -1.057658e+06
  -1.280453e+06  -2.725217e+06
   8.012208e+05  -2.363994e+06
   2.170337e+06   4.824835e+04
   1.761071e+06   2.442101e+06
  -2.891977e+05   2.785278e+06
  -2.527358e+06   9.365870e+05
  -3.190663e+06  -1.506115e+06
  -1.807629e+06  -2.803705e+06
   2.546590e+05  -2.486339e+06
   1.257818e+06  -1.460020e+06
   1.074319e+06  -8.836417e+05
   1.173265e+06  -9.492479e+05
   2.474061e+06  -7.978776e+05
   3.820363e+06   3.818476e+05
   3.183257e+06   2.316360e+06
   2.048085e+05   3.762519e+06
  -3.047439e+06   3.561760e+06
  -4.055498e+06   1.626699e+06
  -2.322381e+06  -8.593819e+05
   2.708088e+05  -2.197549e+06
   1.403770e+06  -1.539974e+06
   4.628791e+05   2.036135e+05
  -1.147394e+06   1.116841e+06
  -1.630118e+06   3.110851e+05
  -6.140359e+05  -1.016994e+06
   6.387385e+05  -1.044254e+06
   7.021543e+05   3.068756e+05
  -5.129349e+05   1.136903e+06
  -1.731017e+06  -7.792791e+04
  -1.584641e+06  -2.478387e+06
   1.686649e+05  -3.662403e+06
   2.455721e+06  -2.291970e+06
   3.677032e+06   5.837775e+05
   2.893291e+06   2.723179e+06
   6.546591e+05   2.817750e+06
  -1.305354e+06   1.415881e+06
  -1.575837e+06   1.015939e+05
  -4.641445e+05  -4.425564e+04
   3.507932e+05   6.884239e+05
  -2.564317e+05   1.128831e+06
  -1.537350e+06   5.403691e+05
  -1.795502e+06  -5.949187e+05
  -4.893110e+05  -1.151091e+06
   1.027330e+06  -6.136719e+05
   1.014276e+06   3.945243e+05
  -6.640232e+05   7.927519e+05
  -2.305427e+06   7.911491e+04
  -2.106058e+06  -1.262595e+06
  -7.973489e+03  -2.167140e+06
   2.210665e+06  -1.812307e+06
   2.656258e+06  -3.478042e+05
   1.128480e+06   1.069080e+06
  -7.642206e+05   1.236674e+06
  -1.249448e+06   1.486363e+05
  -8.636970e+04  -8.924662e+05
   1.368652e+06  -6.577825e+05
   1.635623e+06   6.191021e+05
   5.191343e+05   1.527555e+06
  -8.613767e+05   1.122306e+06
  -1.245236e+06  -4.649372e+04
  -4.158859e+05  -6.548186e+05
   6.278150e+05  -9.718867e+04
   6.426239e+05   9.451284e+05
  -5.829435e+05   1.294615e+06
  -1.892466e+06   4.428574e+05
  -1.870799e+06  -1.010563e+06
  -3.668093e+05  -1.909247e+06
   1.267345e+06  -1.546433e+06
   1.589846e+06  -2.852688e+05
   5.603114e+05   7.710933e+05
  -5.679914e+05   8.124820e+05
  -7.039598e+05   6.537019e+04
   1.888659e+04  -5.358721e+05
   6.215552e+05  -3.984429e+05
   4.332568e+05   1.216727e+05
  -2.637644e+05   2.101022e+05
  -5.920626e+05  -4.068313e+05
   2.594529e+04  -1.081345e+06
   1.235090e+06  -8.951659e+05
   1.957603e+06   3.468626e+05
   1.375714e+06   1.807545e+06
  -1.985463e+05   2.328055e+06
  -1.548879e+06   1.490232e+06
  -1.751542e+06   9.017324e+02
  -1.039336e+06  -9.887824e+05
  -3.668309e+05  -9.590856e+05
  -2.685888e+05  -4.129062e+05
  -3.805104e+05  -2.094823e+05
  -6.027908e+04  -5.805074e+05
   7.561638e+05  -8.959605e+05
   1.413018e+06  -4.279676e+05
   1.153762e+06   7.226412e+05
  -1.304737e+05   1.565055e+06
  -1.647346e+06   1.152785e+06
  -2.204572e+06  -4.114131e+05
  -1.191066e+06  -1.947428e+06
   7.766017e+05  -2.234014e+06
   2.277304e+06  -1.111823e+06
   2.316953e+06   4.326971e+05
   1.164015e+06   1.259533e+06
  -5.882161e+04   1.113784e+06
  -5.221497e+05   6.791309e+05
  -3.468441e+05   6.823021e+05
  -2.253026e+05   1.063855e+06
  -5.796916e+05   1.094549e+06
  -1.134709e+06   2.655653e+05
  -1.227603e+06  -1.036297e+06
  -5.090109e+05  -1.803871e+06
   6.107972e+05  -1.362996e+06
   1.236801e+06  -3.729639e+04
   8.244025e+05   1.132009e+06
  -2.315762e+05   1.312980e+06
  -9.487557e+05   5.500372e+05
  -7.569773e+05  -4.138442e+05
  -5.832971e+04  -8.864497e+05
   2.931389e+05  -7.764908e+05
  -5.755094e+03  -4.828654e+05
  -3.701098e+05  -3.642939e+05
  -3.024036e+04  -3.824537e+05
   1.014287e+06  -2.309460e+05
   1.851637e+06   2.636396e+05
   1.534133e+06   9.041022e+05
   1.010831e+05   1.261763e+06
  -1.346511e+06   1.043239e+06
  -1.680696e+06   3.658022e+05
  -8.439996e+05  -2.913140e+05
   1.745096e+05  -4.592687e+05
   4.394120e+05  -1.057367e+05
  -2.224073e+04   2.935972e+05
  -4.766446e+05   2.126902e+05
  -4.359899e+05  -3.280394e+05
  -1.097824e+05  -7.205724e+05
   3.048389e+04  -4.607448e+05
  -1.475965e+05   1.784360e+05
  -3.667822e+05   3.849720e+05
  -2.853816e+05  -2.070181e+05
   2.000499e+05  -9.784317e+05
   8.463798e+05  -9.861928e+05
   1.138655e+06  -8.324263e+04
   6.567196e+05   8.697320e+05
  -3.922587e+05   9.605664e+05
  -1.104686e+06   1.971354e+05
  -6.753623e+05  -5.864289e+05
   6.351895e+05  -6.436038e+05
   1.570774e+06   2.005576e+04
   1.130081e+06   7.920797e+05
  -3.378193e+05   1.052704e+06
  -1.467949e+06   6.372904e+05
  -1.294780e+06  -8.951839e+04
  -1.940040e+05  -5.227373e+05
   6.056738e+05  -3.191692e+05
   3.263458e+05   2.389453e+05
  -6.162633e+05   4.338472e+05
  -1.113586e+06  -1.738172e+05
  -5.215426e+05  -1.174958e+06
   7.029635e+05  -1.572901e+06
   1.485592e+06  -7.537275e+05
   1.192567e+06   7.801164e+05
   1.671311e+05   1.751000e+06
  -7.228296e+05   1.308115e+06
  -9.158024e+05  -9.679839e+04
  -4.926667e+05  -1.141513e+06
   1.136764e+05  -9.949706e+05
   5.120643e+05  -1.239416e+05
   5.224416e+05   3.857360e+05
   2.395294e+05   1.625525e+05
   1.602900e+04  -1.189943e+05
   1.507867e+05   2.242179e+05
   4.433147e+05   9.072879e+05
   2.798914e+05   1.063092e+06
  -5.761974e+05   4.005048e+05
  -1.437625e+06  -4.588130e+05
  -1.325938e+06  -8.162275e+05
  -1.873335e+05  -6.550189e+05
   9.069789e+05  -3.875168e+05
   9.820993e+05  -2.009319e+05
   2.803274e+05   1.880734e+03
  -1.732566e+05   2.070437e+05
   5.841675e+04   2.491412e+05
   3.540382e+05   1.517113e+05
   7.331139e+03   1.332593e+05
  -7.464139e+05   1.776314e+05
  -9.921923e+05  -5.316754e+04
  -2.603061e+05  -6.485070e+05
   9.167600e+05  -1.057715e+06
   1.572368e+06  -6.337671e+05
   1.224539e+06   4.854798e+05
   2.055465e+05   1.370702e+06
  -7.276673e+05   1.278725e+06
  -1.010929e+06   4.351659e+05
  -6.384338e+05  -2.876501e+05
  -8.097849e+04  -3.426681e+05
   1.512818e+05  -1.955311e+03
  -4.883143e+04   8.228827e+04
  -3.299744e+05  -3.291952e+05
  -2.655248e+05  -7.800805e+05
   2.004512e+05  -6.280676e+05
   6.687069e+05   1.911050e+05
   6.367111e+05   9.853531e+05
  -7.715378e+03   9.781017e+05
  -7.797277e+05   1.353686e+05
  -9.495362e+05  -7.897106e+05
  -2.573632e+05  -1.044267e+06
   7.077508e+05  -5.709268e+05
   1.026215e+06   1.143298e+05
   4.503324e+05   5.323037e+05
  -2.771990e+05   5.636105e+05
  -2.946168e+05   3.297537e+05
   3.179074e+05   4.702166e+04
   6.450567e+05  -1.323191e+04
   1.079683e+05   2.812496e+05
  -8.032585e+05   6.498644e+05
  -1.149229e+06   5.623476e+05
  -6.495753e+05  -1.155476e+05
   1.125292e+05  -7.999948e+05
   4.713804e+05  -7.816392e+05
   3.282352e+05  -9.221673e+04
  -4.073223e+02   4.927672e+05
  -2.507380e+05   3.693069e+05
  -3.376842e+05  -2.192733e+05
  -2.224829e+05  -5.606502e+05
   7.525037e+04  -3.422955e+05
   3.701908e+05   8.111336e+04
   4.278074e+05   2.259589e+05
   2.317320e+05   5.139020e+04
   4.362144e+03  -8.663025e+04
  -8.119582e+04   7.452389e+04
  -9.656220e+04   3.826737e+05
  -1.974239e+05   4.429180e+05
  -3.513168e+05   7.066946e+04
  -3.341298e+05  -4.549693e+05
  -1.019990e+04  -6.315456e+05
   4.329608e+05  -2.573654e+05
   5.823928e+05   3.267449e+05
   1.949368e+05   5.827058e+05
  -4.714549e+05   3.312653e+05
  -8.012723e+05  -1.198013e+05
  -4.309910e+05  -3.721619e+05
   2.874211e+05  -3.244167e+05
   5.956705e+05  -1.412824e+05
   1.838496e+05  -3.196784e+03
  -4.104406e+05  -1.260719e+03
  -4.183502e+05  -1.500285e+05
   2.327062e+05  -3.222357e+05
   8.240093e+05  -2.402906e+05
