
 $NMID
 id='ANONYMOUS ', fmtdat='(2E16.6)'
 volume=1.0
 tramp=1.0
 $END
   4.735035e+07  -7.356593e+05
   2.983738e+07   2.749046e+07
  -4.368984e+06   3.192095e+07
  -2.266461e+07   1.439709e+07
  -1.493130e+07  -4.093357e+06
   1.827223e+06  -8.160603e+06
   8.721899e+06  -2.132342e+05
   3.549512e+06   8.187252e+06
  -4.593694e+06   9.148567e+06
  -8.381189e+06   2.691667e+06
  -6.345313e+06  -5.367974e+06
  -8.034222e+05  -7.826452e+06
   3.572817e+06  -2.293588e+06
   2.496086e+06   5.364106e+06
  -3.121441e+06   6.477611e+06
  -6.999693e+06  -6.211946e+05
  -4.329210e+06  -8.767197e+06
   2.866118e+06  -1.044203e+07
   8.587772e+06  -5.245340e+06
   9.142637e+06   1.807331e+06
   5.318054e+06   6.248109e+06
   4.927912e+05   6.799155e+06
  -1.818053e+06   4.725252e+06
  -4.849217e+05   2.740293e+06
   1.529393e+06   2.985897e+06
  -1.912494e+05   4.453989e+06
  -5.608862e+06   3.798759e+06
  -9.072742e+06  -7.264207e+04
  -6.152043e+06  -3.961286e+06
   3.519273e+05  -4.369404e+06
   3.876749e+06  -1.776579e+06
   2.097217e+06   7.227913e+05
  -1.501330e+06   1.314258e+06
  -3.060283e+06   1.310988e+05
  -2.097689e+06  -2.152065e+06
  -3.046350e+04  -4.039785e+06
   1.847000e+06  -3.183574e+06
   2.331398e+06   5.060935e+05
   9.420909e+05   3.034256e+06
  -5.928673e+05   9.892398e+05
   1.541603e+05  -2.805861e+06
   2.431568e+06  -2.354668e+06
   2.396455e+06   2.637274e+06
  -1.489678e+06   5.382602e+06
  -5.368690e+06   1.238263e+06
  -4.375315e+06  -5.528998e+06
   1.226660e+06  -7.182775e+06
   6.306387e+06  -2.188459e+06
   6.517452e+06   3.866457e+06
   2.109727e+06   5.598399e+06
  -3.140678e+06   2.842906e+06
  -5.213641e+06  -1.083965e+06
  -2.706491e+06  -3.119678e+06
   1.887733e+06  -2.172741e+06
   4.070509e+06   5.454317e+05
   1.949013e+06   2.261035e+06
  -1.424336e+06   1.264626e+06
  -1.782554e+06  -8.860947e+05
   8.454043e+05  -1.165784e+06
   2.352726e+06   9.023103e+05
   1.943008e+05   2.671308e+06
  -3.422500e+06   1.950523e+06
  -4.631334e+06  -6.405135e+05
  -2.291798e+06  -3.250575e+06
   1.708100e+06  -4.749741e+06
   4.913189e+06  -4.349191e+06
   5.774886e+06  -1.373271e+06
   3.949199e+06   3.059354e+06
   7.179849e+05   5.726409e+06
  -1.510886e+06   4.611549e+06
  -1.475760e+06   1.632159e+06
  -5.071331e+05   2.497918e+05
  -6.956300e+05   9.933529e+05
  -2.085572e+06   1.305717e+06
  -2.818037e+06  -3.652665e+05
  -1.726327e+06  -2.375947e+06
   3.844402e+05  -2.308868e+06
   1.896280e+06  -4.613331e+04
   1.750503e+06   2.377431e+06
  -1.628809e+05   3.006332e+06
  -2.791005e+06   1.392131e+06
  -4.101044e+06  -1.393797e+06
  -2.756506e+06  -3.505985e+06
   1.063499e+05  -3.664596e+06
   1.919026e+06  -2.323531e+06
   1.842955e+06  -1.114842e+06
   1.666107e+06  -8.446236e+05
   2.920140e+06  -6.217553e+05
   4.359643e+06   6.806892e+05
   3.520561e+06   2.761124e+06
   1.195666e+05   4.197710e+06
  -3.361359e+06   3.918130e+06
  -4.359198e+06   1.955554e+06
  -2.621885e+06  -6.614617e+05
  -1.452337e+04  -2.313797e+06
   1.301560e+06  -1.832447e+06
   5.373140e+05   1.120148e+05
  -1.183715e+06   1.272849e+06
  -1.887951e+06   3.667007e+05
  -8.273325e+05  -1.183593e+06
   6.090178e+05  -1.127655e+06
   5.654514e+05   3.955794e+05
  -9.184658e+05   9.372901e+05
  -1.946247e+06  -8.555537e+05
  -1.088470e+06  -3.300471e+06
   1.127169e+06  -3.760966e+06
   3.099199e+06  -1.674661e+06
   3.678288e+06   1.225429e+06
   2.627084e+06   2.971286e+06
   5.090799e+05   2.865504e+06
  -1.361701e+06   1.501053e+06
  -1.662513e+06   1.605094e+05
  -5.081420e+05  -5.363519e+04
   3.641280e+05   7.718404e+05
  -3.809650e+05   1.324100e+06
  -1.861078e+06   5.807100e+05
  -2.043478e+06  -8.320587e+05
  -4.409589e+05  -1.390328e+06
   1.185347e+06  -6.047294e+05
   9.827087e+05   4.785064e+05
  -8.467471e+05   6.572575e+05
  -2.374200e+06  -2.192187e+05
  -1.975580e+06  -1.447547e+06
   2.022266e+05  -2.175070e+06
   2.436198e+06  -1.777599e+06
   2.889056e+06  -2.782331e+05
   1.237474e+06   1.268079e+06
  -9.147304e+05   1.465715e+06
  -1.515313e+06   1.745944e+05
  -1.551971e+05  -1.056204e+06
   1.546923e+06  -7.250381e+05
   1.774383e+06   7.828275e+05
   4.104609e+05   1.707724e+06
  -1.080513e+06   1.084972e+06
  -1.329706e+06  -2.395541e+05
  -3.222060e+05  -7.831409e+05
   7.729857e+05  -6.622032e+04
   7.223355e+05   1.078088e+06
  -6.335749e+05   1.439043e+06
  -2.079306e+06   4.998522e+05
  -2.065736e+06  -1.121739e+06
  -3.705419e+05  -2.129490e+06
   1.473179e+06  -1.680175e+06
   1.774650e+06  -2.320444e+05
   5.449593e+05   8.865144e+05
  -6.712871e+05   8.435803e+05
  -6.959857e+05   6.123269e+04
   1.033634e+05  -4.542096e+05
   5.883410e+05  -2.790737e+05
   2.515911e+05   1.143715e+05
  -4.153053e+05   3.896770e+04
  -5.817798e+05  -6.170016e+05
   1.611148e+05  -1.219392e+06
   1.418775e+06  -9.290984e+05
   2.145937e+06   4.422612e+05
   1.483951e+06   2.020588e+06
  -2.592354e+05   2.517811e+06
  -1.708231e+06   1.499911e+06
  -1.816032e+06  -1.137053e+05
  -9.618313e+05  -1.009831e+06
  -3.292741e+05  -8.237701e+05
  -4.051047e+05  -3.094893e+05
  -5.619119e+05  -2.879707e+05
  -7.959388e+04  -7.348064e+05
   8.950274e+05  -9.427710e+05
   1.531165e+06  -3.604110e+05
   1.140623e+06   7.911655e+05
  -2.490468e+05   1.589969e+06
  -1.815625e+06   1.138818e+06
  -2.353769e+06  -5.211387e+05
  -1.190563e+06  -2.180705e+06
   1.008319e+06  -2.439377e+06
   2.600870e+06  -1.090342e+06
   2.469714e+06   6.442859e+05
   1.074834e+06   1.409636e+06
  -1.836016e+05   1.071466e+06
  -4.836049e+05   5.939946e+05
  -2.015773e+05   7.514819e+05
  -1.685277e+05   1.273736e+06
  -6.833915e+05   1.275555e+06
  -1.304817e+06   3.008376e+05
  -1.351914e+06  -1.140935e+06
  -5.404512e+05  -1.971632e+06
   6.733498e+05  -1.477532e+06
   1.339635e+06   6.746083e+03
   8.475913e+05   1.309571e+06
  -3.687713e+05   1.442345e+06
  -1.156355e+06   4.767967e+05
  -8.371273e+05  -6.343121e+05
   6.657985e+04  -1.067205e+06
   4.826044e+05  -8.264090e+05
   6.366787e+04  -4.690582e+05
  -4.262240e+05  -3.709121e+05
  -4.513151e+04  -4.051615e+05
   1.165477e+06  -2.172691e+05
   2.093724e+06   3.495205e+05
   1.663696e+06   1.066573e+06
  -1.733754e+03   1.452526e+06
  -1.597105e+06   1.150190e+06
  -1.883184e+06   3.043036e+05
  -8.856824e+05  -4.560992e+05
   2.458662e+05  -5.575871e+05
   5.163824e+05  -5.895026e+04
   1.140634e+04   3.934882e+05
  -4.831031e+05   2.474832e+05
  -4.868331e+05  -3.610262e+05
  -2.009613e+05  -7.601568e+05
  -4.579030e+04  -4.942389e+05
  -1.553319e+05   1.301340e+05
  -3.392553e+05   3.349935e+05
  -2.923134e+05  -2.426515e+05
   1.889175e+05  -1.034784e+06
   9.444409e+05  -1.082440e+06
   1.351646e+06  -1.373126e+05
   8.123218e+05   9.533663e+05
  -4.396159e+05   1.129415e+06
  -1.268758e+06   2.905990e+05
  -7.432767e+05  -6.188043e+05
   7.263543e+05  -6.749721e+05
   1.672764e+06   9.785670e+04
   1.097916e+06   9.078864e+05
  -4.761405e+05   1.067658e+06
  -1.586806e+06   5.408801e+05
  -1.326314e+06  -1.879638e+05
  -1.546288e+05  -5.510517e+05
   6.761052e+05  -2.934876e+05
   3.818223e+05   2.936424e+05
  -6.326400e+05   5.082468e+05
  -1.217611e+06  -1.333722e+05
  -6.378783e+05  -1.246761e+06
   6.804586e+05  -1.737077e+06
   1.572768e+06  -8.674288e+05
   1.291721e+06   8.220924e+05
   1.775870e+05   1.878248e+06
  -7.955677e+05   1.360683e+06
  -9.746411e+05  -1.729569e+05
  -4.597412e+05  -1.250551e+06
   2.129998e+05  -1.032720e+06
   5.797715e+05  -9.520959e+04
   5.038048e+05   4.112718e+05
   1.937417e+05   1.595394e+05
   4.296853e+04  -1.092162e+05
   2.518204e+05   2.860236e+05
   5.042598e+05   1.004070e+06
   2.147775e+05   1.139467e+06
  -7.149853e+05   4.144124e+05
  -1.536961e+06  -5.083007e+05
  -1.353362e+06  -8.972829e+05
  -1.876627e+05  -7.260583e+05
   9.211925e+05  -4.173874e+05
   1.040823e+06  -1.836730e+05
   3.574916e+05   4.139623e+04
  -1.638732e+05   2.287714e+05
  -1.387988e+04   2.341410e+05
   3.016977e+05   1.254817e+05
   3.809341e+04   1.390978e+05
  -7.231180e+05   2.180282e+05
  -1.084819e+06  -3.573980e+04
  -3.986769e+05  -7.137819e+05
   9.179665e+05  -1.191565e+06
   1.758068e+06  -7.462934e+05
   1.425608e+06   4.786072e+05
   2.540084e+05   1.471823e+06
  -8.102195e+05   1.414383e+06
  -1.096968e+06   5.265230e+05
  -6.798579e+05  -2.680241e+05
  -1.221643e+05  -3.722820e+05
   9.414777e+04  -4.697527e+04
  -8.030884e+04   3.629399e+04
  -3.216884e+05  -3.824105e+05
  -2.560659e+05  -8.476911e+05
   2.003273e+05  -6.978279e+05
   7.085120e+05   1.537135e+05
   7.378891e+05   1.013847e+06
   8.068102e+04   1.066706e+06
  -7.962461e+05   2.220970e+05
  -1.055743e+06  -7.832030e+05
  -3.337124e+05  -1.134590e+06
   7.514430e+05  -6.784865e+05
   1.151209e+06   9.668600e+04
   5.359880e+05   6.265291e+05
  -3.017420e+05   6.821160e+05
  -3.803904e+05   3.773148e+05
   2.759717e+05   2.532430e+04
   6.817355e+05  -2.759806e+04
   1.427128e+05   3.173292e+05
  -8.696116e+05   6.987391e+05
  -1.305678e+06   5.648709e+05
  -7.758634e+05  -1.744051e+05
   1.115194e+05  -8.958398e+05
   5.673319e+05  -8.807825e+05
   4.226365e+05  -1.539685e+05
   3.754908e+04   5.051369e+05
  -2.557914e+05   4.391487e+05
  -3.615857e+05  -1.749439e+05
  -2.543959e+05  -6.045446e+05
   6.082880e+04  -4.277508e+05
   4.038882e+05   5.855739e+04
   4.889616e+05   2.850012e+05
   2.540084e+05   9.299925e+04
  -2.884412e+04  -1.413729e+05
  -9.260435e+04  -1.902083e+04
  -1.790361e+04   3.726722e+05
  -8.639037e+04   5.453149e+05
  -3.370417e+05   1.908858e+05
  -4.454981e+05  -4.140672e+05
  -1.257146e+05  -6.711358e+05
   4.350903e+05  -3.123127e+05
   6.748184e+05   3.069285e+05
   2.472567e+05   6.045915e+05
  -5.276432e+05   3.734056e+05
  -9.067929e+05  -9.393317e+04
  -4.894533e+05  -3.981576e+05
   3.073098e+05  -4.014261e+05
   6.597865e+05  -2.166903e+05
   2.481927e+05  -1.730778e+04
  -3.744806e+05   4.960944e+04
  -4.252284e+05  -9.021201e+04
   1.952363e+05  -3.073732e+05
   7.995801e+05  -2.666695e+05
