
 $NMID
 id='ANONYMOUS ', fmtdat='(2E16.6)'
 volume=1.0
 tramp=1.0
 $END
  -5.820287e+07  -4.752843e+05
  -3.440223e+07  -3.668857e+07
   8.412547e+06  -3.933675e+07
   2.865705e+07  -1.441005e+07
   1.663378e+07   7.783787e+06
  -3.710734e+06   9.502238e+06
  -9.971367e+06  -1.634873e+06
  -2.487145e+06  -1.006568e+07
   6.567662e+06  -9.234582e+06
   9.865907e+06  -1.749840e+06
   7.081227e+06   6.374737e+06
   8.044592e+05   8.723210e+06
  -4.073485e+06   2.838227e+06
  -2.649650e+06  -5.395330e+06
   3.894134e+06  -6.473733e+06
   8.005806e+06   1.544340e+06
   4.388543e+06   1.049574e+07
  -4.030330e+06   1.202396e+07
  -1.043888e+07   5.992523e+06
  -1.116019e+07  -2.138168e+06
  -6.891626e+06  -7.792009e+06
  -6.933548e+05  -9.086866e+06
   3.227177e+06  -6.332847e+06
   2.216360e+06  -2.607948e+06
  -1.010045e+06  -1.880873e+06
  -3.998372e+05  -4.066102e+06
   5.294687e+06  -4.538189e+06
   9.741294e+06  -6.580352e+05
   7.226737e+06   4.141944e+06
   4.124200e+05   5.223912e+06
  -3.653293e+06   2.788071e+06
  -2.583320e+06   2.171657e+05
   3.298887e+05  -8.624681e+05
   2.052536e+06  -6.267219e+05
   2.239319e+06   1.214492e+06
   8.933792e+05   3.889638e+06
  -1.785989e+06   4.013410e+06
  -3.470085e+06  -1.406857e+04
  -1.896829e+06  -3.790688e+06
   8.504460e+05  -2.159832e+06
   4.992294e+05   2.356208e+06
  -2.436596e+06   2.274292e+06
  -2.424947e+06  -3.311033e+06
   2.675970e+06  -6.246372e+06
   7.301719e+06  -8.964439e+05
   5.230480e+06   7.258266e+06
  -2.116969e+06   8.787455e+06
  -7.664775e+06   2.427163e+06
  -6.988758e+06  -4.571560e+06
  -1.750922e+06  -6.082625e+06
   3.526417e+06  -2.645974e+06
   5.212391e+06   1.626300e+06
   2.322650e+06   3.543119e+06
  -2.531698e+06   2.169202e+06
  -4.597000e+06  -1.025013e+06
  -1.922883e+06  -2.815526e+06
   1.780990e+06  -1.378363e+06
   1.711223e+06   1.051011e+06
  -1.425465e+06   8.297790e+05
  -2.461237e+06  -1.963615e+06
   8.457588e+05  -3.584938e+06
   4.901327e+06  -1.837209e+06
   5.411691e+06   1.548391e+06
   2.285862e+06   4.133150e+06
  -1.825001e+06   5.360620e+06
  -5.006134e+06   4.943601e+06
  -6.269380e+06   1.828740e+06
  -4.718661e+06  -3.174979e+06
  -9.936817e+05  -6.252133e+06
   1.937800e+06  -4.770259e+06
   1.811297e+06  -1.099865e+06
   5.783871e+04   3.680069e+05
  -2.197720e+05  -9.969214e+05
   1.482463e+06  -1.928213e+06
   2.821079e+06  -4.051420e+05
   2.122078e+06   1.811579e+06
   1.470440e+05   2.111105e+06
  -1.463657e+06   2.652729e+05
  -1.671370e+06  -1.983402e+06
  -5.759731e+04  -2.913550e+06
   2.755354e+06  -1.726045e+06
   4.561262e+06   1.134808e+06
   3.330218e+06   3.819638e+06
  -2.918770e+04   4.361284e+06
  -2.370469e+06   2.803254e+06
  -2.327486e+06   1.130113e+06
  -1.867100e+06   6.345348e+05
  -2.938341e+06   4.415520e+05
  -4.338730e+06  -7.799734e+05
  -3.475272e+06  -2.763982e+06
  -1.359563e+05  -4.108663e+06
   3.164466e+06  -3.902993e+06
   4.130216e+06  -2.176441e+06
   2.676950e+06   3.530316e+05
   3.535958e+05   2.224019e+06
  -1.046713e+06   1.973883e+06
  -5.740711e+05  -1.352343e+04
   1.063848e+06  -1.325920e+06
   1.917407e+06  -4.090926e+05
   9.511097e+05   1.216472e+06
  -4.906121e+05   1.116290e+06
  -3.883127e+05  -3.846355e+05
   1.105971e+06  -6.228768e+05
   1.820706e+06   1.416816e+06
   5.084407e+05   3.536668e+06
  -1.725012e+06   3.300148e+06
  -3.144921e+06   9.434473e+05
  -3.198584e+06  -1.507513e+06
  -2.177211e+06  -2.697965e+06
  -4.409662e+05  -2.540353e+06
   1.209996e+06  -1.461140e+06
   1.561572e+06  -2.512159e+05
   4.913589e+05   4.373800e+04
  -3.572115e+05  -7.510686e+05
   4.305207e+05  -1.353703e+06
   1.937087e+06  -5.765809e+05
   2.041343e+06   9.167902e+05
   3.649651e+05   1.434824e+06
  -1.176667e+06   5.598414e+05
  -8.608298e+05  -4.523464e+05
   8.577359e+05  -4.719348e+05
   2.127514e+06   3.641283e+05
   1.672796e+06   1.338172e+06
  -2.710932e+05   1.912556e+06
  -2.285545e+06   1.618436e+06
  -2.757287e+06   2.679593e+05
  -1.217586e+06  -1.278646e+06
   9.333034e+05  -1.526262e+06
   1.591112e+06  -1.926237e+05
   2.164637e+05   1.100319e+06
  -1.522634e+06   7.441127e+05
  -1.711918e+06  -7.943996e+05
  -3.077274e+05  -1.648368e+06
   1.109620e+06  -9.404610e+05
   1.239455e+06   3.475427e+05
   2.144853e+05   7.882585e+05
  -8.144651e+05   4.556170e+04
  -7.460118e+05  -1.059855e+06
   5.659178e+05  -1.433843e+06
   2.006425e+06  -5.599104e+05
   2.045886e+06   1.040896e+06
   3.874035e+05   2.079708e+06
  -1.449726e+06   1.643322e+06
  -1.728362e+06   1.985443e+05
  -4.877979e+05  -8.725437e+05
   6.636898e+05  -7.933698e+05
   6.147291e+05  -8.228829e+04
  -1.279253e+05   3.244645e+05
  -4.578126e+05   1.796153e+05
  -7.029993e+04  -4.593611e+04
   4.667271e+05   1.283418e+05
   4.942847e+05   7.057713e+05
  -2.338269e+05   1.187712e+06
  -1.389028e+06   8.868920e+05
  -2.080318e+06  -4.159549e+05
  -1.469375e+06  -1.942044e+06
   2.090024e+05  -2.411094e+06
   1.600096e+06  -1.388682e+06
   1.656903e+06   1.375560e+05
   8.232362e+05   8.614856e+05
   3.171132e+05   5.889718e+05
   5.143155e+05   1.876933e+05
   6.606762e+05   3.321796e+05
   9.302444e+04   7.880199e+05
  -8.838173e+05   8.917186e+05
  -1.433637e+06   3.076924e+05
  -1.022235e+06  -7.067748e+05
   2.592958e+05  -1.421994e+06
   1.708540e+06  -1.051096e+06
   2.229961e+06   4.822306e+05
   1.115206e+06   2.096542e+06
  -1.033124e+06   2.359640e+06
  -2.553675e+06   1.008588e+06
  -2.326206e+06  -6.828363e+05
  -9.114578e+05  -1.327139e+06
   2.207661e+05  -9.014943e+05
   3.538703e+05  -4.800954e+05
   2.818189e+04  -7.656389e+05
   8.130562e+04  -1.339448e+06
   6.783247e+05  -1.309007e+06
   1.307291e+06  -3.263504e+05
   1.346548e+06   1.072125e+06
   5.663600e+05   1.887672e+06
  -6.112867e+05   1.437105e+06
  -1.278372e+06  -4.395734e+03
  -8.023257e+05  -1.291726e+06
   4.106327e+05  -1.392051e+06
   1.181701e+06  -3.735586e+05
   8.062284e+05   7.386458e+05
  -1.554315e+05   1.092617e+06
  -5.711739e+05   7.691374e+05
  -9.665794e+04   3.964313e+05
   4.428699e+05   3.260451e+05
   6.690829e+04   3.796016e+05
  -1.158546e+06   2.055571e+05
  -2.078068e+06  -3.367836e+05
  -1.615139e+06  -1.043325e+06
   6.138634e+04  -1.446485e+06
   1.613201e+06  -1.146698e+06
   1.834252e+06  -2.627175e+05
   8.180896e+05   5.222978e+05
  -2.747821e+05   5.820695e+05
  -5.170676e+05   1.996519e+04
  -3.928659e+04  -4.424976e+05
   4.306290e+05  -2.684865e+05
   4.868742e+05   3.387706e+05
   2.846330e+05   7.173292e+05
   1.236367e+05   4.803132e+05
   1.304019e+05  -7.744543e+04
   2.529958e+05  -2.738445e+05
   2.703640e+05   2.328613e+05
  -1.211149e+05   9.783932e+05
  -8.943302e+05   1.073793e+06
  -1.393939e+06   1.952805e+05
  -8.885925e+05  -9.123667e+05
   4.120129e+05  -1.165989e+06
   1.277058e+06  -3.686894e+05
   7.420796e+05   5.588504e+05
  -7.038912e+05   6.435749e+05
  -1.569570e+06  -1.025759e+05
  -9.669402e+05  -8.582129e+05
   5.035915e+05  -9.595482e+05
   1.478021e+06  -4.431774e+05
   1.199787e+06   2.030404e+05
   1.214914e+05   5.024920e+05
  -6.481173e+05   2.561639e+05
  -3.937336e+05  -3.028236e+05
   5.676929e+05  -5.436181e+05
   1.188853e+06   4.729056e+04
   7.126481e+05   1.165282e+06
  -5.389522e+05   1.724145e+06
  -1.458951e+06   9.246415e+05
  -1.264886e+06  -7.307905e+05
  -2.254402e+05  -1.778262e+06
   7.234572e+05  -1.278987e+06
   9.143192e+05   1.895112e+05
   4.156931e+05   1.184532e+06
  -2.391803e+05   9.460634e+05
  -5.671297e+05   7.387660e+04
  -4.457343e+05  -3.638725e+05
  -1.397860e+05  -1.238272e+05
  -5.638382e+04   8.603816e+04
  -3.161763e+05  -3.149033e+05
  -5.298905e+05  -9.683801e+05
  -1.691329e+05  -1.063025e+06
   7.444149e+05  -3.891974e+05
   1.469478e+06   4.477365e+05
   1.253424e+06   8.177879e+05
   1.865057e+05   7.007518e+05
  -8.194292e+05   4.340634e+05
  -9.676546e+05   1.826658e+05
  -3.816803e+05  -6.904200e+04
   1.319446e+05  -2.312260e+05
   6.461331e+04  -1.837022e+05
  -2.319248e+05  -6.658689e+04
  -6.693973e+04  -1.319322e+05
   6.197750e+05  -2.644445e+05
   1.052102e+06  -1.504566e+04
   4.972567e+05   6.984027e+05
  -7.894845e+05   1.217722e+06
  -1.715843e+06   8.081976e+05
  -1.467850e+06  -3.919756e+05
  -3.147678e+05  -1.396231e+06
   7.556662e+05  -1.399773e+06
   1.044313e+06  -5.825605e+05
   6.564711e+05   1.983615e+05
   1.568989e+05   3.588332e+05
  -3.816658e+04   9.505436e+04
   9.031989e+04   1.004370e+04
   2.868813e+05   3.723337e+05
   2.451482e+05   8.023136e+05
  -1.597955e+05   6.921441e+05
  -6.789806e+05  -7.979276e+04
  -7.850762e+05  -9.130694e+05
  -1.807123e+05  -1.039048e+06
   7.281541e+05  -3.052540e+05
   1.067651e+06   6.640947e+05
   3.978181e+05   1.087836e+06
  -6.958998e+05   7.236259e+05
  -1.141990e+06  -4.158501e+04
  -5.646188e+05  -6.317100e+05
   2.798140e+05  -7.209942e+05
   4.060189e+05  -3.809967e+05
  -2.126426e+05   1.448975e+04
  -6.399898e+05   6.022975e+04
  -1.652633e+05  -3.136701e+05
   8.112092e+05  -6.911855e+05
   1.277380e+06  -5.350450e+05
   8.002635e+05   1.949105e+05
  -7.614688e+04   8.871090e+05
  -5.686294e+05   8.801918e+05
  -4.628148e+05   1.943919e+05
  -8.613456e+04  -4.648480e+05
   2.246197e+05  -4.624297e+05
   3.571661e+05   1.050994e+05
   2.730707e+05   5.712070e+05
  -3.696065e+04   4.611235e+05
  -3.954364e+05  -2.061089e+04
  -4.919785e+05  -2.951988e+05
  -2.429865e+05  -1.125271e+05
   5.244379e+04   1.783575e+05
   7.849675e+04   9.762107e+04
  -7.087494e+04  -3.361662e+05
  -2.787300e+04  -5.972061e+05
   2.984898e+05  -2.925233e+05
   5.188304e+05   3.314271e+05
   2.359102e+05   6.453448e+05
  -3.846317e+05   3.444550e+05
  -6.983053e+05  -2.418300e+05
  -2.883777e+05  -5.552122e+05
   5.101610e+05  -3.829088e+05
   9.084977e+05   3.924265e+04
   5.000356e+05   3.661282e+05
  -2.866136e+05   4.352752e+05
  -6.470726e+05   2.769854e+05
  -2.792747e+05   2.779408e+04
   3.078722e+05  -1.106765e+05
   3.980843e+05   1.086689e+04
  -1.255148e+05   2.748314e+05
  -6.833114e+05   2.981411e+05
