
 $NMID
 id='ANONYMOUS ', fmtdat='(2E16.6)'
 volume=1.0
 tramp=1.0
 $END
   1.079617e+07   1.259757e+06
   5.608841e+06   7.877628e+06
  -2.606189e+06   7.341855e+06
  -5.859095e+06   1.818589e+06
  -2.931080e+06  -2.189985e+06
   1.021174e+06  -1.753060e+06
   1.819553e+06   7.180131e+05
   7.427257e+04   1.995935e+06
  -1.575693e+06   1.401434e+06
  -1.889049e+06  -4.854336e+04
  -1.128927e+06  -1.305965e+06
   4.441349e+04  -1.546561e+06
   7.606351e+05  -4.823080e+05
   2.972000e+05   8.806074e+05
  -9.107255e+05   9.316859e+05
  -1.422529e+06  -5.630734e+05
  -4.843515e+05  -2.047966e+06
   1.099666e+06  -2.090145e+06
   2.085077e+06  -8.542156e+05
   2.033667e+06   6.042915e+05
   1.198067e+06   1.573198e+06
   2.764337e+04   1.798059e+06
  -8.110392e+05   1.265738e+06
  -7.382081e+05   4.646661e+05
  -9.927195e+04   1.849648e+05
  -5.785802e+03   5.156421e+05
  -8.335960e+05   6.222213e+05
  -1.564429e+06  -1.599357e+04
  -1.195257e+06  -7.891096e+05
  -1.331876e+05  -9.026946e+05
   5.069749e+05  -4.929604e+05
   4.115025e+05  -1.690072e+05
   8.959565e+04  -4.764097e+04
  -1.319786e+05   3.130844e+04
  -2.649475e+05  -1.143896e+05
  -1.433224e+05  -5.663349e+05
   3.458088e+05  -7.118216e+05
   7.076863e+05  -5.962598e+04
   4.043943e+05   6.966140e+05
  -1.461262e+05   5.198730e+05
  -7.361744e+04  -2.498980e+05
   4.613147e+05  -2.551492e+05
   3.389620e+05   6.944513e+05
  -7.242909e+05   1.106361e+06
  -1.487771e+06   4.268707e+03
  -8.460598e+05  -1.483257e+06
   6.233360e+05  -1.598498e+06
   1.450237e+06  -2.683596e+05
   1.049778e+06   9.993437e+05
   5.189753e+04   1.096914e+06
  -6.994660e+05   3.017607e+05
  -7.952566e+05  -4.962247e+05
  -2.364919e+05  -7.268827e+05
   5.426643e+05  -3.286111e+05
   8.036581e+05   3.186969e+05
   2.732868e+05   5.852580e+05
  -3.501655e+05   2.153549e+05
  -2.419670e+05  -2.407428e+05
   3.496644e+05  -8.099730e+04
   4.207538e+05   5.306315e+05
  -3.237349e+05   7.477643e+05
  -1.054370e+06   2.235730e+05
  -9.878866e+05  -4.998450e+05
  -2.882746e+05  -8.589997e+05
   4.401726e+05  -8.770626e+05
   9.173990e+05  -6.985425e+05
   1.077066e+06  -1.844030e+05
   7.600306e+05   6.066544e+05
   4.043743e+04   1.069243e+06
  -5.116978e+05   7.475266e+05
  -4.279919e+05   6.277434e+04
   5.111835e+03  -1.984717e+05
   1.440535e+05   7.191503e+04
  -1.306406e+05   2.902237e+05
  -3.738300e+05   1.004397e+05
  -2.909578e+05  -2.134489e+05
  -3.921293e+04  -2.544046e+05
   1.386692e+05  -6.997090e+03
   1.550914e+05   2.896886e+05
  -4.628612e+04   4.179197e+05
  -4.439956e+05   2.356364e+05
  -7.240535e+05  -2.415604e+05
  -5.115402e+05  -7.086191e+05
   8.106470e+04  -7.860930e+05
   5.015543e+05  -4.702260e+05
   4.832128e+05  -1.351864e+05
   3.614256e+05  -1.298473e+04
   4.806863e+05   6.234415e+04
   6.410594e+05   2.869761e+05
   4.335336e+05   5.466303e+05
  -1.188172e+05   6.166002e+05
  -5.828351e+05   4.720083e+05
  -6.509973e+05   2.181818e+05
  -3.871038e+05  -7.906575e+04
  -3.626211e+04  -3.090703e+05
   1.675163e+05  -2.818855e+05
   8.934964e+04  -1.011933e+04
  -1.729705e+05   1.693240e+05
  -3.047338e+05   2.195088e+04
  -1.377452e+05  -2.069814e+05
   7.992769e+04  -1.529930e+05
   1.442382e+04   6.975136e+04
  -2.345525e+05   1.715443e+04
  -2.440629e+05  -3.756653e+05
   1.175171e+05  -6.409351e+05
   5.037852e+05  -4.219549e+05
   5.779061e+05   7.561295e+04
   3.893713e+05   4.247296e+05
   1.545827e+05   4.797737e+05
  -5.255792e+04   3.571060e+05
  -2.155740e+05   1.670269e+05
  -2.288260e+05  -3.033080e+03
  -7.375598e+04  -2.230609e+04
   2.816263e+04   1.192362e+05
  -1.101606e+05   1.981142e+05
  -3.218422e+05   3.453458e+04
  -2.896294e+05  -2.099244e+05
  -1.075336e+04  -2.365183e+05
   1.864438e+05  -4.184879e+04
   8.790542e+04   9.061282e+04
  -1.591062e+05   2.075567e+03
  -2.753451e+05  -1.738356e+05
  -1.479925e+05  -2.629483e+05
   1.357345e+05  -2.417631e+05
   3.884455e+05  -1.345019e+05
   4.117899e+05   5.771120e+04
   1.483271e+05   2.368211e+05
  -1.856672e+05   2.182366e+05
  -2.614526e+05  -6.519803e+03
  -1.674101e+04  -1.739675e+05
   2.461699e+05  -6.789227e+04
   2.269359e+05   1.784919e+05
  -2.170145e+04   2.578071e+05
  -2.088614e+05   9.024964e+04
  -1.697595e+05  -1.089509e+05
   3.622625e+03  -1.275878e+05
   1.224481e+05   2.249449e+04
   7.204792e+04   1.757972e+05
  -1.250037e+05   1.848903e+05
  -3.048579e+05   1.761780e+04
  -2.660119e+05  -2.152858e+05
   9.311834e+03  -3.205582e+05
   2.731671e+05  -1.987774e+05
   2.689884e+05   2.918397e+04
   4.388110e+04   1.471409e+05
  -1.215257e+05   9.280443e+04
  -7.837726e+04  -1.814927e+03
   4.067564e+04  -1.588384e+04
   5.435058e+04   1.886912e+04
  -3.256837e+04   8.351670e+03
  -8.947821e+04  -6.734265e+04
  -3.935532e+04  -1.517459e+05
   9.662586e+04  -1.734046e+05
   2.434359e+05  -7.520861e+04
   2.898634e+05   1.375702e+05
   1.492214e+05   3.362109e+05
  -1.122775e+05   3.432100e+05
  -2.814468e+05   1.366240e+05
  -2.277853e+05  -9.004848e+04
  -7.013031e+04  -1.473310e+05
  -1.554721e+04  -6.816321e+04
  -8.294324e+04  -2.392416e+04
  -1.056906e+05  -7.895106e+04
   1.344692e+04  -1.352502e+05
   1.746982e+05  -9.548499e+04
   2.212383e+05   2.498711e+04
   1.046611e+05   1.450228e+05
  -1.071417e+05   1.825609e+05
  -2.890430e+05   7.561970e+04
  -3.006894e+05  -1.554338e+05
  -7.915533e+04  -3.480005e+05
   2.470100e+05  -3.104846e+05
   4.202991e+05  -5.033045e+04
   3.114269e+05   1.963386e+05
   6.485219e+04   2.282811e+05
  -7.874018e+04   1.046339e+05
  -5.606384e+04   3.628734e+04
  -2.381277e+03   1.100677e+05
  -4.093505e+04   2.094656e+05
  -1.460614e+05   1.830187e+05
  -2.101862e+05   9.370583e+03
  -1.645863e+05  -1.992187e+05
  -2.192499e+04  -2.925625e+05
   1.336492e+05  -1.889311e+05
   1.835099e+05   4.620605e+04
   6.888511e+04   2.230044e+05
  -1.196212e+05   1.916783e+05
  -2.009579e+05   2.701064e+02
  -9.567969e+04  -1.592314e+05
   7.568998e+04  -1.685526e+05
   1.299711e+05  -9.053769e+04
   3.542393e+04  -4.724841e+04
  -5.720554e+04  -6.049125e+04
   2.613182e+03  -5.739687e+04
   1.854983e+05   1.373453e+04
   3.023420e+05   1.270977e+05
   1.998396e+05   2.149482e+05
  -7.046091e+04   2.171814e+05
  -2.885831e+05   1.166514e+05
  -2.824141e+05  -3.149233e+04
  -9.778536e+04  -1.198731e+05
   6.711227e+04  -8.395169e+04
   8.164401e+04   2.221983e+04
  -5.326435e+03   7.862781e+04
  -6.964566e+04   2.918873e+04
  -6.364297e+04  -6.720634e+04
  -2.973267e+04  -1.133108e+05
  -1.390183e+04  -7.436686e+04
  -2.201055e+04  -2.415324e+03
  -3.680645e+04   1.794830e+04
  -2.558030e+04  -4.771236e+04
   4.936167e+04  -1.342306e+05
   1.693668e+05  -1.251411e+05
   2.235377e+05   1.397739e+04
   1.118197e+05   1.639064e+05
  -1.008172e+05   1.674314e+05
  -2.088129e+05   2.172073e+04
  -9.226432e+04  -1.039019e+05
   1.290804e+05  -6.847946e+04
   2.222138e+05   7.593334e+04
   9.565097e+04   1.632207e+05
  -1.200422e+05   1.134930e+05
  -2.286038e+05  -3.778461e+03
  -1.565982e+05  -8.032769e+04
   5.863503e+03  -7.433901e+04
   1.036495e+05  -9.526070e+03
   5.043922e+04   6.028713e+04
  -9.473571e+04   6.534282e+04
  -1.723725e+05  -3.735222e+04
  -7.645875e+04  -1.891164e+05
   1.228627e+05  -2.396518e+05
   2.384906e+05  -9.602989e+04
   1.622381e+05   1.442666e+05
  -2.421946e+04   2.649023e+05
  -1.479124e+05   1.557338e+05
  -1.237990e+05  -6.630494e+04
  -1.176342e+04  -1.864797e+05
   7.659005e+04  -1.214974e+05
   8.674886e+04   1.395741e+04
   4.402535e+04   6.515867e+04
   7.407565e+03   1.847416e+04
   1.379099e+04  -8.257706e+03
   4.690871e+04   6.263108e+04
   4.950960e+04   1.606366e+05
  -2.007551e+04   1.570888e+05
  -1.323864e+05   2.925824e+04
  -1.973611e+05  -1.132020e+05
  -1.454230e+05  -1.600811e+05
  -1.841781e+03  -1.104828e+05
   1.257967e+05  -3.764017e+04
   1.434245e+05   8.825250e+03
   6.007343e+04   2.873874e+04
  -2.319079e+04   3.114753e+04
  -2.521545e+04   1.963327e+04
   2.023142e+04   1.088876e+04
   8.616155e+03   2.034201e+04
  -8.761868e+04   2.257703e+04
  -1.546969e+05  -2.880887e+04
  -6.529099e+04  -1.207630e+05
   1.444413e+05  -1.595836e+05
   2.842178e+05  -7.010028e+04
   2.155497e+05   9.977734e+04
   5.164165e+03   2.126550e+05
  -1.590014e+05   1.826637e+05
  -1.717325e+05   5.760720e+04
  -8.731555e+04  -4.417706e+04
  -1.522996e+04  -5.723049e+04
  -1.499785e+02  -1.920872e+04
  -1.573644e+04  -1.203397e+04
  -2.418098e+04  -6.616660e+04
  -5.609514e+03  -1.236191e+05
   4.261549e+04  -9.762132e+04
   9.415686e+04   2.550283e+04
   9.250598e+04   1.508965e+05
   5.446759e+03   1.594573e+05
  -1.105633e+05   3.246146e+04
  -1.394762e+05  -1.217060e+05
  -3.036794e+04  -1.728950e+05
   1.238746e+05  -9.127584e+04
   1.705635e+05   4.012176e+04
   6.686073e+04   1.174296e+05
  -6.547862e+04   1.047079e+05
  -7.911277e+04   4.349453e+04
   2.361730e+04   3.268157e+02
   9.331094e+04   1.022544e+04
   1.705063e+04   5.342876e+04
  -1.402018e+05   7.418746e+04
  -2.105756e+05   3.032196e+04
  -1.193643e+05  -6.176563e+04
   3.840158e+04  -1.311342e+05
   1.193053e+05  -1.137588e+05
   8.374752e+04  -1.930140e+04
   3.091309e+03   6.765105e+04
  -4.647511e+04   6.560978e+04
  -4.937066e+04  -1.864855e+04
  -2.323404e+04  -9.199599e+04
   1.848529e+04  -7.397448e+04
   5.789896e+04   1.168848e+04
   6.507499e+04   6.442450e+04
   3.173986e+04   2.927729e+04
  -5.505236e+03  -3.437034e+04
  -7.207928e+03  -3.001023e+04
   1.187330e+04   4.721327e+04
   7.597192e+02   9.900537e+04
  -4.924968e+04   4.917679e+04
  -7.765778e+04  -5.601870e+04
  -2.908352e+04  -1.020906e+05
   6.338053e+04  -4.283856e+04
   1.006216e+05   5.244096e+04
   2.919642e+04   8.732166e+04
  -8.926255e+04   4.087298e+04
  -1.368274e+05  -3.087703e+04
  -6.423794e+04  -6.904904e+04
   5.586951e+04  -6.107152e+04
   1.062657e+05  -2.819729e+04
   4.877099e+04   3.785509e+03
  -3.967196e+04   1.464097e+04
  -5.539870e+04  -3.822136e+03
   1.845153e+04  -3.153156e+04
   9.682077e+04  -2.433860e+04
