
 $NMID
 id='ANONYMOUS ', fmtdat='(2E16.6)'
 volume=1.0
 tramp=1.0
 $END
   2.922509e+07   1.193358e+06
   1.860426e+07   1.498447e+07
  -1.270487e+06   1.854361e+07
  -1.317338e+07   1.119707e+07
  -1.028479e+07   3.194590e+05
  -2.054882e+05  -5.174937e+06
   5.848525e+06  -2.088044e+06
   3.966047e+06   4.815854e+06
  -1.781793e+06   7.626952e+06
  -5.505627e+06   3.147083e+06
  -4.525548e+06  -3.894059e+06
  -4.067087e+05  -6.015505e+06
   2.829523e+06  -1.219324e+06
   2.074545e+06   4.937381e+06
  -1.884523e+06   5.682220e+06
  -4.829155e+06   2.744611e+05
  -3.325534e+06  -5.830942e+06
   1.636331e+06  -7.140051e+06
   5.710048e+06  -3.242536e+06
   5.671237e+06   1.863935e+06
   2.376008e+06   4.243285e+06
  -5.295297e+05   3.385376e+06
  -4.075609e+05   1.833004e+06
   1.767690e+06   2.086622e+06
   2.410371e+06   3.916916e+06
  -7.725741e+05   4.737326e+06
  -5.742183e+06   2.658333e+06
  -7.683973e+06  -1.189222e+06
  -4.209810e+06  -3.751034e+06
   1.576201e+06  -3.183008e+06
   4.172549e+06  -4.273220e+05
   1.619494e+06   2.003789e+06
  -2.692625e+06   2.146023e+06
  -4.203657e+06  -1.755485e+05
  -2.013191e+06  -3.166865e+06
   1.020130e+06  -4.120151e+06
   2.019331e+06  -1.858914e+06
   8.411765e+05   1.453894e+06
  -5.855929e+05   2.130525e+06
  -5.926284e+05  -6.414523e+05
   8.085693e+05  -3.328752e+06
   2.173263e+06  -2.246084e+06
   1.928640e+06   1.577204e+06
  -1.482659e+05   3.463619e+06
  -2.374643e+06   9.529904e+05
  -2.391277e+06  -3.152189e+06
   4.930549e+05  -4.274655e+06
   4.124903e+06  -1.285388e+06
   5.144254e+06   2.778444e+06
   2.228289e+06   4.379837e+06
  -2.324563e+06   2.716452e+06
  -4.586602e+06  -3.113172e+05
  -2.794828e+06  -2.197955e+06
   9.448132e+05  -1.779831e+06
   2.912397e+06   7.901574e+04
   1.617675e+06   1.377661e+06
  -9.082596e+05   9.016492e+05
  -1.660365e+06  -5.898528e+05
  -4.430339e+04  -1.305877e+06
   1.681383e+06  -4.593674e+05
   1.182754e+06   9.820019e+05
  -1.238826e+06   1.461764e+06
  -2.953394e+06   3.068846e+05
  -1.816821e+06  -1.850796e+06
   1.586538e+06  -3.517221e+06
   4.524073e+06  -3.187841e+06
   4.773513e+06  -5.342385e+05
   2.598078e+06   2.875749e+06
   1.424832e+05   4.640244e+06
  -8.958885e+05   3.856771e+06
  -7.508411e+05   2.027374e+06
  -8.089403e+05   1.129317e+06
  -1.759954e+06   1.198162e+06
  -2.848154e+06   6.233382e+05
  -2.819220e+06  -1.284949e+06
  -1.265839e+06  -3.001447e+06
   9.569515e+05  -2.529352e+06
   2.350542e+06   9.521031e+04
   1.825669e+06   2.642497e+06
  -3.972138e+05   2.931605e+06
  -2.698200e+06   8.639978e+05
  -3.243475e+06  -1.736625e+06
  -1.692624e+06  -2.976869e+06
   4.114502e+05  -2.484433e+06
   1.326044e+06  -1.369217e+06
   1.066132e+06  -8.416707e+05
   1.191765e+06  -9.721443e+05
   2.576354e+06  -7.976191e+05
   3.965188e+06   4.722217e+05
   3.267055e+06   2.485007e+06
   1.280264e+05   3.941370e+06
  -3.290801e+06   3.661197e+06
  -4.323151e+06   1.585770e+06
  -2.421850e+06  -1.007527e+06
   3.799632e+05  -2.333267e+06
   1.555416e+06  -1.572120e+06
   4.808088e+05   2.464419e+05
  -1.250136e+06   1.139526e+06
  -1.707582e+06   2.699381e+05
  -5.894629e+05  -1.085124e+06
   7.124431e+05  -1.083220e+06
   7.525652e+05   3.249443e+05
  -5.049056e+05   1.201078e+06
  -1.765427e+06  -2.749050e+04
  -1.653312e+06  -2.525355e+06
   1.283108e+05  -3.817453e+06
   2.530931e+06  -2.433079e+06
   3.857574e+06   6.037673e+05
   3.042818e+06   2.900520e+06
   6.576036e+05   2.993406e+06
  -1.412160e+06   1.464959e+06
  -1.667528e+06   6.328283e+04
  -4.849125e+05  -5.726171e+04
   3.514788e+05   7.300335e+05
  -2.928708e+05   1.161586e+06
  -1.605720e+06   5.161575e+05
  -1.847292e+06  -6.552480e+05
  -4.842685e+05  -1.199661e+06
   1.087201e+06  -6.206778e+05
   1.070618e+06   4.315166e+05
  -6.918152e+05   8.408015e+05
  -2.429456e+06   7.529982e+04
  -2.222729e+06  -1.352896e+06
   7.072339e+03  -2.292225e+06
   2.354865e+06  -1.874136e+06
   2.794639e+06  -3.112962e+05
   1.149271e+06   1.138820e+06
  -8.323602e+05   1.257438e+06
  -1.295934e+06   1.108427e+05
  -5.192697e+04  -9.333584e+05
   1.450146e+06  -6.504627e+05
   1.697199e+06   6.791999e+05
   5.226567e+05   1.603592e+06
  -9.083370e+05   1.165375e+06
  -1.299259e+06  -5.680580e+04
  -4.303884e+05  -6.836751e+05
   6.525790e+05  -8.528521e+04
   6.482067e+05   1.008271e+06
  -6.483592e+05   1.346258e+06
  -2.001832e+06   4.158709e+05
  -1.937457e+06  -1.109012e+06
  -3.377450e+05  -2.008247e+06
   1.358918e+06  -1.587394e+06
   1.666071e+06  -2.659195e+05
   5.719628e+05   8.148928e+05
  -6.108022e+05   8.402178e+05
  -7.507126e+05   5.311905e+04
   1.692663e+04  -5.784047e+05
   6.694868e+05  -4.302522e+05
   4.852722e+05   1.300318e+05
  -2.544935e+05   2.353080e+05
  -6.128411e+05  -4.138695e+05
   3.674510e+04  -1.123833e+06
   1.308017e+06  -9.140337e+05
   2.044932e+06   4.049365e+05
   1.400929e+06   1.926893e+06
  -2.599936e+05   2.441656e+06
  -1.655143e+06   1.541842e+06
  -1.845587e+06  -2.229491e+04
  -1.092901e+06  -1.062764e+06
  -3.830597e+05  -1.040481e+06
  -2.656469e+05  -4.642644e+05
  -3.734794e+05  -2.290956e+05
  -4.386164e+04  -5.986085e+05
   8.035145e+05  -9.250265e+05
   1.490947e+06  -4.326280e+05
   1.212294e+06   7.788127e+05
  -1.530224e+05   1.651880e+06
  -1.750604e+06   1.187635e+06
  -2.310555e+06  -4.738862e+05
  -1.214849e+06  -2.063984e+06
   8.517683e+05  -2.320328e+06
   2.399830e+06  -1.120960e+06
   2.421876e+06   4.876904e+05
   1.214457e+06   1.337668e+06
  -6.657617e+04   1.181132e+06
  -5.687197e+05   7.245205e+05
  -4.047736e+05   7.169726e+05
  -2.795299e+05   1.101418e+06
  -6.343540e+05   1.121996e+06
  -1.191031e+06   2.454948e+05
  -1.261940e+06  -1.119238e+06
  -4.912638e+05  -1.907381e+06
   6.750808e+05  -1.417809e+06
   1.299850e+06  -1.425770e+04
   8.408850e+05   1.198461e+06
  -2.619611e+05   1.366727e+06
  -9.891152e+05   5.637237e+05
  -7.746003e+05  -4.310014e+05
  -5.077672e+04  -9.137141e+05
   3.059285e+05  -8.032871e+05
  -5.508208e+03  -5.110148e+05
  -3.787369e+05  -3.955379e+05
  -2.229100e+04  -4.044046e+05
   1.061960e+06  -2.199125e+05
   1.927329e+06   3.176328e+05
   1.587457e+06   9.774943e+05
   8.498847e+04   1.314105e+06
  -1.425781e+06   1.055229e+06
  -1.764183e+06   3.515547e+05
  -8.770120e+05  -3.084097e+05
   1.903337e+05  -4.684809e+05
   4.567818e+05  -1.058343e+05
  -3.785395e+04   2.997581e+05
  -5.101563e+05   2.113788e+05
  -4.479725e+05  -3.548105e+05
  -8.901927e+04  -7.661491e+05
   5.288984e+04  -4.879008e+05
  -1.565389e+05   1.926378e+05
  -3.986894e+05   4.100417e+05
  -2.980285e+05  -2.208598e+05
   2.347658e+05  -1.029356e+06
   9.112414e+05  -1.015179e+06
   1.188115e+06  -4.947740e+04
   6.572574e+05   9.340118e+05
  -4.379880e+05   9.893830e+05
  -1.161032e+06   1.679887e+05
  -6.952781e+05  -6.352345e+05
   6.772940e+05  -6.621945e+05
   1.650718e+06   4.791906e+04
   1.182632e+06   8.474932e+05
  -3.629223e+05   1.102454e+06
  -1.552081e+06   6.536480e+05
  -1.364723e+06  -1.103786e+05
  -1.989574e+05  -5.536965e+05
   6.400865e+05  -3.262721e+05
   3.323669e+05   2.567981e+05
  -6.651487e+05   4.385608e+05
  -1.168455e+06  -2.172859e+05
  -5.122069e+05  -1.255055e+06
   7.888749e+05  -1.636488e+06
   1.586941e+06  -7.518337e+05
   1.235859e+06   8.517425e+05
   1.347296e+05   1.846959e+06
  -7.873355e+05   1.364330e+06
  -9.597453e+05  -1.146016e+05
  -4.991244e+05  -1.207326e+06
   1.306460e+05  -1.045430e+06
   5.370810e+05  -1.218408e+05
   5.483016e+05   4.164611e+05
   2.568260e+05   1.761258e+05
   1.576548e+04  -1.257509e+05
   1.403864e+05   2.383604e+05
   4.400777e+05   9.634508e+05
   2.795830e+05   1.122116e+06
  -6.036866e+05   4.052840e+05
  -1.502372e+06  -5.149951e+05
  -1.384004e+06  -8.848619e+05
  -1.825266e+05  -6.904876e+05
   9.702091e+05  -3.886779e+05
   1.038804e+06  -1.928449e+05
   2.863610e+05   6.235050e+03
  -1.903622e+05   2.137486e+05
   6.661001e+04   2.639498e+05
   3.808153e+05   1.691738e+05
   1.337571e+03   1.427090e+05
  -8.009230e+05   1.697643e+05
  -1.042087e+06  -8.308929e+04
  -2.432937e+05  -6.922335e+05
   1.000937e+06  -1.087749e+06
   1.664677e+06  -6.185378e+05
   1.265852e+06   5.502068e+05
   1.799054e+05   1.449207e+06
  -7.945436e+05   1.322755e+06
  -1.076003e+06   4.267181e+05
  -6.682137e+05  -3.227332e+05
  -7.279280e+04  -3.640665e+05
   1.697866e+05   3.765773e+03
  -4.759101e+04   9.065055e+04
  -3.423978e+05  -3.494787e+05
  -2.640345e+05  -8.253367e+05
   2.292158e+05  -6.543832e+05
   7.031918e+05   2.232153e+05
   6.420869e+05   1.060584e+06
  -4.323157e+04   1.031431e+06
  -8.324762e+05   1.162576e+05
  -9.791412e+05  -8.634100e+05
  -2.385362e+05  -1.106249e+06
   7.624739e+05  -5.766553e+05
   1.072844e+06   1.499947e+05
   4.528090e+05   5.668255e+05
  -3.081542e+05   5.774979e+05
  -3.115449e+05   3.345931e+05
   3.423497e+05   5.704226e+04
   6.812778e+05   2.322676e+03
   1.031218e+05   2.978649e+05
  -8.601773e+05   6.645266e+05
  -1.212640e+06   5.661286e+05
  -6.691459e+05  -1.344340e+05
   1.403156e+05  -8.352760e+05
   5.091193e+05  -8.037735e+05
   3.415500e+05  -7.954740e+04
  -1.562799e+04   5.232335e+05
  -2.761364e+05   3.782630e+05
  -3.530516e+05  -2.460600e+05
  -2.189232e+05  -5.958081e+05
   9.243505e+04  -3.520857e+05
   3.882288e+05   9.799629e+04
   4.394063e+05   2.442229e+05
   2.403366e+05   5.517529e+04
   1.289401e+04  -8.677177e+04
  -8.215329e+04   8.833003e+04
  -1.195199e+05   4.090153e+05
  -2.367688e+05   4.585975e+05
  -3.814517e+05   5.377197e+04
  -3.336058e+05  -4.997616e+05
   1.789797e+04  -6.709549e+05
   4.670493e+05  -2.576304e+05
   6.012851e+05   3.652468e+05
   1.877941e+05   6.222973e+05
  -5.023089e+05   3.344964e+05
  -8.365713e+05  -1.514122e+05
  -4.416540e+05  -4.033960e+05
   3.128546e+05  -3.282051e+05
   6.307881e+05  -1.256172e+05
   1.878662e+05   4.965322e+03
  -4.424578e+05  -1.451339e+04
  -4.427950e+05  -1.755844e+05
   2.576920e+05  -3.407713e+05
   8.838916e+05  -2.359881e+05
