
 $NMID
 id='ANONYMOUS ', fmtdat='(2E16.6)'
 volume=1.0
 tramp=1.0
 $END
  -1.980704e+07   8.580823e+05
  -1.361814e+07  -9.454172e+06
  -5.929968e+04  -1.294209e+07
   8.703759e+06  -8.152772e+06
   7.153786e+06  -3.570435e+05
   2.429439e+05   3.637722e+06
  -4.040051e+06   1.484414e+06
  -2.802329e+06  -3.286201e+06
   1.128102e+06  -5.208648e+06
   3.709808e+06  -2.246907e+06
   3.161253e+06   2.435850e+06
   4.630814e+05   3.958182e+06
  -1.798002e+06   9.231753e+05
  -1.459234e+06  -3.167433e+06
   1.162027e+06  -3.816575e+06
   3.289559e+06  -3.231643e+05
   2.458633e+06   3.818213e+06
  -8.243611e+05   4.880052e+06
  -3.671515e+06   2.450232e+06
  -3.868904e+06  -9.106416e+05
  -1.876698e+06  -2.637650e+06
   3.209727e+04  -2.323677e+06
   1.493129e+05  -1.435341e+06
  -1.074395e+06  -1.483207e+06
  -1.505413e+06  -2.480226e+06
   4.080267e+05  -3.013681e+06
   3.587891e+06  -1.860169e+06
   4.990961e+06   5.088673e+05
   2.895360e+06   2.264603e+06
  -8.375732e+05   2.081708e+06
  -2.599590e+06   3.983625e+05
  -1.030760e+06  -1.169755e+06
   1.685689e+06  -1.305180e+06
   2.625172e+06   1.032903e+05
   1.278388e+06   1.945579e+06
  -5.508673e+05   2.595106e+06
  -1.186819e+06   1.284681e+06
  -5.885937e+05  -7.877308e+05
   2.074225e+05  -1.346849e+06
   2.944946e+05   3.084127e+05
  -4.652425e+05   2.087355e+06
  -1.374117e+06   1.499446e+06
  -1.354067e+06  -1.027004e+06
   1.053465e+04  -2.432480e+06
   1.677941e+06  -8.470083e+05
   1.851623e+06   2.019580e+06
  -1.190693e+05   2.981487e+06
  -2.713655e+06   1.076515e+06
  -3.505376e+06  -1.695178e+06
  -1.566587e+06  -2.868782e+06
   1.503283e+06  -1.840436e+06
   3.045678e+06   1.450867e+05
   1.875910e+06   1.440500e+06
  -6.272682e+05   1.241554e+06
  -1.979817e+06   2.695258e+04
  -1.129687e+06  -9.053029e+05
   5.884597e+05  -6.488594e+05
   1.103597e+06   3.712850e+05
  -1.957959e+04   8.897631e+05
  -1.202226e+06   2.763203e+05
  -8.183640e+05  -7.821577e+05
   8.780611e+05  -1.122984e+06
   2.052828e+06  -2.843143e+05
   1.308071e+06   1.219127e+06
  -9.014521e+05   2.363643e+06
  -2.815887e+06   2.206181e+06
  -3.071684e+06   5.220369e+05
  -1.803227e+06  -1.743315e+06
  -2.543187e+05  -3.015110e+06
   5.164751e+05  -2.575090e+06
   5.210904e+05  -1.329904e+06
   5.344596e+05  -6.634036e+05
   1.059835e+06  -7.223904e+05
   1.738730e+06  -4.430373e+05
   1.782962e+06   7.299560e+05
   8.506775e+05   1.853964e+06
  -5.622828e+05   1.600144e+06
  -1.485597e+06  -4.687653e+04
  -1.196114e+06  -1.669290e+06
   1.975474e+05  -1.887738e+06
   1.702381e+06  -6.317681e+05
   2.144074e+06   1.001675e+06
   1.224899e+06   1.859919e+06
  -1.417619e+05   1.654743e+06
  -8.099751e+05   9.897503e+05
  -7.003190e+05   6.183498e+05
  -7.866841e+05   6.646851e+05
  -1.677568e+06   5.639644e+05
  -2.595778e+06  -2.317597e+05
  -2.171833e+06  -1.552243e+06
  -1.562150e+05  -2.553109e+06
   2.053245e+06  -2.427207e+06
   2.741766e+06  -1.108280e+06
   1.567412e+06   5.837910e+05
  -1.893030e+05   1.486050e+06
  -9.524114e+05   1.034752e+06
  -3.113729e+05  -1.439650e+05
   7.792123e+05  -7.588769e+05
   1.105549e+06  -2.141893e+05
   4.156627e+05   6.857479e+05
  -4.398598e+05   7.067477e+05
  -4.877317e+05  -2.159893e+05
   3.486073e+05  -7.953135e+05
   1.202256e+06   2.625818e+04
   1.117673e+06   1.682009e+06
  -8.946192e+04   2.519475e+06
  -1.673998e+06   1.595128e+06
  -2.519012e+06  -3.800428e+05
  -1.980758e+06  -1.853854e+06
  -4.508822e+05  -1.920126e+06
   8.826396e+05  -9.622039e+05
   1.066972e+06  -6.864176e+04
   3.137393e+05   2.919690e+04
  -2.417197e+05  -4.680811e+05
   1.669324e+05  -7.702017e+05
   1.040677e+06  -3.765879e+05
   1.225405e+06   3.959818e+05
   3.390245e+05   7.846400e+05
  -7.018565e+05   4.246611e+05
  -6.989981e+05  -2.707900e+05
   4.506904e+05  -5.544712e+05
   1.579313e+06  -6.764192e+04
   1.445401e+06   8.582305e+05
   1.196888e+04   1.483082e+06
  -1.500600e+06   1.242347e+06
  -1.804304e+06   2.443528e+05
  -7.696594e+05  -7.213156e+05
   5.121690e+05  -8.405525e+05
   8.443732e+05  -1.059673e+05
   6.067743e+04   6.041973e+05
  -9.278929e+05   4.519613e+05
  -1.116143e+06  -4.152732e+05
  -3.596615e+05  -1.041072e+06
   5.859309e+05  -7.715772e+05
   8.542616e+05   2.763460e+04
   2.885379e+05   4.505402e+05
  -4.291879e+05   7.500282e+04
  -4.450196e+05  -6.379589e+05
   3.879486e+05  -8.829772e+05
   1.281982e+06  -3.096953e+05
   1.273539e+06   6.777130e+05
   2.567290e+05   1.294475e+06
  -8.543085e+05   1.055185e+06
  -1.079225e+06   1.983983e+05
  -3.829738e+05  -5.258964e+05
   3.869097e+05  -5.564821e+05
   4.825256e+05  -4.165693e+04
  -1.272403e+04   3.741900e+05
  -4.297106e+05   2.767045e+05
  -3.025424e+05  -8.876773e+04
   1.790551e+05  -1.553516e+05
   4.109263e+05   2.683975e+05
  -6.597745e+03   7.358395e+05
  -8.324237e+05   6.160888e+05
  -1.330730e+06  -2.250837e+05
  -9.416415e+05  -1.219690e+06
   1.272748e+05  -1.580594e+06
   1.050298e+06  -1.017959e+06
   1.193206e+06  -4.494785e+03
   7.069551e+05   6.751118e+05
   2.428422e+05   6.562436e+05
   1.742664e+05   2.767906e+05
   2.574587e+05   1.313319e+05
   4.805813e+04   3.875574e+05
  -5.058158e+05   6.126710e+05
  -9.576196e+05   2.997608e+05
  -7.873311e+05  -4.865521e+05
   8.239156e+04  -1.066987e+06
   1.114456e+06  -7.923972e+05
   1.499883e+06   2.698131e+05
   8.201947e+05   1.319407e+06
  -5.144992e+05   1.524953e+06
  -1.542856e+06   7.695198e+05
  -1.580966e+06  -2.846275e+05
  -7.992070e+05  -8.581525e+05
   3.950265e+04  -7.641593e+05
   3.599955e+05  -4.621377e+05
   2.371919e+05  -4.557410e+05
   1.469288e+05  -7.152370e+05
   3.850220e+05  -7.434813e+05
   7.662271e+05  -1.860922e+05
   8.356769e+05   6.978733e+05
   3.513493e+05   1.222115e+06
  -4.104372e+05   9.267755e+05
  -8.415244e+05   2.994423e+04
  -5.677274e+05  -7.653881e+05
   1.492946e+05  -8.959386e+05
   6.440394e+05  -3.849252e+05
   5.228422e+05   2.723351e+05
   5.084330e+04   6.040642e+05
  -1.927475e+05   5.359849e+05
   4.032635e+03   3.321691e+05
   2.495403e+05   2.441913e+05
   2.123539e+04   2.576612e+05
  -6.854427e+05   1.640373e+05
  -1.255941e+06  -1.658363e+05
  -1.047172e+06  -6.054398e+05
  -8.000243e+04  -8.590646e+05
   9.050736e+05  -7.180202e+05
   1.141535e+06  -2.578984e+05
   5.809806e+05   1.932059e+05
  -1.121507e+05   3.128315e+05
  -2.987827e+05   7.663636e+04
   1.138312e+04  -1.938220e+05
   3.215644e+05  -1.420335e+05
   2.952037e+05   2.199367e+05
   7.267973e+04   4.833084e+05
  -2.205669e+04   3.081196e+05
   1.020480e+05  -1.227260e+05
   2.525786e+05  -2.622864e+05
   1.961515e+05   1.377376e+05
  -1.328008e+05   6.619489e+05
  -5.675997e+05   6.730280e+05
  -7.654275e+05   6.644100e+04
  -4.459437e+05  -5.810490e+05
   2.572815e+05  -6.504569e+05
   7.412673e+05  -1.386589e+05
   4.576369e+05   3.949074e+05
  -4.283859e+05   4.399714e+05
  -1.068251e+06  -8.666227e+03
  -7.735606e+05  -5.380523e+05
   2.262365e+05  -7.212621e+05
   1.000118e+06  -4.398791e+05
   8.843323e+05   5.813071e+04
   1.337003e+05   3.569907e+05
  -4.121529e+05   2.206589e+05
  -2.234897e+05  -1.588264e+05
   4.152185e+05  -2.934527e+05
   7.522023e+05   1.152237e+05
   3.534914e+05   7.914535e+05
  -4.723464e+05   1.062135e+06
  -1.002377e+06   5.109618e+05
  -8.083060e+05  -5.258359e+05
  -1.169512e+05  -1.185966e+06
   4.885281e+05  -8.901917e+05
   6.248178e+05   6.180212e+04
   3.402046e+05   7.754978e+05
  -7.379550e+04   6.811220e+05
  -3.481575e+05   8.855931e+04
  -3.568770e+05  -2.633400e+05
  -1.640362e+05  -1.138007e+05
  -1.116245e+04   8.251425e+04
  -1.029358e+05  -1.453894e+05
  -3.034060e+05  -6.117437e+05
  -1.941327e+05  -7.250064e+05
   3.879560e+05  -2.785598e+05
   9.762621e+05   3.077711e+05
   9.034206e+05   5.533935e+05
   1.302477e+05   4.432525e+05
  -6.148755e+05   2.615129e+05
  -6.671340e+05   1.386273e+05
  -1.904720e+05   3.788842e+03
   1.175044e+05  -1.390850e+05
  -4.027609e+04  -1.735707e+05
  -2.407494e+05  -1.071054e+05
  -4.796275e+03  -8.874196e+04
   5.059233e+05  -1.172792e+05
   6.710293e+05   3.301842e+04
   1.756645e+05   4.317002e+05
  -6.176865e+05   7.135928e+05
  -1.058418e+06   4.351186e+05
  -8.252174e+05  -3.210197e+05
  -1.415718e+05  -9.262905e+05
   4.865854e+05  -8.687818e+05
   6.801832e+05  -2.967142e+05
   4.315305e+05   1.945504e+05
   5.539474e+04   2.300293e+05
  -1.018394e+05  -3.217939e+03
   3.497922e+04  -5.898067e+04
   2.271730e+05   2.232775e+05
   1.834501e+05   5.297266e+05
  -1.336386e+05   4.250799e+05
  -4.514601e+05  -1.299073e+05
  -4.299299e+05  -6.648300e+05
   4.768644e+03  -6.575512e+05
   5.250445e+05  -8.888133e+04
   6.404669e+05   5.328762e+05
   1.758822e+05   7.033213e+05
  -4.746620e+05   3.861574e+05
  -6.927910e+05  -7.281177e+04
  -3.083815e+05  -3.550052e+05
   1.817343e+05  -3.809219e+05
   1.958663e+05  -2.275843e+05
  -2.155929e+05  -3.571862e+04
  -4.364440e+05   9.624875e+03
  -7.392738e+04  -1.882118e+05
   5.426206e+05  -4.425672e+05
   7.777513e+05  -3.888685e+05
   4.410362e+05   7.097456e+04
  -7.272227e+04   5.407784e+05
  -3.135164e+05   5.330063e+05
  -2.169318e+05   6.573391e+04
   1.627989e+03  -3.322930e+05
   1.668580e+05  -2.487917e+05
   2.257696e+05   1.495287e+05
   1.517618e+05   3.783814e+05
  -4.729983e+04   2.292424e+05
  -2.492544e+05  -5.462548e+04
  -2.919979e+05  -1.493294e+05
  -1.590808e+05  -3.293410e+04
  -8.663942e+02   5.548153e+04
   6.038501e+04  -5.379049e+04
   6.921587e+04  -2.557331e+05
   1.324000e+05  -2.913686e+05
   2.324396e+05  -4.301507e+04
   2.206351e+05   3.047030e+05
   4.674759e+03   4.214688e+05
  -2.914923e+05   1.726480e+05
  -3.914340e+05  -2.183638e+05
  -1.312498e+05  -3.927471e+05
   3.169866e+05  -2.263449e+05
   5.399582e+05   7.758992e+04
   2.920918e+05   2.497454e+05
  -1.911190e+05   2.189248e+05
  -3.991099e+05   9.626668e+04
  -1.222072e+05   4.947655e+03
   2.773261e+05   5.224705e+03
   2.805011e+05   1.043095e+05
  -1.608790e+05   2.169460e+05
  -5.598818e+05   1.594971e+05
