
 $NMID
 id='ANONYMOUS ', fmtdat='(2E16.6)'
 volume=1.0
 tramp=1.0
 $END
  -2.485522e+07   5.636936e+05
  -1.718476e+07  -1.125161e+07
  -5.447648e+05  -1.591094e+07
   1.069070e+07  -1.098526e+07
   9.359638e+06  -1.344242e+06
   7.504115e+05   4.620034e+06
  -5.216146e+06   2.483165e+06
  -4.079984e+06  -4.050810e+06
   1.086518e+06  -7.161222e+06
   4.765966e+06  -3.292276e+06
   4.166288e+06   3.229995e+06
   5.655600e+05   5.337516e+06
  -2.437067e+06   1.108770e+06
  -1.985669e+06  -4.470829e+06
   1.455883e+06  -5.311965e+06
   4.297180e+06  -6.074637e+05
   3.292238e+06   4.938509e+06
  -1.004355e+06   6.363423e+06
  -4.754316e+06   3.088933e+06
  -4.878455e+06  -1.375572e+06
  -2.082022e+06  -3.430919e+06
   2.867062e+05  -2.664964e+06
  -4.936628e+04  -1.481397e+06
  -1.989799e+06  -2.018738e+06
  -2.322026e+06  -3.784137e+06
   7.407954e+05  -4.396041e+06
   5.216331e+06  -2.406208e+06
   6.898448e+06   1.011297e+06
   3.753305e+06   3.239695e+06
  -1.464238e+06   2.740871e+06
  -3.794039e+06   2.760581e+05
  -1.373177e+06  -1.949081e+06
   2.677866e+06  -2.033523e+06
   4.016821e+06   2.321101e+05
   1.822052e+06   3.026890e+06
  -1.020487e+06   3.766621e+06
  -1.762877e+06   1.584751e+06
  -5.498821e+05  -1.329971e+06
   6.196467e+05  -1.756541e+06
   4.265644e+05   7.799362e+05
  -8.229170e+05   3.111479e+06
  -1.946681e+06   2.124932e+06
  -1.845637e+06  -1.273949e+06
  -2.283579e+05  -3.101391e+06
   1.813606e+06  -1.130135e+06
   2.225686e+06   2.448832e+06
  -7.134071e+04   3.691633e+06
  -3.479555e+06   1.324258e+06
  -4.743278e+06  -2.264616e+06
  -2.245885e+06  -3.900629e+06
   2.012881e+06  -2.608604e+06
   4.253431e+06   8.009995e+04
   2.713588e+06   1.900508e+06
  -7.082225e+05   1.699252e+06
  -2.608147e+06   1.191509e+05
  -1.556521e+06  -1.125738e+06
   7.395651e+05  -8.510562e+05
   1.561124e+06   4.789417e+05
   1.543919e+05   1.302522e+06
  -1.587334e+06   6.674288e+05
  -1.368736e+06  -7.760121e+05
   8.305319e+05  -1.495998e+06
   2.617194e+06  -5.762000e+05
   1.771608e+06   1.488473e+06
  -1.308824e+06   3.152552e+06
  -4.015605e+06   2.918609e+06
  -4.238495e+06   5.462548e+05
  -2.308847e+06  -2.501885e+06
  -2.190827e+05  -4.132447e+06
   6.430519e+05  -3.556123e+06
   6.159631e+05  -1.999361e+06
   8.434537e+05  -1.138742e+06
   1.759563e+06  -1.074303e+06
   2.669564e+06  -4.767764e+05
   2.561306e+06   1.261028e+06
   1.113840e+06   2.805358e+06
  -9.373831e+05   2.342782e+06
  -2.226770e+06  -1.074512e+05
  -1.721625e+06  -2.465035e+06
   3.478782e+05  -2.700816e+06
   2.439485e+06  -7.867490e+05
   2.907939e+06   1.536935e+06
   1.531730e+06   2.591413e+06
  -2.868553e+05   2.148804e+06
  -1.064358e+06   1.225553e+06
  -8.640691e+05   8.272461e+05
  -1.046956e+06   9.732389e+05
  -2.354294e+06   8.264123e+05
  -3.658791e+06  -3.248579e+05
  -3.061833e+06  -2.207484e+06
  -1.975412e+05  -3.628469e+06
   2.973832e+06  -3.422310e+06
   3.957593e+06  -1.493940e+06
   2.212166e+06   9.252659e+05
  -3.671995e+05   2.142589e+06
  -1.430928e+06   1.431528e+06
  -4.331347e+05  -2.328183e+05
   1.141121e+06  -1.055527e+06
   1.552981e+06  -2.793261e+05
   5.436014e+05   9.682499e+05
  -6.544040e+05   1.003575e+06
  -7.320049e+05  -2.969669e+05
   4.232772e+05  -1.187854e+06
   1.685435e+06  -1.134851e+05
   1.701747e+06   2.275285e+06
   4.965307e+04   3.635216e+06
  -2.309749e+06   2.432046e+06
  -3.662945e+06  -4.465989e+05
  -2.922494e+06  -2.675704e+06
  -6.608586e+05  -2.797666e+06
   1.293613e+06  -1.372225e+06
   1.540676e+06  -7.073291e+04
   4.482695e+05   4.488559e+04
  -3.390737e+05  -6.666921e+05
   2.310754e+05  -1.070907e+06
   1.448045e+06  -5.161329e+05
   1.716630e+06   5.443950e+05
   4.886083e+05   1.088086e+06
  -9.897471e+05   6.027328e+05
  -1.014888e+06  -3.859527e+05
   6.261396e+05  -8.246921e+05
   2.284827e+06  -1.354808e+05
   2.120406e+06   1.232861e+06
   4.024460e+04   2.158324e+06
  -2.157920e+06   1.792448e+06
  -2.582478e+06   3.410364e+05
  -1.084150e+06  -1.018675e+06
   7.280067e+05  -1.162162e+06
   1.171018e+06  -1.322612e+05
   5.993450e+04   8.431041e+05
  -1.319565e+06   6.243785e+05
  -1.585449e+06  -5.874203e+05
  -5.307155e+05  -1.478594e+06
   8.126637e+05  -1.119434e+06
   1.218982e+06   9.298799e+03
   4.312326e+05   6.255468e+05
  -5.913123e+05   1.011063e+05
  -6.131452e+05  -9.118884e+05
   5.765353e+05  -1.246705e+06
   1.836443e+06  -4.112271e+05
   1.800780e+06   9.898740e+05
   3.486323e+05   1.842997e+06
  -1.218013e+06   1.492200e+06
  -1.533670e+06   2.839777e+05
  -5.525571e+05  -7.423672e+05
   5.473128e+05  -7.940928e+05
   7.024299e+05  -5.531857e+04
  -6.595078e+03   5.587909e+05
  -6.368208e+05   4.206224e+05
  -4.787806e+05  -1.341518e+05
   2.294975e+05  -2.580711e+05
   5.947219e+05   3.540010e+05
   4.265333e+03   1.042551e+06
  -1.187049e+06   8.744253e+05
  -1.895553e+06  -3.340886e+05
  -1.326189e+06  -1.751297e+06
   2.003404e+05  -2.262128e+06
   1.512100e+06  -1.465098e+06
   1.725379e+06  -1.424512e+04
   1.041681e+06   9.885603e+05
   3.595121e+05   9.913673e+05
   2.240014e+05   4.347336e+05
   3.320417e+05   1.851852e+05
   5.561070e+04   5.360097e+05
  -7.208373e+05   8.754147e+05
  -1.379203e+06   4.344386e+05
  -1.145987e+06  -7.104380e+05
   1.122970e+05  -1.551087e+06
   1.604730e+06  -1.138660e+06
   2.150889e+06   3.978734e+05
   1.170135e+06   1.887074e+06
  -7.291036e+05   2.165296e+06
  -2.190815e+06   1.095473e+06
  -2.263156e+06  -3.953686e+05
  -1.169760e+06  -1.227462e+06
   3.962623e+04  -1.120469e+06
   5.385090e+05  -6.897738e+05
   3.872076e+05  -6.511173e+05
   2.431915e+05  -9.973318e+05
   5.547298e+05  -1.036707e+06
   1.084447e+06  -2.476829e+05
   1.179004e+06   1.011375e+06
   4.830023e+05   1.752576e+06
  -6.018490e+05   1.319148e+06
  -1.203819e+06   3.781231e+04
  -8.063265e+05  -1.086891e+06
   2.046389e+05  -1.272534e+06
   8.972909e+05  -5.617144e+05
   7.343370e+05   3.595889e+05
   8.677644e+04   8.387376e+05
  -2.493306e+05   7.617962e+05
   1.747480e+04   4.851947e+05
   3.495880e+05   3.611897e+05
   2.363363e+04   3.733314e+05
  -9.708086e+05   2.279381e+05
  -1.776779e+06  -2.502431e+05
  -1.486179e+06  -8.680620e+05
  -1.195116e+05  -1.209296e+06
   1.280528e+06  -1.002760e+06
   1.622806e+06  -3.672233e+05
   8.297916e+05   2.551932e+05
  -1.562055e+05   4.314783e+05
  -4.192540e+05   1.152350e+05
   2.948162e+04  -2.637281e+05
   4.713700e+05  -1.970559e+05
   4.169673e+05   3.193830e+05
   7.953631e+04   7.021403e+05
  -5.356575e+04   4.452670e+05
   1.478334e+05  -1.885108e+05
   3.774704e+05  -3.906999e+05
   2.820524e+05   1.986690e+05
  -2.086056e+05   9.547900e+05
  -8.222066e+05   9.501202e+05
  -1.075617e+06   6.534131e+04
  -6.064405e+05  -8.431889e+05
   3.811678e+05  -9.082150e+05
   1.052999e+06  -1.663551e+05
   6.476934e+05   5.782075e+05
  -6.126392e+05   6.271002e+05
  -1.535159e+06  -1.310086e+04
  -1.125550e+06  -7.696843e+05
   3.104277e+05  -1.042358e+06
   1.436944e+06  -6.457084e+05
   1.279869e+06   7.662114e+04
   1.978900e+05   5.152418e+05
  -5.879877e+05   3.191269e+05
  -3.093312e+05  -2.251886e+05
   6.097164e+05  -4.057662e+05
   1.075559e+06   1.912123e+05
   4.778199e+05   1.149174e+06
  -7.142893e+05   1.510346e+06
  -1.455617e+06   7.058836e+05
  -1.150915e+06  -7.725152e+05
  -1.488945e+05  -1.706265e+06
   7.109881e+05  -1.279509e+06
   8.958293e+05   8.440356e+04
   4.890965e+05   1.111978e+06
  -9.727948e+04   9.808524e+05
  -4.938976e+05   1.275011e+05
  -5.201593e+05  -3.830350e+05
  -2.474092e+05  -1.668727e+05
  -1.085214e+04   1.212441e+05
  -1.240639e+05  -2.046301e+05
  -4.180428e+05  -8.783984e+05
  -2.851075e+05  -1.041233e+06
   5.405800e+05  -3.928859e+05
   1.398017e+06   4.547821e+05
   1.302816e+06   8.029030e+05
   1.815971e+05   6.339326e+05
  -8.992108e+05   3.674824e+05
  -9.625032e+05   1.952741e+05
  -2.601918e+05   8.249423e+03
   1.757608e+05  -1.973663e+05
  -7.301834e+04  -2.542828e+05
  -3.621714e+05  -1.632482e+05
   1.496197e+03  -1.299386e+05
   7.469852e+05  -1.570440e+05
   9.600027e+05   6.452685e+04
   2.187165e+05   6.243709e+05
  -9.157937e+05   1.005387e+06
  -1.515637e+06   5.902900e+05
  -1.158408e+06  -4.888199e+05
  -1.806509e+05  -1.334705e+06
   7.097298e+05  -1.229953e+06
   9.826320e+05  -4.012364e+05
   6.193774e+05   2.958377e+05
   6.747212e+04   3.320661e+05
  -1.628649e+05  -1.329146e+04
   4.325253e+04  -9.408342e+04
   3.281420e+05   3.172769e+05
   2.598570e+05   7.605880e+05
  -2.034532e+05   6.034505e+05
  -6.500631e+05  -2.051741e+05
  -5.962245e+05  -9.737826e+05
   3.755707e+04  -9.443993e+05
   7.674677e+05  -1.041922e+05
   9.060805e+05   7.914869e+05
   2.280944e+05   1.012975e+06
  -6.930979e+05   5.332255e+05
  -9.847351e+05  -1.241526e+05
  -4.232867e+05  -5.059944e+05
   2.703160e+05  -5.274701e+05
   2.726838e+05  -3.155093e+05
  -3.243670e+05  -5.726049e+04
  -6.303140e+05   3.982761e+03
  -9.676191e+04  -2.696441e+05
   7.854733e+05  -6.261283e+05
   1.106889e+06  -5.507937e+05
   6.136131e+05   1.018749e+05
  -1.169920e+05   7.681317e+05
  -4.480859e+05   7.490884e+05
  -3.002708e+05   7.616917e+04
   1.493466e+04  -4.841528e+05
   2.486689e+05  -3.462260e+05
   3.247191e+05   2.314570e+05
   2.082495e+05   5.463246e+05
  -7.861253e+04   3.165940e+05
  -3.569315e+05  -8.898363e+04
  -4.088392e+05  -2.115921e+05
  -2.253643e+05  -4.210989e+04
  -1.145155e+04   7.078513e+04
   8.232213e+04  -9.712143e+04
   1.203938e+05  -3.779139e+05
   2.247082e+05  -4.067861e+05
   3.479906e+05  -3.518935e+04
   2.965668e+05   4.608861e+05
  -2.446788e+04   6.119421e+05
  -4.296111e+05   2.367635e+05
  -5.500715e+05  -3.318389e+05
  -1.746798e+05  -5.726674e+05
   4.555276e+05  -3.151419e+05
   7.659966e+05   1.300109e+05
   4.097459e+05   3.651335e+05
  -2.806797e+05   2.999714e+05
  -5.732654e+05   1.169713e+05
  -1.654624e+05   1.758439e+02
   4.142999e+05   2.031535e+04
   4.091267e+05   1.684901e+05
  -2.446830e+05   3.192958e+05
  -8.253503e+05   2.214324e+05
