
 $NMID
 id='ANONYMOUS ', fmtdat='(2E16.6)'
 volume=1.0
 tramp=1.0
 $END
   5.493854e+07  -1.410989e+06
   3.418078e+07   3.294586e+07
  -6.010706e+06   3.741525e+07
  -2.658153e+07   1.536577e+07
  -1.656329e+07  -6.158308e+06
   2.814738e+06  -9.312878e+06
   9.768139e+06   7.110579e+05
   3.199663e+06   9.512154e+06
  -5.754828e+06   9.556269e+06
  -9.473250e+06   2.373673e+06
  -7.066898e+06  -5.945255e+06
  -9.985424e+05  -8.515748e+06
   3.880642e+06  -2.775536e+06
   2.725293e+06   5.409652e+06
  -3.554862e+06   6.669872e+06
  -7.810005e+06  -1.044350e+06
  -4.667528e+06  -9.925698e+06
   3.403720e+06  -1.171346e+07
   9.772924e+06  -6.030370e+06
   1.060202e+07   1.790472e+06
   6.579214e+06   7.139484e+06
   8.771631e+05   8.325631e+06
  -2.560763e+06   5.939122e+06
  -1.568154e+06   2.831915e+06
   1.174416e+06   2.346284e+06
   2.117576e+05   4.227267e+06
  -5.378799e+06   4.374360e+06
  -9.573722e+06   5.690952e+05
  -7.000806e+06  -3.965321e+06
  -2.646793e+05  -4.932090e+06
   3.688354e+06  -2.496904e+06
   2.382007e+06   6.584400e+04
  -7.931390e+05   9.858489e+05
  -2.432131e+06   4.140754e+05
  -2.180012e+06  -1.565624e+06
  -6.126687e+05  -3.956605e+06
   1.745312e+06  -3.778915e+06
   3.067059e+06   9.453054e+04
   1.659847e+06   3.478812e+06
  -6.654364e+05   1.769287e+06
  -2.620750e+05  -2.516805e+06
   2.445825e+06  -2.367917e+06
   2.539428e+06   3.067474e+06
  -2.116598e+06   6.109489e+06
  -6.667994e+06   1.254591e+06
  -5.176954e+06  -6.568911e+06
   1.588336e+06  -8.368437e+06
   7.199816e+06  -2.551693e+06
   7.005972e+06   4.239083e+06
   2.023732e+06   5.979172e+06
  -3.403038e+06   2.835417e+06
  -5.344273e+06  -1.366577e+06
  -2.584996e+06  -3.429954e+06
   2.285770e+06  -2.289758e+06
   4.509139e+06   7.526148e+05
   2.044598e+06   2.622587e+06
  -1.638506e+06   1.408998e+06
  -1.793844e+06  -9.817963e+05
   1.224275e+06  -1.031069e+06
   2.547476e+06   1.537480e+06
  -3.458040e+05   3.356540e+06
  -4.380202e+06   2.060751e+06
  -5.265201e+06  -1.104885e+06
  -2.427101e+06  -3.824997e+06
   1.706704e+06  -5.231607e+06
   4.949551e+06  -4.852061e+06
   6.120495e+06  -1.786890e+06
   4.538765e+06   3.072071e+06
   1.015322e+06   6.115897e+06
  -1.732515e+06   4.835583e+06
  -1.734805e+06   1.366722e+06
  -2.822751e+05  -1.670109e+05
  -1.158519e+05   9.442796e+05
  -1.665480e+06   1.697540e+06
  -2.804542e+06   1.566007e+05
  -1.995132e+06  -1.998758e+06
   3.179578e+04  -2.186758e+06
   1.633587e+06  -1.863306e+05
   1.734491e+06   2.141248e+06
   1.210439e+04   2.979481e+06
  -2.765723e+06   1.661312e+06
  -4.451981e+06  -1.162858e+06
  -3.227008e+06  -3.680086e+06
  -3.632321e+04  -4.154928e+06
   2.170649e+06  -2.715434e+06
   2.162663e+06  -1.195553e+06
   1.821062e+06  -7.574244e+05
   2.975082e+06  -5.546000e+05
   4.420524e+06   6.992301e+05
   3.576307e+06   2.759996e+06
   1.809676e+05   4.196391e+06
  -3.232848e+06   3.991443e+06
  -4.235158e+06   2.164003e+06
  -2.683187e+06  -4.347044e+05
  -2.559993e+05  -2.265506e+06
   1.124654e+06  -1.952122e+06
   5.664315e+05   3.678290e+04
  -1.099744e+06   1.333877e+06
  -1.925444e+06   4.325702e+05
  -9.403271e+05  -1.199719e+06
   5.241818e+05  -1.142838e+06
   4.677676e+05   3.920379e+05
  -1.052969e+06   7.774880e+05
  -1.940310e+06  -1.200071e+06
  -7.980296e+05  -3.520239e+06
   1.500799e+06  -3.581792e+06
   3.200622e+06  -1.281634e+06
   3.465242e+06   1.408587e+06
   2.401828e+06   2.840592e+06
   4.879370e+05   2.699340e+06
  -1.270185e+06   1.503943e+06
  -1.616423e+06   2.350973e+05
  -5.063286e+05  -4.316033e+04
   3.749120e+05   7.630586e+05
  -3.941432e+05   1.368989e+06
  -1.925039e+06   6.196861e+05
  -2.090115e+06  -8.645709e+05
  -4.277115e+05  -1.435199e+06
   1.185186e+06  -6.040576e+05
   9.230946e+05   4.570678e+05
  -8.654294e+05   5.565351e+05
  -2.259489e+06  -3.000576e+05
  -1.821462e+06  -1.391521e+06
   2.370046e+05  -2.045416e+06
   2.361529e+06  -1.723985e+06
   2.844630e+06  -3.061509e+05
   1.263116e+06   1.277407e+06
  -9.133567e+05   1.540480e+06
  -1.582045e+06   2.172640e+05
  -2.168178e+05  -1.091450e+06
   1.539753e+06  -7.683472e+05
   1.772133e+06   7.789127e+05
   3.737827e+05   1.695700e+06
  -1.106576e+06   1.028948e+06
  -1.302929e+06  -2.944786e+05
  -2.746447e+05  -7.973349e+05
   8.040483e+05  -6.845460e+04
   7.567406e+05   1.065422e+06
  -5.800334e+05   1.454177e+06
  -2.048123e+06   5.647606e+05
  -2.089243e+06  -1.059885e+06
  -4.116264e+05  -2.121125e+06
   1.458747e+06  -1.699739e+06
   1.771915e+06  -2.369203e+05
   5.321794e+05   8.861780e+05
  -6.643008e+05   8.346655e+05
  -6.521844e+05   8.364329e+04
   1.196339e+05  -3.777699e+05
   5.128928e+05  -2.181559e+05
   1.351816e+05   7.917988e+04
  -4.633490e+05  -6.106189e+04
  -5.453159e+05  -6.816593e+05
   1.984645e+05  -1.221567e+06
   1.410758e+06  -9.287597e+05
   2.136370e+06   4.098233e+05
   1.514469e+06   1.980888e+06
  -2.062539e+05   2.486285e+06
  -1.652331e+06   1.467254e+06
  -1.745900e+06  -1.171390e+05
  -8.936554e+05  -9.296685e+05
  -3.227023e+05  -6.876194e+05
  -4.745602e+05  -2.276437e+05
  -6.354553e+05  -3.077977e+05
  -9.801237e+04  -7.767215e+05
   8.947081e+05  -9.319069e+05
   1.489888e+06  -3.407824e+05
   1.083648e+06   7.454597e+05
  -2.525740e+05   1.509172e+06
  -1.764918e+06   1.112101e+06
  -2.310843e+06  -4.834910e+05
  -1.181112e+06  -2.145867e+06
   1.010518e+06  -2.435132e+06
   2.596663e+06  -1.084140e+06
   2.424393e+06   6.534523e+05
   1.001560e+06   1.372956e+06
  -2.051699e+05   9.845973e+05
  -4.087142e+05   5.295978e+05
  -8.639943e+04   7.631072e+05
  -9.688353e+04   1.329496e+06
  -6.715830e+05   1.322349e+06
  -1.318657e+06   3.374050e+05
  -1.377130e+06  -1.096634e+06
  -5.840961e+05  -1.937310e+06
   6.268740e+05  -1.477313e+06
   1.318812e+06  -8.856773e+03
   8.459847e+05   1.307048e+06
  -3.841612e+05   1.437020e+06
  -1.186527e+06   4.349105e+05
  -8.418842e+05  -6.986126e+05
   1.081749e+05  -1.102199e+06
   5.361105e+05  -8.119368e+05
   8.237568e+04  -4.332381e+05
  -4.438613e+05  -3.433787e+05
  -6.151764e+04  -3.935799e+05
   1.175028e+06  -2.253333e+05
   2.114414e+06   3.233134e+05
   1.666610e+06   1.048423e+06
  -2.087377e+04   1.469576e+06
  -1.613506e+06   1.182880e+06
  -1.876085e+06   3.039224e+05
  -8.646223e+05  -4.947590e+05
   2.593434e+05  -5.842621e+05
   5.249128e+05  -4.145715e+04
   3.458897e+04   4.284271e+05
  -4.550035e+05   2.672090e+05
  -4.971661e+05  -3.473597e+05
  -2.616580e+05  -7.386800e+05
  -9.955632e+04  -4.884695e+05
  -1.436532e+05   9.945945e+04
  -2.890045e+05   3.003684e+05
  -2.826578e+05  -2.382502e+05
   1.422612e+05  -1.011684e+06
   9.135770e+05  -1.097869e+06
   1.389543e+06  -1.911658e+05
   8.781158e+05   9.275659e+05
  -4.137344e+05   1.169948e+06
  -1.283769e+06   3.570683e+05
  -7.569601e+05  -5.819811e+05
   7.161865e+05  -6.723125e+05
   1.633487e+06   8.754964e+04
   1.040149e+06   8.831239e+05
  -4.924959e+05   1.022320e+06
  -1.539317e+06   5.013202e+05
  -1.268664e+06  -1.900221e+05
  -1.406327e+05  -5.280673e+05
   6.654549e+05  -2.814533e+05
   3.978384e+05   2.972719e+05
  -5.928846e+05   5.407029e+05
  -1.213064e+06  -6.895934e+04
  -7.031565e+05  -1.202021e+06
   5.827576e+05  -1.753973e+06
   1.511456e+06  -9.276401e+05
   1.298400e+06   7.633179e+05
   2.268089e+05   1.838049e+06
  -7.497019e+05   1.334725e+06
  -9.530013e+05  -1.767507e+05
  -4.502459e+05  -1.222643e+06
   2.231620e+05  -9.959690e+05
   5.786554e+05  -8.927865e+04
   4.771678e+05   3.837967e+05
   1.635374e+05   1.392024e+05
   5.133285e+04  -9.783468e+04
   2.989128e+05   3.015602e+05
   5.370360e+05   9.880979e+05
   2.003245e+05   1.106879e+06
  -7.383363e+05   4.141392e+05
  -1.519382e+06  -4.626393e+05
  -1.317098e+06  -8.488275e+05
  -1.964284e+05  -7.180052e+05
   8.657520e+05  -4.394820e+05
   1.007538e+06  -1.944073e+05
   3.785229e+05   5.390996e+04
  -1.436472e+05   2.342761e+05
  -4.464153e+04   2.089957e+05
   2.613942e+05   9.035270e+04
   5.714637e+04   1.343372e+05
  -6.646687e+05   2.530435e+05
  -1.076834e+06   6.228199e+03
  -4.717555e+05  -7.048469e+05
   8.362585e+05  -1.228617e+06
   1.743936e+06  -8.126477e+05
   1.472069e+06   4.138036e+05
   3.082657e+05   1.439414e+06
  -7.717680e+05   1.430569e+06
  -1.070323e+06   5.776746e+05
  -6.740575e+05  -2.218993e+05
  -1.485177e+05  -3.655511e+05
   5.848346e+04  -7.558187e+04
  -8.893191e+04   9.650795e+03
  -3.083649e+05  -3.787156e+05
  -2.607986e+05  -8.278547e+05
   1.696931e+05  -7.038569e+05
   6.980256e+05   1.030467e+05
   7.842155e+05   9.544210e+05
   1.545272e+05   1.058697e+06
  -7.590394e+05   2.825930e+05
  -1.081236e+06  -7.078088e+05
  -3.884787e+05  -1.114412e+06
   7.176939e+05  -7.212598e+05
   1.159217e+06   5.145614e+04
   5.675331e+05   6.302506e+05
  -2.827584e+05   7.168396e+05
  -3.959646e+05   3.896473e+05
   2.399548e+05   8.557387e+02
   6.634263e+05  -5.383719e+04
   1.617293e+05   3.167793e+05
  -8.373885e+05   7.110056e+05
  -1.299918e+06   5.680794e+05
  -8.037763e+05  -1.792396e+05
   8.121555e+04  -9.021453e+05
   5.653628e+05  -8.985042e+05
   4.493611e+05  -1.869929e+05
   7.188651e+04   4.848371e+05
  -2.342190e+05   4.607090e+05
  -3.628779e+05  -1.306785e+05
  -2.747217e+05  -5.883668e+05
   4.080792e+04  -4.534445e+05
   4.031727e+05   3.171132e+04
   5.009287e+05   2.890793e+05
   2.524892e+05   1.036979e+05
  -4.673421e+04  -1.644249e+05
  -8.851255e+04  -6.674993e+04
   3.903261e+04   3.519083e+05
  -9.326045e+03   5.806674e+05
  -3.117430e+05   2.579106e+05
  -4.977012e+05  -3.609592e+05
  -2.013656e+05  -6.583592e+05
   4.050974e+05  -3.389728e+05
   6.988159e+05   2.625263e+05
   2.804746e+05   5.777460e+05
  -5.191233e+05   3.893269e+05
  -9.184259e+05  -5.121129e+04
  -5.056155e+05  -3.776168e+05
   2.925760e+05  -4.301313e+05
   6.557487e+05  -2.636621e+05
   2.700249e+05  -2.803907e+04
  -3.355364e+05   8.953371e+04
  -4.122248e+05  -3.884053e+04
   1.526894e+05  -2.910622e+05
   7.345553e+05  -2.942123e+05
