
 $NMID
 id='ANONYMOUS ', fmtdat='(2E16.6)'
 volume=1.0
 tramp=1.0
 $END
   2.265619e+07   1.468200e+05
   1.492341e+07   1.102128e+07
  -3.686876e+05   1.441870e+07
  -9.933144e+06   9.172018e+06
  -8.089489e+06   6.161990e+05
  -3.539170e+05  -4.054068e+06
   4.549711e+06  -1.849122e+06
   3.288789e+06   3.662883e+06
  -1.178645e+06   6.071697e+06
  -4.235021e+06   2.645822e+06
  -3.630166e+06  -2.930181e+06
  -4.521381e+05  -4.698060e+06
   2.179042e+06  -1.004081e+06
   1.727295e+06   3.844968e+06
  -1.343328e+06   4.525323e+06
  -3.775113e+06   3.613699e+05
  -2.758391e+06  -4.461608e+06
   1.080858e+06  -5.614056e+06
   4.352901e+06  -2.665913e+06
   4.432791e+06   1.313423e+06
   1.919875e+06   3.213351e+06
  -3.223863e+05   2.588607e+06
  -2.080255e+05   1.414109e+06
   1.494423e+06   1.640211e+06
   1.976843e+06   3.085645e+06
  -5.427405e+05   3.750826e+06
  -4.469504e+06   2.174840e+06
  -6.039265e+06  -8.012259e+05
  -3.353477e+06  -2.848194e+06
   1.193220e+06  -2.495789e+06
   3.270898e+06  -3.791096e+05
   1.283015e+06   1.573138e+06
  -2.128637e+06   1.741789e+06
  -3.343538e+06  -8.980158e+04
  -1.627079e+06  -2.487571e+06
   7.578829e+05  -3.257209e+06
   1.543839e+06  -1.471502e+06
   6.414497e+05   1.129706e+06
  -4.426535e+05   1.646978e+06
  -4.513532e+05  -5.327042e+05
   6.024345e+05  -2.643800e+06
   1.668289e+06  -1.814450e+06
   1.559725e+06   1.179199e+06
   9.464847e+03   2.717820e+06
  -1.785042e+06   8.408825e+05
  -1.941517e+06  -2.357355e+06
   2.449193e+05  -3.330565e+06
   3.168648e+06  -1.106487e+06
   4.099772e+06   2.052642e+06
   1.862184e+06   3.392978e+06
  -1.766260e+06   2.198868e+06
  -3.627290e+06  -1.347139e+05
  -2.265221e+06  -1.667221e+06
   6.859191e+05  -1.431762e+06
   2.284181e+06  -2.132957e+04
   1.311267e+06   1.033997e+06
  -6.828199e+05   7.302248e+05
  -1.324928e+06  -4.271660e+05
  -7.671804e+04  -1.049985e+06
   1.328499e+06  -4.360468e+05
   1.004410e+06   7.332512e+05
  -8.935997e+05   1.203553e+06
  -2.305261e+06   3.456690e+05
  -1.481253e+06  -1.389183e+06
   1.166436e+06  -2.779726e+06
   3.487228e+06  -2.578182e+06
   3.722963e+06  -5.052043e+05
   2.075653e+06   2.197257e+06
   2.012617e+05   3.627860e+06
  -6.118855e+05   3.055907e+06
  -5.480160e+05   1.635959e+06
  -6.414001e+05   9.202248e+05
  -1.395791e+06   9.631545e+05
  -2.242652e+06   5.146487e+05
  -2.233194e+06  -9.844417e+05
  -1.032803e+06  -2.353492e+06
   7.264941e+05  -2.010240e+06
   1.865976e+06   4.325757e+04
   1.487025e+06   2.061077e+06
  -2.646364e+05   2.316905e+06
  -2.104179e+06   7.208100e+05
  -2.567445e+06  -1.306251e+06
  -1.375011e+06  -2.290549e+06
   2.673147e+05  -1.937522e+06
   9.931511e+05  -1.093334e+06
   8.047455e+05  -6.904614e+05
   9.150744e+05  -7.998085e+05
   2.015091e+06  -6.858928e+05
   3.133920e+06   2.903205e+05
   2.623305e+06   1.893153e+06
   1.765560e+05   3.104308e+06
  -2.526731e+06   2.945416e+06
  -3.378331e+06   1.322128e+06
  -1.920485e+06  -7.563452e+05
   2.671143e+05  -1.843141e+06
   1.201503e+06  -1.259712e+06
   3.810765e+05   1.876797e+05
  -9.655939e+05   9.185467e+05
  -1.338085e+06   2.454304e+05
  -4.818535e+05  -8.400100e+05
   5.444866e+05  -8.662551e+05
   6.059902e+05   2.440048e+05
  -3.715993e+05   9.708330e+05
  -1.404344e+06   3.256743e+04
  -1.377137e+06  -1.956362e+06
   1.084034e+04  -3.035509e+06
   1.954972e+06  -1.993870e+06
   3.071920e+06   3.967613e+05
   2.465697e+06   2.241690e+06
   5.742120e+05   2.357528e+06
  -1.089566e+06   1.180436e+06
  -1.314413e+06   7.757196e+04
  -3.835117e+05  -3.629940e+04
   2.913028e+05   5.688311e+05
  -2.051990e+05   9.203903e+05
  -1.251656e+06   4.397957e+05
  -1.469534e+06  -4.763579e+05
  -4.090032e+05  -9.350536e+05
   8.449059e+05  -5.123399e+05
   8.561351e+05   3.211948e+05
  -5.302093e+05   6.828589e+05
  -1.922870e+06   1.090042e+05
  -1.786644e+06  -1.030169e+06
  -3.822295e+04  -1.816085e+06
   1.825575e+06  -1.525940e+06
   2.199860e+06  -2.985285e+05
   9.285674e+05   8.742941e+05
  -6.291177e+05   1.004941e+06
  -1.015539e+06   1.134350e+05
  -5.794257e+04  -7.315744e+05
   1.129796e+06  -5.399984e+05
   1.352680e+06   5.018955e+05
   4.462921e+05   1.256581e+06
  -6.936013e+05   9.418405e+05
  -1.029703e+06  -1.632022e+04
  -3.569477e+05  -5.315704e+05
   5.107614e+05  -8.190162e+04
   5.292972e+05   7.810757e+05
  -4.862695e+05   1.071887e+06
  -1.569699e+06   3.636657e+05
  -1.547007e+06  -8.383300e+05
  -3.042088e+05  -1.576428e+06
   1.040378e+06  -1.277962e+06
   1.309309e+06  -2.427407e+05
   4.686713e+05   6.321411e+05
  -4.654875e+05   6.758282e+05
  -5.931271e+05   5.479936e+04
   2.618917e+03  -4.610745e+05
   5.248884e+05  -3.539202e+05
   3.904604e+05   9.793922e+04
  -1.961621e+05   1.972374e+05
  -4.951309e+05  -3.117576e+05
   4.604400e+03  -8.877617e+05
   1.013620e+06  -7.464986e+05
   1.620174e+06   2.805489e+05
   1.140387e+06   1.492840e+06
  -1.602594e+05   1.931084e+06
  -1.278925e+06   1.249302e+06
  -1.460235e+06   1.711557e+04
  -8.844284e+05  -8.233721e+05
  -3.187885e+05  -8.210778e+05
  -2.121110e+05  -3.633315e+05
  -2.953337e+05  -1.697514e+05
  -4.644137e+04  -4.680654e+05
   6.157302e+05  -7.456791e+05
   1.169746e+06  -3.702751e+05
   9.727700e+05   5.944089e+05
  -9.027891e+04   1.310052e+06
  -1.360338e+06   9.711328e+05
  -1.832672e+06  -3.310265e+05
  -9.988845e+05  -1.605578e+06
   6.251333e+05  -1.847296e+06
   1.870647e+06  -9.324298e+05
   1.922848e+06   3.370364e+05
   9.877199e+05   1.035152e+06
  -3.035020e+04   9.385117e+05
  -4.403202e+05   5.840563e+05
  -3.110780e+05   5.692831e+05
  -2.007852e+05   8.689248e+05
  -4.771069e+05   8.946403e+05
  -9.325233e+05   2.158415e+05
  -1.014883e+06  -8.591721e+05
  -4.221505e+05  -1.495071e+06
   5.066323e+05  -1.130361e+06
   1.025599e+06  -3.588445e+04
   6.872642e+05   9.284537e+05
  -1.784643e+05   1.083946e+06
  -7.683201e+05   4.678182e+05
  -6.212126e+05  -3.204826e+05
  -6.186199e+04  -7.188136e+05
   2.224291e+05  -6.421502e+05
  -1.457098e+04  -4.056651e+05
  -3.045494e+05  -3.055116e+05
  -2.417399e+04  -3.185914e+05
   8.322280e+05  -1.943311e+05
   1.524072e+06   2.128977e+05
   1.270704e+06   7.399937e+05
   9.516165e+04   1.034145e+06
  -1.101194e+06   8.593700e+05
  -1.384773e+06   3.124893e+05
  -7.003589e+05  -2.239724e+05
   1.391250e+05  -3.720755e+05
   3.581252e+05  -9.384410e+04
  -2.436765e+04   2.343761e+05
  -3.993708e+05   1.747385e+05
  -3.593234e+05  -2.715168e+05
  -8.110649e+04  -6.019161e+05
   3.536137e+04  -3.845712e+05
  -1.212544e+05   1.563837e+05
  -3.100858e+05   3.317536e+05
  -2.395498e+05  -1.686475e+05
   1.681744e+05  -8.160912e+05
   6.994580e+05  -8.167083e+05
   9.317532e+05  -6.072526e+04
   5.321709e+05   7.228375e+05
  -3.258764e+05   7.856872e+05
  -9.092718e+05   1.521034e+05
  -5.590259e+05  -4.889015e+05
   5.216552e+05  -5.355884e+05
   1.304821e+06   6.712025e+03
   9.522123e+05   6.480198e+05
  -2.646793e+05   8.798386e+05
  -1.214996e+06   5.473639e+05
  -1.081928e+06  -6.138933e+04
  -1.681241e+05  -4.344781e+05
   4.992328e+05  -2.705962e+05
   2.664563e+05   1.950468e+05
  -5.170522e+05   3.560027e+05
  -9.240682e+05  -1.518970e+05
  -4.237759e+05  -9.801635e+05
   5.947644e+05  -1.302366e+06
   1.238379e+06  -6.191382e+05
   9.894832e+05   6.504012e+05
   1.389398e+05   1.454827e+06
  -5.972099e+05   1.091837e+06
  -7.605531e+05  -7.160520e+04
  -4.174988e+05  -9.440391e+05
   8.250880e+04  -8.295346e+05
   4.212453e+05  -1.071917e+05
   4.414970e+05   3.198481e+05
   2.073208e+05   1.358452e+05
   9.771078e+03  -1.004767e+05
   1.130984e+05   1.827394e+05
   3.639125e+05   7.509418e+05
   2.429033e+05   8.817836e+05
  -4.665385e+05   3.324668e+05
  -1.194811e+06  -3.793787e+05
  -1.109884e+06  -6.741787e+05
  -1.569353e+05  -5.410694e+05
   7.600725e+05  -3.228603e+05
   8.170384e+05  -1.711915e+05
   2.250242e+05  -2.201956e+03
  -1.469390e+05   1.714755e+05
   5.886652e+04   2.093195e+05
   3.050331e+05   1.290963e+05
   2.608829e+03   1.121249e+05
  -6.306563e+05   1.459702e+05
  -8.226272e+05  -4.741570e+04
  -2.009914e+05  -5.393216e+05
   7.714203e+05  -8.731190e+05
   1.299235e+06  -5.166353e+05
   1.004441e+06   4.111240e+05
   1.665551e+05   1.139565e+06
  -6.019303e+05   1.056807e+06
  -8.399789e+05   3.540838e+05
  -5.323047e+05  -2.440619e+05
  -6.289666e+04  -2.851750e+05
   1.352426e+05   2.416298e+03
  -3.598769e+04   7.431991e+04
  -2.777050e+05  -2.693315e+05
  -2.239130e+05  -6.465869e+05
   1.692597e+05  -5.193609e+05
   5.580993e+05   1.652792e+05
   5.230121e+05   8.257077e+05
  -1.816234e+04   8.125316e+05
  -6.546270e+05   1.035449e+05
  -7.856119e+05  -6.651357e+05
  -2.062800e+05  -8.671905e+05
   5.905092e+05  -4.663479e+05
   8.471418e+05   9.932891e+04
   3.665925e+05   4.366832e+05
  -2.315026e+05   4.588251e+05
  -2.375740e+05   2.698341e+05
   2.726109e+05   4.078164e+04
   5.375978e+05  -9.615671e+03
   8.607625e+04   2.322863e+05
  -6.666334e+05   5.395493e+05
  -9.452067e+05   4.703791e+05
  -5.288236e+05  -9.147670e+04
   9.559261e+04  -6.602234e+05
   3.849837e+05  -6.429011e+05
   2.651020e+05  -6.832996e+04
  -4.591289e+03   4.131436e+05
  -2.108650e+05   3.018239e+05
  -2.819113e+05  -1.896719e+05
  -1.828253e+05  -4.658426e+05
   6.629694e+04  -2.773139e+05
   3.073585e+05   7.116927e+04
   3.508094e+05   1.831782e+05
   1.910538e+05   3.809986e+04
   8.819990e+03  -6.671411e+04
  -6.471915e+04   7.411396e+04
  -9.018456e+04   3.244957e+05
  -1.811999e+05   3.618900e+05
  -2.992737e+05   4.515585e+04
  -2.682744e+05  -3.891237e+05
   5.726589e+03  -5.279648e+05
   3.641897e+05  -2.099573e+05
   4.786433e+05   2.779964e+05
   1.576865e+05   4.876040e+05
  -3.894486e+05   2.725889e+05
  -6.607243e+05  -1.049155e+05
  -3.547550e+05  -3.100374e+05
   2.401737e+05  -2.628931e+05
   4.937678e+05  -1.087012e+05
   1.466089e+05   1.712573e+02
  -3.504040e+05  -6.178547e+03
  -3.519799e+05  -1.331387e+05
   1.994835e+05  -2.736310e+05
   6.954819e+05  -2.001606e+05
