
 $NMID
 id='ANONYMOUS ', fmtdat='(2E16.6)'
 volume=1.0
 tramp=1.0
 $END
   1.890622e+07  -8.591655e+05
   1.317324e+07   8.688949e+06
   3.576212e+05   1.228360e+07
  -8.197528e+06   8.154278e+06
  -7.008085e+06   6.923748e+05
  -4.160765e+05  -3.540536e+06
   3.937318e+06  -1.687878e+06
   2.927731e+06   3.115835e+06
  -9.290417e+05   5.240139e+06
  -3.589641e+06   2.353900e+06
  -3.122543e+06  -2.378234e+06
  -4.612756e+05  -3.929492e+06
   1.791024e+06  -8.865560e+05
   1.484484e+06   3.196847e+06
  -1.081577e+06   3.849326e+06
  -3.206497e+06   4.066606e+05
  -2.449238e+06  -3.683078e+06
   7.487031e+05  -4.746720e+06
   3.542730e+06  -2.360330e+06
   3.703309e+06   9.288106e+05
   1.713255e+06   2.543035e+06
  -9.241701e+04   2.129866e+06
  -4.663892e+04   1.271175e+06
   1.245636e+06   1.476356e+06
   1.586157e+06   2.590886e+06
  -4.522137e+05   3.084555e+06
  -3.653020e+06   1.823606e+06
  -4.990150e+06  -5.751967e+05
  -2.835322e+06  -2.281044e+06
   9.183999e+05  -2.050042e+06
   2.664769e+06  -3.330622e+05
   1.021186e+06   1.270703e+06
  -1.799835e+06   1.387911e+06
  -2.755343e+06  -1.300045e+05
  -1.291664e+06  -2.063755e+06
   6.430398e+05  -2.658607e+06
   1.227258e+06  -1.218402e+06
   5.016134e+05   8.696714e+05
  -3.082727e+05   1.309487e+06
  -2.923065e+05  -4.268547e+05
   5.193324e+05  -2.161299e+06
   1.381598e+06  -1.520304e+06
   1.358929e+06   9.728454e+05
   1.017223e+05   2.354008e+06
  -1.495748e+06   8.633809e+05
  -1.765827e+06  -1.873166e+06
   4.552291e+04  -2.832624e+06
   2.601797e+06  -1.048464e+06
   3.481727e+06   1.635243e+06
   1.614500e+06   2.836121e+06
  -1.473161e+06   1.878374e+06
  -3.068864e+06  -8.456690e+04
  -1.930072e+06  -1.411798e+06
   5.701618e+05  -1.259426e+06
   1.948233e+06  -7.465323e+04
   1.144336e+06   8.659979e+05
  -5.592419e+05   6.494004e+05
  -1.124914e+06  -3.563869e+05
  -4.670984e+04  -9.298359e+05
   1.190756e+06  -3.866098e+05
   9.224962e+05   6.854110e+05
  -7.342242e+05   1.124841e+06
  -1.980397e+06   3.647275e+05
  -1.306680e+06  -1.142396e+06
   9.084381e+05  -2.319636e+06
   2.840694e+06  -2.163464e+06
   3.056480e+06  -4.749060e+05
   1.743344e+06   1.759275e+06
   2.240479e+05   2.998664e+06
  -4.830967e+05   2.580224e+06
  -4.906145e+05   1.386635e+06
  -5.766119e+05   7.290660e+05
  -1.153199e+06   7.384110e+05
  -1.814373e+06   4.006742e+05
  -1.810264e+06  -8.022543e+05
  -8.376507e+05  -1.928365e+06
   6.081328e+05  -1.648528e+06
   1.547101e+06   5.211736e+04
   1.230634e+06   1.717534e+06
  -2.123107e+05   1.921497e+06
  -1.726801e+06   6.124069e+05
  -2.126327e+06  -1.039978e+06
  -1.176745e+06  -1.856284e+06
   1.627355e+05  -1.603955e+06
   7.824595e+05  -9.422600e+05
   6.595374e+05  -6.104750e+05
   7.680346e+05  -6.861340e+05
   1.682742e+06  -5.888032e+05
   2.614536e+06   2.186121e+05
   2.195466e+06   1.559910e+06
   1.637662e+05   2.582066e+06
  -2.082276e+06   2.455102e+06
  -2.789200e+06   1.105833e+06
  -1.585464e+06  -6.153262e+05
   2.166868e+05  -1.515134e+06
   9.878941e+05  -1.040700e+06
   3.177889e+05   1.525511e+05
  -7.943558e+05   7.678347e+05
  -1.115522e+06   2.191109e+05
  -4.128755e+05  -6.907543e+05
   4.527895e+05  -7.243520e+05
   5.143533e+05   2.096049e+05
  -3.206450e+05   8.329555e+05
  -1.212609e+06   3.920072e+04
  -1.183875e+06  -1.658342e+06
   1.709176e+04  -2.577169e+06
   1.666784e+06  -1.683252e+06
   2.582805e+06   3.446088e+05
   2.050127e+06   1.886767e+06
   4.708041e+05   1.966102e+06
  -9.035625e+05   9.775811e+05
  -1.089547e+06   6.342906e+04
  -3.192889e+05  -3.060196e+04
   2.478170e+05   4.722073e+05
  -1.588861e+05   7.742037e+05
  -1.040428e+06   3.849943e+05
  -1.239601e+06  -3.847800e+05
  -3.567485e+05  -7.860883e+05
   7.034953e+05  -4.404586e+05
   7.202657e+05   2.656491e+05
  -4.429613e+05   5.760168e+05
  -1.609245e+06   9.246291e+04
  -1.490223e+06  -8.643955e+05
  -2.870519e+04  -1.518709e+06
   1.521150e+06  -1.275122e+06
   1.833102e+06  -2.544413e+05
   7.821031e+05   7.256258e+05
  -5.132548e+05   8.455096e+05
  -8.466442e+05   1.077516e+05
  -5.913583e+04  -6.067517e+05
   9.363377e+05  -4.593761e+05
   1.134522e+06   4.120425e+05
   3.793570e+05   1.054416e+06
  -5.826614e+05   7.972119e+05
  -8.712865e+05  -9.892211e+03
  -3.079801e+05  -4.508678e+05
   4.235002e+05  -8.172345e+04
   4.475109e+05   6.388344e+05
  -3.924878e+05   8.890999e+05
  -1.296317e+06   3.102230e+05
  -1.287657e+06  -6.866591e+05
  -2.617401e+05  -1.309544e+06
   8.608537e+05  -1.071287e+06
   1.094667e+06  -2.075080e+05
   3.974024e+05   5.313618e+05
  -3.867380e+05   5.708647e+05
  -4.969312e+05   4.629246e+04
   2.392800e+03  -3.880505e+05
   4.396095e+05  -2.936027e+05
   3.237965e+05   8.878116e+04
  -1.690850e+05   1.698224e+05
  -4.181150e+05  -2.589644e+05
  -1.133805e+03  -7.405995e+05
   8.387480e+05  -6.248944e+05
   1.346608e+06   2.257919e+05
   9.531038e+05   1.234265e+06
  -1.288235e+05   1.605459e+06
  -1.066346e+06   1.042583e+06
  -1.219708e+06   1.193965e+04
  -7.318296e+05  -6.942409e+05
  -2.516683e+05  -6.879948e+05
  -1.656764e+05  -2.952689e+05
  -2.455528e+05  -1.295525e+05
  -4.330446e+04  -3.836586e+05
   5.099940e+05  -6.203413e+05
   9.712092e+05  -3.075035e+05
   8.043716e+05   4.962645e+05
  -7.839739e+04   1.090120e+06
  -1.129375e+06   8.087663e+05
  -1.523278e+06  -2.710539e+05
  -8.384217e+05  -1.333272e+06
   5.093811e+05  -1.543953e+06
   1.554913e+06  -7.883488e+05
   1.608281e+06   2.755849e+05
   8.274639e+05   8.681527e+05
  -2.978331e+04   7.877913e+05
  -3.734482e+05   4.817450e+05
  -2.580008e+05   4.621258e+05
  -1.584652e+05   7.158296e+05
  -3.881383e+05   7.461618e+05
  -7.716952e+05   1.859380e+05
  -8.451680e+05  -7.087085e+05
  -3.555846e+05  -1.239974e+06
   4.171276e+05  -9.405161e+05
   8.541541e+05  -3.395310e+04
   5.787934e+05   7.697113e+05
  -1.423156e+05   9.068562e+05
  -6.415812e+05   4.000970e+05
  -5.270220e+05  -2.600360e+05
  -6.181273e+04  -6.021448e+05
   1.805490e+05  -5.438297e+05
  -1.074042e+04  -3.424891e+05
  -2.497935e+05  -2.520026e+05
  -1.862876e+04  -2.627483e+05
   6.898210e+05  -1.663207e+05
   1.264919e+06   1.671135e+05
   1.060510e+06   6.086892e+05
   8.994752e+04   8.624478e+05
  -9.068857e+05   7.237597e+05
  -1.153328e+06   2.682778e+05
  -5.915660e+05  -1.831292e+05
   1.098816e+05  -3.108624e+05
   2.991701e+05  -8.174145e+04
  -1.752098e+04   1.902136e+05
  -3.319623e+05   1.417171e+05
  -2.979653e+05  -2.248227e+05
  -6.383387e+04  -4.947396e+05
   3.113843e+04  -3.145445e+05
  -1.042143e+05   1.299783e+05
  -2.614393e+05   2.734448e+05
  -1.981575e+05  -1.384724e+05
   1.407180e+05  -6.732453e+05
   5.750981e+05  -6.784731e+05
   7.646219e+05  -5.866823e+04
   4.401981e+05   5.909998e+05
  -2.626539e+05   6.502611e+05
  -7.468877e+05   1.296631e+05
  -4.626194e+05  -4.047117e+05
   4.328907e+05  -4.475278e+05
   1.087662e+06   4.572749e+03
   7.960237e+05   5.430691e+05
  -2.208472e+05   7.380671e+05
  -1.016199e+06   4.585514e+05
  -9.045897e+05  -5.176671e+04
  -1.405719e+05  -3.639173e+05
   4.163779e+05  -2.284392e+05
   2.234371e+05   1.580444e+05
  -4.259192e+05   2.931949e+05
  -7.627925e+05  -1.244852e+05
  -3.497587e+05  -8.081755e+05
   4.915796e+05  -1.075315e+06
   1.024540e+06  -5.114274e+05
   8.201723e+05   5.393529e+05
   1.156196e+05   1.207458e+06
  -4.972679e+05   9.084792e+05
  -6.353798e+05  -5.757975e+04
  -3.505609e+05  -7.861928e+05
   6.681745e+04  -6.947740e+05
   3.502380e+05  -9.258469e+04
   3.679663e+05   2.680976e+05
   1.733652e+05   1.165661e+05
   8.722451e+03  -8.580498e+04
   9.448703e+04   1.443657e+05
   3.039990e+05   6.203215e+05
   2.048099e+05   7.374314e+05
  -3.852481e+05   2.829838e+05
  -9.930888e+05  -3.141402e+05
  -9.245925e+05  -5.626617e+05
  -1.320462e+05  -4.487833e+05
   6.320147e+05  -2.646626e+05
   6.801081e+05  -1.425165e+05
   1.873799e+05  -6.543864e+03
  -1.223717e+05   1.411309e+05
   4.854047e+04   1.795000e+05
   2.527456e+05   1.123277e+05
   1.374719e+03   9.051161e+04
  -5.232001e+05   1.157613e+05
  -6.805139e+05  -3.773762e+04
  -1.649250e+05  -4.391959e+05
   6.378988e+05  -7.194089e+05
   1.071639e+06  -4.320706e+05
   8.276596e+05   3.349112e+05
   1.377512e+05   9.431991e+05
  -4.950426e+05   8.774184e+05
  -6.919632e+05   2.932911e+05
  -4.390834e+05  -2.030924e+05
  -5.193985e+04  -2.336796e+05
   1.110475e+05   7.511565e+03
  -3.218493e+04   6.486848e+04
  -2.333607e+05  -2.241774e+05
  -1.882474e+05  -5.375975e+05
   1.384630e+05  -4.297955e+05
   4.603335e+05   1.381990e+05
   4.307294e+05   6.824965e+05
  -1.586036e+04   6.684715e+05
  -5.397146e+05   8.169613e+04
  -6.473077e+05  -5.511662e+05
  -1.707537e+05  -7.154559e+05
   4.857784e+05  -3.846948e+05
   6.995999e+05   7.945293e+04
   3.063365e+05   3.567072e+05
  -1.863462e+05   3.785634e+05
  -1.930660e+05   2.276956e+05
   2.266334e+05   3.902022e+04
   4.452640e+05  -7.066026e+03
   7.154221e+04   1.904910e+05
  -5.525816e+05   4.485932e+05
  -7.843973e+05   3.966722e+05
  -4.397722e+05  -6.923497e+04
   7.691229e+04  -5.463873e+05
   3.146823e+05  -5.362904e+05
   2.142883e+05  -5.948251e+04
  -6.362572e+03   3.411314e+05
  -1.725206e+05   2.482565e+05
  -2.301437e+05  -1.592060e+05
  -1.516160e+05  -3.853379e+05
   5.166517e+04  -2.270507e+05
   2.531820e+05   5.929029e+04
   2.931029e+05   1.486785e+05
   1.607682e+05   3.014959e+04
   5.130354e+03  -5.173642e+04
  -5.975884e+04   6.484688e+04
  -7.956987e+04   2.650995e+05
  -1.495564e+05   2.904691e+05
  -2.423860e+05   3.163985e+04
  -2.155656e+05  -3.195980e+05
   8.402039e+03  -4.310717e+05
   3.006710e+05  -1.713730e+05
   3.929191e+05   2.285760e+05
   1.286071e+05   4.025745e+05
  -3.211091e+05   2.271387e+05
  -5.446439e+05  -8.469739e+04
  -2.937167e+05  -2.553744e+05
   1.958332e+05  -2.167531e+05
   4.051567e+05  -8.989646e+04
   1.194132e+05  -2.520230e+03
  -2.896847e+05  -1.032783e+04
  -2.886825e+05  -1.138856e+05
   1.693573e+05  -2.251191e+05
   5.791148e+05  -1.610350e+05
