
 $NMID
 id='ANONYMOUS ', fmtdat='(2E16.6)'
 volume=1.0
 tramp=1.0
 $END
   2.868753e+03  -5.830300e+02
   2.223912e+03   5.317464e+02
   3.839408e+02   1.992572e+03
  -8.387492e+02   1.105975e+03
  -1.064625e+03   4.146146e+02
  -2.503966e+02  -3.138040e+02
   2.406290e+02  -5.596743e+01
   1.682985e+02   4.706043e+02
  -2.865582e+02   5.287445e+02
  -4.793726e+02   1.671294e+02
  -4.239775e+02  -3.788009e+02
  -1.585553e+02  -6.715900e+02
   2.052472e+02  -2.249134e+02
   2.871437e+02   2.637402e+02
  -2.300160e+01   4.651079e+02
  -2.941671e+02   1.918582e+02
  -3.341291e+02  -3.344705e+02
   3.374252e+00  -5.426458e+02
   3.617655e+02  -3.265252e+02
   3.761385e+02   1.048762e+02
   1.971242e+02   2.911296e+02
  -7.536728e+01   2.372738e+02
  -4.104147e+01   1.069214e+02
   1.715820e+02   1.091789e+02
   2.146701e+02   1.731860e+02
  -2.189762e+01   3.677316e+02
  -3.751266e+02   1.035744e+02
  -5.374637e+02  -1.409472e+01
  -2.373394e+02  -2.818166e+02
   2.365257e+02  -8.566012e+01
   4.907834e+02   6.778991e+01
   1.343038e+02   2.453505e+02
  -2.056127e+02   3.598525e+02
  -3.719827e+02   1.460833e+02
  -3.077943e+02  -5.315895e+01
  -1.468247e+02  -2.708304e+02
  -8.379959e+00  -1.603681e+02
  -1.099482e+02   3.515870e+01
  -1.146721e+02   7.177884e+01
  -1.394602e+02  -8.037654e+01
  -6.419612e+01  -4.022524e+02
   1.718927e+02  -3.638454e+02
   2.376032e+02  -9.994588e+00
   1.090508e+02   2.576114e+02
  -4.722820e+01   1.093623e+02
  -1.542546e+02  -2.812904e+02
   6.407909e+01  -3.107239e+02
   4.050978e+02  -9.181582e+01
   4.511486e+02   2.435641e+02
   1.843676e+02   3.962405e+02
  -1.830172e+02   2.519090e+02
  -5.478267e+02  -3.207885e+01
  -3.915824e+02  -1.555926e+02
   2.292366e+01  -1.572769e+02
   2.480763e+02  -9.903970e+01
   1.554077e+02  -4.078474e+01
   4.951168e+01   1.900890e+01
  -3.663114e+01  -1.097172e+01
   5.233283e+01  -3.025591e+01
   1.592098e+02   1.383736e+01
   1.261860e+02   1.376958e+02
  -8.301134e+01   2.300343e+02
  -3.054826e+02   2.091000e+02
  -2.692021e+02  -1.083749e+02
   7.844942e+00  -2.922167e+02
   2.498677e+02  -4.026702e+02
   2.958104e+02  -1.553162e+02
   2.118185e+02   1.505413e+02
   7.661679e+01   3.068272e+02
   7.919962e+00   2.926360e+02
   1.165920e+01   1.754206e+02
  -3.135073e+01   9.738678e+01
  -1.207967e+02   1.153763e+02
  -2.068128e+02   3.922786e+01
  -1.913807e+02  -1.525094e+02
  -7.619375e+01  -2.088206e+02
   5.040853e+01  -1.432468e+02
   1.715879e+02   8.818534e+00
   1.084498e+02   2.093791e+02
  -5.867096e+01   2.095756e+02
  -1.954299e+02   4.937927e+01
  -2.685614e+02  -1.219495e+02
  -1.320727e+02  -2.329422e+02
   3.175414e+01  -2.483038e+02
   1.368510e+02  -1.542213e+02
   1.368547e+02  -8.937287e+01
   1.270109e+02  -8.210691e+01
   2.428958e+02  -4.833667e+01
   3.611215e+02   3.054247e+01
   3.396714e+02   2.397080e+02
   1.628761e+01   3.433261e+02
  -3.389906e+02   3.437847e+02
  -4.364881e+02   2.338967e+02
  -2.087753e+02  -3.408273e+01
  -2.523262e+01  -2.121970e+02
   4.286939e+01  -1.881513e+02
  -4.712291e+00  -2.651919e+01
  -1.030242e+02   1.543101e+01
  -1.033633e+02  -3.909904e+01
  -2.591133e+01  -1.223223e+02
   7.247588e+01  -1.166566e+02
   1.116870e+02   3.177918e+01
   6.003307e+00   1.133628e+02
  -1.343379e+02  -1.533694e+01
  -1.543904e+02  -2.020162e+02
   1.356283e+01  -3.632440e+02
   2.070141e+02  -2.325418e+02
   3.465740e+02   4.905325e+01
   2.608203e+02   2.027056e+02
   6.352643e+01   2.157727e+02
  -1.239119e+02   1.426332e+02
  -1.311814e+02  -7.452739e-01
  -3.303698e+01   2.530110e+00
   4.037296e+01   5.509811e+01
  -6.596948e+00   1.161865e+02
  -1.164470e+02   4.278999e+01
  -1.300205e+02  -2.255076e+00
  -3.081653e+01  -3.742785e+01
   6.990739e+01   1.132612e+01
   3.906967e+01   8.467371e+01
  -1.230000e+02   1.101878e+02
  -2.631099e+02   2.534509e-01
  -2.311133e+02  -1.147966e+02
  -4.626426e+01  -1.933966e+02
   2.169759e+02  -1.895662e+02
   2.277174e+02  -1.171017e+02
   1.394404e+02   4.147130e+01
  -2.676928e+01   5.700195e+01
  -6.364009e+01  -7.339820e+00
   5.093041e+01  -7.204029e+01
   1.511683e+02  -2.303662e+01
   1.622231e+02   6.448165e+01
   1.866325e+01   1.608057e+02
  -8.430311e+01   1.284892e+02
  -9.986896e+01   1.173912e+01
  -3.950554e+01  -2.287466e+01
   4.447346e+01   2.724247e+01
   2.570340e+01   9.796879e+01
  -7.463796e+01   1.146565e+02
  -1.850772e+02   2.853784e+01
  -1.700598e+02  -1.099905e+02
  -2.451800e+01  -1.784110e+02
   1.123673e+02  -1.487153e+02
   1.536249e+02  -3.713506e+01
   5.409939e+01   8.480185e+01
  -4.867227e+01   8.353190e+01
  -5.909586e+01   2.777491e+01
   6.564956e+00  -2.005702e+01
   3.614474e+01  -8.776657e+00
  -5.825775e+00   2.696058e+01
  -7.682682e+01   1.126354e+01
  -1.089985e+02  -8.347339e+01
  -3.853567e+01  -1.633135e+02
   1.255745e+02  -1.895980e+02
   2.088079e+02  -3.769887e+01
   1.529499e+02   1.412795e+02
   2.290759e+01   1.966895e+02
  -9.150623e+01   1.505970e+02
  -1.021898e+02   4.271976e+01
  -7.662189e+01  -3.153837e+01
  -3.316712e+01  -2.037735e+01
  -5.318794e+01   2.165480e+01
  -7.589674e+01   1.245614e+01
  -5.752886e+01  -4.954753e+01
   2.927951e+01  -1.133781e+02
   1.101257e+02  -7.642343e+01
   9.998612e+01   3.610745e+01
  -6.989783e+00   1.316821e+02
  -1.515093e+02   7.766291e+01
  -1.904093e+02  -6.409119e+01
  -8.755841e+01  -1.973699e+02
   9.981971e+01  -1.923791e+02
   2.343611e+02  -8.801036e+01
   1.735306e+02   9.033448e+01
   8.092256e+01   1.469323e+02
  -3.102056e+01   1.175384e+02
  -8.458682e+01   7.879207e+01
  -4.861012e+01   7.299199e+01
  -4.584328e+01   8.293202e+01
  -7.297083e+01   7.430464e+01
  -1.193249e+02  -1.464390e+01
  -1.183508e+02  -1.188542e+02
  -5.776721e+01  -2.106263e+02
   9.048851e+01  -1.625105e+02
   1.577284e+02  -3.446268e+01
   1.253242e+02   1.017154e+02
  -8.091954e-01   1.342052e+02
  -5.837071e+01   7.082422e+01
  -6.130397e+01  -1.475792e+01
   3.347592e+00  -5.595050e+01
   2.310083e+01  -3.713880e+01
  -2.054297e+01  -5.598931e+00
  -7.606362e+01  -5.335727e+00
  -5.428548e+01  -3.234103e+01
   6.786615e+01  -3.537059e+01
   1.575235e+02  -5.989842e+00
   1.396775e+02   5.774160e+01
   3.466115e+00   7.701058e+01
  -1.166781e+02   9.166097e+01
  -1.469013e+02   2.015387e+01
  -4.393825e+01  -4.284055e+01
   4.338026e+01  -3.889360e+01
   7.301571e+01   1.419289e+01
   3.121825e+01   6.433313e+01
  -2.868502e+01   6.205710e+01
  -5.767371e+01   7.815090e+00
  -5.795391e+01  -4.476216e+01
  -5.399053e+01  -3.767166e+01
  -5.143140e+01  -1.829597e+00
  -6.521087e+01   8.557796e+00
  -4.880052e+01  -6.235016e+01
   1.276388e+01  -1.524432e+02
   1.188752e+02  -1.545083e+02
   1.402941e+02  -2.520027e+01
   1.194111e+02   7.256932e+01
  -3.716734e+00   1.130209e+02
  -7.478491e+01   7.562808e+01
  -5.846836e+01  -4.045610e+00
   4.547117e+01  -2.177370e+01
   1.098527e+02   5.337094e+01
   7.797492e+01   9.955307e+01
  -4.745432e+01   1.016194e+02
  -1.626809e+02   2.779103e+01
  -1.378756e+02  -4.929108e+01
  -2.108123e+01  -6.623946e+01
   6.036325e+01  -6.339957e+01
   4.369973e+01  -5.972176e+00
  -3.634681e+01   3.805686e+01
  -8.347073e+01  -6.865580e+00
  -4.075992e+01  -8.943821e+01
   5.136515e+01  -1.742189e+02
   1.328807e+02  -7.221901e+01
   1.394834e+02   7.817315e+01
   2.008106e+01   1.809916e+02
  -5.156709e+01   1.329679e+02
  -9.805893e+01  -2.822771e+00
  -6.213735e+01  -1.154389e+02
   1.058820e+01  -8.626497e+01
   4.399787e+01  -1.770349e+01
   3.666523e+01   2.020838e+01
   1.217379e+01   3.581165e+00
   4.254791e+00  -1.638135e+01
   2.901809e+01   1.957708e+01
   5.767721e+01   7.441763e+01
   2.768228e+01   7.142614e+01
  -5.705806e+01   3.627033e+01
  -1.175506e+02  -3.098407e+01
  -1.027680e+02  -4.404874e+01
  -2.085229e+01  -5.404603e+01
   6.206714e+01  -2.587532e+01
   8.455307e+01  -1.493793e+00
   1.955095e+01   8.563647e+00
  -2.739490e+01   2.455876e+01
  -1.697159e+01   1.138794e+01
   1.142456e+01  -6.863368e+00
  -2.230154e+00  -3.342484e+00
  -5.730812e+01   6.500353e+00
  -7.587331e+01  -8.746707e+00
  -2.297764e+01  -6.564080e+01
   7.492192e+01  -1.101577e+02
   1.630256e+02  -1.101305e+02
   1.410115e+02   3.265985e+01
   4.933400e+01   1.397338e+02
  -6.969213e+01   1.452730e+02
  -1.079584e+02   8.127665e+01
  -6.262624e+01  -7.680349e+00
  -2.335603e+01  -3.618948e+01
  -4.954707e+00  -1.169163e+01
  -1.211702e+01  -7.027762e+00
  -2.888805e+01  -4.195846e+01
  -1.846953e+01  -8.202835e+01
   2.539960e+01  -7.481830e+01
   7.580722e+01   1.207245e+01
   7.682736e+01   6.569669e+01
   3.795570e+01   1.097556e+02
  -6.468270e+01   3.845589e+01
  -9.089221e+01  -4.010077e+01
  -3.223565e+01  -9.021525e+01
   5.468828e+01  -5.468378e+01
   8.654532e+01  -6.566461e-01
   3.658752e+01   4.414702e+01
  -1.777718e+01   6.179617e+01
  -3.313284e+01   2.784232e+01
   2.215293e+01  -5.817292e+00
   5.242904e+01  -1.555026e+01
   2.238145e+01   2.132460e+01
  -6.812152e+01   7.084500e+01
  -1.093113e+02   6.521357e+01
  -7.302653e+01  -1.249145e+01
  -7.344787e+00  -7.297103e+01
   3.931586e+01  -8.122716e+01
   4.582530e+01  -1.839056e+01
   1.379648e+01   4.950445e+01
  -1.316823e+01   4.379405e+01
  -3.934941e+01   4.318857e+00
  -2.612119e+01  -4.482664e+01
  -3.142984e-01  -3.678483e+01
   3.214565e+01  -2.796594e-01
   4.049304e+01   2.190528e+01
   1.906990e+01   3.530151e+00
  -6.097059e+00  -1.893358e+01
  -4.446261e+00  -1.206659e+01
   6.309840e+00   2.566200e+01
   8.002880e+00   4.867621e+01
  -1.838971e+01   2.888177e+01
  -4.088104e+01  -2.004769e+01
  -2.547882e+01  -5.619702e+01
   3.673666e+01  -2.221972e+01
   6.130654e+01   2.667337e+01
   1.502401e+01   4.994590e+01
  -4.815803e+01   3.345931e+01
  -8.381679e+01  -1.281588e+01
  -4.712287e+01  -2.886812e+01
   2.219053e+01  -4.832527e+01
   5.807313e+01  -2.543761e+01
   2.665500e+01  -1.090060e+01
  -2.136741e+01   4.759945e+00
  -3.102953e+01  -1.657272e+00
   1.559637e+01  -2.244629e+01
   6.377559e+01  -3.703263e+01
