
 $NMID
 id='ANONYMOUS ', fmtdat='(2E16.6)'
 volume=1.0
 tramp=1.0
 $END
  -2.308573e+03   1.647840e+02
  -1.848421e+03  -1.063204e+03
  -2.689262e+02  -1.828007e+03
   8.632126e+02  -1.023371e+03
   9.022117e+02  -3.938540e+02
   1.568321e+02   1.024760e+02
  -1.379344e+02  -1.957394e+02
  -4.217450e+01  -3.104371e+02
   2.052162e+02  -3.893261e+02
   4.686546e+02  -1.282088e+02
   2.483749e+02   3.518942e+02
   1.481730e+02   3.628547e+02
  -2.077612e+02   2.669657e+02
  -1.654581e+02  -2.866146e+02
   4.544846e+01  -4.439515e+02
   3.046144e+02  -9.723901e+01
   3.261430e+02   3.677753e+02
   3.131010e+01   5.826623e+02
  -4.156373e+02   3.330065e+02
  -4.211403e+02  -6.673803e+01
  -1.630925e+02  -2.340358e+02
   6.027704e+01  -1.942289e+02
   8.852699e+00  -9.442319e+01
  -1.924581e+02  -1.314896e+02
  -2.588456e+02  -2.168507e+02
   5.813673e+01  -3.025082e+02
   4.475827e+02  -4.738920e+01
   5.479495e+02   1.443253e+02
   1.757551e+02   2.759687e+02
  -2.304946e+02   1.204481e+02
  -4.120441e+02  -1.067903e+02
  -9.351007e+01  -3.016199e+02
   1.709501e+02  -3.276290e+02
   4.063655e+02  -1.369273e+02
   2.543769e+02   9.715212e+01
   1.316463e+02   2.071654e+02
   1.874758e+01   1.257250e+02
   6.148247e+01  -8.127200e+01
   1.685984e+02  -4.614355e+01
   1.584485e+02   1.469990e+02
   1.784417e+01   4.279793e+02
  -1.670549e+02   4.773203e+02
  -2.230337e+02  -4.343150e+01
  -8.697534e+01  -2.057010e+02
   1.125809e+02  -7.615174e+01
   5.338602e+01   2.249294e+02
  -1.187896e+02   2.981902e+02
  -3.980533e+02   3.960696e+01
  -3.913626e+02  -3.034889e+02
  -2.226361e+02  -3.744375e+02
   2.436342e+02  -1.907642e+02
   4.582018e+02   6.553596e+01
   3.175826e+02   1.981480e+02
  -1.295916e+01   1.698940e+02
  -2.193766e+02   6.178365e+01
  -1.620924e+02  -2.848228e+00
  -2.621732e+01   2.180651e+01
   1.953736e+01   1.898352e+01
  -6.413555e+01   1.862758e+01
  -1.511504e+02  -1.928601e+00
  -1.087571e+02  -9.327177e+01
   1.032788e+02  -2.273474e+02
   2.977554e+02  -1.809963e+02
   2.814904e+02   9.105371e+01
   3.733122e+00   2.941977e+02
  -2.799528e+02   3.413655e+02
  -3.179732e+02   1.288963e+02
  -1.703971e+02  -1.526721e+02
  -5.231797e+01  -3.159624e+02
   6.665315e+00  -2.045691e+02
  -1.294967e+01  -1.717240e+02
   1.478241e+01  -1.098735e+02
   1.489269e+02  -1.304591e+02
   2.395802e+02  -2.681013e+01
   1.707100e+02   1.354283e+02
   7.128764e+01   2.021646e+02
  -7.173665e+01   1.219273e+02
  -1.845900e+02  -4.858933e+01
  -9.154893e+01  -2.001581e+02
   3.860699e+01  -1.772132e+02
   1.854080e+02  -5.483866e+01
   2.676538e+02   1.255230e+02
   1.420601e+02   2.039955e+02
  -7.323208e+01   2.166382e+02
  -1.300185e+02   1.253296e+02
  -1.179457e+02   8.741213e+01
  -1.419895e+02   8.208379e+01
  -2.654897e+02   4.667876e+01
  -3.272099e+02  -7.339516e+01
  -2.781568e+02  -2.223843e+02
  -2.237628e+00  -3.876587e+02
   3.136737e+02  -2.686299e+02
   4.369758e+02  -2.135889e+02
   2.570176e+02   2.748784e+01
   3.084499e+01   2.268600e+02
  -5.669466e+01   1.736584e+02
   1.289650e+01   2.515292e+01
   1.145314e+02  -1.896492e+00
   1.198884e+02   6.213516e+01
   3.802106e+00   1.312557e+02
  -1.049560e+02   6.438632e+01
  -7.600359e+01  -3.555167e+01
   2.149158e+01  -1.214712e+02
   1.041756e+02   2.446338e+01
   1.072391e+02   1.558418e+02
   2.530240e+01   3.144107e+02
  -2.217410e+02   2.214712e+02
  -3.090891e+02  -2.836687e+01
  -2.667540e+02  -2.052603e+02
  -5.583013e+01  -2.369455e+02
   1.043735e+02  -1.285018e+02
   1.024906e+02   2.016792e+01
   2.770962e+01   1.163883e+01
  -3.916606e+01  -6.031394e+01
   2.143438e+01  -9.287576e+01
   9.751064e+01  -4.624366e+01
   1.490024e+02   4.319367e+01
   2.334671e+01   4.931424e+01
  -7.477057e+01  -6.275745e+00
  -3.990135e+01  -8.476351e+01
   1.385992e+02  -9.616859e+01
   2.810022e+02  -1.119871e+01
   2.086441e+02   1.184102e+02
   2.157416e+01   2.206129e+02
  -2.060445e+02   2.001343e+02
  -2.339414e+02   9.112384e+01
  -1.181903e+02  -4.115418e+01
   2.043604e+01  -5.698114e+01
   4.836761e+01   1.923826e+01
  -6.219436e+01   7.012517e+01
  -1.528488e+02   1.990158e+01
  -1.561164e+02  -7.683134e+01
  -6.920045e+01  -1.461969e+02
   6.609885e+01  -1.090135e+02
   9.189613e+01  -8.139469e+00
   3.504312e+01   2.985258e+01
  -4.489864e+01  -2.487690e+01
  -2.860782e+01  -1.120965e+02
   7.487039e+01  -1.068649e+02
   1.872494e+02   1.235848e+01
   1.606872e+02   9.991390e+01
   1.366648e+00   1.673182e+02
  -1.394707e+02   1.324877e+02
  -1.298600e+02   2.320803e+01
  -4.581149e+01  -8.842642e+01
   5.165631e+01  -7.064758e+01
   5.865400e+01  -1.976303e+01
  -8.005242e+00   2.266814e+01
  -4.161224e+01   1.087761e+01
   4.575332e+00  -2.630625e+01
   7.945919e+01  -4.102531e-01
   9.057955e+01   8.874547e+01
   1.368623e+01   1.477709e+02
  -1.460598e+02   1.562270e+02
  -2.155531e+02  -9.075928e+00
  -1.720545e+02  -1.313054e+02
  -4.440255e+01  -1.746351e+02
   8.634756e+01  -1.529068e+02
   1.073296e+02  -4.111608e+01
   6.485566e+01   3.086621e+01
   3.167158e+01   2.270598e+01
   4.711603e+01  -1.606682e+01
   8.444577e+01  -1.426743e+01
   5.318153e+01   5.420567e+01
  -2.429050e+01   1.169721e+02
  -1.078935e+02   7.831859e+01
  -1.088315e+02  -2.993169e+01
   1.278010e+01  -1.210862e+02
   1.262329e+02  -8.381514e+01
   1.927880e+02   7.332599e+01
   1.016093e+02   2.154079e+02
  -1.185647e+02   1.948738e+02
  -2.161432e+02   1.080787e+02
  -1.909355e+02  -7.774245e+01
  -8.975824e+01  -1.493466e+02
   3.282842e+01  -1.258634e+02
   7.830714e+01  -4.997049e+01
   4.948350e+01  -7.031442e+01
   3.274979e+01  -8.283296e+01
   7.566799e+01  -9.005816e+01
   1.131119e+02   2.204134e+00
   1.263181e+02   1.134532e+02
   2.547169e+01   1.982979e+02
  -8.241513e+01   1.517490e+02
  -1.579975e+02   1.236233e+01
  -1.185832e+02  -1.100978e+02
   5.573826e+00  -1.365954e+02
   7.474890e+01  -6.999759e+01
   6.518596e+01   2.449739e+01
  -8.015908e+00   4.992144e+01
  -2.576558e+01   3.706959e+01
   2.151569e+01   7.307662e+00
   6.622797e+01   1.129631e+01
   4.697018e+01   3.435102e+01
  -5.241060e+01   2.533787e+01
  -1.318084e+02   1.429048e+01
  -1.302664e+02  -4.945186e+01
  -2.429137e-01  -1.016535e+02
   1.262904e+02  -6.130642e+01
   1.242882e+02  -1.633001e+01
   3.645538e+01   4.747966e+01
  -4.825301e+01   4.295003e+01
  -7.067900e+01  -1.062237e+01
  -3.249488e+01  -7.106739e+01
   3.610325e+01  -5.794389e+01
   6.217907e+01  -1.238105e+01
   5.956292e+01   3.475454e+01
   4.716101e+01   3.664312e+01
   5.313828e+01  -1.832461e+00
   5.313669e+01  -1.377511e+00
   4.302875e+01   5.979804e+01
  -2.686420e+01   1.403443e+02
  -1.227878e+02   1.361550e+02
  -1.775669e+02   3.773586e+01
  -1.346474e+02  -8.887522e+01
  -5.658557e+00  -1.085915e+02
   7.754868e+01  -7.124134e+01
   6.194570e+01   1.989529e+00
  -5.008248e+01   1.905179e+01
  -1.220947e+02  -3.473971e+01
  -7.319043e+01  -1.027267e+02
   5.976375e+01  -1.219625e+02
   1.610659e+02  -4.495505e+01
   1.094974e+02   5.331710e+01
   2.635700e+01   7.003242e+01
  -4.880772e+01   5.752091e+01
  -4.575279e+01   4.032693e+00
   3.831544e+01  -3.119614e+01
   9.255829e+01   1.637069e+01
   4.193588e+01   9.833213e+01
  -5.543132e+01   1.520510e+02
  -1.398828e+02   8.116603e+01
  -1.252958e+02  -8.899361e+01
  -3.386293e+01  -1.447405e+02
   7.267480e+01  -1.314979e+02
   1.030746e+02   1.489961e+01
   5.198826e+01   1.021320e+02
  -7.276912e+00   8.201740e+01
  -4.567944e+01   1.620167e+01
  -3.630817e+01  -2.427045e+01
  -9.921077e+00  -7.301819e+00
  -5.043855e+00   1.470424e+01
  -2.826673e+01  -1.676210e+01
  -5.608499e+01  -7.802426e+01
  -3.783442e+01  -7.459161e+01
   5.496602e+01  -3.776467e+01
   1.369545e+02   3.248040e+01
   1.152892e+02   4.742380e+01
   1.216293e+01   4.972556e+01
  -6.720595e+01   3.670976e+01
  -7.580690e+01   3.017376e+00
  -1.888038e+01  -1.053411e+01
   2.760722e+01  -2.225855e+01
   1.792625e+01  -1.053837e+01
  -1.115422e+01   3.194113e+00
   9.337526e-01   2.985922e+00
   5.538075e+01  -4.618175e+00
   7.520368e+01   3.257787e+00
   2.660925e+01   6.308479e+01
  -8.401260e+01   1.154509e+02
  -1.765706e+02   5.509910e+01
  -1.411695e+02  -2.913518e+01
  -3.831760e+01  -1.336731e+02
   5.376534e+01  -1.458509e+02
   9.747928e+01  -7.873335e+01
   7.251197e+01   8.390627e+00
   2.517462e+01   3.846798e+01
   5.180561e+00   1.230364e+01
   1.351894e+01   6.095925e+00
   2.108961e+01   4.278192e+01
   1.583805e+01   7.989462e+01
  -2.558636e+01   6.757512e+01
  -6.762336e+01  -1.265193e+01
  -6.785194e+01  -6.775014e+01
  -2.525909e+01  -9.809779e+01
   5.503259e+01  -3.884841e+01
   9.678076e+01   5.748186e+01
   4.461274e+01   6.266583e+01
  -3.838370e+01   6.322127e+01
  -8.494197e+01  -1.316380e+01
  -4.128406e+01  -4.456701e+01
   1.074603e+01  -6.174850e+01
   3.356645e+01  -3.011214e+01
  -1.749422e+01   7.551621e+00
  -5.326511e+01   5.436330e+00
  -2.283494e+01  -2.305034e+01
   6.150851e+01  -5.257212e+01
   1.082600e+02  -6.566345e+01
   6.866457e+01   1.233927e+01
  -1.973191e+00   7.524074e+01
  -4.071817e+01   8.454188e+01
  -4.492031e+01   1.269176e+01
  -1.242210e+01  -3.860212e+01
   1.090447e+01  -4.282199e+01
   3.570602e+01   3.266070e+00
   2.369474e+01   3.873497e+01
   1.195202e+00   3.499866e+01
  -2.964252e+01  -5.701392e-01
  -3.717865e+01  -2.110021e+01
  -1.824400e+01  -5.297517e+00
   6.329939e+00   1.674544e+01
   6.778786e+00   1.301601e+01
  -9.429599e+00  -2.490940e+01
  -1.153219e+01  -4.474540e+01
   1.922185e+01  -2.437545e+01
   4.012237e+01   1.947561e+01
   2.183035e+01   5.798206e+01
  -3.425806e+01   2.864410e+01
  -5.830898e+01  -2.375577e+01
  -1.505193e+01  -4.782954e+01
   5.020109e+01  -3.272823e+01
   7.276900e+01   1.505873e+01
   4.629821e+01   3.103288e+01
  -1.964190e+01   4.610559e+01
  -6.555319e+01   2.512233e+01
  -2.750663e+01   1.184750e+01
   1.754725e+01  -2.903976e+00
   2.816410e+01  -6.863703e-01
  -1.834249e+01   1.864993e+01
  -6.562272e+01   1.894622e+01
