
 $NMID
 id='ANONYMOUS ', fmtdat='(2E16.6)'
 volume=1.0
 tramp=1.0
 $END
   2.268614e+03  -3.592532e+02
   1.307857e+03   1.325802e+03
   3.256450e+02   1.363695e+03
  -5.060776e+02   1.133182e+03
  -5.972864e+02   3.224512e+02
  -1.064695e+02  -6.672562e+01
   1.598680e+02   1.885371e+01
  -2.696869e+01   3.914905e+02
  -1.309793e+02   4.438830e+02
  -3.043011e+02   1.711826e+02
  -3.009010e+02  -2.898989e+02
  -1.102732e+02  -2.432599e+02
   6.903814e+01  -1.846703e+02
   1.728012e+02   2.498570e+02
   1.484527e+01   3.811727e+02
  -2.388473e+02   1.423076e+02
  -3.094367e+02  -3.395571e+02
  -1.312640e+00  -4.604194e+02
   3.760721e+02  -1.825974e+02
   3.909372e+02   6.728169e+01
   1.543736e+02   2.251961e+02
  -1.105318e+01   1.518353e+02
  -3.387023e+01   5.798331e+01
   1.543849e+02   5.162784e+01
   2.343022e+02   1.795664e+02
  -6.059447e+01   2.627009e+02
  -3.159307e+02   1.588815e+01
  -4.231639e+02  -9.765233e+01
  -1.863086e+02  -2.104252e+02
   2.315817e+02  -1.465708e+02
   3.592354e+02   3.794412e+01
   9.285156e+01   2.336632e+02
  -1.889152e+02   2.763289e+02
  -2.298330e+02   6.849791e+01
  -2.114240e+02  -7.657634e+01
  -1.078745e+02  -2.317422e+02
   4.147317e+00  -1.333461e+02
  -2.641895e+01   7.349514e+01
  -9.305566e+01   8.314863e+01
  -8.221084e+01  -1.077821e+02
  -9.539008e+01  -2.860532e+02
   2.038557e+02  -4.171276e+02
   2.201166e+02   5.951570e+00
   1.228865e+02   1.654979e+02
  -9.813142e+01   4.566785e+01
  -1.025032e+02  -2.107209e+02
   7.419921e+01  -2.587273e+02
   2.959885e+02  -6.527736e-01
   3.179355e+02   3.076140e+02
   8.327474e+01   3.572400e+02
  -1.928713e+02   1.919406e+02
  -3.443727e+02  -6.834476e+01
  -2.380483e+02  -1.444330e+02
   2.145918e+00  -1.551305e+02
   1.575194e+02  -1.090197e+02
   1.491576e+02  -1.335961e+01
   5.298106e+01   5.836735e+00
  -2.140640e+01  -2.986514e-01
   4.005244e+01  -4.589619e+01
   1.604660e+02   1.525639e+01
   9.627698e+01   1.065471e+02
  -1.195966e+02   2.049057e+02
  -2.214381e+02   1.241425e+02
  -1.800895e+02  -6.754593e+01
  -2.780011e+01  -2.189911e+02
   1.911974e+02  -2.435766e+02
   2.541592e+02  -1.803478e+02
   1.420427e+02   9.225533e+01
   7.084194e+01   2.367093e+02
  -1.580725e+01   2.045308e+02
  -1.234702e+01   1.337296e+02
  -8.841440e-01   9.103373e+01
  -9.688617e+01   1.110620e+02
  -1.681587e+02   3.246032e+01
  -1.523623e+02  -8.049137e+01
  -8.811741e+01  -1.827309e+02
   5.211356e+01  -1.293966e+02
   1.395014e+02   4.002708e+01
   8.266945e+01   1.709393e+02
  -4.612325e+01   1.476423e+02
  -1.276017e+02   7.887285e+01
  -2.627871e+02  -1.389405e+02
  -1.578106e+02  -1.749567e+02
   3.891040e+00  -1.812411e+02
   1.233391e+02  -9.489870e+01
   9.017439e+01  -8.301624e+01
   1.198604e+02  -6.598501e+01
   1.921518e+02  -5.056446e+01
   2.814975e+02   4.519599e+00
   2.575204e+02   2.096406e+02
   5.943700e+01   2.922416e+02
  -2.068736e+02   3.126675e+02
  -3.947571e+02   1.053812e+02
  -1.893044e+02  -2.841051e+01
  -4.663402e+01  -1.636685e+02
   6.518694e+01  -1.394851e+02
  -1.358703e+01  -3.047578e+01
  -6.318850e+01   9.694546e-01
  -6.669260e+01  -3.142777e+01
   1.317932e+01  -8.458216e+01
   9.362143e+01  -4.573235e+01
   6.105559e+01   1.951292e+01
  -1.781666e+01   1.074560e+02
  -9.232967e+01   4.890947e+00
  -1.047712e+02  -1.222278e+02
  -3.224455e+01  -2.286802e+02
   1.870636e+02  -1.669785e+02
   2.411796e+02   7.347929e+01
   1.853827e+02   1.541788e+02
   5.691083e+01   2.040574e+02
  -9.286857e+01   1.188447e+02
  -7.037168e+01   7.927721e-01
  -2.562829e+01  -9.569532e+00
   3.027300e+01   4.199275e+01
   3.877492e-01   7.299880e+01
  -7.141529e+01   5.831571e+01
  -1.056659e+02  -1.782211e+01
  -3.079121e+01  -3.868733e+01
   5.921015e+01   9.080096e+00
   3.322415e+01   8.145114e+01
  -1.178908e+02   7.599147e+01
  -2.075994e+02   5.294586e+00
  -1.700854e+02  -9.017751e+01
  -3.022698e+01  -1.570357e+02
   9.437177e+01  -1.312092e+02
   1.933041e+02  -7.438077e+01
   9.124806e+01   4.844461e+01
  -1.187949e+01   4.095182e+01
  -3.841607e+01   2.922810e+00
   3.953895e+01  -3.838973e+01
   1.207800e+02  -2.974791e+01
   1.546119e+02   5.089812e+01
   6.905249e+01   1.036633e+02
  -4.893660e+01   9.678180e+01
  -7.992463e+01   2.185890e+01
  -3.033060e+01  -2.483806e+01
   3.607385e+01   2.699837e+01
   1.849993e+01   8.733563e+01
  -5.485897e+01   8.953881e+01
  -1.328315e+02   1.230113e+01
  -1.621953e+02  -7.973698e+01
  -3.222796e+01  -1.421943e+02
   1.185609e+02  -1.332168e+02
   1.054178e+02  -1.771107e+00
   4.152930e+01   6.309639e+01
  -3.407832e+01   6.829537e+01
  -4.590306e+01   5.453237e+00
   3.759046e-01  -1.741700e+01
   3.106928e+01  -3.895751e+00
  -1.113627e+00   2.136386e+01
  -6.905031e+01   9.054906e+00
  -7.026177e+01  -4.723471e+01
  -1.959224e+01  -1.361852e+02
   9.866750e+01  -1.281844e+02
   1.502685e+02   3.145310e+00
   1.688287e+02   1.063566e+02
   5.166355e+01   1.320083e+02
  -6.805241e+01   1.195352e+02
  -9.323860e+01   2.531425e+01
  -4.653159e+01  -2.280585e+01
  -2.167330e+01  -1.882790e+01
  -4.031158e+01   5.852474e+00
  -6.722813e+01   6.103260e+00
  -4.343685e+01  -4.084879e+01
   1.038725e+01  -9.208488e+01
   1.010934e+02  -5.965556e+01
   7.791684e+01   3.422708e+01
  -9.598520e+00   9.117949e+01
  -9.792106e+01   6.975486e+01
  -1.546407e+02  -3.181940e+01
  -6.158039e+01  -1.516295e+02
   7.251175e+01  -1.713013e+02
   1.793176e+02  -9.803411e+01
   1.625873e+02   4.770907e+01
   8.676564e+01   1.114124e+02
  -2.526624e+01   9.035978e+01
  -5.756331e+01   3.798953e+01
  -3.478137e+01   5.614855e+01
  -3.347311e+01   7.207907e+01
  -5.569036e+01   7.304901e+01
  -9.145193e+01   3.676788e+00
  -9.762236e+01  -9.492914e+01
  -2.372921e+01  -1.675625e+02
   6.951482e+01  -9.564645e+01
   1.246593e+02  -1.435043e+01
   8.415889e+01   1.025858e+02
   1.655688e+01   1.168201e+02
  -6.206009e+01   4.900748e+01
  -4.176072e+01  -2.179494e+01
   5.354095e+00  -4.030161e+01
   1.909108e+01  -3.312991e+01
  -1.254984e+01  -4.762328e+00
  -5.879412e+01  -4.791412e+00
  -3.421203e+01  -2.751699e+01
   4.349561e+01  -2.392975e+01
   1.110722e+02  -3.016885e+01
   1.011795e+02   1.994282e+01
  -2.349895e+00   6.831611e+01
  -1.055981e+02   6.066034e+01
  -1.241902e+02   2.611496e+00
  -3.072306e+01  -3.800847e+01
   4.478912e+01  -3.452889e+01
   6.561751e+01   8.764969e+00
   2.624022e+01   5.805565e+01
  -2.327121e+01   4.955307e+01
  -5.161844e+01   1.496895e+01
  -4.082657e+01  -3.939770e+01
  -3.990361e+01  -3.285796e+01
  -4.143699e+01   6.161503e-01
  -4.464042e+01   2.145926e+00
  -3.806194e+01  -5.360019e+01
   2.209705e+01  -1.227358e+02
   7.784830e+01  -1.287978e+02
   1.380239e+02  -2.353168e+01
   1.134478e+02   5.841070e+01
   1.689152e+01   8.284858e+01
  -6.433184e+01   6.353832e+01
  -4.645385e+01   1.193243e+00
   3.191902e+01  -1.938828e+01
   8.619937e+01   7.038102e+00
   7.259322e+01   8.324998e+01
  -6.721761e+01   9.397965e+01
  -1.197498e+02   6.436957e+01
  -1.216238e+02  -2.637719e+01
  -2.941662e+01  -6.228459e+01
   5.264203e+01  -4.424527e+01
   4.217515e+01  -2.578085e+00
  -3.326394e+01   2.698106e+01
  -6.737639e+01  -1.633920e+01
  -3.903127e+01  -7.521403e+01
   4.714192e+01  -1.268044e+02
   1.112935e+02  -6.494559e+01
   1.028140e+02   7.592311e+01
   3.631975e+01   1.170793e+02
  -4.943808e+01   1.151810e+02
  -8.431114e+01  -1.032128e+01
  -3.656089e+01  -1.038489e+02
   6.464831e+00  -6.151440e+01
   3.261423e+01  -9.513080e+00
   3.068875e+01   2.472114e+01
   1.174384e+01   7.066513e+00
   5.496767e+00  -1.331677e+01
   2.358588e+01   1.222910e+01
   4.391963e+01   5.265183e+01
   4.558830e+01   6.069581e+01
  -4.588469e+01   3.255243e+01
  -9.580781e+01  -2.581366e+01
  -8.429913e+01  -3.507398e+01
  -1.709195e+01  -3.553534e+01
   6.995113e+01  -2.350146e+01
   5.861851e+01  -8.653549e+00
   1.511920e+01   8.832275e+00
  -2.592529e+01   1.521005e+01
  -1.317134e+01   7.094713e+00
   8.968362e+00  -5.256544e+00
  -5.259465e-01  -3.431338e+00
  -4.676903e+01   7.255482e+00
  -6.959885e+01  -5.597279e+00
  -2.679159e+01  -5.724010e+01
   5.604030e+01  -9.669134e+01
   1.432574e+02  -3.889515e+01
   1.230186e+02   3.144105e+01
   4.238117e+01   1.066667e+02
  -5.194960e+01   1.176798e+02
  -8.338999e+01   4.374289e+01
  -5.965728e+01  -9.393475e+00
  -2.645617e+01  -2.314986e+01
  -4.611263e+00  -9.630693e+00
  -9.206135e+00  -4.911056e+00
  -1.294762e+01  -2.622556e+01
  -1.296607e+01  -6.555460e+01
   1.679113e+01  -5.021552e+01
   4.630617e+01  -5.790390e+00
   6.561893e+01   6.397169e+01
   1.013577e+01   7.396506e+01
  -4.207400e+01   3.291146e+01
  -9.971769e+01  -4.477897e+01
  -5.623539e+01  -5.172882e+01
   3.041237e+01  -5.880004e+01
   7.013707e+01   3.977267e+00
   3.468898e+01   3.695362e+01
  -1.486207e+01   4.829476e+01
  -2.876612e+01   2.031846e+01
   1.570071e+01  -6.726567e+00
   3.927741e+01  -1.443752e+01
   1.842022e+01   2.207863e+01
  -4.502999e+01   3.964650e+01
  -8.629157e+01   4.184697e+01
  -5.189676e+01  -9.941405e+00
   4.709434e+00  -5.797165e+01
   4.278969e+01  -8.171419e+01
   3.292484e+01  -1.306669e+01
   9.814344e+00   3.426190e+01
  -8.265100e+00   3.764668e+01
  -2.826623e+01  -5.436233e+00
  -2.513073e+01  -3.553733e+01
   7.056618e-01  -2.574289e+01
   2.619379e+01  -3.193899e+00
   3.171718e+01   1.448455e+01
   1.456259e+01   1.933762e+00
  -4.618628e+00  -1.345560e+01
  -4.223099e+00  -8.496487e+00
   5.864968e+00   1.854804e+01
   1.164138e+01   4.687699e+01
  -1.919162e+01   2.256305e+01
  -3.831741e+01  -1.653841e+01
  -1.673867e+01  -4.048584e+01
   2.696798e+01  -2.587176e+01
   4.596770e+01   2.206012e+01
   2.076497e+01   3.510107e+01
  -4.244929e+01   3.420251e+01
  -6.768869e+01  -3.318897e+00
  -3.918117e+01  -1.999042e+01
   2.241289e+01  -3.391611e+01
   4.113737e+01  -2.148613e+01
   2.187985e+01  -5.212592e+00
  -1.630994e+01   8.560976e+00
  -2.862499e+01   9.875492e-01
   1.444935e+01  -1.743037e+01
   5.060886e+01  -2.165222e+01
