
 $NMID
 id='ANONYMOUS ', fmtdat='(2E16.6)'
 volume=1.0
 tramp=1.0
 $END
  -1.401882e+03  -2.246575e+02
  -6.476514e+02  -1.397090e+03
  -4.343937e+02  -7.291085e+02
   5.041053e+02  -4.424207e+02
   2.371217e+02  -1.875715e+02
  -2.609692e+01   6.371781e+00
  -1.563444e+02  -9.061132e+01
   3.098922e+01  -2.986251e+02
   1.537528e+02  -3.049235e+02
   2.562647e+02  -7.825804e+01
   1.578219e+02   1.457442e+02
   7.567291e+01   3.477642e+02
  -1.195951e+02   1.568950e+02
  -4.536972e+00  -2.607983e+02
   1.170115e+02  -2.855438e+02
   2.509111e+02  -2.379039e+01
   1.515890e+02   2.736581e+02
  -8.252397e+01   2.783752e+02
  -2.400821e+02   1.094911e+02
  -2.220004e+02  -5.289007e+01
  -7.765780e+01  -1.565864e+02
   2.664255e+01  -9.641859e+01
   3.001013e+01  -4.892854e+01
  -1.107641e+02  -1.728292e+01
  -2.114031e+02  -2.329994e+02
   6.760271e+01  -1.985226e+02
   2.119576e+02  -1.081010e+02
   2.773264e+02   1.264142e+02
   1.634015e+02   1.898169e+02
  -1.970961e+02   7.208251e+01
  -2.529041e+02  -9.729469e+01
  -8.074004e+01  -1.852796e+02
   1.186160e+02  -1.780818e+02
   2.061936e+02  -3.290575e+01
   1.712521e+02   6.574421e+01
   4.084469e+00   1.941716e+02
  -1.958055e+01   5.180474e+01
   2.456669e+01  -2.133869e+00
   9.933355e+01  -8.934937e+01
   1.036921e+02   3.882711e+01
   6.937557e+01   3.107190e+02
  -1.808913e+02   1.753465e+02
  -1.212688e+02  -8.446432e+01
   1.804007e+01  -2.276446e+02
   6.961454e+01  -1.430109e+01
   5.358967e+01   1.090117e+02
  -9.168422e+01   2.091442e+02
  -1.917624e+02  -1.149465e+01
  -2.103266e+02  -1.815586e+02
  -5.645301e+01  -2.268997e+02
   1.400284e+02  -1.380177e+02
   2.553490e+02   6.130216e+01
   1.368080e+02   1.260270e+02
  -7.992304e+01   5.695961e+01
  -1.181952e+02   2.213867e+01
  -7.604965e+01   5.940638e-01
  -1.284652e+01  -8.398880e+00
   3.024532e+00   1.748367e+01
  -2.924083e+01   4.225220e+01
  -1.287698e+02  -4.275564e+01
  -6.945745e+01  -8.710164e+01
   9.940377e+01  -1.310602e+02
   1.486260e+02  -5.236196e+01
   1.258000e+02   1.038371e+01
   2.091038e+01   1.389134e+02
  -1.537933e+02   1.604307e+02
  -1.927177e+02   1.301692e+02
  -1.061148e+02  -5.267325e+01
  -5.688118e+00  -1.989388e+02
   5.378172e+01  -1.764982e+02
  -7.080585e+00  -7.228516e+01
  -1.232835e+00  -6.936081e+01
   8.513665e+01  -7.218787e+01
   8.929792e+01  -7.544642e+01
   1.245495e+02   4.945439e+01
   5.656339e+01   1.740742e+02
  -5.401971e+01   1.150016e+02
  -5.691452e+01  -4.917760e+01
  -6.534123e+01  -1.433324e+02
   3.352645e+01  -9.638138e+01
   1.115925e+02  -6.359162e+01
   1.616811e+02   1.339781e+02
   1.221665e+02   1.652401e+02
  -2.733474e+01   8.005128e+01
  -9.215860e+01   2.810801e+01
  -5.869158e+01   5.483329e+01
  -7.752535e+01   3.183847e+01
  -1.473872e+02   5.877160e+01
  -2.095930e+02  -5.207100e+00
  -1.473643e+02  -1.660997e+02
   1.903691e+01  -2.212075e+02
   1.591750e+02  -2.257376e+02
   2.771344e+02  -5.989761e+01
   1.382078e+02   6.888792e+01
   1.903818e+00   1.041303e+02
  -6.780647e+01   1.084848e+02
   1.168221e+00   4.918696e+00
   6.211227e+01  -2.441471e+01
   7.016294e+01   1.277130e+01
   1.927676e+01   5.803414e+01
  -8.026438e+01   2.990843e+01
  -6.370803e+01  -2.994556e+01
   3.242314e+01  -8.779792e+01
   7.524537e+01  -1.208067e+01
   6.699027e+01   1.092302e+02
   9.054835e+00   1.644549e+02
  -1.454967e+02   9.226351e+01
  -1.646636e+02  -2.140454e+01
  -1.190160e+02  -1.077842e+02
  -2.896223e+01  -1.410859e+02
   5.686447e+01  -7.408463e+01
   6.003690e+01  -2.150201e+01
   1.299565e+01   1.227506e+01
  -2.729655e+01  -3.509004e+01
  -2.675526e-02  -6.973227e+01
   4.376648e+01  -5.165463e+01
   6.629699e+01   1.831615e+01
   9.671245e+00   2.970563e+01
  -4.556920e+01   5.802222e+00
  -5.331720e+00  -6.963084e+01
   9.423987e+01  -5.382994e+01
   1.280860e+02  -2.246315e+01
   1.473803e+02   6.603643e+01
   2.954463e+01   1.199539e+02
  -7.845134e+01   1.308530e+02
  -1.177284e+02   6.353326e+01
  -4.075655e+01  -2.845890e+01
   1.288346e+01  -4.105978e+01
   3.434389e+01   6.481924e+00
  -1.732682e+01   3.680396e+01
  -8.518457e+01   3.330293e+01
  -7.857612e+01  -7.087284e+01
  -3.349421e+01  -8.873863e+01
   3.423063e+01  -6.451605e+01
   6.993066e+01  -1.576287e+01
   1.923252e+01   2.544136e+01
  -3.011431e+01  -8.831805e+00
  -1.815667e+01  -6.042077e+01
   4.761469e+01  -8.574448e+01
   9.717763e+01  -1.555473e+01
   1.206989e+02   8.174935e+01
   1.873861e+01   8.549540e+01
  -1.006952e+02   7.348193e+01
  -7.847138e+01  -9.086069e-01
  -2.103892e+01  -2.842820e+01
   2.739597e+01  -4.042590e+01
   2.667635e+01   3.036411e-01
   8.703390e-02   9.403757e+00
  -1.490486e+01   3.889843e+00
  -5.960858e-01  -1.283497e+01
   3.755930e+01  -4.617589e+00
   4.784461e+01   2.535732e+01
   2.664705e+01   9.656936e+01
  -7.996252e+01   8.089583e+01
  -1.165379e+02   4.713123e+00
  -1.001434e+02  -6.690941e+01
  -3.477407e+01  -8.836112e+01
   8.090884e+01  -7.087312e+01
   7.071978e+01  -8.915650e+00
   3.152745e+01   1.365309e+01
   1.679420e+01   1.288279e+01
   3.520148e+01  -5.028774e+00
   3.446732e+01  -2.445702e+00
   2.356182e+01   1.787749e+01
  -1.956850e+01   5.327019e+01
  -5.836912e+01   3.239675e+01
  -4.859940e+01  -1.338705e+01
  -8.352411e+00  -5.849309e+01
   8.186306e+01  -4.145011e+01
   9.534526e+01   1.182818e+01
   2.950989e+01   1.233548e+02
  -5.322930e+01   1.118145e+02
  -1.435836e+02   5.546539e+01
  -1.296763e+02  -4.714847e+01
  -6.892184e+01  -6.874703e+01
   1.883235e+01  -6.290173e+01
   2.514579e+01  -1.573219e+01
   3.383885e+01  -2.652489e+01
   1.682894e+01  -4.268044e+01
   5.597770e+01  -3.914917e+01
   5.258286e+01  -5.722087e+00
   7.995966e+01   9.071653e+01
   7.068781e+00   1.125605e+02
  -5.759426e+01   7.540483e+01
  -1.103292e+02  -8.008828e+00
  -5.469744e+01  -8.137001e+01
  -5.837026e+00  -7.253676e+01
   3.840756e+01  -4.064484e+01
   3.020488e+01   1.221518e+01
   4.943600e+00   2.982272e+01
  -1.151406e+01   2.517017e+01
   1.070512e+01   4.632026e+00
   2.900099e+01   1.153833e+00
   1.737256e+01   2.419011e+01
  -3.166729e+01   2.341444e+01
  -9.170855e+01   3.124097e+01
  -7.672950e+01  -3.192863e+01
   1.369686e+01  -4.405923e+01
   7.850411e+01  -3.421694e+01
   7.369309e+01   7.262774e+00
   2.683163e+01   2.273801e+01
  -2.781408e+01   2.202018e+01
  -3.246140e+01  -1.970260e+01
  -1.111700e+01  -4.143773e+01
   2.078926e+01  -2.914997e+01
   3.144127e+01  -1.141862e+01
   2.409389e+01   2.508765e+01
   2.671254e+01   2.601499e+01
   3.144534e+01   7.234435e-01
   2.496238e+01  -6.041096e+00
   2.831052e+01   3.002620e+01
  -1.458180e+01   6.859985e+01
  -5.231396e+01   7.175868e+01
  -9.671142e+01   5.112310e+00
  -7.065096e+01  -3.795561e+01
  -7.164918e-01  -4.169240e+01
   4.549453e+01  -3.495362e+01
   2.895794e+01   4.517345e+00
  -2.547851e+01   1.146189e+01
  -6.250983e+01  -2.011407e+01
  -2.927340e+01  -5.419665e+01
   4.471197e+01  -6.844954e+01
   7.526077e+01  -3.984943e+01
   6.690888e+01   3.178133e+01
   1.350617e+01   5.591877e+01
  -2.553381e+01   2.564009e+01
  -2.493961e+01  -1.400314e+00
   2.069891e+01  -1.688371e+01
   3.916492e+01   2.067171e+01
   1.622051e+01   5.581435e+01
  -5.399025e+01   7.626173e+01
  -8.928515e+01   3.791531e+01
  -5.587517e+01  -4.193430e+01
  -1.910114e+01  -1.213566e+02
   2.249696e+01  -9.224138e+01
   4.326796e+01   9.117427e+00
   1.193874e+01   5.389804e+01
   1.056159e+01   5.231030e+01
  -2.538272e+01   9.692579e+00
  -2.304036e+01  -1.727831e+01
  -7.487479e+00  -4.232178e+00
  -6.717849e+00   6.494522e+00
  -1.730860e+01  -7.016989e+00
  -2.487782e+01  -4.792584e+01
  -1.885714e+01  -4.770976e+01
   3.625601e+01  -2.045644e+01
   3.847433e+01   6.192157e+00
   6.019550e+01   3.091813e+01
   7.097973e+00   2.377159e+01
  -4.338375e+01   1.655586e+01
  -4.073301e+01  -1.409649e+00
  -8.892090e+00  -4.999154e+00
   2.111236e+01  -9.855019e+00
   8.256098e+00  -5.393941e+00
  -5.888008e+00   2.939491e+00
   1.524639e+00   2.077045e+00
   3.902496e+01   9.092856e+00
   4.686283e+01   1.561788e+01
   1.822974e+01   4.561659e+01
  -3.578137e+01   7.123282e+01
  -9.863282e+01   2.892879e+01
  -8.141603e+01  -6.544395e+00
  -6.339314e+00  -6.957735e+01
   4.133070e+01  -7.823084e+01
   5.130685e+01  -2.117296e+01
   3.655718e+01   6.812373e+00
   1.765027e+01   1.763197e+01
   2.509543e+00   4.177619e+00
   7.308365e+00   4.010824e+00
   2.080247e+01   2.046008e+01
   5.111170e+00   5.886691e+01
  -2.045702e+01   3.018142e+01
  -3.871591e+01   2.781715e+00
  -4.701352e+01  -4.768223e+01
  -1.195448e+01  -5.462222e+01
   3.162873e+01  -1.544107e+01
   5.233665e+01   3.189799e+01
   3.442664e+01   4.235996e+01
  -2.691735e+01   4.124668e+01
  -4.212228e+01   3.718086e+00
  -2.681734e+01  -2.648677e+01
   1.637754e+01  -4.373238e+01
   2.265314e+01  -1.352327e+01
  -1.194521e+01   4.331653e+00
  -2.804185e+01   9.276984e+00
  -1.175479e+01  -1.624698e+01
   3.190931e+01  -2.980520e+01
   6.632272e+01  -2.162689e+01
   2.948905e+01   7.148080e+00
  -4.535539e+00   4.068851e+01
  -3.797420e+01   5.418947e+01
  -2.191465e+01   8.636487e+00
  -2.780086e+00  -2.079241e+01
   9.073525e+00  -2.612851e+01
   1.299972e+01   4.260876e+00
   2.321168e+01   2.143892e+01
  -9.647827e-02   1.659901e+01
  -1.535266e+01  -2.895549e+00
  -2.384840e+01  -9.191308e+00
  -1.130016e+01  -2.141554e+00
   6.523378e+00   1.145393e+01
   2.711698e+00   4.560388e+00
   1.638327e+00  -1.047744e+01
  -2.734519e+00  -2.191298e+01
   1.205409e+01  -1.144567e+01
   2.484680e+01   1.213049e+01
   1.317596e+00   2.309627e+01
  -1.324097e+01   1.625554e+01
  -2.823078e+01  -1.390446e+01
  -9.820053e+00  -2.875536e+01
   2.419295e+01  -2.384778e+01
   4.326467e+01   3.099865e-01
   2.849655e+01   1.622519e+01
  -1.652543e+01   2.215109e+01
  -2.381254e+01   1.030905e+01
  -1.115511e+01   1.813516e+00
   1.063253e+01  -1.880852e+00
   1.410488e+01   1.265858e+00
  -1.009150e+01   1.040268e+01
  -4.032431e+01   1.253466e+01
