
 $NMID
 id='ANONYMOUS ', fmtdat='(2E16.6)'
 volume=1.0
 tramp=1.0
 $END
   2.385878e+03  -7.668970e+02
   2.200488e+03   1.171608e+03
   3.568124e+02   1.064903e+03
  -5.864681e+02   1.240933e+03
  -7.319312e+02   3.833755e+02
  -9.149706e+01  -1.856031e+02
   3.788168e+02   2.576089e+01
   7.325761e+01   4.352549e+02
  -2.318488e+02   4.277838e+02
  -4.581576e+02   1.271897e+02
  -4.145986e+02  -2.400858e+02
  -5.294071e+01  -4.891171e+02
   1.481553e+02  -1.996396e+02
   3.113247e+02   2.895466e+02
  -3.497891e+01   5.477025e+02
  -3.505672e+02   1.349674e+02
  -2.691860e+02  -3.432812e+02
   1.682100e+00  -5.157310e+02
   2.902868e+02  -3.029557e+02
   3.400873e+02   6.399614e+01
   1.772296e+02   2.331178e+02
  -3.815764e+01   1.632466e+02
  -3.343896e+01   8.161429e+01
   1.418115e+02   7.429142e+01
   2.466969e+02   1.640943e+02
   3.604152e+01   2.382162e+02
  -3.863153e+02   1.417266e+02
  -3.936440e+02  -4.301298e+00
  -2.202786e+02  -2.812345e+02
   2.429629e+02  -2.037698e+02
   4.443810e+02   7.521705e+01
   9.480229e+01   2.289320e+02
  -1.547605e+02   2.837434e+02
  -4.001965e+02   1.000412e+02
  -2.750903e+02  -1.000942e+02
  -1.306136e+02  -2.591231e+02
   1.545331e+01  -1.729455e+02
  -6.015965e+01   2.663266e+01
  -1.496641e+02   1.488914e+02
  -8.582109e+01  -1.038842e+02
  -7.353040e+00  -3.202237e+02
   3.883535e+01  -3.442611e+02
   2.404283e+02  -1.334705e+01
   1.762214e+02   1.640509e+02
  -8.156358e+01   1.235472e+02
  -1.537269e+02  -2.118418e+02
   3.062631e+01  -2.624180e+02
   3.643690e+02  -1.160304e+02
   4.073847e+02   3.010761e+02
   1.942773e+02   4.122616e+02
  -2.613207e+02   2.430281e+02
  -4.124513e+02  -3.540194e+01
  -2.731715e+02  -1.696507e+02
  -3.789334e+01  -2.017935e+02
   2.708743e+02  -1.229160e+02
   2.215734e+02   3.646088e+01
   2.009535e+01   3.470677e+00
  -5.526395e+01  -2.029099e+01
   4.265862e+01  -4.974851e+01
   2.057636e+02   1.623604e+01
   1.212559e+02   1.296406e+02
  -9.685879e+01   2.416874e+02
  -2.310583e+02   1.592670e+02
  -1.960124e+02  -5.646291e+01
  -5.158748e+01  -2.309622e+02
   2.381409e+02  -2.943070e+02
   2.354207e+02  -1.396622e+02
   2.175421e+02   1.109909e+02
   5.387296e+01   2.357164e+02
   3.907680e+00   2.954951e+02
   1.751234e+01   1.476516e+02
  -1.443647e+01   7.453380e+01
  -1.287153e+02   1.037418e+02
  -1.708718e+02   3.436887e+00
  -2.020816e+02  -9.965339e+01
  -1.441911e+02  -1.798383e+02
   5.859378e+01  -1.599701e+02
   1.519316e+02  -1.050291e+01
   1.007819e+02   1.436110e+02
   2.289947e+01   1.910614e+02
  -1.701398e+02   4.894102e+01
  -2.764976e+02  -1.130631e+02
  -1.359694e+02  -1.991576e+02
   3.689897e+01  -1.997091e+02
   1.047565e+02  -1.500481e+02
   1.133028e+02  -9.141592e+01
   1.295454e+02  -6.215386e+01
   2.050797e+02  -5.425310e+01
   3.259810e+02   1.884242e+01
   2.830074e+02   2.303196e+02
   6.943547e+01   3.342768e+02
  -2.393201e+02   3.479584e+02
  -3.551931e+02   1.923920e+02
  -2.756072e+02  -3.062861e+01
  -4.653681e+01  -1.308297e+02
   5.765408e+01  -1.493027e+02
   5.408241e-01  -4.286137e+01
  -1.027472e+02   3.119058e+01
  -7.327119e+01  -2.069472e+01
   4.760018e+00  -9.828883e+01
   1.019320e+02  -8.035120e+01
   7.561282e+01   2.048014e+01
   1.406407e+01   1.157277e+02
  -1.193682e+02   6.155142e+00
  -1.076933e+02  -2.043562e+02
  -3.290133e+00  -2.144293e+02
   1.683247e+02  -2.172507e+02
   3.396488e+02   3.277729e+01
   1.961991e+02   1.493753e+02
   5.717324e+01   2.387216e+02
  -8.962197e+01   1.166860e+02
  -1.074823e+02   1.592260e+01
  -3.201523e+01   2.216858e+00
   4.817259e+01   5.155553e+01
   1.108752e+01   9.188071e+01
  -8.734918e+01   4.950693e+01
  -9.704074e+01  -5.068907e+00
  -3.470217e+01  -3.355387e+01
   6.584657e+01   1.439083e+00
   2.909561e+01   6.655822e+01
  -1.125072e+02   8.315595e+01
  -2.308612e+02  -9.282148e+00
  -2.089562e+02  -9.059731e+01
  -2.579506e+01  -2.027057e+02
   1.531498e+02  -1.918305e+02
   1.708166e+02  -7.144643e+01
   1.132479e+02   3.951829e+01
  -1.185040e+01   6.015577e+01
  -5.371274e+01  -8.038961e+00
   4.576687e+01  -5.152390e+01
   1.331907e+02  -4.971748e+01
   1.627098e+02   4.478628e+01
   6.558046e+01   1.387005e+02
  -6.683312e+01   1.127036e+02
  -8.733267e+01   8.967267e+00
  -4.014260e+01  -2.691988e+01
   4.142655e+01   1.664194e+01
   3.419618e+01   8.158301e+01
  -4.534504e+01   1.095962e+02
  -1.673961e+02   1.653066e+01
  -1.472869e+02  -6.221271e+01
  -4.803926e+01  -1.553740e+02
   1.279513e+02  -1.454708e+02
   1.507818e+02  -1.429776e+01
   4.233538e+01   5.097967e+01
  -2.957311e+01   7.649525e+01
  -5.227521e+01   1.804435e+01
   9.595231e-01  -2.153057e+01
   3.389209e+01  -2.408972e+00
  -5.335553e+00   2.351717e+01
  -8.097249e+01   9.434312e+00
  -8.138828e+01  -6.979920e+01
  -2.931282e+01  -1.270125e+02
   1.130949e+02  -1.261965e+02
   2.012380e+02   4.315798e+00
   1.462846e+02   7.575547e+01
   3.176722e+01   1.687184e+02
  -8.051333e+01   1.356395e+02
  -9.064705e+01   2.656959e+01
  -5.765970e+01  -3.039113e+01
  -2.978508e+01  -1.963449e+01
  -4.378907e+01   1.243685e+01
  -7.377521e+01   8.113678e+00
  -4.720152e+01  -5.303847e+01
   1.647445e+01  -9.303003e+01
   8.682514e+01  -6.534105e+01
   9.020342e+01   3.486896e+01
  -1.373588e+00   1.058372e+02
  -1.261254e+02   1.002658e+02
  -1.663781e+02  -7.697826e+01
  -6.618060e+01  -1.703905e+02
   9.762143e+01  -1.812003e+02
   1.961655e+02  -1.160319e+02
   1.962258e+02   4.793812e+01
   7.366267e+01   1.012363e+02
  -2.340480e+01   1.062355e+02
  -6.986705e+01   6.706200e+01
  -5.120724e+01   7.354495e+01
  -2.377742e+01   7.099010e+01
  -7.598096e+01   7.821034e+01
  -9.668302e+01  -7.323492e+00
  -1.159933e+02  -1.037991e+02
  -3.946365e+01  -2.064543e+02
   6.994161e+01  -1.185308e+02
   1.626026e+02  -2.746685e+01
   9.635743e+01   1.197352e+02
   1.159541e+01   1.314458e+02
  -5.815882e+01   7.400021e+01
  -4.983858e+01  -1.904746e+01
   2.887007e+00  -4.577421e+01
   2.037244e+01  -3.190552e+01
  -2.444080e+01  -3.784438e+00
  -7.443406e+01  -8.949144e-01
  -4.061067e+01  -3.037585e+01
   6.040694e+01  -2.347152e+01
   1.373813e+02  -1.098985e+01
   1.064124e+02   2.152268e+01
  -5.616141e+00   8.507785e+01
  -1.059123e+02   6.767275e+01
  -1.203467e+02   9.030351e+00
  -4.211019e+01  -3.767094e+01
   3.940077e+01  -4.110135e+01
   7.649531e+01   6.407061e+00
   2.528722e+01   6.121693e+01
  -2.834914e+01   5.052006e+01
  -5.305046e+01   1.103279e+01
  -5.529405e+01  -3.326479e+01
  -4.023235e+01  -3.482706e+01
  -4.692907e+01   4.583222e+00
  -5.724218e+01  -6.859743e-01
  -3.961595e+01  -4.810507e+01
   2.419748e+01  -1.198927e+02
   1.115538e+02  -1.346412e+02
   1.649086e+02  -4.983611e+01
   1.253118e+02   6.917683e+01
   1.632999e+01   9.768665e+01
  -8.309702e+01   7.673657e+01
  -4.970780e+01  -6.072474e+00
   4.091551e+01  -2.408811e+01
   1.123099e+02   1.128192e+01
   5.989460e+01   8.155884e+01
  -5.335204e+01   1.000662e+02
  -1.278290e+02   3.433582e+01
  -1.178016e+02  -4.720038e+01
  -3.143589e+01  -5.195884e+01
   5.104631e+01  -4.514677e+01
   4.176250e+01  -3.757348e+00
  -3.010321e+01   2.350121e+01
  -8.380058e+01  -1.703593e+01
  -3.995222e+01  -9.582645e+01
   2.317381e+01  -1.374203e+02
   8.891851e+01  -8.649265e+01
   1.160065e+02   5.582135e+01
   3.044925e+01   1.451113e+02
  -4.618108e+01   1.182965e+02
  -7.176602e+01  -7.877862e+00
  -4.966533e+01  -8.693414e+01
  -2.105121e+00  -7.671785e+01
   4.133844e+01  -8.174417e+00
   3.912666e+01   2.576270e+01
   1.355641e+01   5.134789e+00
   2.829333e+00  -1.374535e+01
   2.527594e+01   1.465947e+01
   4.672016e+01   7.960469e+01
   4.587136e+01   7.643402e+01
  -4.279691e+01   3.644984e+01
  -1.102611e+02  -1.576082e+01
  -1.219102e+02  -4.796002e+01
  -1.508067e+01  -4.061855e+01
   6.705595e+01  -3.272265e+01
   6.235092e+01  -5.196210e+00
   1.441303e+01   6.988325e+00
  -2.143022e+01   2.657647e+01
  -1.164572e+01   1.409462e+01
   8.909261e+00  -3.917804e+00
  -1.291030e+00  -2.856229e+00
  -4.736201e+01   7.301800e+00
  -7.071788e+01  -9.404255e-01
  -2.525721e+01  -5.798606e+01
   8.227252e+01  -1.001151e+02
   1.457531e+02  -8.258035e+01
   1.143135e+02   2.759449e+01
   4.540904e+01   1.194059e+02
  -4.202510e+01   1.232543e+02
  -9.876865e+01   8.485056e+01
  -6.775312e+01  -1.751455e+00
  -2.128247e+01  -2.506895e+01
  -3.610363e+00  -1.273310e+01
  -1.416799e+01  -4.811116e+00
  -2.179098e+01  -3.686518e+01
  -2.260017e+01  -8.059905e+01
   2.930483e+01  -5.805273e+01
   5.957401e+01   4.583233e+00
   8.493976e+01   5.753525e+01
   2.309974e+01   8.609763e+01
  -5.152581e+01   3.238758e+01
  -9.887486e+01  -4.043272e+01
  -4.152332e+01  -6.783811e+01
   4.660135e+01  -5.676937e+01
   8.060505e+01  -1.088302e+00
   3.389038e+01   4.041299e+01
  -1.881500e+01   6.025804e+01
  -3.209805e+01   2.983870e+01
   2.224734e+01  -5.258317e+00
   5.671034e+01  -1.494626e+01
   1.956506e+01   1.857303e+01
  -5.314170e+01   5.691462e+01
  -9.928125e+01   6.839898e+01
  -6.489475e+01  -1.302197e+01
  -3.142630e+00  -7.103325e+01
   3.791986e+01  -7.630011e+01
   3.738320e+01  -1.089264e+01
   6.785090e+00   4.349815e+01
  -1.352721e+01   4.531791e+01
  -2.804290e+01  -1.236607e+00
  -1.733496e+01  -4.390239e+01
  -3.598362e+00  -3.091746e+01
   2.687424e+01  -6.660500e-02
   3.703021e+01   1.836854e+01
   1.849799e+01   3.657669e+00
  -4.808157e+00  -1.813818e+01
  -4.612176e+00  -9.557904e+00
   7.010479e+00   2.653643e+01
   4.745979e+00   4.083664e+01
  -1.714400e+01   1.741681e+01
  -4.289477e+01  -1.605319e+01
  -1.990804e+01  -4.361200e+01
   3.141587e+01  -1.867922e+01
   4.868728e+01   1.529317e+01
   1.705086e+01   4.994218e+01
  -3.775285e+01   3.489230e+01
  -6.815432e+01   5.837577e+00
  -4.090341e+01  -3.094928e+01
   2.088695e+01  -4.393834e+01
   5.839371e+01  -3.112299e+01
   2.500183e+01  -9.087957e+00
  -2.525510e+01   3.744583e+00
  -2.979635e+01  -1.566844e+00
   1.668853e+01  -2.393560e+01
   6.449452e+01  -2.865915e+01
