
 $NMID
 id='ANONYMOUS ', fmtdat='(2E16.6)'
 volume=1.0
 tramp=1.0
 $END
   3.027954e+03   4.525037e+02
   1.274236e+03   1.456829e+03
  -1.585091e+02   1.724823e+03
  -1.203624e+03   8.286279e+02
  -6.812991e+02  -5.150306e+01
   1.353339e+02  -1.588929e+02
   1.528181e+02   1.094727e+02
   1.441126e+02   4.480614e+02
  -4.993696e+02   5.718769e+02
  -5.583645e+02   7.417752e+01
  -3.608633e+02  -5.894580e+02
   6.049889e+01  -5.790328e+02
   2.225551e+02  -7.256616e+01
   2.081640e+02   4.392204e+02
  -1.115917e+02   4.622103e+02
  -3.851275e+02   6.009573e+01
  -1.575210e+02  -4.287705e+02
   1.162541e+02  -4.465372e+02
   3.683568e+02  -2.122930e+02
   3.681837e+02   1.985264e+02
   1.037464e+02   3.342360e+02
  -1.349261e+02   1.771617e+02
  -1.126799e+02   4.434267e+01
   1.361456e+02   9.292182e+01
   2.571864e+02   2.281657e+02
  -2.170492e+01   2.774321e+02
  -3.489843e+02   1.642465e+02
  -4.266994e+02  -2.551916e+02
  -1.726214e+02  -3.435004e+02
   3.246596e+02  -1.684141e+02
   3.916825e+02   1.030881e+02
   1.864646e+02   3.005897e+02
  -1.804532e+02   3.130832e+02
  -3.435181e+02   7.963339e+01
  -2.512192e+02  -1.016917e+02
  -7.128923e+01  -2.533684e+02
   8.709183e+01  -1.408167e+02
   1.328325e+01   6.123354e+01
  -1.561708e+02   2.019737e+02
  -2.053869e+02  -6.873906e+01
  -2.192873e+01  -5.469484e+02
   2.523894e+02  -3.742654e+02
   3.295004e+02  -1.264905e+00
   9.135340e+01   3.306512e+02
  -1.414344e+02   9.728229e+01
  -2.244601e+02  -2.546565e+02
   6.366641e+01  -3.153154e+02
   3.335166e+02  -3.156476e+00
   4.472979e+02   3.297637e+02
   1.674012e+02   3.972518e+02
  -1.976296e+02   1.902286e+02
  -4.217679e+02  -1.191698e+02
  -1.797986e+02  -2.021122e+02
   7.442703e+01  -1.891945e+02
   2.074763e+02  -4.565801e+01
   1.552866e+02   9.502266e+00
  -2.520608e+01   4.787945e+01
  -5.236336e+01  -6.391564e+01
   1.224539e+02  -1.093188e+02
   2.177561e+02   5.361717e+01
   1.106826e+02   1.402500e+02
  -1.134362e+02   1.720137e+02
  -2.828801e+02   9.103384e+01
  -1.852574e+02  -4.396357e+01
   3.101563e+01  -2.184527e+02
   2.346660e+02  -2.755624e+02
   3.603363e+02  -8.263733e+01
   2.201340e+02   1.878506e+02
   2.499364e+00   3.083108e+02
  -5.419059e+01   2.917199e+02
  -3.395135e+01   8.482373e+01
  -2.985258e+01   7.578545e+01
  -1.096646e+02   9.250959e+01
  -1.982127e+02   8.510359e+01
  -2.280368e+02  -1.006119e+02
  -7.555523e+01  -2.357400e+02
   7.479114e+01  -1.855850e+02
   1.442073e+02   5.654409e+01
   1.007547e+02   2.294794e+02
  -7.762818e+01   2.129900e+02
  -2.171716e+02   5.767465e+01
  -2.189989e+02  -1.602166e+02
  -1.452009e+02  -2.740385e+02
   7.280883e+01  -2.258369e+02
   1.343287e+02  -9.289564e+01
   1.166205e+02  -4.875672e+01
   1.072452e+02  -4.343299e+01
   2.064225e+02  -6.031451e+01
   3.246019e+02   1.138280e+02
   2.736423e+02   2.712846e+02
  -5.093081e+01   3.729471e+02
  -3.728481e+02   2.829154e+02
  -4.008072e+02   5.631372e+01
  -1.867437e+02  -1.201376e+02
   1.662336e+01  -2.233049e+02
   8.924612e+01  -1.442232e+02
   1.360331e+01  -3.479547e+01
  -9.370025e+01   3.550305e+01
  -1.135595e+02  -9.356674e+00
  -7.422543e+00  -1.161459e+02
   8.543116e+01  -8.010739e+01
   9.111329e+01   5.447446e+01
  -4.552994e+01   1.157395e+02
  -1.234709e+02   1.005352e+01
  -1.479760e+02  -1.961890e+02
   2.641605e+01  -2.747104e+02
   1.907807e+02  -1.346365e+02
   2.862773e+02   6.223601e+01
   1.754148e+02   1.814379e+02
   6.343651e+01   2.359272e+02
  -1.021600e+02   1.024018e+02
  -1.324270e+02   1.678596e+01
  -2.223882e+01  -8.111046e+00
   3.717571e+01   5.662247e+01
  -1.795545e+00   9.181233e+01
  -1.297902e+02   6.186860e+01
  -1.194771e+02  -2.971444e+01
  -1.598051e+01  -5.837656e+01
   6.724348e+01   1.012472e+01
   2.257764e+01   8.284660e+01
  -1.169417e+02   5.175542e+01
  -2.734465e+02  -7.519678e+00
  -2.268793e+02  -1.565901e+02
  -5.210314e+01  -2.273352e+02
   1.534917e+02  -1.819641e+02
   2.548012e+02  -3.124733e+01
   9.553568e+01   3.983177e+01
  -2.927860e+01   7.711842e+01
  -5.284785e+01  -3.029441e+00
   3.582138e+01  -8.185713e+01
   1.659574e+02  -1.133893e+01
   1.430449e+02   1.154045e+02
   4.859584e+01   1.491394e+02
  -6.671860e+01   1.198010e+02
  -1.055056e+02   3.489496e+01
  -3.421883e+01  -3.529242e+01
   3.142189e+01   1.345103e+01
  -1.508562e+00   8.150070e+01
  -7.869644e+01   8.514408e+01
  -1.877762e+02   1.719163e+01
  -1.491534e+02  -1.310974e+02
   8.733030e+00  -1.777606e+02
   1.251759e+02  -1.256398e+02
   1.384084e+02  -3.007720e+01
   5.830803e+01   7.193440e+01
  -5.489346e+01   7.120933e+01
  -5.712393e+01   1.749761e+01
  -4.020957e+00  -2.367406e+01
   2.865506e+01  -1.237966e+01
  -3.365170e+00   2.061962e+01
  -7.501991e+01   5.813174e+00
  -9.527247e+01  -8.070566e+01
  -1.051776e+01  -1.429420e+02
   1.160081e+02  -1.009370e+02
   1.986632e+02  -3.787343e+01
   1.735923e+02   1.405647e+02
   2.779755e+01   1.893490e+02
  -7.825131e+01   1.133232e+02
  -1.032759e+02   1.600802e+01
  -5.527639e+01  -3.332711e+01
  -2.116515e+01  -2.140794e+01
  -4.685382e+01   1.406171e+01
  -7.329894e+01  -1.210094e+00
  -3.448662e+01  -4.085568e+01
   3.043974e+01  -7.948978e+01
   1.135945e+02  -5.868102e+01
   7.242667e+01   4.098509e+01
  -1.040940e+01   1.138852e+02
  -1.302996e+02   7.660528e+01
  -1.439349e+02  -3.846440e+01
  -5.916285e+01  -1.781966e+02
   1.207352e+02  -2.042437e+02
   2.203005e+02  -1.066693e+02
   1.792314e+02   8.022235e+01
   5.696981e+01   1.494772e+02
  -4.374846e+01   1.087608e+02
  -6.729679e+01   6.121565e+01
  -6.517760e+01   6.769820e+01
  -5.381099e+01   5.926315e+01
  -6.199956e+01   5.832417e+01
  -1.038123e+02  -1.752344e+01
  -7.843378e+01  -1.210638e+02
  -5.321276e+00  -1.663307e+02
   7.087549e+01  -1.448836e+02
   1.399431e+02   1.318169e+00
   9.482823e+01   8.958034e+01
   1.672963e+01   1.458222e+02
  -6.172074e+01   6.673010e+01
  -5.637306e+01  -1.567729e+01
   1.170339e+00  -3.906993e+01
   2.072098e+01  -2.744135e+01
  -1.603429e+01  -1.331237e+01
  -6.813639e+01  -2.715122e+01
  -3.910933e+01  -3.349288e+01
   7.128372e+01  -3.066939e+01
   1.528719e+02   4.173188e+00
   1.148291e+02   5.619701e+01
   8.353347e+00   8.430435e+01
  -9.415192e+01   3.731467e+01
  -1.236135e+02  -6.166525e+00
  -3.785874e+01  -3.261142e+01
   6.007821e+01  -3.241008e+01
   6.283662e+01   1.830597e+01
   1.399492e+01   5.721817e+01
  -3.863721e+01   3.707882e+01
  -6.220212e+01   8.349129e+00
  -5.150935e+01  -4.063564e+01
  -3.443018e+01  -4.023856e+01
  -4.460634e+01  -2.021449e+00
  -5.310344e+01   1.204021e+00
  -4.294143e+01  -6.827361e+01
   2.196927e+01  -1.312314e+02
   1.078379e+02  -9.007850e+01
   1.499062e+02  -2.731055e+01
   8.125469e+01   6.154923e+01
   1.431765e+00   1.194147e+02
  -7.200469e+01   5.532787e+01
  -4.206729e+01  -9.358312e+00
   4.854067e+01  -1.402027e+01
   1.083279e+02   4.375503e+01
   5.733437e+01   8.207134e+01
  -9.398435e+01   8.080855e+01
  -1.759052e+02   3.338034e+01
  -1.312025e+02  -3.175604e+01
  -9.930928e+00  -8.341085e+01
   5.926688e+01  -5.374417e+01
   3.989896e+01  -2.797328e+00
  -3.233800e+01   2.175877e+01
  -7.626564e+01  -1.463329e+01
  -2.712351e+01  -1.002840e+02
   5.660628e+01  -1.141345e+02
   1.280395e+02  -2.735006e+01
   8.886796e+01   6.993952e+01
  -2.471651e+01   1.459366e+02
  -7.394467e+01   1.060074e+02
  -8.140082e+01  -2.270593e+01
  -4.402556e+01  -9.758584e+01
   7.822039e+00  -8.180579e+01
   4.093406e+01  -1.112485e+01
   3.666277e+01   2.829760e+01
   1.415425e+01   6.070936e+00
   3.980246e+00  -1.234348e+01
   2.342159e+01   1.618279e+01
   5.005931e+01   6.888807e+01
   2.504610e+01   1.027971e+02
  -4.130904e+01   3.386484e+01
  -1.028193e+02  -4.274851e+01
  -1.021856e+02  -5.694830e+01
  -2.339583e+01  -4.547223e+01
   6.953107e+01  -6.168297e+00
   7.271803e+01  -1.454955e+01
   1.336670e+01   1.037587e+01
  -3.355262e+01   1.835226e+01
  -1.565706e+01   9.618864e+00
   1.368685e+01  -2.336925e+00
  -2.200451e+00  -6.550050e+00
  -5.814866e+01  -1.444888e+01
  -8.313590e+01  -1.360104e+01
  -8.520591e+00  -7.275947e+01
   8.543063e+01  -8.234242e+01
   1.309540e+02  -3.711031e+01
   1.253582e+02   6.770656e+01
   6.010224e+00   1.487258e+02
  -9.337941e+01   1.120005e+02
  -9.278251e+01   5.406755e+01
  -6.471704e+01  -3.067335e+01
  -1.962566e+01  -2.859551e+01
  -2.570282e+00  -1.044273e+01
  -1.043676e+01  -4.288641e+00
  -1.763198e+01  -4.035631e+01
  -1.274507e+01  -6.053400e+01
   2.082225e+01  -5.321420e+01
   6.302384e+01   2.162313e+01
   6.901750e+01   8.795110e+01
   6.788589e-01   8.814868e+01
  -6.066338e+01   2.357465e+01
  -8.833153e+01  -5.125669e+01
  -3.960607e+01  -9.046635e+01
   5.238517e+01  -6.002965e+01
   8.308583e+01   1.401703e+01
   4.691326e+01   5.572770e+01
  -3.250883e+01   4.860834e+01
  -2.947248e+01   2.886241e+01
   2.044642e+01  -5.402271e+00
   5.721641e+01  -2.249688e+00
   1.274325e+01   2.316157e+01
  -6.324255e+01   4.582110e+01
  -9.584128e+01   2.908142e+01
  -5.478658e+01  -7.696853e+00
   2.565707e+01  -7.733203e+01
   4.611509e+01  -5.858292e+01
   3.640701e+01  -8.977421e+00
   7.558548e+00   3.898438e+01
  -2.113301e+01   4.300715e+01
  -2.744630e+01  -8.934520e+00
  -2.662566e+01  -4.893164e+01
  -2.043998e-01  -3.497347e+01
   2.478224e+01   5.071524e+00
   2.924870e+01   2.195793e+01
   1.624351e+01   3.588444e+00
  -2.238227e+00  -1.830915e+01
  -5.999053e+00  -6.035501e+00
   4.731296e+00   2.276566e+01
  -3.257532e+00   4.285630e+01
  -1.775188e+01   7.979502e+00
  -3.328920e+01  -2.748581e+01
  -3.805767e+00  -4.147218e+01
   2.899957e+01  -2.256311e+01
   5.374651e+01   3.062539e+01
   1.882715e+01   5.254644e+01
  -4.822773e+01   2.210742e+01
  -8.699794e+01  -8.919258e+00
  -4.581211e+01  -4.407706e+01
   1.570851e+01  -3.735381e+01
   4.822841e+01  -2.187823e+01
   2.154778e+01  -5.196612e+00
  -2.364114e+01   1.664019e+00
  -2.898884e+01  -7.421856e+00
   1.949132e+01  -1.925123e+01
   6.496274e+01  -4.506255e+00
