
 $NMID
 id='ANONYMOUS ', fmtdat='(2E16.6)'
 volume=1.0
 tramp=1.0
 $END
   2.898310e+03  -7.122499e+02
   2.058490e+03   9.095387e+02
  -6.213481e+01   1.643432e+03
  -9.444499e+02   1.092680e+03
  -8.342560e+02  -8.716160e+00
   2.063842e+02  -3.163868e+02
   4.225102e+02  -2.333246e+01
   6.829458e+01   5.903052e+02
  -5.022692e+02   5.055346e+02
  -5.592767e+02   6.185922e+01
  -4.096092e+02  -5.204079e+02
   8.861177e+01  -6.123009e+02
   2.389204e+02  -2.232393e+02
   3.634327e+02   3.703810e+02
  -3.119680e+01   4.276876e+02
  -3.853444e+02   7.067397e+01
  -3.169038e+02  -3.432778e+02
   1.221391e+02  -6.499144e+02
   3.674307e+02  -2.413746e+02
   3.527229e+02   1.427885e+02
   3.407384e+01   3.605073e+02
  -1.108964e+02   2.281173e+02
  -9.007282e+01   6.772390e+01
   1.077694e+02   3.925475e+01
   2.035216e+02   1.450453e+02
   9.415301e+01   3.352246e+02
  -3.701725e+02   1.751515e+02
  -5.111168e+02  -5.906340e+01
  -2.706397e+02  -2.529843e+02
   2.579801e+02  -2.446949e+02
   4.320556e+02   1.099156e+01
   2.704346e+02   3.101146e+02
  -2.295125e+02   3.437325e+02
  -4.169467e+02   1.194052e+02
  -3.145814e+02  -9.077997e+01
  -1.125855e+02  -2.785685e+02
   1.996616e+01  -2.057792e+02
   1.531367e+00   8.427297e+01
  -9.388573e+01   2.352542e+02
  -2.401914e+02  -8.137088e+01
  -8.348248e+01  -4.016974e+02
   6.426345e+01  -4.188496e+02
   2.640880e+02  -3.855232e+01
   2.126138e+02   2.305318e+02
  -1.396028e+02   1.338298e+02
  -1.908675e+02  -1.954703e+02
  -7.052629e+00  -3.655444e+02
   4.106690e+02  -1.181588e+02
   4.782164e+02   3.015956e+02
   8.466395e+01   4.000140e+02
  -1.585303e+02   2.588527e+02
  -4.618501e+02  -1.270852e+01
  -3.576943e+02  -1.565745e+02
  -8.914353e+00  -1.626620e+02
   2.470016e+02  -9.524100e+01
   1.965627e+02   6.320442e+00
  -2.637614e+01   3.302283e+01
  -7.237761e+01  -5.338153e+01
   1.145177e+02  -9.460850e+01
   2.018554e+02   3.076632e+01
   1.118168e+02   1.810848e+02
  -1.036135e+02   2.314974e+02
  -2.736244e+02   1.325028e+02
  -2.220061e+02  -9.134622e+01
   2.738568e+01  -2.334261e+02
   1.908708e+02  -3.184789e+02
   2.852270e+02  -1.514533e+02
   1.970816e+02   9.292111e+01
   8.807550e+01   2.675549e+02
  -4.858716e+01   2.822125e+02
  -9.993466e+00   1.444119e+02
  -2.998284e+01   2.491929e+01
  -7.578698e+01   7.923055e+01
  -2.209182e+02   8.134509e+01
  -2.198931e+02  -7.436625e+01
  -8.570016e+01  -1.805495e+02
   5.474009e+01  -1.929035e+02
   1.458945e+02  -2.686916e+01
   1.084981e+02   1.881985e+02
  -1.131471e+01   2.057659e+02
  -2.109812e+02   5.458728e+01
  -2.524250e+02  -6.815626e+01
  -1.485543e+02  -2.528192e+02
   2.750919e+01  -2.386868e+02
   1.375691e+02  -1.758897e+02
   1.134070e+02  -5.947469e+01
   1.172025e+02  -7.157753e+01
   2.044281e+02  -3.314766e+01
   3.210090e+02   3.914273e+01
   2.597965e+02   2.255133e+02
   7.147489e+01   3.167865e+02
  -3.095619e+02   3.207183e+02
  -3.431560e+02   1.714489e+02
  -2.416237e+02  -4.468563e+01
  -4.618572e+01  -1.837087e+02
   4.200856e+01  -1.799342e+02
   9.220133e+00  -3.415790e+01
  -9.871283e+01   5.178998e+01
  -1.071643e+02  -4.270414e+00
  -4.800707e+01  -1.241881e+02
   7.268904e+01  -1.391205e+02
   1.049724e+02   2.985005e+01
   4.360030e+00   1.221721e+02
  -1.287078e+02  -3.434748e+00
  -1.616012e+02  -1.989665e+02
   6.745133e+01  -2.800345e+02
   1.934514e+02  -1.770484e+02
   2.831255e+02  -3.175072e+00
   2.333605e+02   2.169095e+02
   6.107280e+01   1.997528e+02
  -7.661799e+01   1.465492e+02
  -1.360597e+02   1.922535e+01
  -3.445741e+01  -4.590703e+00
   4.530828e+01   3.492104e+01
   2.408469e+01   8.457322e+01
  -8.662165e+01   3.888122e+01
  -1.157334e+02  -4.047289e-01
  -3.204127e+01  -2.662687e+01
   5.778355e+01   1.105057e+01
   3.256270e+01   5.797739e+01
  -1.139063e+02   7.165144e+01
  -2.392065e+02  -1.632913e+01
  -1.918148e+02  -1.273064e+02
  -2.087412e+01  -2.145956e+02
   1.516695e+02  -2.036968e+02
   1.923214e+02  -1.007540e+02
   1.283034e+02   2.259837e+01
  -1.560117e+01   5.917100e+01
  -5.564175e+01   6.085316e+00
   4.779158e+01  -8.205731e+01
   1.435387e+02  -1.206782e+01
   1.633999e+02   6.131380e+01
   1.994826e+01   1.530925e+02
  -6.586543e+01   1.280257e+02
  -1.023757e+02   2.036532e+01
  -5.015616e+01  -2.840520e+01
   3.127199e+01   1.487586e+01
   3.031018e+01   8.048716e+01
  -6.173741e+01   9.233420e+01
  -1.413255e+02   2.533933e+01
  -1.431481e+02  -9.151228e+01
  -4.021354e+01  -1.661053e+02
   9.630867e+01  -1.268381e+02
   1.521225e+02  -1.080112e+01
   5.835225e+01   8.092408e+01
  -4.546283e+01   7.614189e+01
  -6.844858e+01   2.543522e+01
  -5.867713e+00  -1.951344e+01
   2.801297e+01  -1.199716e+01
  -5.641611e+00   1.781000e+01
  -6.429639e+01   2.858245e+00
  -8.032764e+01  -6.352376e+01
  -2.612489e+01  -1.414895e+02
   9.634603e+01  -1.325234e+02
   2.182527e+02  -3.776935e+01
   1.545724e+02   1.174867e+02
   3.908957e+01   1.643130e+02
  -6.350595e+01   1.276580e+02
  -9.069246e+01   3.245484e+01
  -6.369984e+01  -3.177855e+01
  -3.026749e+01  -1.856223e+01
  -4.264529e+01   1.661557e+01
  -5.772984e+01   9.674159e+00
  -4.903854e+01  -4.226257e+01
   2.149621e+01  -7.779326e+01
   8.915615e+01  -5.450070e+01
   9.079466e+01   2.492650e+01
  -1.199707e+01   1.161356e+02
  -1.433640e+02   7.806705e+01
  -1.616232e+02  -2.547379e+01
  -7.391406e+01  -1.570881e+02
   8.876310e+01  -1.689083e+02
   2.007103e+02  -9.804757e+01
   1.984417e+02   7.303747e+01
   8.529103e+01   1.248875e+02
  -1.654053e+01   1.066055e+02
  -7.296019e+01   8.858851e+01
  -4.522832e+01   5.516322e+01
  -6.191336e+01   7.619307e+01
  -4.688703e+01   7.317264e+01
  -1.140119e+02  -1.749565e+01
  -9.922329e+01  -1.115337e+02
  -5.996117e+01  -1.669130e+02
   8.844229e+01  -1.475644e+02
   1.410495e+02  -1.723440e+01
   1.242340e+02   9.815629e+01
   1.096078e+01   1.349944e+02
  -5.337682e+01   6.136802e+01
  -5.523034e+01  -4.070450e+00
  -8.356514e+00  -4.222031e+01
   1.111445e+01  -2.875443e+01
  -2.428764e+01  -8.813375e+00
  -7.412503e+01  -4.490719e-01
  -4.680072e+01  -2.995978e+01
   6.079753e+01  -3.064490e+01
   1.374501e+02  -8.260143e+00
   1.138921e+02   4.273847e+01
   3.758513e+00   6.504748e+01
  -9.510100e+01   8.115271e+01
  -9.687994e+01   1.314231e+01
  -4.712536e+01  -3.438118e+01
   4.568798e+01  -3.472288e+01
   6.346801e+01   5.205837e+00
   2.255045e+01   5.923667e+01
  -3.447413e+01   5.965347e+01
  -5.573487e+01  -2.202592e+00
  -5.043548e+01  -3.752920e+01
  -3.854470e+01  -2.847960e+01
  -3.929072e+01  -1.749908e+00
  -5.210305e+01   8.729209e+00
  -2.995872e+01  -5.812896e+01
  -8.119306e+00  -1.303884e+02
   7.036300e+01  -1.427749e+02
   1.376449e+02  -3.997640e+01
   1.187395e+02   4.820611e+01
   1.021779e+01   1.075593e+02
  -6.114294e+01   7.129293e+01
  -4.894733e+01  -7.136010e+00
   4.488645e+01  -1.868590e+01
   1.031050e+02   3.362693e+01
   6.676007e+01   7.471832e+01
  -5.768880e+01   6.139474e+01
  -1.574081e+02   4.921033e+01
  -1.397700e+02  -2.000637e+01
  -2.525507e+01  -6.500024e+01
   5.740780e+01  -5.994106e+01
   2.981019e+01  -5.750769e+00
  -3.240482e+01   3.277823e+01
  -6.836669e+01  -8.231729e+00
  -4.242436e+01  -8.076378e+01
   4.196754e+01  -1.514527e+02
   1.036789e+02  -7.697309e+01
   1.047421e+02   7.414861e+01
   2.890608e+01   1.599717e+02
  -5.495359e+01   9.617426e+01
  -8.717460e+01  -5.652539e+00
  -4.978637e+01  -8.632452e+01
   4.440309e+00  -7.696781e+01
   4.008918e+01  -1.372834e+01
   3.341823e+01   2.578696e+01
   1.583770e+01   5.367021e+00
   2.916279e+00  -1.511582e+01
   2.415185e+01   1.405546e+01
   4.869574e+01   6.334528e+01
   3.124294e+01   7.631653e+01
  -4.800890e+01   3.367188e+01
  -1.065102e+02  -2.011114e+01
  -9.808418e+01  -3.868079e+01
  -2.164605e+01  -4.349139e+01
   4.908196e+01  -8.676723e+00
   7.556037e+01  -1.963436e+01
   1.479833e+01   7.976099e+00
  -2.641277e+01   1.827315e+01
  -1.353982e+01   1.043432e+01
   1.333868e+01  -3.575343e+00
  -2.930349e+00  -5.131676e+00
  -4.441527e+01   1.223743e+01
  -7.562232e+01  -1.442564e+01
  -1.046175e+01  -6.601539e+01
   8.284552e+01  -8.846104e+01
   1.325666e+02  -8.373653e+01
   1.329510e+02   3.320434e+01
   3.697562e+01   1.261623e+02
  -5.207289e+01   1.102409e+02
  -9.595618e+01   4.940546e+01
  -6.484855e+01  -1.647182e+01
  -2.084736e+01  -2.159139e+01
  -1.113279e+00  -1.005804e+01
  -1.103288e+01  -5.607933e+00
  -2.784209e+01  -3.787225e+01
  -2.677958e+01  -7.296980e+01
   1.674233e+01  -6.062849e+01
   6.672590e+01   6.355680e+00
   6.731457e+01   7.214101e+01
   1.754865e+01   9.411724e+01
  -5.732590e+01   2.552785e+01
  -8.852122e+01  -4.192506e+01
  -3.644417e+01  -8.333675e+01
   5.512525e+01  -5.287708e+01
   8.597797e+01  -1.091441e+01
   3.062726e+01   3.932279e+01
  -2.127550e+01   4.090986e+01
  -3.023552e+01   2.665603e+01
   2.413375e+01  -5.084884e+00
   5.164103e+01  -1.654280e+01
   1.465330e+01   1.825304e+01
  -5.919089e+01   7.542433e+01
  -7.962249e+01   5.072134e+01
  -5.648867e+01  -6.723927e+00
   1.091376e+01  -5.015609e+01
   3.660811e+01  -6.999249e+01
   3.922321e+01  -1.690687e+01
   1.448316e+01   4.526742e+01
  -1.628264e+01   3.225028e+01
  -3.402322e+01  -8.773475e+00
  -2.267432e+01  -4.596109e+01
  -3.545179e+00  -3.172621e+01
   2.603756e+01   1.418524e+00
   3.244239e+01   1.480678e+01
   1.773251e+01  -1.432648e-01
   3.101576e-02  -1.225338e+01
  -5.023820e+00  -4.703458e+00
   8.715955e+00   2.710935e+01
   5.818579e+00   3.386644e+01
  -2.029968e+01   1.940854e+01
  -2.639462e+01  -2.237468e+01
  -2.127790e+01  -4.205381e+01
   3.293480e+01  -2.185223e+01
   4.657663e+01   1.832447e+01
   1.781286e+01   4.958308e+01
  -4.018604e+01   3.078174e+01
  -7.816103e+01   5.912457e+00
  -4.688118e+01  -3.057873e+01
   1.951596e+01  -3.506245e+01
   5.106874e+01  -3.147707e+01
   2.004828e+01  -7.726971e+00
  -2.325452e+01   6.599710e+00
  -2.695538e+01  -3.538332e+00
   1.306850e+01  -2.440461e+01
   5.764335e+01  -2.201309e+01
