
 $NMID
 id='ANONYMOUS ', fmtdat='(2E16.6)'
 volume=1.0
 tramp=1.0
 $END
  -3.220823e+03   4.417613e+02
  -2.158648e+03  -6.374997e+02
  -3.321235e+02  -1.642198e+03
   7.165824e+02  -9.097155e+02
   1.056274e+03  -2.864492e+02
   1.300917e+02   2.585918e+02
  -2.899626e+02  -6.694777e+00
  -1.508899e+02  -3.791363e+02
   3.861726e+02  -5.469121e+02
   4.697203e+02  -2.649487e+02
   4.402022e+02   3.490458e+02
   1.550682e+02   6.361576e+02
  -2.844082e+02   2.041572e+02
  -2.465033e+02  -2.531738e+02
   4.309958e+01  -4.136967e+02
   3.085085e+02  -1.336605e+02
   3.142841e+02   3.283955e+02
  -5.088317e+01   5.403390e+02
  -3.469999e+02   3.079137e+02
  -3.472341e+02  -7.044892e+01
  -1.482521e+02  -2.766357e+02
   1.021897e+02  -2.085451e+02
   3.089055e+01  -8.113106e+01
  -1.195084e+02  -1.053583e+02
  -2.736874e+02  -1.731839e+02
  -1.912198e+01  -3.300193e+02
   3.522959e+02  -1.108196e+02
   5.367225e+02   2.428554e+01
   2.489884e+02   3.090527e+02
  -2.093283e+02   9.027464e+01
  -4.565967e+02  -7.888268e+01
  -1.335145e+02  -3.165142e+02
   1.756185e+02  -2.999939e+02
   3.503664e+02  -1.246314e+02
   2.872953e+02   7.393620e+01
   1.642532e+02   2.780651e+02
   2.909623e+00   1.712745e+02
   7.096634e+01  -3.355111e+01
   1.592220e+02  -3.814448e+01
   2.044759e+02   8.225237e+01
   8.404761e+00   4.106043e+02
  -1.484564e+02   3.108699e+02
  -2.216227e+02   1.501672e+01
  -8.904442e+01  -2.695880e+02
   7.984077e+01  -1.282680e+02
   1.442111e+02   2.293567e+02
  -9.613943e+01   3.447382e+02
  -3.856114e+02   1.646378e+02
  -4.008904e+02  -2.630213e+02
  -1.695277e+02  -3.831942e+02
   2.145609e+02  -2.446759e+02
   4.654002e+02   7.728627e+00
   3.301818e+02   2.048519e+02
  -1.688119e+01   1.325914e+02
  -2.356580e+02   9.092534e+01
  -1.631134e+02   2.183745e+01
  -3.274769e+01  -1.459227e+01
   2.403834e+01   2.151376e+01
  -5.420737e+01   1.667124e+01
  -1.492493e+02  -1.099383e+01
  -9.014968e+01  -1.092219e+02
   8.418656e+01  -2.326006e+02
   2.996864e+02  -1.873061e+02
   2.760952e+02   9.963789e+01
   1.373715e+01   2.665975e+02
  -2.901201e+02   3.520673e+02
  -2.792083e+02   1.173852e+02
  -2.244307e+02  -1.392512e+02
  -5.400665e+01  -2.845952e+02
  -1.073187e+01  -2.659015e+02
   1.162356e-01  -1.691345e+02
   2.114640e+01  -7.990173e+01
   1.055743e+02  -1.130440e+02
   2.260182e+02  -4.622781e+01
   1.966299e+02   1.179082e+02
   1.311890e+02   2.028911e+02
  -5.508551e+01   1.594669e+02
  -1.634700e+02  -3.050470e+01
  -1.096371e+02  -1.771606e+02
   3.605086e+01  -2.275470e+02
   2.259972e+02  -4.887134e+01
   2.746693e+02   1.105526e+02
   1.316102e+02   1.976781e+02
  -4.296210e+01   2.379891e+02
  -1.224772e+02   1.359031e+02
  -1.195204e+02   8.546101e+01
  -1.293955e+02   6.860973e+01
  -2.415930e+02   4.644415e+01
  -3.647985e+02  -5.793821e+01
  -2.521145e+02  -2.215439e+02
  -3.042843e+01  -3.401701e+02
   2.797281e+02  -2.981368e+02
   4.223364e+02  -1.839192e+02
   2.123320e+02   5.574175e+01
   2.809501e+01   2.022397e+02
  -3.032807e+01   1.716614e+02
   1.216239e+01   2.032486e+01
   9.939221e+01  -2.051586e+01
   8.894779e+01   4.341805e+01
   2.295654e+01   1.303655e+02
  -8.113813e+01   1.125829e+02
  -9.923003e+01  -4.081181e+01
  -5.805695e+00  -1.055324e+02
   1.216602e+02  -7.605759e+00
   1.293484e+02   2.017907e+02
   1.809012e+01   3.071785e+02
  -1.954965e+02   1.970464e+02
  -3.049328e+02  -4.398025e+01
  -2.300318e+02  -2.044233e+02
  -6.166066e+01  -2.112543e+02
   1.031563e+02  -1.514673e+02
   1.359951e+02  -9.677280e+00
   3.137010e+01   2.530973e+00
  -4.566365e+01  -4.450740e+01
  -3.855038e-01  -1.038228e+02
   9.910793e+01  -2.836039e+01
   1.239292e+02   1.933359e+01
   2.932608e+01   3.901383e+01
  -5.796178e+01  -2.233483e+00
  -3.928003e+01  -7.915464e+01
   1.276001e+02  -9.516968e+01
   2.616097e+02  -3.752874e+00
   2.288897e+02   1.425014e+02
   5.720119e+01   2.280192e+02
  -2.023087e+02   1.863765e+02
  -2.136174e+02   1.165017e+02
  -1.162504e+02  -3.141197e+01
   2.664293e+01  -5.516462e+01
   5.165614e+01   6.360010e+00
  -5.950287e+01   5.906874e+01
  -1.224694e+02   1.409590e+01
  -1.650551e+02  -6.526993e+01
  -2.522681e+01  -1.465402e+02
   7.865100e+01  -1.220030e+02
   8.928248e+01  -8.192846e+00
   3.753667e+01   3.005266e+01
  -3.828684e+01  -2.237370e+01
  -2.211647e+01  -9.544557e+01
   6.198151e+01  -1.194844e+02
   1.738617e+02  -2.141262e+01
   1.598177e+02   8.752589e+01
   1.904223e+01   1.666102e+02
  -9.747753e+01   1.245409e+02
  -1.325325e+02   2.164606e+01
  -5.049362e+01  -8.063525e+01
   5.160504e+01  -7.032672e+01
   5.572035e+01  -1.592857e+01
  -3.552671e+00   1.765705e+01
  -3.428061e+01   1.256032e+01
   5.928679e+00  -2.660234e+01
   7.253175e+01  -8.613033e+00
   1.009194e+02   7.113231e+01
   2.345226e+01   1.514431e+02
  -1.290745e+02   1.584011e+02
  -2.263286e+02   2.741227e+01
  -1.544324e+02  -1.136960e+02
  -3.468811e+01  -1.600977e+02
   6.046683e+01  -1.275029e+02
   1.100212e+02  -4.766811e+01
   6.838240e+01   4.193448e+01
   3.157493e+01   2.183946e+01
   4.927004e+01  -1.790543e+01
   8.047574e+01  -1.566761e+01
   5.744683e+01   4.610782e+01
  -2.410028e+01   1.012142e+02
  -1.095554e+02   5.700068e+01
  -9.648574e+01  -2.973396e+01
   2.588710e+00  -1.218486e+02
   1.341447e+02  -7.790020e+01
   1.672900e+02   7.540889e+01
   5.140380e+01   1.779237e+02
  -8.398922e+01   1.704664e+02
  -2.324004e+02   1.134462e+02
  -1.826921e+02  -5.112778e+01
  -7.653719e+01  -1.339070e+02
   2.446474e+01  -9.774135e+01
   8.567375e+01  -7.180106e+01
   5.327454e+01  -6.921757e+01
   2.590613e+01  -8.254278e+01
   7.345828e+01  -7.486479e+01
   1.182991e+02   1.866227e+01
   1.250833e+02   1.168738e+02
   5.613894e+01   2.094362e+02
  -8.384196e+01   1.548248e+02
  -1.524834e+02   2.117929e+01
  -1.145306e+02  -1.045014e+02
  -4.968624e+00  -1.160309e+02
   4.858462e+01  -6.286979e+01
   5.874874e+01   1.634975e+01
  -5.529808e-01   5.293609e+01
  -2.200324e+01   3.148704e+01
   1.774417e+01   5.358185e+00
   7.312137e+01   1.216764e+01
   5.210549e+01   3.604432e+01
  -6.412352e+01   3.968538e+01
  -1.438967e+02   1.527309e+00
  -1.325482e+02  -4.571476e+01
  -3.312021e+00  -8.976146e+01
   1.169864e+02  -8.236876e+01
   1.242684e+02  -8.069027e+00
   5.014578e+01   3.844288e+01
  -4.094766e+01   3.974902e+01
  -6.623902e+01  -3.736972e+00
  -2.789840e+01  -6.418255e+01
   3.248243e+01  -6.012596e+01
   5.143599e+01  -7.780820e+00
   5.392507e+01   4.282012e+01
   4.061606e+01   3.328577e+01
   4.520394e+01  -2.457601e+00
   6.122298e+01  -6.078755e+00
   4.535740e+01   5.324680e+01
  -7.483515e+00   1.440065e+02
  -1.200709e+02   1.392003e+02
  -1.437761e+02   3.450454e+01
  -1.195332e+02  -7.169443e+01
  -1.246702e+01  -1.046464e+02
   7.281819e+01  -7.096899e+01
   5.706407e+01   6.581429e+00
  -4.601194e+01   1.843753e+01
  -1.123412e+02  -3.115397e+01
  -5.861921e+01  -1.044399e+02
   4.550601e+01  -7.894657e+01
   1.527773e+02  -1.318899e+01
   1.280183e+02   4.617788e+01
   1.713105e+01   6.414910e+01
  -5.584045e+01   4.925828e+01
  -3.833797e+01   1.726217e+00
   3.283667e+01  -3.062809e+01
   7.803102e+01   7.182961e+00
   3.866321e+01   8.922002e+01
  -6.108358e+01   1.451963e+02
  -1.263038e+02   8.366798e+01
  -1.153693e+02  -5.429314e+01
  -2.131074e+01  -1.562575e+02
   5.099067e+01  -1.183383e+02
   9.073192e+01   7.890197e+00
   6.182725e+01   8.946299e+01
   3.445103e+00   8.416981e+01
  -4.188526e+01   1.308190e+01
  -3.792089e+01  -2.057614e+01
  -1.144615e+01  -3.150702e+00
  -3.822615e+00   1.558538e+01
  -2.761959e+01  -1.847524e+01
  -5.159266e+01  -7.389916e+01
  -2.631452e+01  -7.164774e+01
   4.742033e+01  -3.409178e+01
   9.773669e+01   3.409345e+01
   1.098925e+02   4.335298e+01
   1.707605e+01   4.895181e+01
  -4.885088e+01   3.169314e+01
  -6.701069e+01  -5.371221e+00
  -1.712858e+01  -9.088097e+00
   2.408285e+01  -1.956608e+01
   1.615358e+01  -1.172980e+01
  -1.006412e+01   5.375078e+00
   2.033519e+00   3.368515e+00
   5.150076e+01  -7.046814e+00
   7.858964e+01   7.811147e+00
   2.546602e+01   6.354804e+01
  -7.674929e+01   1.009526e+02
  -1.545214e+02   1.016838e+02
  -1.198158e+02  -3.591575e+01
  -5.133935e+01  -1.232348e+02
   5.510724e+01  -1.224346e+02
   9.223074e+01  -6.887238e+01
   6.641913e+01   2.547474e+00
   2.277676e+01   2.985024e+01
   5.795730e+00   1.055617e+01
   1.380590e+01   5.603634e+00
   2.924978e+01   4.424272e+01
   2.467590e+01   7.616783e+01
  -2.416741e+01   6.646437e+01
  -5.992496e+01  -5.848018e+00
  -7.331436e+01  -5.374833e+01
  -2.536579e+01  -1.038384e+02
   5.394969e+01  -2.924109e+01
   8.326869e+01   3.129089e+01
   4.044404e+01   8.285454e+01
  -4.935610e+01   5.607162e+01
  -9.248243e+01   1.356137e+00
  -3.929890e+01  -3.984561e+01
   1.484326e+01  -5.815289e+01
   3.042183e+01  -2.837272e+01
  -1.875237e+01   8.901684e+00
  -5.548001e+01   1.460056e+01
  -1.960189e+01  -1.879536e+01
   5.655241e+01  -6.441168e+01
   9.601347e+01  -6.448773e+01
   6.737982e+01   1.373779e+01
   4.171208e+00   6.573233e+01
  -3.850810e+01   8.190454e+01
  -4.049921e+01   1.707095e+01
  -1.470249e+01  -4.481241e+01
   9.803388e+00  -4.305507e+01
   3.838123e+01  -3.413354e+00
   2.327269e+01   4.224570e+01
   4.607824e+00   3.459795e+01
  -2.582319e+01   8.051356e-01
  -3.880398e+01  -1.264180e+01
  -1.907884e+01  -3.591233e+00
   6.552514e+00   1.691274e+01
   4.945433e+00   9.286823e+00
  -8.357806e+00  -2.053637e+01
  -1.126456e+01  -4.112674e+01
   2.097867e+01  -2.607187e+01
   3.425543e+01   1.913569e+01
   2.004857e+01   5.254540e+01
  -3.727316e+01   1.684822e+01
  -5.293098e+01  -1.649243e+01
  -1.792548e+01  -4.306418e+01
   4.278970e+01  -3.314157e+01
   8.477686e+01   1.680945e-01
   4.676432e+01   3.077810e+01
  -1.951134e+01   5.049700e+01
  -5.286599e+01   2.820673e+01
  -2.239885e+01   1.019522e+01
   2.215614e+01  -5.427966e+00
   2.672589e+01   8.114575e-01
  -1.573915e+01   1.734784e+01
  -4.911980e+01   2.545380e+01
