
 $NMID
 id='ANONYMOUS ', fmtdat='(2E16.6)'
 volume=1.0
 tramp=1.0
 $END
   2.806700e+03  -7.648867e+01
   2.236600e+03   1.138737e+03
   2.651543e+02   1.599164e+03
  -8.687222e+02   1.015141e+03
  -7.634574e+02   1.370731e+02
  -6.870759e+01  -8.648727e+01
   2.323230e+02   8.285508e+01
   4.637193e+01   2.672822e+02
  -3.150416e+02   4.226676e+02
  -5.342438e+02   1.700391e+02
  -2.717705e+02  -3.529996e+02
  -1.049991e+02  -4.431125e+02
   2.445272e+02  -2.057187e+02
   2.110447e+02   3.329647e+02
  -4.989162e+01   3.968472e+02
  -3.004172e+02   1.201675e+02
  -3.259767e+02  -4.035474e+02
   3.643849e+01  -5.918162e+02
   3.465831e+02  -2.418525e+02
   4.303577e+02   5.654344e+01
   1.090019e+02   2.512019e+02
  -8.925625e+01   1.990829e+02
  -3.938053e+01   9.239936e+01
   1.495196e+02   9.886980e+01
   2.813584e+02   1.974856e+02
  -5.211676e+00   2.804650e+02
  -4.021646e+02   1.354283e+02
  -5.394654e+02  -1.159430e+02
  -2.368193e+02  -2.968439e+02
   2.379843e+02  -2.232704e+02
   4.562750e+02   8.889269e+01
   1.442210e+02   3.437525e+02
  -1.793374e+02   2.255249e+02
  -3.544377e+02   1.156996e+02
  -2.683762e+02  -1.280592e+02
  -1.230746e+02  -2.396046e+02
   4.623866e-01  -1.230954e+02
  -2.914284e+01   7.544159e+01
  -1.505785e+02   1.066885e+02
  -1.971331e+02  -1.375523e+02
  -2.644157e+00  -4.329328e+02
   1.458464e+02  -4.525216e+02
   2.745489e+02   7.676071e+01
   6.939258e+01   2.263689e+02
  -1.126496e+02   1.185872e+02
  -8.515666e+01  -2.088430e+02
   8.086743e+01  -3.651606e+02
   3.969022e+02  -6.470343e+01
   3.929304e+02   3.401529e+02
   1.582821e+02   3.680882e+02
  -2.318061e+02   2.663847e+02
  -3.784352e+02  -5.425563e+01
  -3.151510e+02  -2.401068e+02
  -1.546778e+01  -1.768237e+02
   2.018465e+02  -6.143595e+01
   1.534704e+02  -2.186762e+00
   1.147794e+01   1.747809e+00
  -3.945044e+01  -2.195536e+01
   5.219271e+01  -3.527675e+01
   1.526969e+02  -1.076905e+01
   9.144462e+01   1.211686e+02
  -1.096748e+02   2.175273e+02
  -3.013385e+02   1.559787e+02
  -2.087733e+02  -5.824313e+01
  -3.183076e+01  -2.651160e+02
   2.561824e+02  -3.286338e+02
   3.199901e+02  -1.086963e+02
   1.861615e+02   1.356273e+02
   2.354501e+01   3.132205e+02
  -1.584028e+01   2.305255e+02
  -1.152679e+01   1.798285e+02
  -6.850039e+00   9.788532e+01
  -1.250992e+02   1.041136e+02
  -2.447161e+02   3.875764e+01
  -1.846007e+02  -1.195179e+02
  -1.060381e+02  -2.003907e+02
   7.183239e+01  -1.545327e+02
   2.069286e+02   1.724098e+01
   1.134707e+02   1.505018e+02
  -4.448510e+01   1.920417e+02
  -1.992014e+02   3.727591e+01
  -2.583103e+02  -1.172456e+02
  -1.647593e+02  -1.899175e+02
   5.410119e+01  -2.202708e+02
   1.233953e+02  -1.068792e+02
   1.222682e+02  -8.858316e+01
   1.330000e+02  -8.479846e+01
   2.443920e+02  -5.863155e+01
   3.935521e+02   5.909569e+01
   2.649102e+02   1.753853e+02
   3.471059e+01   3.802036e+02
  -2.905914e+02   3.084954e+02
  -4.397242e+02   2.115107e+02
  -3.119644e+02  -3.169713e+01
  -3.400042e+01  -2.137578e+02
   5.771338e+01  -1.812724e+02
   3.087960e+00  -2.081640e+01
  -1.037437e+02   8.809414e+00
  -1.160059e+02  -6.646096e+01
  -4.596253e-01  -1.475801e+02
   1.194755e+02  -8.037999e+01
   1.008344e+02   3.126353e+01
  -2.084963e+01   1.176266e+02
  -1.277652e+02  -1.678967e+01
  -1.264842e+02  -1.709238e+02
   6.088451e+00  -2.787238e+02
   2.094005e+02  -1.934519e+02
   2.967011e+02   2.465798e+01
   2.961078e+02   1.788131e+02
   7.299467e+01   2.188220e+02
  -1.226997e+02   1.276697e+02
  -1.129630e+02  -5.417379e+00
  -2.523010e+01  -1.201172e+01
   4.715988e+01   5.157133e+01
  -6.014178e+00   9.387468e+01
  -9.163057e+01   5.202161e+01
  -1.326565e+02  -3.917048e+01
  -3.200775e+01  -4.569179e+01
   6.659923e+01   1.833643e+00
   4.551951e+01   7.878464e+01
  -1.238083e+02   1.009208e+02
  -2.714764e+02   2.053814e+01
  -2.516061e+02  -1.062720e+02
  -4.586100e+01  -2.338302e+02
   1.840303e+02  -1.742785e+02
   2.036639e+02  -9.857071e+01
   9.665728e+01   2.173507e+01
  -1.725982e+01   6.406354e+01
  -4.249507e+01  -1.003285e+01
   5.061805e+01  -6.704507e+01
   1.522558e+02  -2.048578e+01
   1.731663e+02   8.246034e+01
   6.991494e+01   1.387001e+02
  -7.763909e+01   1.040941e+02
  -7.813211e+01   1.144204e+01
  -3.932006e+01  -2.181018e+01
   3.603899e+01   1.660256e+01
   3.515729e+01   1.043854e+02
  -5.912731e+01   1.280843e+02
  -1.592396e+02   3.220776e+01
  -1.458494e+02  -1.026217e+02
  -1.647089e+01  -1.776471e+02
   1.185978e+02  -1.249231e+02
   1.364645e+02  -2.995386e+01
   3.851043e+01   7.891414e+01
  -3.541370e+01   7.406845e+01
  -6.333184e+01   2.316726e+01
   1.053128e+00  -2.366474e+01
   4.206623e+01  -1.101507e+01
  -4.120999e+00   2.606330e+01
  -8.202939e+01   4.765175e+00
  -8.491494e+01  -7.471840e+01
  -3.546062e+01  -1.456876e+02
   1.280470e+02  -1.368843e+02
   2.146970e+02  -2.304148e+01
   1.630700e+02   1.190772e+02
   4.094914e+01   1.689666e+02
  -7.433751e+01   1.324234e+02
  -1.063795e+02   4.641483e+01
  -5.800304e+01  -4.465330e+01
  -3.087833e+01  -2.167047e+01
  -4.209349e+01   1.559386e+01
  -8.851978e+01   1.618697e+01
  -5.783408e+01  -5.513284e+01
   2.222587e+01  -1.045902e+02
   9.536332e+01  -6.082610e+01
   1.040251e+02   2.138191e+01
  -6.616340e+00   1.204379e+02
  -1.203900e+02   8.800331e+01
  -1.922581e+02  -8.377013e+01
  -5.684856e+01  -2.128853e+02
   9.709282e+01  -1.811862e+02
   2.038670e+02  -6.377909e+01
   1.974467e+02   6.076890e+01
   7.838025e+01   1.348349e+02
  -1.802687e+01   1.190579e+02
  -8.493751e+01   6.009280e+01
  -5.946179e+01   7.184765e+01
  -2.659705e+01   7.624959e+01
  -6.599908e+01   7.556016e+01
  -1.175587e+02  -1.339859e+01
  -1.132179e+02  -1.087794e+02
  -2.855438e+01  -2.085743e+02
   7.386786e+01  -1.549545e+02
   1.559873e+02  -1.395981e+01
   1.177191e+02   1.025482e+02
   1.606585e+01   1.240530e+02
  -6.194131e+01   6.883724e+01
  -5.830718e+01  -1.960769e+01
   3.096504e+00  -4.899075e+01
   2.123645e+01  -3.585700e+01
  -2.101015e+01  -6.814118e+00
  -7.702531e+01  -1.314780e+01
  -4.654192e+01  -3.033294e+01
   5.787605e+01  -3.661696e+01
   1.480217e+02  -1.675837e+01
   1.167475e+02   4.309087e+01
   2.826609e+00   8.950773e+01
  -1.173795e+02   6.844025e+01
  -1.223169e+02   2.046891e+01
  -4.599424e+01  -4.444080e+01
   4.536613e+01  -4.481494e+01
   6.829558e+01   1.706799e+00
   2.638649e+01   6.277488e+01
  -2.819948e+01   5.744750e+01
  -5.872586e+01   1.353691e+01
  -5.929804e+01  -4.179908e+01
  -4.555068e+01  -3.091801e+01
  -5.026578e+01   6.382734e-01
  -5.761757e+01   3.636242e+00
  -4.247861e+01  -5.549523e+01
   2.411871e+01  -1.241875e+02
   1.312061e+02  -1.302046e+02
   1.618592e+02  -4.611558e+01
   1.421615e+02   8.607433e+01
   1.574527e+01   1.211365e+02
  -7.960255e+01   6.779180e+01
  -6.124509e+01  -6.400004e+00
   4.464606e+01  -1.920154e+01
   1.146583e+02   3.265777e+01
   6.157616e+01   9.707355e+01
  -5.380124e+01   1.076816e+02
  -1.731828e+02   3.345723e+01
  -1.153209e+02  -3.807436e+01
  -3.072789e+01  -6.964684e+01
   5.316354e+01  -4.830093e+01
   4.399132e+01  -4.422694e+00
  -3.336666e+01   2.792672e+01
  -8.774466e+01  -7.893703e+00
  -4.697142e+01  -9.063536e+01
   5.680549e+01  -1.360721e+02
   1.292587e+02  -6.278149e+01
   1.035124e+02   6.932998e+01
   2.821761e+01   1.289815e+02
  -6.332961e+01   1.318462e+02
  -8.877208e+01  -6.782389e+00
  -5.331860e+01  -1.015185e+02
   3.807285e+00  -8.942441e+01
   4.780904e+01  -1.343664e+01
   4.492253e+01   2.754870e+01
   1.133206e+01   5.292919e+00
   4.254278e+00  -1.528428e+01
   2.514931e+01   1.370128e+01
   5.632311e+01   7.868864e+01
   4.123148e+01   8.544714e+01
  -4.584605e+01   3.784265e+01
  -1.260131e+02  -2.952467e+01
  -1.105058e+02  -3.890790e+01
  -1.263227e+01  -4.741090e+01
   5.543693e+01  -3.639350e+01
   6.778150e+01  -8.613924e-01
   1.745003e+01   8.532906e+00
  -2.575117e+01   1.863559e+01
  -1.648294e+01   1.221482e+01
   1.075050e+01  -3.375339e+00
  -1.833816e+00  -4.090513e+00
  -5.368362e+01   1.973172e+00
  -7.137456e+01  -3.596312e+00
  -2.636001e+01  -6.405707e+01
   7.659661e+01  -1.168812e+02
   1.552532e+02  -8.025886e+01
   1.216480e+02   4.157017e+01
   3.983123e+01   1.289787e+02
  -5.758156e+01   1.342529e+02
  -8.712048e+01   6.214177e+01
  -6.541756e+01  -9.202516e-01
  -2.294375e+01  -3.067025e+01
  -4.959404e+00  -1.103810e+01
  -1.437977e+01  -5.775497e+00
  -2.344220e+01  -4.039188e+01
  -1.478657e+01  -6.415856e+01
   2.075834e+01  -6.532559e+01
   5.860547e+01   1.235128e+01
   7.817589e+01   6.397598e+01
   1.207811e+01   1.001490e+02
  -5.341837e+01   3.353856e+01
  -9.245946e+01  -4.693337e+01
  -3.848008e+01  -7.635772e+01
   5.162935e+01  -6.213828e+01
   8.191876e+01  -2.216456e-01
   4.372800e+01   4.070575e+01
  -2.241910e+01   5.654793e+01
  -3.374178e+01   3.172784e+01
   1.477293e+01  -6.358978e+00
   6.067226e+01  -5.612667e+00
   2.123929e+01   2.005288e+01
  -4.542848e+01   5.947836e+01
  -1.022320e+02   5.570396e+01
  -6.163872e+01  -1.619386e+01
  -1.931711e+00  -7.191214e+01
   3.102627e+01  -7.425514e+01
   3.572353e+01  -8.798115e+00
   1.488612e+01   3.941862e+01
  -9.551650e+00   4.504601e+01
  -3.539020e+01  -5.319129e+00
  -2.620836e+01  -3.921700e+01
  -1.132540e+00  -3.312871e+01
   2.598589e+01   1.111433e+00
   4.250930e+01   1.694748e+01
   1.843031e+01   4.315056e+00
  -5.143971e+00  -1.546538e+01
  -6.780769e+00  -9.942756e+00
   6.375415e+00   2.577386e+01
   7.353988e+00   4.473025e+01
  -2.041385e+01   2.403782e+01
  -4.182732e+01  -2.221560e+01
  -2.242908e+01  -4.727275e+01
   3.072572e+01  -2.382000e+01
   5.403536e+01   1.669818e+01
   1.593290e+01   4.412891e+01
  -4.614048e+01   3.244125e+01
  -6.504901e+01   2.358549e+00
  -4.814810e+01  -3.575643e+01
   1.780770e+01  -4.512950e+01
   6.244970e+01  -2.344236e+01
   2.269739e+01  -1.093757e+01
  -2.428437e+01   5.407556e+00
  -2.848199e+01  -1.052683e+00
   1.783245e+01  -1.810619e+01
   6.887508e+01  -2.671149e+01
