
 $NMID
 id='ANONYMOUS ', fmtdat='(2E16.6)'
 volume=1.0
 tramp=1.0
 $END
   1.630520e+03   2.253466e+02
   6.647009e+02   1.069889e+03
   1.963392e+02   8.282942e+02
  -2.741839e+02   4.829629e+02
  -2.591172e+02   2.610323e+02
   2.302734e+01   1.576803e+01
   1.490163e+02   1.847498e+02
   2.552208e+01   2.540393e+02
  -3.190809e+02   2.719140e+02
  -3.085463e+02   6.092592e+01
  -2.113727e+02  -2.599190e+02
  -4.278431e+01  -3.619955e+02
   1.332507e+02  -6.125466e+01
   3.605063e+01   2.335121e+02
  -6.325321e+01   3.187839e+02
  -2.185331e+02   6.043371e+01
  -1.215592e+02  -3.734523e+02
   8.389878e+01  -3.307559e+02
   2.297628e+02  -1.340084e+02
   2.224000e+02   5.752000e+01
   9.275635e+01   2.273013e+02
  -2.974205e+00   1.042185e+02
  -7.142979e+01   4.296297e+01
   1.101141e+02   2.972014e+01
   2.160525e+02   2.163504e+02
  -2.422739e+01   2.086261e+02
  -2.704101e+02   9.887170e+01
  -3.294372e+02  -9.123880e+01
  -1.352731e+02  -2.621215e+02
   2.260574e+02  -8.779574e+01
   2.739518e+02   1.462141e+02
   2.316589e+01   1.905982e+02
  -1.643684e+02   2.334490e+02
  -2.560549e+02   5.767790e+01
  -1.416029e+02  -8.160604e+01
  -1.005946e+01  -2.139565e+02
   3.821511e+01  -5.329258e+01
  -9.936060e+00   3.353827e+01
  -1.309849e+02   1.243723e+02
  -1.751311e+02  -4.753350e+01
  -5.953251e+01  -3.066725e+02
   2.149898e+02  -1.873575e+02
   1.333082e+02   9.114061e+01
  -2.668038e+01   2.078192e+02
  -7.752215e+01   2.741875e+01
  -6.369046e+01  -1.479969e+02
   7.162522e+01  -2.101302e+02
   2.470708e+02  -5.592413e+01
   2.910053e+02   1.734229e+02
   5.885698e+01   1.745439e+02
  -1.998795e+02   1.652014e+02
  -2.953361e+02  -3.763430e+01
  -1.290927e+02  -1.430158e+02
   6.228755e+01  -8.323867e+01
   1.798036e+02  -2.802797e+01
   1.017727e+02   2.133799e+01
  -1.121803e+01  -1.308456e+01
  -1.613059e+01  -1.866155e+01
   4.198659e+01  -6.016546e+01
   1.307396e+02   7.292452e+01
   7.870082e+01   1.162782e+02
  -7.172818e+01   1.153230e+02
  -1.447952e+02   8.394971e+01
  -1.187522e+02  -5.693397e+00
  -4.268511e+01  -1.991775e+02
   1.430283e+02  -2.189458e+02
   2.070957e+02  -1.250165e+02
   1.385463e+02   4.737972e+01
  -1.087170e+01   1.924210e+02
  -2.384923e+01   1.911422e+02
   1.090939e+01   6.600608e+01
   2.084426e+01   6.679602e+01
  -6.811774e+01   7.557227e+01
  -1.261494e+02   6.622702e+01
  -1.282048e+02  -3.236480e+01
  -6.559903e+01  -1.909392e+02
   5.308808e+01  -1.216161e+02
   8.458658e+01   2.484485e+01
   5.751016e+01   1.101216e+02
  -7.951634e+00   1.240352e+02
  -1.322268e+02   5.016568e+01
  -1.650584e+02  -1.194298e+02
  -1.321316e+02  -1.872626e+02
   3.630862e+01  -8.175988e+01
   8.859837e+01  -5.125941e+01
   7.238287e+01  -5.696696e+01
   7.447206e+01  -3.481698e+01
   1.838026e+02  -5.975332e+01
   3.108649e+02   1.206570e+00
   1.916889e+02   2.005903e+02
   2.661617e+01   2.650139e+02
  -1.887891e+02   3.147412e+02
  -2.951604e+02   7.043682e+01
  -2.213246e+02  -7.831920e+01
  -2.166596e+01  -1.202054e+02
   7.111258e+01  -1.229065e+02
  -5.024526e+00  -3.824486e+00
  -5.349964e+01   1.911949e+01
  -6.043487e+01  -2.164516e+01
  -3.281970e+00  -7.446719e+01
   1.018126e+02  -4.197662e+01
   6.661022e+01   4.419624e+01
  -2.642540e+01   9.235156e+01
  -8.611003e+01  -3.060338e+00
  -8.303804e+01  -1.067897e+02
   2.254704e+00  -1.474207e+02
   1.177424e+02  -9.960362e+01
   1.662902e+02   1.991564e+01
   1.829124e+02   1.446547e+02
   3.252694e+01   1.570650e+02
  -5.777203e+01   8.613077e+01
  -7.397374e+01  -1.217750e+01
  -1.044563e+01  -1.797918e+01
   2.746283e+01   3.085687e+01
   2.426414e+00   6.660308e+01
  -6.763425e+01   5.769757e+01
  -7.362241e+01  -1.865352e+01
  -1.704020e+01  -4.824602e+01
   4.377666e+01  -4.586849e+00
   2.181662e+01   6.408240e+01
  -8.929967e+01   4.230881e+01
  -1.868714e+02   1.526811e+01
  -1.777177e+02  -7.925024e+01
  -4.220385e+01  -1.216773e+02
   8.586654e+01  -1.391934e+02
   1.393361e+02  -5.393114e+01
   5.719662e+01   2.946092e+01
  -1.752663e+00   6.114807e+01
  -3.351299e+01  -6.433995e+00
   1.736525e+01  -3.235176e+01
   8.663819e+01  -3.739298e+01
   9.702895e+01   7.894407e+01
   4.462029e+01   8.155514e+01
  -4.097240e+01   7.538891e+01
  -5.250938e+01   7.804685e+00
  -1.959401e+01  -3.285448e+01
   2.518210e+01   4.031983e+00
   3.118253e+01   6.594685e+01
  -5.418103e+01   8.223928e+01
  -1.014075e+02   2.041491e+01
  -1.198217e+02  -7.249371e+01
   2.266028e+00  -1.094375e+02
   8.257413e+01  -5.791494e+01
   8.497880e+01   1.313923e+01
   1.571309e+01   4.372124e+01
  -3.005149e+01   4.786068e+01
  -4.010811e+01   4.999945e+00
  -4.947962e-02  -1.165989e+01
   1.357419e+01  -2.392470e+00
   7.101138e-01   1.576291e+01
  -4.471620e+01   9.785150e+00
  -4.903091e+01  -3.035277e+01
  -2.110443e+01  -1.028739e+02
   9.561869e+01  -8.003652e+01
   1.065928e+02  -5.756066e+00
   1.235375e+02   6.446913e+01
   2.770080e+01   1.093497e+02
  -7.056704e+01   5.405810e+01
  -7.306503e+01   1.853672e+01
  -2.780766e+01  -1.676787e+01
  -1.353601e+01  -1.555099e+01
  -3.459344e+01   7.898173e+00
  -4.511933e+01   1.188138e+01
  -1.980941e+01  -2.239089e+01
   1.174217e+01  -5.839888e+01
   6.225989e+01  -3.092278e+01
   6.694883e+01   1.200522e+01
   1.164971e+01   6.193496e+01
  -8.750375e+01   3.846201e+01
  -1.035932e+02  -7.910788e+00
  -4.177293e+01  -9.869573e+01
   5.044663e+01  -1.035843e+02
   1.567059e+02  -6.178124e+01
   1.436323e+02   4.403681e+01
   7.642841e+01   8.361990e+01
  -4.101074e+00   7.682492e+01
  -2.894083e+01   3.813065e+01
  -3.897268e+01   4.077520e+01
  -2.468090e+01   6.359339e+01
  -4.016689e+01   3.702043e+01
  -7.114409e+01   1.444862e+01
  -8.072974e+01  -7.286756e+01
  -1.174250e+00  -9.397330e+01
   4.836977e+01  -7.675134e+01
   1.046065e+02  -1.023650e+01
   4.289042e+01   8.279437e+01
  -2.341810e+00   6.992408e+01
  -2.435433e+01   3.997149e+01
  -2.635416e+01  -8.233215e+00
  -2.181415e+00  -3.302547e+01
   1.201506e+01  -2.926641e+01
  -1.304875e+01  -2.621322e+00
  -4.360211e+01  -5.650088e-01
  -2.502881e+01  -2.769125e+01
   2.948155e+01  -2.786619e+01
   1.159868e+02  -1.160875e+01
   8.877781e+01   2.821212e+01
  -5.544603e+00   5.582604e+01
  -7.687123e+01   4.349006e+01
  -8.603159e+01   1.887325e+00
  -2.823866e+01  -2.975060e+01
   2.472302e+01  -2.589961e+01
   4.060907e+01   1.344958e+01
   1.562735e+01   4.065637e+01
  -2.041569e+01   3.173724e+01
  -3.963772e+01   9.166155e+00
  -2.905800e+01  -2.187353e+01
  -2.757685e+01  -2.624919e+01
  -2.254090e+01   6.156546e-01
  -3.281084e+01   7.737512e+00
  -2.611357e+01  -2.662898e+01
   2.846148e+01  -6.129562e+01
   6.288613e+01  -8.135018e+01
   8.357516e+01  -2.525693e+01
   9.445988e+01   4.646985e+01
   3.910433e+00   7.830117e+01
  -5.047925e+01   3.749353e+01
  -3.801023e+01  -6.797925e+00
   1.942966e+01  -1.518490e+01
   7.408026e+01   1.585058e+01
   2.494223e+01   5.258707e+01
  -4.655961e+01   6.095692e+01
  -9.250643e+01   3.642577e+01
  -6.847876e+01  -3.261699e+01
  -1.736363e+01  -4.758030e+01
   2.668187e+01  -5.003635e+01
   2.529250e+01   3.783289e+00
  -2.103055e+01   1.615185e+01
  -3.444402e+01  -2.050308e+01
  -2.080705e+01  -6.127153e+01
   5.841780e+01  -8.035454e+01
   7.509643e+01  -4.328048e+01
   6.011939e+01   3.800488e+01
   2.764646e+01   1.114437e+02
  -3.035042e+01   1.041554e+02
  -4.693545e+01  -1.070384e+01
  -1.643775e+01  -5.081799e+01
  -5.036227e+00  -4.841008e+01
   3.168081e+01  -1.635327e+01
   2.448516e+01   2.299350e+01
   7.875902e+00   2.721632e+00
   5.260320e+00  -7.067650e+00
   1.851626e+01   8.968832e+00
   1.914484e+01   4.875476e+01
   2.177690e+01   5.424538e+01
  -3.377736e+01   1.942453e+01
  -7.343435e+01  -2.814598e+00
  -8.810597e+01  -2.535892e+01
  -8.274122e+00  -1.628193e+01
   4.275849e+01  -2.003860e+01
   3.335188e+01  -1.233077e+00
   9.214930e+00   3.604042e+00
  -1.779387e+01   9.531766e+00
  -1.400141e+01   9.745114e+00
   4.226063e+00  -2.225075e+00
  -1.580901e+00  -2.209711e+00
  -3.459635e+01  -5.462676e+00
  -6.001782e+01  -8.659886e+00
  -1.191807e+01  -4.175890e+01
   4.804087e+01  -7.859051e+01
   8.643241e+01  -3.562060e+01
   7.610558e+01   9.158256e+00
   2.541583e+01   6.358713e+01
  -3.006096e+01   8.611201e+01
  -6.503868e+01   3.542594e+01
  -4.407952e+01  -2.788995e+00
  -1.307763e+01  -2.118811e+01
  -2.318659e+00  -7.413371e+00
  -8.507930e+00  -3.988965e+00
  -1.635956e+01  -2.314751e+01
  -4.215506e+00  -4.234815e+01
   1.609367e+01  -3.665288e+01
   4.580436e+01  -8.590222e+00
   3.818133e+01   4.642704e+01
   1.240806e+01   5.707437e+01
  -3.712688e+01   2.123434e+01
  -4.707579e+01  -4.610745e+01
  -4.200478e+01  -5.798113e+01
   2.414189e+01  -3.119734e+01
   5.163947e+01  -1.992755e+00
   2.506526e+01   2.548355e+01
  -1.449977e+01   3.806991e+01
  -2.095254e+01   1.351263e+01
   1.249677e+01  -4.271744e+00
   3.312618e+01  -4.515152e+00
   1.072896e+01   1.525152e+01
  -3.858952e+01   3.837768e+01
  -6.913635e+01   3.005106e+01
  -3.430924e+01  -4.455155e+00
   5.896346e+00  -3.860023e+01
   2.649805e+01  -4.489643e+01
   1.659132e+01  -9.438299e+00
   2.794119e+00   2.933523e+01
  -1.072744e+01   2.161249e+01
  -1.694577e+01  -8.653334e+00
  -1.622029e+01  -2.259731e+01
  -4.242478e+00  -1.554164e+01
   1.962838e+01   4.297807e-03
   3.321228e+01   1.669161e+01
   1.315013e+01   2.181865e+00
  -3.858468e+00  -9.302063e+00
  -3.348680e+00  -3.205329e+00
  -1.762820e-02   1.054658e+01
   6.173159e+00   2.880573e+01
  -1.039510e+01   1.250396e+01
  -2.334655e+01  -1.182527e+01
  -3.364616e+00  -2.232498e+01
   1.493863e+01  -1.985422e+01
   3.070150e+01   7.170499e+00
   1.286307e+01   2.899769e+01
  -2.412209e+01   2.240755e+01
  -4.705911e+01   1.908322e+00
  -3.329761e+01  -2.049656e+01
   1.928652e+01  -2.869128e+01
   2.805915e+01  -1.810872e+01
   1.519753e+01  -5.637351e+00
  -1.561960e+01   2.950227e-01
  -1.904839e+01  -1.419402e+00
   7.615216e+00  -8.657311e+00
   4.574910e+01  -5.733803e+00
