
 $NMID
 id='ANONYMOUS ', fmtdat='(2E16.6)'
 volume=1.0
 tramp=1.0
 $END
  -1.210042e+03  -1.470599e+02
  -1.085079e+03  -7.199093e+02
  -1.287033e+02  -7.473313e+02
   4.127851e+02  -7.057649e+02
   3.545901e+02  -1.732085e+02
  -8.098089e+00   1.090807e+02
  -2.340740e+02  -9.189889e+01
  -9.000671e+00  -2.822130e+02
  -5.348297e+00  -2.398167e+02
   3.741997e+02  -1.148498e+02
   3.192838e+02   1.856312e+02
   1.999175e+02   2.681242e+02
  -1.736546e+02   8.918767e+00
  -1.586786e+02  -1.602354e+02
  -1.686908e+01  -2.932004e+02
   1.325055e+02  -3.852942e+01
   1.485882e+02   1.500798e+02
   8.813724e+00   2.582242e+02
  -1.737008e+02   1.878937e+02
  -2.221638e+02   3.990913e+01
  -9.464118e+01  -1.286130e+02
   5.009443e+01  -1.152041e+02
   7.985133e+00  -3.166462e+01
  -9.547623e+01  -5.061870e+01
  -1.464046e+02  -1.013423e+02
  -4.836146e+01  -1.249172e+02
   1.871022e+02  -1.536515e+02
   3.951555e+02   1.091108e+02
   5.628638e+01   1.884460e+02
  -1.267639e+02   1.896526e+02
  -1.131525e+02  -8.466192e+01
  -1.352332e+02  -1.442896e+02
   7.434200e+01  -1.883920e+02
   1.582957e+02  -7.130939e+01
   1.580594e+02   7.497889e+01
   3.495344e+01   9.577278e+01
  -3.037093e+01  -4.173332e+00
  -6.168318e+00  -3.384558e+01
   4.629806e+01  -3.868045e+01
   1.447285e+02   7.054005e+01
   7.874787e+01   1.728156e+02
  -7.156080e+01   1.562913e+02
  -1.714393e+02   5.571980e+01
  -2.050724e+01  -6.884493e+01
   9.308108e+01  -4.490390e+01
   4.618241e+01   9.893181e+01
   1.253172e+01   1.798724e+02
  -2.218064e+02   3.725379e+01
  -1.174274e+02  -1.129124e+02
  -9.664922e+01  -2.183452e+02
   1.388457e+02  -1.654610e+02
   1.684514e+02  -6.648489e+00
   1.284713e+02   1.196837e+02
   1.641750e+01   9.845660e+01
  -1.416346e+02   2.219181e+01
  -6.680961e+01  -1.767681e+01
   1.133580e+01   7.538615e+00
   1.756892e+01   8.175408e+00
  -3.507271e+01   1.477867e+01
  -6.328774e+01  -5.481740e+00
  -6.560901e+01  -9.193591e+01
   3.635643e+01  -1.422103e+02
   9.960822e+01  -7.653847e+01
   1.284181e+02   1.066917e+01
   4.485886e+01   1.724514e+02
  -5.502615e+01   1.770324e+02
  -1.433581e+02   1.369881e+02
  -5.746661e+01  -4.726403e+01
  -3.205479e+01  -1.919583e+02
  -3.712654e+01  -1.434399e+02
  -1.562795e+00  -7.702652e+01
  -3.665809e+01  -6.022832e+01
   4.800200e+01  -5.073426e+01
   7.874985e+01  -5.002414e+01
   1.145233e+02   1.968646e+01
   8.088014e+01   1.170795e+02
  -1.269411e+01   9.522336e+01
  -1.188574e+02  -8.955754e+00
  -1.169443e+02  -1.000880e+02
   7.649443e-01  -9.675688e+01
   7.327409e+01  -4.224489e+01
   1.705393e+02   4.420150e+01
   1.638690e+02   8.050640e+01
  -1.193027e+01   6.677085e+01
  -7.257839e+01   9.660165e+01
  -4.744130e+01   5.511356e+01
  -2.872861e+01   4.781402e+01
  -1.182876e+02   5.092426e+01
  -2.235807e+02   8.745811e+00
  -1.421790e+02  -1.153368e+02
  -2.246248e+01  -2.212524e+02
   1.243200e+02  -2.168874e+02
   1.787249e+02  -1.160417e+02
   1.885733e+02   2.563170e+01
   7.042413e+01   1.324892e+02
  -2.631358e+01   9.512388e+01
  -2.711452e+00   6.996384e+00
   3.268739e+01  -3.237930e+01
   8.066351e+01   1.088358e+01
   1.984383e+00   6.782272e+01
  -4.270357e+01   4.761050e+01
  -5.028045e+01  -2.611338e+01
   7.246724e+00  -6.015957e+01
   8.159459e+01  -2.984426e+01
   4.870407e+01   4.755619e+01
   5.473604e+01   1.655826e+02
  -9.827556e+01   6.851749e+01
  -1.270512e+02  -5.527434e+00
  -1.854548e+02  -9.160814e+01
  -3.857268e+01  -1.213739e+02
   2.484484e+01  -8.760952e+01
   8.707640e+01  -1.121256e+01
   2.417375e+01   1.512661e+01
  -2.770957e+01  -2.252822e+01
  -8.223150e+00  -5.966131e+01
   3.277433e+01  -3.331460e+01
   5.320912e+01   4.862242e+00
   4.649626e+00   2.446448e+01
  -4.452323e+01   1.125476e+01
  -3.874130e+01  -4.048116e+01
   3.375392e+01  -4.681325e+01
   1.366815e+02  -6.039596e+01
   1.327470e+02   2.887229e+01
   6.339272e+01   8.325819e+01
  -7.213492e+01   1.175369e+02
  -9.870468e+01   7.620676e+01
  -5.995780e+01   4.262179e+00
   2.226266e+01  -3.993140e+01
   2.389812e+01  -1.124222e+00
  -1.543995e+01   2.948879e+01
  -8.960517e+01   3.744142e+01
  -7.066610e+01  -3.725991e+01
  -7.993576e+01  -9.270679e+01
   1.318330e+01  -4.450583e+01
   6.726962e+01  -1.608533e+01
   1.445517e+01   4.188033e+00
  -1.664775e+01  -9.329536e+00
  -2.422969e+01  -5.560323e+01
   3.955777e+01  -8.837080e+01
   9.296626e+01  -2.925007e+01
   9.845879e+01   3.630239e+01
   1.743038e+01   8.459111e+01
  -6.510537e+01   8.530105e+01
  -5.027803e+01   2.220500e+01
  -1.282109e+01  -2.563106e+01
   2.844616e+01  -5.537858e+01
   2.192666e+01  -1.759037e+01
   1.162529e+00   5.799104e+00
  -1.323497e+01   9.880029e+00
  -8.237154e-01  -1.267324e+01
   3.288472e+01  -8.264984e+00
   5.034321e+01   1.544990e+01
   3.395663e+01   9.610499e+01
  -4.737546e+01   7.087130e+01
  -1.006232e+02   2.770540e+01
  -1.136791e+02  -1.796333e+00
  -3.249938e+01  -1.028640e+02
   3.252154e+01  -8.891059e+01
   4.444942e+01  -1.956627e+01
   2.583443e+01   1.674366e+01
   1.764086e+01   1.258868e+01
   1.972583e+01  -1.026440e+01
   2.007613e+01  -6.650309e+00
   2.594586e+01   1.260307e+01
  -6.328442e+00   4.946839e+01
  -3.753554e+01   2.414642e+01
  -5.742937e+01  -8.131966e+00
  -2.340367e+01  -4.861844e+01
   5.940711e+01  -4.941020e+01
   1.045062e+02   1.426515e+01
   4.048328e+01   7.712727e+01
  -3.274762e+01   1.236132e+02
  -1.547282e+02   4.752562e+01
  -1.536239e+02  -8.831096e+00
  -5.128379e+01  -6.674061e+01
  -7.752132e+00  -8.874107e+01
   3.307091e+01  -3.616853e+01
   2.396653e+01  -1.220952e+01
   7.533126e+00  -5.713512e+01
   4.670869e+01  -3.431250e+01
   5.217151e+01  -9.441412e+00
   8.184458e+01   7.138545e+01
   1.878584e+01   1.044248e+02
   3.821226e-01   6.978797e+01
  -7.657681e+01   2.388924e+01
  -6.266697e+01  -5.292268e+01
  -1.766818e+01  -5.266159e+01
   1.177658e+01  -3.682771e+01
   2.167442e+01  -4.629195e+00
   9.391568e-01   2.455359e+01
  -1.143367e+01   2.235869e+01
   2.207120e+01   5.553128e+00
   4.074911e+01   3.576510e+00
   2.541740e+01   1.513467e+01
  -1.492550e+01   2.896272e+01
  -9.228307e+01   2.242643e+01
  -8.008728e+01   2.901562e+00
  -1.799238e+01  -3.060767e+01
   7.509840e+01  -6.029234e+01
   6.442925e+01  -4.686524e+00
   2.780180e+01   2.360487e+01
  -2.403935e+01   2.711916e+01
  -4.117238e+01   2.811693e+00
  -2.154711e+01  -2.721686e+01
   2.008909e+01  -4.610992e+01
   2.693824e+01  -1.079946e+01
   2.588097e+01   1.430714e+01
   2.354081e+01   8.464674e+00
   2.836852e+01  -2.113859e+00
   3.084150e+01  -3.662807e+00
   3.211346e+01   1.582203e+01
  -1.370038e-01   5.072147e+01
  -5.031142e+01   4.864009e+01
  -5.627216e+01   2.251936e+01
  -7.203781e+01  -4.173775e+01
  -1.835547e+01  -5.489921e+01
   3.778463e+01  -3.719343e+01
   2.119511e+01  -4.185050e-01
  -2.499746e+01   1.447020e+01
  -6.101564e+01  -8.444679e+00
  -1.285318e+01  -3.653044e+01
   2.133489e+01  -6.086209e+01
   5.360324e+01  -4.942440e+01
   4.563972e+01   2.317250e+00
   2.211565e+01   2.182262e+01
  -1.535517e+01   2.972288e+01
  -1.857172e+01   2.452417e+00
   1.461767e+01  -1.553589e+01
   3.161350e+01  -1.103285e+01
   3.841089e+01   2.865394e+01
  -2.465343e+01   6.063248e+01
  -6.734279e+01   4.590918e+01
  -6.137280e+01  -2.179544e+01
  -3.243835e+01  -9.640390e+01
   1.782270e+01  -6.995456e+01
   3.572491e+01  -6.982003e+00
   3.163349e+01   4.537808e+01
   4.550366e+00   4.870542e+01
  -1.455842e+01   1.588513e+01
  -2.167452e+01  -1.138258e+01
  -6.803665e+00  -3.219348e+00
  -3.335397e+00   7.239144e+00
  -1.552880e+01  -7.480333e+00
  -2.041440e+01  -3.256405e+01
  -2.723648e+01  -3.165934e+01
   1.639204e+01  -2.005007e+01
   4.987413e+01  -5.016281e-01
   6.280400e+01   1.174456e+01
   1.274555e+01   1.251695e+01
  -2.895541e+01   1.463939e+01
  -2.574066e+01   3.922458e+00
  -1.039220e+01  -2.204895e+00
   7.896425e+00  -9.248396e+00
   1.011064e+01  -6.651881e+00
  -4.477908e+00   2.114855e+00
   6.967474e-01   1.622497e+00
   3.837603e+01  -4.071040e+00
   4.551632e+01  -7.338572e+00
   2.629213e+01   2.750495e+01
  -4.058067e+01   7.375950e+01
  -9.600804e+01   5.259359e+01
  -8.894647e+01  -2.516982e+01
  -2.366561e+01  -6.252152e+01
   1.018937e+01  -7.008112e+01
   5.088278e+01  -3.261532e+01
   4.044915e+01  -5.954663e+00
   1.597731e+01   1.639146e+01
   2.962990e+00   5.445135e+00
   7.398298e+00   2.909666e+00
   1.614916e+01   1.893261e+01
   5.123466e+00   4.140254e+01
   5.438286e+00   4.129757e+01
  -3.989146e+01  -7.199650e-02
  -4.571986e+01  -3.501500e+01
  -1.569337e+01  -3.428122e+01
   3.249791e+01  -1.478205e+01
   5.055876e+01   2.504747e+01
   2.979695e+01   3.539304e+01
  -1.842796e+01   3.856661e+01
  -4.440959e+01   1.519137e+01
  -2.453005e+01  -1.339415e+01
   1.153565e+01  -3.750646e+01
   1.090899e+01  -1.258282e+01
  -1.104693e+01   5.449561e+00
  -3.667570e+01   1.285245e+01
  -1.236278e+01  -8.767981e+00
   3.430402e+01  -3.500665e+01
   5.285710e+01  -3.520641e+01
   2.855483e+01   6.564066e-02
   1.173727e+01   3.631786e+01
  -7.777834e+00   5.206438e+01
  -2.227867e+01   1.214780e+01
  -9.037056e+00  -1.932221e+01
   3.821138e-01  -2.765223e+01
   1.528044e+01   1.724057e+00
   2.130784e+01   9.696615e+00
   2.918003e+00   1.565017e+01
  -9.707161e+00  -5.939745e-01
  -2.082547e+01  -8.233238e+00
  -9.052673e+00  -1.788606e+00
   2.491825e+00   8.480627e+00
   5.707703e+00   2.009001e+00
  -1.700044e+00  -1.236051e+01
  -5.182215e+00  -2.160671e+01
   6.164763e+00  -1.559100e+01
   1.841561e+01   1.640296e+01
   1.251322e+01   2.484810e+01
  -1.082309e+01   8.374990e+00
  -3.539503e+01  -8.218550e+00
  -1.598533e+01  -2.289461e+01
   2.058592e+01  -1.722668e+01
   4.165064e+01  -1.901105e+01
   2.360540e+01   1.163458e+01
  -7.879181e+00   1.897231e+01
  -2.090157e+01   1.518217e+01
  -1.274318e+01   8.035482e+00
   7.972419e+00  -4.768525e+00
   1.022491e+01  -4.145486e+00
  -9.562098e+00   9.377443e+00
  -2.671931e+01   9.905235e+00
