
 $NMID
 id='ANONYMOUS ', fmtdat='(2E16.6)'
 volume=1.0
 tramp=1.0
 $END
  -2.943854e+03  -5.956900e+02
  -1.339615e+03  -2.271198e+03
   7.939151e+02  -2.139793e+03
   1.836600e+03  -6.986054e+02
   7.806647e+02   3.939889e+02
  -4.682585e+02   3.485228e+02
  -5.480141e+02  -4.884537e+02
   1.436241e+02  -7.711422e+02
   6.398958e+02  -5.234687e+02
   7.555946e+02   1.652713e+02
   3.551732e+02   7.213546e+02
  -2.170954e+02   6.459794e+02
  -4.840668e+02   7.493973e+01
  -1.820577e+02  -5.979670e+02
   3.343745e+02  -4.797407e+02
   4.615597e+02   5.094987e+01
   1.184221e+02   4.475588e+02
  -2.032525e+02   4.475386e+02
  -3.922156e+02   4.377057e+01
  -2.901981e+02  -2.390257e+02
   3.021888e+01  -3.173241e+02
   1.911042e+02  -1.925934e+02
   1.616373e+02   3.164177e+00
  -9.996708e+01   3.051676e+01
  -2.616132e+02  -1.938136e+02
  -5.755832e+01  -3.055230e+02
   4.496307e+02  -2.536365e+02
   5.717381e+02   1.496976e+02
   2.295528e+02   4.977265e+02
  -3.656666e+02   2.779408e+02
  -6.011141e+02  -7.000788e+01
  -2.659172e+02  -4.304134e+02
   2.539458e+02  -2.937513e+02
   3.605834e+02  -1.437016e+02
   2.436999e+02   1.843297e+02
   2.719024e+01   3.810437e+02
  -1.263064e+02   2.059226e+02
  -9.460378e+01  -1.634851e+02
   2.082323e+02  -3.113812e+02
   2.878726e+02   5.998362e+01
   1.595099e+02   5.308386e+02
  -3.403367e+02   4.543002e+02
  -4.053247e+02   2.610662e+01
  -1.703526e+02  -3.404556e+02
   2.048560e+02  -1.864578e+02
   3.033536e+02   3.632304e+02
  -8.805100e+01   3.604843e+02
  -4.571088e+02   6.495808e+01
  -4.234993e+02  -3.151037e+02
  -1.432960e+02  -4.858377e+02
   3.556936e+02  -1.643050e+02
   5.288067e+02   9.509509e+01
   2.475778e+02   3.183801e+02
  -1.416216e+02   2.961835e+02
  -3.478334e+02  -1.116058e+01
  -1.355571e+02  -1.709842e+02
   7.977702e+01  -7.796479e+01
   1.036793e+02   1.017996e+02
  -1.463411e+02   1.254008e+02
  -2.292989e+02  -9.254246e+01
  -4.071730e+01  -2.390922e+02
   1.886615e+02  -1.648949e+02
   2.845079e+02  -5.701750e+01
   1.890289e+02   8.285370e+01
  -3.293457e+01   2.237955e+02
  -2.335734e+02   2.595995e+02
  -2.972900e+02   9.733566e+01
  -2.268275e+02  -1.404595e+02
  -1.314721e+01  -3.501638e+02
   1.257970e+02  -2.831068e+02
   7.585703e+01  -1.041301e+02
   2.159089e+01  -2.040826e+00
   5.058244e+01  -5.849303e+01
   1.729703e+02  -9.960636e+01
   2.445456e+02   8.280585e+01
   5.753861e+01   2.339827e+02
  -1.010989e+02   1.948175e+02
  -1.934820e+02  -3.146810e+01
  -1.006796e+02  -2.358011e+02
   2.774696e+01  -2.517722e+02
   2.195248e+02  -6.467867e+01
   2.520213e+02   1.816702e+02
   8.537326e+01   3.500003e+02
  -5.691563e+01   2.301421e+02
  -1.735227e+02   1.136712e+02
  -1.364426e+02  -5.011700e-01
  -6.222095e+01   2.528906e+01
  -1.947835e+02   3.126647e+01
  -2.870526e+02  -1.307205e+02
  -2.111500e+02  -2.423643e+02
   7.546573e+01  -3.605732e+02
   3.544094e+02  -2.812400e+02
   3.558345e+02  -6.416250e+01
   2.813859e+02   1.108383e+02
  -5.927616e+00   2.347121e+02
  -1.351608e+02   1.562616e+02
  -6.547021e+01   1.112189e+01
   8.345793e+01  -7.872879e+01
   1.592655e+02   3.594690e+01
   1.340120e+00   1.216950e+02
  -1.304008e+02   9.487951e+01
  -1.180239e+02  -6.780498e+01
   4.417754e+01  -1.539146e+02
   1.479946e+02  -4.292809e+00
   1.109226e+02   1.962614e+02
  -4.219862e+01   2.996574e+02
  -1.874613e+02   1.625066e+02
  -2.442332e+02  -4.434000e+01
  -2.105390e+02  -2.316032e+02
  -5.518720e+01  -2.189764e+02
   8.877698e+01  -1.001703e+02
   1.445252e+02   4.868200e+00
   3.485263e+01   4.111501e+01
  -4.399101e+01  -4.513205e+01
  -4.551610e+00  -1.116588e+02
   1.134910e+02  -6.784298e+01
   1.471966e+02   2.318620e+01
   3.412002e+01   7.028881e+01
  -8.422592e+01   1.759323e-01
  -2.397964e+01  -6.049859e+01
   9.345018e+01  -5.061782e+01
   2.210044e+02   4.617501e+01
   1.869927e+02   1.563404e+02
   4.817887e+01   2.373141e+02
  -1.778122e+02   2.449789e+02
  -2.701108e+02   5.419207e+01
  -1.239651e+02  -7.265336e+01
   3.167660e+01  -9.234666e+01
   8.162154e+01  -3.567847e+00
  -4.097363e+01   9.207025e+01
  -1.849207e+02   2.552761e+01
  -1.322116e+02  -8.693411e+01
  -9.546867e+00  -1.605866e+02
   7.942814e+01  -1.161652e+02
   1.095757e+02  -1.226953e+01
   5.108083e+01   3.803738e+01
  -1.813159e+01  -6.105313e-01
  -7.800565e+00  -6.252570e+01
   8.768670e+01  -7.022381e+01
   1.603330e+02   4.033463e+00
   1.277216e+02   1.193656e+02
  -2.110242e+01   2.064989e+02
  -1.506781e+02   1.177526e+02
  -1.312499e+02   7.433364e+00
  -4.975782e+01  -1.006434e+02
   7.032609e+01  -9.559602e+01
   6.741681e+01  -2.455775e+01
   1.371279e+01   2.633718e+01
  -1.819449e+01   1.736273e+01
   5.778435e+00  -7.779396e+00
   5.706859e+01   1.699167e+01
   6.252039e+01   7.843199e+01
  -2.071476e+01   1.400966e+02
  -1.092808e+02   1.183130e+02
  -1.819925e+02   1.694135e+01
  -1.497604e+02  -1.462273e+02
   1.088920e+01  -2.006966e+02
   8.874086e+01  -1.110768e+02
   9.437322e+01   2.787130e+00
   5.973466e+01   5.000276e+01
   1.861683e+01   3.206062e+01
   4.112669e+01   6.661775e-01
   6.182760e+01  -6.790166e+00
   3.164539e+01   4.106167e+01
  -3.593809e+01   7.299814e+01
  -7.949529e+01   4.311198e+01
  -5.825603e+01  -4.500619e+01
   2.293648e+01  -9.984404e+01
   1.124042e+02  -5.720529e+01
   1.468238e+02   5.589394e+01
   8.034985e+01   1.610080e+02
  -1.182984e+02   1.879811e+02
  -2.368371e+02   4.779388e+01
  -1.865296e+02  -9.950391e+01
  -7.312397e+01  -1.557009e+02
   7.075318e+01  -1.322888e+02
   7.479736e+01  -6.043474e+01
   6.235889e+01  -5.296615e+01
   6.586537e+01  -7.664412e+01
   8.556621e+01  -5.354098e+01
   1.141324e+02   3.191389e+01
   7.639568e+01   1.532823e+02
   1.065774e+01   1.714407e+02
  -7.824353e+01   1.062299e+02
  -1.308567e+02  -6.072904e+00
  -9.049634e+01  -8.921303e+01
  -3.358018e+01  -1.282918e+02
   7.011436e+01  -6.185156e+01
   4.767878e+01   3.038838e+00
   2.047997e+00   2.886540e+01
  -1.581203e+01   3.091434e+01
   2.438481e+01   1.584027e+01
   6.351377e+01   2.653421e+01
   3.099524e+01   2.837463e+01
  -4.480376e+01   1.989246e+01
  -1.368974e+02  -7.011135e+00
  -1.045061e+02  -7.182406e+01
  -3.319619e+00  -6.861825e+01
   9.539349e+01  -4.589565e+01
   1.210102e+02   2.115211e+01
   3.613064e+01   2.842539e+01
  -5.260930e+01   2.461719e+01
  -5.859203e+01  -3.240135e+01
   3.062474e+00  -5.546172e+01
   4.883368e+01  -3.778641e+01
   5.400122e+01   7.539339e+00
   3.842619e+01   3.385358e+01
   2.277383e+01   3.592615e+01
   4.354478e+01   6.147663e+00
   6.177072e+01   2.206882e+00
   2.076075e+01   6.253299e+01
  -2.894884e+01   1.023463e+02
  -9.397466e+01   8.774580e+01
  -1.310445e+02   3.246789e+01
  -9.230126e+01  -7.476657e+01
  -5.693182e+00  -1.161322e+02
   7.431623e+01  -4.013645e+01
   3.709199e+01   1.791821e+01
  -5.947694e+01   2.001991e+01
  -1.031510e+02  -3.964119e+01
  -5.526659e+01  -8.477852e+01
   9.335373e+01  -8.473510e+01
   1.630800e+02  -2.626517e+01
   1.158785e+02   3.154753e+01
   1.554786e+01   7.625184e+01
  -5.135395e+01   4.913037e+01
  -4.038613e+01  -2.199821e+00
   3.158986e+01  -1.823895e+01
   6.248542e+01   1.959774e+01
   1.540692e+00   8.638376e+01
  -8.297467e+01   1.267304e+02
  -1.415065e+02   3.199389e+01
  -9.250512e+01  -9.417032e+01
   1.464749e+01  -1.688959e+02
   9.138922e+01  -1.107381e+02
   8.508841e+01   1.724436e+01
   3.249366e+01   8.413462e+01
  -5.102635e+00   7.796894e+01
  -3.701293e+01   1.155092e+01
  -3.203543e+01  -2.482488e+01
  -1.478643e+01  -9.936913e+00
  -4.375437e+00   1.350562e+01
  -2.117259e+01  -1.827686e+01
  -2.176724e+01  -5.865154e+01
  -2.148075e+01  -9.278250e+01
   3.281564e+01  -2.953191e+01
   1.250413e+02   3.020814e+01
   9.036704e+01   7.598246e+01
   1.381692e+01   4.322697e+01
  -8.033446e+01   5.127697e+00
  -6.298844e+01   2.843642e+00
  -5.461507e+00  -8.599190e+00
   3.210974e+01  -1.710683e+01
   1.433204e+01  -1.273645e+01
  -1.593946e+01  -5.721442e-01
   4.172556e+00   7.687458e+00
   5.286872e+01   1.306287e+01
   6.499891e+01   2.522887e+01
  -9.009434e+00   5.303940e+01
  -1.023688e+02   6.713217e+01
  -1.478158e+02   2.201027e+01
  -1.303319e+02  -5.729636e+01
  -2.182778e+01  -1.382100e+02
   8.698884e+01  -1.273668e+02
   9.086963e+01  -4.539126e+01
   6.278373e+01   3.034630e+01
   1.152999e+01   2.869954e+01
  -2.046496e+00   5.815282e+00
   8.159605e+00   4.512870e+00
   2.230178e+01   3.494089e+01
   1.072933e+01   5.934246e+01
  -3.504640e+01   5.271794e+01
  -6.422579e+01  -2.246518e+01
  -4.958562e+01  -9.945523e+01
   3.771940e+00  -7.660773e+01
   5.429078e+01  -1.211811e+01
   5.498446e+01   6.097366e+01
   2.080609e+01   8.271054e+01
  -5.425703e+01   4.091660e+01
  -7.734132e+01  -1.570359e+01
  -2.568447e+01  -4.702686e+01
   2.821709e+01  -3.447724e+01
   2.790246e+01  -2.312759e+01
  -2.616530e+01  -8.677310e-01
  -5.874898e+01   1.107474e+00
  -8.625597e+00  -2.210427e+01
   6.656081e+01  -4.157627e+01
   9.470589e+01  -3.151286e+01
   5.044407e+01   7.069406e+00
  -2.409655e+01   7.847813e+01
  -5.165112e+01   5.532176e+01
  -3.069333e+01   1.214661e+00
   3.258002e+00  -3.989469e+01
   2.678375e+01  -2.752193e+01
   2.635321e+01   1.298560e+01
   1.412166e+01   4.449473e+01
  -4.536670e+00   2.475621e+01
  -2.411894e+01  -6.301336e+00
  -2.392064e+01  -1.996596e+01
  -1.733298e+01  -2.023149e+00
  -7.810777e-01   9.753751e+00
   4.792997e+00  -2.290974e+00
   6.836500e+00  -3.119206e+01
   1.546173e+01  -3.103410e+01
   2.793972e+01  -6.449878e+00
   2.496464e+01   3.526226e+01
  -5.374765e+00   5.535118e+01
  -3.568658e+01   1.864870e+01
  -4.531601e+01  -3.424916e+01
  -9.846098e+00  -4.991977e+01
   5.250894e+01  -2.601464e+01
   6.975339e+01   2.785317e+01
   3.604283e+01   3.845727e+01
  -2.355894e+01   2.636904e+01
  -4.652503e+01   1.749982e+01
  -1.813645e+01   4.554915e+00
   2.466045e+01   6.301759e+00
   3.152350e+01   1.263245e+01
  -2.406552e+01   1.829613e+01
  -6.491706e+01   5.736151e+00
