
 $NMID
 id='ANONYMOUS ', fmtdat='(2E16.6)'
 volume=1.0
 tramp=1.0
 $END
   9.617925e+02   2.089534e+02
   7.308641e+02   8.898306e+02
  -6.051108e+02   1.150173e+03
  -6.565348e+02   3.790371e+02
  -1.158594e+02  -9.302558e+01
   1.825979e+02  -1.637983e+02
   3.793777e+02   2.930744e+02
  -1.207483e+02   1.974040e+02
  -3.467112e+02   2.544373e+02
  -2.354564e+02  -1.518784e+02
  -5.126252e+01  -2.677290e+02
   1.316058e+02  -2.387793e+02
   2.043626e+02   4.743394e+01
   2.200934e+01   1.965817e+02
  -2.037485e+02   2.344977e+02
  -1.734283e+02  -4.129512e+01
   2.953395e+01  -2.366955e+02
   1.605712e+02  -1.272868e+02
   1.189728e+02  -9.641495e+00
   1.326115e+02   1.815571e+02
  -2.748449e+01   1.473905e+02
  -7.865695e+01   1.214462e+02
  -7.332288e+01   1.181023e+01
   5.424481e+01   2.703264e+01
   1.017897e+02   1.407027e+02
   3.932464e+00   1.630404e+02
  -1.783398e+02   9.760707e+01
  -2.729015e+02  -1.536624e+02
  -6.936982e+01  -2.127759e+02
   2.511214e+02  -5.106186e+01
   1.868033e+02   6.313557e+01
   1.026379e+02   8.470568e+01
  -1.933608e+02   1.964321e+02
  -1.496567e+02   1.958594e+01
  -1.223102e+02  -6.469911e+01
   4.842037e+01  -1.439964e+02
   2.656732e+01  -5.836943e+01
  -1.559511e+01   6.698368e+01
  -4.805345e+01   1.328813e+02
  -1.146503e+02  -5.346464e+01
   3.590045e+01  -2.701545e+02
   2.332125e+02  -1.798901e+02
   1.562654e+02   7.799126e+01
   4.834750e+01   1.243333e+02
  -6.991934e+01   5.676421e+01
  -6.131064e+01  -4.986668e+01
   5.308767e+01  -9.509603e+01
   1.966528e+02   1.405021e+00
   5.626842e+01   1.075312e+02
   5.774631e+01   2.442218e+02
  -1.571086e+02   5.638952e+01
  -1.807305e+02  -2.997175e+01
  -8.813009e+01  -1.317068e+02
   4.647328e+01  -1.087366e+02
   1.198663e+02   8.240327e+01
   7.157667e+01   7.834904e+01
  -2.190495e+01   1.702025e+01
  -3.998296e+01  -5.959712e+01
   6.586810e+01  -5.674576e+01
   9.210723e+01   7.608325e+00
   5.090218e+01   1.226996e+02
  -1.382401e+02   4.325615e+01
  -1.025387e+02  -1.094995e+00
  -4.157390e+01  -4.854514e+01
   8.038426e+00  -1.214835e+02
   6.430993e+01  -9.351428e+01
   1.085443e+02  -6.861008e+01
   1.085038e+02   4.331547e+01
   1.236293e+01   1.298929e+02
  -2.810614e+01   5.825093e+01
  -2.452044e+01   2.919365e+01
   2.098064e+00   1.287811e+01
  -2.848123e+01   3.604733e-01
  -6.666718e+01   2.043910e+01
  -5.381167e+01  -3.532531e+01
  -1.650578e+01  -1.062456e+02
   5.892198e+01  -8.164474e+01
   8.863196e+01  -1.804660e+00
   4.655308e+01   1.154008e+02
   1.404713e+00   9.223429e+01
  -8.005263e+01   2.433996e+01
  -7.046728e+01  -1.062517e+02
  -4.282635e+01  -1.546349e+02
   5.919737e+00  -9.515793e+01
   5.918697e+01  -7.776071e+00
   4.931366e+01  -6.258731e+00
   3.220779e+01  -2.136364e+00
   9.112784e+01  -2.517884e+01
   1.903245e+02   7.261632e+01
   7.912971e+01   1.176675e+02
  -9.477096e+01   1.372894e+02
  -2.240705e+02   1.276994e+02
  -1.822747e+02   2.532555e+00
  -1.006696e+02  -1.058124e+02
   6.769592e+00  -1.356568e+02
   8.622534e+01  -5.615777e+01
   3.089734e+01   3.087681e+00
  -4.223973e+01   2.435505e+01
  -4.691406e+01   2.760211e-01
   2.032425e+00  -6.562778e+01
   4.982456e+01  -3.408358e+00
   5.469298e+01   3.948813e+01
  -2.225916e+01   6.008840e+01
  -7.162378e+01  -1.861565e+01
  -4.718341e+01  -5.481835e+01
   5.821228e+01  -1.560519e+02
   7.980980e+01  -3.629508e+01
   7.098539e+01   3.187793e+01
   1.221216e+02   1.303272e+02
  -9.705651e+00   8.970389e+01
  -4.028448e+01   3.058227e+01
  -5.734105e+01   1.544867e+01
  -1.372587e+01  -1.364322e+01
   1.625150e+01   2.535247e+01
  -1.233198e+01   4.380060e+01
  -4.718568e+01   2.788671e+01
  -5.388467e+01  -1.602626e+00
  -8.944423e+00  -3.441359e+01
   3.330398e+01  -3.825115e+00
   1.186501e+01   3.082830e+01
  -4.783891e+01   2.880731e+00
  -9.527719e+01  -5.150492e+01
  -7.021077e+01  -3.562067e+01
  -1.701485e-01  -7.874961e+01
   6.989248e+01  -6.662762e+01
   1.074288e+02  -3.877902e+00
   2.045114e+01   4.342796e+01
  -8.987388e+00   5.011155e+01
  -2.912671e+01  -6.408724e+00
   8.043880e+00  -2.935045e+01
   9.729015e+01   1.442571e+00
   4.583849e+01   5.622607e+01
  -5.486812e+00   8.556507e+01
  -4.805769e+01   5.075557e+01
  -5.503627e+01  -5.491976e+00
  -1.318804e+01  -1.608699e+01
   6.366891e+00  -2.903242e+00
   5.737134e+00   4.374713e+01
  -4.673765e+01   5.387154e+01
  -7.087927e+01   1.013193e+01
  -5.824742e+01  -6.921110e+01
   6.370699e+00  -7.738447e+01
   9.764883e+01  -3.054768e+01
   4.713964e+01   1.760258e+01
   2.380801e+01   3.004803e+01
  -3.509737e+01   4.920473e+01
  -1.879789e+01   7.982765e+00
  -4.519175e+00  -4.301795e+00
   4.268595e+00  -1.076935e+01
  -7.342005e-01   7.667630e-01
  -1.234986e+01  -3.772980e+00
  -3.382982e+01  -2.642158e+01
  -2.917633e+00  -4.715839e+01
   4.706555e+01  -2.671980e+01
   6.487267e+01   7.816490e+00
   6.345120e+01   5.486047e+01
  -1.778462e+00   1.140733e+02
  -5.812214e+01   2.218695e+01
  -5.727828e+01  -3.359252e+00
  -2.152342e+01  -2.384639e+01
  -6.201874e+00  -1.281902e+01
  -1.258714e+01  -4.923670e+00
  -2.174947e+01  -1.062989e+01
  -7.802605e+00  -2.585445e+01
   2.910917e+01  -3.095263e+01
   2.591673e+01  -1.862081e+01
   3.277766e+01   2.833596e+01
   3.510485e+00   2.777922e+01
  -6.244353e+01   2.796659e+01
  -5.173418e+01  -2.913298e+01
  -1.330762e+01  -6.740621e+01
   5.092018e+01  -5.295877e+01
   8.203543e+01   3.277785e+00
   1.057446e+02   7.817561e+01
   2.714683e+01   8.413377e+01
  -3.039890e+01   5.443673e+01
  -1.591020e+01   1.669784e+01
  -2.182545e+01   1.364400e+01
  -3.960800e+01   2.482916e+01
  -5.497861e+01   1.705624e+01
  -3.449028e+01   4.253710e+00
  -1.490490e+01  -7.556884e+01
   1.559918e+01  -6.925433e+01
   3.451228e+01  -3.685639e+01
   3.779001e+01   3.616715e+01
   4.288060e-01   3.143783e+01
  -1.016571e+01   4.241940e+01
  -1.520255e+01   2.655238e+01
  -1.096466e+01  -7.947051e+00
   3.360293e+00  -1.808615e+01
   1.048907e+01  -9.437419e+00
  -1.420004e+01  -1.172488e+01
  -1.887023e+01  -1.643927e+01
  -7.207020e+00  -7.271261e+00
   2.399905e+01  -4.525480e+00
   7.344544e+01   7.114767e+00
   6.099140e+01   1.761381e+01
   7.565144e+00   2.078749e+01
  -4.799945e+01   5.094773e+00
  -5.291080e+01  -7.942997e+00
  -1.371670e+01  -1.843424e+01
   2.471529e+01   6.386665e-01
   1.839193e+01   1.657459e+01
  -3.975738e+00   1.355865e+01
  -2.855176e+01   1.688267e+01
  -1.892629e+01  -1.809695e+00
  -6.904576e+00  -1.078482e+01
  -9.825821e+00  -2.582376e+01
  -1.430182e+01  -1.327591e+01
  -2.571290e+01  -7.315334e-01
  -6.763543e+00  -1.779609e+01
   2.680059e+01  -1.665690e+01
   5.491564e+01  -3.069664e+01
   4.707445e+01  -1.437473e+01
   3.647586e+01   4.220054e+01
  -7.984097e+00   4.059007e+01
  -2.956750e+01   8.027049e+00
  -1.587515e+01  -1.069454e+01
   2.221617e+01  -1.311671e+01
   4.837354e+01   1.728878e+01
   2.303425e+01   2.169933e+01
  -3.601441e+01   2.488599e+01
  -5.827127e+01  -1.954945e+00
  -2.704046e+01  -5.316619e+00
  -1.167915e+01  -2.974564e+01
   2.773981e+01  -2.571906e+01
   2.015708e+01   4.278332e+00
  -8.617469e+00   1.479566e+00
  -1.723159e+01  -7.687421e+00
   1.314828e+00  -3.481265e+01
   2.161591e+01  -5.059477e+01
   5.830551e+01  -1.229822e+01
   4.052945e+01   4.534067e+01
  -9.986178e+00   8.558908e+01
  -4.917487e+01   3.621017e+01
  -3.443400e+01  -1.120876e+01
  -6.612991e+00  -3.092098e+01
   1.390339e+01  -3.860412e+01
   1.987965e+01  -5.426506e+00
   9.235816e+00   1.933297e+01
   5.100455e+00   7.826783e+00
   1.833701e+00  -5.559296e+00
   5.676380e+00   6.136489e+00
  -5.298924e-01   3.199965e+01
   1.806801e+00   4.438306e+01
  -1.903507e+01   1.678810e+01
  -4.675244e+01  -1.914400e+01
  -2.503340e+01  -3.832770e+01
   6.814378e-01  -1.011123e+01
   4.030173e+01   7.399685e+00
   1.837211e+01   6.335153e+00
   2.950936e+00   2.874431e+00
  -9.319301e+00   7.658961e-01
  -5.179311e+00   7.766081e+00
   7.642551e+00   1.626387e+00
  -1.943722e+00  -2.062302e+00
  -2.414108e+01  -9.161634e+00
  -2.528503e+01  -8.818412e+00
  -3.083306e-01  -2.497514e+01
   6.852094e+01  -3.383659e+01
   5.270005e+01   1.208050e+00
   4.084550e+01   4.383291e+01
   4.299543e+00   5.262753e+01
  -5.204778e+01   5.953562e+01
  -3.798875e+01   6.280354e+00
  -2.929404e+01  -2.499019e+01
  -1.482923e+00  -1.736986e+01
   3.069711e-01  -2.350247e+00
  -5.185473e+00  -2.535637e-01
  -5.517859e+00  -1.892145e+01
   1.448096e+01  -2.536110e+01
   2.191220e+01  -1.844516e+01
   2.439174e+01   9.065825e+00
   2.050588e+01   4.437530e+01
  -8.912446e+00   1.862276e+01
  -2.602621e+01   1.970449e+00
  -1.368512e+01  -4.088456e+01
   2.562968e+00  -3.372384e+01
   3.257619e+01  -1.231380e+01
   3.997659e+01   7.411478e+00
   1.072270e+01   2.139056e+01
  -2.136603e+01   1.280269e+01
  -9.749638e+00   9.898582e+00
   1.288502e+01   5.049829e+00
   1.984116e+01   3.966984e+00
   5.957481e-01   8.787517e+00
  -3.649005e+01   1.961232e+01
  -4.375754e+01   1.382295e+01
  -1.734927e+01   1.212847e-01
   8.839264e+00  -1.777789e+01
   4.032011e+01  -1.519982e+01
   8.309842e+00   2.488541e+00
  -5.255575e+00   1.579017e+01
  -1.774214e+01   5.163955e+00
  -6.714719e+00  -2.530482e+00
  -3.839778e-01  -2.121257e+01
   1.080328e+00  -8.371003e+00
   1.142824e+01   6.264510e+00
   9.951822e+00   1.229989e+01
   4.919236e+00   3.163086e+00
   5.919955e-01  -4.071736e+00
  -3.870610e+00   3.916837e-01
  -3.427905e+00   7.423688e+00
  -1.398108e+01   1.242851e+01
  -1.417149e+01  -3.582003e-01
  -8.028553e+00  -1.924599e+01
  -7.365758e-01  -1.586697e+01
   1.708503e+01  -4.393169e+00
   2.386478e+01   1.124683e+01
  -7.884944e+00   1.623433e+01
  -2.417939e+01   9.247269e+00
  -2.211741e+01  -9.246862e+00
  -6.061640e+00  -2.136264e+01
   9.576369e+00  -4.938434e+00
   1.222983e+01   1.056505e+00
   1.068077e+01  -1.380831e+00
  -1.022514e+01  -7.554512e+00
  -1.021265e+01  -6.139406e+00
   9.480843e+00  -7.455196e+00
   3.299987e+01  -1.537361e+00
