
 $NMID
 id='ANONYMOUS ', fmtdat='(2E16.6)'
 volume=1.0
 tramp=1.0
 $END
  -3.171083e+03   4.286453e+01
  -2.216701e+03  -1.819530e+03
   4.449108e+02  -2.451566e+03
   1.833776e+03  -6.686083e+02
   9.905629e+02   9.333559e+01
  -2.383888e+02   3.748426e+02
  -5.050308e+02  -1.009971e+02
  -5.529513e+01  -6.962823e+02
   5.962072e+02  -7.003632e+02
   6.557399e+02   2.373490e+01
   2.847348e+02   6.983478e+02
  -1.255253e+02   7.425162e+02
  -4.070427e+02   1.219369e+02
  -1.392992e+02  -4.744432e+02
   1.784921e+02  -5.417421e+02
   4.311900e+02  -6.436157e+01
   2.999975e+02   4.625834e+02
  -1.204232e+02   6.301183e+02
  -4.530088e+02   1.543415e+02
  -4.002439e+02  -2.356507e+02
  -8.098749e+01  -3.772082e+02
   1.720504e+02  -2.239921e+02
   1.288675e+02  -6.584976e+01
  -1.259692e+02  -1.666403e+01
  -2.391101e+02  -1.920237e+02
  -6.415640e+01  -3.467829e+02
   3.804766e+02  -1.602550e+02
   7.033232e+02   2.049854e+02
   2.945423e+02   3.595464e+02
  -3.040353e+02   2.336479e+02
  -5.054425e+02  -1.253862e+02
  -1.749283e+02  -3.920355e+02
   2.562155e+02  -3.858068e+02
   4.653763e+02  -1.878053e+02
   3.258155e+02   2.054008e+02
   8.728725e+01   3.188894e+02
  -1.000951e+02   2.678134e+02
  -7.096186e+01  -1.278603e+02
   1.097870e+02  -2.690183e+02
   2.855730e+02   8.956218e+01
   1.032283e+02   5.745249e+02
  -2.096193e+02   4.863074e+02
  -4.551035e+02  -4.367059e+01
  -2.075937e+02  -3.895740e+02
   2.174524e+02  -1.903886e+02
   2.612004e+02   2.706606e+02
  -4.949355e+01   4.497226e+02
  -4.299903e+02   9.389194e+01
  -4.847525e+02  -4.081698e+02
  -1.098536e+02  -4.623744e+02
   2.737722e+02  -3.051351e+02
   5.080096e+02   8.486545e+01
   3.381789e+02   2.284113e+02
  -1.284301e+02   2.590403e+02
  -3.498453e+02   6.084423e+01
  -2.081961e+02  -9.428987e+01
   4.333892e+01  -6.000989e+01
   7.950170e+01   7.621472e+01
  -1.368509e+02   9.392804e+01
  -2.562540e+02  -7.711343e+01
  -9.710438e+01  -2.504414e+02
   1.327109e+02  -2.141214e+02
   3.564225e+02  -1.214807e+02
   2.438673e+02   9.197292e+01
  -3.467255e+01   2.750192e+02
  -2.142878e+02   3.194374e+02
  -3.215061e+02   1.182721e+02
  -2.266180e+02  -1.605852e+02
  -4.897499e+01  -3.200246e+02
   6.667623e+01  -2.681109e+02
   4.928640e+01  -1.206870e+02
   3.369115e+01  -6.008405e+01
   7.705787e+01  -7.501749e+01
   2.489267e+02  -8.664953e+01
   2.260812e+02   9.362720e+01
   5.447548e+01   2.158423e+02
  -9.234762e+01   2.055261e+02
  -1.756412e+02  -2.917194e+01
  -1.311908e+02  -2.445433e+02
   9.059636e+01  -2.337063e+02
   2.125525e+02  -6.546170e+01
   2.275419e+02   1.400872e+02
   1.701393e+02   2.787285e+02
  -6.508560e+01   2.784911e+02
  -1.978534e+02   1.094627e+02
  -1.262890e+02   3.159668e+01
  -1.241735e+02   4.740266e+01
  -2.518537e+02   3.065836e+01
  -3.210346e+02  -7.081088e+01
  -3.090626e+02  -2.705331e+02
   3.975335e+01  -3.483142e+02
   3.976545e+02  -3.389264e+02
   3.849630e+02  -1.158823e+02
   2.304488e+02   8.834552e+01
   2.698888e+01   2.507942e+02
  -1.009165e+02   2.103524e+02
  -4.868990e+01   3.423971e+01
   1.083778e+02  -3.909195e+01
   1.247532e+02   3.137835e+01
   5.437039e+01   1.458129e+02
  -1.179902e+02   1.173198e+02
  -1.197925e+02  -4.551516e+01
   1.743104e+01  -1.249483e+02
   1.698791e+02  -1.558227e+01
   1.759089e+02   2.494206e+02
  -2.768902e+01   3.226657e+02
  -2.272334e+02   1.720410e+02
  -3.595788e+02  -9.158743e+01
  -2.704536e+02  -2.154506e+02
  -6.488303e+01  -2.118733e+02
   9.734371e+01  -1.385412e+02
   1.407682e+02  -6.981791e+00
   4.211614e+01   1.072234e+01
  -4.841934e+01  -3.959794e+01
  -1.818660e+01  -9.342570e+01
   1.165803e+02  -9.363993e+01
   1.432438e+02   2.782367e+01
   3.841938e+01   5.051398e+01
  -7.266282e+01  -1.330293e+01
  -4.008177e+01  -6.783810e+01
   1.179788e+02  -6.697925e+01
   2.516815e+02   2.678182e+01
   2.399222e+02   1.343717e+02
   2.536432e+01   2.466921e+02
  -1.827843e+02   2.297658e+02
  -2.458664e+02   8.145774e+01
  -1.361081e+02  -4.192854e+01
   3.288259e+01  -7.755419e+01
   7.005826e+01  -9.066224e+00
  -4.596666e+01   9.722399e+01
  -1.563146e+02   1.572469e+01
  -1.817373e+02  -1.146940e+02
  -4.539267e+01  -1.948014e+02
   9.277143e+01  -1.467860e+02
   1.362940e+02  -1.220815e+01
   5.435004e+01   3.248550e+01
  -2.837827e+01  -1.155146e+01
  -2.176134e+01  -9.074646e+01
   7.023963e+01  -9.275213e+01
   2.032919e+02  -1.158502e+01
   1.503442e+02   1.342157e+02
   5.880415e+00   1.661680e+02
  -1.632928e+02   1.336251e+02
  -1.819044e+02  -2.552154e+01
  -5.302085e+01  -8.955044e+01
   7.758468e+01  -7.827884e+01
   7.265500e+01  -2.639852e+01
   6.410286e+00   1.819939e+01
  -3.318651e+01   1.105106e+01
   1.158363e+01  -1.614338e+01
   6.684294e+01   8.017518e-01
   8.802260e+01   9.995023e+01
   1.991209e+01   1.426938e+02
  -1.119469e+02   1.302292e+02
  -2.357567e+02  -6.840121e+00
  -1.381894e+02  -1.405901e+02
  -3.396574e+01  -1.956585e+02
   8.199098e+01  -1.853081e+02
   1.223264e+02  -4.053039e+01
   7.165305e+01   4.299877e+01
   2.664803e+01   2.996068e+01
   4.981585e+01  -1.613152e+01
   7.875191e+01  -2.342986e+00
   6.732854e+01   5.401701e+01
  -2.906857e+01   9.157873e+01
  -1.009321e+02   3.841005e+01
  -8.262888e+01  -2.485676e+01
   2.661943e+01  -1.152872e+02
   1.549636e+02  -9.332219e+01
   1.835195e+02   4.886245e+01
   8.396554e+01   1.851444e+02
  -1.042972e+02   1.737583e+02
  -2.337627e+02   7.363178e+01
  -2.234480e+02  -8.378406e+01
  -9.202153e+01  -1.675397e+02
   5.272257e+01  -1.097293e+02
   9.635013e+01  -7.023731e+01
   5.848602e+01  -7.767803e+01
   5.522443e+01  -8.305602e+01
   7.359848e+01  -6.991922e+01
   1.111808e+02   1.448874e+01
   8.280442e+01   1.179183e+02
   2.869581e+01   1.805294e+02
  -7.807671e+01   1.713423e+02
  -1.198929e+02   3.387765e+01
  -1.326265e+02  -9.567863e+01
  -4.890908e+00  -1.499073e+02
   6.448780e+01  -7.432365e+01
   5.655417e+01   9.077158e+00
   3.779006e-01   4.918044e+01
  -1.697984e+01   3.293879e+01
   2.437857e+01   1.671687e+01
   7.484801e+01   1.994964e+01
   4.901709e+01   4.224612e+01
  -6.962106e+01   3.576255e+01
  -1.647198e+02  -1.181932e+01
  -1.294398e+02  -5.770201e+01
   1.488828e+00  -8.678174e+01
   1.084767e+02  -5.937139e+01
   1.278988e+02   1.356158e+01
   4.114138e+01   4.236835e+01
  -4.669259e+01   3.073862e+01
  -5.961270e+01  -1.078408e+01
  -1.198453e+01  -6.444275e+01
   5.540840e+01  -5.479180e+01
   6.147764e+01  -2.407734e+00
   4.563777e+01   4.761954e+01
   4.952763e+01   3.836427e+01
   4.769997e+01   4.496853e+00
   6.112442e+01   1.051070e+01
   3.150500e+01   7.326066e+01
  -2.092276e+01   1.283976e+02
  -9.911396e+01   1.205548e+02
  -1.642697e+02   1.097074e+01
  -1.228622e+02  -6.785801e+01
   1.181165e+00  -1.218123e+02
   6.593513e+01  -5.591819e+01
   5.554766e+01   8.520057e+00
  -5.782873e+01   1.188324e+01
  -1.205597e+02  -4.358156e+01
  -6.176279e+01  -8.391695e+01
   6.453455e+01  -9.142930e+01
   1.671866e+02  -6.707260e+01
   1.527429e+02   4.213832e+01
   2.272046e+01   6.953249e+01
  -6.505135e+01   5.729586e+01
  -4.311779e+01  -2.239501e+00
   4.038265e+01  -2.641201e+01
   8.111827e+01   2.022694e+01
   1.964018e+01   1.126771e+02
  -7.115782e+01   1.441358e+02
  -1.421599e+02   5.220956e+01
  -1.282276e+02  -9.864984e+01
  -1.188265e+01  -1.856284e+02
   5.729704e+01  -1.005101e+02
   9.194329e+01   6.750321e+00
   4.698557e+01   1.278078e+02
  -1.765845e+01   9.309360e+01
  -5.037882e+01   1.517687e+01
  -4.411417e+01  -2.654672e+01
  -1.959628e+01  -6.046329e+00
  -5.122306e+00   1.628554e+01
  -2.100958e+01  -1.823728e+01
  -5.890830e+01  -7.232717e+01
  -2.138824e+01  -1.032287e+02
   4.492650e+01  -4.899413e+01
   1.225743e+02   3.540629e+01
   1.011435e+02   6.745318e+01
   2.197701e+01   5.235919e+01
  -6.386639e+01   2.080702e+01
  -9.062086e+01   9.730828e+00
  -1.237925e+01  -1.088873e+01
   3.409072e+01  -1.564068e+01
   1.742657e+01  -1.322173e+01
  -1.606772e+01   4.951440e+00
   2.890455e+00   6.442987e+00
   5.822724e+01  -3.255096e+00
   7.235497e+01   2.850914e+01
   2.605301e+01   7.826840e+01
  -8.140726e+01   1.168033e+02
  -1.873866e+02   3.627177e+01
  -1.387317e+02  -5.954357e+01
  -2.246236e+01  -1.540471e+02
   8.207428e+01  -1.369415e+02
   1.025275e+02  -3.680921e+01
   6.821651e+01   1.767170e+01
   2.649551e+01   3.192371e+01
  -2.285069e+00   9.655943e+00
   1.122566e+01   8.132975e+00
   2.876594e+01   4.775768e+01
   1.393859e+01   8.342616e+01
  -1.934746e+01   6.428581e+01
  -7.266028e+01  -1.117295e+01
  -5.698215e+01  -1.141311e+02
  -1.011862e+01  -1.123169e+02
   7.722188e+01  -3.591138e+01
   1.135066e+02   4.530294e+01
   3.099038e+01   1.021157e+02
  -5.199301e+01   6.465117e+01
  -9.380108e+01  -1.305461e+01
  -3.233079e+01  -4.933364e+01
   2.989006e+01  -4.410429e+01
   3.440748e+01  -2.682764e+01
  -2.775210e+01   4.653630e+00
  -5.955774e+01  -2.314787e+00
  -1.743795e+01  -2.538991e+01
   7.748585e+01  -5.820832e+01
   1.019878e+02  -3.224339e+01
   6.151226e+01   1.774673e+01
  -2.611500e+01   6.810854e+01
  -4.618978e+01   8.239411e+01
  -3.817191e+01   1.044211e+01
  -2.604641e+00  -4.911529e+01
   2.442912e+01  -3.611643e+01
   3.207063e+01   1.028438e+01
   2.812309e+01   4.724176e+01
  -2.028512e+00   3.384643e+01
  -3.519952e+01  -5.983308e+00
  -3.908920e+01  -2.338912e+01
  -1.950320e+01  -1.400111e+00
   3.798521e-01   1.802316e+01
   4.042157e+00   7.408147e+00
   1.519652e+00  -2.867987e+01
  -1.046104e+00  -4.273528e+01
   2.863023e+01  -1.757275e+01
   3.001496e+01   3.375775e+01
   8.904527e+00   5.989936e+01
  -3.935997e+01   2.500776e+01
  -5.251349e+01  -3.618258e+01
  -1.936548e+01  -6.541019e+01
   5.094544e+01  -2.509769e+01
   9.240599e+01   1.272607e+01
   4.456569e+01   3.581280e+01
  -2.143988e+01   3.409464e+01
  -5.814861e+01   2.916698e+01
  -2.654593e+01   5.761457e+00
   3.086071e+01  -4.220783e+00
   3.029427e+01   4.067917e+00
  -2.641502e+01   2.395793e+01
  -8.114468e+01   2.182404e+01
