
 $NMID
 id='ANONYMOUS ', fmtdat='(2E16.6)'
 volume=1.0
 tramp=1.0
 $END
   2.438166e+03   2.070238e+02
   1.656579e+03   1.553385e+03
  -5.990515e+01   2.065678e+03
  -1.497624e+03   9.511405e+02
  -6.080122e+02   1.339063e+01
   7.396140e+01  -1.853430e+02
   6.236531e+02   1.569504e+02
   1.174406e+02   6.780069e+02
  -4.389211e+02   5.797874e+02
  -6.032833e+02   5.958471e+01
  -3.749150e+02  -4.842601e+02
   5.088540e+01  -5.966915e+02
   3.416841e+02  -1.607890e+02
   2.368770e+02   3.907691e+02
  -1.293608e+02   4.943460e+02
  -3.449583e+02   3.520645e+01
  -2.377228e+02  -5.167096e+02
   2.163919e+02  -5.831520e+02
   5.171192e+02  -2.245381e+02
   4.094294e+02   2.917724e+02
   2.953023e+01   3.343616e+02
  -1.568464e+02   2.156583e+02
  -7.688907e+01   7.455858e+01
   7.958413e+01   6.055000e+01
   1.722311e+02   2.336252e+02
   4.588958e+01   2.578680e+02
  -3.682415e+02   2.094561e+02
  -5.408344e+02  -1.095500e+02
  -2.335671e+02  -3.067349e+02
   3.460064e+02  -2.303047e+02
   4.676566e+02   2.644148e+01
   2.388350e+02   3.615395e+02
  -2.274601e+02   3.682994e+02
  -4.074625e+02   9.339754e+01
  -2.583554e+02  -1.054637e+02
  -7.654957e+01  -2.777582e+02
   3.876558e+01  -1.749263e+02
   5.893968e+01   7.680741e+01
  -1.232474e+02   1.651863e+02
  -2.221408e+02  -3.874373e+01
  -6.267473e+01  -5.230542e+02
   2.057200e+02  -4.616474e+02
   3.525861e+02  -7.839482e+01
   1.244109e+02   3.577453e+02
  -8.330556e+01   1.482509e+02
  -2.303476e+02  -2.707105e+02
   2.862144e+01  -3.329957e+02
   3.397144e+02  -7.408940e+01
   3.777145e+02   1.972276e+02
   1.012069e+02   4.108852e+02
  -2.838899e+02   2.444479e+02
  -4.292416e+02  -5.527770e+01
  -3.260321e+02  -3.013050e+02
   9.852296e+01  -2.467810e+02
   2.290718e+02  -9.525064e+01
   2.240083e+02   7.264327e+01
  -1.669508e+01   6.174172e+01
  -6.934322e+01  -8.003704e+01
   8.404684e+01  -8.421188e+01
   2.122488e+02   7.045877e+01
   1.131505e+02   1.848575e+02
  -1.228674e+02   1.901984e+02
  -3.141334e+02   8.131231e+01
  -2.031250e+02  -5.513533e+01
   5.274670e+01  -2.664412e+02
   2.296711e+02  -2.762878e+02
   2.890455e+02  -1.546481e+02
   1.897360e+02   1.456069e+02
   3.763843e+01   3.194729e+02
  -7.330079e+01   2.757871e+02
  -4.120304e+01   1.203940e+02
  -4.099882e+01   6.473411e+01
  -9.952626e+01   7.251582e+01
  -2.176403e+02   9.639914e+01
  -1.666240e+02  -6.504021e+01
  -1.984213e+01  -1.694018e+02
   8.331438e+01  -2.003498e+02
   1.495801e+02   1.827908e+01
   1.056814e+02   1.819705e+02
  -2.353071e+01   2.163345e+02
  -2.205721e+02   7.355769e+01
  -2.393637e+02  -1.682598e+02
  -1.030654e+02  -2.673203e+02
   7.488202e+01  -2.283942e+02
   1.675880e+02  -1.357360e+02
   1.198433e+02  -4.475933e+01
   1.203065e+02  -3.662496e+01
   2.557416e+02  -4.419297e+01
   2.743366e+02   4.720965e+01
   2.012753e+02   2.559349e+02
  -3.305001e+01   3.577290e+02
  -3.425329e+02   2.884336e+02
  -3.389527e+02   8.447879e+01
  -2.292599e+02  -1.085812e+02
  -1.726287e+01  -2.446164e+02
   8.081221e+01  -1.608127e+02
   4.195135e+01  -5.283608e+01
  -9.075021e+01   3.997627e+01
  -1.538888e+02  -1.302491e+01
  -3.944333e+01  -1.411591e+02
   1.061559e+02  -8.339826e+01
   9.980333e+01   3.747350e+01
  -3.775080e+01   9.627954e+01
  -1.603468e+02   2.867165e+01
  -1.157057e+02  -1.994263e+02
   7.662615e+01  -2.428348e+02
   1.898416e+02  -1.371663e+02
   2.952143e+02   3.773129e+01
   2.264380e+02   2.645470e+02
   1.864310e+01   2.128947e+02
  -8.441773e+01   1.155401e+02
  -1.316116e+02   4.300961e+00
  -3.622645e+01  -7.966883e+00
   2.689196e+01   3.959164e+01
  -5.534294e+00   8.314237e+01
  -1.096967e+02   5.411994e+01
  -1.438291e+02  -9.740060e+00
  -2.631545e+01  -4.231262e+01
   7.042517e+01   1.205526e+01
   1.197789e+01   6.488804e+01
  -1.117620e+02   5.697094e+01
  -2.501889e+02  -4.667697e+01
  -1.944636e+02  -1.719660e+02
  -1.763466e+01  -2.266563e+02
   1.693168e+02  -1.983380e+02
   2.132035e+02  -8.092779e+01
   1.022163e+02   3.584864e+01
  -3.702007e+01   7.596609e+01
  -5.624134e+01   8.964918e-01
   4.098612e+01  -6.547366e+01
   1.666571e+02  -2.298463e+01
   1.318059e+02   9.867640e+01
   3.000537e+01   1.696272e+02
  -9.186120e+01   1.418021e+02
  -1.217650e+02   1.575290e+01
  -3.551466e+01  -2.430877e+01
   2.870082e+01   1.408322e+01
   1.927463e+01   7.238399e+01
  -8.119531e+01   8.373198e+01
  -1.885179e+02  -7.924781e+00
  -1.102557e+02  -9.896467e+01
   7.039914e+00  -1.773150e+02
   1.074805e+02  -9.775688e+01
   1.569604e+02  -1.545759e+01
   6.599044e+01   8.622344e+01
  -5.549823e+01   7.117492e+01
  -6.554411e+01   2.835944e+01
  -4.375297e+00  -1.951302e+01
   2.966988e+01  -1.283091e+01
  -8.992727e+00   2.262900e+01
  -7.638463e+01  -6.266263e+00
  -8.900657e+01  -9.146857e+01
   1.044685e+01  -1.315764e+02
   1.250170e+02  -9.722603e+01
   2.141429e+02   1.374678e+01
   1.454721e+02   1.388934e+02
   2.128510e+01   2.209919e+02
  -9.651739e+01   1.395790e+02
  -1.158239e+02   2.707812e+01
  -6.709677e+01  -3.225747e+01
  -2.968145e+01  -2.797870e+01
  -4.227649e+01   3.641939e+00
  -7.445147e+01   1.082992e+01
  -4.460557e+01  -5.453509e+01
   3.740508e+01  -7.983421e+01
   1.031261e+02  -4.582697e+01
   8.451891e+01   4.435531e+01
  -1.970899e+01   1.022989e+02
  -1.629928e+02   6.058429e+01
  -1.997777e+02  -2.061304e+01
  -7.507867e+01  -1.824129e+02
   1.586318e+02  -1.672360e+02
   1.934317e+02  -6.682242e+01
   2.163784e+02   9.527945e+01
   6.111814e+01   1.315414e+02
  -4.512444e+01   1.190446e+02
  -7.648163e+01   8.028404e+01
  -6.299145e+01   4.952057e+01
  -6.318168e+01   7.306943e+01
  -7.974988e+01   6.369598e+01
  -1.102650e+02  -9.048146e+00
  -9.755328e+01  -1.141226e+02
  -2.859170e+01  -1.611003e+02
   9.246310e+01  -1.519006e+02
   1.211999e+02  -1.264666e+01
   9.002358e+01   9.252568e+01
   1.536824e+01   1.483107e+02
  -6.085677e+01   7.914801e+01
  -4.699456e+01  -3.405235e+00
  -1.468732e-01  -3.521413e+01
   2.427664e+01  -3.037486e+01
  -2.401772e+01  -1.242202e+01
  -6.961855e+01  -1.488116e+01
  -3.851065e+01  -3.877694e+01
   5.733685e+01  -2.667520e+01
   1.463772e+02   1.058319e+01
   1.068247e+02   7.657079e+01
  -2.956622e+00   9.164098e+01
  -9.336466e+01   5.313934e+01
  -9.715484e+01   1.620969e+00
  -3.399366e+01  -4.187974e+01
   5.707551e+01  -2.374427e+01
   6.653034e+01   1.741676e+01
   1.430843e+01   5.645903e+01
  -4.362894e+01   4.904059e+01
  -6.402424e+01  -3.765142e+00
  -4.560376e+01  -4.762608e+01
  -3.923340e+01  -3.904542e+01
  -4.637403e+01   1.640046e+00
  -5.306622e+01  -7.114494e+00
  -2.775386e+01  -6.112563e+01
   1.747694e+01  -1.191867e+02
   6.373029e+01  -1.182163e+02
   1.630564e+02  -1.368275e+01
   1.001938e+02   6.544820e+01
  -2.629664e+01   1.320363e+02
  -7.008561e+01   5.682136e+01
  -5.540279e+01  -1.121562e+01
   5.167651e+01  -1.189549e+01
   1.246135e+02   4.702447e+01
   6.316591e+01   8.688983e+01
  -7.347549e+01   6.918840e+01
  -1.815536e+02   4.085279e+01
  -1.378590e+02  -3.618728e+01
  -1.699944e+01  -7.062885e+01
   4.390491e+01  -4.072300e+01
   4.028444e+01  -1.092699e+00
  -2.932585e+01   2.217899e+01
  -8.730714e+01  -2.236063e+01
  -3.151873e+01  -1.050755e+02
   6.249335e+01  -1.211604e+02
   1.434064e+02  -4.506973e+01
   9.532155e+01   6.962913e+01
   5.140756e-01   1.423499e+02
  -7.114435e+01   1.086385e+02
  -8.691634e+01  -1.130452e+01
  -4.832168e+01  -1.029630e+02
   1.328088e+01  -8.299913e+01
   4.856123e+01  -1.543334e+01
   3.645932e+01   2.651341e+01
   1.496876e+01   6.335756e+00
   1.999335e+00  -1.338901e+01
   2.387068e+01   1.953346e+01
   5.201659e+01   7.414169e+01
   2.272552e+01   1.020461e+02
  -4.553656e+01   3.501999e+01
  -1.113724e+02  -3.162929e+01
  -1.013500e+02  -5.535353e+01
  -2.211737e+01  -4.529971e+01
   6.971100e+01  -1.221004e+01
   7.870054e+01  -1.247863e+01
   1.017614e+01   9.572120e+00
  -3.225095e+01   1.610873e+01
  -1.542865e+01   9.474943e+00
   1.169926e+01  -3.488227e+00
  -3.060331e+00  -5.308534e+00
  -5.004851e+01  -4.404618e+00
  -7.691995e+01  -3.002928e+01
  -9.006462e+00  -6.998909e+01
   1.005686e+02  -9.708480e+01
   1.411936e+02  -5.962804e+01
   1.098016e+02   4.996506e+01
   1.687128e+01   1.409277e+02
  -6.433730e+01   1.230791e+02
  -1.080984e+02   5.377513e+01
  -5.822208e+01  -2.079116e+01
  -2.259090e+01  -3.318532e+01
  -3.863177e-01  -1.117450e+01
  -1.200909e+01  -8.112116e+00
  -2.581033e+01  -4.458521e+01
  -1.996049e+01  -7.005161e+01
   2.659313e+01  -5.338725e+01
   6.707377e+01   1.012582e+01
   6.020403e+01   9.156762e+01
   2.243616e+01   8.536561e+01
  -6.186820e+01   2.586784e+01
  -9.615513e+01  -6.462175e+01
  -2.898436e+01  -9.672061e+01
   5.937274e+01  -4.870899e+01
   9.624405e+01   1.453845e+01
   3.910281e+01   5.739884e+01
  -3.489935e+01   4.304182e+01
  -3.656461e+01   2.435312e+01
   2.228682e+01  -2.925373e+00
   6.000518e+01  -2.950280e+00
   1.469486e+01   2.180026e+01
  -6.533554e+01   4.529274e+01
  -9.521163e+01   3.895639e+01
  -6.433125e+01  -1.064455e+01
   2.224726e+01  -7.480142e+01
   5.161493e+01  -6.959085e+01
   3.516503e+01  -5.384740e+00
   2.655482e+00   4.665197e+01
  -2.806444e+01   4.002579e+01
  -3.023347e+01  -1.362606e+01
  -2.302613e+01  -4.370380e+01
  -3.786468e-01  -3.045635e+01
   2.989590e+01   6.331560e+00
   3.263057e+01   2.437413e+01
   1.666972e+01   2.916892e+00
   8.041301e-01  -1.581722e+01
  -6.517587e+00  -6.711739e+00
   3.701365e+00   3.272854e+01
  -3.314821e+00   4.683484e+01
  -2.056828e+01   1.700494e+01
  -3.576785e+01  -3.721589e+01
  -6.206852e+00  -5.386181e+01
   3.451343e+01  -2.645923e+01
   5.483571e+01   3.454963e+01
   1.348838e+01   6.099902e+01
  -4.301367e+01   2.508064e+01
  -7.634615e+01  -2.774425e+00
  -3.719944e+01  -3.492723e+01
   2.584697e+01  -3.747210e+01
   6.460312e+01  -2.163890e+01
   2.366902e+01  -4.523643e+00
  -2.423985e+01   8.293135e+00
  -2.916888e+01  -7.627435e+00
   2.049810e+01  -2.688958e+01
   7.080834e+01  -1.087494e+01
