
 $NMID
 id='ANONYMOUS ', fmtdat='(2E16.6)'
 volume=1.0
 tramp=1.0
 $END
  -3.098050e+03   5.006841e+02
  -1.836871e+03  -1.516172e+03
  -4.404740e+02  -1.813329e+03
   1.102763e+03  -7.034614e+02
   8.611869e+02  -3.912430e+02
   9.634918e+01   1.700750e+02
  -4.327153e+02  -8.851843e+01
  -1.016289e+02  -6.028671e+02
   3.637141e+02  -5.438857e+02
   4.398786e+02  -5.621521e+01
   2.819981e+02   5.378633e+02
   4.651085e+01   5.759535e+02
  -3.047057e+02   1.730042e+02
  -2.194330e+02  -2.583530e+02
   1.741068e+02  -5.230109e+02
   3.536714e+02  -4.153454e+01
   3.417381e+02   4.912780e+02
  -7.711666e+01   6.243991e+02
  -4.652816e+02   2.578298e+02
  -4.365782e+02  -1.732535e+02
  -1.438197e+02  -3.118698e+02
   8.696989e+01  -2.315821e+02
   5.669008e+01  -1.052442e+02
  -1.644515e+02  -6.901185e+01
  -2.467155e+02  -2.390207e+02
  -3.378636e+00  -3.216707e+02
   4.131161e+02  -1.055974e+02
   5.692906e+02   1.621814e+02
   1.924038e+02   2.801625e+02
  -3.255374e+02   1.293970e+02
  -4.424467e+02  -9.878063e+01
  -1.499897e+02  -3.636758e+02
   2.334621e+02  -3.566684e+02
   4.246274e+02  -1.589134e+02
   2.724970e+02   1.480685e+02
   1.515259e+02   2.279539e+02
   4.470600e+01   1.488767e+02
   2.007952e+01  -6.346466e+01
   1.484194e+02  -8.208610e+01
   2.387051e+02   1.760704e+02
  -5.268376e+01   4.440201e+02
  -2.262448e+02   4.704954e+02
  -3.161381e+02  -8.760478e+00
  -1.655877e+02  -3.369982e+02
   1.404602e+02  -1.260179e+02
   1.499141e+02   2.443408e+02
  -1.422478e+02   3.736932e+02
  -3.648798e+02   3.596509e+01
  -4.692914e+02  -3.520406e+02
  -1.038458e+02  -3.891648e+02
   2.673543e+02  -2.219571e+02
   4.011963e+02   4.824028e+01
   3.583520e+02   2.388264e+02
  -3.610746e+01   1.925429e+02
  -2.063327e+02   7.921755e+01
  -2.402737e+02  -1.557540e+01
  -2.598418e+01  -2.944087e+01
   6.333936e+01   4.504712e+01
  -8.395087e+01   2.493912e+01
  -2.025711e+02  -5.818557e+01
  -9.326286e+01  -1.449865e+02
   1.172995e+02  -2.231449e+02
   3.362736e+02  -1.777915e+02
   2.668569e+02   1.032768e+02
  -4.960812e+01   3.312142e+02
  -3.170017e+02   3.441319e+02
  -3.508385e+02   1.552494e+02
  -1.826413e+02  -1.737039e+02
  -7.828792e+01  -3.131423e+02
   3.028654e+01  -2.890342e+02
   9.775292e+00  -1.678343e+02
   2.494104e+01  -1.040428e+02
   1.243727e+02  -1.153570e+02
   2.949712e+02  -6.183669e+01
   1.798083e+02   1.043083e+02
   8.402357e+01   1.865436e+02
  -1.176578e+02   1.635254e+02
  -1.735564e+02  -3.623174e+01
  -7.549290e+01  -2.112187e+02
   7.335691e+01  -1.958215e+02
   2.431631e+02  -6.351428e+01
   2.597804e+02   1.284535e+02
   7.615030e+01   2.771898e+02
  -3.653542e+01   2.572214e+02
  -1.669011e+02   1.243440e+02
  -1.360062e+02   6.005458e+01
  -1.568242e+02   5.791107e+01
  -2.910932e+02   8.417101e+00
  -3.596082e+02  -5.759420e+01
  -3.090322e+02  -2.272427e+02
   7.401332e-01  -3.416464e+02
   3.730981e+02  -3.282605e+02
   3.983396e+02  -1.865965e+02
   2.476640e+02   6.627594e+01
  -2.194656e+01   2.347237e+02
  -8.958808e+01   1.771350e+02
  -1.324407e+01   2.910526e+01
   1.080579e+02  -3.370055e+01
   1.230047e+02   3.814738e+01
   1.820639e+01   1.359091e+02
  -8.675275e+01   9.144312e+01
  -1.006298e+02  -3.389054e+01
   2.672642e+01  -1.009263e+02
   1.582098e+02  -1.197036e+00
   1.582999e+02   2.294972e+02
   2.346152e+01   2.753685e+02
  -2.358297e+02   2.099878e+02
  -3.214756e+02  -2.960793e+01
  -2.533642e+02  -2.374404e+02
  -6.404927e+01  -2.583076e+02
   1.450355e+02  -1.326931e+02
   1.301787e+02   1.439468e+00
   2.970943e+01   1.040222e+01
  -5.147199e+01  -5.595702e+01
  -6.574049e+00  -9.610404e+01
   1.233347e+02  -4.011834e+01
   1.320351e+02   2.261713e+01
   2.697810e+01   4.785355e+01
  -7.748576e+01  -1.073275e+01
  -3.442852e+01  -8.220679e+01
   1.342462e+02  -8.480932e+01
   2.589919e+02   1.156500e+01
   2.735130e+02   1.601273e+02
   1.002228e+01   2.365005e+02
  -1.908241e+02   2.131389e+02
  -2.205844e+02   1.148650e+02
  -1.128089e+02  -3.062544e+01
   2.995204e+01  -6.710307e+01
   6.064820e+01   5.015164e+00
  -6.184461e+01   6.582564e+01
  -1.517151e+02   2.550907e+01
  -1.952419e+02  -9.256763e+01
  -9.212813e+00  -1.568237e+02
   8.087489e+01  -1.472291e+02
   1.229925e+02  -1.575211e+01
   3.861275e+01   3.284234e+01
  -4.681557e+01  -1.863049e+01
  -2.614601e+01  -1.083708e+02
   7.705152e+01  -1.204451e+02
   2.140662e+02   1.150663e+01
   1.524046e+02   9.161830e+01
   2.528009e+01   1.909691e+02
  -1.214188e+02   1.193308e+02
  -1.869024e+02   2.621620e+01
  -4.627728e+01  -9.557228e+01
   5.554208e+01  -7.529220e+01
   6.558975e+01  -1.983407e+01
   1.592664e-01   2.549523e+01
  -3.858288e+01   8.990551e+00
   7.778755e+00  -2.423546e+01
   7.986405e+01  -4.537747e+00
   9.166902e+01   8.135030e+01
   2.762405e+01   1.469993e+02
  -1.119164e+02   1.642228e+02
  -2.317257e+02  -7.555672e+00
  -1.708124e+02  -1.670832e+02
  -4.144318e+01  -1.772995e+02
   9.479252e+01  -1.496069e+02
   1.290966e+02  -4.010203e+01
   7.124548e+01   3.703042e+01
   3.349782e+01   2.726309e+01
   5.376587e+01  -1.696216e+01
   8.904254e+01  -1.787153e+01
   5.377701e+01   6.170183e+01
  -3.267644e+01   9.678214e+01
  -1.047057e+02   7.003897e+01
  -1.017447e+02  -2.734304e+01
   3.159265e+01  -1.302579e+02
   1.742645e+02  -9.191277e+01
   2.024843e+02   8.409542e+01
   9.360121e+01   2.132805e+02
  -8.690811e+01   1.496917e+02
  -2.126623e+02   9.237591e+01
  -2.198879e+02  -9.293455e+01
  -8.658417e+01  -1.565479e+02
   2.013222e+01  -1.094761e+02
   8.941827e+01  -6.605017e+01
   6.545833e+01  -7.636713e+01
   5.610011e+01  -9.498119e+01
   8.123809e+01  -6.958498e+01
   1.309013e+02   2.506930e+01
   1.029077e+02   1.062966e+02
   1.515978e+01   1.876755e+02
  -1.003848e+02   1.737793e+02
  -1.513919e+02   1.051106e+01
  -1.209545e+02  -1.142258e+02
  -5.662719e-01  -1.531035e+02
   7.726720e+01  -5.721297e+01
   5.688117e+01   8.794687e+00
  -6.177178e+00   5.589888e+01
  -2.751341e+01   3.174681e+01
   1.947284e+01   1.176842e+01
   7.862834e+01   8.725261e+00
   4.421337e+01   4.207849e+01
  -7.038985e+01   3.366526e+01
  -1.685034e+02  -4.438969e+00
  -1.246632e+02  -5.892430e+01
   1.222933e+01  -8.675699e+01
   1.382729e+02  -5.210313e+01
   1.219939e+02  -1.162081e+01
   4.724993e+01   5.417417e+01
  -4.676735e+01   4.565232e+01
  -7.217908e+01  -1.631962e+01
  -1.771287e+01  -6.899333e+01
   3.987459e+01  -5.992751e+01
   7.133424e+01  -1.400853e+01
   5.520115e+01   5.592068e+01
   5.262277e+01   3.698457e+01
   4.448152e+01  -1.481250e+00
   5.358448e+01   3.450271e-01
   3.621529e+01   6.270219e+01
  -1.107810e+01   1.428948e+02
  -1.196692e+02   1.476334e+02
  -1.633038e+02  -7.532789e-03
  -1.139962e+02  -9.188489e+01
  -1.809742e+00  -1.329253e+02
   7.940221e+01  -6.914125e+01
   6.570157e+01   3.730695e+00
  -5.101855e+01   2.200160e+01
  -1.181798e+02  -5.262846e+01
  -7.524856e+01  -9.275426e+01
   3.403125e+01  -1.110408e+02
   1.878560e+02  -6.219962e+01
   1.611577e+02   6.252946e+01
   2.256246e+01   7.406439e+01
  -5.917602e+01   4.813043e+01
  -4.652310e+01   1.198980e+00
   3.794331e+01  -3.062782e+01
   8.687355e+01   1.887167e+01
   3.139044e+01   1.202853e+02
  -5.912024e+01   1.629297e+02
  -1.255245e+02   7.254921e+01
  -1.252353e+02  -7.559656e+01
  -2.927029e+01  -1.610214e+02
   5.125086e+01  -1.343745e+02
   1.035731e+02   9.156679e+00
   6.722001e+01   9.730531e+01
  -4.007231e-01   9.804478e+01
  -5.934631e+01   1.164681e+01
  -4.064270e+01  -1.930745e+01
  -1.379391e+01  -6.474494e+00
  -5.562201e+00   1.552875e+01
  -2.903706e+01  -1.895457e+01
  -5.744255e+01  -9.103335e+01
  -2.651999e+01  -9.171765e+01
   5.665933e+01  -4.543717e+01
   1.272830e+02   3.350306e+01
   1.153180e+02   7.513929e+01
   1.661201e+01   5.397900e+01
  -6.689003e+01   3.000256e+01
  -9.129375e+01  -1.879271e+00
  -1.744275e+01  -1.214920e+01
   3.352655e+01  -2.156789e+01
   1.900955e+01  -1.233181e+01
  -1.297523e+01   5.826222e+00
   1.784447e+00   4.483052e+00
   5.360102e+01  -3.862753e+00
   8.411396e+01   1.762643e+01
   2.478587e+01   7.882578e+01
  -1.054059e+02   1.246768e+02
  -1.560758e+02   6.047671e+01
  -1.624957e+02  -3.808805e+01
  -3.963429e+01  -1.364557e+02
   6.091948e+01  -1.250107e+02
   1.016927e+02  -8.299861e+01
   6.699969e+01   8.278495e+00
   2.616316e+01   3.704875e+01
   3.897138e+00   1.212468e+01
   1.374579e+01   8.367820e+00
   3.559009e+01   4.034478e+01
   2.015340e+01   8.552596e+01
  -3.638728e+01   5.716226e+01
  -7.752774e+01  -9.628888e+00
  -7.246912e+01  -8.131364e+01
  -2.850038e+01  -1.043040e+02
   7.470369e+01  -4.628695e+01
   1.021127e+02   7.370305e+01
   4.304686e+01   1.006549e+02
  -5.653833e+01   6.164275e+01
  -1.026796e+02  -3.805121e-01
  -4.272031e+01  -5.513732e+01
   1.740806e+01  -5.789456e+01
   3.705510e+01  -2.836185e+01
  -2.424954e+01   8.215813e+00
  -5.060425e+01   1.249159e+01
  -2.118364e+01  -2.893936e+01
   7.252675e+01  -5.989503e+01
   1.121201e+02  -4.059783e+01
   6.792341e+01   1.176347e+01
  -7.576487e+00   7.403894e+01
  -6.084529e+01   7.136838e+01
  -4.113857e+01   1.162548e+01
  -2.381181e+00  -4.701078e+01
   1.171113e+01  -4.090262e+01
   3.804583e+01   2.872388e+00
   3.073894e+01   5.004065e+01
  -2.324055e+00   3.693586e+01
  -3.417067e+01  -3.038108e+00
  -4.019378e+01  -2.207198e+01
  -2.052499e+01  -3.760712e+00
   5.680449e+00   1.637365e+01
   4.994625e+00   1.015474e+01
  -6.325671e+00  -2.755199e+01
   2.136828e+00  -5.811403e+01
   2.759570e+01  -2.709109e+01
   3.997920e+01   2.659250e+01
   1.666775e+01   5.356546e+01
  -4.048874e+01   2.480939e+01
  -5.847474e+01  -3.059429e+01
  -2.168737e+01  -5.051898e+01
   4.657229e+01  -3.613479e+01
   8.567920e+01   2.131791e+01
   5.389360e+01   2.806314e+01
  -2.398846e+01   4.670154e+01
  -6.756478e+01   2.112010e+01
  -2.769299e+01   9.733325e+00
   2.794328e+01  -2.884602e+00
   3.355521e+01   5.878959e+00
  -2.102116e+01   2.266186e+01
  -7.536742e+01   1.635801e+01
