
 $NMID
 id='ANONYMOUS ', fmtdat='(2E16.6)'
 volume=1.0
 tramp=1.0
 $END
   2.376474e+03   5.929803e+02
   1.572636e+03   9.168037e+02
  -2.245623e+02   1.303387e+03
  -1.034449e+03   7.163688e+02
  -7.753851e+02   3.726213e+01
  -1.303892e+02  -2.660651e+02
   2.305317e+02   6.042040e+01
   1.145481e+02   5.182934e+02
  -3.774515e+02   4.269938e+02
  -5.313606e+02  -3.918199e+01
  -3.204224e+02  -4.572877e+02
  -1.057495e+02  -4.940004e+02
   2.397274e+02  -6.824015e+01
   2.073647e+02   4.065863e+02
  -1.752781e+02   4.145542e+02
  -3.180241e+02   4.616304e+01
  -1.294807e+02  -3.355141e+02
   2.011742e+02  -4.498044e+02
   4.432632e+02  -1.804504e+02
   3.227175e+02   2.458998e+02
   7.111410e+01   3.027534e+02
  -9.906308e+01   1.657672e+02
  -7.225548e+01   5.816082e+01
   1.128157e+02   1.226521e+02
   1.460833e+02   2.422437e+02
   1.910401e+01   1.891409e+02
  -4.323232e+02   1.021648e+02
  -3.342597e+02  -1.950528e+02
  -7.936018e+01  -3.330388e+02
   2.610824e+02  -1.581307e+02
   3.059329e+02   1.972753e+02
   1.190374e+02   2.386206e+02
  -2.069973e+02   2.956465e+02
  -2.563651e+02   8.375732e+01
  -1.889133e+02  -9.004123e+01
  -2.102314e+01  -2.318567e+02
   1.351299e+01  -1.243828e+02
  -1.517767e+01   3.596368e+01
  -2.049287e+02   1.361739e+02
  -9.705669e+01  -1.106648e+02
   7.478506e+01  -4.975939e+02
   3.254280e+02  -3.289371e+02
   3.045929e+02   1.819243e+01
   6.036388e+01   2.435277e+02
  -8.615051e+01   1.141749e+02
  -1.720545e+02  -2.175706e+02
   1.054413e+02  -2.227368e+02
   2.312471e+02   6.838067e+00
   3.005987e+02   2.816298e+02
   9.843185e+01   3.845774e+02
  -2.674747e+02   1.613202e+02
  -4.191046e+02  -6.680544e+01
  -1.647255e+02  -1.375092e+02
   4.523554e+01  -1.826589e+02
   2.134425e+02  -1.826488e+01
   2.051563e+02   5.065383e+01
   3.682767e+01   4.394694e-01
  -5.155131e+01  -4.513440e+01
   5.068428e+01  -4.901994e+01
   1.933021e+02   3.941803e+01
   8.178901e+01   1.713321e+02
  -1.676341e+02   1.708036e+02
  -2.687718e+02   8.230348e+01
  -2.063953e+02  -7.330310e+01
   5.595439e+01  -2.540941e+02
   2.880601e+02  -3.132920e+02
   3.067871e+02  -6.738051e+01
   1.686200e+02   1.496291e+02
  -4.905706e+01   2.495027e+02
  -2.110446e+01   2.834600e+02
  -2.555836e+01   1.118405e+02
  -5.195866e+01   9.541102e+01
  -1.315270e+02   6.598027e+01
  -2.004264e+02   8.977845e+00
  -1.547069e+02  -1.388317e+02
  -1.952053e+01  -1.965345e+02
   9.369397e+01  -1.499247e+02
   1.275256e+02   6.402140e+01
   5.442705e+01   2.001503e+02
  -5.707398e+01   1.648057e+02
  -2.127708e+02   5.577801e+00
  -2.458062e+02  -1.788059e+02
  -8.612777e+01  -2.827244e+02
   6.507301e+01  -1.516578e+02
   1.413523e+02  -9.319681e+01
   1.286568e+02  -4.137041e+01
   1.310119e+02  -4.690237e+01
   2.417656e+02   2.013971e+01
   2.512125e+02   1.928417e+02
   2.084222e+02   2.607394e+02
  -1.710859e+02   3.662542e+02
  -3.640852e+02   1.902568e+02
  -3.429403e+02   9.406569e+01
  -2.120597e+02  -1.203888e+02
   3.503473e+01  -1.847430e+02
   8.414555e+01  -1.333766e+02
   6.041892e-01  -2.598533e+01
  -8.673632e+01   4.205864e+01
  -7.610700e+01  -4.770865e+01
   1.936957e+01  -8.965305e+01
   9.000357e+01  -7.826438e+01
   4.880659e+01   4.566363e+01
  -4.625607e+01   1.034024e+02
  -1.208818e+02  -3.144783e+01
  -8.619100e+01  -1.803602e+02
   3.430665e+01  -2.058698e+02
   1.520228e+02  -1.364700e+02
   2.614939e+02   8.751321e+01
   1.613906e+02   2.612966e+02
  -1.321236e+01   2.150135e+02
  -1.000226e+02   8.355028e+01
  -1.027384e+02  -2.849640e+01
  -1.587651e+01  -8.352708e+00
   1.791751e+01   4.387567e+01
  -3.820565e+01   8.501923e+01
  -1.086056e+02   1.647198e+01
  -1.310934e+02  -4.647112e+01
   1.799355e+00  -5.481335e+01
   6.170652e+01   1.628205e+01
   6.521781e+00   7.046628e+01
  -1.192474e+02   4.092754e+01
  -2.380240e+02  -8.642154e+01
  -2.068366e+02  -1.918928e+02
  -1.710412e-01  -1.989701e+02
   1.934143e+02  -1.612471e+02
   2.127978e+02  -3.930450e+01
   1.060107e+02   2.772889e+01
  -4.182640e+01   5.217652e+01
  -4.378115e+01  -1.095096e+01
   3.488767e+01  -4.388464e+01
   1.553289e+02  -1.972260e+00
   1.170628e+02   1.034148e+02
   1.334019e+01   1.286508e+02
  -7.395512e+01   1.064723e+02
  -9.922556e+01  -1.076101e+01
  -3.150018e+01  -1.984527e+01
   2.305697e+01   1.820935e+01
  -1.128123e+01   7.028745e+01
  -1.047426e+02   5.826380e+01
  -1.793953e+02  -1.721872e+01
  -8.772833e+01  -1.469071e+02
   2.579975e+01  -1.586564e+02
   1.271355e+02  -7.779027e+01
   1.368643e+02  -1.822999e+01
   3.290294e+01   7.986643e+01
  -5.315811e+01   5.947341e+01
  -4.663681e+01   1.804381e+01
   2.827884e+00  -2.116378e+01
   2.874829e+01  -1.612667e-01
  -1.545163e+01   2.244526e+01
  -7.345229e+01  -1.488794e+01
  -9.316785e+01  -9.232904e+01
   2.521029e+01  -1.332227e+02
   1.031269e+02  -1.021553e+02
   1.774918e+02   2.739408e+00
   1.500143e+02   1.597745e+02
  -1.524478e+01   1.763632e+02
  -8.510641e+01   9.952280e+01
  -1.022091e+02   5.741112e+00
  -5.679320e+01  -2.514658e+01
  -2.075120e+01  -2.094088e+01
  -4.633747e+01   7.610392e+00
  -6.502969e+01  -2.201466e+00
  -3.556369e+01  -3.654228e+01
   5.057518e+01  -7.063223e+01
   1.200288e+02  -4.466208e+01
   6.874576e+01   5.816466e+01
  -2.341591e+01   1.074493e+02
  -1.302881e+02   6.241039e+01
  -1.409888e+02  -7.904758e+01
  -4.538135e+01  -1.662404e+02
   1.488612e+02  -1.641213e+02
   2.317011e+02  -6.896361e+00
   1.708154e+02   1.132711e+02
   4.030992e+01   1.131150e+02
  -5.974778e+01   9.501616e+01
  -7.049716e+01   4.306667e+01
  -5.597324e+01   4.617396e+01
  -5.146438e+01   7.046786e+01
  -8.638336e+01   5.948973e+01
  -1.059655e+02  -2.721822e+01
  -5.631109e+01  -1.524496e+02
   1.582857e+01  -1.563075e+02
   8.783155e+01  -1.273262e+02
   1.494757e+02   4.531845e+00
   8.366564e+01   8.511848e+01
  -5.381392e+00   1.328723e+02
  -7.018008e+01   6.943078e+01
  -4.424787e+01  -1.340359e+01
   1.286956e+01  -3.885888e+01
   3.313687e+01  -2.278377e+01
  -1.850550e+01  -1.079594e+01
  -5.214564e+01  -2.702426e+01
  -3.321853e+01  -3.337843e+01
   5.428539e+01  -2.149214e+01
   1.225308e+02   3.708160e+01
   1.049248e+02   7.536110e+01
  -1.018435e+01   8.404880e+01
  -1.154445e+02   3.192413e+01
  -1.159422e+02  -2.219944e+01
  -1.818845e+01  -4.241815e+01
   5.528319e+01  -2.363722e+01
   6.501876e+01   3.518515e+01
  -1.097745e+00   6.052683e+01
  -4.362489e+01   3.630502e+01
  -6.554719e+01  -1.408154e+01
  -4.443700e+01  -4.907155e+01
  -3.531075e+01  -4.059281e+01
  -4.200174e+01  -1.210788e+01
  -4.790896e+01  -8.332168e+00
  -2.417817e+01  -6.709682e+01
   4.761752e+01  -1.137702e+02
   1.092494e+02  -8.338417e+01
   1.738130e+02  -1.455464e+01
   8.373463e+01   8.609699e+01
  -1.053018e+01   1.127072e+02
  -1.005980e+02   3.656348e+01
  -4.788962e+01  -9.416305e+00
   4.256634e+01  -7.203729e+00
   9.510560e+01   5.103845e+01
   3.898646e+01   9.342041e+01
  -7.149933e+01   8.818950e+01
  -1.555496e+02   1.238682e+01
  -1.267467e+02  -4.972499e+01
  -1.806483e+01  -7.489727e+01
   4.807526e+01  -3.797589e+01
   3.819174e+01   9.265817e+00
  -2.868637e+01   1.781257e+01
  -7.782583e+01  -6.992022e+00
  -2.383541e+01  -9.951214e+01
   7.030950e+01  -1.145462e+02
   1.116524e+02  -3.330104e+01
   6.536892e+01   6.951224e+01
  -2.019781e+01   1.358694e+02
  -1.017957e+02   9.036898e+01
  -8.067260e+01  -1.440043e+01
  -1.745047e+01  -8.424524e+01
   2.908726e+01  -6.716212e+01
   4.268021e+01  -4.988940e+00
   2.703685e+01   2.875006e+01
   9.278108e+00   4.899359e+00
   5.002848e+00  -9.779705e+00
   2.155976e+01   2.245247e+01
   2.626465e+01   7.486890e+01
   1.325920e+00   8.569766e+01
  -4.551308e+01   3.309027e+01
  -9.888812e+01  -3.579605e+01
  -7.973900e+01  -7.920191e+01
  -8.031936e+00  -4.378103e+01
   6.258650e+01  -7.769116e+00
   6.783260e+01   2.491447e+00
   9.472466e+00   1.167185e+01
  -3.103202e+01   2.019976e+01
  -1.853052e+01   2.280986e+00
   8.800452e+00   8.580116e-01
  -1.900024e+00  -4.407776e+00
  -4.826167e+01  -1.071133e+01
  -7.693567e+01  -3.440910e+01
  -3.359225e+00  -6.671658e+01
   9.867133e+01  -6.198041e+01
   1.206739e+02  -1.908393e+01
   8.529651e+01   6.622294e+01
  -1.759248e+00   1.293707e+02
  -6.078342e+01   9.935242e+01
  -1.031306e+02   4.637648e+01
  -5.990005e+01  -2.765372e+01
  -9.967543e+00  -3.466385e+01
  -1.119959e+00  -1.308584e+01
  -9.764268e+00  -8.712089e+00
  -1.486545e+01  -3.542180e+01
   5.679072e-01  -6.710165e+01
   2.386146e+01  -5.819533e+01
   4.810879e+01   3.069855e+01
   5.846872e+01   8.875447e+01
  -2.872599e+00   8.427343e+01
  -5.401696e+01   1.789407e+00
  -7.211449e+01  -7.219993e+01
  -1.344489e+01  -8.829474e+01
   5.997218e+01  -4.421851e+01
   7.135750e+01   1.304126e+01
   2.963915e+01   5.709795e+01
  -3.700498e+01   4.332668e+01
  -3.543889e+01   2.299020e+01
   1.971874e+01  -4.969146e+00
   4.798629e+01   1.295604e+01
   1.187206e+01   2.395311e+01
  -5.861614e+01   3.711855e+01
  -8.834374e+01   1.840158e+01
  -5.462384e+01  -1.762209e+01
   6.889211e+00  -7.607619e+01
   5.197658e+01  -6.014374e+01
   3.488565e+01  -3.036014e+00
   3.932959e+00   4.375402e+01
  -2.875669e+01   3.886581e+01
  -2.659127e+01  -5.548675e+00
  -1.315412e+01  -3.865557e+01
   6.444420e+00  -2.868205e+01
   2.629637e+01   7.759209e+00
   2.863753e+01   2.327180e+01
   1.624206e+01   6.407075e+00
  -2.501092e+00  -1.628504e+01
  -2.355252e+00  -7.835054e+00
   2.871393e+00   2.555768e+01
  -5.328586e+00   4.430459e+01
  -1.963124e+01   1.906048e+01
  -2.879947e+01  -3.260506e+01
  -3.225599e+00  -4.730212e+01
   3.578786e+01  -1.584836e+01
   4.127413e+01   3.548269e+01
   4.726451e+00   5.255343e+01
  -4.369808e+01   1.118777e+01
  -7.469799e+01  -2.673389e+01
  -2.907359e+01  -4.179792e+01
   3.030838e+01  -3.993874e+01
   5.175535e+01  -2.147556e+01
   2.316966e+01  -5.548237e+00
  -2.368473e+01  -1.386097e+00
  -2.600628e+01  -9.288203e+00
   1.776106e+01  -1.573808e+01
   5.396204e+01  -7.849725e+00
