
 $NMID
 id='ANONYMOUS ', fmtdat='(2E16.6)'
 volume=1.0
 tramp=1.0
 $END
   2.268735e+03  -1.469529e+02
   1.819906e+03   1.317276e+03
  -2.694497e+02   1.535859e+03
  -1.228464e+03   1.008211e+03
  -5.503163e+02   2.782049e+02
   1.207328e+02  -1.358308e+02
   4.030575e+02   6.023687e+01
   4.387702e+00   4.655817e+02
  -3.474901e+02   3.940969e+02
  -4.864043e+02   1.523313e+02
  -2.243758e+02  -3.694885e+02
   1.111197e+02  -5.308791e+02
   2.757832e+02  -1.084158e+02
   1.920712e+02   3.382255e+02
  -4.480715e+01   4.606071e+02
  -4.018974e+02   4.297873e+01
  -1.844787e+02  -4.422982e+02
   1.322334e+02  -4.814024e+02
   3.128963e+02  -1.525442e+02
   2.723590e+02   1.224814e+02
   9.830561e+01   2.670703e+02
  -9.791063e+01   1.921166e+02
  -9.008867e+01   5.563167e+01
   1.369639e+02   2.799001e+00
   2.817630e+02   1.414810e+02
   5.700213e+01   3.270560e+02
  -3.391164e+02   1.748454e+02
  -5.006385e+02  -2.053777e+02
  -2.757099e+02  -3.181531e+02
   2.376756e+02  -1.599768e+02
   4.457551e+02   8.831486e+01
   1.536295e+02   2.821973e+02
  -1.443801e+02   2.368674e+02
  -4.076418e+02   1.715865e+02
  -2.542606e+02  -1.448666e+02
  -6.762421e+01  -2.399907e+02
   4.785636e+01  -1.291786e+02
  -1.959784e+00   7.914733e+01
  -7.146000e+01   1.536048e+02
  -2.056942e+02  -1.670810e+02
  -1.955199e+01  -3.849501e+02
   1.527275e+02  -3.751421e+02
   2.433891e+02   5.664099e+01
   7.246473e+01   3.328220e+02
  -1.436146e+02   1.486374e+02
  -1.186941e+02  -2.018453e+02
   9.904165e+01  -3.183709e+02
   3.806628e+02  -3.526134e+01
   4.755426e+02   3.083405e+02
   1.332469e+02   4.011519e+02
  -2.248427e+02   2.522523e+02
  -3.830161e+02  -6.994691e+01
  -2.546976e+02  -2.816715e+02
   1.722127e+01  -1.750061e+02
   2.239402e+02  -8.467320e+01
   1.617837e+02  -2.657485e+00
  -2.445698e+01   2.126284e+01
  -5.442277e+01  -6.816021e+01
   1.046782e+02  -6.104989e+01
   1.818150e+02   2.048979e+01
   1.065736e+02   1.319040e+02
  -1.395065e+02   2.341942e+02
  -2.568137e+02   9.380665e+01
  -1.818859e+02  -5.722512e+01
   2.918657e+00  -1.842865e+02
   2.102894e+02  -2.610835e+02
   2.396633e+02  -1.192786e+02
   1.841623e+02   1.177287e+02
   7.350816e+01   3.244084e+02
  -5.404607e+01   2.570716e+02
  -5.852098e+01   9.718456e+01
   9.259474e+00   5.517680e+01
  -8.199566e+01   9.057342e+01
  -1.775045e+02   3.805851e+01
  -2.198577e+02  -5.303194e+01
  -8.523835e+01  -1.896865e+02
   6.052280e+01  -1.520642e+02
   1.684217e+02   2.360565e+01
   1.185412e+02   1.330810e+02
  -6.492401e+01   1.775352e+02
  -2.002472e+02   6.707461e+01
  -2.648809e+02  -1.284948e+02
  -1.261985e+02  -2.019640e+02
   7.042561e+01  -2.014117e+02
   1.494341e+02  -9.554108e+01
   8.371513e+01  -4.353067e+01
   1.169691e+02  -4.594387e+01
   1.600641e+02  -4.603115e+01
   3.120703e+02  -3.035927e+01
   3.037512e+02   2.102159e+02
   6.414469e+01   3.133588e+02
  -2.499673e+02   2.924225e+02
  -2.568471e+02   1.149459e+02
  -2.442814e+02  -4.105067e+01
  -5.869990e+00  -1.940328e+02
   4.431892e+01  -1.511468e+02
   1.546854e+01  -3.386754e+01
  -9.665803e+01   5.517858e+01
  -9.747850e+01  -1.210218e+01
  -4.726684e+00  -1.262213e+02
   9.587768e+01  -7.967740e+01
   8.112939e+01   5.393159e+01
  -2.743715e+01   9.187978e+01
  -1.188529e+02   6.136785e+00
  -1.212610e+02  -1.749942e+02
  -1.224940e+01  -2.130310e+02
   1.658875e+02  -1.373858e+02
   2.875913e+02   5.591734e+01
   2.169475e+02   1.708788e+02
   9.819180e+01   2.342448e+02
  -1.116266e+02   9.664053e+01
  -9.026824e+01   4.226321e-01
  -3.070949e+01  -5.707457e+00
   4.707712e+01   4.598955e+01
   1.884759e+01   1.000639e+02
  -7.542734e+01   5.634012e+01
  -1.104591e+02  -3.070002e+01
  -2.923647e+01  -3.451528e+01
   6.767653e+01   1.067882e+00
   3.720059e+01   6.066351e+01
  -8.408018e+01   6.695220e+01
  -2.185109e+02  -4.425128e+00
  -1.713858e+02  -1.098299e+02
  -1.099037e+01  -2.104882e+02
   1.518400e+02  -2.119533e+02
   2.261270e+02  -7.798376e+01
   1.167079e+02   2.713912e+01
  -1.483471e+01   5.780985e+01
  -6.267142e+01   5.737401e+00
   4.013575e+01  -7.802073e+01
   1.280785e+02  -3.878993e+01
   1.218035e+02   5.706681e+01
   5.059250e+01   1.357282e+02
  -8.492625e+01   8.229315e+01
  -9.493326e+01   1.100643e+01
  -4.351539e+01  -2.946224e+01
   3.326475e+01   1.033403e+01
   2.233419e+01   7.883688e+01
  -5.290547e+01   8.713487e+01
  -1.585342e+02   1.851645e+01
  -1.507250e+02  -7.759348e+01
  -8.920786e+00  -1.849894e+02
   9.864754e+01  -1.445919e+02
   1.364501e+02  -1.015370e+01
   3.229673e+01   8.038369e+01
  -4.793489e+01   8.019251e+01
  -6.446194e+01   1.374109e+01
  -4.091052e+00  -1.840703e+01
   3.214218e+01  -8.788221e+00
  -9.741273e+00   2.092786e+01
  -6.515001e+01   1.333257e+01
  -8.973698e+01  -5.713575e+01
  -2.120632e+01  -1.269435e+02
   9.616748e+01  -9.899485e+01
   1.810447e+02   7.267467e+00
   1.502551e+02   1.291657e+02
   5.363741e+01   1.779295e+02
  -5.523693e+01   1.444409e+02
  -9.341948e+01   3.570967e+01
  -5.840294e+01  -4.141029e+01
  -2.494457e+01  -2.036615e+01
  -3.474322e+01   1.549979e+01
  -7.275392e+01   1.148978e+01
  -4.211087e+01  -4.693454e+01
   1.485568e+01  -7.376918e+01
   7.588185e+01  -5.798406e+01
   8.636806e+01   3.307856e+01
  -9.911264e+00   9.057333e+01
  -1.277174e+02   8.229524e+01
  -1.459914e+02  -4.779447e+01
  -5.965537e+01  -1.412480e+02
   7.586164e+01  -1.982698e+02
   1.959399e+02  -9.175501e+01
   1.975099e+02   3.539742e+01
   9.282603e+01   1.180218e+02
  -1.586126e+01   1.050936e+02
  -5.939054e+01   4.908250e+01
  -4.800648e+01   5.341064e+01
  -3.236849e+01   6.823742e+01
  -6.791249e+01   6.494166e+01
  -9.922429e+01  -2.750459e+01
  -1.075531e+02  -1.001427e+02
  -1.806629e+01  -1.801340e+02
   7.958616e+01  -1.164956e+02
   1.319694e+02  -1.997540e+01
   9.443938e+01   1.015022e+02
   7.394128e+00   1.241654e+02
  -4.956283e+01   7.099166e+01
  -5.035015e+01  -1.153714e+01
   5.791048e+00  -3.735586e+01
   1.706810e+01  -2.828061e+01
  -2.254906e+01  -8.092447e+00
  -6.975056e+01  -1.561881e+01
  -3.426259e+01  -2.701755e+01
   5.710092e+01  -3.808551e+01
   1.068133e+02  -2.984162e+00
   9.720221e+01   3.142550e+01
  -1.923209e+00   7.193512e+01
  -9.480807e+01   6.541243e+01
  -9.613243e+01   2.923002e+01
  -3.608267e+01  -3.960357e+01
   3.969013e+01  -4.281828e+01
   6.291260e+01   3.216883e+00
   1.783861e+01   5.195662e+01
  -2.773923e+01   5.155399e+01
  -4.846670e+01   8.204841e+00
  -3.145624e+01  -2.705156e+01
  -3.690540e+01  -3.094899e+01
  -4.193835e+01   6.598928e+00
  -4.241866e+01  -3.057825e+00
  -3.818410e+01  -5.066745e+01
   1.913086e+01  -9.903618e+01
   9.609726e+01  -1.083143e+02
   1.492285e+02  -1.403483e+01
   1.052267e+02   7.328451e+01
   8.234852e+00   9.653268e+01
  -6.167894e+01   6.036558e+01
  -4.352911e+01  -3.615484e+00
   4.621501e+01  -1.958554e+01
   9.338712e+01   4.238577e+01
   6.663803e+01   8.504496e+01
  -5.282356e+01   9.867060e+01
  -1.305156e+02   4.706695e+01
  -1.067831e+02  -2.543956e+01
  -2.759648e+01  -5.595196e+01
   4.178654e+01  -3.607251e+01
   3.234732e+01  -6.140768e+00
  -3.361471e+01   2.204727e+01
  -7.350100e+01  -1.745393e+01
  -2.636504e+01  -8.065773e+01
   5.925509e+01  -1.261693e+02
   1.213777e+02  -5.569306e+01
   1.123567e+02   6.145695e+01
   1.944168e+01   1.384079e+02
  -6.015911e+01   1.115137e+02
  -7.796596e+01  -1.083383e+01
  -4.648671e+01  -9.222846e+01
  -8.764094e-02  -7.870521e+01
   3.443019e+01  -1.140161e+01
   4.293297e+01   2.136065e+01
   1.224734e+01   1.333177e+00
   5.744910e+00  -1.379098e+01
   2.140120e+01   1.258334e+01
   5.171921e+01   6.842078e+01
   3.256294e+01   7.232744e+01
  -3.684631e+01   3.284897e+01
  -1.170427e+02  -3.187596e+01
  -9.658704e+01  -4.698686e+01
  -1.422029e+01  -3.918073e+01
   5.879519e+01  -3.147829e+01
   6.255686e+01  -2.346079e+00
   1.157405e+01   6.325685e+00
  -2.379821e+01   1.329153e+01
  -1.516294e+01   1.324992e+01
   1.010667e+01  -1.602118e+00
  -2.247385e+00  -4.765391e+00
  -4.554097e+01   6.994147e+00
  -6.243011e+01  -1.023483e+01
  -2.298869e+01  -5.280770e+01
   6.789285e+01  -9.151953e+01
   1.549542e+02  -6.629266e+01
   1.234448e+02   3.174724e+01
   3.233552e+01   1.123666e+02
  -5.873887e+01   1.059525e+02
  -7.762531e+01   6.058172e+01
  -7.106458e+01  -5.524632e+00
  -2.429955e+01  -2.794769e+01
  -5.188616e+00  -8.386208e+00
  -1.088007e+01  -6.243767e+00
  -1.916223e+01  -3.520475e+01
  -2.270747e+01  -7.990845e+01
   1.626712e+01  -5.133883e+01
   6.650255e+01   4.045384e+00
   6.967116e+01   7.595669e+01
   1.577129e+01   8.338660e+01
  -5.368094e+01   3.458351e+01
  -8.007586e+01  -3.565656e+01
  -2.714069e+01  -6.550493e+01
   4.926493e+01  -5.123253e+01
   8.361984e+01   1.470775e+01
   3.798746e+01   2.866932e+01
  -1.892692e+01   5.031340e+01
  -2.722155e+01   2.257002e+01
   1.967019e+01  -7.880001e+00
   5.245515e+01  -1.680801e+01
   1.160772e+01   1.500493e+01
  -6.084775e+01   5.698447e+01
  -8.272649e+01   4.078127e+01
  -6.054392e+01  -1.799152e+01
  -3.705881e+00  -6.259032e+01
   4.344309e+01  -5.650094e+01
   3.281555e+01  -1.120829e+01
   3.911220e+00   3.267943e+01
  -8.958321e+00   3.649117e+01
  -2.951095e+01  -1.048031e+01
  -2.498303e+01  -3.760933e+01
  -1.189531e+00  -2.981538e+01
   2.287111e+01   2.596276e+00
   3.021616e+01   1.520562e+01
   1.575753e+01   9.555568e-01
  -6.828826e+00  -1.272376e+01
  -6.887499e+00  -4.276409e+00
   3.254667e+00   2.636210e+01
   4.506376e+00   3.859249e+01
  -1.890700e+01   1.144026e+01
  -2.608785e+01  -2.208916e+01
  -3.174190e+00  -4.396939e+01
   3.130762e+01  -1.865668e+01
   4.178029e+01   2.256322e+01
   2.476710e+01   4.093623e+01
  -3.727243e+01   2.483217e+01
  -6.776696e+01  -9.353976e+00
  -4.213681e+01  -2.968033e+01
   1.604160e+01  -3.723000e+01
   5.098829e+01  -2.034928e+01
   2.338549e+01  -8.742816e+00
  -2.143660e+01   4.429880e+00
  -2.244356e+01  -3.865195e+00
   2.185130e+01  -2.078122e+01
   6.347858e+01  -1.964690e+01
