
 $NMID
 id='ANONYMOUS ', fmtdat='(2E16.6)'
 volume=1.0
 tramp=1.0
 $END
  -3.297187e+03  -4.442689e+00
  -2.013699e+03  -1.244485e+03
  -1.525973e+01  -2.263523e+03
   1.001091e+03  -9.952903e+02
   9.632715e+02   2.601749e+01
  -2.636696e+02   4.183509e+02
  -5.073802e+02  -1.796683e+02
  -2.602284e+02  -7.162783e+02
   4.570188e+02  -6.695601e+02
   6.567557e+02   7.210337e+00
   4.202728e+02   5.541090e+02
   8.049985e+00   8.169550e+02
  -3.952982e+02   1.319749e+02
  -2.615600e+02  -4.591241e+02
   1.736882e+02  -5.173260e+02
   4.317237e+02  -1.377282e+02
   3.389426e+02   4.896124e+02
  -1.346946e+02   7.107060e+02
  -4.499274e+02   1.920946e+02
  -4.216671e+02  -2.218667e+02
  -1.217076e+02  -3.496269e+02
   1.607537e+02  -2.454126e+02
   1.097737e+02  -5.478893e+01
  -1.078238e+02  -1.670531e+01
  -2.611045e+02  -2.037827e+02
  -8.719639e+01  -3.901422e+02
   4.938461e+02  -2.738510e+02
   5.947771e+02   1.006553e+02
   2.630081e+02   3.602189e+02
  -2.835162e+02   2.768610e+02
  -4.905148e+02  -7.499903e+01
  -2.588048e+02  -3.692177e+02
   2.575237e+02  -4.574283e+02
   5.067233e+02  -2.352833e+02
   3.491309e+02   1.274485e+02
   9.049780e+01   3.469286e+02
  -4.426563e+01   2.084169e+02
  -9.474928e+00  -1.318443e+02
   2.178973e+02  -1.935321e+02
   2.620291e+02   5.343147e+01
   5.875039e+01   5.160750e+02
  -2.693212e+02   5.257947e+02
  -3.684610e+02  -3.864708e+01
  -2.074909e+02  -3.668565e+02
   1.268384e+02  -1.857571e+02
   2.585133e+02   2.354995e+02
   8.354341e+00   4.345033e+02
  -5.001466e+02   1.277449e+02
  -4.402429e+02  -2.758599e+02
  -1.491007e+02  -4.926386e+02
   2.302361e+02  -3.047021e+02
   5.320640e+02   7.013550e+01
   4.184150e+02   2.706945e+02
  -8.706516e+01   1.853619e+02
  -2.837689e+02   6.910796e+01
  -2.035597e+02  -4.490541e+01
   1.821367e+01  -6.257653e+01
   8.718159e+01   4.987260e+01
  -9.121596e+01   1.263432e+02
  -2.217137e+02  -5.445203e+01
  -1.161075e+02  -1.896099e+02
   1.164539e+02  -2.447940e+02
   3.268145e+02  -1.049456e+02
   2.604466e+02   8.973748e+01
  -3.317532e+01   2.993307e+02
  -2.657343e+02   3.968528e+02
  -3.628545e+02   1.605446e+02
  -2.010940e+02  -1.091615e+02
  -9.391231e+01  -3.660086e+02
   5.513023e+01  -3.498725e+02
   4.611957e+01  -1.582514e+02
   4.294131e+01  -6.934202e+01
   8.749351e+01  -1.062914e+02
   2.211745e+02  -9.365435e+01
   2.217581e+02   7.679520e+01
   1.222162e+02   2.404884e+02
  -6.826443e+01   2.364631e+02
  -1.821779e+02  -2.611091e+01
  -1.503100e+02  -2.336271e+02
   2.827861e+01  -2.533704e+02
   2.409467e+02  -8.956045e+01
   2.854091e+02   1.344647e+02
   1.908509e+02   3.355582e+02
  -6.967199e+01   2.202746e+02
  -1.854937e+02   1.477692e+02
  -1.241170e+02   6.606132e+01
  -1.564401e+02   7.349097e+01
  -2.801989e+02   2.303666e+01
  -3.510373e+02  -8.909554e+01
  -3.116920e+02  -2.401941e+02
   2.029132e+01  -3.691921e+02
   3.714752e+02  -3.229132e+02
   4.359521e+02  -1.743525e+02
   2.802944e+02   9.974001e+01
   5.940555e+01   2.398477e+02
  -7.860853e+01   1.925388e+02
  -2.126658e+01   3.156400e+01
   1.158593e+02  -6.861332e+01
   1.408295e+02   2.663749e+01
   2.764586e+01   1.521913e+02
  -1.212619e+02   1.309954e+02
  -1.376884e+02  -3.204580e+01
   5.277221e+00  -1.149430e+02
   1.751426e+02  -2.113576e+00
   1.521827e+02   2.187529e+02
  -3.835729e+01   3.063926e+02
  -1.927173e+02   2.134576e+02
  -2.838495e+02  -1.281366e+01
  -2.420339e+02  -2.419682e+02
  -1.016260e+02  -2.261746e+02
   1.058106e+02  -1.639669e+02
   1.604468e+02  -2.556228e+01
   4.299258e+01   1.432923e+01
  -4.624710e+01  -3.661298e+01
  -4.454656e+00  -1.097327e+02
   1.115051e+02  -6.891931e+01
   1.351477e+02   3.769824e+01
   3.625511e+01   4.325707e+01
  -7.977120e+01  -1.037830e+01
  -4.646457e+01  -8.812859e+01
   1.383853e+02  -1.048484e+02
   2.633948e+02   2.591321e+01
   2.451557e+02   1.501463e+02
   5.155234e+01   2.231470e+02
  -1.714184e+02   2.425519e+02
  -2.252949e+02   1.186806e+02
  -1.288923e+02  -3.108002e+01
   2.757305e+01  -7.637181e+01
   7.083907e+01  -1.805291e+00
  -4.165333e+01   8.402597e+01
  -1.547084e+02   2.576679e+01
  -1.894249e+02  -5.943577e+01
  -6.326025e+01  -1.725990e+02
   9.195030e+01  -1.356990e+02
   1.303993e+02  -2.807063e+01
   5.932381e+01   2.158617e+01
  -2.707017e+01  -9.004253e+00
  -2.992927e+01  -7.855511e+01
   8.991325e+01  -1.004384e+02
   1.868462e+02  -2.261216e+01
   1.634720e+02   1.129925e+02
   1.987961e+01   1.786574e+02
  -1.485433e+02   1.211342e+02
  -1.708836e+02   2.352898e+01
  -6.694289e+01  -9.309916e+01
   5.653009e+01  -9.156602e+01
   7.263440e+01  -3.533900e+01
   7.043995e+00   2.145158e+01
  -3.381131e+01   1.639286e+01
   5.647893e+00  -2.068083e+01
   7.539351e+01   1.855129e+00
   9.561502e+01   6.735743e+01
   3.092978e+01   1.604790e+02
  -1.170314e+02   1.751669e+02
  -2.450218e+02   5.647159e+01
  -2.009815e+02  -1.425959e+02
  -1.389657e+01  -1.909869e+02
   8.974539e+01  -1.517895e+02
   1.302368e+02  -2.606403e+01
   7.646016e+01   4.516926e+01
   3.129833e+01   2.620797e+01
   5.387091e+01  -1.826921e+01
   8.007382e+01  -4.136286e+00
   5.593111e+01   5.190071e+01
  -3.337212e+01   9.083605e+01
  -9.802909e+01   6.714578e+01
  -8.467795e+01  -2.958835e+01
   2.254824e+01  -1.231633e+02
   1.512141e+02  -1.025094e+02
   1.933234e+02   7.686574e+01
   7.661244e+01   2.070143e+02
  -1.039741e+02   1.934700e+02
  -2.227075e+02   8.454835e+01
  -2.293399e+02  -9.667726e+01
  -1.161589e+02  -1.470537e+02
   4.441916e+01  -1.117969e+02
   8.474277e+01  -7.883193e+01
   6.312354e+01  -6.768630e+01
   5.606871e+01  -8.995513e+01
   8.525929e+01  -7.982937e+01
   1.254276e+02   8.902145e+00
   1.094922e+02   1.214778e+02
   3.920465e+01   2.111361e+02
  -9.956473e+01   1.623151e+02
  -1.813800e+02   1.066301e+01
  -1.474111e+02  -8.357854e+01
  -1.191030e+01  -1.366579e+02
   7.301044e+01  -7.357783e+01
   6.749453e+01   1.487075e+01
   1.729992e+00   4.643549e+01
  -2.123534e+01   3.536641e+01
   2.857154e+01   1.195526e+01
   6.632001e+01   1.169581e+01
   5.277826e+01   3.315268e+01
  -6.103069e+01   3.484111e+01
  -1.612906e+02  -1.514919e+01
  -1.432546e+02  -7.375391e+01
  -8.795238e+00  -8.960219e+01
   1.223369e+02  -8.637635e+01
   1.342602e+02  -9.073885e-01
   4.368137e+01   4.376422e+01
  -4.752878e+01   3.678170e+01
  -7.210550e+01  -1.963567e+01
  -1.919715e+01  -6.672956e+01
   3.106286e+01  -6.156547e+01
   6.281565e+01   2.737499e+00
   5.395027e+01   5.191325e+01
   5.038883e+01   3.730115e+01
   4.922255e+01  -9.133175e-01
   7.227549e+01   7.432164e+00
   3.365203e+01   6.005679e+01
  -7.353486e+00   1.455328e+02
  -1.104239e+02   1.423588e+02
  -1.520348e+02   4.035298e+01
  -1.166263e+02  -9.381921e+01
  -5.497689e-01  -1.187591e+02
   7.938812e+01  -6.001039e+01
   6.513647e+01   1.832973e+01
  -4.709658e+01   9.460343e+00
  -1.286205e+02  -3.141990e+01
  -6.795891e+01  -9.682401e+01
   7.069654e+01  -8.933762e+01
   1.822817e+02  -3.541385e+01
   1.544309e+02   2.495986e+01
   2.740318e+01   7.925185e+01
  -6.659257e+01   5.756612e+01
  -4.483231e+01  -5.719720e-01
   3.047276e+01  -3.347894e+01
   9.078844e+01   3.145903e+00
   3.946650e+01   1.079516e+02
  -6.978021e+01   1.574222e+02
  -1.350074e+02   7.812199e+01
  -1.044744e+02  -8.451023e+01
   1.570083e+01  -1.858947e+02
   7.535981e+01  -1.218242e+02
   1.071304e+02   1.050730e+01
   4.688909e+01   9.132650e+01
  -1.099533e+01   7.977887e+01
  -5.258580e+01   1.445644e+01
  -4.362571e+01  -2.190201e+01
  -1.929730e+01  -5.443832e+00
  -8.071265e-01   1.873679e+01
  -2.651761e+01  -1.621856e+01
  -6.645580e+01  -7.116331e+01
  -2.305778e+01  -9.918551e+01
   5.814424e+01  -4.746900e+01
   1.219976e+02   2.493732e+01
   1.173963e+02   6.091726e+01
   1.690318e+01   4.550963e+01
  -6.918727e+01   2.075774e+01
  -8.190537e+01   2.165256e+01
  -1.503943e+01  -9.496355e+00
   3.423636e+01  -2.104820e+01
   1.437472e+01  -1.135590e+01
  -1.472576e+01   4.170927e+00
   4.067832e+00   5.823280e+00
   5.312188e+01  -5.697263e+00
   8.992406e+01   1.464896e+01
   1.529160e+01   7.208089e+01
  -9.000014e+01   1.227156e+02
  -1.773800e+02   7.098400e+01
  -1.301067e+02  -4.337439e+01
  -2.772880e+01  -1.327460e+02
   6.466853e+01  -1.313055e+02
   1.008544e+02  -6.346285e+01
   7.073710e+01   1.960543e+01
   2.855219e+01   2.967685e+01
   3.188067e+00   1.007380e+01
   1.191906e+01   7.414992e+00
   2.820052e+01   4.188785e+01
   2.753657e+01   8.836507e+01
  -2.521443e+01   7.159892e+01
  -7.030548e+01  -1.565658e+01
  -6.498279e+01  -7.885861e+01
  -1.663440e+01  -9.862764e+01
   6.231873e+01  -2.783151e+01
   9.387774e+01   5.938317e+01
   3.001550e+01   1.058392e+02
  -5.935201e+01   6.489319e+01
  -9.323254e+01  -3.259137e+00
  -4.369159e+01  -3.877538e+01
   3.719421e+01  -5.721464e+01
   3.703041e+01  -2.830649e+01
  -2.625175e+01   6.421906e+00
  -5.831866e+01   1.124119e+00
  -2.070869e+01  -2.525507e+01
   5.898050e+01  -6.854534e+01
   1.118625e+02  -5.331274e+01
   5.583967e+01   1.912696e+01
  -1.052370e+01   7.243474e+01
  -4.331015e+01   9.097539e+01
  -3.661069e+01   1.079264e+01
  -9.414882e+00  -5.611773e+01
   1.697375e+01  -4.062852e+01
   3.542470e+01   1.074029e+01
   3.441232e+01   4.562963e+01
  -1.572680e+00   3.019220e+01
  -3.286031e+01  -6.640714e+00
  -4.287922e+01  -1.848372e+01
  -2.035079e+01  -2.925297e+00
   1.946059e+00   1.797646e+01
   7.405614e+00   6.390611e+00
  -1.747124e+00  -2.591547e+01
   1.434349e+00  -4.790491e+01
   2.335444e+01  -2.257722e+01
   3.964365e+01   3.041634e+01
   7.456286e+00   5.526270e+01
  -4.103308e+01   2.591785e+01
  -5.149473e+01  -2.358159e+01
  -1.866964e+01  -5.535998e+01
   4.021150e+01  -2.792805e+01
   8.349499e+01   9.908937e+00
   4.181215e+01   3.866242e+01
  -2.593041e+01   4.857213e+01
  -6.382274e+01   3.336238e+01
  -2.406581e+01   4.354385e+00
   2.549936e+01  -4.410522e+00
   3.339347e+01   6.636905e+00
  -2.068922e+01   2.505827e+01
  -6.326991e+01   3.528654e+01
