
 $NMID
 id='ANONYMOUS ', fmtdat='(2E16.6)'
 volume=1.0
 tramp=1.0
 $END
   2.415674e+03   3.123287e+02
   1.342851e+03   1.286448e+03
  -5.018509e+02   1.594690e+03
  -9.824071e+02   4.014968e+02
  -6.788464e+02  -4.756469e+02
   3.284691e+02  -3.500028e+02
   3.781747e+02   2.752739e+02
  -5.501417e+01   4.691952e+02
  -4.267663e+02   4.191813e+02
  -4.870156e+02   3.182500e+01
  -2.272776e+02  -4.286084e+02
   2.393548e+02  -3.878140e+02
   3.349368e+02  -7.093575e+01
   1.681302e+02   2.418445e+02
  -1.238184e+02   3.139501e+02
  -3.414388e+02  -8.377449e+01
  -1.151889e+02  -3.992645e+02
   1.786097e+02  -3.251750e+02
   3.048702e+02  -1.387949e+02
   2.287409e+02   2.663729e+02
   1.121416e+01   2.513704e+02
  -1.398801e+02   1.361735e+02
  -1.218165e+02   1.954023e+00
  -7.378736e+00   2.300322e+01
   2.166093e+02   8.675076e+01
   5.476242e+01   2.003627e+02
  -2.137951e+02   1.797828e+02
  -4.799595e+02  -9.750739e+01
  -2.140950e+02  -2.589144e+02
   1.246379e+02  -1.828226e+02
   2.920485e+02   2.775921e+00
   1.811386e+02   1.981636e+02
  -1.477551e+02   3.066262e+02
  -2.853477e+02   2.635889e+01
  -1.604187e+02  -9.262582e+01
   9.718625e+00  -2.228804e+02
   1.147717e+02  -1.719685e+02
   1.079005e+02   1.007779e+02
  -9.832711e+01   2.532072e+02
  -1.793290e+02  -1.539860e+01
  -1.213177e+02  -3.730669e+02
   1.443378e+02  -3.242477e+02
   2.756867e+02   1.718365e+01
   1.404868e+02   2.382009e+02
  -1.517262e+02   1.168742e+02
  -2.130641e+02  -6.112702e+01
   3.464998e+01  -2.749878e+02
   2.121208e+02  -5.611266e+01
   2.471597e+02   1.720860e+02
   1.435777e+02   2.438267e+02
  -1.546093e+02   1.418460e+02
  -2.646413e+02  -2.466369e+01
  -1.440497e+02  -1.946160e+02
   6.476444e+01  -2.126732e+02
   2.405547e+02   4.422420e+01
   9.165105e+01   1.094769e+02
  -7.349837e+01   9.180488e+01
  -8.873957e+01  -8.607883e+01
   6.819409e+01  -1.113853e+02
   1.567172e+02   1.558766e+01
   8.155906e+01   1.245573e+02
  -1.074649e+02   9.955713e+01
  -1.741525e+02   1.864474e+00
  -7.498695e+01  -7.236351e+01
   5.267370e+01  -1.090990e+02
   1.074957e+02  -1.453454e+02
   1.951266e+02  -1.072826e+02
   1.211771e+02   9.031866e+01
  -5.652563e+00   2.264412e+02
  -6.376624e+01   1.720705e+02
  -6.153159e+01   5.443457e+01
  -4.189747e+01   4.934825e+00
  -3.553087e+01   2.402963e+01
  -6.106358e+01   3.254148e+01
  -1.093605e+02  -3.848767e+01
  -7.204691e+01  -1.405299e+02
   2.647829e+01  -1.266542e+02
   1.230880e+02   3.045144e+00
   1.194798e+02   1.338512e+02
   5.776388e+00   1.229299e+02
  -1.256336e+02   4.720294e+01
  -1.431654e+02  -5.303335e+01
  -8.314614e+01  -2.150990e+02
   3.139343e+01  -1.681088e+02
   1.016037e+02  -8.403074e+01
   6.352755e+01  -3.065338e-01
   4.618315e+01  -1.532112e+01
   8.087339e+01  -2.177864e+01
   1.905987e+02   7.120416e+01
   9.508062e+01   1.271596e+02
  -5.513388e+01   2.730438e+02
  -2.165245e+02   1.746413e+02
  -2.343830e+02   9.321043e+01
  -1.615448e+02  -7.065733e+01
  -2.461116e+01  -1.595599e+02
   5.219230e+01  -1.441147e+02
   3.607257e+01  -1.777123e+01
  -4.075538e+01   3.318924e+01
  -8.728958e+01  -3.266312e+00
  -1.984125e+01  -8.788633e+01
   8.540910e+01  -8.574722e+01
   7.403534e+01   2.355166e+01
  -2.523472e+01   9.000744e+01
  -8.327960e+01   4.641780e+00
  -6.824678e+01  -8.295087e+01
   2.322277e+01  -1.988607e+02
   1.557746e+02  -9.728904e+01
   1.654604e+02   6.246130e+01
   1.283407e+02   1.250623e+02
  -6.070217e+00   1.104054e+02
  -7.013858e+01   6.996894e+01
  -6.995267e+01   2.108903e+01
  -3.362461e+01  -1.605202e+01
   2.068280e+01   2.856085e+01
   1.032290e+01   4.258636e+01
  -7.050433e+01   4.229948e+01
  -8.854544e+01  -1.207269e+01
  -1.639125e+01  -3.897751e+01
   3.515434e+01  -1.347740e+01
   2.493012e+01   4.009588e+01
  -6.082287e+01   3.100022e+01
  -1.504001e+02   9.265153e+00
  -1.171969e+02  -7.001249e+01
  -1.792426e+01  -1.140538e+02
   7.521143e+01  -7.600991e+01
   1.387018e+02  -2.960035e+01
   9.164697e+01   4.733806e+01
  -2.275387e+01   4.817339e+01
  -3.114558e+01  -4.843518e+00
   1.251955e+01  -4.387904e+01
   8.159698e+01  -1.320340e+01
   1.075881e+02   7.659038e+01
   2.260046e+01   1.211505e+02
  -3.769609e+01   4.997092e+01
  -6.311337e+01   2.563760e+01
  -3.059851e+01  -1.754172e+01
   1.026870e+01   4.809410e-01
  -1.075568e+01   5.482962e+01
  -5.269844e+01   4.788188e+01
  -9.673882e+01   4.285346e+00
  -1.049746e+02  -7.600627e+01
   3.764786e+00  -7.806348e+01
   8.463411e+01  -7.696882e+01
   8.914917e+01   4.104178e-01
   3.526999e+01   3.485372e+01
  -3.485247e+01   5.826193e+01
  -3.689220e+01   1.513595e+01
  -7.794891e+00  -9.725219e+00
   6.117321e+00  -7.640033e+00
  -1.054727e+01   4.692399e+00
  -3.225749e+01  -4.177238e+00
  -4.123844e+01  -5.728828e+01
   1.330084e+01  -8.446902e+01
   6.089360e+01  -5.552502e+01
   9.499970e+01  -7.918729e+00
   8.126577e+01   7.691815e+01
   3.996609e+01   9.172693e+01
  -4.746845e+01   6.723368e+01
  -6.416763e+01   6.483370e+00
  -3.037880e+01  -2.023202e+01
  -1.074570e+01  -1.308011e+01
  -2.210162e+01  -1.510013e+00
  -3.496449e+01  -5.398187e+00
  -6.537437e+00  -1.857802e+01
   2.964678e+01  -5.060070e+01
   4.639061e+01  -4.066403e+01
   4.055374e+01   1.998437e+01
  -6.514530e+00   4.648031e+01
  -6.803239e+01   3.633498e+01
  -8.399530e+01  -2.871963e+01
  -3.450644e+01  -9.050815e+01
   3.073922e+01  -1.137341e+02
   1.261404e+02  -4.172111e+01
   1.098858e+02   5.283393e+01
   2.257081e+01   1.194952e+02
  -2.450149e+01   7.216105e+01
  -3.471880e+01   4.273377e+01
  -4.046161e+01   2.542538e+01
  -5.061471e+01   5.294166e+01
  -4.168348e+01   1.925431e+01
  -5.863244e+01  -2.417527e+01
  -5.385718e+01  -8.736843e+01
   3.345989e+00  -6.632373e+01
   3.015175e+01  -8.658250e+01
   8.153247e+01  -4.885649e+00
   7.399860e+01   4.493337e+01
  -5.780545e+00   6.812814e+01
  -3.822797e+01   4.653960e+01
  -2.692854e+01   8.412037e+00
   3.209474e+00  -1.308126e+01
   4.966902e+00  -8.024399e+00
  -2.038407e+01  -1.314519e+01
  -3.263811e+01  -2.695194e+01
  -2.746112e+01  -1.759631e+01
   3.093060e+01  -5.556944e+00
   6.743213e+01   8.502536e+00
   6.391064e+01   2.390047e+01
   1.869332e+01   3.326049e+01
  -5.744557e+01   3.631596e+01
  -6.013044e+01   4.713407e+00
  -1.763787e+01  -1.419067e+01
   4.052577e+01  -1.508167e+01
   3.126284e+01   8.321458e+00
   3.186014e+00   3.822787e+01
  -3.921607e+01   3.336410e+01
  -3.228325e+01   8.688569e-01
  -1.586449e+01  -2.835990e+01
  -1.183066e+01  -2.662290e+01
  -3.045217e+01  -7.311518e+00
  -2.648326e+01   1.283841e+00
  -1.597259e+01  -4.007895e+01
   9.414540e+00  -6.593227e+01
   6.555988e+01  -6.033338e+01
   8.875891e+01  -1.401980e+01
   5.448394e+01   5.539074e+01
   4.463779e-01   5.355162e+01
  -4.328858e+01   2.934792e+01
  -2.777398e+01  -9.645719e+00
   2.489024e+01  -2.417767e+00
   6.017726e+01   3.485889e+01
   1.804627e+01   4.734814e+01
  -5.722324e+01   4.419608e+01
  -6.904156e+01   5.593506e+00
  -9.231801e+01  -2.022732e+01
  -8.955101e+00  -3.902414e+01
   3.297411e+01  -3.746592e+01
   2.500018e+01  -1.240117e+00
  -1.937198e+01   1.020425e+01
  -3.494865e+01  -9.995029e+00
  -2.454687e+01  -6.919901e+01
   4.071900e+01  -6.018665e+01
   7.285196e+01  -7.284809e+00
   4.607019e+01   5.122379e+01
  -7.870223e+00   1.084067e+02
  -5.719695e+01   6.890674e+01
  -3.937215e+01   3.299938e+00
  -2.343438e+01  -4.797209e+01
   1.905672e+01  -5.541056e+01
   2.287271e+01  -7.129720e+00
   2.393392e+01   1.715756e+01
   1.524249e+01   7.238679e+00
   3.913968e-01  -8.641747e+00
   7.274586e+00   6.141119e+00
   1.316626e+01   4.259369e+01
   1.792140e+01   5.463185e+01
  -2.245276e+01   2.338161e+01
  -6.827486e+01  -2.907611e+01
  -6.107526e+01  -5.338533e+01
  -6.991417e+00  -2.054902e+01
   3.879914e+01  -7.587081e+00
   3.337372e+01  -3.141458e+00
   3.201575e+00   5.172253e+00
  -1.696732e+01   8.323516e+00
  -7.465024e+00   4.844028e+00
   1.289994e+01   3.936093e-01
  -2.715181e+00  -5.695507e+00
  -3.127225e+01  -6.917785e+00
  -4.979374e+01  -1.500485e+01
   2.156228e+00  -5.026585e+01
   7.843971e+01  -2.678766e+01
   7.485747e+01  -7.240143e+00
   7.624925e+01   6.851192e+01
  -2.719446e+00   8.315879e+01
  -4.233988e+01   7.220156e+01
  -4.820141e+01   9.092692e+00
  -4.229972e+01  -2.406409e+01
  -6.364124e+00  -1.895316e+01
   1.099042e+00  -5.592652e+00
  -4.175107e+00  -3.024120e+00
  -1.416463e+01  -2.272228e+01
  -4.236783e+00  -4.166297e+01
   9.759102e+00  -3.055560e+01
   3.674564e+01   2.706250e+01
   4.027644e+01   5.879997e+01
  -1.194648e+01   6.027839e+01
  -4.915107e+01   1.548341e+00
  -5.392332e+01  -4.018468e+01
  -7.205554e+00  -6.177614e+01
   2.733201e+01  -2.560392e+01
   3.637521e+01   1.741679e+01
   2.379213e+01   1.887957e+01
  -2.469690e+01   2.491643e+01
  -4.557125e+00   1.264474e+01
   1.269274e+01   1.208895e+00
   2.708713e+01  -8.848205e+00
   5.402630e+00   1.766879e+01
  -5.281744e+01   1.996647e+01
  -6.211489e+01   2.863249e+01
  -2.421222e+01   7.874927e-01
   1.682994e+01  -3.820475e+01
   3.471696e+01  -3.484575e+01
   2.423250e+01  -2.166541e+00
  -2.892107e+00   2.476891e+01
  -1.952561e+01   2.352506e+01
  -2.023398e+01  -1.142750e+01
  -8.352313e+00  -2.441711e+01
   4.214011e+00  -1.368467e+01
   1.601324e+01   1.927619e+00
   1.852046e+01   1.626713e+01
   6.180646e+00   4.204563e+00
  -1.865569e+00  -6.717296e+00
  -4.469814e+00   1.630060e+00
  -3.375286e+00   1.314578e+01
  -1.292301e+01   1.860796e+01
  -1.838717e+01  -8.948017e-01
  -1.221434e+01  -2.713084e+01
   2.390414e+00  -3.681847e+01
   2.377071e+01  -3.961269e+00
   3.030222e+01   2.179855e+01
   4.649601e+00   3.359594e+01
  -3.446941e+01   1.204168e+01
  -4.682762e+01  -1.504711e+01
  -1.721999e+01  -3.483945e+01
   1.011975e+01  -1.538164e+01
   2.930136e+01  -5.626503e+00
   9.786444e+00   5.544752e+00
  -1.579808e+01  -1.899396e+00
  -1.189639e+01  -7.033152e+00
   1.377142e+01  -1.326283e+01
   4.910459e+01  -1.768015e+00
