
 $NMID
 id='ANONYMOUS ', fmtdat='(2E16.6)'
 volume=1.0
 tramp=1.0
 $END
  -1.482878e+03  -6.187347e+02
  -2.973185e+02  -1.135043e+03
   1.214007e+01  -6.341725e+02
   7.277042e+02  -2.886843e+02
   4.167620e+02  -8.377508e+01
  -4.036548e+00  -6.397296e+01
  -1.729512e+01  -1.535920e+02
   2.145728e+02  -1.922802e+02
   3.541777e+02  -1.448938e+02
   2.994949e+02  -7.794472e+00
   6.118433e+01   2.787671e+02
  -9.684408e+01   3.041983e+02
  -1.478823e+02   9.006559e+01
  -4.068818e+01  -2.466629e+02
   1.260586e+02  -2.049267e+02
   2.693511e+02   3.370548e+00
   1.262529e+02   2.397979e+02
  -9.229562e+01   2.424747e+02
  -1.716627e+02  -3.861492e+01
  -2.448076e+02  -1.168698e+02
  -3.319051e+01  -2.074147e+02
   6.227564e+01  -1.097808e+02
   6.036617e+01  -4.848257e+01
  -8.157463e+01  -1.076113e+02
  -1.493898e+02  -2.566144e+02
   1.425139e+02  -2.814296e+02
   3.070629e+02  -4.065647e+01
   2.725853e+02   1.889786e+02
   1.010899e+02   1.963437e+02
  -1.673093e+02   7.561370e+01
  -2.275376e+02  -7.511671e+01
  -8.119234e+00  -2.477570e+02
   1.990216e+02  -1.208783e+02
   2.389913e+02   4.975364e+01
   1.313228e+02   1.450429e+02
   2.744895e+01   2.012275e+02
  -8.961662e-01   6.810973e+01
   5.092308e+01  -5.964601e+01
   1.029781e+02  -8.936797e+01
   4.983939e+01   1.923432e+02
  -6.292951e-01   2.125742e+02
  -1.982222e+02   1.688906e+02
  -1.517513e+02  -3.982875e+01
   4.478049e+01  -8.820765e+01
   1.030731e+02   1.895813e+01
   5.718195e+01   1.912355e+02
  -2.129956e+02   1.699604e+02
  -2.699207e+02  -6.032064e+01
  -8.430830e+01  -2.775672e+02
  -6.556516e+01  -2.666749e+02
   1.926516e+02  -8.601659e+01
   2.892096e+02   8.122884e+01
   9.528845e+01   1.755238e+02
  -7.420615e+01   9.774894e+01
  -1.258003e+02   2.576859e+01
  -8.601677e+01  -3.210915e+01
  -1.217078e+01  -1.033421e+01
  -1.381012e+01   1.590434e+00
  -6.374099e+01   4.706309e+00
  -9.352908e+01  -2.233475e+01
  -4.733931e+01  -1.411034e+02
   1.370017e+02  -8.841867e+01
   1.742330e+02  -3.919760e+01
   1.275950e+02   7.103329e+01
  -2.493790e+01   1.896202e+02
  -2.126805e+02   1.876579e+02
  -2.008545e+02   6.088444e+01
  -5.235163e+01  -1.108250e+02
   9.421438e+01  -1.886130e+02
   7.825665e+01  -1.559594e+02
   1.891573e+01  -7.567602e+01
   3.584829e+01  -6.167371e+01
   6.810820e+01  -6.379270e+01
   1.293200e+02  -2.835589e-02
   1.082989e+02   1.029119e+02
   4.131894e+00   1.749981e+02
  -9.659873e+01   1.088571e+02
  -1.164431e+02  -5.286386e+01
  -1.309423e+01  -1.533953e+02
   7.029334e+01  -9.530915e+01
   1.390056e+02   1.284723e+01
   1.266000e+02   1.481409e+02
   3.189212e+01   2.130508e+02
  -5.843237e+00   8.904799e+01
  -7.070883e+01   2.623252e+01
  -7.022691e+01   3.095568e+01
  -8.026883e+01   2.253623e+01
  -1.453201e+02   1.481793e+01
  -1.675202e+02  -1.266723e+02
  -1.180119e+02  -2.438203e+02
   9.468953e+01  -1.944550e+02
   2.296440e+02  -1.743941e+02
   2.803117e+02   3.213136e+01
   1.615638e+02   9.697187e+01
  -3.435918e+01   1.175646e+02
  -1.087853e+02   6.328097e+01
   1.034932e+01   9.220074e+00
   7.898735e+01   1.149868e+01
   4.968503e+01   4.918039e+01
  -4.882002e+01   4.564053e+01
  -1.082114e+02  -1.041513e+00
  -4.137381e+01  -6.950245e+01
   4.674879e+01  -5.166137e+01
   6.777345e+01   2.558133e+01
   5.667525e+01   1.307886e+02
  -1.963517e+01   1.682921e+02
  -1.765347e+02   9.921044e+01
  -1.205176e+02  -1.059457e+02
  -1.210720e+02  -1.487914e+02
   3.103337e+01  -1.865122e+02
   1.141941e+02  -4.811901e+01
   7.329983e+01   3.204270e+01
   9.181358e+00   1.458123e+01
  -1.163274e+01  -5.365342e+01
   3.293612e+01  -6.239533e+01
   8.186542e+01  -1.906379e+01
   4.450435e+01   2.722047e+01
   4.145490e+00   3.633782e+01
  -4.827450e+01  -1.901395e+01
  -8.100437e+00  -7.032154e+01
   9.662778e+01  -3.738345e+01
   1.322283e+02   4.288723e+01
   1.378157e+02   1.384790e+02
  -6.451299e+01   1.473003e+02
  -1.342026e+02   9.868237e+01
  -1.534432e+02  -3.778038e+01
  -3.682722e+01  -7.182091e+01
   1.754895e+01  -4.345492e+01
   4.286996e+01   2.193754e+01
  -4.585186e+01   2.892821e+01
  -1.067074e+02  -1.970167e+01
  -8.314439e+01  -9.559855e+01
  -1.600723e+00  -8.707833e+01
   5.739085e+01  -5.123131e+01
   5.478838e+01   1.626997e+01
   7.911114e+00   3.655344e+01
  -2.679561e+01  -2.682571e+01
   2.701804e+01  -7.224250e+01
   6.737899e+01  -5.474212e+01
   1.182136e+02   3.025326e+01
   8.398089e+01   9.027205e+01
  -4.642721e+01   1.089693e+02
  -9.952092e+01   9.609906e+01
  -8.473497e+01  -1.647314e+01
  -1.824635e+01  -4.081198e+01
   5.414855e+01  -3.709125e+01
   3.355355e+01   4.232499e+00
  -8.614247e+00   1.680766e+01
  -2.029730e+01   1.817207e+00
   7.344100e+00  -1.074203e+01
   4.532205e+01   5.209206e+00
   1.987789e+01   5.949012e+01
  -2.488610e+01   9.889474e+01
  -1.185803e+02   5.484656e+01
  -1.188317e+02  -5.037274e+01
  -1.111779e+02  -1.220132e+02
   2.105511e+00  -1.223768e+02
   7.431832e+01  -5.803042e+01
   7.798987e+01   1.066474e+01
   3.843978e+01   3.705977e+01
   1.019610e+01   2.085725e+01
   3.487125e+01   3.547647e-01
   4.567795e+01   2.440298e+00
   2.320083e+01   3.503067e+01
  -1.661015e+01   5.088986e+01
  -6.347712e+01   2.328685e+01
  -4.312758e+01  -4.215947e+01
   1.486850e+01  -6.489761e+01
   1.113570e+02  -2.237567e+01
   9.592234e+01   4.363293e+01
   2.862850e+01   1.262799e+02
  -8.282303e+01   1.038463e+02
  -1.554984e+02  -5.198113e+00
  -1.298284e+02  -7.937408e+01
  -4.490644e+00  -1.204821e+02
   4.505258e+01  -5.101389e+01
   5.655659e+01  -3.100641e+01
   3.498285e+01  -2.946827e+01
   5.138472e+01  -5.196814e+01
   5.381316e+01  -2.550813e+01
   6.566160e+01   3.641435e+01
   3.158763e+01   1.046966e+02
  -2.698588e+01   1.073591e+02
  -7.667847e+01   8.245829e+01
  -9.016786e+01  -1.207276e+01
  -3.150263e+01  -1.040818e+02
   7.720624e+00  -6.968179e+01
   3.291734e+01  -2.837922e+01
   3.324921e+01   1.570588e+01
  -1.243434e+01   3.056706e+01
  -2.083997e+01   1.958252e+01
   1.162422e+01   1.204655e+01
   4.152346e+01   2.595144e+01
   1.785122e+01   1.986744e+01
  -5.403433e+01   4.581816e+00
  -9.382517e+01  -1.346135e+01
  -8.512586e+01  -5.543502e+01
   5.209751e+00  -4.773864e+01
   9.378171e+01  -3.384342e+01
   7.937804e+01   8.580601e+00
   1.597134e+01   3.537363e+01
  -4.082124e+01   6.966318e+00
  -4.253822e+01  -2.225567e+01
   1.644812e-01  -3.821605e+01
   3.499890e+01  -2.210118e+01
   3.944798e+01  -2.366831e+00
   3.307823e+01   2.972985e+01
   1.625709e+01   3.068155e+01
   2.101826e+01   5.509442e+00
   3.884371e+01  -9.894830e-01
   1.437844e+01   4.197154e+01
  -4.371590e+01   6.378555e+01
  -8.448167e+01   6.350026e+01
  -7.458117e+01   1.020941e+01
  -6.054794e+01  -6.147980e+01
   1.574251e+01  -7.448224e+01
   5.795047e+01  -1.966609e+01
   3.208312e+01   1.238844e-01
  -3.279709e+01   7.902722e+00
  -6.033429e+01  -4.003104e+01
  -1.170192e+01  -5.896978e+01
   6.805338e+01  -3.805162e+01
   1.044981e+02   7.465590e+00
   7.055282e+01   3.247430e+01
   5.893813e+00   4.756035e+01
  -4.412656e+01   1.795370e+01
  -2.569721e+01  -8.268869e+00
   2.882717e+01  -7.781082e+00
   4.170853e+01   2.595392e+01
   1.083567e+01   6.678776e+01
  -5.572830e+01   7.104997e+01
  -9.251877e+01   7.426459e+00
  -4.576810e+01  -4.938602e+01
  -5.244466e+00  -1.027354e+02
   5.952263e+01  -5.541021e+01
   5.111111e+01   1.451075e+01
   6.511244e+00   6.447247e+01
  -3.579853e+01   4.267281e+01
  -3.227611e+01  -1.325373e+00
  -1.852174e+01  -2.891768e+01
  -7.932083e+00  -1.128602e+01
  -7.988058e+00   7.393858e+00
  -1.488688e+01  -1.158454e+01
  -1.321833e+01  -5.851831e+01
  -1.433146e+01  -5.712631e+01
   2.796976e+01  -2.014192e+01
   3.715989e+01   3.705859e+01
   6.238626e+01   6.563971e+01
   1.628004e+00   3.042494e+01
  -4.669705e+01   8.513637e+00
  -4.384067e+01  -3.893519e+00
  -8.888692e+00  -8.693976e+00
   2.098744e+01  -1.006492e+01
   1.472905e+01  -3.458278e+00
  -7.497608e+00  -1.548399e+00
  -1.371353e+00   1.727895e+00
   3.132333e+01   1.289764e+01
   4.312008e+01   2.415016e+01
   2.343288e+00   4.865488e+01
  -8.565198e+01   5.198322e+01
  -1.069950e+02   5.166292e-01
  -7.592172e+01  -5.850554e+01
  -1.009718e+01  -7.830685e+01
   6.581596e+01  -6.581304e+01
   6.559352e+01  -2.048808e+01
   3.468791e+01   2.478626e+01
   6.835900e+00   2.642495e+01
   8.590580e-01   6.640290e+00
   6.542219e+00   5.520562e+00
   3.246021e+00   2.858296e+01
   2.112698e+00   4.972145e+01
  -2.465916e+01   3.292379e+01
  -3.684785e+01  -2.132054e+01
  -3.849768e+01  -4.927213e+01
   2.067060e+01  -5.882694e+01
   3.985145e+01  -7.348711e+00
   4.257390e+01   3.457366e+01
   1.037579e+01   6.301627e+01
  -5.006453e+01   2.720276e+01
  -4.706193e+01  -1.673066e+01
  -1.783371e+01  -3.318645e+01
   2.695246e+01  -2.687818e+01
   2.227391e+01  -1.760649e+01
  -1.209165e+01  -2.637829e+00
  -3.243533e+01   2.974118e+00
  -8.006509e+00  -2.058687e+01
   5.564162e+01  -4.916096e-01
   6.111263e+01  -1.424445e+01
   3.076857e+01   1.277139e+01
  -2.720594e+01   4.317582e+01
  -5.228260e+01   3.185078e+01
  -2.942475e+01  -4.997065e-01
  -3.535144e-02  -2.835059e+01
   2.334377e+01  -2.146661e+01
   1.812476e+01   8.647034e+00
   8.173882e+00   3.887603e+01
  -2.283825e+00   2.035380e+01
  -1.874504e+01   1.636785e+00
  -1.421129e+01  -2.195592e+01
  -1.097215e+01  -7.626253e+00
   1.311880e+00   1.231014e+01
   3.428835e+00   4.302034e+00
   1.649032e+00  -1.571945e+01
   3.465279e+00  -2.673624e+01
   1.977539e+01  -6.414764e+00
   1.857291e+01   2.338078e+01
   7.411324e+00   2.800847e+01
  -2.417872e+01   1.739958e+01
  -2.036051e+01  -2.492696e+01
  -3.811122e+00  -2.997499e+01
   3.321888e+01  -9.571549e+00
   4.345756e+01   2.279876e+01
   1.151427e+01   3.220531e+01
  -2.156056e+01   1.506476e+01
  -3.168202e+01   5.323454e+00
  -1.580602e+01  -5.750880e-01
   1.297124e+01   2.974035e+00
   1.694783e+01   2.197776e+00
  -1.516905e+01   3.194283e+00
  -4.307276e+01   4.445731e+00
