
 $NMID
 id='ANONYMOUS ', fmtdat='(2E16.6)'
 volume=1.0
 tramp=1.0
 $END
   1.547776e+03  -1.698648e+02
   1.410819e+03   8.683935e+02
   3.577806e+02   8.456712e+02
  -5.274509e+02   7.520837e+02
  -6.261248e+02   2.707728e+02
  -3.266277e+02  -2.400777e+02
   1.032435e+02   1.186269e+02
   3.111221e+01   2.664559e+02
  -8.519516e+01   2.540034e+02
  -4.137914e+02   2.789939e+01
  -1.644071e+02  -2.285529e+02
  -3.067339e+01  -4.072271e+02
   1.524408e+02  -1.473049e+02
   1.123468e+02   2.750304e+02
  -1.497101e+02   3.223152e+02
  -1.881776e+02   5.156432e+01
  -9.867847e+01  -2.607291e+02
   7.342776e+01  -3.370830e+02
   2.667577e+02  -1.665302e+02
   2.268871e+02   8.426326e+01
   5.919586e+01   2.073556e+02
  -4.604504e+01   1.655899e+02
  -4.714977e+01   7.320384e+01
   1.000669e+02   1.420097e+02
   1.044306e+02   2.528543e+02
  -7.132254e+01   1.880865e+02
  -3.779874e+02   1.012579e+02
  -2.859392e+02  -1.316272e+02
  -7.600116e+01  -2.138337e+02
   3.653074e+02  -1.273692e+02
   2.091204e+02   1.321191e+02
   6.869691e+01   2.396154e+02
  -1.503831e+02   1.776352e+02
  -2.344303e+02   5.941244e+01
  -1.771001e+02  -5.163905e+01
  -5.114816e+01  -1.883666e+02
  -3.478489e+01  -1.226988e+02
  -6.501944e+01   7.935181e+01
  -1.106921e+02   1.151191e+02
  -4.336676e+01  -8.563991e+01
   8.810290e+01  -2.918067e+02
   1.893785e+02  -2.050824e+02
   7.428494e+01   5.178560e+01
   2.920739e+00   1.114221e+02
  -1.030792e+02   5.140584e+01
  -1.271924e+02  -1.863516e+02
   7.475479e+01  -1.745044e+02
   2.701836e+02   2.440047e+01
   2.623442e+02   1.660699e+02
   1.401949e+02   3.545719e+02
  -2.200989e+02   1.659267e+02
  -3.098687e+02  -2.719084e+01
  -1.956376e+02  -1.356978e+02
   6.576176e+00  -1.226027e+02
   1.853582e+02  -1.273447e+01
   1.247420e+02  -1.133989e+01
   6.654776e+01  -2.809636e+01
   3.414148e+00   5.060199e+00
   4.378819e+01  -1.727547e+01
   1.704599e+02   1.829836e+01
   6.826808e+01   1.452645e+02
  -1.163276e+02   1.594290e+02
  -1.894674e+02   1.039608e+02
  -1.640279e+02  -7.648973e+01
   3.899580e+01  -2.409643e+02
   2.429464e+02  -2.899178e+02
   2.489191e+02  -7.742308e+01
   1.241641e+02   1.175920e+02
  -1.014392e+01   1.410040e+02
  -5.249588e+01   2.427540e+02
  -2.386110e+01   1.317558e+02
  -4.910379e+01   1.046852e+02
  -1.315112e+02   9.938528e+01
  -1.558268e+02   6.966363e+00
  -1.402326e+02  -8.906907e+01
  -2.560013e+01  -1.957530e+02
   7.654667e+01  -1.234633e+02
   1.224199e+02   4.550965e+01
   6.085278e+01   1.609260e+02
  -6.921751e+01   1.527637e+02
  -1.510347e+02   1.501199e+01
  -2.313837e+02  -1.580843e+02
  -9.169535e+01  -2.002970e+02
   3.974082e+01  -1.793905e+02
   8.647514e+01  -8.336705e+01
   1.031055e+02  -5.345301e+01
   1.121437e+02  -4.776658e+01
   1.798373e+02  -1.695704e+01
   2.523731e+02   1.121052e+02
   1.350449e+02   1.973184e+02
  -7.517100e+01   2.813658e+02
  -2.834242e+02   3.035075e+02
  -3.203290e+02   8.016979e+01
  -2.001736e+02  -1.084030e+02
   1.953651e+01  -1.616345e+02
   6.577561e+01  -1.013597e+02
  -5.532423e+00  -1.132931e+01
  -9.050967e+01   2.235623e+00
  -6.965100e+01  -3.519458e+01
   2.526516e+00  -5.905993e+01
   6.118675e+01  -3.010839e+01
   3.616780e+01   4.266880e+01
  -5.778767e+01   4.467185e+01
  -7.769768e+01  -5.154284e+01
  -1.030153e+02  -1.772650e+02
   2.069860e+01  -1.952916e+02
   1.872851e+02  -1.323780e+02
   2.201160e+02   5.508045e+01
   1.723158e+02   2.165028e+02
  -1.271068e+00   1.900469e+02
  -9.327169e+01   5.050355e+01
  -8.025005e+01  -1.514250e+01
  -1.623801e+01  -1.365919e+01
   2.496250e+01   4.805911e+01
  -2.016804e+01   5.971723e+01
  -9.721714e+01   2.390477e+01
  -9.386617e+01  -2.471020e+01
  -5.734245e+00  -2.896378e+01
   4.831701e+01   3.855505e+00
   8.498348e+00   6.817811e+01
  -1.317302e+02   6.986059e+01
  -2.214531e+02   1.044582e+01
  -1.668481e+02  -1.388354e+02
   1.033740e+00  -1.682988e+02
   1.389407e+02  -1.836455e+02
   1.503851e+02   1.035934e+01
   7.083414e+01   4.421876e+01
  -2.620352e+01   4.345335e+01
  -3.215227e+01  -1.030875e+01
   3.827029e+01  -5.148581e+01
   1.328128e+02  -1.354683e+00
   6.793764e+01   9.098679e+01
  -9.648192e+00   1.231249e+02
  -6.593121e+01   8.168263e+01
  -6.542840e+01  -2.465545e+00
  -1.636538e+01  -2.471286e+01
   2.377111e+01   2.093095e+01
   1.509834e+00   7.373955e+01
  -8.208914e+01   7.694671e+01
  -1.393808e+02  -1.480827e+01
  -8.336670e+01  -1.080407e+02
   2.801330e+01  -1.190049e+02
   1.017852e+02  -9.478337e+01
   1.050477e+02  -2.049514e+01
   2.969589e+01   7.030228e+01
  -4.722061e+01   5.266717e+01
  -4.002255e+01   1.371484e+01
   6.506976e+00  -1.194817e+01
   2.953320e+01  -9.108375e-01
  -7.393415e+00   2.129830e+01
  -6.516814e+01  -8.398143e-01
  -6.202080e+01  -7.648059e+01
   1.622528e+01  -1.244536e+02
   1.052224e+02  -8.226091e+01
   1.587015e+02   5.008465e+00
   9.872772e+01   1.516071e+02
   9.534894e+00   1.702897e+02
  -6.392333e+01   9.152126e+01
  -9.836172e+01   1.571997e+01
  -5.666191e+01  -2.845844e+01
  -2.130324e+01  -1.937566e+01
  -3.515968e+01   4.666918e+00
  -6.543724e+01   6.887775e+00
  -4.669636e+01  -4.480425e+01
   2.793005e+01  -7.162700e+01
   9.555022e+01  -3.882683e+01
   5.758767e+01   3.372333e+01
  -8.684432e+00   1.038876e+02
  -1.131530e+02   3.492024e+01
  -1.271936e+02  -5.707259e+01
  -7.295048e+01  -1.778914e+02
   1.027470e+02  -1.535988e+02
   2.011140e+02  -1.397495e+01
   1.499152e+02   8.889771e+01
   5.067845e+01   1.030909e+02
  -2.991967e+01   9.632567e+01
  -5.646054e+01   4.263719e+01
  -5.523643e+01   3.651168e+01
  -5.499616e+01   7.214322e+01
  -7.177967e+01   4.902111e+01
  -7.757554e+01  -2.807758e+01
  -8.881047e+01  -1.150005e+02
   1.479249e+01  -1.623910e+02
   6.792983e+01  -1.177290e+02
   1.272343e+02  -2.335393e+00
   4.965624e+01   8.937986e+01
  -7.256771e+00   1.074034e+02
  -6.368143e+01   5.872736e+01
  -4.241605e+01  -9.590780e+00
   9.233309e+00  -3.541401e+01
   2.905368e+01  -2.545851e+01
  -1.853063e+01  -1.009329e+01
  -5.608051e+01  -2.393363e+01
  -3.506388e+01  -3.105470e+01
   5.292099e+01  -2.564625e+01
   1.155274e+02  -4.301322e+00
   9.948305e+01   6.304389e+01
  -9.511058e+00   7.592389e+01
  -9.934604e+01   4.004488e+01
  -1.023829e+02   4.644482e-01
  -2.156839e+01  -2.967079e+01
   3.632198e+01  -2.235332e+01
   5.194474e+01   1.879997e+01
   1.369480e+01   5.393061e+01
  -2.641926e+01   3.207051e+01
  -4.629520e+01  -2.133617e+00
  -5.121874e+01  -3.835562e+01
  -3.219817e+01  -3.129239e+01
  -3.618022e+01  -8.239551e+00
  -4.837058e+01   7.926334e+00
  -2.449197e+01  -4.886198e+01
   1.748617e+01  -9.705226e+01
   8.836116e+01  -9.640106e+01
   1.456125e+02  -1.628352e+01
   9.291971e+01   7.580091e+01
  -2.522055e+00   7.994464e+01
  -6.850368e+01   4.344201e+01
  -4.629572e+01  -2.148493e+00
   4.107826e+01  -1.622514e+01
   9.150812e+01   4.677926e+01
   3.539204e+01   6.749523e+01
  -5.795069e+01   7.690159e+01
  -1.192428e+02  -7.577677e+00
  -9.925383e+01  -6.202691e+01
  -1.107491e+01  -6.840335e+01
   4.052604e+01  -3.790362e+01
   3.508010e+01   9.786987e+00
  -2.277590e+01   1.519105e+01
  -6.407295e+01  -1.905150e+01
  -1.493058e+01  -7.959764e+01
   5.837169e+01  -9.701936e+01
   9.437676e+01  -2.325268e+01
   7.501038e+01   3.674752e+01
   2.046067e+01   1.370523e+02
  -6.573356e+01   7.854742e+01
  -7.526315e+01  -1.000941e+01
  -2.796410e+01  -7.932608e+01
   2.550463e+01  -5.094048e+01
   3.444608e+01  -8.125458e+00
   2.658831e+01   1.865252e+01
   7.616947e+00   3.747604e+00
   7.830086e+00  -8.580374e+00
   2.866074e+01   1.756697e+01
   2.443992e+01   6.753475e+01
   1.471606e+01   8.623215e+01
  -4.053797e+01   3.354978e+01
  -7.943435e+01  -2.231350e+01
  -7.264548e+01  -5.905969e+01
  -1.016893e+01  -3.621498e+01
   6.050840e+01  -1.594289e+01
   5.541168e+01   2.800712e-01
   1.341652e+01   8.190181e+00
  -2.573007e+01   1.768567e+01
  -1.452116e+01   7.718878e-01
   7.235567e+00  -5.370995e+00
  -1.027216e+00  -2.349567e+00
  -4.034715e+01  -5.589425e+00
  -7.023206e+01  -2.199011e+01
  -1.843532e+01  -5.908761e+01
   7.713967e+01  -5.481344e+01
   1.217887e+02  -3.842528e+01
   9.818725e+01   3.505906e+01
   2.682563e+01   1.097853e+02
  -5.332812e+01   1.188667e+02
  -8.413332e+01   4.467751e+01
  -4.462011e+01  -1.370734e+01
  -2.163526e+00  -2.733763e+01
  -1.773719e+00  -9.787709e+00
  -9.825530e+00  -8.439408e+00
  -1.683887e+01  -2.836713e+01
  -8.834266e+00  -6.410636e+01
   2.045437e+01  -5.332075e+01
   4.357028e+01   1.373396e+01
   4.759140e+01   6.464571e+01
   1.228916e+01   5.935895e+01
  -4.494913e+01   2.396112e+01
  -7.148188e+01  -4.948392e+01
  -1.927980e+01  -6.829930e+01
   5.240074e+01  -4.463014e+01
   6.237439e+01   6.704163e+00
   3.219980e+01   4.871674e+01
  -2.639091e+01   4.165774e+01
  -3.672730e+01   2.134107e+01
   1.658557e+01  -5.014237e+00
   5.075109e+01  -1.070865e+01
   1.195285e+01   2.043400e+01
  -4.609893e+01   2.637093e+01
  -8.027489e+01   2.162651e+01
  -5.184014e+01  -1.169623e+01
   1.388068e+01  -6.845890e+01
   4.497990e+01  -5.850843e+01
   2.698271e+01  -9.792982e+00
   7.939908e+00   3.989978e+01
  -2.668425e+01   3.411468e+01
  -2.096876e+01  -2.530578e+00
  -1.950091e+01  -3.403964e+01
  -1.305967e+00  -2.713676e+01
   2.534403e+01   2.660415e-01
   1.973882e+01   2.460801e+01
   1.171983e+01   7.144356e+00
  -5.934240e+00  -1.477527e+01
  -7.064542e+00  -8.325701e+00
   2.522184e+00   1.956371e+01
  -1.379134e+00   3.822237e+01
  -1.742393e+01   1.862731e+01
  -2.391184e+01  -2.934418e+01
  -1.552551e+01  -4.106279e+01
   2.875093e+01  -1.942038e+01
   4.106845e+01   2.473866e+01
   1.351116e+01   3.965625e+01
  -3.811332e+01   1.962391e+01
  -5.103348e+01  -1.051880e+01
  -2.709845e+01  -2.564864e+01
   2.351373e+01  -3.468598e+01
   4.806754e+01  -1.782187e+01
   1.920358e+01  -3.247076e+00
  -1.381717e+01  -2.073364e+00
  -2.234683e+01  -4.177019e+00
   1.365346e+01  -1.443253e+01
   5.639644e+01  -9.461502e+00
