
 $NMID
 id='ANONYMOUS ', fmtdat='(2E16.6)'
 volume=1.0
 tramp=1.0
 $END
  -9.620511e+02   2.994450e+02
  -7.716233e+02  -1.924859e+02
  -2.737384e+02  -4.484028e+02
   3.901114e+02  -3.662767e+02
   7.120695e+01  -4.274700e+01
  -1.786076e+02   6.802922e+01
  -2.772555e+02  -2.108305e+01
   1.925837e+01  -2.733799e+02
   1.228253e+02  -1.978387e+02
   2.956076e+02  -4.880468e+01
   2.167450e+02   2.325684e+02
  -3.125362e+00   1.459990e+02
  -6.456611e+01   2.750852e+01
  -1.515342e+02  -1.352972e+02
  -4.875166e+01  -2.788859e+02
   1.079950e+02   1.299479e+01
   6.911695e+01   3.733747e+01
  -5.528221e+01   2.128317e+02
  -8.176556e+01   9.707074e+01
  -1.613261e+02  -1.275517e+01
  -4.342676e+01  -6.837136e+01
   1.503501e+01  -8.750806e+01
   2.524374e+01  -2.055964e+01
  -8.657632e+01  -1.434620e+01
  -1.136971e+02  -1.007114e+02
  -4.090778e+01  -1.674599e+02
   5.240651e+01  -9.423252e+01
   1.989604e+02  -6.906792e+01
   1.271146e+02   1.495928e+02
   3.129178e+01   1.673030e+02
  -2.284808e+02  -5.778143e+01
  -1.164677e+02  -1.110979e+02
   2.619170e+00  -7.595979e+01
   1.834967e+02  -3.067237e+01
   1.194566e+02   4.784032e+01
   8.927525e+00   1.176347e+02
  -1.725875e+01   1.173006e+01
  -3.071279e+01   8.392259e-02
   7.062749e+00  -6.603193e+01
   1.212574e+02   2.358443e+01
   1.341056e+01   1.566869e+02
  -2.354220e+01   1.942994e+02
  -9.225976e+01   5.642779e+01
  -3.637793e+01  -1.115954e+02
   9.595472e+01  -4.042361e+01
   1.063516e+02   8.525058e+01
   3.647746e+01   1.035724e+02
  -1.525420e+02   3.760138e+01
  -1.724707e+02  -1.094708e+02
  -5.293148e+01  -1.756749e+02
   7.541499e+01  -1.411895e+02
   1.561657e+02  -3.164521e+01
   1.473366e+02   1.640236e+00
  -9.593911e+00   7.820101e+01
  -1.258301e+02   1.042527e+02
  -5.084462e+01  -2.657558e+01
  -2.079157e+01  -2.457045e+01
   1.228643e+01   2.330395e+01
  -4.261048e+01   1.645531e+01
  -9.758741e+01   1.527547e+01
  -6.229095e+01  -5.415143e+01
   1.675964e+01  -1.060273e+02
   1.044926e+02  -6.162559e+01
   7.094286e+01   6.163456e+01
  -3.335850e+00   6.887589e+01
  -5.080785e+01   1.412322e+02
  -6.684060e+01   8.321452e+01
  -8.044731e+01  -3.937505e+01
  -3.654676e+01  -1.813119e+02
  -4.358931e+01  -1.454647e+02
  -1.669436e+01  -3.097033e+01
   2.004817e+00  -2.716841e+01
   1.912204e+01  -3.914446e+01
   6.833915e+01  -2.670934e+01
   7.698577e+01   1.935665e+01
   5.466152e+01   7.508542e+01
  -1.014906e+01   5.188251e+01
  -4.653541e+01   1.431798e+01
  -5.364798e+01  -5.789486e+01
  -4.221964e+00  -9.706934e+01
   9.106660e+01  -2.374512e+01
   1.093894e+02   1.478355e+01
   6.182107e+01   6.371208e+01
   7.315693e+00   2.592719e+01
  -3.935523e+01   9.009920e+01
  -3.141553e+01   2.414382e+01
  -2.499471e+01   3.380780e+01
  -3.147785e+01   7.689311e+00
  -1.379137e+02   2.178997e+01
  -1.502547e+02  -1.261389e+02
  -1.628085e+01  -1.830562e+02
   1.335177e+01  -1.566999e+02
   8.495186e+01  -6.972890e+01
   9.033343e+01   2.104323e+01
   3.316738e+01   4.398139e+01
  -2.865876e+01   5.960417e+01
  -2.033609e+01  -8.838010e-01
   2.628376e+01  -2.476765e+01
   5.212794e+01  -1.142056e+01
   1.267009e+01   2.803650e+01
  -3.182825e+01   4.949339e+01
  -4.192025e+01  -1.213618e+01
   1.256652e+01  -4.949341e+01
   4.520534e+01  -8.427581e+00
   4.981582e+01   6.377356e+01
   1.751392e+01   7.360426e+01
  -5.851120e+01   4.349287e+01
  -1.025172e+02   1.504364e+01
  -7.475250e+01  -1.285168e+01
  -4.458762e+01  -1.448389e+02
   3.582533e+01  -5.947838e+01
   5.236202e+01  -1.952387e+01
   1.212618e+01   2.676642e+00
  -2.816518e+01  -1.457539e+01
  -8.313165e+00  -4.288973e+01
   1.904023e+01  -1.954495e+01
   3.142767e+01  -2.478646e+01
   2.043246e+01   1.893957e+01
  -2.166261e+01  -2.659210e+00
  -2.494321e+01  -1.930874e+01
   2.149073e+01  -5.683147e+01
   7.144488e+01  -1.839376e+01
   9.747228e+01   4.296964e+01
   3.269144e+01   5.712889e+01
  -7.370039e+01   1.092976e+02
  -1.201295e+02   5.009826e+01
  -3.702507e+01   4.498070e+00
  -2.632645e+00  -3.401345e+01
   3.070626e+01   9.012081e-01
  -1.242705e+01   1.201953e+01
  -3.404559e+01   3.546872e+01
  -7.566286e+01  -2.513093e+01
  -5.052854e+01  -2.014821e+01
   4.671225e+00  -4.209264e+01
   5.219390e+01  -1.151063e+01
   1.623952e+01   1.496878e+01
  -1.098165e+01  -5.158212e+00
  -1.915257e+01  -3.220187e+01
   3.467995e+00  -4.796526e+01
   7.054523e+01  -2.132253e+00
   7.927102e+01   3.100051e+01
   2.405218e+01   1.002783e+02
  -4.005587e+01   8.362346e+01
  -4.806310e+01  -1.737029e+00
  -9.965409e+00  -2.894154e+01
   1.575485e+01  -3.583841e+01
   9.816296e+00  -7.040453e+00
  -2.405070e+00   7.304434e+00
  -9.830588e+00   4.184536e+00
   1.679058e+00  -9.486060e+00
   2.748993e+01  -1.662352e+01
   4.822517e+01   2.104767e+01
   2.288023e+01   5.813752e+01
  -4.363549e+01   7.027055e+01
  -6.499644e+01   3.191896e+01
  -6.898924e+01  -3.387855e+01
  -4.865981e+01  -8.670828e+01
   2.490699e+01  -6.398756e+01
   3.791828e+01  -1.550220e+01
   1.990386e+01   1.481322e+01
   1.582733e+01   1.167684e+01
   1.734521e+01  -6.938154e+00
   3.119865e+01  -5.793543e+00
   1.967911e+01   1.500155e+01
   6.761353e-01   1.948550e+01
  -2.679785e+01   2.566218e+01
  -4.469781e+01   1.708775e+00
   5.536400e+00  -3.323502e+01
   6.056460e+01  -2.909852e+01
   7.268095e+01   2.901667e+00
   2.274779e+01   2.941146e+01
  -4.364371e+00   8.309493e+01
  -8.490684e+01   3.623034e+01
  -1.053599e+02  -1.357411e+01
  -6.320832e+01  -6.987891e+01
  -6.967338e+00  -5.124718e+01
   1.834682e-01  -2.815268e+01
   2.731371e+01  -1.606476e+01
   8.822860e+00  -2.621958e+01
   3.031621e+01  -3.662578e+01
   3.565276e+01  -1.221156e+00
   7.944740e+01   3.788289e+01
   1.920415e+01   6.802955e+01
  -1.337162e+01   4.000893e+01
  -4.286025e+01   2.179263e+01
  -3.320608e+01  -4.071677e+01
  -4.246316e+00  -4.301386e+01
   1.130647e+01  -2.328778e+01
   1.039298e+01  -7.262324e+00
   3.436556e+00   2.035378e+01
  -1.900662e+00   1.522396e+01
   8.172930e+00  -1.143555e+00
   2.798080e+01  -2.368075e+00
   8.964951e+00   4.107914e+00
  -2.523789e+01   1.801237e+01
  -3.783210e+01   7.743737e-02
  -4.618235e+01   5.067034e+00
  -6.363067e+00  -2.578576e+01
   1.760791e+01  -4.768042e+01
   5.696533e+01  -1.720372e+01
   2.046261e+01   7.470169e+00
  -1.646219e+01   2.154202e+01
  -2.960497e+01  -1.148176e+00
  -7.163895e+00  -1.134305e+01
   1.254945e+01  -2.632898e+01
   1.547975e+01  -3.220503e+00
   1.423831e+01   8.248165e+00
   2.231296e+01   1.002411e+01
   1.317939e+01  -6.479160e+00
   1.527797e+01  -3.287499e+00
   1.017334e+01   1.248616e+01
   1.102907e+01   5.328996e+01
  -1.899224e+01   4.409406e+01
  -3.067143e+01   1.634575e+01
  -3.893015e+01  -3.742304e-01
   2.907855e+00  -4.145151e+01
   1.152953e+01  -1.954405e+01
   1.610135e+01  -3.256277e+00
  -1.966174e+01   1.253369e+01
  -3.752971e+01   1.732803e+00
  -2.764340e+01  -3.249024e+01
   2.766238e+01  -3.697215e+01
   5.715121e+01  -2.468124e+01
   2.326789e+01   1.399057e+00
   1.552833e+01   1.388036e+01
  -3.559418e+00   2.670710e+00
  -1.437257e+01   2.289729e+00
   4.295063e+00  -1.409252e+01
   2.702885e+01   3.342610e+00
   1.483319e+01   2.077488e+01
  -1.330434e+01   5.174271e+01
  -4.323168e+01   4.468180e+01
  -3.863848e+01  -1.741655e+01
  -1.814138e+01  -3.829700e+01
   3.367007e+00  -5.754585e+01
   2.594047e+01  -1.129822e+01
   3.372611e+01   2.665558e+01
  -4.320531e+00   3.257093e+01
  -7.123767e+00   3.975168e+00
  -1.416585e+01  -3.077713e+00
  -6.074796e+00  -6.860624e-01
  -1.612704e+00   7.870268e+00
  -1.307460e+01  -5.469090e+00
  -2.740922e+01  -2.253725e+01
  -1.942932e+01  -1.589196e+01
   9.707999e+00  -1.115660e+01
   4.318236e+01   4.760430e+00
   5.056663e+01   6.725681e+00
   8.362785e+00   8.531186e+00
  -3.041766e+01   5.865208e+00
  -2.384309e+01   8.789215e+00
  -8.028683e+00   1.539342e-01
   3.775213e+00  -9.667787e+00
   6.991307e+00  -6.440862e+00
  -2.107455e+00  -7.566926e-02
   2.700631e-01   1.433984e+00
   2.752037e+01  -6.668621e+00
   2.209382e+01   1.024267e+00
   8.835092e+00   1.964013e+01
  -2.193117e+01   5.331900e+01
  -4.987016e+01   4.757860e+01
  -5.268332e+01  -1.735999e+01
  -2.544834e+01  -2.756476e+01
  -5.714653e+00  -3.347741e+01
   3.895584e+01  -2.396964e+01
   2.763708e+01  -2.551309e-01
   1.585084e+01   1.338674e+01
   1.062954e+00   3.219297e+00
   4.169431e+00   3.182789e+00
   9.869948e+00   1.169005e+01
   1.131189e+01   2.503938e+01
   8.582785e+00   2.118796e+01
  -2.719978e+01   2.236439e+00
  -2.653804e+01  -1.112665e+01
  -1.770298e+01  -1.428678e+01
   2.246066e+01  -9.094964e+00
   3.418376e+01   2.232533e+00
   1.557349e+01   2.011075e+01
  -1.765810e+01   2.101613e+01
  -2.364448e+01   1.296514e+01
  -1.407036e+01  -1.731950e+01
   7.208317e+00  -2.504210e+01
   1.057343e+01  -1.033509e+00
  -1.225246e+01   1.094303e+00
  -1.438507e+01   9.669459e+00
  -5.374648e+00  -2.431487e+00
   1.528642e+01  -2.675845e+01
   2.305391e+01  -2.291355e+01
   1.132276e+01   9.665707e-01
  -4.926967e+00   3.149193e+01
   1.351818e+00   3.204979e+01
  -8.265869e+00   5.474200e+00
  -1.321371e+01  -1.460019e+01
   4.525917e+00  -1.928375e+01
   7.280105e+00   2.583736e+00
   1.166019e+01   1.083243e+01
   1.338318e+00   8.418272e+00
  -5.529676e+00  -3.336130e+00
  -1.456129e+01  -4.965704e+00
  -8.308696e+00  -1.173549e+00
   1.096229e+00   6.039489e+00
   1.729695e+00  -3.459482e-01
  -1.679218e+00  -1.103879e+01
   3.486844e+00  -7.991912e+00
   2.669015e+00  -7.724220e+00
   1.755427e+01   8.138280e+00
   2.395572e+00   1.102811e+01
  -1.235449e+01   5.120694e+00
  -1.672518e+01  -3.752865e+00
  -1.694271e+01  -1.912869e+01
   1.401763e+01  -1.718399e+01
   2.437414e+01  -7.167480e+00
   1.975367e+01   1.113893e+01
  -1.145270e+01   2.128098e+01
  -1.636862e+01   1.043179e+01
  -1.111328e+01   4.585354e+00
   9.161761e+00  -5.074055e-01
   1.020688e+01  -8.177259e-01
  -7.225882e+00   9.125243e+00
  -1.359365e+01   5.927513e+00
