
 $NMID
 id='ANONYMOUS ', fmtdat='(2E16.6)'
 volume=1.0
 tramp=1.0
 $END
  -2.542066e+03   1.609822e+02
  -1.622496e+03  -1.167454e+03
   6.875362e+01  -1.496934e+03
   7.933232e+02  -1.183223e+03
   7.720933e+02  -1.652897e+02
   1.320504e+02   1.932734e+02
  -2.023698e+02  -2.145820e+01
  -1.722723e+02  -3.137965e+02
   3.709727e+02  -5.874326e+02
   4.738916e+02  -1.104398e+02
   4.013694e+02   3.991786e+02
   1.900022e+00   5.709153e+02
  -2.185848e+02   1.804993e+02
  -1.056984e+02  -3.489521e+02
   2.351201e+01  -4.423471e+02
   3.175059e+02  -1.196728e+02
   2.369059e+02   3.929867e+02
  -2.974716e+01   4.993622e+02
  -3.263013e+02   2.570357e+02
  -3.607847e+02  -1.204293e+02
  -1.593439e+02  -3.206013e+02
   7.730803e+01  -2.124829e+02
   1.941573e+01  -8.418928e+01
  -1.686655e+02  -7.503582e+01
  -2.415408e+02  -2.332263e+02
   3.773359e+01  -3.635596e+02
   4.824102e+02  -9.810316e+01
   4.459469e+02   1.523853e+02
   2.217705e+02   2.754939e+02
  -3.283299e+02   9.550824e+01
  -4.227466e+02  -3.936302e+01
  -8.656190e+01  -2.991112e+02
   2.452545e+02  -3.132389e+02
   3.449199e+02  -1.195318e+02
   2.950811e+02   3.058106e+01
   7.557975e+01   2.839605e+02
   2.502667e+01   1.290459e+02
   5.116316e+01  -5.304909e+01
   2.297309e+02  -5.664179e+01
   1.368437e+02   8.088413e+01
  -6.767782e+01   4.542059e+02
  -1.994540e+02   3.644615e+02
  -2.715420e+02  -2.666030e+01
  -1.084373e+02  -2.351293e+02
   6.903222e+01  -1.116448e+02
   1.264607e+02   2.345920e+02
  -9.035743e+01   3.394352e+02
  -3.365326e+02   2.881126e+01
  -4.407806e+02  -1.745865e+02
  -2.243262e+02  -4.096727e+02
   2.246857e+02  -2.179177e+02
   4.636183e+02   9.161561e+01
   2.468659e+02   1.939482e+02
   1.210808e+00   1.860250e+02
  -2.191988e+02   9.595454e+01
  -2.211690e+02   8.834135e-02
  -6.707751e-01  -9.175132e+00
   3.983867e+01   3.320130e+01
  -6.924525e+01   4.004634e+01
  -1.622191e+02  -3.342712e+01
  -1.370690e+02  -1.319259e+02
   1.326711e+02  -2.464238e+02
   2.598359e+02  -1.376257e+02
   2.116231e+02   5.100301e+01
  -6.168890e-01   3.019343e+02
  -2.821779e+02   3.245350e+02
  -2.812304e+02   1.282121e+02
  -2.075383e+02  -1.095327e+02
  -7.587651e+01  -2.559409e+02
   1.892430e+01  -2.318771e+02
  -3.103510e+00  -1.340074e+02
   1.736389e+01  -1.057208e+02
   1.219341e+02  -1.108202e+02
   2.130409e+02  -3.587965e+01
   2.213702e+02   1.007502e+02
   8.232172e+01   2.370135e+02
  -8.545375e+01   1.615532e+02
  -1.628151e+02  -5.334461e+01
  -1.551072e+02  -2.022163e+02
   1.322337e+01  -2.155400e+02
   2.031951e+02  -6.797155e+01
   2.580731e+02   1.156427e+02
   1.809270e+02   2.401229e+02
  -1.175873e+01   2.304070e+02
  -1.302677e+02   1.475203e+02
  -9.646408e+01   7.951372e+01
  -1.381388e+02   5.576609e+01
  -2.502938e+02   5.510736e+01
  -3.227219e+02  -2.613849e+01
  -2.811350e+02  -2.164182e+02
  -1.783582e+01  -3.506052e+02
   3.354318e+02  -3.720179e+02
   3.939867e+02  -1.098520e+02
   2.273629e+02   6.809955e+01
   1.204171e+01   2.037607e+02
  -5.670850e+01   1.526222e+02
   1.367693e+01   4.379231e+01
   1.036366e+02  -3.433396e+01
   9.102368e+01   3.251466e+01
   2.210010e+01   1.041487e+02
  -9.424116e+01   8.376588e+01
  -8.908045e+01  -4.413474e+01
   4.143107e+01  -9.465359e+01
   1.251669e+02   2.645027e+00
   1.166881e+02   2.206273e+02
  -5.922454e+00   2.845463e+02
  -1.737932e+02   2.021642e+02
  -2.757677e+02  -3.404122e+00
  -2.542905e+02  -2.138236e+02
  -7.819081e+01  -2.061012e+02
   9.818330e+01  -1.225755e+02
   1.385011e+02  -1.776196e+01
   2.138956e+01   1.013824e+01
  -4.795955e+01  -4.999102e+01
  -7.927906e+00  -7.986821e+01
   1.133967e+02  -5.055012e+01
   1.147415e+02   4.276730e+01
   2.384274e+01   3.834740e+01
  -6.124236e+01  -1.374652e+01
  -2.893373e+01  -1.010836e+02
   1.375042e+02  -7.936523e+01
   2.636740e+02  -1.579580e+01
   2.456789e+02   1.792878e+02
   4.023148e+01   1.913907e+02
  -1.302225e+02   1.850842e+02
  -1.925997e+02   1.040825e+02
  -9.491522e+01  -2.997264e+01
   2.348067e+01  -6.661926e+01
   3.898929e+01   2.871825e+00
  -4.629405e+01   6.532387e+01
  -1.541787e+02   3.740883e+01
  -1.581837e+02  -8.389010e+01
  -7.247784e+01  -1.561013e+02
   8.551865e+01  -1.100713e+02
   9.177121e+01  -2.075604e+01
   4.193108e+01   2.773010e+01
  -3.501152e+01  -1.838898e+01
  -2.843385e+01  -8.232149e+01
   8.108296e+01  -1.041049e+02
   1.660956e+02  -3.378475e+01
   1.638353e+02   1.059738e+02
   2.709239e+01   1.458044e+02
  -1.316228e+02   1.441255e+02
  -1.461751e+02   1.436408e+01
  -5.029157e+01  -6.559126e+01
   3.886010e+01  -8.736896e+01
   5.346776e+01  -1.220245e+01
  -2.749290e+00   1.893047e+01
  -3.344549e+01   6.963658e+00
   6.002960e+00  -2.395594e+01
   7.895236e+01  -1.542985e+01
   1.009094e+02   6.984877e+01
   2.662383e+01   1.415497e+02
  -1.060864e+02   1.457629e+02
  -2.148054e+02   7.552623e+00
  -1.500999e+02  -1.490891e+02
  -6.227912e+01  -2.042383e+02
   7.052458e+01  -1.434719e+02
   1.097963e+02  -2.582171e+01
   6.231963e+01   3.432569e+01
   2.982439e+01   1.760018e+01
   5.187053e+01  -1.578772e+01
   7.304350e+01  -1.330726e+01
   5.384723e+01   4.700187e+01
  -2.488381e+01   9.028505e+01
  -1.069539e+02   6.686750e+01
  -9.573357e+01  -2.063067e+01
   2.379078e+01  -1.172457e+02
   1.135700e+02  -6.806434e+01
   2.000997e+02   3.817170e+01
   5.388263e+01   1.893963e+02
  -9.514133e+01   2.148312e+02
  -1.857528e+02   9.014493e+01
  -1.885462e+02  -4.835917e+01
  -1.020604e+02  -1.247470e+02
   2.757241e+01  -1.231908e+02
   8.109161e+01  -8.996393e+01
   5.887605e+01  -4.919355e+01
   4.525449e+01  -8.476853e+01
   7.496417e+01  -7.017888e+01
   9.489711e+01  -3.150971e+00
   1.292355e+02   1.114132e+02
   3.578334e+01   1.926399e+02
  -8.000613e+01   1.481002e+02
  -1.334567e+02   9.648385e+00
  -1.242632e+02  -1.033485e+02
  -2.125505e+01  -1.175350e+02
   7.304458e+01  -7.134554e+01
   5.994456e+01   2.145971e+01
   3.086302e+00   4.889746e+01
  -2.863171e+01   3.484515e+01
   2.157511e+01   5.713221e+00
   6.269299e+01   5.767933e+00
   4.807002e+01   3.632053e+01
  -5.982348e+01   4.437231e+01
  -1.522565e+02  -2.681480e+00
  -1.512037e+02  -7.084664e+01
   1.209741e+01  -9.425548e+01
   1.382782e+02  -7.363341e+01
   1.414051e+02  -1.745980e+01
   3.848530e+01   3.591342e+01
  -4.607587e+01   4.832472e+01
  -6.692485e+01  -1.487180e+01
  -1.904547e+01  -5.917257e+01
   2.537960e+01  -6.686365e+01
   5.555533e+01  -5.937670e+00
   6.297513e+01   5.157942e+01
   3.776480e+01   4.031841e+01
   4.055317e+01  -6.019286e-01
   5.948130e+01  -5.894947e-01
   4.173912e+01   5.708852e+01
  -8.936608e+00   1.296134e+02
  -1.038626e+02   1.592380e+02
  -1.802710e+02   2.937158e+01
  -1.076004e+02  -6.831191e+01
  -6.077900e-02  -1.106197e+02
   8.273191e+01  -6.773816e+01
   5.021541e+01   7.421170e+00
  -3.941438e+01   1.887701e+01
  -1.185887e+02  -2.551028e+01
  -5.908218e+01  -7.746699e+01
   5.816542e+01  -8.478408e+01
   1.526007e+02  -3.252503e+01
   1.445853e+02   3.729734e+01
   2.606303e+01   8.219564e+01
  -6.129915e+01   5.971683e+01
  -4.142331e+01   3.319206e+00
   2.734095e+01  -2.624116e+01
   8.118099e+01   2.407104e+01
   3.912749e+01   9.690452e+01
  -5.297578e+01   1.218713e+02
  -9.607071e+01   5.926136e+01
  -9.563076e+01  -6.339184e+01
  -2.847510e+01  -1.651244e+02
   5.368789e+01  -1.211130e+02
   9.438675e+01   2.085296e+01
   5.969847e+01   9.048454e+01
   5.134477e+00   8.351034e+01
  -4.502235e+01   1.536794e+01
  -3.817252e+01  -2.317151e+01
  -1.352094e+01  -4.247522e+00
  -4.462036e+00   1.554898e+01
  -3.278401e+01  -1.390632e+01
  -6.165728e+01  -8.296670e+01
  -2.670251e+01  -7.778302e+01
   5.494325e+01  -3.316493e+01
   9.686915e+01   2.094758e+01
   1.243921e+02   4.582904e+01
   1.755106e+01   4.636226e+01
  -6.173764e+01   2.854726e+01
  -7.126572e+01   1.345913e+01
  -1.692946e+01  -1.036571e+01
   3.270451e+01  -1.565022e+01
   1.104034e+01  -1.103198e+01
  -8.689393e+00   6.910487e+00
   1.472283e+00   4.237144e+00
   5.500437e+01  -4.663337e+00
   8.438271e+01   1.470909e+01
   2.206954e+01   6.529207e+01
  -7.280099e+01   1.097807e+02
  -1.556293e+02   6.009062e+01
  -1.158200e+02  -1.288775e+01
  -1.124722e+01  -1.257840e+02
   6.908255e+01  -1.199011e+02
   9.097958e+01  -7.647345e+01
   6.697248e+01   4.081525e+00
   2.488963e+01   2.743841e+01
   3.771392e+00   1.234983e+01
   1.185434e+01   6.360271e+00
   2.733337e+01   4.022204e+01
   2.318359e+01   7.590532e+01
  -3.024745e+01   6.703091e+01
  -5.327187e+01   5.625605e-01
  -6.812292e+01  -8.399261e+01
  -1.182790e+01  -9.038770e+01
   5.300992e+01  -3.223640e+01
   9.115075e+01   4.282986e+01
   5.447668e+01   7.705513e+01
  -4.949416e+01   6.882461e+01
  -7.078096e+01  -6.544718e+00
  -5.182658e+01  -4.792544e+01
   2.253625e+01  -5.379204e+01
   4.530216e+01  -2.623570e+01
  -1.882936e+01   1.291194e+01
  -5.743914e+01   1.344862e+01
  -1.481847e+01  -2.415867e+01
   4.608091e+01  -5.306248e+01
   1.048470e+02  -4.637166e+01
   6.046767e+01   6.408601e+00
  -7.197303e+00   7.123222e+01
  -5.361188e+01   7.332186e+01
  -4.224748e+01   1.892132e+01
  -8.015885e+00  -5.532107e+01
   1.511375e+01  -4.471846e+01
   3.014861e+01   8.779004e+00
   3.042357e+01   4.526847e+01
   3.284553e+00   3.445352e+01
  -2.679894e+01  -6.986143e+00
  -3.396502e+01  -1.714166e+01
  -1.846016e+01  -4.264253e+00
   6.569616e+00   1.979742e+01
   7.072952e+00   1.023101e+01
  -8.409143e+00  -2.348174e+01
  -6.573542e+00  -4.770841e+01
   2.160125e+01  -2.248520e+01
   4.571061e+01   2.506586e+01
   1.585882e+01   4.802095e+01
  -3.210988e+01   2.712737e+01
  -5.423253e+01  -2.836028e+01
  -2.639775e+01  -4.117685e+01
   3.374177e+01  -3.771645e+01
   8.366490e+01  -2.554255e+00
   4.050636e+01   2.447563e+01
  -2.156731e+01   4.286291e+01
  -5.797563e+01   3.444450e+01
  -2.590213e+01   7.925261e+00
   2.198345e+01  -5.541987e+00
   2.649719e+01   9.991322e+00
  -1.058237e+01   2.160818e+01
  -5.939281e+01   1.844893e+01
