
 $NMID
 id='ANONYMOUS ', fmtdat='(2E16.6)'
 volume=1.0
 tramp=1.0
 $END
   3.212151e+03   1.175092e+02
   2.101297e+03   1.282861e+03
   3.050897e+01   1.715967e+03
  -7.977176e+02   1.097738e+03
  -9.250961e+02   2.176812e+02
  -8.370013e+01  -2.151758e+02
   1.902811e+02  -5.297952e+01
   6.203033e+01   2.250718e+02
  -2.835965e+02   5.784583e+02
  -5.023999e+02   1.201221e+02
  -3.480649e+02  -3.702248e+02
  -9.638751e+01  -4.739959e+02
   1.883565e+02  -1.780199e+02
   1.268057e+02   1.993529e+02
  -5.147437e+01   3.329400e+02
  -2.882411e+02   9.073499e+01
  -2.024012e+02  -3.127589e+02
   1.588383e+02  -4.345505e+02
   3.482911e+02  -1.793645e+02
   3.112601e+02   1.058784e+02
   1.307361e+02   2.745703e+02
  -8.887532e+01   1.811799e+02
  -3.498127e+01   8.608014e+01
   1.697621e+02   8.302647e+01
   2.336528e+02   2.463614e+02
   3.906076e+00   2.752278e+02
  -2.465159e+02   5.249371e+01
  -5.223655e+02  -5.679039e+01
  -1.707354e+02  -2.754616e+02
   1.981704e+02  -5.058655e+01
   4.215702e+02   2.313346e+02
   6.016008e+01   3.332728e+02
  -9.781344e+01   2.011033e+02
  -3.824712e+02   9.980280e+01
  -2.857357e+02  -7.168277e+01
  -4.126643e+01  -2.170305e+02
   2.333131e+01  -1.605612e+02
  -5.448585e+01   5.580576e+01
  -1.615117e+02   8.579532e+01
  -1.491686e+02  -1.161208e+02
   1.367861e+01  -3.438657e+02
   1.944863e+02  -2.810729e+02
   1.954735e+02  -2.237914e+00
   7.145810e+01   2.700138e+02
  -1.037492e+02   1.042567e+02
  -9.940352e+01  -2.061517e+02
   1.357462e+02  -3.085690e+02
   3.861872e+02  -6.478748e+01
   3.787855e+02   2.863648e+02
   8.135272e+01   3.031995e+02
  -1.438245e+02   2.490567e+02
  -3.205675e+02  -2.660340e+01
  -2.774160e+02  -1.610004e+02
   3.205144e+00  -1.690341e+02
   1.935821e+02  -1.240877e+02
   1.348018e+02  -2.952739e+01
   2.533118e+01   2.356148e+01
  -7.340002e+00  -3.673028e+01
   6.505988e+01  -5.009789e+01
   1.617390e+02   3.446923e+01
   8.501225e+01   9.075559e+01
  -6.653997e+01   1.510691e+02
  -3.251867e+02   1.413625e+02
  -2.353697e+02  -7.833905e+01
   2.105000e+01  -2.479519e+02
   2.200454e+02  -2.346432e+02
   2.949736e+02  -1.545849e+02
   2.064541e+02   1.648836e+02
   5.420042e+00   2.865268e+02
   2.829703e+01   2.136258e+02
  -1.559187e+01   1.208692e+02
  -2.141944e+01   1.066991e+02
  -1.067002e+02   1.162609e+02
  -1.952741e+02   5.647099e+01
  -1.784957e+02  -1.129003e+02
  -7.939746e+01  -2.013445e+02
   5.653697e+01  -1.104729e+02
   1.586558e+02   5.800529e+01
   9.063624e+01   2.077354e+02
  -6.815734e+01   2.006104e+02
  -1.843127e+02   4.753573e+01
  -2.077281e+02  -1.315308e+02
  -1.629188e+02  -1.772342e+02
   6.476456e+01  -2.084433e+02
   1.307559e+02  -1.026633e+02
   1.260667e+02  -6.924967e+01
   1.027009e+02  -3.214127e+01
   1.661454e+02  -2.965697e+01
   3.557038e+02   1.146807e+02
   2.528040e+02   2.313031e+02
  -9.056827e+01   3.925847e+02
  -2.773870e+02   3.546003e+02
  -3.809278e+02   1.046285e+02
  -1.971849e+02  -1.087491e+02
  -2.026763e+01  -1.771029e+02
   5.650987e+01  -1.444125e+02
  -6.298678e+00  -2.290804e+01
  -1.193632e+02   2.484227e+00
  -1.013265e+02  -4.876458e+01
  -7.014878e+00  -1.206968e+02
   8.460741e+01  -7.830872e+01
   9.126089e+01   4.764416e+01
  -2.562983e+01   1.081356e+02
  -1.118834e+02  -1.999151e+01
  -9.665530e+01  -1.903431e+02
   1.569232e+01  -2.779667e+02
   2.103951e+02  -1.593365e+02
   3.284075e+02   6.636394e+01
   1.566827e+02   2.352740e+02
   3.868426e+01   2.380976e+02
  -1.024744e+02   1.201605e+02
  -1.226750e+02  -9.029912e+00
  -2.411206e+01  -5.741616e+00
   4.582077e+01   4.996308e+01
  -2.376618e+01   9.981768e+01
  -9.931356e+01   4.606897e+01
  -9.805720e+01  -3.037079e+01
  -1.973744e+01  -5.223862e+01
   6.070075e+01   8.424599e+00
   3.072219e+01   6.536905e+01
  -1.220813e+02   6.743438e+01
  -2.511936e+02  -4.045844e+01
  -1.935132e+02  -1.341964e+02
  -3.258142e+01  -2.561415e+02
   1.879798e+02  -1.967704e+02
   2.361612e+02  -1.167808e+02
   1.034431e+02   2.260881e+01
  -3.868852e+01   5.176553e+01
  -3.952000e+01  -5.234923e+00
   3.789005e+01  -6.072551e+01
   1.323036e+02  -7.715161e+00
   1.698614e+02   1.066465e+02
   5.333560e+01   1.505362e+02
  -5.379740e+01   9.280129e+01
  -9.106528e+01  -1.168112e+01
  -3.627381e+01  -2.800186e+01
   3.821269e+01   2.712495e+01
   3.311602e+01   9.591496e+01
  -8.446058e+01   9.582744e+01
  -1.732208e+02  -1.687197e+00
  -1.538728e+02  -1.475075e+02
  -1.082676e+00  -1.941898e+02
   1.158654e+02  -1.050539e+02
   1.239137e+02  -1.403531e+01
   2.473094e+01   7.945843e+01
  -4.762834e+01   6.008913e+01
  -5.542739e+01   1.510302e+01
   2.839888e+00  -2.149833e+01
   3.284289e+01  -3.494208e+00
  -6.429713e+00   2.659994e+01
  -7.581020e+01  -9.060418e+00
  -1.139681e+02  -8.551884e+01
  -1.387188e+01  -1.669772e+02
   1.116589e+02  -1.304504e+02
   1.634852e+02   3.873994e+00
   1.113616e+02   1.448133e+02
   1.146779e+01   1.566231e+02
  -7.809755e+01   1.236109e+02
  -1.032159e+02   2.672079e+01
  -5.540995e+01  -4.222753e+01
  -3.084815e+01  -1.935842e+01
  -4.484928e+01   1.383887e+01
  -8.030147e+01   8.407961e-01
  -5.386964e+01  -4.108307e+01
   4.685944e+01  -9.447638e+01
   1.018690e+02  -4.321642e+01
   9.001778e+01   3.893080e+01
  -1.573664e+01   1.059528e+02
  -1.391150e+02   6.761432e+01
  -1.486301e+02  -4.190157e+01
  -6.066636e+01  -1.453028e+02
   1.084158e+02  -1.442667e+02
   2.242763e+02  -4.352870e+01
   1.690973e+02   4.410628e+01
   7.048499e+01   1.496154e+02
  -1.968394e+01   1.076062e+02
  -7.623033e+01   6.260278e+01
  -5.859783e+01   5.991483e+01
  -2.716760e+01   7.204467e+01
  -5.682285e+01   6.112044e+01
  -1.028540e+02  -1.357123e+01
  -1.076029e+02  -1.142264e+02
  -1.985766e+00  -1.857508e+02
   8.332639e+01  -1.249388e+02
   1.420749e+02   7.093883e+00
   9.995439e+01   1.055206e+02
   2.457733e+00   1.146380e+02
  -5.733137e+01   5.772897e+01
  -5.546694e+01  -1.603607e+01
   3.133732e+00  -4.258205e+01
   2.599816e+01  -2.843865e+01
  -1.903488e+01  -5.207286e+00
  -7.850752e+01  -2.631285e+01
  -3.683420e+01  -2.352942e+01
   5.473754e+01  -4.348118e+01
   1.298922e+02   1.151306e+01
   1.124815e+02   5.867470e+01
  -5.085526e+00   7.184631e+01
  -9.947467e+01   4.424258e+01
  -1.085215e+02   1.605504e+01
  -3.136017e+01  -4.707426e+01
   5.189290e+01  -3.715913e+01
   5.595577e+01   1.597120e+01
   1.479407e+01   5.671294e+01
  -3.200646e+01   6.370761e+01
  -5.341535e+01  -1.196494e+00
  -3.817154e+01  -4.399545e+01
  -4.034380e+01  -3.156601e+01
  -4.126795e+01   9.936408e-01
  -4.674164e+01   5.550441e+00
  -3.615279e+01  -6.345258e+01
   2.659123e+01  -1.280594e+02
   9.820640e+01  -1.302765e+02
   1.313885e+02  -1.495687e+00
   9.079453e+01   6.544259e+01
  -1.858326e+01   1.146243e+02
  -7.996284e+01   3.857597e+01
  -4.456810e+01  -6.104804e+00
   5.052453e+01  -1.234265e+01
   9.578179e+01   3.316592e+01
   4.489587e+01   1.002027e+02
  -6.268456e+01   1.062723e+02
  -1.573167e+02   3.281797e+01
  -1.174551e+02  -3.423634e+01
  -1.233251e+01  -6.695703e+01
   4.690800e+01  -4.371216e+01
   3.850253e+01   2.283843e+00
  -3.090510e+01   2.356108e+01
  -6.451649e+01  -9.514423e+00
  -4.118947e+01  -7.024514e+01
   7.463258e+01  -1.111319e+02
   1.334016e+02  -6.073107e+01
   1.018552e+02   7.823209e+01
  -1.302702e+01   1.448005e+02
  -8.998869e+01   1.096007e+02
  -6.959189e+01  -1.495891e+01
  -3.734300e+01  -1.065152e+02
   1.125672e+01  -9.897038e+01
   3.704926e+01  -1.373479e+01
   3.874462e+01   2.584810e+01
   9.922950e+00   5.228686e+00
   4.148731e+00  -1.262225e+01
   2.847857e+01   2.241944e+01
   4.940475e+01   7.143396e+01
   1.297327e+01   8.484854e+01
  -3.449766e+01   2.687339e+01
  -1.131062e+02  -4.001985e+01
  -9.246356e+01  -3.700082e+01
  -1.169208e+01  -4.468494e+01
   6.079037e+01  -1.797776e+01
   6.447896e+01  -4.569908e-01
   1.516940e+01   7.959386e+00
  -2.347168e+01   1.642188e+01
  -2.049851e+01   9.473644e+00
   1.169284e+01  -3.232977e+00
  -2.104279e+00  -4.257828e+00
  -5.491607e+01   6.183683e+00
  -6.363002e+01  -1.587749e+01
  -2.706525e+01  -6.287367e+01
   6.317224e+01  -1.174032e+02
   1.468968e+02  -7.256531e+01
   1.244529e+02   6.495370e+01
   3.952283e+01   1.236907e+02
  -5.794514e+01   1.363614e+02
  -8.558435e+01   6.736470e+01
  -7.129957e+01  -1.684123e+01
  -2.421066e+01  -3.131420e+01
  -3.673823e+00  -1.112411e+01
  -1.177159e+01  -8.048450e+00
  -2.195533e+01  -4.802998e+01
  -1.275073e+01  -6.496491e+01
   6.685683e+00  -5.517715e+01
   7.682691e+01   1.258441e+01
   5.679722e+01   7.927473e+01
   1.372107e+01   8.828020e+01
  -6.413094e+01   3.091638e+01
  -8.189561e+01  -4.247161e+01
  -3.289961e+01  -7.850114e+01
   5.047273e+01  -5.035791e+01
   8.417265e+01   3.151384e+00
   3.449586e+01   5.353179e+01
  -2.895340e+01   4.610561e+01
  -2.991098e+01   1.612831e+01
   1.703836e+01  -6.292834e+00
   5.271565e+01  -1.107118e+01
   1.595703e+01   2.057359e+01
  -6.274235e+01   5.956956e+01
  -9.996789e+01   3.278583e+01
  -5.090431e+01  -9.435958e+00
  -1.088148e+01  -7.077139e+01
   2.896966e+01  -6.745470e+01
   3.462627e+01  -1.679206e+01
   9.253402e+00   3.458580e+01
  -1.472265e+01   4.094972e+01
  -2.874059e+01  -6.625722e+00
  -2.877515e+01  -4.056140e+01
  -2.345039e-01  -3.666110e+01
   2.525668e+01   3.203859e+00
   4.002892e+01   2.105450e+01
   1.610835e+01   5.721625e+00
  -4.394476e+00  -1.730586e+01
  -3.385457e+00  -8.079597e+00
   6.187409e+00   2.072502e+01
   7.952332e+00   4.162901e+01
  -1.897478e+01   2.212712e+01
  -3.183105e+01  -2.447446e+01
  -2.125920e+01  -4.241914e+01
   2.818871e+01  -1.470381e+01
   5.061748e+01   2.099823e+01
   2.074253e+01   4.434383e+01
  -5.418301e+01   3.220876e+01
  -7.466468e+01  -6.259131e+00
  -4.488823e+01  -4.671108e+01
   1.858617e+01  -3.471349e+01
   4.595037e+01  -2.349289e+01
   2.321911e+01  -8.575315e+00
  -1.986725e+01   3.816184e+00
  -2.119479e+01  -2.882089e+00
   1.740984e+01  -1.960263e+01
   5.695797e+01  -2.888547e+01
