
 $NMID
 id='ANONYMOUS ', fmtdat='(2E16.6)'
 volume=1.0
 tramp=1.0
 $END
  -2.252701e+03  -1.028655e+03
  -1.437270e+03  -1.091618e+03
   2.150385e+02  -1.343516e+03
   5.798828e+02  -6.678093e+02
   5.883706e+02  -7.963827e+01
  -4.909957e+01  -3.633827e+01
  -1.982150e+02  -1.744632e+02
   1.851587e+02  -1.756105e+02
   4.204943e+02  -2.784920e+02
   2.874540e+02   5.114380e+01
   1.870843e+02   3.371013e+02
  -2.461206e+00   2.633896e+02
  -2.162446e+02   9.338198e+01
  -1.513844e+02  -1.826362e+02
   4.864791e+01  -3.569498e+02
   1.863289e+02  -1.729608e+01
   1.862299e+02   3.386599e+02
  -1.187183e+02   3.617717e+02
  -2.429634e+02   1.459852e+02
  -2.844814e+02  -1.529027e+02
  -7.877261e+01  -1.905075e+02
   1.258159e+02  -1.598488e+02
   2.570120e+01  -6.898333e+01
  -1.574276e+02  -1.026218e+02
  -1.416448e+02  -2.107273e+02
   7.538189e+01  -2.657184e+02
   2.894012e+02  -9.390870e+01
   3.841564e+02   2.667293e+02
   1.492609e+02   1.789481e+02
  -2.133469e+02   8.314377e+01
  -2.926560e+02  -1.187835e+02
  -8.575601e+01  -1.526949e+02
   1.398271e+02  -2.439042e+02
   3.236146e+02  -8.391857e+01
   1.721226e+02   1.545478e+02
   4.389145e+01   1.433648e+02
  -3.953524e+01   5.883392e+01
   5.930594e+01  -3.889922e+01
   1.062503e+02  -4.242980e+01
   1.366162e+02   1.595491e+02
  -4.551087e+01   2.875543e+02
  -1.723051e+02   3.893421e+02
  -1.832182e+02  -5.416610e+01
  -8.023678e+01  -2.631978e+02
   1.340085e+02  -9.350889e+00
   7.407365e+01   1.991488e+02
  -1.279153e+02   2.330703e+02
  -3.046978e+02  -5.156028e-01
  -2.926766e+02  -3.075278e+02
  -1.329565e+02  -2.705975e+02
   2.192633e+02  -1.832963e+02
   1.903041e+02   8.803163e+01
   1.612880e+02   1.938941e+02
  -3.513169e+01   1.543851e+02
  -1.268222e+02   2.349985e+01
  -1.341522e+02  -1.958611e+01
   1.061481e+01   1.534261e+00
   3.443269e+01   3.226089e+01
  -7.256665e+01   3.903361e+01
  -1.388987e+02  -1.466673e+01
  -8.245559e+01  -9.687187e+01
   6.221666e+01  -1.315016e+02
   2.435103e+02  -2.914986e+01
   1.501402e+02   4.970520e+01
  -4.485223e+01   1.909133e+02
  -1.511100e+02   1.458162e+02
  -2.586327e+02   4.381475e+01
  -1.168769e+02  -1.306434e+02
   5.153137e+01  -2.452546e+02
   1.770231e+01  -1.260468e+02
   2.185170e+00  -9.586001e+01
   2.217187e+01  -8.530147e+01
   8.586469e+01  -7.359556e+01
   1.999340e+02  -2.802591e+01
   1.329145e+02   8.939169e+01
   3.861026e+01   1.842563e+02
  -2.336310e+01   1.040396e+02
  -1.131720e+02  -2.370130e+01
  -7.101609e+01  -1.472405e+02
   4.718292e+01  -1.500159e+02
   1.618200e+02  -1.630470e+01
   1.787753e+02   1.217503e+02
   6.357304e+01   1.815569e+02
  -4.078088e+01   1.715839e+02
  -9.648154e+01   7.268812e+01
  -1.039837e+02   5.679768e+01
  -8.678769e+01   4.846295e+01
  -1.435491e+02   4.995516e+01
  -2.931501e+02  -1.184635e+02
  -1.665494e+02  -2.220910e+02
   6.580114e+01  -2.894403e+02
   2.941556e+02  -2.074037e+02
   3.286913e+02  -8.324130e+01
   1.798708e+02   8.217955e+01
   2.029207e+01   1.784696e+02
  -4.975275e+01   1.170848e+02
   5.446951e+00   6.961909e+00
   8.992399e+01   5.964142e+00
   6.925925e+01   5.405798e+01
  -2.668627e+01   1.005086e+02
  -7.664314e+01   9.316036e+00
  -5.649659e+01  -7.024310e+01
   2.809527e+01  -7.149927e+01
   1.093351e+02   3.832281e+01
   6.263752e+01   1.580745e+02
  -4.203849e+01   2.051261e+02
  -1.673535e+02   1.387901e+02
  -2.336478e+02  -5.407507e+01
  -1.489056e+02  -2.306517e+02
  -1.895969e+01  -1.831740e+02
   8.764031e+01  -8.087617e+01
   1.037463e+02   1.299368e+01
   1.992309e+01   1.221832e+01
  -3.200619e+01  -5.914852e+01
   4.069789e+01  -7.527628e+01
   7.892951e+01  -3.961077e+01
   8.693094e+01   4.749372e+01
   7.460398e+00   4.395556e+01
  -4.748216e+01  -1.815202e+01
  -2.470308e+01  -6.211603e+01
   8.436075e+01  -4.869494e+01
   1.680605e+02   2.951383e+01
   1.338875e+02   1.070990e+02
  -1.067242e+01   1.465057e+02
  -1.621188e+02   1.235557e+02
  -1.967687e+02   2.796876e+01
  -5.883860e+01  -2.820697e+01
   2.390068e+01  -5.158102e+01
   3.762214e+01   1.232720e+01
  -4.016142e+01   3.946238e+01
  -1.103003e+02   3.047853e+00
  -1.364839e+02  -9.288952e+01
  -5.543933e+01  -1.279934e+02
   6.710557e+01  -9.157064e+01
   7.616216e+01   1.297417e+01
   3.426949e+01   2.216429e+01
  -3.566261e+01  -1.840898e+01
  -1.459492e+01  -9.539330e+01
   9.035606e+01  -7.091698e+01
   1.284385e+02   4.727760e+00
   1.005424e+02   1.146275e+02
  -3.445297e+01   1.313927e+02
  -1.015117e+02   6.633580e+01
  -1.093717e+02   1.025111e+01
  -2.062299e+01  -5.787512e+01
   3.600464e+01  -4.734648e+01
   4.518663e+01  -5.326943e+00
  -3.616251e+00   1.887366e+01
  -2.197172e+01   8.920577e+00
   3.524933e+00  -1.586712e+01
   4.920196e+01   9.213633e+00
   5.533582e+01   7.081787e+01
  -3.992752e+01   9.680988e+01
  -1.036145e+02   8.879535e+01
  -1.443934e+02  -4.512632e+00
  -9.198185e+01  -7.066959e+01
  -2.133513e+01  -1.212703e+02
   1.003826e+02  -9.121670e+01
   8.467720e+01  -2.604709e+01
   3.556947e+01   2.812181e+01
   1.656832e+01   2.008007e+01
   4.024400e+01  -9.344431e+00
   7.088195e+01   2.500648e+00
   5.212736e+01   4.443387e+01
  -3.571687e+01   6.832148e+01
  -5.543654e+01   3.050658e+01
  -7.013888e+01  -4.307125e+01
   2.048449e+01  -7.304315e+01
   1.215916e+02  -5.500430e+01
   1.411745e+02   5.600564e+01
   4.952907e+01   1.294747e+02
  -8.090915e+01   1.209655e+02
  -1.403024e+02  -3.753696e+00
  -1.526346e+02  -6.719418e+01
  -3.873858e+01  -1.233548e+02
   3.165536e+01  -8.198301e+01
   6.306361e+01  -4.099674e+01
   5.141000e+01  -5.251277e+01
   3.209680e+01  -5.475408e+01
   4.865561e+01  -4.675527e+01
   7.626148e+01   2.604351e+01
   3.767802e+01   9.941251e+01
   6.758624e+00   1.431544e+02
  -6.589990e+01   8.178876e+01
  -9.733157e+01  -1.926969e+01
  -7.310280e+01  -8.404462e+01
   3.999863e+00  -9.653724e+01
   4.802490e+01  -4.470509e+01
   3.222668e+01   1.769201e+01
  -5.507569e-01   4.024528e+01
  -1.826296e+01   2.218664e+01
   1.546334e+01   6.535198e+00
   5.361253e+01   2.119358e+01
   3.196264e+01   1.853388e+01
  -5.840647e+01   2.446805e+01
  -1.204628e+02  -7.371846e+00
  -8.945815e+01  -3.130008e+01
  -6.139052e+00  -6.270767e+01
   7.891182e+01  -3.015201e+01
   9.415681e+01   4.687259e+00
   2.729644e+01   4.061936e+01
  -5.002078e+01   2.706477e+01
  -3.606013e+01  -1.407732e+01
  -7.733056e+00  -4.575392e+01
   3.557756e+01  -3.584251e+01
   4.231486e+01   5.283780e+00
   3.513196e+01   1.987508e+01
   2.889826e+01   3.333606e+01
   3.049130e+01   1.186456e+00
   3.884040e+01   5.213489e+00
   1.701523e+01   4.269045e+01
  -3.405117e+01   7.775592e+01
  -9.039358e+01   8.145382e+01
  -1.061863e+02   3.748878e+01
  -7.121239e+01  -8.525828e+01
   1.314783e+01  -8.031468e+01
   5.014945e+01  -3.135888e+01
   4.170957e+01   9.452347e+00
  -4.178216e+01   2.779029e+00
  -8.662676e+01  -3.674394e+01
  -3.179286e+01  -6.466855e+01
   7.678798e+01  -7.541515e+01
   1.411758e+02  -1.760002e+01
   1.062230e+02   1.920703e+01
   2.023787e+01   4.493510e+01
  -3.560204e+01   3.852539e+01
  -3.133149e+01   3.094443e+00
   2.528231e+01  -1.476341e+01
   5.767104e+01   6.402662e+00
   2.651694e+01   5.551356e+01
  -5.785783e+01   8.846455e+01
  -1.099213e+02   2.251326e+01
  -6.707726e+01  -9.031862e+01
   2.065228e+00  -1.147561e+02
   7.415107e+01  -8.532653e+01
   6.139888e+01   8.384071e+00
   1.754171e+01   9.749343e+01
  -1.979775e+01   7.529060e+01
  -3.353272e+01   1.066997e+01
  -2.392413e+01  -2.970163e+01
  -9.094491e+00  -6.808540e+00
  -4.508267e+00   1.107626e+01
  -1.814478e+01  -1.233296e+01
  -3.298892e+01  -5.881907e+01
  -3.802515e+01  -6.522739e+01
   4.302514e+01  -2.899746e+01
   9.192298e+01   4.544340e+01
   8.330944e+01   3.556760e+01
   5.260098e+00   3.209718e+01
  -5.954096e+01   1.161174e+01
  -5.038943e+01   1.226254e+01
  -1.215765e+01  -6.603398e+00
   1.783173e+01  -9.887918e+00
   1.746877e+01  -6.082704e+00
  -9.645556e+00  -3.477930e-01
   1.154854e+00   4.051853e+00
   4.145308e+01   4.547576e+00
   4.824814e+01   1.134851e+01
   1.549689e+01   5.496731e+01
  -1.045359e+02   8.215624e+01
  -1.259755e+02   3.462875e+01
  -8.617269e+01  -3.925182e+01
   3.196009e+00  -9.433721e+01
   5.317296e+01  -8.805083e+01
   7.074989e+01  -3.233239e+01
   5.706345e+01   2.462013e+01
   1.907278e+01   2.734869e+01
   1.459889e+00   6.523415e+00
   9.793975e+00   5.495063e+00
   1.438348e+01   3.934088e+01
  -3.794067e-02   5.901854e+01
  -9.685793e+00   3.753552e+01
  -5.278991e+01  -2.688160e+01
  -3.543315e+01  -7.268326e+01
   1.167844e+01  -6.389577e+01
   5.479816e+01  -1.401352e+01
   7.009211e+01   4.403343e+01
   1.924993e+01   6.309566e+01
  -3.392326e+01   4.452422e+01
  -7.107931e+01  -2.012671e+01
  -3.084182e+01  -3.675642e+01
   2.937781e+01  -3.332305e+01
   1.867788e+01  -1.297966e+01
  -1.479706e+01   6.459198e+00
  -3.878971e+01  -4.197489e+00
  -1.243676e+01  -1.570261e+01
   7.107769e+01  -3.604646e+01
   8.392379e+01  -3.196898e+01
   3.952953e+01   1.325321e+01
  -8.170730e+00   4.517058e+01
  -3.347605e+01   5.684623e+01
  -2.093960e+01   5.130953e+00
  -6.944548e+00  -2.522362e+01
   1.190131e+01  -2.016411e+01
   1.638237e+01   1.168294e+01
   1.641179e+01   3.746758e+01
  -3.696641e+00   2.427724e+01
  -2.339064e+01  -2.626535e+00
  -2.821383e+01  -2.141461e+01
  -1.252018e+01  -4.226400e+00
   1.138239e+00   1.530971e+01
   5.641677e+00   5.336602e+00
  -2.718801e+00  -1.245003e+01
  -4.578522e+00  -3.967428e+01
   1.213356e+01  -1.120795e+01
   2.124054e+01   2.004630e+01
   7.662158e+00   3.237764e+01
  -2.671631e+01   1.765473e+01
  -3.668639e+01  -1.509673e+01
  -6.032513e+00  -3.605208e+01
   4.413174e+01  -1.932271e+01
   5.859036e+01   1.845017e+01
   2.632120e+01   3.578369e+01
  -1.652093e+01   2.685650e+01
  -4.031558e+01   2.165566e+01
  -2.469935e+01   4.094915e+00
   1.698557e+01  -2.221623e+00
   2.063038e+01   3.620205e+00
  -1.579712e+01   1.506575e+01
  -4.833952e+01   1.682951e+01
