
 $NMID
 id='ANONYMOUS ', fmtdat='(2E16.6)'
 volume=1.0
 tramp=1.0
 $END
   1.635660e+03  -4.279769e+02
   1.253384e+03   1.032118e+03
   1.253286e+02   1.396220e+03
  -7.789949e+02   8.319143e+02
  -6.868817e+02   3.388165e+02
  -1.895249e+02  -1.194997e+02
   1.821030e+02  -3.215251e+01
   7.215541e+01   1.770434e+02
  -1.484917e+02   3.695182e+02
  -5.881193e+02   9.894716e+01
  -2.969572e+02  -2.806286e+02
  -6.463197e+01  -4.328662e+02
   1.504151e+02  -1.175263e+02
   1.273506e+02   2.809078e+02
  -2.813224e+01   3.349173e+02
  -2.026303e+02   6.541813e+01
  -2.925435e+02  -2.303607e+02
   3.138129e+01  -4.357229e+02
   2.597561e+02  -3.161833e+02
   2.437082e+02   5.861541e+01
   1.306738e+02   1.939126e+02
  -4.933116e+01   1.948624e+02
  -1.547136e+01   7.690303e+01
   1.094563e+02   9.792567e+01
   1.449385e+02   2.157485e+02
  -7.677940e+01   1.977484e+02
  -3.858864e+02   2.354149e+01
  -3.899686e+02  -1.641826e+02
  -1.665396e+02  -1.988470e+02
   3.014011e+02  -4.842686e+01
   3.301965e+02   6.153745e+01
   1.500823e+02   2.440507e+02
  -2.137143e+02   2.692658e+02
  -3.085086e+02   1.394334e+02
  -2.364822e+02  -1.668197e+02
  -8.487999e+01  -2.227587e+02
  -4.734063e+01  -1.234038e+02
  -8.655069e+01   6.091869e+01
  -6.532675e+01   7.442722e+01
  -5.017654e+01  -8.722962e+01
   2.525862e+01  -3.526619e+02
   1.571699e+02  -2.379320e+02
   2.289386e+02  -3.567234e+01
   8.302114e+01   1.072172e+02
  -1.658414e+01   5.169732e+01
  -1.337305e+02  -1.675173e+02
   3.637207e+01  -2.290900e+02
   3.201202e+02  -7.679546e+01
   3.099743e+02   2.424742e+02
   1.310491e+02   4.439191e+02
  -2.006128e+02   1.779170e+02
  -4.313387e+02   9.029995e+00
  -2.932683e+02  -1.170740e+02
   2.880040e+01  -1.612454e+02
   2.488946e+02  -4.198619e+01
   1.665271e+02   1.596270e+01
  -9.781090e-01   2.476623e+01
  -1.254390e+01   6.828496e+00
   7.637862e+01  -3.189121e+01
   1.409743e+02   7.050716e+01
   7.247980e+01   1.218206e+02
  -1.196119e+02   1.547720e+02
  -2.364969e+02   1.443745e+02
  -2.256209e+02  -8.790660e+01
   3.284915e+01  -2.700013e+02
   2.643861e+02  -3.075878e+02
   2.725272e+02  -1.292922e+02
   1.880239e+02   1.188818e+02
   1.020736e+02   2.299670e+02
  -2.342609e+01   2.270735e+02
   2.342577e+01   1.425867e+02
  -1.481370e+01   9.976177e+01
  -1.266365e+02   8.938145e+01
  -1.978471e+02   4.991631e+01
  -1.826008e+02  -3.868600e+01
  -1.889138e+01  -1.731912e+02
   9.675419e+01  -1.264326e+02
   1.516093e+02   5.810340e+01
   1.082002e+02   1.897095e+02
  -3.696648e+01   1.992532e+02
  -1.401854e+02   4.166434e+01
  -1.888719e+02  -1.264073e+02
  -1.268780e+02  -2.145113e+02
  -7.362778e+00  -2.113309e+02
   1.088488e+02  -1.250606e+02
   1.008175e+02  -9.282250e+01
   1.358271e+02  -8.453874e+01
   2.397693e+02  -2.981357e+01
   3.151050e+02   6.676755e+01
   1.818674e+02   1.889429e+02
  -3.065026e+00   2.860003e+02
  -2.970178e+02   2.835081e+02
  -3.380971e+02   1.303825e+02
  -1.975513e+02  -1.077718e+02
  -1.761536e+01  -1.701349e+02
   3.651112e+01  -1.147063e+02
  -1.144093e+01  -2.711442e+01
  -7.580284e+01   1.256178e+01
  -9.510256e+01  -2.658548e+01
  -1.035561e+01  -5.574700e+01
   5.848546e+01  -6.551068e+01
   5.020861e+01   1.556638e+01
  -3.622200e+00   7.813193e+01
  -1.036242e+02   2.914145e+00
  -1.060660e+02  -1.377071e+02
  -7.852555e+00  -2.625481e+02
   1.962167e+02  -1.016728e+02
   2.387167e+02   2.125298e+01
   2.120174e+02   1.692920e+02
   3.300933e+00   1.879079e+02
  -8.686392e+01   1.020924e+02
  -1.136018e+02   2.289929e+01
  -1.666336e+01  -3.524720e+00
   3.045200e+01   4.787490e+01
   2.057195e+00   5.363868e+01
  -7.364457e+01   5.405382e+01
  -1.050169e+02  -1.552447e+01
  -1.665922e+01  -3.546452e+01
   7.053281e+01   1.355174e+01
   2.454897e+01   6.959822e+01
  -1.350950e+02   4.137074e+01
  -2.477604e+02  -6.165892e+00
  -1.977538e+02  -9.441901e+01
  -1.726377e+01  -1.917006e+02
   1.320143e+02  -1.722545e+02
   1.351127e+02  -1.058220e+02
   8.211025e+01   2.209290e+01
  -2.695733e+01   4.944441e+01
  -2.925307e+01   1.872411e+00
   4.108893e+01  -5.357482e+01
   1.254955e+02  -2.849160e+01
   1.341149e+02   4.800304e+01
   1.774775e+01   1.579289e+02
  -3.980579e+01   9.465645e+01
  -7.688477e+01   8.304057e+00
  -2.716293e+01  -1.706392e+01
   3.581662e+01   1.977864e+01
   1.586372e+01   7.921166e+01
  -8.240518e+01   8.210281e+01
  -1.472593e+02   1.240121e+01
  -1.322977e+02  -1.049147e+02
  -3.675841e+01  -1.386403e+02
   1.363870e+02  -1.008862e+02
   1.179106e+02   1.187461e+01
   3.419879e+01   5.604974e+01
  -4.984050e+01   7.324370e+01
  -4.559618e+01   2.790891e+01
   4.258383e-01  -1.582136e+01
   3.286720e+01  -3.506528e+00
  -4.024890e+00   2.234793e+01
  -6.983417e+01   6.947424e+00
  -7.904034e+01  -6.933600e+01
  -1.067715e+01  -1.097135e+02
   9.675556e+01  -1.167187e+02
   1.858654e+02   1.846787e+01
   1.096343e+02   1.291189e+02
   6.312686e+01   1.776899e+02
  -6.215089e+01   1.070965e+02
  -8.676523e+01   2.642745e+01
  -6.499710e+01  -2.234788e+01
  -2.662204e+01  -2.083875e+01
  -3.489653e+01   1.089976e+01
  -6.874034e+01  -2.214476e+00
  -5.581229e+01  -4.415425e+01
   3.174667e+01  -9.407397e+01
   8.101626e+01  -5.767556e+01
   9.524687e+01   8.139800e+00
  -6.824819e+00   1.061646e+02
  -1.130994e+02   6.615720e+01
  -1.689934e+02  -2.971821e+01
  -7.694447e+01  -1.621418e+02
   1.109266e+02  -1.863549e+02
   1.520784e+02  -4.524756e+01
   1.986005e+02   8.347768e+01
   5.667254e+01   1.093773e+02
  -2.091439e+01   1.196960e+02
  -6.243560e+01   6.535346e+01
  -4.897684e+01   4.960398e+01
  -3.234709e+01   6.721548e+01
  -6.836537e+01   6.190892e+01
  -9.136634e+01  -7.345095e+00
  -6.941793e+01  -1.263211e+02
  -3.217641e+01  -1.449374e+02
   6.221419e+01  -1.150461e+02
   1.344633e+02  -9.693100e+00
   9.630950e+01   7.837057e+01
   8.777213e+00   1.153777e+02
  -6.988281e+01   6.304845e+01
  -5.029629e+01  -9.304353e+00
   7.262621e-01  -4.019473e+01
   2.665775e+01  -2.592271e+01
  -1.987916e+01  -1.078278e+01
  -6.293603e+01  -5.414585e+00
  -4.401158e+01  -2.957623e+01
   4.533792e+01  -3.049526e+01
   1.381374e+02  -2.533326e+00
   1.114633e+02   4.029424e+01
  -8.336164e+00   8.719616e+01
  -1.091774e+02   6.295113e+01
  -1.042438e+02  -1.662614e+01
  -2.711148e+01  -3.497228e+01
   3.950225e+01  -3.845488e+01
   5.922950e+01   1.014990e+01
   1.419613e+01   5.436952e+01
  -3.061300e+01   5.185125e+01
  -4.809336e+01   2.339177e-02
  -4.700625e+01  -4.228779e+01
  -3.329755e+01  -3.185417e+01
  -3.748944e+01  -2.117633e+00
  -5.666972e+01  -7.864179e-01
  -4.343699e+01  -4.870936e+01
   1.119922e+01  -1.090081e+02
   8.694853e+01  -1.289764e+02
   1.555949e+02  -3.358231e+01
   1.125800e+02   7.063828e+01
   4.978950e+00   9.885757e+01
  -6.170635e+01   6.537523e+01
  -5.402859e+01  -8.942170e+00
   3.700815e+01  -1.986007e+01
   8.891543e+01   2.434664e+01
   5.641917e+01   7.231777e+01
  -5.905261e+01   8.250045e+01
  -1.178236e+02   4.791202e+01
  -1.054745e+02  -2.707606e+01
  -1.902338e+01  -5.535700e+01
   5.216731e+01  -5.551983e+01
   3.346286e+01   4.295278e+00
  -2.455724e+01   1.897670e+01
  -7.045715e+01  -1.485821e+01
  -2.579502e+01  -8.314597e+01
   4.313561e+01  -9.388350e+01
   8.770272e+01  -5.323307e+01
   8.344076e+01   5.564457e+01
   3.827751e+01   1.421933e+02
  -4.771333e+01   9.759218e+01
  -8.765266e+01   3.962649e+00
  -2.208981e+01  -8.356783e+01
   3.690129e+00  -5.971031e+01
   4.094126e+01  -1.686691e+01
   2.610548e+01   1.603768e+01
   1.091235e+01   4.015218e+00
   5.974678e+00  -1.079434e+01
   2.903553e+01   1.510102e+01
   4.986832e+01   5.172993e+01
   2.211262e+01   6.777005e+01
  -4.681924e+01   3.500146e+01
  -1.041660e+02  -2.513078e+01
  -8.300034e+01  -7.385897e+01
  -1.791993e+01  -3.880525e+01
   5.314086e+01  -2.012404e+01
   6.222656e+01   8.456574e+00
   1.416261e+01   1.034137e+01
  -2.197108e+01   1.323241e+01
  -1.185239e+01   5.091856e+00
   6.907788e+00  -6.222093e+00
  -1.912221e+00  -2.351048e+00
  -4.101765e+01   7.790297e+00
  -6.402346e+01  -2.074796e+01
  -3.182678e+01  -6.007177e+01
   6.318290e+01  -8.112779e+01
   1.419781e+02  -5.422885e+01
   1.009037e+02   9.007870e+00
   2.418919e+01   1.179322e+02
  -5.861777e+01   1.222797e+02
  -8.721190e+01   3.822360e+01
  -6.458864e+01  -7.979368e+00
  -2.164621e+01  -1.898581e+01
  -1.362734e+00  -1.111476e+01
  -9.515708e+00  -6.442693e+00
  -2.769767e+01  -3.000347e+01
   9.487748e-01  -6.216044e+01
   2.207996e+01  -6.060804e+01
   5.043425e+01  -1.897474e+00
   4.524425e+01   7.631653e+01
   2.123027e+01   6.683164e+01
  -5.001433e+01   2.192163e+01
  -7.490313e+01  -3.490767e+01
  -3.109504e+01  -6.741685e+01
   3.324742e+01  -6.049002e+01
   7.953556e+01  -6.658357e+00
   3.255100e+01   4.161247e+01
  -2.307292e+01   4.557793e+01
  -3.286891e+01   2.274926e+01
   1.451756e+01  -5.345426e+00
   5.804199e+01  -1.579095e+01
   1.296032e+01   1.795283e+01
  -4.319567e+01   4.190686e+01
  -8.558228e+01   4.829783e+01
  -5.601187e+01  -9.196384e+00
   1.609120e+01  -6.799224e+01
   3.759251e+01  -5.800645e+01
   3.619603e+01  -1.413651e+01
   7.070774e+00   4.096952e+01
  -1.287663e+01   3.070750e+01
  -2.891959e+01  -5.167950e+00
  -2.459287e+01  -3.370880e+01
  -2.125360e+00  -2.937128e+01
   2.580374e+01   4.584322e-01
   3.196769e+01   1.282389e+01
   1.442866e+01   3.871664e+00
  -3.184731e+00  -1.550434e+01
  -7.719924e+00  -1.094302e+01
   4.563280e+00   2.537460e+01
   2.440811e+00   3.798382e+01
  -1.801753e+01   2.264768e+01
  -2.824478e+01  -1.604119e+01
  -2.092375e+01  -4.999191e+01
   2.793996e+01  -2.101408e+01
   4.737863e+01   1.982386e+01
   2.204839e+01   3.680989e+01
  -3.148000e+01   2.786875e+01
  -5.956864e+01   5.406734e+00
  -3.938999e+01  -2.521863e+01
   2.477595e+01  -3.522410e+01
   5.147020e+01  -2.765673e+01
   2.204752e+01  -3.352454e+00
  -1.378237e+01   7.782272e+00
  -2.608113e+01   3.981587e-01
   1.095516e+01  -1.477388e+01
   5.011877e+01  -1.733033e+01
