
 $NMID
 id='ANONYMOUS ', fmtdat='(2E16.6)'
 volume=1.0
 tramp=1.0
 $END
  -1.008885e+03  -2.093050e+02
  -9.149882e+02  -7.740373e+02
   2.730394e+02  -4.337603e+02
   6.419344e+02  -3.848536e+02
   2.433392e+02   1.673108e+02
  -8.644651e+01  -8.923154e+00
  -3.183022e+02  -6.960027e+01
  -2.607005e+01  -3.001314e+02
   2.394333e+02  -2.567962e+02
   2.152194e+02  -8.830665e+01
   2.165537e+02   1.881366e+02
  -7.314730e+01   2.506463e+02
  -8.185578e+01   8.406688e+01
  -2.658943e+02  -1.368364e+02
   4.590428e+01  -2.120203e+02
   4.628806e+01  -3.885354e+01
   1.322959e+02   1.131069e+02
  -1.077791e+02   1.939118e+02
  -1.676668e+02   6.900952e+01
  -8.904490e+01  -5.588986e+01
  -3.503984e+01  -1.251801e+02
   4.665849e+01  -2.723524e+01
   2.969835e+01  -9.749385e+00
  -7.055482e+01   1.761588e+00
  -1.458059e+01  -9.750041e+00
  -3.736359e+01  -7.802733e+01
   2.747763e+01  -1.692438e+02
   1.093236e+02  -1.653857e+01
   1.212621e+02   2.627772e+01
  -2.893599e+01   2.251893e+02
  -1.429066e+02  -1.853040e+01
  -1.106855e+02  -7.826467e+01
   1.529456e+01  -9.588974e+01
   1.102091e+02  -1.049640e+01
   9.611689e+01   7.475587e+01
   8.801843e+01   1.209722e+02
  -3.578275e+01   5.751607e+01
  -3.111219e+01  -2.414826e+01
   5.104592e+00  -1.207164e+02
   4.617763e+01   4.798826e+01
   9.616351e+01   2.357730e-01
  -7.263766e+01   1.274521e+02
  -1.612385e+02   5.116559e+01
  -1.076138e+02  -1.243534e+02
   5.956315e+01  -4.350335e+01
   9.653096e+01   2.515129e+01
  -3.174310e-01   1.379814e+02
  -1.925816e+02   8.232410e+01
  -2.110570e+02  -1.711428e+02
  -9.002636e+01  -1.214183e+02
   9.992642e+01  -1.701384e+02
   1.323036e+02  -4.950874e+01
   9.973430e+01   1.079692e+02
   1.152191e+01   1.142020e+02
  -9.867260e+01  -2.592735e+01
  -9.187943e+01  -2.431617e+01
   2.296482e+01  -6.943553e+00
   2.325181e+01   3.537465e+01
  -8.845337e+00   4.530131e+01
  -8.821184e+01   4.030738e+00
  -6.891639e+01  -5.140299e+01
   8.792044e+00  -8.877725e+01
   7.341554e+01  -2.929946e+00
   2.999924e+01   1.826173e+01
  -5.526810e+00   6.231707e+01
   1.463195e+01   1.085432e+01
  -9.802931e+01   5.937466e+01
  -4.361305e+01  -3.333980e+01
  -2.800530e+01  -9.389249e+01
  -2.270696e+01  -8.499963e+01
   1.502968e+01  -4.132961e+01
   9.348718e+00  -1.550801e+00
  -2.090218e+01  -3.875703e+01
   3.503578e+01  -6.264052e+00
   7.375127e+01   2.159195e+01
   1.750802e+01   7.431398e+01
   1.796784e+01   6.441128e+01
  -3.542899e+01   4.775056e+00
  -6.450017e+01  -4.571494e+01
   9.395666e+00  -8.287443e+01
   4.167393e+01   2.408206e+00
   1.342928e+02   2.942793e+01
   5.050646e+01   5.025872e+01
   2.083646e+01   6.805911e+01
  -1.064865e+02   7.061069e+01
  -4.869537e+01   7.160347e+00
  -1.935754e+01   9.764976e+00
  -3.176901e+01   4.762266e+01
  -1.148806e+02  -3.912102e+01
  -8.058969e+01  -1.280965e+02
   2.108144e+01  -8.577891e+01
   1.127102e+02  -8.319523e+01
   1.134779e+02  -3.810364e+01
   7.262648e+01   3.887088e+01
   3.382157e+01   2.938012e+01
  -2.056733e+01   7.970572e+01
  -2.597298e+01   1.138837e+01
   4.539330e+01  -2.485281e+01
   2.291427e+01  -1.577458e+00
   4.828200e+00   4.429784e+01
  -2.786954e+01   4.808926e+01
  -5.930054e+01  -2.274179e+01
  -3.669046e+00  -4.993936e+01
   5.996841e+01  -6.062058e+00
   2.279971e+01   7.303763e+01
  -2.477326e+01   9.659693e+01
  -3.975576e+01   5.003701e+01
  -8.646473e+01  -2.966184e+01
  -6.855759e+01  -7.637291e+01
  -2.196510e+01  -6.034990e+01
   1.212874e+01  -3.636952e+01
   5.659707e+01  -1.367883e+01
   2.064524e+01   7.677697e+00
  -2.337924e+01  -1.740306e+01
   6.317527e+00  -3.795940e+01
   2.382994e+01  -2.796796e+01
   3.003744e+01  -2.028231e-01
   1.691455e+01   2.266263e+01
  -1.321936e+01  -2.578325e-01
  -1.350832e+01  -1.609231e+01
   3.985499e+01  -2.842776e+01
   3.534321e+01  -2.273574e+01
   5.484147e+01   6.616397e+00
   2.472517e+01   5.499654e+01
  -5.731183e+01   8.376078e+01
  -6.007117e+01   2.636357e+01
  -4.728751e+01  -1.535503e+01
   8.187256e+00  -2.540986e+01
   2.340139e+01   6.519590e+00
   9.336520e+00   1.012375e+01
  -7.618928e+01   4.016088e+01
  -5.834387e+01  -3.538090e+01
  -2.116126e+01  -4.995930e+01
   1.406342e+01  -3.304109e+01
   4.139807e+01   1.060474e+01
   2.195857e+01   3.270395e+00
  -1.212946e+01  -1.199523e+00
  -1.603816e+00  -2.963691e+01
   2.593236e+01  -3.416696e+01
   2.266622e+01   1.492995e+01
   4.496591e+01   4.767211e+01
  -1.101695e+01   6.518713e+01
  -4.750861e+01   3.758369e+01
  -4.152881e+01   7.523877e+00
  -2.863899e+01  -1.712406e+01
  -1.374482e+00  -3.178718e+01
   2.322595e+01  -1.510798e+01
   2.550306e+00   1.806171e+00
  -7.336766e-01   1.408734e+00
   3.793298e+00   1.685545e+00
   2.386240e+01   7.056660e+00
   1.604087e+01   2.078461e+01
  -5.431203e+00   4.338301e+01
  -1.410894e+01   6.026692e+01
  -5.106227e+01   2.020378e+01
  -3.005243e+01  -8.512151e+00
   1.350978e+01  -4.905082e+01
   4.122033e+01  -4.372187e+01
   1.734495e+01  -9.955656e+00
   1.154377e+01   7.350314e+00
   1.071984e+01   9.694395e+00
   1.675833e+01  -4.914481e+00
   1.901672e+01   9.450602e+00
   1.649676e+01   1.525617e+01
  -1.581927e+01   2.227446e+01
  -1.982010e+01  -1.222428e+00
  -3.598064e+01  -1.286901e+01
   1.216576e+00  -2.374251e+01
   2.984568e+01  -1.663542e+01
   3.500264e+01   1.712973e+01
   3.990568e+01   2.378454e+01
  -2.326980e+01   1.824142e+01
  -6.813808e+01  -2.888082e+00
  -5.072400e+01  -3.568710e+00
   1.488529e+01  -4.596761e+01
  -3.173732e+00  -3.469987e+01
   3.790745e+01  -3.209512e+01
   2.157802e+01  -6.340601e+00
  -4.434733e+00  -3.481410e+00
   2.917299e+01  -1.505316e+01
   3.646933e+01   5.147844e+00
   2.532367e+01   6.188994e+01
   3.565056e+01   9.516835e+01
  -1.380278e+01   9.140538e+00
  -3.434676e+01   6.120332e+00
  -4.895049e+01  -2.364443e+01
  -2.838340e+00  -2.323919e+01
   1.305863e+01  -1.598817e+01
   9.066908e+00   1.246244e-01
   3.057523e+00   1.209055e+01
  -1.815420e+00   1.405052e+01
   7.520317e+00   2.602540e-02
   1.865886e+01   1.440609e+01
   1.873706e+01   5.126010e+00
  -2.319619e+01   2.364177e+00
  -5.712474e+01  -1.884819e+01
  -4.116715e+01   4.780311e+00
  -1.471919e+01  -1.547417e+01
   2.833208e+01  -1.831916e+01
   4.214682e+01   1.739852e+01
   1.857050e+01   2.097470e+01
  -2.140836e+01   1.684619e+01
  -2.266414e+01  -1.104545e+01
  -4.165226e+00  -1.821830e+01
   1.831841e+01  -1.057552e+01
   1.135976e+01   6.375190e-01
   7.602413e+00   1.071467e+01
   8.523902e+00   1.024351e+01
   1.750769e+01   2.432342e+00
   1.539093e+01  -2.308704e+00
   1.204809e+00   1.345778e+01
  -1.905314e+01   4.468738e+01
  -5.592751e+01   3.835455e+01
  -1.432365e+01   1.358037e+01
  -3.024049e+01  -2.757485e+01
   1.330643e+01  -2.357906e+01
   2.011430e+01  -2.507254e+01
   3.608450e+00   1.563561e+00
  -1.468804e+01  -1.158191e+00
  -2.791575e+01  -1.467743e+01
  -2.385955e+01  -2.979202e+01
   2.101327e+01  -2.737845e+01
   5.731818e+01  -1.411158e+01
   3.547959e+01   2.719700e+00
   1.772703e+01   2.270909e+01
  -1.556538e+00   1.686195e+01
  -7.368025e+00   2.314805e+00
   8.170239e+00  -9.734311e+00
   1.757272e+01   1.484319e+00
   2.784591e+00   9.138044e+00
  -2.389916e+01   4.427650e+01
  -5.154402e+01   3.689574e+00
  -3.760183e+01  -3.010845e+01
  -1.182680e+01  -5.563537e+01
   1.039235e+01  -4.072527e+01
   2.113250e+01  -9.825755e+00
   1.356013e+01   4.110351e+01
  -9.933131e+00   2.847592e+01
  -6.586615e+00   6.625349e+00
  -9.865544e+00  -1.742323e+01
  -5.615671e+00   4.225019e-01
  -1.185606e+00   6.440850e+00
  -4.970825e+00  -6.144000e+00
  -1.510066e+01  -1.885127e+01
  -1.166681e+01  -1.952744e+01
   8.957125e+00  -9.653649e+00
   2.701246e+01   1.833592e+01
   1.648996e+01   1.443954e+01
   2.979491e+00   6.625382e+00
  -2.434574e+01   9.080096e-01
  -1.625582e+01   1.244416e+00
  -4.626055e+00  -5.286601e+00
   4.116104e+00  -6.292744e+00
   5.363373e+00  -3.238258e+00
  -3.046058e+00  -1.689387e-01
   9.287622e-01   1.534479e+00
   2.783063e+01   2.178969e+00
   1.543926e+01   2.250654e+00
   8.494017e+00   1.106879e+01
  -4.335505e+01   3.060351e+01
  -7.595054e+01   3.018433e+01
  -3.141789e+01  -2.261781e+01
  -7.990918e+00  -3.166346e+01
   1.368021e+01  -3.678908e+01
   4.386303e+01  -4.980462e+00
   1.749580e+01   8.674946e+00
   7.461286e+00   1.199155e+01
  -1.738123e+00   2.764738e+00
   1.435398e+00   3.722208e+00
   9.451843e+00   1.585876e+01
   7.571574e-01   2.966745e+01
  -5.587655e+00   1.631226e+01
  -2.046986e+01  -1.385617e+01
  -2.627534e+01  -2.347273e+01
   1.139883e+01  -2.692648e+01
   2.400809e+01   2.488473e+00
   3.318239e+01   1.043251e+01
  -2.061068e+00   2.486309e+01
  -1.299585e+01   9.466951e+00
  -2.462251e+01  -9.438164e+00
  -2.694190e+00  -9.643504e+00
   1.443366e+01  -1.588824e+01
   5.501558e+00  -5.339698e+00
  -9.016131e+00   2.279342e+00
  -2.062771e+01   4.135480e+00
  -5.356705e+00  -3.978756e+00
   3.354047e+01  -2.487652e+01
   4.141931e+01  -2.559740e+01
   9.413589e+00   3.978141e+00
  -2.865091e+00   1.279776e+01
  -7.570945e+00   2.088508e+01
  -7.168278e+00   3.749376e+00
  -4.635883e+00  -2.042991e+01
   6.563911e+00  -7.930769e+00
   7.297179e+00   4.287139e-01
   6.603112e+00   8.543352e+00
  -1.834499e+00   6.450490e+00
  -4.882147e+00  -1.002412e+00
  -9.813000e+00  -1.071113e+01
  -6.800358e+00  -2.274130e+00
  -3.006822e+00   3.079738e+00
   4.894806e-01  -2.210479e+00
  -2.016864e+00  -1.298605e+01
   4.666207e+00  -1.096910e+01
   8.802055e+00  -3.105437e+00
   9.996092e+00   1.426610e+01
   7.281590e+00   7.965681e+00
  -5.474514e+00   2.914008e+00
  -1.498078e+01  -7.984590e+00
   1.885323e+00  -1.716801e+01
   2.389326e+01  -5.586930e+00
   2.600521e+01   1.215303e+00
   1.143710e+01   1.569594e+01
  -4.276191e+00   1.362865e+01
  -1.417979e+01   1.132040e+01
  -7.265281e+00  -5.244880e-01
   1.234551e+01   3.141476e-01
   1.000270e+01   2.802084e+00
  -1.338396e+01   1.023394e+01
  -1.948283e+01   7.678877e+00
