
 $NMID
 id='ANONYMOUS ', fmtdat='(2E16.6)'
 volume=1.0
 tramp=1.0
 $END
  -2.265074e+03  -6.758425e+02
  -1.765579e+03  -1.375618e+03
   1.640580e+01  -1.795280e+03
   1.468408e+03  -7.977579e+02
   6.812954e+02   6.749802e+01
   6.266140e+01   2.087957e+02
  -3.174096e+02  -2.437413e+02
  -7.015735e+01  -5.979995e+02
   4.748302e+02  -3.321950e+02
   5.114575e+02   6.144030e+01
   2.772155e+02   6.074421e+02
  -4.688039e+01   4.734817e+02
  -2.996855e+02   1.298436e+02
  -2.877978e+02  -3.873016e+02
   1.948342e+02  -3.621579e+02
   4.072620e+02  -4.214215e+01
   2.131023e+02   4.011898e+02
  -2.352860e+02   4.104380e+02
  -3.717464e+02   1.339593e+02
  -3.110666e+02  -1.947889e+02
  -5.252513e+01  -3.197085e+02
   1.269050e+02  -2.025253e+02
   7.401412e+01  -4.975555e+01
  -1.404071e+02  -5.834613e+01
  -2.179579e+02  -1.759366e+02
  -3.230642e+01  -2.679021e+02
   3.638483e+02  -1.736663e+02
   4.590409e+02   1.071726e+02
   2.216538e+02   3.022359e+02
  -2.655427e+02   1.967843e+02
  -3.859830e+02  -1.077843e+02
  -2.151178e+02  -3.429055e+02
   1.491784e+02  -2.887473e+02
   3.096248e+02  -4.207862e+01
   2.340919e+02   1.543547e+02
   5.653351e+01   2.704217e+02
  -4.335673e+01   1.167781e+02
  -4.160046e+00  -5.898588e+01
   1.357069e+02  -1.562597e+02
   1.870735e+02   1.098242e+02
   7.788040e+01   4.257465e+02
  -1.816877e+02   3.537567e+02
  -2.967982e+02   1.662264e+01
  -5.535312e+01  -2.979590e+02
   1.355301e+02  -1.196004e+02
   2.248815e+02   2.221804e+02
  -1.332841e+02   2.910587e+02
  -3.233212e+02  -2.368239e+01
  -3.711858e+02  -4.121824e+02
  -1.331281e+02  -3.667239e+02
   2.323255e+02  -1.763762e+02
   4.431818e+02   1.532191e+01
   2.279572e+02   2.605412e+02
  -6.364554e+01   2.108516e+02
  -2.736766e+02   2.002865e+00
  -1.895333e+02  -8.851686e+01
   2.022567e+01  -3.018079e+01
   3.575889e+01   6.278442e+01
  -6.556768e+01   6.929426e+01
  -1.663252e+02  -2.732394e+01
  -8.168479e+01  -1.741674e+02
   1.824984e+02  -1.755028e+02
   2.662528e+02  -3.881521e+01
   2.095388e+02   8.490256e+01
  -8.082733e+00   2.247689e+02
  -1.383235e+02   2.511963e+02
  -2.774098e+02   3.860415e+01
  -1.379532e+02  -9.490583e+01
   3.788782e+01  -3.111344e+02
   7.870814e+01  -2.797765e+02
   5.811285e+01  -1.151098e+02
   5.080532e+01  -2.636107e+01
   9.400468e+01  -9.569032e+01
   1.726677e+02  -4.354911e+01
   1.735049e+02   1.085970e+02
   5.317364e+01   1.847496e+02
  -6.853827e+01   1.823002e+02
  -1.246232e+02  -3.023289e+01
  -1.148302e+02  -1.570031e+02
   3.608979e+01  -1.568981e+02
   1.923083e+02  -2.649760e+01
   2.564637e+02   1.294759e+02
   1.186322e+02   2.188962e+02
  -6.017824e+01   1.899343e+02
  -1.531391e+02   1.045889e+02
  -1.140894e+02   1.261584e+01
  -9.981598e+01   2.593581e+01
  -1.715358e+02   2.430026e+00
  -2.083144e+02  -1.203843e+02
  -2.113243e+02  -2.568217e+02
   8.415061e+01  -2.903595e+02
   2.919324e+02  -2.194384e+02
   2.983132e+02  -1.098836e+02
   1.868020e+02   7.547884e+01
   1.700151e+01   1.722817e+02
  -8.082218e+01   1.475571e+02
  -2.682503e+01   2.498780e+01
   8.844996e+01  -3.713282e+01
   1.006668e+02   4.391236e+01
  -1.717859e+01   1.045283e+02
  -1.218605e+02   8.040567e+01
  -8.919008e+01  -5.833091e+01
   9.622215e+00  -1.020026e+02
   1.113395e+02   6.221019e+00
   1.099121e+02   1.580353e+02
   2.494311e+00   2.494974e+02
  -1.864082e+02   1.563676e+02
  -2.559831e+02  -6.149507e+01
  -1.813455e+02  -1.847684e+02
  -1.108666e+01  -2.416590e+02
   1.096512e+02  -1.157756e+02
   1.066927e+02   2.099584e+01
   3.426749e+01   2.197512e+01
  -2.901656e+01  -5.988163e+01
   1.112717e+01  -6.934013e+01
   8.208465e+01  -4.083507e+01
   1.065008e+02   1.897369e+01
   1.361855e+01   4.374846e+01
  -5.368862e+01  -4.584289e+00
  -2.758442e+01  -6.990622e+01
   9.923205e+01  -5.612345e+01
   2.045377e+02   3.481778e+01
   1.941348e+02   1.199983e+02
  -1.049064e+00   1.677022e+02
  -2.031190e+02   1.360258e+02
  -1.995019e+02   5.991604e+01
  -1.110667e+02  -5.269674e+01
   1.893608e+01  -5.285888e+01
   4.980401e+01   1.052343e+01
  -4.065392e+01   6.491783e+01
  -1.336440e+02   1.571665e+01
  -1.015485e+02  -9.121140e+01
  -3.530194e+01  -1.497400e+02
   6.853529e+01  -9.226444e+01
   8.608105e+01  -2.367893e+00
   3.294296e+01   3.259496e+01
  -3.067135e+01  -1.450022e+01
  -6.695438e+00  -7.761810e+01
   8.679322e+01  -6.933168e+01
   1.348576e+02   1.147901e+01
   1.151888e+02   1.178085e+02
  -4.292285e+01   1.470630e+02
  -1.329460e+02   1.044956e+02
  -1.430242e+02   2.643771e+01
  -3.502189e+01  -8.490227e+01
   5.288598e+01  -7.926903e+01
   5.910537e+01  -2.282440e+01
   1.428081e+00   1.291520e+01
  -2.321111e+01   8.155978e-01
   5.546303e+00  -1.211251e+01
   6.277681e+01   2.106325e+01
   6.499022e+01   6.416073e+01
  -2.627237e+01   1.334181e+02
  -1.225968e+02   1.035543e+02
  -1.811281e+02  -1.130867e+01
  -1.391839e+02  -1.199755e+02
  -2.103760e+01  -1.576813e+02
   9.253228e+01  -1.065014e+02
   9.243095e+01  -1.249620e+01
   5.400209e+01   3.501451e+01
   2.171941e+01   2.680403e+01
   4.476880e+01  -6.173068e+00
   6.209337e+01   3.419618e+00
   3.639447e+01   3.479985e+01
  -3.414588e+01   6.780563e+01
  -8.850942e+01   2.912428e+01
  -7.438113e+01  -5.935223e+01
   3.003245e+01  -7.974623e+01
   1.053940e+02  -8.576923e+01
   1.497861e+02   4.895380e+01
   6.727456e+01   1.365208e+02
  -7.714500e+01   1.385620e+02
  -2.124762e+02  -6.725470e+00
  -1.983661e+02  -8.730828e+01
  -1.241835e+01  -1.385361e+02
   3.783907e+01  -1.014313e+02
   7.205817e+01  -5.101416e+01
   4.987497e+01  -4.248393e+01
   4.252403e+01  -6.385867e+01
   6.873687e+01  -4.990568e+01
   8.951324e+01   1.550862e+01
   6.493327e+01   1.423053e+02
  -1.936887e+01   1.871178e+02
  -7.871251e+01   1.154146e+02
  -1.315670e+02  -6.203038e+00
  -1.035273e+02  -1.150437e+02
  -6.931765e+00  -1.063733e+02
   5.506408e+01  -5.622292e+01
   4.503621e+01   1.516097e+01
  -1.280578e+01   4.427369e+01
  -1.832669e+01   2.670238e+01
   1.990483e+01   9.844535e+00
   5.352078e+01   2.490169e+01
   4.039613e+01   2.821069e+01
  -5.329876e+01   1.634541e+01
  -1.034456e+02  -1.234850e+01
  -7.399336e+01  -6.416297e+01
  -7.220527e+00  -6.868391e+01
   1.228697e+02  -3.193380e+01
   1.089667e+02  -1.900363e+00
   2.765097e+01   4.332773e+01
  -5.973485e+01   1.706332e+01
  -5.007912e+01  -1.132613e+01
  -5.580777e+00  -5.625120e+01
   5.094548e+01  -4.557082e+01
   4.176068e+01   2.659714e+00
   3.578515e+01   3.981680e+01
   3.256249e+01   2.904709e+01
   4.480737e+01   8.914277e+00
   3.924594e+01  -1.750782e+00
   1.821726e+01   4.640800e+01
  -4.244365e+01   1.084634e+02
  -1.078918e+02   8.308596e+01
  -1.229982e+02   1.966232e+01
  -6.984427e+01  -8.154188e+01
   6.075119e+00  -9.289423e+01
   7.396738e+01  -3.963572e+01
   3.539892e+01   9.023077e+00
  -4.338469e+01   4.644033e+00
  -7.173477e+01  -4.190731e+01
  -3.776674e+01  -1.015393e+02
   6.112089e+01  -7.262488e+01
   1.337083e+02  -5.600333e+00
   1.070971e+02   3.015266e+01
   2.810456e+01   6.397554e+01
  -3.895310e+01   3.964426e+01
  -3.442271e+01  -2.298579e+00
   3.897762e+01  -2.181263e+01
   7.212679e+01   2.405968e+01
   2.832580e+01   8.025684e+01
  -8.480662e+01   1.131243e+02
  -1.368385e+02   2.575738e+01
  -8.660162e+01  -7.803616e+01
  -6.035302e+00  -1.509431e+02
   9.296488e+01  -9.850261e+01
   8.630209e+01   9.200553e+00
   2.229560e+01   1.096663e+02
  -2.500906e+01   7.883735e+01
  -3.158591e+01   1.035090e+01
  -2.810170e+01  -2.542079e+01
  -1.243865e+01  -8.059311e+00
  -4.387358e+00   1.339121e+01
  -1.807470e+01  -1.727439e+01
  -3.279468e+01  -7.890828e+01
  -2.017833e+01  -5.537304e+01
   3.712725e+01  -3.658276e+01
   8.876929e+01   2.835923e+01
   8.634231e+01   5.571890e+01
   3.429182e+00   4.387599e+01
  -5.410376e+01   1.599783e+01
  -7.281994e+01  -1.741431e+00
  -8.255774e+00  -1.096534e+01
   2.347086e+01  -1.779493e+01
   1.702163e+01  -6.952349e+00
  -1.176574e+01   8.447249e-03
   1.996164e+00   4.518839e+00
   5.216691e+01   2.365961e+00
   6.884781e+01   2.201709e+01
   1.035844e+01   5.588384e+01
  -8.227146e+01   7.131480e+01
  -1.495706e+02   9.489021e+00
  -1.081462e+02  -7.027331e+01
  -2.511904e+01  -1.121444e+02
   4.201711e+01  -1.149635e+02
   8.941309e+01  -3.678733e+01
   5.262992e+01   2.436152e+01
   1.027545e+01   3.308107e+01
  -1.070629e+00   8.309169e+00
   6.850589e+00   7.844286e+00
   1.975230e+01   3.653145e+01
   5.775250e+00   6.262060e+01
  -2.175459e+01   4.891610e+01
  -5.224880e+01  -3.003253e+01
  -4.992524e+01  -7.611302e+01
   9.565349e+00  -7.729766e+01
   4.561716e+01  -7.376481e+00
   7.279416e+01   5.903116e+01
   1.047357e+01   7.388475e+01
  -4.958273e+01   3.543575e+01
  -7.265262e+01  -1.074881e+01
  -2.865687e+01  -4.233223e+01
   3.113500e+01  -3.934181e+01
   2.468724e+01  -2.439189e+01
  -2.145919e+01   1.201809e+00
  -4.952636e+01  -2.195973e+00
  -1.279674e+01  -2.202604e+01
   5.671936e+01  -4.141152e+01
   1.072234e+02  -2.466896e+01
   4.860163e+01   2.018326e+01
  -4.803530e+00   4.904517e+01
  -4.965991e+01   5.013405e+01
  -3.563835e+01   5.728191e+00
   6.099264e-02  -4.135497e+01
   2.031419e+01  -2.874641e+01
   3.118351e+01   1.338475e+01
   1.974140e+01   4.039510e+01
  -6.471523e+00   2.653333e+01
  -2.152157e+01  -8.809349e-01
  -1.935141e+01  -2.019995e+01
  -1.591062e+01  -7.416316e+00
   4.222675e-01   1.407090e+01
   4.498655e+00   4.774267e+00
   1.212210e+00  -2.766151e+01
   1.225388e+00  -3.094151e+01
   2.688729e+01  -1.459123e+01
   1.971660e+01   3.637636e+01
   3.714081e+00   4.080604e+01
  -2.570165e+01   1.714290e+01
  -4.099837e+01  -3.216070e+01
  -8.486554e+00  -4.844645e+01
   4.533499e+01  -1.560316e+01
   6.052847e+01   2.832293e+01
   2.397341e+01   3.941073e+01
  -2.906976e+01   3.191137e+01
  -5.310868e+01   1.046776e+01
  -1.845923e+01   4.158777e+00
   1.912266e+01   1.227580e+00
   2.104783e+01   7.164114e+00
  -2.052078e+01   1.566437e+01
  -5.490063e+01   1.410133e+01
