
 $NMID
 id='ANONYMOUS ', fmtdat='(2E16.6)'
 volume=1.0
 tramp=1.0
 $END
  -2.615409e+03   2.316101e+02
  -2.176642e+03  -1.325028e+03
  -6.409566e+01  -1.589201e+03
   9.674252e+02  -1.536723e+03
   8.358960e+02  -2.541369e+02
   5.526543e+01   1.249607e+02
  -3.977350e+02  -1.881648e+01
  -3.812163e+01  -4.935711e+02
   2.134337e+02  -4.571224e+02
   5.986762e+02  -1.876255e+02
   4.916914e+02   3.932059e+02
   4.724379e+01   5.335072e+02
  -2.343421e+02   1.434554e+02
  -1.928328e+02  -3.636680e+02
   7.588056e+01  -5.438698e+02
   2.950474e+02  -9.038581e+01
   2.629960e+02   4.330385e+02
  -9.809311e+01   6.333781e+02
  -4.286826e+02   2.510329e+02
  -3.466990e+02  -1.808850e+02
  -1.259768e+02  -3.292357e+02
   9.336553e+01  -2.414011e+02
   6.872271e+01  -6.963951e+01
  -1.443608e+02  -1.034624e+02
  -2.314728e+02  -2.015580e+02
   8.415533e+00  -3.097404e+02
   4.354431e+02  -1.037533e+02
   5.013030e+02   1.589075e+02
   1.983366e+02   3.017969e+02
  -3.247555e+02   8.299296e+01
  -3.873796e+02   4.033378e+01
  -2.072456e+02  -3.080655e+02
   2.638901e+02  -2.124636e+02
   3.941419e+02  -1.544413e+02
   2.642216e+02   1.135641e+02
   8.869180e+01   2.107541e+02
   2.032348e+01   1.722102e+02
   2.803047e+01  -4.128485e+01
   1.179612e+02  -1.256880e+02
   2.046237e+02   7.874720e+01
  -1.957341e+01   3.724835e+02
  -2.514838e+02   3.454358e+02
  -2.553558e+02   1.085700e+02
  -1.591779e+02  -2.361710e+02
   8.053224e+01  -2.333992e+02
   1.076367e+02   2.254663e+02
  -6.739754e+01   3.227956e+02
  -2.901165e+02   5.893557e+01
  -4.882721e+02  -2.278450e+02
  -1.349822e+02  -4.245160e+02
   2.690669e+02  -2.045099e+02
   3.741808e+02   5.679845e+01
   2.960283e+02   2.156306e+02
  -2.246071e+01   2.001973e+02
  -2.857388e+02   1.089695e+02
  -2.024351e+02  -7.040014e+00
  -4.250887e+01  -2.520434e+01
   6.576851e+01   1.346160e+01
  -6.502539e+01   4.176967e+01
  -1.746471e+02  -4.478704e+01
  -1.069786e+02  -1.494602e+02
   1.623946e+02  -2.177322e+02
   2.417901e+02  -1.450940e+02
   2.321342e+02   8.448860e+01
   3.879472e+00   3.378254e+02
  -2.851249e+02   3.002859e+02
  -3.137868e+02   1.267683e+02
  -2.043781e+02  -1.549474e+02
  -9.104069e+01  -2.870226e+02
   5.843244e+01  -2.991848e+02
   2.116501e+01  -1.569654e+02
   3.208088e+01  -1.118372e+02
   1.279274e+02  -9.872609e+01
   1.995314e+02   5.840596e+00
   2.368250e+02   7.004299e+01
   7.460165e+01   2.263104e+02
  -9.569708e+01   1.549229e+02
  -1.454782e+02  -2.103901e+01
  -6.346085e+01  -2.101166e+02
   1.818773e+01  -2.051520e+02
   2.096187e+02  -6.700927e+01
   2.892928e+02   1.415588e+02
   1.118543e+02   2.385953e+02
  -2.319561e+01   2.086566e+02
  -1.617788e+02   1.793720e+02
  -1.113457e+02   8.456604e+01
  -1.307115e+02   4.259665e+01
  -2.669115e+02   2.471919e+01
  -3.704875e+02  -1.909590e+01
  -3.263668e+02  -2.305040e+02
  -6.659950e+01  -3.665561e+02
   3.808886e+02  -3.151913e+02
   4.026185e+02  -1.488156e+02
   2.960999e+02   5.690234e+01
  -1.024228e+01   2.072603e+02
  -8.728423e+01   1.541161e+02
  -1.091811e+01   4.953414e+01
   9.318592e+01  -3.539833e+01
   1.207146e+02   1.371511e+01
   5.147522e+00   1.086112e+02
  -8.575524e+01   9.477516e+01
  -9.675385e+01  -1.625704e+01
   7.712539e-01  -1.060546e+02
   1.563843e+02  -2.107809e+01
   1.270875e+02   2.073764e+02
  -1.257308e+01   2.988397e+02
  -1.756264e+02   1.956956e+02
  -3.082501e+02  -3.702980e+00
  -2.961137e+02  -2.570476e+02
  -8.915768e+01  -2.396502e+02
   7.659501e+01  -1.118576e+02
   1.284593e+02  -9.479154e+00
   3.106653e+01   5.850644e+00
  -5.101477e+01  -5.052595e+01
  -1.787306e+01  -1.025375e+02
   9.542261e+01  -5.917340e+01
   1.158072e+02   2.480271e+01
   2.861089e+01   4.568431e+01
  -7.172865e+01  -1.062645e+01
  -2.894752e+01  -8.412183e+01
   1.145005e+02  -7.064646e+01
   2.870320e+02   2.931005e+00
   1.954773e+02   1.512330e+02
   3.593614e+01   2.202880e+02
  -1.864684e+02   2.580589e+02
  -2.294191e+02   1.000190e+02
  -1.167533e+02  -4.008236e+01
   3.202371e+01  -7.345387e+01
   4.508501e+01  -1.202679e+00
  -4.901038e+01   5.492232e+01
  -1.783614e+02   3.322338e+01
  -1.605113e+02  -7.077950e+01
  -2.685124e+01  -1.718806e+02
   8.197065e+01  -1.022155e+02
   1.146500e+02  -2.597837e+01
   3.436948e+01   2.528799e+01
  -2.977911e+01  -9.028098e+00
  -3.188569e+01  -1.067010e+02
   7.469732e+01  -1.201380e+02
   2.002651e+02  -9.169236e+00
   1.628193e+02   8.218294e+01
   2.870664e+01   1.785020e+02
  -1.264600e+02   1.487862e+02
  -1.582627e+02   2.850406e+01
  -4.847150e+01  -7.383858e+01
   5.005711e+01  -9.443149e+01
   5.554677e+01  -2.567730e+01
   1.677538e+00   1.985973e+01
  -3.258470e+01   6.279348e+00
   7.422031e+00  -2.783042e+01
   8.359450e+01  -1.814982e+01
   9.990014e+01   7.259083e+01
   3.037020e+01   1.451947e+02
  -1.054045e+02   1.217339e+02
  -2.105108e+02   7.103756e+00
  -1.578329e+02  -1.226282e+02
  -2.299533e+01  -2.186282e+02
   7.571830e+01  -1.559649e+02
   1.012362e+02  -1.776371e+01
   5.992570e+01   2.591617e+01
   3.501612e+01   2.533081e+01
   4.611354e+01  -1.389360e+01
   6.356610e+01  -1.527629e+01
   4.466244e+01   5.277631e+01
  -1.753994e+01   8.863168e+01
  -1.173025e+02   6.806165e+01
  -1.036157e+02  -3.630532e+01
   2.056566e+01  -1.022376e+02
   1.434612e+02  -8.317403e+01
   1.974213e+02   3.724618e+01
   7.006002e+01   1.910011e+02
  -1.302379e+02   2.350914e+02
  -2.148398e+02   1.328532e+02
  -2.600321e+02  -8.939672e+01
  -8.707945e+01  -1.419772e+02
   4.953093e+01  -1.408030e+02
   6.768061e+01  -7.521089e+01
   5.996468e+01  -6.660290e+01
   6.335902e+01  -8.563605e+01
   8.055859e+01  -6.271427e+01
   1.171005e+02   7.834039e-02
   1.280595e+02   1.454661e+02
   3.364973e+01   2.070666e+02
  -9.361039e+01   1.353164e+02
  -1.334693e+02   1.834731e+01
  -1.179416e+02  -8.607792e+01
  -2.444049e+01  -1.387848e+02
   6.325486e+01  -7.284973e+01
   4.850989e+01   1.311505e+01
  -5.010218e+00   4.767317e+01
  -2.820584e+01   2.664642e+01
   2.426467e+01   1.328065e+01
   7.052906e+01  -9.013010e+00
   5.235533e+01   3.863098e+01
  -6.841261e+01   3.675635e+01
  -1.582588e+02   1.009044e-01
  -1.095663e+02  -7.855984e+01
   1.751323e+01  -8.000430e+01
   1.130749e+02  -7.838697e+01
   1.256105e+02  -1.007227e+01
   4.620646e+01   4.321602e+01
  -5.328690e+01   4.069400e+01
  -6.064850e+01  -1.761075e+01
  -1.931296e+01  -5.975834e+01
   3.508344e+01  -7.218098e+01
   5.771490e+01  -1.148058e+00
   5.553702e+01   3.986471e+01
   3.320273e+01   3.612689e+01
   5.483803e+01  -1.087831e+00
   4.884586e+01   1.345557e+00
   4.280125e+01   5.627284e+01
  -1.225434e+01   1.348679e+02
  -8.201608e+01   1.405075e+02
  -1.690118e+02   2.031897e+01
  -1.202383e+02  -8.731447e+01
  -1.147321e+01  -1.099877e+02
   6.965211e+01  -6.536053e+01
   5.478711e+01   1.034695e+01
  -5.314904e+01   2.601935e+01
  -1.184194e+02  -3.406716e+01
  -6.834084e+01  -7.861479e+01
   6.275173e+01  -9.419369e+01
   1.370856e+02  -4.122648e+01
   1.349424e+02   3.396572e+01
   2.055443e+01   7.290323e+01
  -5.652743e+01   3.731926e+01
  -4.036018e+01   3.781422e+00
   3.075827e+01  -3.146087e+01
   7.653286e+01   2.241054e+01
   1.965133e+01   1.065797e+02
  -3.561465e+01   1.441457e+02
  -1.321050e+02   7.354214e+01
  -1.209729e+02  -5.171635e+01
  -2.685508e+01  -1.890182e+02
   5.684012e+01  -1.314994e+02
   8.432966e+01   1.830486e+01
   5.539926e+01   9.064062e+01
   4.241498e+00   9.980619e+01
  -4.782743e+01   8.054836e+00
  -4.120143e+01  -2.096706e+01
  -1.120647e+01  -7.270057e+00
  -3.307209e+00   1.352554e+01
  -3.100544e+01  -1.593769e+01
  -5.234919e+01  -7.089447e+01
  -2.623051e+01  -8.528402e+01
   5.350267e+01  -3.597669e+01
   1.228438e+02   1.337562e+01
   1.079962e+02   5.851175e+01
   1.373839e+01   4.155576e+01
  -6.692815e+01   2.430908e+01
  -7.797404e+01   3.013842e+00
  -1.705817e+01  -9.478175e+00
   2.966354e+01  -1.173784e+01
   1.427321e+01  -1.272592e+01
  -1.146773e+01   5.842011e+00
   3.234641e+00   5.114907e+00
   5.371570e+01  -9.304038e+00
   8.639245e+01   3.426510e+00
   2.583549e+01   7.512221e+01
  -8.747276e+01   1.113462e+02
  -1.467960e+02   6.272250e+01
  -1.674455e+02  -3.344370e+01
  -3.041210e+01  -1.262138e+02
   7.399800e+01  -1.311129e+02
   9.819057e+01  -7.598478e+01
   7.664591e+01   1.533649e+01
   2.364681e+01   3.145178e+01
   4.711771e+00   1.336382e+01
   1.342764e+01   6.677634e+00
   2.620112e+01   4.360062e+01
   2.383095e+01   7.974140e+01
  -3.793461e+01   6.407409e+01
  -7.040518e+01   4.195636e+00
  -8.290717e+01  -7.807604e+01
  -1.576727e+01  -8.714693e+01
   5.994961e+01  -3.923750e+01
   1.019975e+02   5.632634e+01
   4.267643e+01   9.456364e+01
  -5.576406e+01   5.418738e+01
  -8.941579e+01   3.688232e+00
  -4.452222e+01  -4.536475e+01
   1.842605e+01  -6.322256e+01
   3.536367e+01  -2.476820e+01
  -2.284935e+01   1.063447e+01
  -6.640336e+01   1.408440e+01
  -1.433342e+01  -2.185143e+01
   6.935056e+01  -8.074115e+01
   1.052350e+02  -6.748126e+01
   7.012385e+01   1.117742e+01
  -1.291596e+01   7.187442e+01
  -5.364812e+01   6.482456e+01
  -4.277474e+01   1.286584e+01
  -6.954642e+00  -3.863591e+01
   1.560702e+01  -4.334282e+01
   3.134025e+01   5.913684e+00
   2.839059e+01   3.940684e+01
   6.734811e+00   3.668526e+01
  -2.601526e+01  -2.782537e+00
  -3.672882e+01  -1.943088e+01
  -1.842826e+01  -4.154978e+00
   8.634528e+00   1.840379e+01
   6.382855e+00   1.128805e+01
  -1.122708e+01  -2.895926e+01
  -1.869120e+00  -4.439484e+01
   2.003943e+01  -2.340595e+01
   3.827417e+01   2.170308e+01
   1.039864e+01   5.620431e+01
  -3.423817e+01   2.553023e+01
  -6.143834e+01  -2.740632e+01
  -2.375879e+01  -6.113280e+01
   5.036823e+01  -4.931586e+01
   7.995215e+01   1.385461e+00
   4.965008e+01   3.166136e+01
  -2.635827e+01   4.143752e+01
  -6.080743e+01   2.787183e+01
  -2.318860e+01   8.471416e+00
   2.257354e+01  -1.014985e+01
   2.482608e+01   2.972870e+00
  -1.489357e+01   2.649590e+01
  -6.687633e+01   1.825582e+01
