
 $NMID
 id='ANONYMOUS ', fmtdat='(2E16.6)'
 volume=1.0
 tramp=1.0
 $END
  -1.220417e+03   8.967481e+02
  -1.202648e+03  -7.498769e+02
  -1.417899e+02  -1.603398e+03
   3.449291e+02  -1.151790e+03
   7.622843e+02  -3.565949e+02
   1.602791e+02   1.245360e+02
  -1.593722e+02   8.730209e+01
  -2.237091e+02  -1.135500e+02
   6.414413e+01  -5.081598e+02
   4.641093e+02  -1.168187e+02
   3.885642e+02   1.475833e+02
   3.099654e+01   4.527283e+02
  -1.336678e+02   1.880027e+02
  -2.259797e+02  -1.475831e+02
   4.883967e+01  -2.521709e+02
   2.226809e+02  -1.073494e+02
   2.955916e+02   2.178769e+02
  -2.079517e+01   3.681616e+02
  -2.470835e+02   3.170579e+02
  -2.878175e+02  -5.731183e+01
  -1.373518e+02  -1.745017e+02
   5.902944e+01  -1.779129e+02
   2.544143e+01  -5.698958e+01
  -1.009544e+02  -8.155778e+01
  -1.145197e+02  -1.408607e+02
   2.292339e+00  -1.579962e+02
   3.062251e+02  -1.025827e+02
   2.955547e+02   8.465470e+01
   2.073954e+02   1.325951e+02
  -1.855542e+02   1.560601e+01
  -2.561338e+02  -2.310859e+01
  -2.513227e+02  -2.058953e+02
   1.456856e+02  -2.241031e+02
   2.767041e+02  -1.129486e+02
   1.890984e+02   6.584054e+01
   1.091611e+02   1.736206e+02
   6.300678e+01   9.912366e+01
   5.056753e+01  -3.852938e+01
   7.856551e+01  -7.732311e+01
   5.902519e+01   6.532607e+01
   2.785713e+00   3.107719e+02
  -9.453020e+01   2.331862e+02
  -1.363058e+02   7.796239e+01
  -6.962186e+01  -6.411829e+01
   2.165935e+01  -5.271948e+01
   8.084389e+01   1.036356e+02
  -4.555603e+00   1.918774e+02
  -2.837487e+02   7.352403e+01
  -2.639227e+02  -1.743611e+02
  -5.412302e+01  -3.536121e+02
   1.533167e+02  -1.478178e+02
   4.311581e+02  -3.078184e+01
   2.693767e+02   1.060441e+02
   1.567333e+01   1.162503e+02
  -1.438322e+02   5.497565e+01
  -1.391821e+02   1.778905e+01
  -1.032801e+01  -2.957672e+01
  -6.302922e-01  -8.058756e+00
  -3.465253e+01   3.487525e+01
  -1.098083e+02  -2.255068e+01
  -7.541187e+01  -7.949183e+01
   7.959840e+01  -1.337714e+02
   1.973830e+02  -1.058794e+02
   1.999463e+02   6.981650e+01
  -9.426981e+00   2.181389e+02
  -2.063400e+02   2.814203e+02
  -2.208883e+02   1.640803e+02
  -1.290761e+02  -6.925237e+01
  -1.347595e+02  -2.367703e+02
   1.052655e+00  -1.777493e+02
  -2.888507e+01  -1.437424e+02
   1.733458e+01  -8.536072e+01
   1.124599e+02  -8.765466e+01
   1.556117e+02  -2.389662e+01
   1.615640e+02   4.185334e+01
   4.929586e+01   1.083963e+02
  -6.863645e+01   1.391590e+02
  -1.171091e+02  -1.801374e+01
  -9.980736e+01  -1.697018e+02
  -2.133546e+01  -1.503508e+02
   9.978556e+01  -5.752779e+01
   1.702372e+02   1.030680e+02
   1.583957e+02   2.153258e+02
  -1.683475e+00   1.688009e+02
  -8.024640e+01   1.181491e+02
  -9.729758e+01   8.032494e+01
  -1.139580e+02   7.192582e+01
  -2.137438e+02   2.812404e+01
  -2.587230e+02  -4.239328e+00
  -1.457686e+02  -1.412700e+02
  -4.997864e+01  -2.511882e+02
   2.470127e+02  -2.968203e+02
   2.839817e+02  -1.293857e+02
   1.374909e+02   6.381646e+01
   1.128081e+01   1.404278e+02
  -2.813560e+01   9.912924e+01
   4.337456e+00   2.454002e+01
   6.367447e+01  -1.560877e+01
   8.814573e+01   2.750785e+01
   1.678677e+01   5.362940e+01
  -4.887431e+01   6.254712e+01
  -6.550453e+01  -1.585434e+01
   7.682598e-01  -7.291380e+01
   5.957095e+01  -2.537828e+00
   9.526395e+01   1.063496e+02
   1.023937e+01   2.358353e+02
  -1.648877e+02   9.969327e+01
  -2.011095e+02  -1.937976e+01
  -1.731555e+02  -1.325442e+02
  -3.892254e+01  -1.508639e+02
   6.131552e+01  -9.121449e+01
   1.069673e+02  -2.376694e+01
   1.555290e+01   4.042514e+00
  -2.523800e+01  -3.400309e+01
  -4.113876e-01  -5.651248e+01
   6.474716e+01  -4.932158e+01
   9.669671e+01   1.266537e+01
   1.502999e+01   2.413078e+01
  -6.264142e+01  -8.538332e+00
  -2.674661e+01  -5.632272e+01
   1.049628e+02  -5.246220e+01
   2.065016e+02  -6.230602e+00
   1.704410e+02   4.796477e+01
   7.540262e+00   1.717477e+02
  -1.067072e+02   1.644299e+02
  -1.114971e+02   8.436519e+01
  -7.239196e+01  -2.673512e+01
   2.164082e+01  -4.120671e+01
   2.015923e+01  -4.124861e+00
  -3.701309e+01   5.135228e+01
  -1.117903e+02   3.561426e+01
  -1.060408e+02  -3.429565e+01
  -3.472850e+01  -1.305913e+02
   3.980484e+01  -7.354319e+01
   8.491588e+01  -1.863396e+01
   2.236531e+01   1.734310e+01
  -2.779423e+01  -2.123651e+01
  -1.570382e+01  -6.281670e+01
   6.130535e+01  -6.455483e+01
   1.118532e+02  -2.489158e+01
   1.466726e+02   9.365997e+01
   1.580888e+01   1.259973e+02
  -1.093084e+02   8.392133e+01
  -1.123527e+02  -1.532301e+00
  -4.411850e+01  -4.279221e+01
   3.639724e+01  -6.723772e+01
   3.600917e+01  -2.561562e+01
   3.638763e+00   1.352160e+01
  -3.214849e+01   4.278941e+00
   8.103070e-01  -1.992442e+01
   6.401532e+01  -1.413130e+01
   7.589359e+01   4.726009e+01
   1.160052e+01   1.109507e+02
  -9.119960e+01   1.030875e+02
  -1.637166e+02  -7.716830e+00
  -1.242182e+02  -8.206283e+01
  -5.850264e+01  -1.512042e+02
   6.484096e+01  -8.848124e+01
   6.299438e+01  -2.812741e+01
   5.686294e+01   2.273108e+01
   2.467228e+01   1.942552e+01
   2.967018e+01  -1.190512e+01
   5.290233e+01   4.861168e-01
   5.013197e+01   4.508170e+01
  -2.367849e+01   9.495866e+01
  -6.500614e+01   5.705396e+01
  -7.084730e+01  -1.026704e+01
   6.716126e+00  -1.071876e+02
   1.107419e+02  -5.680009e+01
   1.567810e+02   4.252074e+01
   6.551713e+01   1.675455e+02
  -6.641395e+01   1.753787e+02
  -1.196384e+02   6.257474e+01
  -1.599757e+02  -5.651942e+01
  -6.795123e+01  -7.301738e+01
   1.271251e+01  -1.082639e+02
   4.078089e+01  -5.465863e+01
   4.344792e+01  -2.939693e+01
   1.554706e+01  -5.447983e+01
   6.168934e+01  -5.583930e+01
   8.165326e+01   1.537483e+00
   7.313395e+01   7.720794e+01
   1.953745e+01   1.241713e+02
  -4.978948e+01   1.018706e+02
  -1.237980e+02   1.619653e+01
  -7.528696e+01  -6.684018e+01
   1.769216e+00  -1.036977e+02
   4.640719e+01  -5.481682e+01
   4.980886e+01   7.491612e+00
  -4.892692e+00   3.535687e+01
  -2.314032e+01   2.726695e+01
   1.879450e+01   6.733877e+00
   4.852849e+01  -4.099347e+00
   3.532657e+01   2.336593e+01
  -3.652357e+01   3.037758e+01
  -1.197369e+02   1.521101e+01
  -1.022026e+02  -2.837561e+01
  -4.121323e+00  -6.702916e+01
   8.096554e+01  -5.929389e+01
   9.533201e+01  -2.908964e+00
   2.587418e+01   3.397778e+01
  -3.095615e+01   3.733595e+01
  -5.398353e+01   1.971548e+00
  -1.581547e+01  -5.428246e+01
   1.586437e+01  -4.420756e+01
   4.132289e+01  -1.227799e+01
   3.893148e+01   3.309161e+01
   3.574488e+01   2.482556e+01
   2.766914e+01  -5.641467e+00
   4.996875e+01   2.701045e-01
   3.818933e+01   4.375435e+01
  -9.916466e-01   9.977257e+01
  -6.282092e+01   1.029673e+02
  -1.278818e+02   3.201289e+01
  -8.856263e+01  -5.800902e+01
  -1.763087e+01  -7.271201e+01
   5.034852e+01  -5.973113e+01
   4.442784e+01   5.184769e+00
  -3.636430e+01   1.789874e+01
  -8.068932e+01  -1.104868e+01
  -5.141751e+01  -5.719670e+01
   5.239555e+01  -7.399356e+01
   1.006134e+02  -4.484806e+01
   8.786419e+01   2.215496e+01
   2.947987e+01   4.768143e+01
  -4.645201e+01   4.989879e+01
  -2.846547e+01   2.612040e-01
   2.361593e+01  -2.344521e+01
   6.127053e+01   7.077066e+00
   3.850535e+01   6.278306e+01
  -4.069144e+01   9.355382e+01
  -7.768333e+01   6.077985e+01
  -7.812178e+01  -5.998080e+01
  -4.014143e+01  -1.282863e+02
   4.855940e+01  -9.536785e+01
   7.348911e+01  -7.928558e+00
   1.887190e+01   6.560140e+01
  -1.020979e+01   4.455358e+01
  -3.773489e+01   1.668365e+01
  -2.697347e+01  -1.453581e+01
  -8.732859e+00  -3.318615e+00
  -1.755441e+00   9.999871e+00
  -2.763502e+01  -1.323550e+01
  -4.209032e+01  -4.822892e+01
  -2.624488e+01  -5.557721e+01
   4.115908e+01  -2.534999e+01
   9.405406e+01   1.929108e+01
   7.706066e+01   4.989037e+01
   1.725491e+01   2.894916e+01
  -4.464383e+01   1.933304e+01
  -5.882187e+01   2.463239e+00
  -1.423852e+01  -8.556428e+00
   1.854934e+01  -1.621378e+01
   9.877379e+00  -6.572362e+00
  -7.912311e+00   5.588881e+00
   1.999998e+00   1.720130e+00
   3.691917e+01  -9.924161e+00
   4.733417e+01   8.408017e+00
   2.491392e+01   3.834572e+01
  -6.057193e+01   6.137741e+01
  -1.254490e+02   5.949418e+01
  -9.694767e+01  -1.872755e+01
  -4.385515e+01  -1.064986e+02
   5.506554e+01  -1.235225e+02
   6.252669e+01  -3.539870e+01
   4.750697e+01  -1.644219e-01
   1.909769e+01   1.455094e+01
   2.947448e+00   8.736792e+00
   9.839541e+00   4.236552e+00
   2.516891e+01   2.642474e+01
  -2.310271e-01   4.913788e+01
  -1.925117e+01   5.347830e+01
  -5.359438e+01   2.544412e+00
  -4.655294e+01  -5.620915e+01
  -2.647475e+01  -6.349721e+01
   3.950412e+01  -1.962550e+01
   5.551542e+01   2.317806e+01
   3.468280e+01   5.472035e+01
  -2.209017e+01   5.140219e+01
  -7.152477e+01   7.886790e+00
  -3.569188e+01  -2.703513e+01
   1.909316e+01  -4.311338e+01
   2.379748e+01  -2.478022e+01
  -1.061985e+01   4.860339e+00
  -4.639032e+01   1.745089e+01
  -1.246667e+01  -1.453281e+01
   3.223744e+01  -3.982107e+01
   8.363586e+01  -5.891520e+01
   4.821938e+01   1.041721e+01
  -4.264910e+00   5.015125e+01
  -3.468963e+01   4.901396e+01
  -2.997244e+01   1.626789e+01
  -9.740781e+00  -3.457284e+01
   6.541853e+00  -2.439293e+01
   2.501429e+01   3.739223e+00
   2.130404e+01   3.136962e+01
   1.409733e+00   2.406078e+01
  -2.144247e+01  -3.359442e-01
  -2.540124e+01  -8.807172e+00
  -1.249127e+01  -1.102435e+00
   5.538308e+00   1.198888e+01
   5.122831e+00   1.028262e+01
  -7.406963e+00  -1.974243e+01
  -7.713786e+00  -3.429802e+01
   1.922868e+01  -2.185438e+01
   3.069134e+01   1.495206e+01
   1.897035e+01   4.438486e+01
  -2.443127e+01   1.606021e+01
  -4.218039e+01  -5.507010e+00
  -1.837297e+01  -3.053950e+01
   2.250323e+01  -2.511241e+01
   5.021404e+01  -1.025888e+01
   3.952869e+01   1.995228e+01
  -1.738615e+01   2.785500e+01
  -3.765175e+01   2.334559e+01
  -1.916120e+01   3.130993e+00
   1.057175e+01  -9.683062e+00
   2.268138e+01  -6.337857e-01
  -5.779016e+00   1.526263e+01
  -3.662835e+01   1.985545e+01
