
 $NMID
 id='ANONYMOUS ', fmtdat='(2E16.6)'
 volume=1.0
 tramp=1.0
 $END
  -1.162222e+03   4.403185e+02
  -5.336704e+02  -7.131581e+02
  -4.261520e+02  -3.848002e+02
   2.540455e+02  -1.118794e+02
   2.947432e+02  -7.538302e+01
   1.049498e+02  -8.997538e-02
   1.750475e+01  -1.270553e+02
  -2.013543e+01  -1.829338e+02
  -3.177778e+01  -1.941955e+02
   1.046841e+02   4.623824e+01
   3.256246e+01   8.202359e+01
   1.070096e+00   7.602497e+01
   5.098176e+01   1.384203e+01
   2.551542e+01  -1.516661e+02
   2.022518e+02  -6.754204e+01
   1.135785e+02  -2.544711e+01
   1.070708e+02   1.279021e+02
  -1.038664e+01   1.663896e+02
  -1.107156e+02   2.301325e+01
  -1.655835e+02  -5.337037e+01
  -4.088704e+01  -1.191335e+02
   1.429630e+01  -5.730199e+01
  -2.012900e+00  -2.883023e+01
  -5.675838e+01   1.199047e+00
  -1.244955e+02  -1.960003e+01
  -4.901884e+01  -1.124377e+02
   1.909989e+02  -5.513681e+01
   1.627756e+02   1.456671e+02
   7.200366e+01   1.204155e+02
  -1.614629e+02  -3.602860e+01
  -1.025214e+02  -1.550354e+01
   2.915071e+00  -8.896260e+01
   7.122906e+01  -1.269756e+01
   8.155274e+01  -8.416885e+01
   5.067689e+01   5.651272e+01
   6.274980e+01   5.012850e+01
   2.855921e+00   1.891626e+01
   2.250238e+01  -2.274000e+01
   6.290462e+01  -1.613604e+01
   5.490209e+01  -2.506039e+01
  -2.637335e+01   5.034871e+01
  -7.148164e+00   1.125511e+02
  -5.167777e+01  -4.164533e+01
  -1.503024e+01   1.487475e+01
   2.986197e+01  -2.225756e+01
   1.870673e+01   6.741608e+01
  -3.290868e+01   8.210970e+01
  -9.396632e+01   2.794288e+01
  -5.168564e+01  -8.928872e+01
   5.386218e+01  -7.115015e+01
   4.724574e+01   7.084838e+00
   5.398205e+01   6.379574e+01
   6.407467e+01   7.640839e+01
  -1.875820e+01   1.965532e+00
  -5.718145e+01  -6.174416e+00
  -4.181104e+01  -2.529196e+01
  -1.322350e+01   2.505331e+01
   1.908444e+01   2.422172e+01
  -1.555445e+01   2.513288e+01
  -4.633699e+01  -5.237382e+01
   8.748903e+00  -2.190052e+01
   3.901325e+01  -4.043462e+01
   7.715138e+01  -4.215119e+01
   4.221375e+01   1.754744e+01
   3.273419e+01   1.414380e+02
  -1.012602e+02   1.047728e+01
  -1.323040e+02   4.933206e+01
  -5.327540e+01  -5.809386e+01
  -3.803701e+01  -7.574841e+01
   3.841740e+01  -5.583934e+01
   2.054037e+01  -5.758881e+01
   3.908593e+00  -5.410568e+01
   3.829525e+01  -4.340502e+01
   6.338584e+01  -1.947066e+01
   6.728410e+01   4.920183e+01
   5.968839e+01   1.057746e+02
  -4.444536e+01   5.564888e+00
  -3.632258e+01  -1.831739e+01
  -1.112951e+01  -5.813752e+01
   3.354447e+01  -3.444751e+01
   6.000645e+01  -2.566006e+01
   6.365905e+01   4.961911e+01
   1.038832e+01   5.779743e+01
  -1.118753e+01   2.782372e+01
  -6.448841e+01   1.682290e+01
  -3.639767e+01   2.271166e+01
  -4.612522e+01   1.723188e-01
  -9.204066e+01  -4.815375e+01
  -1.102028e+02  -9.744047e+00
  -1.176485e+02  -1.768234e+01
  -2.295201e+00  -1.175523e+02
   1.575858e+02  -8.514068e+01
   1.607511e+02  -5.139573e+01
   9.908108e+01   1.741852e+01
  -3.826632e+01   7.156736e+01
  -3.722213e+01   5.393767e+01
  -2.617178e+00  -2.176050e+00
   2.991951e+01  -1.317946e+01
   3.318327e+01   1.348538e+01
   1.994140e+01   3.855049e+01
  -4.035135e+01   2.889902e+01
  -3.874151e+01  -1.444143e+01
  -2.248325e+00  -2.698804e+01
   5.639043e+01  -2.268261e+01
   6.227943e+01   4.856203e+01
   2.060973e+01   1.054437e+02
  -7.459117e+01   5.148542e+01
  -5.424322e+01   1.557182e+01
  -1.170894e+02  -8.227052e+01
  -5.087573e+01  -4.650554e+01
   1.984409e+01  -3.272119e+01
   1.995506e+01  -3.682509e-01
   8.442295e+00   1.876875e+00
  -1.035392e+01  -1.570634e+01
  -1.157606e+01  -2.651536e+01
   3.960150e+01  -1.740501e+01
   3.266872e+01   1.703130e+01
   1.261486e+01   1.769625e+01
  -1.663966e+01  -6.784844e+00
  -1.450460e+01  -2.373356e+01
   2.979195e+01  -3.997673e+01
   7.658342e+01  -1.910804e+01
   7.719999e+01   2.287060e+01
   2.623773e+01   7.908922e+01
  -7.823408e+01   5.737450e+01
  -5.455204e+01   4.425408e+01
  -2.492608e+01  -1.268925e+01
   1.481669e+01  -2.499857e+01
   6.510749e+00  -1.278693e+00
  -2.426065e+01   1.492622e+01
  -6.766447e+01  -1.180922e+01
  -5.824411e+01  -8.743090e+00
   4.835933e+00  -3.010679e+01
   3.336237e+01  -3.671056e+01
   1.352225e+01  -1.238454e+01
   1.018256e+01   6.245752e+00
  -1.099267e+01  -5.569646e+00
  -5.578119e+00  -4.749660e+01
   2.389958e+01  -4.379427e+01
   5.522705e+01   1.183279e+01
   4.094916e+01   2.415618e+01
   5.149714e+00   3.964191e+01
  -3.770866e+01   3.281528e+01
  -4.395328e+01   2.002299e+01
  -1.091710e+01  -2.240851e+01
   2.587636e+01  -6.010172e+00
   2.015334e+01  -9.765341e+00
   1.609193e+00   6.034300e+00
  -6.228344e+00   5.625166e-01
  -1.606154e+00  -1.050098e+01
   2.532536e+01  -6.596722e+00
   2.981077e+01   1.650144e+01
   1.652331e+01   4.347988e+01
  -2.594040e+01   5.373325e+01
  -6.142011e+01  -7.336062e+00
  -6.022215e+01  -4.307557e+01
   8.349794e+00  -4.734196e+01
   5.007985e+00  -4.365280e+01
   2.537487e+01  -8.237335e+00
   1.363239e+01   2.522307e+00
   3.715897e+00   7.124152e+00
   1.325413e+01  -1.225817e+01
   1.236039e+01  -1.727891e+01
   1.013959e+01   1.180461e+01
  -2.233164e+00   9.146305e+00
  -2.793378e+01   2.975726e+01
  -2.854296e+01   2.174909e+00
   1.974911e+01  -3.720986e+01
   2.908732e+01  -4.024016e+01
   4.304780e+01   3.492551e+01
  -6.100672e-01   6.046946e+01
  -4.240784e+01   8.458762e+01
  -7.544302e+01   3.371734e+01
  -5.479823e+01  -4.294879e+01
  -3.174394e+01  -3.407695e+01
   3.551136e+01  -4.423607e+01
   3.324524e+01  -2.416165e+01
   1.538345e+01  -1.977737e+01
   1.905188e+01  -3.274627e+01
   2.025523e+01  -2.214430e+00
   4.724246e+01   1.450523e+00
   3.700231e+01   6.006780e+01
   3.453471e+00   5.407930e+01
  -2.450865e+01   5.092318e+01
  -3.956197e+01   1.382491e+01
  -2.965844e+01  -1.755440e+01
   1.546651e+00  -3.069168e+01
   2.899840e+01  -1.170935e+01
   1.784333e+01   1.339980e+00
  -4.895554e+00   9.397909e+00
  -7.774134e+00   7.526126e+00
   5.232619e+00   6.888679e+00
   2.922151e+01  -4.801412e+00
   1.270933e+01   1.806136e+01
  -2.173118e+01   1.439942e+01
  -6.266408e+01  -6.126566e+00
  -4.070883e+01  -3.616992e+01
   1.760532e+00  -2.385394e+01
   2.418462e+01  -4.389487e+00
   3.294476e+01  -4.019143e+00
   1.243816e+01   1.292613e+01
  -1.437643e+01   8.033536e+00
  -1.762416e+01  -5.473000e+00
  -2.452160e+00  -2.227071e+01
   8.909376e+00  -1.947511e+01
   2.381538e+01  -6.833973e+00
   1.795803e+01   1.576684e+01
   1.037108e+01   1.290680e+01
   1.378534e+01  -4.869660e-01
   1.051734e+01   6.523200e+00
   1.976752e+01   1.523011e+01
   7.418346e+00   1.581624e+01
  -3.215373e+01   3.404739e+01
  -5.694433e+01  -9.001734e+00
  -2.403505e+01  -4.335516e+01
  -3.726055e+00  -4.936411e+01
   2.801235e+01  -2.272220e+01
   2.384446e+01  -2.143605e+00
  -1.656379e+01   4.748708e+00
  -3.898052e+01  -1.762452e+01
  -2.481293e+01  -2.661497e+01
   1.048237e+01  -2.728101e+01
   6.713767e+01  -3.149698e+01
   4.090349e+01   3.657615e+01
   5.991791e+00   3.390583e+01
  -2.904753e+01   1.267757e+01
  -8.112888e+00   5.496144e-01
   1.417396e+01  -1.155339e+01
   1.593477e+01   6.299911e+00
  -7.627178e+00   3.343056e+01
  -6.678298e+00   4.287909e+01
  -4.839381e+01   2.340327e+01
  -3.685396e+01  -5.995799e-01
  -1.823198e+01  -5.141948e+01
   2.178302e+00  -4.793050e+01
   2.612899e+01   1.232392e+01
   2.910497e+01   2.729444e+01
   6.955148e+00   3.267875e+01
  -1.767849e+01   4.085792e-01
  -2.154846e+01   7.012888e-01
  -2.966911e+00  -2.975619e+00
  -1.206748e+00   3.390730e+00
  -7.757105e+00  -6.404748e+00
  -1.902323e+01  -1.695019e+01
  -4.159520e+00  -2.451431e+01
   2.195884e+01  -9.244414e+00
   3.466833e+01   1.655535e+01
   1.151496e+01   2.278459e+01
   6.858528e-01   1.255718e+01
  -1.346269e+01   2.465277e+01
  -1.704144e+01  -8.053026e+00
  -3.132518e+00  -4.692868e+00
   1.237584e+01  -2.645139e+00
   2.600771e+00  -4.706364e+00
  -2.655339e+00   2.387205e+00
  -2.878354e-01   1.213960e+00
   9.534880e+00   1.959519e+00
   3.109360e+01   8.002895e+00
   1.040676e+01   2.920860e+01
  -1.526069e+01   4.279028e+01
  -4.634725e+01  -1.416872e+00
  -4.917677e+01  -6.569124e+00
  -7.040431e+00  -2.781150e+01
   2.603947e+01  -4.162935e+01
   3.413894e+01  -2.727171e+01
   2.090770e+01   1.259877e+00
   1.307153e+01   9.003668e+00
   1.944598e+00   3.114412e+00
   3.773985e+00   8.741127e-01
   1.035543e+01   1.229293e+01
   7.460252e+00   1.844391e+01
  -1.097324e+01   1.681838e+01
  -2.075740e+01  -2.498046e-01
  -2.245507e+01  -3.449041e+01
  -3.441141e+00  -2.653647e+01
   1.126623e+01  -1.782796e+01
   2.790109e+01   2.499241e+01
   1.441959e+01   2.904756e+01
  -2.059715e+01   2.812129e+01
  -2.901049e+01  -1.756820e+00
  -1.226280e+01  -1.448728e+01
  -5.255884e-01  -1.549817e+01
   1.329071e+01  -6.924594e+00
  -4.675043e+00   1.713749e+00
  -1.340680e+01  -4.928437e-01
  -3.999757e+00  -6.725598e+00
   2.709291e+01  -2.724178e+01
   3.807085e+01  -2.642472e+00
   1.566130e+01   1.080828e+01
  -1.172569e+00   2.059560e+01
  -1.787633e+01   2.675293e+01
  -8.427445e+00  -2.055017e+00
   3.286780e+00  -1.240000e+01
   1.279756e+00  -1.971948e+01
   9.255960e+00  -4.712885e-01
   1.456277e+01   8.852395e+00
   2.855879e+00   9.787365e+00
  -9.858471e+00  -4.207632e-01
  -1.560251e+01  -5.351045e+00
  -3.969075e+00  -1.163135e+00
   2.763150e+00   4.053481e+00
   3.788186e+00   5.961415e+00
   7.352733e-01  -4.293206e+00
   8.453328e-01  -1.316547e+01
   2.741871e+00  -4.089279e+00
   1.025677e+01   4.924422e+00
   1.360277e+00   1.440831e+01
  -1.518898e+01   9.208918e+00
  -1.227705e+01  -1.535394e+01
  -9.805745e+00  -2.103459e+01
   2.415103e+01  -1.327860e+01
   2.167490e+01   8.062941e-01
   1.989539e+01   2.178992e+00
  -1.412646e+00   8.284073e+00
  -2.139135e+01   7.151156e+00
  -4.436824e+00   4.311044e+00
   8.809614e+00  -3.961586e-01
   4.576770e+00   2.070289e+00
  -6.000948e+00   3.550810e+00
  -1.787091e+01   5.367279e+00
