
 $NMID
 id='ANONYMOUS ', fmtdat='(2E16.6)'
 volume=1.0
 tramp=1.0
 $END
   1.311369e+03  -6.119904e+02
  -1.245337e+01   4.533320e+02
  -6.535204e+00   7.149763e+02
  -4.915834e+02   3.876581e+02
  -3.992608e+02   2.143851e+02
   2.480267e+01  -3.187980e-01
   7.300201e+01   9.074673e+01
   2.169777e+01   1.969040e+02
  -1.087374e+02   2.427437e+02
  -9.495916e+01   2.151396e+01
  -1.339352e+02  -2.004796e+02
  -7.705059e+01  -1.878157e+02
   9.544337e+01  -9.366655e+01
  -4.144158e+01   7.618276e+01
  -1.046721e+02   8.692938e+01
  -1.947417e+02   3.311387e+01
  -9.205793e+01  -2.590521e+02
  -6.679416e+01  -1.751727e+02
   1.215349e+02  -3.018436e+01
   2.112699e+02   9.016214e+01
   4.105513e+01   1.532923e+02
  -3.443770e+01   4.119112e+01
  -1.903841e+01   1.145460e+01
   1.312353e+02   2.742325e+01
   1.381342e+02   1.091448e+02
   4.827005e+01   1.315761e+02
  -1.790017e+02   2.469993e+01
  -1.792994e+02  -1.394746e+02
  -2.179194e+01  -1.107642e+02
   9.961641e+01   1.122897e+01
   1.815671e+02   3.474130e+01
   1.579231e+01   1.191336e+02
  -1.124457e+02   1.372887e+02
  -1.853912e+02   8.068647e+01
  -9.416906e+01  -5.617324e+01
  -5.084872e+01  -1.054892e+02
   7.075929e+00  -6.840778e+01
  -3.220114e+01   5.769440e+01
  -5.745304e+01  -1.485066e+01
  -9.698168e+01  -3.155927e+01
  -2.024266e+01  -1.456374e+02
   1.297865e+02  -1.848002e+02
   7.306746e+01   1.729169e+01
   6.722168e+01   1.624361e+02
  -8.592112e+01   3.787696e+01
  -7.501172e+01  -1.577351e+02
   6.179163e+00  -1.975579e+02
   9.389425e+01   3.271079e+01
   1.233480e+02   8.204819e+01
  -5.450580e+01   1.649162e+02
  -1.142627e+02   4.329408e+01
  -1.148840e+02  -3.260631e+01
  -1.032686e+02  -5.041986e+01
   1.896055e+01  -1.029476e+02
   8.165576e+01  -4.917984e+00
   6.085380e+01   3.233846e+01
   2.009265e+00   3.422185e+00
   1.369259e+01  -4.098851e+01
   6.595802e+01  -1.654075e+01
   3.982748e+01   4.467095e+01
   6.147897e+00   1.035702e+02
  -9.677827e+01   8.023811e+01
  -1.335853e+02   2.990600e+01
  -2.470050e+01  -2.861794e+01
   2.218986e+01  -9.655288e+01
   1.345525e+02  -9.045589e+01
   8.042427e+01  -3.646406e+01
   9.141998e+01   6.748108e+01
   5.542505e+00   1.479852e+02
  -5.146162e+01   3.982856e+01
   5.984960e+00   4.514581e+01
  -1.474612e+00   5.288355e+01
  -5.724251e+01   3.512831e+01
  -9.178009e+01   1.589779e+01
  -8.702530e+01  -5.151535e+01
  -2.255697e+01  -1.041590e+02
   5.234992e+01  -2.644371e+01
   6.041890e+01   3.124616e+01
   1.516681e+01   9.734036e+01
  -2.714914e+01   6.051363e+01
  -9.619662e+01   4.297677e+01
  -9.122637e+01  -5.583203e+01
  -4.165657e+01  -9.970065e+01
   3.573114e+01  -6.774372e+01
   3.193371e+00   3.583895e+00
   5.777126e+01  -4.321881e+01
   4.060285e+01  -1.920989e+00
   1.038197e+02   2.392868e+01
   1.261053e+02   1.464863e+01
   1.642975e+02   1.159673e+02
  -2.527800e-01   1.805024e+02
  -2.150543e+02   1.002600e+02
  -1.428834e+02   1.447013e+01
  -7.986436e+01  -4.385930e+01
   1.966480e+01  -7.935281e+01
   4.570652e+01  -5.838801e+01
   1.310229e+00  -1.262493e+01
  -4.545719e+01   6.647086e+00
  -5.338880e+01  -2.634409e+01
  -1.206943e+01  -6.200106e+01
   5.097393e+01  -3.329649e+01
   3.925753e+01   5.536758e+00
  -1.650481e+01   3.559704e+01
  -4.628252e+01  -4.369515e+00
  -2.918932e+01  -4.783183e+01
   1.204738e+01  -6.598410e+01
   6.072749e+01  -8.234179e+01
   1.159707e+02   2.383980e+01
   7.015096e+01   1.200972e+02
   6.402592e+01   1.068273e+02
  -2.901275e+01   5.936012e+01
  -4.878549e+01  -9.642842e+00
  -2.498191e+00  -5.437252e+00
   1.375920e+01   2.174828e+01
   1.617703e+01   4.176129e+01
  -3.941634e+01   1.444085e+01
  -3.067535e+01  -1.129299e+01
  -1.001834e+01  -1.659379e+01
   1.701522e+01   9.716499e+00
   4.087177e+00   2.833619e+01
  -5.614393e+01   2.610938e+01
  -1.274507e+02  -4.081245e+01
  -7.699691e+01  -1.057425e+02
   1.146621e+00  -9.913453e+01
   5.899883e+01  -4.557317e+01
   1.071012e+02  -2.630882e+01
   4.537096e+01   2.087305e+01
  -2.456238e+01   1.193049e+01
  -2.639527e+01  -4.089671e-01
   2.170377e+01  -2.996738e+01
   5.230457e+01   1.615821e+01
   9.226526e+01   4.417494e+01
   1.259999e+01   8.229638e+01
  -4.032092e+01   4.935795e+01
  -4.751701e+01   7.313166e+00
  -1.486680e+01  -1.919631e+01
   1.668642e+01   1.020004e-01
   2.299477e+01   4.115238e+01
  -3.959384e+01   3.917803e+01
  -1.062513e+02   4.209168e+00
  -7.571839e+01  -6.990608e+01
  -5.664285e+00  -6.903300e+01
   5.601777e+01  -2.174496e+01
   4.959446e+01  -9.584627e-01
   2.504723e+01   2.436661e+01
  -4.455604e+01   1.752682e+01
  -1.138287e+01   1.397053e+01
   8.876216e-02  -1.084557e+01
   1.378744e+01  -1.552215e+00
  -3.459426e+00   1.360670e+01
  -3.860006e+01   1.012253e+00
  -4.371716e+01  -4.302156e+01
  -1.041945e+01  -7.288399e+01
   5.567096e+01  -3.917381e+01
   7.172107e+01   3.024314e+01
   7.245669e+01   7.179579e+01
   5.568150e+00   9.690905e+01
  -2.813283e+01   7.282846e+01
  -5.179609e+01   1.472077e+01
  -2.233314e+01  -1.461871e+01
  -9.649493e+00  -1.102940e+01
  -2.185653e+01   2.619896e+00
  -3.808004e+01   7.438155e+00
  -1.667279e+01  -2.124778e+01
   2.115040e+01  -3.670926e+01
   5.838139e+01  -2.169416e+01
   3.860299e+01   1.470956e+01
  -1.657999e+01   2.377518e+01
  -5.606862e+01   4.347495e+01
  -7.780465e+01  -4.607811e+01
  -5.279151e+00  -7.718262e+01
   8.690304e+01  -8.397710e+01
   1.246287e+02  -5.892729e+01
   9.035410e+01   5.173430e+01
   5.587061e+01   7.102696e+01
  -3.258621e+01   3.387582e+01
  -3.004853e+01   9.017986e+00
  -1.709997e+01   2.674894e+01
  -3.313315e+01   2.972177e+01
  -3.652785e+01   2.151070e+01
  -4.452600e+01  -7.709823e+00
  -3.280529e+01  -6.618146e+01
  -2.653775e+01  -6.712292e+01
   4.769382e+01  -9.143277e+01
   4.473634e+01  -1.040534e+01
   3.520164e+01   5.313400e+01
  -9.344765e+00   4.395059e+01
  -3.147726e+01   1.784627e+01
  -2.219789e+01  -9.376406e+00
  -3.196723e+00  -2.400771e+01
   8.771464e+00  -1.085689e+01
  -6.661567e+00  -7.913225e+00
  -3.389867e+01   2.211108e-01
  -8.281533e+00  -1.070757e+01
   2.622173e+01  -9.542257e+00
   4.446277e+01  -4.949064e+00
   6.280614e+01   3.720982e+01
  -6.483470e+00   4.443435e+01
  -5.984620e+01   2.620917e+01
  -4.963396e+01   6.595698e+00
  -1.454480e+01  -8.906137e+00
   1.951400e+01  -1.279788e+01
   2.073693e+01  -2.668591e+00
   1.298720e+01   2.696266e+01
  -1.960960e+01   2.669013e+01
  -2.663650e+01   3.903694e-01
  -2.196762e+01  -2.262547e+01
  -1.618601e+01  -1.734294e+01
  -1.680489e+01  -2.905584e-01
  -1.264892e+01  -8.171825e+00
  -1.207651e+01  -2.949584e+01
   5.487582e+00  -5.304929e+01
   2.762347e+01  -5.311507e+01
   7.257857e+01   2.183330e+00
   3.586726e+01   2.076835e+01
  -7.842075e+00   5.237703e+01
  -2.145528e+01   2.536477e+01
  -2.236264e+01  -8.656708e+00
   1.840285e+01  -2.952543e+00
   5.223561e+01   2.050766e+01
   3.771086e+01   2.929125e+01
  -2.403863e+01   3.588495e+01
  -5.981345e+01   3.324241e+01
  -5.001325e+01  -2.111163e+01
  -8.337315e+00  -2.722638e+01
   2.521418e+01  -8.238742e+00
   2.498354e+01   1.822190e+00
  -1.497026e+01   6.723622e+00
  -3.616415e+01  -1.593634e+01
  -3.259941e+00  -4.782049e+01
   1.948537e+01  -4.864544e+01
   6.380901e+01  -2.811653e+01
   4.604668e+01   3.080617e+01
  -1.937609e+00   4.552230e+01
  -3.811488e+01   5.713866e+01
  -1.853965e+01  -1.690595e+01
  -8.724064e+00  -4.652994e+01
   3.238749e+00  -4.389113e+01
   1.682701e+01  -7.385460e-01
   2.885026e+01   1.501923e+01
   4.268610e+00   5.212154e+00
   1.232016e+00  -5.091072e+00
   8.793834e+00   1.009511e+01
   2.363579e+01   4.893688e+01
   1.570475e+00   4.508952e+01
  -1.355151e+01   6.963102e+00
  -5.207207e+01  -3.226549e+00
  -3.512436e+01  -4.839416e+01
  -2.894641e+00  -2.207414e+01
   3.011686e+01  -1.027151e+01
   2.833097e+01  -2.166715e+00
   4.276960e+00   3.439715e+00
  -1.116096e+01   6.150188e+00
  -8.097347e+00   6.225973e+00
   5.286807e+00  -3.082774e+00
  -1.502024e+00  -1.702303e+00
  -1.834892e+01  -2.406966e+00
  -3.591222e+01  -9.056166e+00
  -1.419310e+01  -3.734273e+01
   3.604585e+01  -5.375905e+01
   4.983508e+01  -1.480047e+00
   5.284100e+01   9.492439e+00
   5.172208e+00   5.487179e+01
  -3.203181e+01   5.809933e+01
  -3.489846e+01   3.008861e+01
  -2.187255e+01  -1.270881e+01
  -1.830370e+01  -1.552985e+01
  -8.062915e-01  -6.146310e+00
  -6.344754e+00  -5.441027e+00
  -1.107187e+01  -1.679220e+01
  -3.189645e+00  -3.118498e+01
   1.470991e+01  -1.256639e+01
   2.555854e+01  -1.703765e+00
   1.470384e+01   3.507545e+01
   8.543194e+00   4.303486e+01
  -2.682497e+01   2.224976e+01
  -3.600478e+01  -2.162221e+01
  -1.338142e+01  -4.031292e+01
   2.502520e+01  -2.454742e+01
   3.708141e+01   9.294908e+00
   1.598743e+01   2.803564e+01
  -1.269639e+01   2.321139e+01
  -1.434511e+01   8.787814e+00
   6.935030e+00   2.679064e+00
   1.904833e+01  -1.097823e+00
   6.990750e+00   1.150587e+01
  -1.643465e+01   1.764951e+01
  -3.435195e+01   1.136754e+01
  -3.072129e+01  -6.664985e+00
   1.075194e+01  -2.979470e+01
   2.430032e+01  -2.855964e+01
   1.232857e+01  -1.948823e+00
  -4.648007e+00   1.438628e+01
  -1.195164e+01   2.452276e+01
  -1.365107e+01  -2.052245e+00
  -8.537657e+00  -2.409147e+01
   1.571180e+00  -1.638816e+01
   9.141346e+00   1.160234e+00
   1.890618e+01   1.010816e+01
   8.313563e+00  -8.766556e-01
  -1.985475e+00  -9.622749e+00
   3.897744e-01  -4.796443e+00
  -1.195091e+00   7.627248e+00
   4.498735e+00   1.602920e+01
  -9.939527e+00   6.970100e+00
  -1.567929e+01  -1.821713e+01
  -1.132589e+00  -1.724169e+01
   1.360126e+01  -6.420889e+00
   2.098576e+01   1.022613e+01
   5.252158e+00   2.633850e+01
  -1.989249e+01   1.844045e+01
  -3.292360e+01  -9.925069e+00
  -1.995153e+01  -1.260093e+01
   8.828793e+00  -1.747343e+01
   2.385577e+01  -6.837698e+00
   8.525877e+00  -5.058051e+00
  -7.692342e+00   2.084770e+00
  -9.134090e+00  -8.081282e-01
   8.472553e+00  -5.131993e+00
   3.103483e+01  -4.348297e+00
