
 $NMID
 id='ANONYMOUS ', fmtdat='(2E16.6)'
 volume=1.0
 tramp=1.0
 $END
  -2.276337e+03  -3.466987e+02
  -1.472376e+03  -8.964193e+02
   2.565205e+02  -1.360420e+03
   8.199819e+02  -1.129762e+03
   6.477638e+02  -3.062741e+02
   4.616978e+01   1.047940e+02
  -1.452209e+02  -3.583743e+01
  -1.537732e+02  -4.134679e+02
   3.096236e+02  -4.289569e+02
   5.227264e+02  -1.551563e+02
   3.053941e+02   3.490345e+02
   9.974324e+00   5.377197e+02
  -2.242546e+02   1.515051e+02
  -1.993152e+02  -1.091318e+02
   7.428299e+01  -4.795376e+02
   2.931575e+02  -5.887324e+01
   2.728170e+02   3.419200e+02
   3.858172e+00   5.626350e+02
  -2.498068e+02   3.247699e+02
  -3.676645e+02  -1.257401e+02
  -1.279009e+02  -2.516591e+02
   1.057293e+02  -2.040827e+02
   5.007475e+01  -6.616943e+01
  -1.915120e+02  -1.449228e+02
  -1.986553e+02  -2.595412e+02
   5.610296e+01  -3.309845e+02
   3.738906e+02  -1.252539e+02
   4.448420e+02   2.965143e+02
   1.378367e+02   2.841751e+02
  -1.694994e+02   1.234577e+02
  -3.766234e+02  -1.630709e+02
  -1.555422e+02  -2.177238e+02
   1.724576e+02  -2.986355e+02
   3.564052e+02  -1.653914e+02
   2.494603e+02   1.329944e+02
   6.704648e+01   1.726394e+02
  -2.811580e+01   9.901601e+01
   6.918885e+01  -6.530492e+00
   9.323801e+01  -1.251999e+02
   7.683997e+01   1.362989e+02
   4.116212e+01   2.928533e+02
  -1.244172e+02   3.374133e+02
  -2.227185e+02  -4.065066e+01
  -8.834949e+01  -2.332693e+02
   1.311507e+02  -3.044370e+01
   1.580818e+02   2.153600e+02
  -1.158815e+02   3.203698e+02
  -4.114965e+02  -1.405247e+01
  -4.113152e+02  -3.259786e+02
  -1.699544e+02  -3.231747e+02
   2.339384e+02  -2.005282e+02
   3.421233e+02   4.629715e+01
   2.635395e+02   2.457493e+02
   1.670656e+01   1.862053e+02
  -2.183041e+02   3.270061e+01
  -2.028925e+02   1.309030e+00
  -8.073037e+00  -1.017255e+00
   1.949875e+01   4.604485e+01
  -7.992632e+01   3.714510e+01
  -1.032503e+02   3.345905e+01
  -1.033197e+02  -1.144436e+02
   1.194328e+02  -2.314663e+02
   3.049397e+02  -1.147632e+02
   2.167495e+02   4.598922e+01
  -2.761938e+01   2.881789e+02
  -2.512538e+02   3.105209e+02
  -2.786254e+02   1.165500e+02
  -1.706422e+02  -1.668002e+02
   3.429422e+00  -2.817090e+02
  -5.163756e+01  -2.608751e+02
  -2.213582e+01  -1.579129e+02
   3.283904e+01  -1.108895e+02
   1.403152e+02  -1.272696e+02
   2.289149e+02  -2.001868e+01
   1.502067e+02   1.234903e+02
   3.447192e+01   2.317015e+02
  -5.228717e+01   1.382947e+02
  -1.437120e+02  -6.333879e+01
  -8.462251e+01  -1.651579e+02
   5.341788e+01  -1.791817e+02
   1.910794e+02  -4.143655e+01
   2.367189e+02   1.104301e+02
   1.155557e+02   2.188187e+02
  -2.721238e+01   2.404142e+02
  -1.237162e+02   1.381064e+02
  -1.083161e+02   6.476273e+01
  -1.269132e+02   7.428645e+01
  -2.198497e+02   4.234945e+01
  -3.303189e+02  -9.926143e+01
  -2.635306e+02  -2.406553e+02
   4.905576e+01  -3.470063e+02
   3.946155e+02  -2.327581e+02
   4.373163e+02  -8.945944e+01
   2.189745e+02   1.411914e+02
  -9.506426e+00   1.855738e+02
  -6.781131e+01   1.799889e+02
   7.184008e+00   3.622551e+01
   9.291957e+01  -1.473740e+01
   7.973910e+01   5.632661e+01
  -1.550109e+01   1.123958e+02
  -7.998089e+01   4.923425e+01
  -5.504680e+01  -6.083896e+01
   4.887833e+01  -7.666156e+01
   1.217246e+02   2.577923e-01
   1.692651e+02   1.814993e+02
  -2.488984e+01   2.554966e+02
  -2.123337e+02   1.399327e+02
  -2.987290e+02  -7.493106e+01
  -2.158295e+02  -2.104559e+02
  -5.507502e+01  -2.421416e+02
   1.150023e+02  -1.204337e+02
   1.014335e+02  -1.888869e+00
   1.182497e+01   2.656833e+00
  -3.163742e+01  -6.946138e+01
   1.516576e+01  -9.169552e+01
   8.565519e+01  -3.924184e+01
   1.054940e+02   1.427261e+01
   4.546503e+00   4.131255e+01
  -5.610653e+01  -2.381571e+01
  -3.245342e+01  -9.171547e+01
   1.303059e+02  -7.340389e+01
   2.109667e+02   1.113388e+01
   2.277308e+02   1.191422e+02
   1.313107e+01   2.047572e+02
  -1.889880e+02   1.889388e+02
  -2.261852e+02   7.523158e+01
  -1.056433e+02  -3.542177e+01
   2.720357e+01  -5.028977e+01
   6.199116e+01   3.540512e+00
  -4.943634e+01   6.512049e+01
  -1.295984e+02   1.834834e+01
  -1.498816e+02  -1.083026e+02
  -6.558670e+01  -1.414653e+02
   7.550382e+01  -1.055557e+02
   8.760309e+01  -2.095429e+01
   3.771382e+01   2.932571e+01
  -4.022010e+01  -2.093726e+01
  -1.092868e+01  -1.137118e+02
   1.061674e+02  -8.989188e+01
   1.878008e+02   3.178653e+00
   1.055972e+02   1.191718e+02
  -1.183522e-01   1.670843e+02
  -1.407140e+02   1.320906e+02
  -1.431943e+02   1.998515e+01
  -3.996764e+01  -6.804206e+01
   3.652117e+01  -6.838545e+01
   5.795324e+01  -2.465354e+01
  -1.674369e+00   1.773978e+01
  -3.663682e+01   9.349187e+00
   5.642793e+00  -2.962439e+01
   7.996815e+01   3.534099e+00
   8.883969e+01   7.682151e+01
   4.766857e+00   1.308258e+02
  -1.190568e+02   1.444765e+02
  -2.179206e+02   5.299988e+00
  -1.521405e+02  -1.159659e+02
  -3.260869e+01  -1.792341e+02
   9.119454e+01  -1.544135e+02
   1.114371e+02  -2.627777e+01
   5.757625e+01   3.362846e+01
   2.492997e+01   2.150537e+01
   4.385887e+01  -1.612914e+01
   7.787279e+01  -1.070604e+01
   5.591028e+01   4.757553e+01
  -2.373721e+01   9.072083e+01
  -9.941931e+01   4.813105e+01
  -1.110826e+02  -4.636896e+01
   7.741312e+00  -9.238718e+01
   1.417827e+02  -6.201482e+01
   1.739391e+02   7.540821e+01
   5.383511e+01   1.660427e+02
  -1.114100e+02   1.749923e+02
  -2.270346e+02   4.097590e+01
  -2.015759e+02  -8.783605e+01
  -7.908339e+01  -1.414095e+02
   2.645013e+01  -1.061979e+02
   7.408252e+01  -6.878339e+01
   6.624303e+01  -6.090727e+01
   4.916185e+01  -8.608571e+01
   8.258765e+01  -7.070875e+01
   1.128971e+02   2.217408e+01
   8.720578e+01   1.319076e+02
   4.796062e+01   1.867405e+02
  -6.507864e+01   1.353731e+02
  -1.384984e+02   4.651714e+00
  -1.105201e+02  -1.034599e+02
  -2.712396e+01  -1.241867e+02
   6.201819e+01  -6.108385e+01
   5.270021e+01   1.132011e+01
  -4.138697e+00   5.091236e+01
  -2.375798e+01   3.308821e+01
   1.699605e+01   7.145489e+00
   7.275723e+01   2.610403e+01
   4.486670e+01   2.695105e+01
  -6.526937e+01   3.767989e+01
  -1.518461e+02  -2.739131e+01
  -1.247954e+02  -5.501638e+01
  -1.074760e+00  -8.094196e+01
   1.093607e+02  -7.027690e+01
   1.335043e+02   1.198994e+01
   3.388180e+01   4.159586e+01
  -4.294231e+01   4.070809e+01
  -7.005922e+01  -1.249859e+01
  -1.931808e+01  -5.932128e+01
   3.380770e+01  -6.148468e+01
   5.374623e+01  -7.941240e+00
   5.614041e+01   4.762677e+01
   3.970584e+01   4.443943e+01
   3.974082e+01   1.267602e+00
   3.968147e+01  -3.291038e-01
   2.737008e+01   5.697199e+01
  -9.769497e+00   1.262385e+02
  -1.270323e+02   1.447209e+02
  -1.527005e+02   3.191541e+01
  -1.163818e+02  -9.887498e+01
   1.043813e+01  -1.195850e+02
   6.897934e+01  -6.617500e+01
   5.461513e+01   6.069307e+00
  -4.291776e+01   7.757794e+00
  -1.069559e+02  -4.242552e+01
  -6.230632e+01  -8.938000e+01
   7.531397e+01  -7.728397e+01
   1.650397e+02  -4.079777e+01
   1.362835e+02   2.455737e+01
   1.158172e+01   6.830480e+01
  -4.716454e+01   4.701489e+01
  -4.084490e+01   5.318389e+00
   3.744495e+01  -2.245167e+01
   8.785342e+01   2.370631e+00
   5.225175e+01   9.696592e+01
  -8.910940e+01   1.358356e+02
  -1.419896e+02   3.740561e+01
  -9.523694e+01  -8.741447e+01
   6.795883e+00  -1.489645e+02
   8.193786e+01  -1.107010e+02
   9.090098e+01  -4.037340e+00
   4.370734e+01   9.647529e+01
  -2.095903e+01   9.751175e+01
  -4.155069e+01   1.109352e+01
  -2.881870e+01  -2.775741e+01
  -1.021710e+01  -4.719743e+00
  -5.188048e+00   1.310147e+01
  -2.425769e+01  -2.160375e+01
  -6.999485e+01  -8.518337e+01
  -1.415317e+01  -7.169077e+01
   4.882676e+01  -4.048944e+01
   1.087857e+02   4.881620e+01
   1.097001e+02   6.870101e+01
   1.825244e+01   4.564065e+01
  -6.629858e+01   2.261109e+01
  -7.716112e+01   3.493595e+00
  -1.706818e+01  -1.030262e+01
   2.683022e+01  -1.627191e+01
   1.782831e+01  -6.166870e+00
  -1.011705e+01   2.356396e+00
   8.962953e-01   3.777907e+00
   4.964807e+01   5.680461e-01
   7.991379e+01   2.097222e+01
   2.332887e+01   6.657117e+01
  -9.545469e+01   9.512022e+01
  -1.620432e+02   6.371828e+01
  -1.245787e+02  -6.904879e+01
  -1.364749e+01  -1.299611e+02
   8.125715e+01  -1.037508e+02
   1.136745e+02  -5.576367e+01
   6.461187e+01   1.615884e+01
   2.935897e+01   3.530750e+01
   3.788208e+00   1.109958e+01
   1.171858e+01   9.492015e+00
   2.308431e+01   4.304877e+01
   1.015358e+01   9.315525e+01
  -1.463703e+01   6.250210e+01
  -6.662381e+01  -2.608354e+01
  -5.443553e+01  -7.973098e+01
  -1.449610e+00  -9.601057e+01
   6.699212e+01  -2.720329e+01
   9.756543e+01   4.675883e+01
   3.095055e+01   8.096706e+01
  -4.809077e+01   5.628635e+01
  -8.056216e+01  -9.726037e+00
  -4.298258e+01  -4.599126e+01
   3.312217e+01  -5.063997e+01
   3.521486e+01  -2.673499e+01
  -1.822864e+01   9.841433e+00
  -5.093693e+01   5.421325e+00
  -1.906019e+01  -2.193236e+01
   7.486304e+01  -5.152625e+01
   1.125191e+02  -4.194489e+01
   6.118608e+01   1.549654e+01
  -1.080461e+01   7.282807e+01
  -4.199795e+01   8.222550e+01
  -4.196504e+01   1.347499e+01
  -1.478749e+01  -4.369587e+01
   1.307548e+01  -4.214983e+01
   2.965480e+01   4.835036e+00
   2.598193e+01   4.579470e+01
  -3.700811e+00   3.709081e+01
  -2.510196e+01  -3.575719e+00
  -3.869905e+01  -2.760595e+01
  -1.929038e+01  -3.161234e+00
   7.953963e-01   1.915518e+01
   5.922598e+00   1.232313e+01
  -8.331240e+00  -2.409216e+01
  -8.038819e+00  -4.668536e+01
   1.764022e+01  -1.968070e+01
   4.731208e+01   2.375340e+01
   1.778264e+01   4.715622e+01
  -3.336790e+01   2.172150e+01
  -5.140124e+01  -2.223055e+01
  -2.343662e+01  -5.199753e+01
   5.062953e+01  -2.722666e+01
   7.544423e+01   4.675573e+00
   3.889023e+01   3.482459e+01
  -2.049055e+01   4.826630e+01
  -5.492100e+01   3.689758e+01
  -2.746614e+01   7.145921e+00
   2.104588e+01  -6.109605e+00
   2.392992e+01   2.870321e+00
  -1.533146e+01   2.225974e+01
  -6.759250e+01   2.056105e+01
