
 $NMID
 id='ANONYMOUS ', fmtdat='(2E16.6)'
 volume=1.0
 tramp=1.0
 $END
  -2.176151e+03   2.310118e+02
  -1.370481e+03  -9.578926e+02
  -6.213509e+02  -1.498510e+03
   9.872130e+02  -9.929485e+02
   5.361423e+02  -3.330801e+02
   1.045949e+02   6.794641e+01
  -1.548242e+02   3.942826e+01
  -9.117783e+01  -2.113877e+02
   2.699668e+02  -2.375303e+02
   3.330760e+02  -6.875303e+01
   2.825401e+02   2.425927e+02
   2.761893e+01   4.257053e+02
  -9.699652e+01   1.490468e+02
  -1.200786e+02  -2.301731e+02
   1.931522e+01  -3.507341e+02
   2.250474e+02  -3.888616e+01
   1.577387e+02   1.965750e+02
  -5.449564e+00   3.151857e+02
  -2.929156e+02   2.756092e+02
  -2.858532e+02  -6.852620e+01
  -3.976182e+01  -1.908615e+02
   3.880968e+01  -1.593732e+02
   8.183912e+00  -6.061715e+01
  -1.445963e+02  -7.657451e+01
  -2.001125e+02  -2.244084e+02
   4.417917e+01  -2.115008e+02
   3.135725e+02  -9.136871e+00
   3.067821e+02   6.414775e+01
   9.731304e+01   2.019222e+02
  -1.833679e+02  -4.023826e+01
  -4.079393e+02  -1.001503e+02
  -3.224937e+01  -2.003493e+02
   1.568981e+02  -1.509390e+02
   2.302956e+02  -4.838705e+01
   1.869491e+02   1.134262e+02
   3.861775e+01   2.019434e+02
  -2.700921e+01   1.523048e+02
   7.426963e+01  -3.195311e+01
   1.532159e+02   3.419630e+00
   1.048253e+02   7.080224e+01
  -1.029342e+02   2.634405e+02
  -1.213776e+02   1.884837e+02
  -1.637004e+02  -3.691779e+00
   2.771967e+01  -1.738088e+02
   1.220030e+02  -7.470228e+01
   4.817169e+01   1.326698e+02
  -4.222889e+01   2.426271e+02
  -3.094010e+02   5.787505e+01
  -3.659196e+02  -2.590749e+02
  -3.896402e+01  -4.078764e+02
   1.656845e+02  -1.945261e+02
   3.668889e+02   3.887946e+01
   2.017286e+02   8.185105e+01
  -4.312610e+01   1.010665e+02
  -1.694389e+02   8.647100e+01
  -1.460682e+02   3.856321e+01
  -4.790172e+01  -1.235621e+01
   2.596538e+01   6.472108e+00
  -4.381554e+01   1.611973e+01
  -7.592013e+01  -4.205682e+01
  -9.325172e+01  -1.294613e+02
   9.921469e+01  -1.698161e+02
   1.986509e+02  -1.183654e+02
   1.894248e+02   8.236631e+01
  -4.257937e+01   2.282448e+02
  -2.797376e+02   2.975518e+02
  -2.596052e+02   6.855180e+01
  -1.470881e+02  -1.160600e+02
  -2.029362e+01  -2.682584e+02
   7.063524e+00  -1.665725e+02
  -1.946735e+01  -1.232961e+02
   2.817926e+01  -1.045158e+02
   1.393891e+02  -8.406011e+01
   1.546424e+02  -6.082978e+00
   1.997209e+02   1.335708e+02
   1.990596e+01   1.623721e+02
  -8.926988e+01   9.087912e+01
  -1.256586e+02  -1.169526e+01
  -6.372579e+01  -2.010648e+02
   5.175650e+01  -1.713549e+02
   1.789635e+02  -9.244696e+00
   2.008061e+02   1.486049e+02
   8.770882e+01   2.109286e+02
  -5.257610e+01   1.341750e+02
  -8.434290e+01   1.008835e+02
  -1.016301e+02   8.186483e+01
  -1.022385e+02   5.511978e+01
  -1.934442e+02  -2.741989e+01
  -2.599055e+02  -8.615752e+01
  -2.390432e+02  -2.190324e+02
  -1.016901e+00  -3.432982e+02
   3.090257e+02  -2.255311e+02
   3.241439e+02  -1.416417e+02
   1.837491e+02   5.324171e+01
  -1.700801e+01   1.337314e+02
  -2.469488e+01   1.113932e+02
   5.684764e-01   2.745656e+01
   7.721799e+01  -2.163268e+01
   5.327720e+01   3.279085e+01
  -1.142493e+01   7.034952e+01
  -8.559920e+01   7.397612e+01
  -7.006183e+01  -4.291681e+01
   3.991512e+01  -8.004586e+01
   7.933013e+01   1.294016e+01
   7.885560e+01   1.170743e+02
  -6.422558e+01   2.440446e+02
  -1.778827e+02   1.739353e+02
  -2.237078e+02  -1.883819e+01
  -1.598609e+02  -1.983209e+02
  -2.066766e+01  -2.538680e+02
   1.121345e+02  -8.927677e+01
   9.066426e+01   9.834784e+00
   2.077192e+01   6.515221e+00
  -3.597300e+01  -5.556782e+01
   3.249586e+00  -8.946486e+01
   8.787128e+01  -1.090525e+01
   7.648636e+01   1.024016e+01
   1.711462e+01   4.354496e+01
  -5.998452e+01  -1.964974e+01
  -2.494146e+01  -6.895294e+01
   1.078833e+02  -6.212592e+01
   2.447324e+02   5.822269e+01
   1.360505e+02   1.469061e+02
  -1.562781e+01   2.044204e+02
  -1.825481e+02   1.460360e+02
  -2.072615e+02   6.492549e+01
  -1.178824e+02  -1.536809e+01
   1.263011e+01  -3.125410e+01
   5.054145e+01   5.194619e+00
  -4.225405e+01   4.326414e+01
  -1.372800e+02  -8.923476e+00
  -1.374170e+02  -6.589348e+01
  -2.875441e+01  -1.263689e+02
   3.382953e+01  -6.659208e+01
   7.810951e+01  -1.374168e+01
   2.255937e+01   2.796665e+01
  -3.215153e+01  -1.824664e+01
  -1.000779e+01  -1.000248e+02
   7.378161e+01  -9.054345e+01
   1.614416e+02   1.174452e+01
   1.369778e+02   1.269183e+02
   1.341574e+01   1.615825e+02
  -1.076206e+02   1.000221e+02
  -1.147871e+02  -1.080788e+01
  -2.979200e+01  -5.150138e+01
   6.428557e+01  -6.228421e+01
   3.598766e+01  -6.684837e+00
  -4.610833e+00   1.695322e+01
  -3.014429e+01   7.546424e-01
   7.547436e+00  -2.589622e+01
   7.555133e+01  -4.999647e+00
   8.647728e+01   8.165860e+01
   1.696606e+01   1.538041e+02
  -1.221318e+02   1.064632e+02
  -1.648022e+02   1.229379e+01
  -1.238692e+02  -1.430010e+02
  -1.162010e+01  -1.589219e+02
   7.109614e+01  -1.021632e+02
   6.943723e+01  -2.109705e+01
   5.736113e+01   2.166136e+01
   2.780556e+01   1.461019e+01
   3.827753e+01  -8.839345e+00
   5.086496e+01  -5.154889e+00
   3.710038e+01   4.105823e+01
  -2.628775e+01   8.869560e+01
  -1.047408e+02   5.754648e+01
  -8.602327e+01  -2.748627e+01
   1.968788e+01  -9.167785e+01
   1.123214e+02  -5.642866e+01
   1.492906e+02   7.720064e+01
   3.530103e+01   1.493297e+02
  -1.471350e+02   1.313019e+02
  -2.284648e+02   7.720640e+01
  -1.611258e+02  -9.938841e+01
  -8.296031e+01  -1.106627e+02
   4.013087e+01  -8.764106e+01
   5.203044e+01  -4.853430e+01
   3.172328e+01  -4.060990e+01
   5.013586e+01  -6.528640e+01
   4.871128e+01  -7.856080e+01
   9.796077e+01   2.550367e+01
   8.704520e+01   1.322602e+02
   2.023727e+01   1.645738e+02
  -6.066876e+01   1.081551e+02
  -1.225835e+02   3.110372e+00
  -7.797248e+01  -9.579218e+01
   7.946154e+00  -1.048930e+02
   5.036709e+01  -4.242850e+01
   4.812566e+01   1.116117e+01
  -3.844288e+00   4.400533e+01
  -2.386164e+01   2.184944e+01
   1.652447e+01   8.280883e+00
   6.327445e+01   5.856928e+00
   2.690636e+01   3.092860e+01
  -6.117938e+01   2.495421e+01
  -1.022648e+02  -1.380276e+01
  -1.014140e+02  -5.756164e+01
   1.771235e+01  -6.616966e+01
   1.121920e+02  -6.589019e+01
   1.066337e+02  -9.653021e+00
   2.423782e+01   3.508527e+01
  -4.615579e+01   2.743016e+01
  -5.736646e+01  -9.735073e+00
  -1.515434e+01  -4.788464e+01
   4.093556e+01  -5.212580e+01
   4.822986e+01  -3.366690e+00
   5.062517e+01   2.979550e+01
   2.899937e+01   2.082165e+01
   3.157961e+01   7.527830e-01
   4.981749e+01   8.270376e+00
   2.756855e+01   5.698770e+01
  -4.761939e+00   1.137718e+02
  -9.483398e+01   1.246706e+02
  -1.279017e+02   2.145106e+01
  -9.091153e+01  -6.778329e+01
   1.698270e+00  -8.170178e+01
   6.591607e+01  -6.259433e+01
   4.200468e+01   4.636949e+00
  -4.492817e+01   1.531108e+01
  -8.150014e+01  -2.162480e+01
  -5.535660e+01  -7.026269e+01
   6.767143e+01  -8.616003e+01
   1.071629e+02  -1.018342e+01
   1.050528e+02   3.911544e+01
   3.398759e+00   5.741980e+01
  -4.834158e+01   3.493932e+01
  -3.338302e+01  -4.167587e+00
   2.768114e+01  -1.716283e+01
   6.371177e+01   1.007453e+01
   2.364066e+01   7.445721e+01
  -2.250621e+01   1.272685e+02
  -8.942489e+01   6.600157e+01
  -9.741553e+01  -5.270606e+01
  -2.526461e+01  -1.425572e+02
   5.704851e+01  -9.608088e+01
   6.467668e+01   1.592967e+01
   4.066501e+01   7.551536e+01
  -1.785918e+01   7.020740e+01
  -3.234993e+01   5.341852e-02
  -3.434362e+01  -2.290648e+01
  -9.035860e+00  -1.997996e+00
  -4.654320e+00   1.081741e+01
  -2.939403e+01  -2.102183e+01
  -4.471418e+01  -6.040299e+01
  -7.263188e+00  -6.999516e+01
   3.978437e+01  -1.648038e+01
   8.671280e+01   2.239661e+01
   6.493315e+01   5.265145e+01
   8.805181e+00   3.006459e+01
  -6.136092e+01   1.856203e+01
  -5.581750e+01   4.371966e+00
  -1.284524e+01  -1.237087e+01
   1.954037e+01  -1.170191e+01
   1.658701e+01  -9.084087e+00
  -8.827670e+00   4.018962e+00
   5.794694e-01   1.940897e+00
   4.825556e+01  -9.115475e-01
   6.292798e+01   2.178585e+01
   2.837115e+00   5.313245e+01
  -8.398755e+01   7.951311e+01
  -1.328950e+02   7.027109e+01
  -1.185940e+02  -4.692694e+01
  -2.087866e+01  -1.116562e+02
   9.048500e+01  -1.160582e+02
   6.875786e+01  -4.533545e+01
   4.983210e+01   1.827546e+01
   2.029779e+01   2.807767e+01
   3.369374e+00   1.146189e+01
   1.271127e+01   8.664855e+00
   1.528895e+01   3.357979e+01
   3.046464e+01   6.069361e+01
  -2.352622e+01   4.525894e+01
  -4.885063e+01  -1.070164e+01
  -5.420775e+01  -6.190536e+01
  -1.413623e+01  -6.931933e+01
   4.564526e+01  -2.777571e+01
   6.011921e+01   3.859428e+01
   1.799787e+01   6.878342e+01
  -4.267032e+01   4.238057e+01
  -7.540483e+01   2.493675e-01
  -3.124751e+01  -4.377305e+01
   2.433940e+01  -5.776223e+01
   2.696457e+01  -2.138348e+01
  -1.611020e+01   5.545709e+00
  -4.739821e+01   5.390792e-01
  -1.441105e+01  -1.675502e+01
   5.204647e+01  -4.075977e+01
   7.531298e+01  -4.116164e+01
   5.320376e+01   1.862011e+01
  -2.086772e+01   6.069151e+01
  -3.444304e+01   5.050828e+01
  -3.615920e+01   9.199939e+00
  -4.533501e+00  -3.440194e+01
   2.229574e+01  -3.664885e+01
   2.070675e+01   2.279888e+00
   1.226887e+01   3.776787e+01
  -8.470261e-01   3.595921e+01
  -1.959801e+01  -1.433857e+00
  -2.821098e+01  -1.562616e+01
  -1.591680e+01  -2.313539e+00
   2.368527e+00   1.666595e+01
   4.846505e+00   1.124847e+01
  -8.169953e+00  -2.156623e+01
  -2.659958e+00  -3.699423e+01
   1.871280e+01  -1.845789e+01
   3.532762e+01   2.196927e+01
   8.110613e+00   4.035271e+01
  -2.181494e+01   2.152673e+01
  -4.219737e+01  -2.587787e+01
  -9.906090e+00  -4.108868e+01
   4.642106e+01  -2.456688e+01
   6.973293e+01   9.098944e+00
   4.156071e+01   3.341375e+01
  -1.928458e+01   4.107910e+01
  -4.334763e+01   1.302631e+01
  -2.007667e+01   6.970529e+00
   1.844137e+01  -2.941739e+00
   1.474604e+01   2.209495e-01
  -1.228443e+01   1.398204e+01
  -4.605618e+01   3.797120e-01
