
 $NMID
 id='ANONYMOUS ', fmtdat='(2E16.6)'
 volume=1.0
 tramp=1.0
 $END
   2.434864e+03   2.334105e+02
   2.103103e+03   8.545620e+02
   1.640944e+02   1.774296e+03
  -9.100371e+02   1.204730e+03
  -9.002666e+02   3.149357e+02
  -2.484997e+02  -6.921435e+00
   2.395917e+02  -1.118906e+02
   1.789188e+01   3.935871e+02
  -2.969797e+02   5.516427e+02
  -4.120295e+02   2.695266e+02
  -4.129322e+02  -2.818751e+02
  -1.826868e+02  -6.135029e+02
   1.220553e+02  -3.211416e+02
   2.631034e+02   3.054015e+02
  -5.631523e+00   4.954889e+02
  -4.070493e+02   9.819686e+01
  -3.070246e+02  -4.237318e+02
   4.015448e+01  -6.165544e+02
   3.897034e+02  -3.888550e+02
   4.152691e+02   8.995266e+01
   1.968774e+02   3.467459e+02
  -5.305537e+01   2.067392e+02
  -4.701200e+01   8.690501e+01
   1.977061e+02   1.368731e+02
   2.635581e+02   2.632476e+02
  -3.349929e+01   3.852223e+02
  -3.598657e+02   1.560157e+02
  -5.247352e+02  -9.869182e+01
  -1.393759e+02  -3.976433e+02
   1.767130e+02  -2.020563e+02
   4.385867e+02   1.605787e+02
   9.017283e+01   2.741662e+02
  -1.990223e+02   3.190972e+02
  -4.161249e+02   6.754140e+01
  -2.916743e+02  -1.548853e+02
  -6.745292e+01  -2.389816e+02
   2.845930e+01  -1.624371e+02
  -4.697284e+01   4.587073e+00
  -1.866840e+02   1.744012e+02
  -1.269388e+02  -1.571393e+02
  -1.590791e+02  -4.283003e+02
   2.556826e+02  -3.626350e+02
   2.609660e+02  -8.935752e+01
   2.145020e+01   2.684500e+02
  -6.619226e+01   7.126019e+01
  -6.739500e+01  -2.675803e+02
   1.741575e+02  -3.584971e+02
   3.181497e+02  -1.010827e+01
   3.955763e+02   3.504225e+02
   2.206977e+02   4.213698e+02
  -2.089596e+02   1.849020e+02
  -4.362026e+02   2.019989e+00
  -2.793266e+02  -1.960243e+02
  -5.551801e+00  -1.944681e+02
   1.979985e+02  -1.066074e+02
   2.187126e+02  -1.417999e+01
   5.075901e+01   2.631736e+01
  -2.749615e+01  -3.157749e+01
   7.997908e+01  -4.505340e+01
   2.151429e+02   2.007560e+01
   1.398995e+02   1.479154e+02
  -1.005689e+02   2.686715e+02
  -3.497721e+02   1.537789e+02
  -2.214013e+02  -7.758834e+01
   1.537147e+01  -2.577748e+02
   2.228953e+02  -3.671666e+02
   2.841395e+02  -1.598012e+02
   2.171242e+02   1.464891e+02
   2.234868e+01   2.928737e+02
   4.455585e+01   2.923934e+02
   7.959454e+00   1.687327e+02
  -3.209760e+01   1.213098e+02
  -1.508502e+02   1.164294e+02
  -2.376554e+02   6.229466e+01
  -1.884620e+02  -1.197648e+02
  -7.604552e+01  -2.166746e+02
   7.996509e+01  -1.675418e+02
   1.619464e+02   4.345312e+01
   1.304455e+02   2.143839e+02
  -3.277290e+01   1.966019e+02
  -2.304289e+02   5.911777e+01
  -2.470026e+02  -1.340582e+02
  -1.858238e+02  -2.625859e+02
   4.929343e+01  -2.379735e+02
   1.035567e+02  -1.599824e+02
   1.341565e+02  -8.584815e+01
   1.432280e+02  -7.845496e+01
   2.441787e+02  -3.633711e+01
   3.332095e+02   1.040114e+02
   3.153657e+02   2.857959e+02
   7.926409e-01   3.327370e+02
  -3.306892e+02   3.353051e+02
  -4.121767e+02   2.625018e+02
  -2.402497e+02  -3.777497e+01
  -3.808179e+01  -1.935215e+02
   7.746218e+01  -1.761416e+02
  -4.517030e+00  -3.389274e+01
  -1.046278e+02   2.376874e+01
  -8.672848e+01  -2.529349e+01
   1.831676e+01  -1.240258e+02
   1.014067e+02  -1.059085e+02
   8.006521e+01   3.856907e+01
  -3.583512e+01   1.157890e+02
  -1.353158e+02   1.055347e+01
  -1.879472e+02  -2.373795e+02
  -1.811370e+01  -2.741546e+02
   2.431587e+02  -2.236593e+02
   3.807518e+02   2.477367e+01
   2.804770e+02   2.056873e+02
   4.030967e+01   2.563986e+02
  -1.337061e+02   1.359051e+02
  -1.087103e+02  -9.199905e+00
  -1.505318e+01  -5.724914e+00
   3.742065e+01   5.746656e+01
  -6.697974e+00   9.179506e+01
  -1.067371e+02   6.143366e+01
  -1.333515e+02   7.524751e-01
  -2.791729e+01  -3.860052e+01
   7.103831e+01  -9.002500e-01
   3.530160e+01   9.745768e+01
  -1.416609e+02   8.360315e+01
  -2.603580e+02  -7.017107e+00
  -2.338816e+02  -1.730171e+02
  -4.148838e+01  -2.327451e+02
   1.975583e+02  -1.710713e+02
   2.637100e+02  -6.016433e+01
   1.165315e+02   3.234181e+01
  -3.006711e+01   6.617693e+01
  -5.472088e+01  -1.706347e+01
   5.604208e+01  -7.960777e+01
   1.446339e+02  -3.316902e+01
   1.654013e+02   1.128157e+02
   5.596360e+01   1.310860e+02
  -9.369413e+01   1.401743e+02
  -9.451429e+01   2.461671e+01
  -3.853128e+01  -4.424484e+01
   5.372454e+01   2.554163e+01
   1.094018e+01   1.120540e+02
  -9.515536e+01   1.068881e+02
  -1.851867e+02  -3.200654e+00
  -1.771158e+02  -1.199872e+02
  -3.055687e+01  -1.821405e+02
   1.226927e+02  -1.537553e+02
   1.619848e+02  -2.597989e+01
   5.045672e+01   7.858462e+01
  -2.856496e+01   8.415040e+01
  -6.334114e+01   2.202806e+01
   1.503398e+00  -2.391496e+01
   3.422834e+01  -5.388827e+00
  -1.085182e+01   3.310428e+01
  -8.486633e+01   7.992342e+00
  -9.898165e+01  -7.481252e+01
  -1.438165e+01  -1.488216e+02
   1.426456e+02  -1.458019e+02
   1.897133e+02  -5.287436e+01
   1.898164e+02   1.369697e+02
   4.402300e+01   1.867520e+02
  -5.480948e+01   1.405320e+02
  -1.358657e+02   3.104760e+01
  -6.770410e+01  -3.225213e+01
  -3.451840e+01  -2.203629e+01
  -5.824836e+01   1.627371e+01
  -8.848596e+01   2.534938e+00
  -5.638608e+01  -5.960037e+01
   3.555895e+01  -9.574718e+01
   1.129302e+02  -8.574419e+01
   1.064764e+02   4.882851e+01
  -9.514149e-01   1.187668e+02
  -1.553673e+02   1.031450e+02
  -1.947921e+02  -4.398332e+01
  -1.036293e+02  -1.783719e+02
   9.308347e+01  -1.849046e+02
   2.381299e+02  -5.527318e+01
   1.849487e+02   6.677865e+01
   6.561302e+01   1.630074e+02
  -1.860116e+01   1.146566e+02
  -7.184290e+01   7.730672e+01
  -6.592275e+01   7.117119e+01
  -5.956298e+01   8.291646e+01
  -7.402763e+01   7.648197e+01
  -1.134579e+02  -9.004266e+00
  -1.054859e+02  -1.307622e+02
  -2.552877e+01  -2.100574e+02
   9.059085e+01  -1.946964e+02
   1.495928e+02  -1.614571e+01
   1.358165e+02   1.303153e+02
   2.284233e+01   1.344602e+02
  -6.107800e+01   7.431515e+01
  -6.070457e+01  -1.063224e+01
   8.468717e+00  -6.307054e+01
   3.135218e+01  -3.409439e+01
  -2.063802e+01  -6.110844e+00
  -7.355186e+01  -1.798279e+01
  -5.257993e+01  -3.626122e+01
   7.346886e+01  -3.943427e+01
   1.516108e+02  -1.293702e+01
   1.311064e+02   5.061651e+01
   3.883067e-01   9.622592e+01
  -1.296010e+02   6.484915e+01
  -1.380786e+02   7.053681e+00
  -4.081757e+01  -4.748233e+01
   4.857208e+01  -4.032421e+01
   6.251579e+01   1.303633e+00
   2.978841e+01   6.513624e+01
  -3.678228e+01   6.097559e+01
  -6.519933e+01  -1.316763e-01
  -6.674583e+01  -3.609512e+01
  -5.364319e+01  -4.371799e+01
  -4.865824e+01  -3.277462e+00
  -5.075649e+01   4.947032e+00
  -4.675962e+01  -6.294067e+01
   1.110746e+01  -1.690301e+02
   1.408977e+02  -1.493408e+02
   1.805831e+02  -5.775254e+01
   1.276203e+02   7.668082e+01
   6.207440e+00   1.260633e+02
  -7.688020e+01   7.095751e+01
  -5.897238e+01  -8.415864e-01
   4.688632e+01  -1.857515e+01
   1.144684e+02   3.579906e+01
   7.014337e+01   9.078964e+01
  -6.829530e+01   8.535197e+01
  -1.744997e+02   5.135588e+01
  -1.565308e+02  -4.204457e+01
  -2.608302e+01  -8.069332e+01
   5.280981e+01  -6.004112e+01
   5.102760e+01   3.634518e+00
  -3.621579e+01   3.403176e+01
  -9.415302e+01  -4.558432e+00
  -5.475181e+01  -1.100066e+02
   5.968125e+01  -1.612461e+02
   1.405556e+02  -5.423074e+01
   1.283735e+02   7.406157e+01
   3.599133e+01   1.744201e+02
  -7.401563e+01   1.258434e+02
  -1.015730e+02  -6.680540e+00
  -7.313770e+01  -1.171123e+02
   1.320385e+01  -1.021300e+02
   5.090752e+01  -1.572090e+01
   3.843617e+01   3.438356e+01
   1.162339e+01   7.031019e+00
   6.393429e+00  -1.468677e+01
   3.040082e+01   1.835983e+01
   6.562475e+01   8.812675e+01
   2.868322e+01   9.593550e+01
  -4.713869e+01   4.281693e+01
  -1.041524e+02  -2.477640e+01
  -1.233177e+02  -6.025640e+01
  -2.778876e+01  -5.599549e+01
   7.039327e+01  -2.124556e+01
   8.175377e+01  -9.256044e+00
   1.947356e+01   1.358592e+01
  -3.376609e+01   2.424250e+01
  -1.869751e+01   7.472314e+00
   1.379070e+01  -3.182624e+00
  -2.049664e+00  -4.238186e+00
  -6.045182e+01   8.579803e+00
  -8.464282e+01  -5.719603e+00
  -2.592081e+01  -7.525323e+01
   9.981028e+01  -9.957870e+01
   1.661692e+02  -6.013227e+01
   1.268386e+02   6.049827e+01
   5.308433e+01   1.277310e+02
  -4.606313e+01   1.455824e+02
  -1.045199e+02   8.075406e+01
  -7.492148e+01  -1.723298e+01
  -2.326498e+01  -3.939681e+01
  -5.188030e+00  -1.347141e+01
  -1.420720e+01  -9.606785e+00
  -2.870583e+01  -4.342714e+01
  -1.703705e+01  -8.688564e+01
   1.863853e+01  -6.863446e+01
   6.532933e+01   1.546959e+01
   9.969657e+01   7.755703e+01
   2.278147e+01   1.194095e+02
  -6.718839e+01   2.967519e+01
  -1.084044e+02  -5.141074e+01
  -4.654633e+01  -1.025231e+02
   5.722667e+01  -6.394465e+01
   9.866957e+01   8.058716e+00
   4.528091e+01   5.355906e+01
  -2.557004e+01   6.131753e+01
  -3.794841e+01   3.372288e+01
   2.091715e+01  -1.081160e+01
   4.903535e+01  -1.444731e+01
   2.038801e+01   2.752810e+01
  -6.392905e+01   6.359431e+01
  -1.078151e+02   5.496402e+01
  -7.458111e+01  -4.671227e+00
   4.627622e+00  -7.012793e+01
   5.035731e+01  -8.152104e+01
   4.742303e+01  -1.555231e+01
   1.167867e+01   4.050541e+01
  -1.606770e+01   5.029846e+01
  -3.470180e+01  -3.923363e+00
  -2.381195e+01  -5.423706e+01
  -1.525961e+00  -4.003054e+01
   3.442041e+01  -1.231931e+00
   4.031314e+01   2.969513e+01
   2.019576e+01   8.653823e+00
  -4.308602e+00  -2.096946e+01
  -3.697873e+00  -8.869147e+00
   1.231350e+01   2.524573e+01
   2.091575e+00   4.985044e+01
  -2.304611e+01   3.182924e+01
  -4.044754e+01  -2.143484e+01
  -1.971485e+01  -5.053500e+01
   3.744490e+01  -3.089909e+01
   6.250893e+01   2.828043e+01
   2.496784e+01   5.408327e+01
  -5.827724e+01   2.785290e+01
  -8.925205e+01  -3.075353e+00
  -5.008895e+01  -3.524118e+01
   2.298733e+01  -4.291582e+01
   5.892369e+01  -3.050544e+01
   2.973535e+01  -1.270316e+01
  -2.424946e+01   5.602741e+00
  -3.136913e+01   6.168792e-01
   2.183890e+01  -1.963731e+01
   7.591980e+01  -2.172963e+01
