
 $NMID
 id='ANONYMOUS ', fmtdat='(2E16.6)'
 volume=1.0
 tramp=1.0
 $END
  -6.233455e+02   8.451318e+01
  -1.891295e+02  -5.614215e+02
  -1.321866e+01  -5.837558e+02
  -5.438782e+01  -2.470287e+02
   2.223902e+02  -2.366970e+02
   2.386600e+02  -4.544492e+01
  -2.058538e-01   9.390793e+01
  -1.180516e+02   3.696352e+01
   6.347492e+01  -2.182153e+02
   1.952108e+02  -5.628926e+01
   1.996130e+02   1.228518e+02
  -1.907266e+01   2.931830e+02
  -8.737154e+01   4.352523e+01
  -2.103574e+01  -1.660707e+02
  -4.674374e+01  -1.455178e+02
   8.516833e+01  -5.451717e+00
   1.524476e+02   4.946146e+01
   4.282459e+00   2.849385e+02
  -1.457263e+02   9.271575e+01
  -2.228641e+02   2.144811e+01
  -1.038359e+02  -9.447997e+01
   2.861837e+01  -1.099918e+02
  -1.462793e+01  -2.869592e+01
  -7.590965e+01  -6.275522e+01
  -9.521911e+01  -8.659685e+01
   6.204109e+01  -1.084419e+02
   2.121851e+02  -2.368238e+01
   1.206140e+02   6.688055e+01
   4.722374e+00   1.112732e+02
  -1.100920e+02   6.851487e+01
  -1.085257e+02  -4.858695e+01
   8.800025e+00  -1.311239e+02
   9.367850e+01  -1.244966e+02
   6.402563e+01  -1.629394e+01
   3.185994e+01   2.167009e+01
   7.177265e+01   6.521146e+01
   1.974069e+01   2.519427e+01
   3.972959e+01  -1.363415e+01
   9.078759e+01   1.877513e+01
  -7.176762e+00   6.224715e+01
  -7.032810e+01   1.485019e+02
  -7.635331e+01   1.390377e+02
   1.024102e+01  -1.930502e+01
  -1.138228e+02   1.827131e+00
   4.647492e+01  -4.214751e+01
   1.822323e+01   6.999641e+01
  -5.779366e+01   1.123287e+01
  -1.172564e+02   1.124647e+01
  -7.565401e+01  -1.220929e+02
  -4.873952e+01  -1.581217e+02
   1.311609e+02  -9.213326e+01
   2.239149e+02   6.998376e+01
   1.624296e+02   6.140236e+01
  -1.359449e+01   1.179833e+01
  -5.111293e+01   7.558332e+01
  -5.705972e+01   6.678133e+01
  -2.218535e+01   4.217096e+00
   1.481343e+01  -2.485864e+01
  -2.372713e+01  -2.143728e+01
  -3.343294e+01   1.378570e+01
  -4.438589e+01  -3.988076e+01
  -4.935557e+00  -1.237559e+02
   1.577558e+02  -4.102816e+01
   1.356905e+02   1.590712e+01
   8.480635e+00   1.565225e+02
  -1.308016e+02   1.361582e+02
  -1.864879e+02   6.857662e+01
  -6.323363e+01  -4.506728e+01
  -6.609809e+01  -1.061700e+02
  -3.689462e+00  -9.523808e+01
   1.987615e+01  -6.117714e+01
  -3.600930e+00  -4.862832e+01
   6.361611e+01  -2.668412e+01
   8.619131e+01   8.762458e-01
   8.989868e+01   6.099240e+01
   3.776211e+01   7.767378e+01
  -6.726434e+01   6.310887e+01
  -6.250700e+01  -2.438274e+01
  -6.104145e+01  -1.101122e+02
   3.956804e+01  -6.585353e+01
   1.004225e+02  -2.002556e+01
   8.127205e+01   7.031855e+01
   1.256315e+02   1.044220e+02
   2.250610e+00   6.865751e+01
  -6.459957e+01   8.014678e+01
  -4.902924e+01   3.049199e+01
  -6.206039e+01   4.371086e+01
  -1.200088e+02   2.844247e+01
  -1.437068e+02  -2.851156e+01
  -1.098440e+02  -6.064608e+01
   1.513754e+00  -1.165579e+02
   1.081873e+02  -1.697668e+02
   1.758221e+02  -4.702241e+01
   1.092259e+02  -1.204535e+01
   1.589994e+01   1.009098e+02
  -5.099751e+01   2.376704e+01
   2.463601e+01   1.054746e+01
   5.315759e+01  -4.205725e+00
   1.778918e+01   2.643895e+01
  -5.379856e+00   2.442624e+01
  -2.597887e+00   7.431381e-01
  -3.025487e+01  -1.567253e+01
   1.504145e+01  -3.247040e+01
   5.265210e+01  -1.726588e+01
   4.150296e+01   9.710983e+01
   3.994573e+00   1.775783e+02
  -7.684362e+01   5.375274e+01
  -7.262658e+01  -1.265297e+01
  -1.587110e+02  -1.005115e+02
  -2.370966e+01  -9.694187e+01
   4.919664e+01  -3.464000e+01
   4.158248e+01   2.693663e+00
   1.386872e+01   1.074629e+01
  -1.797951e+01  -1.728994e+01
  -1.062084e+01  -3.909303e+01
   4.466163e+01  -1.963067e+01
   5.478912e+01   1.806713e+01
   2.890532e-01   1.354389e+01
  -4.801828e+01  -1.148654e+01
  -5.465642e+00  -4.451404e+01
   6.029464e+01  -3.846496e+01
   1.093666e+02   1.806338e+00
   1.315185e+02   5.948951e+01
  -4.674205e+00   7.747193e+01
  -7.885617e+01   9.467000e+01
  -9.294617e+01   2.915709e+01
  -4.581077e+01   3.139682e+00
   1.809062e+01  -2.345530e+01
   2.239480e+01  -3.573176e+00
  -2.447104e+01   2.633515e+01
  -9.780122e+01   1.854605e+01
  -3.251347e+01  -1.044819e+01
  -3.470492e+01  -5.921472e+01
   9.114006e+00  -4.256394e+01
   3.653072e+01  -9.643273e+00
   1.002170e+01   6.755287e+00
  -1.860947e+01  -1.841517e+01
  -1.228939e+01  -2.757476e+01
   2.652379e+01  -5.798129e+01
   5.280670e+01  -7.584857e+00
   4.683098e+01   3.741071e+01
   2.780857e+01   6.261222e+01
  -6.497918e+01   5.741326e+01
  -5.249380e+01  -9.610233e-01
  -1.804749e+01  -3.622150e+01
   2.430327e+01  -4.083183e+01
   3.506985e+01  -6.098737e+00
  -8.525603e-01   1.027464e+01
  -1.953997e+01   4.241272e-01
   2.247367e+00  -1.181718e+01
   2.946024e+01  -2.860081e+00
   3.066477e+01   4.373596e+01
   6.574474e+00   6.235533e+01
  -6.782514e+01   4.791297e+01
  -9.003298e+01  -2.058958e+00
  -8.824777e+01  -5.604793e+01
  -8.579554e-01  -9.413611e+01
   8.514910e+00  -4.967898e+01
   3.042327e+01  -9.870264e+00
   2.290225e+01   2.733576e+01
   9.141057e+00   4.596468e+00
   2.145116e+01  -7.139600e+00
   1.807335e+01  -4.456401e+00
   2.090439e+01   1.797936e+01
  -9.243326e+00   4.125413e+01
  -5.012023e+01   3.519142e+01
  -3.313794e+01  -9.335658e+00
   1.815340e+01  -5.206047e+01
   5.413231e+01  -4.666919e+01
   8.077746e+01   4.003752e+01
   2.924885e+01   7.281692e+01
  -4.153051e+01   7.762770e+01
  -6.228034e+01   2.993080e+01
  -9.844743e+01  -1.918842e+01
  -3.040721e+01  -4.476527e+01
   1.322629e+01  -4.970776e+01
   3.655647e+01  -2.131319e+01
   1.299833e+01  -1.515377e+01
   1.888847e+01  -4.416853e+01
   2.509166e+01  -3.827774e+01
   5.170558e+01   1.225703e+01
   6.069077e+01   3.109191e+01
   2.946044e+00   7.671456e+01
  -2.641981e+01   4.151490e+01
  -7.082996e+01  -1.876461e+00
  -3.068901e+01  -2.059728e+01
   4.567801e+00  -3.992376e+01
   3.944697e+01  -2.948996e+01
   1.448323e+01   1.333753e+01
  -7.176660e+00   1.769884e+01
  -1.462497e+01   1.272161e+01
   9.395487e+00   5.313629e+00
   2.034281e+01   8.044248e-01
   1.826293e+01   1.833911e+01
  -2.253755e+01   2.144867e+01
  -7.094563e+01   1.346863e+01
  -6.330981e+01  -1.393905e+01
   1.643731e+01  -3.687180e+01
   5.760710e+01  -1.981279e+01
   5.309458e+01   1.238102e+01
   1.644313e+01   2.003716e+01
  -1.605491e+01   2.785618e+01
  -2.792980e+01  -4.960327e+00
  -4.740472e+00  -2.276313e+01
   5.541327e+00  -2.014570e+01
   2.696872e+01   2.437524e+00
   2.289582e+01   2.380108e+01
   2.199996e+01   1.107933e+01
   2.136942e+01  -2.040963e+00
   2.815519e+01  -8.132926e-01
   1.976658e+01   2.455544e+01
  -5.152107e+00   5.989686e+01
  -4.944281e+01   3.672092e+01
  -6.790207e+01  -2.051849e+00
  -4.363437e+01  -2.997747e+01
  -3.565129e+00  -5.020973e+01
   4.122906e+01  -1.807886e+01
   1.627107e+01   5.463882e+00
  -1.542790e+01   8.453934e+00
  -5.083537e+01   1.045583e+01
  -1.864999e+01  -3.941882e+01
   3.177981e+01  -4.078337e+01
   5.230628e+01  -3.216382e+01
   4.033653e+01   1.232160e+01
   1.294398e+01   3.698155e+01
  -2.794431e+01   1.979171e+01
  -1.549210e+01  -3.214156e+00
   1.363354e+01  -1.159231e+01
   2.668081e+01  -1.131593e+00
   1.637981e+01   3.716955e+01
  -1.346941e+01   6.272472e+01
  -4.061354e+01   5.634012e+01
  -4.047847e+01  -2.795061e+01
   8.148695e+00  -7.952865e+01
   3.555740e+01  -6.274445e+01
   5.074919e+01   1.084914e+01
   1.648113e+01   2.912155e+01
  -3.219405e+00   2.094545e+01
  -1.994104e+01   1.844762e-01
  -1.550006e+01  -7.421338e-01
  -2.153583e+00  -3.578406e+00
  -2.390207e+00   4.988337e+00
  -1.636911e+01  -9.473275e+00
  -1.579457e+01  -2.001817e+01
  -1.478963e+01  -2.529986e+01
   2.751418e+01  -2.283231e+01
   4.419703e+01   1.126534e+01
   4.193855e+01   3.929300e+00
   1.146276e+01   2.174316e+01
  -1.872253e+01   1.112397e+01
  -2.963345e+01   6.123871e+00
  -7.816131e+00  -3.859936e+00
   1.308849e+01  -9.181364e+00
   6.567538e+00  -3.156237e+00
  -2.350286e+00   3.444154e-01
  -2.890810e-01   1.794766e+00
   1.830674e+01  -1.013313e+01
   3.740391e+01   3.579680e+00
   1.627444e+01   1.887392e+01
  -2.103879e+01   4.655412e+01
  -4.989873e+01   2.436174e+01
  -6.459311e+01   1.134997e+01
  -1.799112e+01  -6.190276e+01
   2.330682e+01  -5.933770e+01
   3.792571e+01  -2.776102e+01
   3.328622e+01  -6.614948e+00
   1.090067e+01   9.521538e+00
   2.751711e+00   4.223159e+00
   6.719376e+00   1.189406e+00
   1.067921e+01   2.183996e+01
   8.793949e+00   2.444036e+01
  -3.335815e+00   3.029943e+01
  -2.477927e+01  -1.634280e-01
  -3.495225e+01  -2.271315e+01
  -1.055688e+01  -3.256868e+01
   2.616468e+00  -1.399100e+01
   3.976864e+01   1.314877e+01
   2.669737e+01   3.072294e+01
  -2.162853e+01   3.562555e+01
  -4.015518e+01   5.070416e+00
  -1.869810e+01  -2.005041e+01
   1.187292e+01  -2.611289e+01
   1.799827e+01  -9.656019e+00
  -5.981225e+00   8.897981e+00
  -1.797467e+01   2.409332e+00
  -7.264462e+00  -1.061519e+01
   2.019830e+01  -2.383806e+01
   6.113319e+01  -1.340488e+01
   2.066965e+01   8.975571e+00
   3.509271e+00   2.642301e+01
  -1.685113e+01   4.074353e+01
  -2.431227e+01   7.268977e+00
  -9.302856e+00  -2.117006e+01
   3.570119e+00  -1.760251e+01
   1.575013e+01   2.932591e+00
   1.436639e+01   1.649969e+01
   5.201554e+00   1.001639e+01
  -1.281494e+01  -4.669343e+00
  -1.270452e+01  -2.964628e+00
  -4.791300e+00  -2.568550e+00
   4.247661e+00   7.142073e+00
   4.391749e+00   6.546879e+00
  -6.451794e+00  -8.604741e+00
  -5.902196e+00  -1.631285e+01
   7.506679e+00  -9.971552e+00
   1.906444e+01   6.329830e+00
   7.601115e+00   2.243934e+01
  -8.943809e+00   1.103654e+01
  -2.371818e+01  -5.859719e+00
  -1.374020e+01  -1.750852e+01
   1.354481e+01  -1.410603e+01
   3.215173e+01  -2.305291e+00
   1.988594e+01   8.180501e+00
  -4.779487e+00   1.680894e+01
  -1.888810e+01   1.211866e+01
  -9.761516e+00   2.886946e+00
   4.141928e+00  -1.996464e+00
   1.235471e+01   1.070600e+00
  -5.489165e+00   6.142556e+00
  -2.397253e+01   7.645677e+00
