
 $NMID
 id='ANONYMOUS ', fmtdat='(2E16.6)'
 volume=1.0
 tramp=1.0
 $END
   2.653203e+03  -1.742828e+02
   2.012183e+03   1.829452e+03
  -2.990736e+01   1.702254e+03
  -1.379916e+03   9.884122e+02
  -7.741589e+02   2.841720e+01
  -5.075787e+00  -1.576466e+02
   4.326467e+02   1.219161e+02
  -6.944632e+01   4.643067e+02
  -3.970525e+02   4.758622e+02
  -6.638501e+02   5.793848e+01
  -3.889342e+02  -5.150567e+02
   6.722413e+01  -6.545120e+02
   3.756787e+02  -2.359301e+02
   2.371715e+02   4.293147e+02
  -1.209701e+02   5.827387e+02
  -3.889705e+02   1.016743e+02
  -2.724872e+02  -4.861625e+02
   8.235461e+01  -5.396370e+02
   3.909229e+02  -2.372099e+02
   3.817554e+02   1.485158e+02
   1.318446e+02   3.508282e+02
  -1.279412e+02   2.124563e+02
  -9.431477e+01   8.170201e+01
   1.254396e+02   6.749680e+01
   2.423975e+02   1.869491e+02
  -3.575100e+01   3.273729e+02
  -4.551072e+02   2.082545e+02
  -6.282940e+02  -1.030741e+02
  -2.232682e+02  -3.521279e+02
   2.362820e+02  -2.242847e+02
   3.998648e+02   2.114766e+02
   1.626231e+02   3.594888e+02
  -2.579302e+02   3.510324e+02
  -5.085971e+02   1.690793e+02
  -2.639252e+02  -2.211529e+02
  -6.508472e+01  -2.979621e+02
   2.851012e+01  -1.815452e+02
   9.731011e-01   1.087560e+02
  -1.385694e+02   1.710954e+02
  -1.956232e+02  -1.623922e+02
  -1.829938e+02  -4.462757e+02
   2.478158e+02  -3.700898e+02
   3.588450e+02   1.582301e+01
   1.072010e+02   3.302262e+02
  -1.749195e+02   1.457526e+02
  -2.026188e+02  -2.921157e+02
   1.687289e+02  -3.763318e+02
   4.508741e+02   1.019734e+01
   4.050734e+02   3.759336e+02
   1.365297e+02   5.495133e+02
  -2.945942e+02   2.402998e+02
  -4.860989e+02  -5.777960e+01
  -2.573761e+02  -2.929931e+02
   5.780742e+01  -2.337193e+02
   3.067200e+02  -1.083666e+02
   1.732910e+02   6.862682e+01
  -4.148071e+01   5.610349e+01
  -6.388961e+01  -5.226252e+01
   1.137516e+02  -7.930065e+01
   2.593684e+02   1.885957e+01
   8.039769e+01   1.805791e+02
  -1.439011e+02   2.093646e+02
  -2.982849e+02   1.394800e+02
  -2.680933e+02  -1.046175e+02
   9.368159e+00  -2.885690e+02
   2.365854e+02  -3.671136e+02
   3.045105e+02  -1.681400e+02
   2.315299e+02   1.282099e+02
   3.492188e+01   3.001470e+02
  -4.413092e+01   2.968334e+02
  -1.622404e+01   1.243351e+02
  -1.925148e+01   7.347622e+01
  -1.307001e+02   8.313174e+01
  -2.252558e+02   7.302327e+01
  -2.182529e+02  -1.182779e+02
  -8.105671e+01  -1.898415e+02
   8.975575e+01  -1.825628e+02
   1.649385e+02   3.037738e+01
   1.266865e+02   2.225211e+02
  -5.174136e+01   2.227677e+02
  -2.207322e+02   3.332306e+01
  -2.912072e+02  -2.037737e+02
  -1.689940e+02  -2.868212e+02
   6.376319e+01  -2.361704e+02
   1.945409e+02  -1.259418e+02
   1.237811e+02  -8.326017e+01
   1.413812e+02  -7.584561e+01
   2.645146e+02  -3.798219e+01
   3.979039e+02   9.679176e+01
   2.496637e+02   2.482209e+02
   2.033792e+01   3.986041e+02
  -3.285680e+02   3.954973e+02
  -4.382105e+02   1.585788e+02
  -2.621608e+02  -6.832699e+01
  -3.718723e+01  -2.342360e+02
   7.736843e+01  -1.553718e+02
   1.344821e+01  -3.163495e+01
  -1.143557e+02   5.991116e+01
  -1.192004e+02  -4.791104e+01
   7.242665e+00  -1.505531e+02
   1.179697e+02  -6.844821e+01
   9.029703e+01   4.065376e+01
  -2.179651e+01   1.070039e+02
  -1.554792e+02   1.142479e+01
  -1.583566e+02  -1.906490e+02
  -2.022962e+01  -2.966334e+02
   2.203217e+02  -1.607304e+02
   3.485299e+02   6.139801e+01
   2.838569e+02   1.824311e+02
   4.713086e+01   2.204545e+02
  -1.147841e+02   1.020860e+02
  -1.435467e+02  -1.751755e+01
  -2.835768e+01  -1.502364e+01
   4.163817e+01   5.413384e+01
  -2.455423e+00   9.867650e+01
  -9.598532e+01   7.713411e+01
  -1.372856e+02  -8.118819e+00
  -2.958789e+01  -4.383323e+01
   7.598325e+01  -1.912071e+00
   2.647766e+01   7.410231e+01
  -1.432911e+02   8.877988e+01
  -2.623181e+02   1.871170e+01
  -2.256948e+02  -1.259758e+02
  -5.305539e+01  -2.446498e+02
   1.979436e+02  -2.109562e+02
   2.246136e+02  -4.639722e+01
   1.154935e+02   4.979566e+01
  -1.556154e+01   8.144433e+01
  -5.729540e+01  -1.307481e+01
   4.925248e+01  -7.014579e+01
   1.569003e+02  -2.294228e+01
   1.501737e+02   9.843991e+01
   8.432349e+01   1.815412e+02
  -7.871660e+01   1.328717e+02
  -1.257061e+02   2.072452e+01
  -3.626279e+01  -4.224463e+01
   4.211865e+01   1.899011e+01
   1.602046e+01   9.263902e+01
  -6.938291e+01   9.358712e+01
  -2.010428e+02   2.215516e+01
  -1.594371e+02  -1.191329e+02
  -2.792614e+00  -1.823428e+02
   1.356768e+02  -1.276554e+02
   1.565276e+02   2.323221e-01
   3.979749e+01   1.016827e+02
  -5.413284e+01   8.469472e+01
  -6.206171e+01   1.740240e+01
  -1.525753e+00  -2.359907e+01
   3.423765e+01  -1.426947e+01
  -6.132903e+00   2.053829e+01
  -7.610757e+01   3.762636e-01
  -9.319021e+01  -8.290227e+01
  -1.780888e+01  -1.606197e+02
   1.297857e+02  -1.306163e+02
   2.372102e+02  -4.012203e+01
   1.919413e+02   9.773757e+01
   5.699930e+01   2.062104e+02
  -1.064900e+02   1.659515e+02
  -1.229927e+02   2.289894e+01
  -7.132462e+01  -4.279998e+01
  -2.943440e+01  -3.358153e+01
  -4.763068e+01   6.528237e+00
  -8.067879e+01   1.733561e+01
  -4.501466e+01  -5.519975e+01
   3.164670e+01  -1.053254e+02
   9.006569e+01  -5.256496e+01
   8.379501e+01   4.169271e+01
   2.801857e+00   1.221389e+02
  -1.395263e+02   6.612826e+01
  -1.706970e+02  -6.881844e+01
  -9.477657e+01  -1.909773e+02
   1.047185e+02  -2.355511e+02
   2.236849e+02  -4.593330e+01
   2.382117e+02   1.038317e+02
   9.712911e+01   1.274760e+02
  -3.319299e+01   1.180907e+02
  -8.669705e+01   6.805641e+01
  -5.747478e+01   6.198511e+01
  -4.513435e+01   8.533434e+01
  -8.677562e+01   7.997442e+01
  -1.190252e+02  -1.276622e+01
  -9.208695e+01  -1.289631e+02
   1.520264e+01  -1.891036e+02
   9.569163e+01  -1.410965e+02
   1.668090e+02  -9.034588e+00
   8.772134e+01   1.215501e+02
   1.855707e+01   1.610828e+02
  -8.943586e+01   8.627828e+01
  -5.868532e+01  -1.350197e+01
   6.405065e+00  -4.959221e+01
   1.949061e+01  -3.002449e+01
  -2.853634e+01  -1.006559e+01
  -7.614103e+01  -1.511032e+01
  -4.087246e+01  -3.651420e+01
   6.160615e+01  -4.012442e+01
   1.432718e+02  -2.178144e+01
   1.379473e+02   4.330414e+01
   5.270013e+00   8.733106e+01
  -1.222645e+02   6.528243e+01
  -1.276759e+02   1.045745e+01
  -4.057484e+01  -4.487959e+01
   4.152236e+01  -3.729810e+01
   7.832948e+01   1.686241e+01
   2.686290e+01   7.537341e+01
  -4.944929e+01   5.852116e+01
  -5.871387e+01   7.329683e+00
  -5.304378e+01  -4.194309e+01
  -4.021191e+01  -3.846958e+01
  -4.911832e+01  -1.413858e+00
  -6.312000e+01   6.588661e+00
  -5.294164e+01  -6.188198e+01
   2.922214e+01  -1.394423e+02
   1.271204e+02  -1.075023e+02
   1.757570e+02  -5.569494e+01
   1.242104e+02   7.563953e+01
   7.611755e+00   1.047619e+02
  -9.056893e+01   6.393909e+01
  -6.411941e+01  -7.872849e+00
   5.423903e+01  -2.720323e+01
   1.136293e+02   3.197507e+01
   6.182158e+01   9.702527e+01
  -7.332765e+01   8.448866e+01
  -1.630791e+02   4.278625e+01
  -1.496873e+02  -5.183697e+01
  -1.801132e+01  -6.649463e+01
   6.024402e+01  -6.596768e+01
   4.415657e+01   9.815629e-01
  -3.896476e+01   2.659419e+01
  -8.845476e+01  -1.786562e+01
  -3.474619e+01  -1.059754e+02
   7.959773e+01  -1.323494e+02
   1.415330e+02  -3.200613e+01
   1.145189e+02   8.542898e+01
   1.855258e+01   1.637712e+02
  -6.033458e+01   1.110507e+02
  -8.484814e+01  -8.685342e+00
  -5.500148e+01  -1.038209e+02
   1.593606e+01  -8.079840e+01
   5.030613e+01  -2.072235e+01
   3.484515e+01   2.837708e+01
   1.676176e+01   6.480620e+00
   9.193569e+00  -1.321806e+01
   2.532270e+01   1.710348e+01
   4.650377e+01   8.379654e+01
   4.147866e+01   8.583844e+01
  -4.981202e+01   4.185506e+01
  -1.244752e+02  -2.811309e+01
  -1.157630e+02  -6.252573e+01
  -1.508413e+01  -4.584201e+01
   7.207374e+01  -2.850238e+01
   7.718400e+01   2.991822e+00
   1.453211e+01   1.014280e+01
  -2.997443e+01   1.717000e+01
  -2.092756e+01   1.018256e+01
   1.037240e+01  -3.802686e+00
  -2.938263e+00  -5.187502e+00
  -4.847324e+01  -8.330089e-02
  -8.249377e+01  -8.858121e+00
  -1.744708e+01  -7.762488e+01
   8.866000e+01  -8.929473e+01
   1.872426e+02  -2.381288e+01
   1.325651e+02   5.980368e+01
   5.034323e+01   1.449224e+02
  -5.934082e+01   1.366700e+02
  -1.136603e+02   4.593022e+01
  -6.449630e+01  -1.232879e+01
  -2.034004e+01  -3.107735e+01
  -1.204139e+00  -9.896652e+00
  -1.225708e+01  -7.401087e+00
  -2.980865e+01  -4.395739e+01
  -1.644815e+01  -9.040512e+01
   1.727855e+01  -6.241470e+01
   7.299370e+01   1.309317e+01
   7.608675e+01   7.341550e+01
   5.320616e+00   9.427974e+01
  -7.179151e+01   2.962079e+01
  -9.396760e+01  -7.457627e+01
  -5.105313e+01  -8.710714e+01
   5.504943e+01  -5.501624e+01
   1.066223e+02  -3.723841e+00
   4.432260e+01   4.787276e+01
  -2.459414e+01   4.734473e+01
  -3.425055e+01   2.640862e+01
   2.552360e+01  -3.577890e+00
   6.230331e+01  -9.537178e+00
   1.422130e+01   2.416293e+01
  -7.695365e+01   6.048521e+01
  -1.076820e+02   3.444701e+01
  -7.050059e+01  -2.127377e+01
   8.488000e+00  -7.957070e+01
   4.736180e+01  -8.240848e+01
   4.529026e+01  -8.422447e+00
   7.628844e+00   4.632700e+01
  -1.350503e+01   4.451814e+01
  -2.966968e+01  -7.398769e+00
  -2.656182e+01  -5.017660e+01
   1.113746e+00  -3.428972e+01
   3.193561e+01   2.350490e+00
   3.475987e+01   1.864838e+01
   2.088871e+01   6.449339e+00
  -5.528917e+00  -1.596654e+01
  -5.238241e+00  -8.294928e+00
   3.407851e+00   3.065285e+01
  -4.304391e+00   4.874736e+01
  -2.156499e+01   1.702069e+01
  -2.796508e+01  -2.569782e+01
  -1.218467e+01  -5.493698e+01
   3.990570e+01  -2.740917e+01
   4.421813e+01   2.295092e+01
   1.620343e+01   6.106721e+01
  -5.317385e+01   2.962773e+01
  -7.142193e+01  -1.186743e+01
  -5.417061e+01  -3.191262e+01
   3.269764e+01  -4.043853e+01
   6.425780e+01  -2.651211e+01
   2.511014e+01  -6.646765e+00
  -2.601015e+01  -7.907024e-02
  -3.542884e+01  -1.594506e+00
   2.427711e+01  -2.210767e+01
   7.714080e+01  -2.114242e+01
