
 $NMID
 id='ANONYMOUS ', fmtdat='(2E16.6)'
 volume=1.0
 tramp=1.0
 $END
   2.656801e+03  -6.960717e+01
   1.724092e+03   1.492146e+03
   4.341604e+02   1.863753e+03
  -1.009334e+03   1.119075e+03
  -7.008071e+02   2.355125e+02
  -4.420900e+01  -1.032908e+02
   3.651788e+02   9.967381e+01
   7.972947e+01   4.474918e+02
  -4.184596e+02   4.585812e+02
  -4.968624e+02  -4.780365e+00
  -3.550262e+02  -5.372244e+02
  -9.048119e+01  -5.010727e+02
   1.251755e+02  -1.430061e+02
   1.971448e+02   3.994413e+02
  -5.252120e+01   4.128363e+02
  -3.207643e+02   5.045288e+01
  -2.258639e+02  -3.207481e+02
   4.260340e+00  -4.433459e+02
   4.270353e+02  -3.040461e+02
   3.597232e+02   9.923102e+01
   8.767288e+01   3.064323e+02
  -8.044315e+01   1.983308e+02
  -2.351596e+01   7.259087e+01
   1.489895e+02   9.090901e+01
   2.384853e+02   2.746724e+02
  -3.364639e+00   2.973414e+02
  -4.108202e+02   6.848386e+01
  -5.101781e+02  -1.861912e+02
  -1.102731e+02  -2.529531e+02
   2.348944e+02  -5.339792e+01
   4.657129e+02   5.240327e+01
   1.530515e+02   2.710510e+02
  -2.452774e+02   2.859911e+02
  -3.868419e+02   5.602471e+01
  -3.019709e+02  -1.380721e+02
  -8.172775e+01  -2.416688e+02
   2.604381e+01  -1.677763e+02
  -5.248582e+01   8.890769e+01
  -1.837164e+02   7.469693e+01
  -1.857224e+02  -1.436959e+02
   6.129149e+01  -3.923509e+02
   2.047251e+02  -3.505376e+02
   2.379286e+02   3.797343e+00
   4.662205e+01   2.420018e+02
  -1.908022e+02   1.222709e+02
  -1.227158e+02  -1.867395e+02
   1.138151e+02  -3.019481e+02
   3.918127e+02  -6.103649e+01
   4.448567e+02   3.794532e+02
   8.022636e+01   4.594565e+02
  -2.389168e+02   2.754247e+02
  -4.558201e+02  -6.326746e+01
  -2.996697e+02  -1.904349e+02
   7.905680e+01  -1.608678e+02
   3.033892e+02  -1.141679e+02
   1.829440e+02   1.651943e+00
   2.343141e+01   1.902410e+01
  -4.816627e+01  -2.231039e+01
   8.841012e+01  -3.015652e+01
   1.734248e+02   4.638987e+01
   9.689110e+01   1.821077e+02
  -1.105560e+02   2.177987e+02
  -3.241703e+02   1.695937e+02
  -2.523643e+02  -9.861182e+01
   3.150085e+01  -2.915344e+02
   2.696063e+02  -3.300899e+02
   3.426172e+02  -1.109697e+02
   1.973261e+02   1.529649e+02
   3.920821e+01   3.084815e+02
  -2.037423e+01   2.259091e+02
   1.101405e+01   1.633738e+02
  -3.369358e+01   9.765659e+01
  -1.354582e+02   1.046536e+02
  -2.071211e+02   2.926060e+01
  -2.058614e+02  -1.590338e+02
  -4.951602e+01  -2.073484e+02
   9.534664e+01  -1.549708e+02
   1.848838e+02   1.896830e+01
   7.254109e+01   2.608939e+02
  -4.295393e+01   2.189614e+02
  -2.070993e+02   4.432248e+01
  -2.619883e+02  -1.516063e+02
  -1.492420e+02  -2.536035e+02
   4.541939e+01  -1.898171e+02
   1.309895e+02  -1.175588e+02
   1.195201e+02  -8.761785e+01
   1.198106e+02  -7.356093e+01
   2.445610e+02  -2.697719e+01
   3.456502e+02   1.025077e+02
   3.175607e+02   3.008884e+02
  -4.451415e+01   4.703962e+02
  -3.584704e+02   3.451704e+02
  -3.535761e+02   1.399328e+02
  -2.540132e+02  -7.985105e+01
   9.240569e-01  -2.176557e+02
   4.499512e+01  -1.395047e+02
   1.151191e+01  -3.044694e+01
  -8.130803e+01   3.327489e+01
  -7.477492e+01  -4.214209e+01
  -9.764994e+00  -1.105113e+02
   1.016101e+02  -1.031320e+02
   8.857255e+01   3.650469e+01
  -3.843457e+01   1.059662e+02
  -1.199337e+02  -5.323299e+00
  -9.111387e+01  -1.531234e+02
   7.601332e+01  -2.942351e+02
   1.940991e+02  -2.013907e+02
   3.265339e+02   4.431424e+01
   2.099972e+02   2.577539e+02
   4.205441e+01   2.714871e+02
  -1.128897e+02   1.291141e+02
  -1.170391e+02  -1.137679e+01
  -3.416247e+01  -1.060682e+01
   5.181520e+01   6.108224e+01
   1.074163e+01   1.119893e+02
  -1.120837e+02   3.054442e+01
  -1.152792e+02  -2.731317e+01
  -2.753855e+01  -5.556700e+01
   8.186180e+01   2.627308e+01
   2.871442e+01   7.599875e+01
  -1.354405e+02   8.922415e+01
  -2.826509e+02  -5.762168e+01
  -1.996413e+02  -1.877160e+02
   1.386803e+01  -2.353110e+02
   2.009925e+02  -1.915860e+02
   2.601749e+02  -5.660836e+01
   1.551896e+02   3.597427e+01
  -2.550042e+01   4.949841e+01
  -5.377707e+01  -4.974958e+00
   5.192004e+01  -5.683856e+01
   1.687830e+02   8.562197e+00
   1.795186e+02   8.143076e+01
   4.835319e+01   1.676931e+02
  -5.578624e+01   1.098852e+02
  -1.124422e+02   3.389945e+00
  -3.571617e+01  -3.251985e+01
   3.720537e+01   1.782630e+01
   2.219307e+01   1.076564e+02
  -8.554656e+01   1.070758e+02
  -1.925858e+02   1.230883e+01
  -1.762461e+02  -1.297083e+02
  -3.767732e+00  -1.943369e+02
   1.316798e+02  -1.300611e+02
   1.489167e+02   5.366968e+00
   5.134760e+01   7.936879e+01
  -8.448235e+01   6.673942e+01
  -5.013917e+01   1.028790e+01
   3.139483e+00  -2.306611e+01
   3.378049e+01  -9.001188e-01
  -1.276089e+01   2.906712e+01
  -8.310003e+01  -3.278159e+00
  -9.569893e+01  -1.051286e+02
  -9.833305e+00  -1.778322e+02
   1.335483e+02  -1.312892e+02
   2.031035e+02  -2.687172e+01
   1.673023e+02   1.620000e+02
   1.296213e+01   1.991644e+02
  -7.670156e+01   1.403469e+02
  -1.097167e+02   2.933309e+01
  -7.311937e+01  -3.614660e+01
  -3.553307e+01  -2.429587e+01
  -4.944686e+01   1.240827e+01
  -7.359322e+01   1.059379e+01
  -4.918591e+01  -4.459535e+01
   1.919332e+01  -1.082751e+02
   1.317205e+02  -5.669040e+01
   9.208480e+01   4.978388e+01
  -1.907418e+01   1.282800e+02
  -1.517266e+02   6.659850e+01
  -1.744038e+02  -7.285401e+01
  -5.744350e+01  -1.856968e+02
   1.441127e+02  -1.497810e+02
   2.652784e+02  -8.151984e+01
   2.173802e+02   1.092054e+02
   9.511100e+01   1.475897e+02
  -6.454507e+01   1.050208e+02
  -6.642707e+01   5.594153e+01
  -4.330643e+01   5.706494e+01
  -5.773454e+01   7.738777e+01
  -7.493586e+01   9.365944e+01
  -1.128565e+02  -1.670346e+01
  -1.132281e+02  -1.671163e+02
  -3.644199e+01  -2.097074e+02
   8.119359e+01  -1.396589e+02
   1.537072e+02  -1.882947e+01
   1.108786e+02   1.140054e+02
  -5.036866e+00   1.137178e+02
  -7.015879e+01   6.993980e+01
  -5.249272e+01  -2.276662e+01
   4.860288e+00  -4.705217e+01
   2.732774e+01  -2.827898e+01
  -2.283008e+01  -1.117645e+01
  -7.366893e+01  -1.081632e+01
  -3.539259e+01  -3.714549e+01
   7.160495e+01  -2.558747e+01
   1.358727e+02  -6.087574e+00
   1.350110e+02   5.760255e+01
  -1.398090e+01   8.865150e+01
  -1.366924e+02   7.289884e+01
  -1.224324e+02   1.130132e+01
  -3.738681e+01  -3.680288e+01
   5.978379e+01  -2.952838e+01
   7.495689e+01   1.089863e+01
   2.584367e+01   5.947245e+01
  -5.557869e+01   6.133456e+01
  -6.320072e+01  -1.148429e+00
  -5.719220e+01  -3.675880e+01
  -4.483677e+01  -3.150639e+01
  -4.922507e+01  -3.873687e+00
  -5.680651e+01  -5.748802e+00
  -3.412897e+01  -6.556992e+01
   3.070391e+01  -1.465424e+02
   1.054876e+02  -1.449114e+02
   1.567375e+02  -1.243810e+01
   1.241320e+02   7.608873e+01
  -3.497288e+00   1.064226e+02
  -9.116150e+01   7.323063e+01
  -5.904511e+01  -8.879310e+00
   5.327789e+01  -1.498553e+01
   1.099389e+02   2.382723e+01
   8.186365e+01   9.441951e+01
  -9.218932e+01   9.426858e+01
  -1.569742e+02   1.528224e+01
  -1.158334e+02  -4.822173e+01
  -1.740793e+01  -7.196179e+01
   6.523943e+01  -4.448734e+01
   4.425763e+01   2.360127e+00
  -3.247855e+01   2.875873e+01
  -7.558525e+01  -1.706485e+01
  -3.229133e+01  -9.429748e+01
   5.097663e+01  -1.518559e+02
   1.340150e+02  -7.173440e+01
   1.202975e+02   6.773820e+01
   9.354479e-01   1.723706e+02
  -8.147453e+01   1.284454e+02
  -7.622167e+01  -1.640087e+01
  -4.740657e+01  -9.828754e+01
   2.004737e+01  -8.107781e+01
   4.533665e+01  -1.164688e+01
   4.402099e+01   3.326316e+01
   1.449333e+01   5.707922e+00
   5.690141e+00  -1.480487e+01
   3.217405e+01   2.487120e+01
   5.131451e+01   8.210144e+01
   2.362262e+01   8.160643e+01
  -4.816888e+01   2.910357e+01
  -1.215296e+02  -3.629022e+01
  -9.257180e+01  -4.917831e+01
  -1.625543e+01  -4.107548e+01
   7.042310e+01  -1.378254e+01
   6.951500e+01   3.907048e-01
   1.616603e+01   1.122604e+01
  -2.685123e+01   1.861768e+01
  -2.011058e+01   1.403408e+01
   1.246280e+01  -3.664821e+00
  -1.081894e+00  -4.194705e+00
  -5.201262e+01  -7.082915e+00
  -8.597934e+01  -2.131114e+01
  -1.092954e+01  -6.773646e+01
   8.103724e+01  -1.081658e+02
   1.933424e+02  -8.490957e+01
   1.292147e+02   6.083611e+01
   2.871237e+01   1.342798e+02
  -1.086270e+02   1.435615e+02
  -9.030227e+01   6.828878e+01
  -7.028083e+01  -2.478805e+01
  -2.553464e+01  -3.748493e+01
  -2.582683e+00  -1.386157e+01
  -1.479192e+01  -8.560639e+00
  -2.293446e+01  -4.267526e+01
  -3.320656e+01  -7.104708e+01
   3.281542e+01  -5.678255e+01
   6.727433e+01   1.067339e+01
   6.674933e+01   9.742299e+01
   2.071183e+01   8.481073e+01
  -5.580129e+01   3.499795e+01
  -8.701057e+01  -5.593533e+01
  -3.712614e+01  -8.715490e+01
   4.876744e+01  -5.645229e+01
   9.450812e+01   4.624237e+00
   3.890149e+01   5.845536e+01
  -3.429757e+01   6.339714e+01
  -3.688438e+01   2.677100e+01
   2.430261e+01  -6.423038e+00
   5.866958e+01   1.835366e+00
   2.047419e+01   2.118763e+01
  -7.581393e+01   5.313453e+01
  -1.021389e+02   4.742192e+01
  -5.388454e+01  -1.636326e+01
   2.397852e+01  -7.481962e+01
   5.181184e+01  -7.584854e+01
   4.263986e+01  -1.116432e+01
   4.978660e+00   4.657870e+01
  -2.689092e+01   4.314270e+01
  -3.075831e+01  -6.373830e+00
  -1.983858e+01  -4.693761e+01
  -3.152918e-01  -3.791655e+01
   2.725957e+01   1.468605e+00
   4.036291e+01   2.405133e+01
   1.661596e+01   5.361113e+00
  -3.444731e+00  -1.782881e+01
  -7.132646e+00  -1.041164e+01
   7.405032e+00   2.545388e+01
   1.292508e+00   4.662693e+01
  -2.378165e+01   2.088290e+01
  -4.188090e+01  -2.718079e+01
  -1.412700e+01  -4.663245e+01
   2.769457e+01  -2.219059e+01
   5.737955e+01   3.438335e+01
   1.133888e+01   4.541321e+01
  -5.101313e+01   3.034564e+01
  -9.403679e+01  -1.374162e+01
  -4.542779e+01  -3.694628e+01
   2.089165e+01  -4.486145e+01
   5.562128e+01  -2.238609e+01
   2.603391e+01  -7.414249e+00
  -2.479180e+01   3.309756e+00
  -2.605053e+01  -5.099994e-01
   1.944759e+01  -2.003756e+01
   5.525683e+01  -1.036413e+01
