
 $NMID
 id='ANONYMOUS ', fmtdat='(2E16.6)'
 volume=1.0
 tramp=1.0
 $END
  -2.737722e+03  -1.786382e+02
  -1.765592e+03  -1.894937e+03
   1.039969e+02  -1.418946e+03
   7.861933e+02  -1.139629e+03
   8.822750e+02  -3.589385e+02
   1.224803e+02   1.389875e+02
  -3.225401e+02  -4.938292e+01
  -1.648240e+02  -4.431378e+02
   2.729585e+02  -4.657169e+02
   6.143758e+02  -1.637555e+02
   3.594033e+02   2.440926e+02
   9.654071e+01   4.840357e+02
  -1.687734e+02   1.058302e+02
  -1.399350e+02  -2.450438e+02
   5.812376e+01  -4.171794e+02
   2.387850e+02  -1.321755e+02
   3.082551e+02   2.939175e+02
  -3.743003e+01   5.086734e+02
  -3.524298e+02   2.052962e+02
  -3.965064e+02  -6.824289e+01
  -1.772231e+02  -2.860679e+02
   1.075405e+02  -1.917435e+02
   2.065179e+01  -7.855144e+01
  -1.684141e+02  -1.101879e+02
  -1.150771e+02  -2.933448e+02
   4.711502e+01  -3.075688e+02
   3.286727e+02  -1.040960e+02
   4.556748e+02   1.697455e+02
   1.581763e+02   2.348153e+02
  -1.546299e+02   7.998475e+01
  -3.985388e+02  -9.430542e+01
  -1.638738e+02  -2.349711e+02
   2.007422e+02  -2.412649e+02
   4.536922e+02  -6.828656e+01
   3.111345e+02   1.065656e+02
   1.179798e+02   2.643009e+02
  -1.526690e+01   1.229518e+02
   8.967134e+01  -4.970507e+01
   1.133351e+02  -6.510072e+01
   2.118994e+02   1.665577e+02
  -6.785705e+01   3.077785e+02
  -2.038069e+02   2.647215e+02
  -1.848642e+02   2.689816e+00
  -1.067501e+02  -2.036181e+02
   1.116644e+02  -9.556451e+01
   9.815193e+01   1.483203e+02
  -7.827856e+01   3.180686e+02
  -4.077808e+02   2.436686e+01
  -3.883488e+02  -2.709816e+02
  -9.558657e+01  -4.041342e+02
   2.615741e+02  -2.335477e+02
   3.946425e+02   8.120107e+01
   3.254324e+02   1.666989e+02
  -2.160764e+01   1.363461e+02
  -2.056714e+02   8.510708e+01
  -1.999082e+02  -2.763168e+01
  -2.820485e+01   1.127568e+01
   1.617296e+01   3.051327e+01
  -5.323570e+01  -2.106205e+01
  -1.772133e+02  -2.202467e+01
  -1.010645e+02  -1.495384e+02
   1.194831e+02  -2.226806e+02
   2.530021e+02  -1.057883e+02
   2.333862e+02   5.626165e+01
  -6.981154e+01   2.949271e+02
  -2.555132e+02   2.438536e+02
  -3.191737e+02   6.123411e+01
  -1.565749e+02  -1.511653e+02
   3.749868e+00  -2.789240e+02
  -9.684355e+00  -2.652380e+02
  -8.037946e+00  -1.380906e+02
   1.884614e+01  -1.117713e+02
   1.585771e+02  -9.291920e+01
   1.790745e+02  -5.694721e+01
   1.559000e+02   1.180387e+02
   6.186434e+01   2.104843e+02
  -7.092910e+01   1.211763e+02
  -1.698976e+02  -6.501185e+01
  -6.300610e+01  -1.918226e+02
   1.047178e+02  -2.169165e+02
   1.921034e+02  -1.778034e+01
   2.168971e+02   1.751831e+02
   1.158436e+02   2.151581e+02
  -2.792426e+01   1.809931e+02
  -1.337059e+02   1.160189e+02
  -1.436147e+02   6.279358e+01
  -1.381690e+02   6.757193e+01
  -2.165751e+02   3.750335e+01
  -3.532709e+02  -9.994605e+01
  -2.440013e+02  -2.803560e+02
   9.552071e+01  -3.920287e+02
   3.350839e+02  -2.926298e+02
   4.256174e+02  -8.540543e+01
   2.250387e+02   1.399262e+02
  -2.840047e+01   1.690060e+02
  -8.350923e+01   1.431557e+02
   1.089005e+00   3.609860e+01
   1.106673e+02   1.440520e+00
   8.475609e+01   4.754799e+01
   5.893953e+00   1.138154e+02
  -1.029043e+02   9.322497e+01
  -8.509002e+01  -6.127926e+01
   3.971930e+01  -8.923325e+01
   1.344738e+02   3.708140e+00
   1.095076e+02   1.758101e+02
  -1.398426e+01   2.397567e+02
  -2.115426e+02   1.429335e+02
  -2.804224e+02  -6.025589e+01
  -1.918086e+02  -1.964281e+02
  -4.419866e+01  -2.432547e+02
   1.006463e+02  -1.227737e+02
   1.338348e+02  -1.083977e+01
   2.690966e+01   9.528231e+00
  -4.061565e+01  -6.268101e+01
   3.278416e+01  -1.023472e+02
   1.010851e+02  -3.228642e+01
   1.006420e+02   3.513446e+01
   9.652588e+00   5.130178e+01
  -7.485518e+01  -3.319689e+01
  -1.965188e+01  -7.904693e+01
   1.628567e+02  -7.692128e+01
   2.353760e+02   4.941738e+01
   1.875234e+02   1.431438e+02
   5.619526e+00   2.039988e+02
  -1.849242e+02   1.845824e+02
  -2.358629e+02   5.712343e+01
  -1.148315e+02  -4.674234e+01
   3.404053e+01  -5.009029e+01
   4.440802e+01   1.370239e+00
  -4.147372e+01   5.272210e+01
  -1.497320e+02  -1.076606e+01
  -1.482709e+02  -1.015915e+02
  -3.196062e+01  -1.485885e+02
   4.458365e+01  -1.061960e+02
   1.123840e+02  -1.783684e+01
   3.421157e+01   3.120237e+01
  -4.142799e+01  -2.341000e+01
  -8.358478e+00  -9.887047e+01
   8.858754e+01  -9.736278e+01
   1.662247e+02   7.379283e+00
   1.290203e+02   1.476887e+02
  -1.067043e+01   1.869415e+02
  -1.417627e+02   1.178546e+02
  -1.532769e+02   1.122378e+01
  -4.456235e+01  -7.411096e+01
   6.677297e+01  -6.332617e+01
   4.964459e+01  -1.983862e+01
  -1.026877e+01   2.007438e+01
  -3.835362e+01   2.859311e+00
   1.082597e+01  -2.848200e+01
   8.240781e+01   2.645934e+00
   7.799335e+01   8.553280e+01
  -3.755870e-02   1.687695e+02
  -1.264350e+02   1.369654e+02
  -2.004615e+02   9.395420e+00
  -1.420246e+02  -1.477654e+02
  -4.874252e+00  -1.985375e+02
   8.313456e+01  -1.389262e+02
   9.348799e+01  -1.194780e+01
   6.215456e+01   3.815941e+01
   3.187151e+01   2.860325e+01
   5.099969e+01  -1.465211e+01
   7.195635e+01  -1.003903e+01
   4.180596e+01   4.749196e+01
  -3.783790e+01   8.747752e+01
  -1.171116e+02   3.231521e+01
  -1.021645e+02  -4.403167e+01
   1.921206e+01  -1.142742e+02
   1.347228e+02  -4.257820e+01
   1.628348e+02   5.290525e+01
   3.304339e+01   1.678404e+02
  -1.355724e+02   1.621271e+02
  -2.431694e+02   5.568153e+01
  -1.804863e+02  -9.839016e+01
  -6.659604e+01  -1.637354e+02
   5.027316e+01  -1.031963e+02
   7.277226e+01  -5.821307e+01
   6.116610e+01  -5.997243e+01
   5.027508e+01  -6.929988e+01
   9.347590e+01  -7.469992e+01
   1.100527e+02   1.735736e+01
   8.437112e+01   1.467633e+02
   4.879493e+01   2.211218e+02
  -6.798330e+01   1.073990e+02
  -1.468806e+02   1.630609e+00
  -1.230618e+02  -1.119301e+02
  -1.915737e+00  -1.244676e+02
   7.193834e+01  -5.713028e+01
   5.544896e+01   1.637963e+01
  -4.688229e+00   4.711431e+01
  -2.666561e+01   3.515713e+01
   1.644612e+01   1.233965e+01
   7.640748e+01   2.443531e+01
   3.492733e+01   3.637641e+01
  -5.955644e+01   2.515418e+01
  -1.378417e+02  -1.751014e+01
  -1.143973e+02  -7.911823e+01
   5.828777e+00  -7.735201e+01
   1.301493e+02  -6.033471e+01
   1.314611e+02   1.587386e+00
   4.185472e+01   4.445298e+01
  -4.997552e+01   3.249883e+01
  -8.077123e+01  -9.340701e+00
  -1.441617e+01  -6.365652e+01
   4.460320e+01  -5.259538e+01
   5.955911e+01   9.678394e-02
   4.507090e+01   4.907697e+01
   4.297948e+01   3.275013e+01
   4.075884e+01  -4.118524e+00
   5.675743e+01   7.292278e-01
   3.814789e+01   5.617669e+01
  -3.092050e+01   1.352620e+02
  -1.184130e+02   1.200107e+02
  -1.515819e+02   2.136797e+01
  -1.196275e+02  -7.607299e+01
   1.197382e+01  -1.017307e+02
   9.707567e+01  -5.840913e+01
   5.377040e+01   9.548778e+00
  -4.990022e+01   9.749137e+00
  -1.072640e+02  -2.659554e+01
  -5.839329e+01  -9.315750e+01
   8.576443e+01  -6.996463e+01
   1.479006e+02  -3.592057e+01
   1.207763e+02   2.426620e+01
   1.252632e+01   7.598898e+01
  -5.682076e+01   3.636901e+01
  -4.178218e+01  -2.492971e+00
   3.060007e+01  -2.885461e+01
   7.752751e+01   1.094915e+01
   2.855162e+01   8.739378e+01
  -6.355945e+01   1.292219e+02
  -1.424195e+02   6.216328e+01
  -1.053887e+02  -7.678347e+01
   4.173288e+01  -1.409633e+02
   7.580705e+01  -1.102283e+02
   7.462732e+01   1.821046e+01
   3.280536e+01   1.016933e+02
  -1.275663e+01   8.006720e+01
  -3.745728e+01   8.087133e+00
  -3.876412e+01  -2.817529e+01
  -1.204776e+01  -4.349534e+00
  -6.345152e+00   1.679013e+01
  -2.384745e+01  -2.768831e+01
  -5.275905e+01  -7.808652e+01
  -4.987617e+00  -7.809335e+01
   4.897800e+01  -2.313901e+01
   1.107851e+02   4.311010e+01
   1.019902e+02   5.175500e+01
   1.829826e+01   3.514868e+01
  -6.760696e+01   1.751831e+01
  -6.635504e+01   7.007508e+00
  -1.859410e+01  -9.108580e+00
   2.512802e+01  -1.443642e+01
   1.913286e+01  -1.086410e+01
  -9.854221e+00   4.331042e+00
  -9.252672e-02   3.190715e+00
   5.704386e+01   9.307414e+00
   7.574871e+01   2.018911e+01
   2.153684e+01   5.321545e+01
  -9.093249e+01   1.088619e+02
  -1.801639e+02   6.821222e+01
  -1.336232e+02  -3.641775e+01
   8.827161e+00  -1.243666e+02
   9.005502e+01  -9.900825e+01
   1.123182e+02  -6.556027e+01
   6.106801e+01   1.889663e+01
   2.440187e+01   3.612286e+01
   9.129511e-01   1.442535e+01
   1.335710e+01   8.877992e+00
   1.881438e+01   3.936338e+01
   4.678859e+00   8.816247e+01
  -1.470542e+01   6.129533e+01
  -7.051055e+01  -1.169981e+01
  -4.451240e+01  -8.789836e+01
  -2.649166e+01  -7.886427e+01
   6.847638e+01  -2.291793e+01
   9.081058e+01   4.226006e+01
   3.005341e+01   7.716419e+01
  -4.836139e+01   6.185594e+01
  -9.756148e+01  -1.108280e+01
  -2.144674e+01  -5.399840e+01
   3.623222e+01  -5.881319e+01
   3.960052e+01  -1.863379e+01
  -2.461584e+01   7.704630e+00
  -6.351903e+01   3.716470e+00
  -1.680201e+01  -2.171449e+01
   7.449553e+01  -6.013623e+01
   1.160463e+02  -3.903344e+01
   6.113847e+01   1.817948e+01
  -1.770946e+01   7.457681e+01
  -4.957057e+01   7.168118e+01
  -3.955020e+01   1.293068e+01
  -1.874591e+01  -4.697861e+01
   1.995067e+01  -4.456942e+01
   3.045715e+01   4.464582e+00
   2.616574e+01   3.835976e+01
  -3.790458e+00   3.380843e+01
  -2.562369e+01  -6.557345e+00
  -4.185450e+01  -1.997730e+01
  -1.988366e+01  -4.407515e+00
   1.825164e+00   1.848438e+01
   3.238913e+00   1.269375e+01
  -7.579117e+00  -2.923822e+01
  -6.458217e+00  -5.243149e+01
   2.037271e+01  -2.176269e+01
   4.038763e+01   2.788815e+01
   1.459965e+01   4.119660e+01
  -2.789908e+01   2.463330e+01
  -4.767469e+01  -2.571380e+01
  -2.042052e+01  -4.722645e+01
   5.115194e+01  -2.677310e+01
   6.937712e+01   1.604890e+01
   4.069506e+01   4.269388e+01
  -2.219591e+01   4.707318e+01
  -5.595536e+01   3.164610e+01
  -2.529573e+01   7.632212e+00
   2.610577e+01  -7.007788e+00
   3.034271e+01  -2.700706e+00
  -1.770102e+01   2.166048e+01
  -4.853817e+01   1.784825e+01
