
 $NMID
 id='ANONYMOUS ', fmtdat='(2E16.6)'
 volume=1.0
 tramp=1.0
 $END
   2.044808e+03  -4.113793e+02
   1.917445e+03   4.884042e+02
   6.411033e+02   1.288882e+03
  -5.371292e+02   1.244369e+03
  -8.378612e+02   4.989673e+02
  -3.121297e+02  -1.573596e+02
   3.380751e+01  -1.418447e+02
   8.137602e+01   2.095514e+02
  -1.523551e+02   3.918534e+02
  -4.070921e+02   2.671847e+02
  -4.874306e+02  -2.601842e+02
  -9.437173e+01  -3.692126e+02
   2.230736e+02  -2.127845e+02
   1.882411e+02   1.414531e+02
   6.163152e+01   3.930590e+02
  -2.183849e+02   8.831235e+01
  -2.959817e+02  -3.118528e+02
  -9.502273e+00  -4.418019e+02
   3.773555e+02  -3.727973e+02
   4.061292e+02   6.033701e+01
   1.989765e+02   2.842959e+02
   8.884884e+00   1.930808e+02
  -2.706050e+01   1.015341e+02
   1.410608e+02   1.450593e+02
   1.138339e+02   2.039102e+02
  -1.032182e+02   1.712235e+02
  -3.009978e+02   8.712787e+01
  -4.144470e+02  -1.714519e+02
  -1.291550e+02  -1.129679e+02
   1.790896e+02  -1.430586e+02
   3.169790e+02   1.292350e+02
   9.650488e+01   1.999850e+02
  -1.093483e+02   2.618265e+02
  -2.984017e+02   7.819902e+01
  -1.991479e+02  -6.942928e+01
  -3.373327e+01  -1.764073e+02
  -5.375090e+01  -1.293643e+02
  -9.105460e+01   8.698375e+00
  -1.250694e+02   3.215483e+01
  -1.019028e+02  -7.269776e+01
  -4.159833e+01  -3.415253e+02
   5.402164e+01  -2.005308e+02
   1.837638e+02  -3.619720e+01
   2.604288e+01   1.359635e+02
   7.169691e-01   6.863141e+01
  -9.792500e+01  -1.645442e+02
   3.790738e+01  -2.621880e+02
   2.593950e+02   2.290538e+01
   3.525173e+02   2.268618e+02
   2.390087e+02   2.843204e+02
  -1.225050e+02   2.049302e+02
  -3.556821e+02  -3.375484e+01
  -2.480102e+02  -1.299889e+02
  -3.332770e+01  -1.388265e+02
   1.618342e+02  -9.151016e+01
   1.562241e+02  -5.161005e+01
   5.667521e+01  -8.516006e-01
   1.556129e+00   5.309797e+00
   1.779930e+01  -1.456514e+01
   1.369091e+02   2.970905e+01
   1.204206e+02   7.745777e+01
  -8.557839e+01   1.543287e+02
  -2.747865e+02   1.408085e+02
  -2.364675e+02  -8.808031e+01
  -1.586157e+01  -2.242306e+02
   1.825660e+02  -3.070318e+02
   2.605508e+02  -1.339291e+02
   1.680431e+02   1.347039e+02
   2.720421e-01   1.686972e+02
   2.419111e+01   2.206600e+02
   4.214300e+00   1.645020e+02
  -3.817467e+01   9.904960e+01
  -1.288332e+02   7.805316e+01
  -2.070202e+02   2.324603e+01
  -1.616720e+02  -6.272333e+01
  -6.793398e+01  -1.554215e+02
   2.840007e+01  -1.143926e+02
   9.513273e+01   3.295863e+01
   8.624519e+01   1.322059e+02
  -1.454462e+01   1.729741e+02
  -1.671992e+02   5.033589e+01
  -2.455596e+02  -8.333847e+01
  -1.280441e+02  -1.574520e+02
   4.732203e+01  -2.028957e+02
   1.032896e+02  -1.744675e+02
   1.182064e+02  -9.539634e+01
   1.217650e+02  -5.412026e+01
   2.142760e+02  -3.916961e+01
   3.166323e+02   5.228461e+01
   1.952587e+02   1.706995e+02
   3.181805e+01   3.803265e+02
  -2.654392e+02   2.712222e+02
  -4.233918e+02   1.355983e+02
  -2.007417e+02  -6.932529e+01
  -6.377053e+01  -1.686941e+02
   5.281959e+00  -1.476886e+02
  -3.450479e+01  -4.005358e+01
  -7.954680e+01   2.733109e+01
  -6.221782e+01  -9.283411e+00
   1.462727e+01  -9.238366e+01
   6.554268e+01  -5.070023e+01
   3.196940e+01   8.147683e+00
  -6.129186e+00   7.145050e+01
  -1.150211e+02  -1.117525e+00
  -1.023948e+02  -1.800717e+02
  -1.239186e+01  -2.636541e+02
   1.664075e+02  -1.555228e+02
   3.314203e+02   2.369811e+01
   2.514274e+02   1.723351e+02
   1.850701e+01   1.708422e+02
  -9.599012e+01   8.807080e+01
  -9.790124e+01   8.982987e+00
  -2.316445e+01   1.334515e+01
   3.410842e+01   4.338396e+01
  -1.439259e+01   6.732325e+01
  -8.527833e+01   5.536226e+01
  -1.245166e+02  -1.384707e+01
  -2.092571e+01  -2.739777e+01
   5.522419e+01   5.979524e+00
   1.428750e+01   6.870748e+01
  -1.200744e+02   7.070501e+01
  -2.139666e+02   3.661629e+01
  -1.859207e+02  -1.098991e+02
  -4.089654e+01  -2.095731e+02
   1.435614e+02  -1.647976e+02
   1.647310e+02  -4.286068e+01
   1.058883e+02   4.086264e+01
  -1.850102e+01   5.041848e+01
  -3.321444e+01  -1.556448e+01
   4.613948e+01  -5.091735e+01
   1.220605e+02  -4.709355e+01
   1.286014e+02   7.723679e+01
   6.297437e+01   1.323264e+02
  -8.067565e+01   9.276263e+01
  -8.424422e+01   2.538897e+01
  -2.094134e+01  -2.228049e+01
   4.176991e+01   2.955481e+01
   4.467121e+00   9.743353e+01
  -5.867732e+01   8.244872e+01
  -1.559875e+02   2.425329e+01
  -1.191590e+02  -9.773984e+01
  -1.809714e+01  -1.145642e+02
   9.017471e+01  -8.785260e+01
   1.105133e+02  -2.108977e+01
   5.622266e+01   6.387631e+01
  -2.610069e+01   6.207723e+01
  -4.749214e+01   2.167499e+01
   7.706302e+00  -1.679688e+01
   3.327070e+01  -9.858538e-01
  -2.056268e+00   2.642824e+01
  -8.335928e+01   1.320051e+01
  -1.109702e+02  -5.497550e+01
  -2.542329e+01  -1.399324e+02
   1.168071e+02  -1.188240e+02
   1.888070e+02  -3.870555e+01
   1.422158e+02   1.015614e+02
   6.202044e+01   1.505004e+02
  -6.668695e+01   1.185192e+02
  -9.336092e+01   2.231277e+01
  -6.181222e+01  -2.322986e+01
  -2.851673e+01  -1.986918e+01
  -3.723079e+01   1.110694e+01
  -7.217379e+01  -3.522710e+00
  -4.484171e+01  -4.773377e+01
   3.907728e+01  -9.205134e+01
   1.027699e+02  -7.163894e+01
   8.505648e+01   3.972443e+01
   6.976875e+00   1.230848e+02
  -1.070166e+02   5.463547e+01
  -1.680411e+02  -4.104488e+01
  -7.892388e+01  -1.792528e+02
   7.082463e+01  -1.727957e+02
   1.829446e+02  -8.248983e+01
   1.667592e+02   4.321113e+01
   6.425054e+01   9.443273e+01
  -1.619431e+01   9.273611e+01
  -5.829938e+01   8.060417e+01
  -4.492539e+01   4.811360e+01
  -3.194607e+01   6.621615e+01
  -5.761592e+01   5.860827e+01
  -1.013118e+02  -1.970945e+00
  -8.357600e+01  -9.651950e+01
  -1.912734e+01  -1.569439e+02
   7.152254e+01  -1.299844e+02
   1.223313e+02  -6.646186e+00
   8.059153e+01   1.080735e+02
   6.497422e+00   1.237432e+02
  -5.899235e+01   7.494477e+01
  -5.407514e+01  -1.735760e+01
   1.819325e+00  -4.208821e+01
   2.253323e+01  -2.284646e+01
  -1.824282e+01   2.223398e+00
  -7.015830e+01  -5.367912e+00
  -4.430522e+01  -2.933947e+01
   6.112497e+01  -3.321276e+01
   1.243294e+02  -9.145026e+00
   1.131441e+02   5.023159e+01
   3.159029e+00   7.669621e+01
  -9.783593e+01   6.737763e+01
  -1.002532e+02   1.309282e+01
  -2.601730e+01  -3.898367e+01
   3.629558e+01  -3.925701e+01
   6.473263e+01   1.305772e+01
   2.172721e+01   7.351984e+01
  -2.974368e+01   6.217411e+01
  -5.572334e+01   9.259011e+00
  -5.520165e+01  -2.910501e+01
  -3.589465e+01  -3.448487e+01
  -3.798682e+01  -2.328344e+00
  -5.123009e+01   4.514500e+00
  -5.193768e+01  -5.545614e+01
   7.665542e+00  -1.314248e+02
   1.017106e+02  -1.067951e+02
   1.496837e+02  -4.995026e+01
   1.057885e+02   8.847879e+01
  -4.330637e+00   1.017744e+02
  -6.576861e+01   7.054670e+01
  -5.517738e+01  -5.576079e+00
   4.844501e+01  -1.636386e+01
   8.891056e+01   2.970173e+01
   4.035752e+01   8.920325e+01
  -4.051791e+01   8.319727e+01
  -1.447986e+02   2.889755e+01
  -1.300036e+02  -4.183116e+01
  -2.535575e+01  -6.298310e+01
   4.620627e+01  -4.933889e+01
   3.063244e+01   3.826660e+00
  -3.581803e+01   2.729267e+01
  -7.655190e+01  -1.035103e+01
  -3.960985e+01  -8.956733e+01
   5.041360e+01  -1.060839e+02
   1.090728e+02  -3.669033e+01
   9.496331e+01   6.016241e+01
   3.069763e+01   1.225088e+02
  -4.259368e+01   8.998949e+01
  -7.647766e+01  -8.288049e+00
  -5.347077e+01  -9.542502e+01
   7.418754e+00  -6.328772e+01
   4.510411e+01  -1.360181e+01
   2.996146e+01   2.184458e+01
   4.631229e+00   2.920719e+00
   5.035531e+00  -1.004812e+01
   2.871813e+01   1.099220e+01
   4.083989e+01   6.045738e+01
   3.118838e+01   6.641520e+01
  -3.617469e+01   3.312783e+01
  -1.092261e+02  -9.575744e+00
  -7.295037e+01  -4.058850e+01
  -1.301623e+01  -4.352052e+01
   5.436080e+01  -1.866149e+01
   5.434193e+01  -7.541440e+00
   1.811667e+01   1.094210e+01
  -2.413529e+01   1.886501e+01
  -1.733112e+01   6.689986e+00
   5.315246e+00  -5.751903e+00
  -2.203324e+00  -2.790313e+00
  -4.041331e+01   9.165874e+00
  -7.732923e+01   1.169050e+01
  -2.646615e+01  -6.669752e+01
   6.163775e+01  -8.039454e+01
   1.632659e+02  -5.234473e+01
   1.084116e+02   2.411234e+01
   4.067233e+01   1.153432e+02
  -4.120360e+01   1.216456e+02
  -7.628883e+01   5.147899e+01
  -5.047636e+01  -7.991842e+00
  -2.080805e+01  -2.536829e+01
  -5.098002e+00  -1.363289e+01
  -1.297441e+01  -8.382974e+00
  -2.821530e+01  -3.863769e+01
  -9.355494e+00  -6.339864e+01
   1.562544e+01  -5.853226e+01
   5.623599e+01   9.630850e+00
   8.547528e+01   5.672302e+01
   1.214855e+01   9.026357e+01
  -5.935797e+01   3.395539e+01
  -8.998891e+01  -3.905133e+01
  -4.073858e+01  -7.227336e+01
   4.110648e+01  -4.826058e+01
   7.881147e+01  -7.451322e+00
   4.582633e+01   4.495138e+01
  -1.068042e+01   5.139914e+01
  -2.831869e+01   2.005795e+01
   1.538282e+01  -3.677492e+00
   5.476747e+01  -2.505606e+01
   1.631233e+01   2.253070e+01
  -4.820277e+01   6.157634e+01
  -7.639714e+01   4.196179e+01
  -6.589628e+01  -1.424595e+01
  -7.384039e+00  -6.542533e+01
   3.801328e+01  -7.035746e+01
   4.081383e+01  -1.627869e+01
   1.068377e+01   3.992620e+01
  -1.247915e+01   4.537228e+01
  -2.632464e+01  -3.718753e+00
  -2.217049e+01  -3.387077e+01
  -5.745421e+00  -3.435147e+01
   2.507999e+01  -3.333076e+00
   3.414683e+01   2.468925e+01
   1.420906e+01   7.563897e+00
  -7.252068e+00  -1.620811e+01
  -4.312593e+00  -9.061177e+00
   7.462659e+00   2.296713e+01
   1.368294e+01   4.432686e+01
  -2.069009e+01   2.207840e+01
  -3.678551e+01  -1.506333e+01
  -1.950691e+01  -4.262151e+01
   2.962743e+01  -2.290832e+01
   5.849155e+01   1.285857e+01
   2.035287e+01   4.655906e+01
  -4.230468e+01   2.991915e+01
  -7.813908e+01   8.550993e+00
  -3.902830e+01  -3.578537e+01
   2.216078e+01  -3.408797e+01
   4.661565e+01  -3.269606e+01
   2.349841e+01  -7.452886e+00
  -1.948214e+01   6.493523e+00
  -2.809350e+01   4.339193e+00
   8.353158e+00  -1.780642e+01
   5.631156e+01  -2.287527e+01
