
 $NMID
 id='ANONYMOUS ', fmtdat='(2E16.6)'
 volume=1.0
 tramp=1.0
 $END
  -7.458251e+02   3.162443e+02
  -6.199379e+02   1.597585e+02
  -1.714871e+02  -9.626139e+01
  -1.332225e+02  -3.227287e+02
   1.385391e+02  -1.649855e+00
   1.168596e+02   7.300059e+01
   3.514711e+01  -2.168015e+01
   6.874858e+00  -1.741428e+02
   3.191915e+01  -2.070611e+01
  -5.977705e+00  -8.076514e+00
   2.996639e+01  -3.117334e+01
  -3.173394e+01   1.544139e+02
   1.256614e+01  -1.031481e+02
  -9.002055e+00  -7.615474e+01
  -4.160142e+01  -9.605382e+01
   6.860077e+01   3.670661e+01
   5.556684e+01   8.139768e+01
  -1.815604e+01   1.259053e+02
  -5.995677e+01   8.188996e+01
  -1.112489e+02  -1.714919e+01
   1.102456e+01  -8.863511e+01
  -1.349735e+01  -6.528666e+01
  -5.838076e+00  -3.037973e+01
  -1.343629e+01  -9.319894e+00
  -1.390586e+02  -2.932848e+01
  -6.593698e+01  -2.609602e+01
   1.715264e+02   3.132182e+01
   2.502379e+01   8.471861e+01
   1.378551e+02   3.786143e+01
  -1.072533e+02  -3.564273e+01
  -1.475383e+01   8.293668e+01
  -2.192108e+01  -1.340351e+01
   9.623754e+01   3.845849e+00
   2.456456e+01  -4.206474e+01
  -7.496862e+00   1.323863e+01
  -3.614409e+00   8.293130e+01
  -1.792832e+01   7.321290e+00
   3.290003e+01   1.136651e+01
   6.364274e+01  -3.380624e+01
   3.557119e+01   1.765998e+01
  -2.044702e+01   1.279575e+02
  -4.666032e+01   9.078490e+01
   1.351609e+01  -7.119476e+01
  -5.053997e+01  -1.056999e+02
  -1.068727e+01  -7.314111e+00
   4.075255e+01   3.353342e+00
   5.640233e+01   4.649845e+01
  -6.022508e+01   4.689167e+01
  -2.185469e+01  -3.712494e+01
   1.407544e+01  -2.794267e+01
   1.210910e+01  -4.798824e+01
   5.181799e+01   7.942253e+01
   4.444049e+01   3.556938e+01
  -2.186024e+01  -1.022835e+01
  -3.001357e+01  -2.346650e+01
  -1.568848e+01   3.482183e+01
   5.767507e+00   2.639360e+01
   2.851058e+01  -1.645065e+01
   2.145276e+00   4.465116e+00
  -1.907551e+01  -1.032598e+01
   3.954173e+00   7.724486e+00
  -5.588764e+00  -4.636338e+01
  -9.606481e+00  -4.522927e+01
   5.715590e+01   1.339244e+01
   1.647545e+01   1.224231e+02
  -3.238521e+01   6.284491e+01
  -1.705703e+02  -1.756172e+01
  -5.237367e+01  -2.628868e+01
  -3.079224e+01  -7.565339e+01
   2.850355e+01  -7.540163e+01
  -6.627079e+00  -4.440404e+01
  -1.358472e+00  -1.860827e+01
   1.253951e+01  -3.600123e+01
   5.984668e+01   1.918433e-01
   3.795078e+01   2.576006e+01
   5.182141e+01   9.054389e+01
  -1.041165e+01   4.439252e+01
  -1.208797e+01   5.059232e+00
  -4.424643e+00  -3.140882e+01
  -1.671304e+01  -2.077816e+01
   6.164812e+01  -1.048416e+01
   5.235689e+01   2.992342e+01
   1.991665e+01   7.465997e+01
  -3.216522e+00   2.396797e+01
  -1.503575e+01   2.630342e+01
  -1.900553e+01   2.268430e+01
  -3.498339e+01   2.946945e+01
  -5.480046e+01  -1.088055e+01
  -7.565996e+01  -3.375789e+01
  -1.135891e+02   1.393023e+01
  -4.219393e+01  -5.573742e+01
   9.647892e+01  -8.415610e+01
   8.871313e+01  -9.557632e+01
   1.003731e+02  -2.549463e+01
   1.572209e+01   2.617907e+01
   3.207082e+01   2.948261e+01
  -3.788837e+00   7.914137e-01
   2.153164e+01  -3.027334e+00
   1.722615e+01   2.813754e+01
  -2.223237e-01   1.256001e+01
   1.103045e+01   4.854628e+00
  -4.209950e+01  -1.001517e+01
  -5.883142e+00  -4.660434e+01
   5.404253e+01   7.656837e+00
   3.596445e+01   3.301020e+01
  -3.369614e+01   6.122081e+01
  -2.002715e+01   4.520606e+01
  -2.075647e+01   2.613512e+01
  -6.919577e+01  -6.753240e+01
  -3.502428e+01  -2.530162e+01
  -4.970401e+00  -1.039498e+01
   2.218599e+01  -3.304281e+00
   5.359553e+00  -1.640326e+00
  -2.187645e+01  -1.110562e+01
  -1.537737e+01  -3.474680e+01
   3.720492e+01  -1.922022e+01
   1.540365e+01   3.698849e+01
   1.411101e+01   1.282733e+01
  -3.307184e+01  -5.683296e+00
  -1.772404e+01  -9.698767e+00
   1.637703e+01  -1.249380e+01
   7.321192e+01  -6.688560e+00
   6.603352e+01   4.398575e+01
   3.503421e+01   6.061111e+01
  -5.731778e+01   6.195856e+01
  -4.022744e+01   2.550414e+01
   7.802674e+00   1.453807e+01
   2.522703e+01  -2.608652e+01
   9.906182e+00  -3.588060e+00
  -1.004349e+01   4.068968e+00
  -5.623223e+01  -1.731547e+01
  -3.398967e+01   8.052016e+00
  -1.121023e+01  -3.686852e+01
   3.388666e+01  -2.305751e+01
   2.818736e+01  -8.529212e-01
   9.368148e+00  -9.800403e+00
  -7.096216e+00  -1.964044e+00
  -1.006441e+01  -1.962558e+01
   4.019859e+01  -3.929230e+01
   3.128400e+01  -3.908737e+01
   2.490098e+01   1.200704e+01
   7.676228e+00   3.983076e+01
  -3.119495e+01   3.389728e+01
  -5.904978e+00   1.371196e+01
  -5.429785e+00  -1.319032e+01
   1.421202e+01  -5.818668e+00
   1.020965e+01   2.788311e+00
  -1.189221e+00   4.708571e+00
  -3.871284e+00   4.786828e-01
  -1.023850e-01  -5.413287e+00
   1.712752e+01  -4.005066e+00
   1.234734e+01   1.856654e+00
   7.678693e+00   2.979195e+01
  -1.202165e+01  -2.379273e+00
  -2.674049e+01   1.347351e+01
  -3.655320e+01  -2.889958e+01
  -2.217999e-01  -3.384818e+01
  -1.118259e+01  -2.154744e+01
   2.799662e+01  -8.446915e+00
   6.368191e+00  -6.528502e+00
   8.579589e+00   1.598167e+00
   7.629021e+00  -9.916992e+00
   9.107658e+00  -9.586763e+00
   8.760724e+00   1.244291e+01
   7.648148e+00   1.077564e+01
  -2.490855e+01   2.713503e+01
  -2.758020e+01   2.689651e-01
   3.971827e+00  -2.384631e+01
   3.277510e+01  -4.048406e+01
   7.545719e+00   2.385841e+01
   1.268980e+01   6.006353e+01
  -2.277524e+01   5.241362e+01
  -3.705745e+01   2.586426e+01
  -5.113082e+01  -4.992090e+01
  -1.954781e+01  -2.054471e+01
   4.525807e+00  -2.353368e+01
   1.610676e+01  -5.778575e+00
   2.405356e+00  -2.427510e+01
   4.975039e+00  -2.208329e+01
   5.150941e+00  -1.920625e+01
   2.593746e+01   1.343761e+01
   3.376525e+01   3.949850e+01
   9.676901e+00   3.936441e+01
  -1.600699e+01   1.773265e+01
  -3.531803e+01   9.253935e+00
  -2.056078e+01   8.228113e+00
  -1.854936e+00  -2.127291e+01
   1.757999e+01  -6.284929e+00
   9.179136e+00   1.230823e-01
  -3.649732e+00   7.889291e-01
  -3.339204e+00   8.407911e+00
   5.379983e-01   1.244104e+00
   1.268281e+01  -5.869071e+00
   1.423486e+01   6.363809e+00
  -1.526577e+01   9.537828e+00
  -5.595046e+01   2.765946e+00
  -1.935150e+01  -2.001521e+01
  -2.516823e+00  -8.151281e+00
   7.272996e+00  -4.322725e+00
   8.126639e+00  -1.061188e+01
   8.368844e+00   1.234751e+01
  -9.107093e+00   8.214796e+00
  -1.384112e+01   1.784852e+00
  -2.050901e-01  -9.116618e+00
  -6.534309e+00  -1.531805e+01
   1.912559e+01   1.086156e+00
   7.927256e+00  -5.073132e-01
   9.360698e+00   7.368831e+00
   8.921197e+00   2.336056e+00
   9.857821e+00   7.563005e+00
   9.826715e+00   7.788403e+00
   5.164097e+00   6.713294e+00
  -1.665305e+01   3.357778e+00
  -3.760708e+01  -8.106437e+00
  -7.645524e+00  -2.219454e+01
  -2.099297e+01  -2.259384e+01
   5.374043e+00  -9.826781e+00
   5.675633e+00   6.254499e+00
  -1.711099e+01   6.038835e+00
  -3.538312e+01  -2.243438e+01
  -1.157542e+01  -1.494792e+01
   1.546635e+01  -2.481516e+01
   6.137347e+01  -3.957358e+00
   1.793459e+01   1.402474e+01
   9.253659e+00   2.842352e+01
  -9.717961e+00  -2.223603e+00
  -3.150461e+00   1.400871e-01
   5.518609e+00  -3.272717e+00
   1.866151e+01  -4.824575e+00
   8.924091e+00   1.773011e+01
  -4.151634e+00   1.525921e+01
  -4.198285e+01   1.163812e+01
  -6.369423e+00   3.020844e+00
  -2.197024e+01  -6.454928e+01
   3.325429e+01  -2.647987e+01
   2.093210e+01   6.957930e+00
   1.113450e+01   2.282886e+00
   7.501260e+00   2.175669e+01
  -1.408320e+01   1.199218e+00
  -1.058282e+01  -4.678594e-01
  -3.796063e+00   6.630537e-01
   3.241727e-01   1.460888e+00
  -9.891164e+00  -1.076296e+00
  -1.119673e+01  -1.245100e+01
  -2.347400e+01  -2.218900e+01
   2.074803e+01  -9.877505e+00
   2.586381e+00  -4.321733e+00
   2.690098e+01   8.963629e-01
   1.055137e+00   7.664774e+00
  -2.280553e+01   1.885182e+01
  -1.114328e+01  -3.220884e+00
  -3.501548e+00  -1.160292e-01
   8.295340e+00  -2.855488e+00
   2.638849e+00  -2.229055e+00
  -1.359572e+00   1.890116e+00
  -1.182269e+00  -3.257326e-01
   1.629759e+01  -3.083473e+00
   1.885496e+01   4.866414e+00
  -5.965390e-01   2.337856e+01
  -6.055793e+00   3.758757e+01
  -1.864815e+01   2.060643e+01
  -3.251098e+01  -8.352761e+00
  -4.025630e+00  -2.514678e+01
   1.068996e+01  -3.071129e+01
   1.984646e+01  -1.036831e+01
   1.853391e+01  -2.647503e+00
   7.879756e+00   4.222023e+00
   2.817747e+00   5.966719e-01
   2.905871e+00   9.945694e-01
   9.971364e+00   1.761302e+01
   1.637562e+01   1.501231e+01
  -1.198480e+00   9.274555e+00
  -1.635574e+01  -8.257867e+00
  -1.478061e+01  -1.361875e+01
  -3.420827e+00  -1.545733e+00
   5.736654e+00  -1.242309e+01
   1.967194e+01   1.345754e+01
   4.385943e+00   2.121854e+01
  -1.470540e+01   1.911025e+01
  -2.020224e+01   8.316099e+00
  -1.497080e+01  -1.370500e+01
   6.049532e-01  -1.518577e+01
   8.488383e+00  -9.158122e+00
  -4.132342e+00   2.325359e+00
  -1.770673e+01  -2.429111e-01
  -5.279947e+00  -4.745915e+00
   1.062976e+01  -2.517161e+01
   1.816236e+01  -1.358912e+01
   1.113015e+01   8.072536e+00
   1.851964e+00   2.393084e+01
  -3.659591e+00   1.020349e+01
  -6.837304e+00  -1.627997e+00
   2.606065e+00  -6.123064e+00
  -1.377987e+00  -1.288258e+01
   7.203499e-01  -4.448693e+00
   7.898284e+00   1.407207e+01
   1.665442e+00   3.994243e+00
  -4.516600e+00   3.629337e+00
  -1.181352e+01  -4.676484e-01
  -4.209002e+00  -1.125334e+00
   2.120628e+00   3.910993e+00
   1.478317e+00   2.588597e+00
  -1.124992e+00  -1.918806e+00
  -7.249861e+00  -3.499798e+00
  -8.024801e-01  -4.043598e+00
   3.752080e+00   1.633040e+00
   4.817245e+00   6.548431e+00
  -7.317919e+00   3.950115e+00
  -1.868499e+01  -8.355176e+00
  -3.044474e+00  -1.234600e+01
   1.471832e+01  -5.755898e+00
   1.180399e+01  -1.004848e+01
   1.633342e+01  -4.153431e-01
   5.120957e-01   4.070396e+00
  -8.444735e+00   1.975932e+00
  -9.103274e-01   3.504344e+00
   5.684130e-01  -3.085246e+00
   7.121715e+00   1.677381e+00
  -3.412703e-01   5.148726e+00
  -8.586293e+00   2.140148e+00
