
 $NMID
 id='ANONYMOUS ', fmtdat='(2E16.6)'
 volume=1.0
 tramp=1.0
 $END
  -1.635855e+03  -3.674424e+02
  -1.301204e+03  -1.113811e+03
  -1.870819e+02  -1.042349e+03
   7.986005e+02  -9.148462e+02
   5.426993e+02  -6.135208e+02
   2.619809e+02   6.519483e+01
  -7.443056e+01  -1.374880e+02
   4.376328e+00  -3.411978e+02
   1.952792e+02  -4.091088e+02
   3.222988e+02  -1.796720e+01
   4.025180e+02   3.310410e+02
   6.096526e+01   4.613129e+02
  -7.364671e+01   1.259974e+02
  -2.805966e+02  -1.701349e+02
   1.178792e+02  -3.002516e+02
   2.607910e+02  -3.677738e+01
   2.596852e+02   2.855666e+02
  -9.858457e+01   4.829729e+02
  -2.314255e+02   2.578501e+02
  -3.364202e+02  -6.630276e+01
  -6.488464e+01  -2.203357e+02
   4.738033e+01  -1.595130e+02
   2.490942e+01  -9.043287e+01
  -1.535799e+02  -9.436153e+01
  -1.255613e+02  -2.742365e+02
   8.017306e+01  -2.809332e+02
   3.962327e+02  -2.765359e+01
   3.095472e+02   1.538634e+02
   1.048332e+02   1.973900e+02
  -2.345102e+02   1.127548e+02
  -2.511379e+02  -1.209889e+02
  -1.857132e+02  -2.666835e+02
   1.498852e+02  -1.399776e+02
   2.654851e+02  -3.821541e+01
   2.073481e+02   1.207733e+02
   9.495204e+01   1.904058e+02
   3.164151e+01   7.816956e+01
   4.364223e+01   1.175078e+01
   1.806826e+02   2.704145e+00
   6.942912e+01   1.242797e+02
  -6.354999e+01   2.921651e+02
  -1.536369e+02   2.888961e+02
  -1.787885e+02   9.795211e+01
  -1.121307e+02  -1.300218e+02
   1.066749e+02  -5.918479e+01
   1.370073e+02   1.063240e+02
  -8.391605e+01   2.119822e+02
  -2.660704e+02   4.267185e+01
  -3.800071e+02  -3.092523e+02
  -6.569442e+01  -3.264821e+02
   2.714315e+02  -1.811552e+02
   3.259895e+02   1.467481e+01
   2.426187e+02   1.339265e+02
   1.678159e+01   7.545266e+01
  -1.538321e+02   3.897673e+01
  -1.487447e+02  -1.207763e+01
  -1.800759e+01   1.452977e+01
   6.652487e+00   1.477396e+01
  -5.309789e+01   2.873695e+01
  -1.060892e+02   7.522070e+00
  -1.080985e+02  -1.126684e+02
   1.231911e+02  -1.954181e+02
   2.450285e+02  -1.164038e+02
   2.249339e+02   6.664696e+01
  -1.336424e+01   2.745411e+02
  -2.067382e+02   2.879014e+02
  -2.315699e+02   2.247503e+01
  -1.104908e+02  -9.626242e+01
  -4.677277e+01  -2.790984e+02
   4.393758e+01  -2.308063e+02
  -3.371877e+00  -1.590730e+02
   2.436979e+01  -1.091834e+02
   1.321376e+02  -7.528259e+01
   1.917741e+02  -3.199110e+01
   1.691018e+02   9.625592e+01
  -2.099018e+01   2.037046e+02
  -7.287307e+01   1.374488e+02
  -1.264634e+02  -7.844814e+01
  -6.106221e+01  -1.400220e+02
   3.427104e+01  -9.796692e+01
   1.593145e+02  -5.224124e+01
   1.828046e+02   1.405741e+02
   9.164009e+01   2.006447e+02
  -5.538135e+00   1.455828e+02
  -9.180584e+01   1.508840e+02
  -8.622320e+01   4.167578e+01
  -1.273637e+02   6.873617e+01
  -2.178625e+02   2.317682e+01
  -2.948081e+02  -1.048547e+02
  -2.173540e+02  -2.797334e+02
   3.489726e+01  -2.809165e+02
   2.439616e+02  -2.338876e+02
   3.048271e+02  -5.927553e+01
   1.751247e+02   1.243859e+02
   1.297184e+01   1.270041e+02
  -7.878795e+01   1.411458e+02
   2.039081e+00   1.204200e+01
   6.815257e+01  -1.145183e+01
   6.813280e+01   2.623732e+01
   6.842665e+00   8.294707e+01
  -6.530805e+01   5.787818e+01
  -4.871168e+01  -4.503814e+01
   2.726513e+01  -3.034270e+01
   9.988114e+01  -2.149071e-01
   1.087907e+02   1.826410e+02
  -2.247673e+01   1.840630e+02
  -1.828279e+02   1.428782e+02
  -2.445230e+02  -6.265607e+01
  -1.731123e+02  -1.770241e+02
   1.106038e+00  -2.330862e+02
   1.155339e+02  -9.318397e+01
   8.666025e+01  -2.332979e+01
   1.594228e+01   2.546442e+00
  -2.048260e+01  -6.151062e+01
   1.615499e+01  -7.614858e+01
   6.843110e+01  -1.418161e+01
   6.940208e+01   2.484126e+01
  -3.269092e+00   2.783638e+01
  -4.352792e+01  -3.216663e+01
  -2.192996e+01  -8.538737e+01
   1.230177e+02  -4.096189e+01
   1.934321e+02   5.408003e+01
   1.600219e+02   1.277156e+02
  -2.189053e+01   1.579449e+02
  -1.537590e+02   1.339445e+02
  -1.769246e+02   7.490177e+01
  -7.374486e+01  -4.381700e+01
   1.199406e+01  -3.837347e+01
   4.581932e+01   1.593426e+01
  -3.259481e+01   5.573415e+01
  -9.843521e+01   2.539807e+01
  -1.077698e+02  -5.536601e+01
  -8.011836e+00  -1.055684e+02
   6.050905e+01  -9.053083e+01
   7.332623e+01  -4.370060e+00
   2.424719e+01   2.705655e+01
  -3.562844e+01  -2.374092e+01
  -1.722555e+01  -7.138670e+01
   9.682759e+01  -8.780831e+01
   1.394854e+02  -4.948227e+00
   8.619816e+01   9.470628e+01
  -3.172619e+01   1.491863e+02
  -1.387863e+02   1.116128e+02
  -1.245996e+02  -6.291398e-01
  -3.136734e+01  -5.843506e+01
   3.569371e+01  -6.018458e+01
   4.778279e+01  -1.483966e+01
  -2.100229e+00   1.668022e+01
  -3.089386e+01   3.072744e+00
   9.545942e+00  -1.738297e+01
   6.100991e+01   1.007979e+00
   6.514016e+01   6.924423e+01
  -4.735556e+00   1.277761e+02
  -9.677276e+01   1.313663e+02
  -2.132886e+02  -2.397660e+01
  -9.427071e+01  -1.288724e+02
  -7.526576e+00  -1.641507e+02
   9.801609e+01  -1.235703e+02
   8.452698e+01  -2.923981e+01
   5.223730e+01   2.464452e+01
   2.665504e+01   1.970011e+01
   5.169353e+01  -1.378898e+01
   7.449551e+01  -8.881184e-01
   4.551217e+01   4.251053e+01
  -1.977670e+01   7.776528e+01
  -7.854938e+01   2.149198e+01
  -7.930359e+01  -5.556309e+01
   2.574163e+01  -8.048464e+01
   1.229459e+02  -6.846424e+01
   1.490816e+02   5.196532e+01
   3.523330e+01   1.348024e+02
  -9.791424e+01   1.361878e+02
  -2.060668e+02   4.171454e+01
  -1.677851e+02  -6.224359e+01
  -5.833002e+01  -1.394194e+02
   1.727867e+01  -8.496049e+01
   5.541433e+01  -4.948868e+01
   5.553710e+01  -4.508714e+01
   2.651401e+01  -6.362604e+01
   8.230734e+01  -5.850292e+01
   9.037237e+01   1.590023e+01
   7.048686e+01   1.312710e+02
   2.174946e+01   1.895713e+02
  -7.454911e+01   1.196681e+02
  -1.186754e+02  -1.892763e+01
  -8.831624e+01  -1.035686e+02
  -7.599728e+00  -1.171758e+02
   5.900542e+01  -4.305067e+01
   4.117137e+01   1.624376e+01
  -8.030561e+00   4.653537e+01
  -2.893516e+01   3.290120e+01
   1.278218e+01   2.590430e+00
   5.613601e+01   1.791516e+01
   4.090625e+01   2.774641e+01
  -4.695009e+01   2.602879e+01
  -1.308009e+02  -2.374185e+01
  -8.289185e+01  -3.604184e+01
   1.208645e+01  -7.737362e+01
   1.135741e+02  -4.566622e+01
   1.135506e+02   1.806645e+01
   3.895716e+01   4.530370e+01
  -4.780839e+01   2.418173e+01
  -5.949407e+01  -1.774573e+01
  -1.190144e+01  -4.903800e+01
   2.936260e+01  -4.928564e+01
   3.663823e+01  -7.938013e+00
   4.437664e+01   4.689870e+01
   3.773636e+01   3.378016e+01
   4.155445e+01   4.810072e-01
   3.901699e+01   1.099475e+00
   1.680321e+01   4.914795e+01
  -2.163420e+01   1.168102e+02
  -9.436583e+01   9.932523e+01
  -1.414600e+02   1.193545e+01
  -9.009409e+01  -7.805678e+01
  -4.026230e+00  -9.695359e+01
   7.601131e+01  -5.473841e+01
   3.714814e+01   1.019012e+01
  -3.753620e+01   1.541454e+01
  -9.367208e+01  -2.292565e+01
  -4.026226e+01  -7.823990e+01
   6.943523e+01  -6.693175e+01
   1.163588e+02  -1.812067e+01
   1.102135e+02   1.718349e+01
   1.767016e+01   5.317897e+01
  -3.976813e+01   3.150899e+01
  -3.059183e+01  -1.208259e+01
   3.220607e+01  -2.520093e+01
   6.969157e+01   2.347927e+01
   4.259058e+01   8.503285e+01
  -6.822684e+01   1.241205e+02
  -1.074822e+02   5.739771e+01
  -7.193708e+01  -6.594935e+01
  -1.382064e+01  -1.098484e+02
   7.419208e+01  -9.991320e+01
   6.242708e+01   2.684977e+00
   2.478180e+01   9.660395e+01
  -1.901083e+01   7.448648e+01
  -3.346851e+01   8.633029e+00
  -2.954683e+01  -2.656469e+01
  -8.584008e+00  -4.907089e+00
  -3.538338e+00   1.386993e+01
  -1.674481e+01  -1.785238e+01
  -5.322783e+01  -7.983940e+01
  -2.015594e+01  -5.412139e+01
   4.478870e+01  -3.092867e+01
   7.734972e+01   1.842890e+01
   8.941886e+01   6.246775e+01
   1.393880e+01   3.808846e+01
  -4.409814e+01   6.313099e+00
  -6.812976e+01   4.434702e+00
  -1.457577e+01  -1.034448e+01
   1.735239e+01  -1.673480e+01
   1.414589e+01  -6.741710e+00
  -6.125999e+00   2.665218e+00
   1.545667e+00   1.133433e+00
   4.321442e+01  -7.359399e+00
   6.533418e+01   3.087549e+01
   1.965104e+01   5.493031e+01
  -6.883489e+01   7.692106e+01
  -1.281361e+02   6.037976e+01
  -1.215656e+02  -4.144831e+01
  -4.486721e+01  -8.871364e+01
   4.401020e+01  -6.396519e+01
   1.046162e+02  -4.792597e+01
   5.030383e+01   1.334274e+01
   1.385591e+01   3.381573e+01
   3.783890e+00   9.501721e+00
   8.774841e+00   8.117367e+00
   2.114828e+01   3.380825e+01
   1.288645e+01   7.321639e+01
  -2.864774e+01   4.277092e+01
  -4.988687e+01  -1.084885e+01
  -3.359492e+01  -7.073636e+01
  -2.441089e+01  -7.157526e+01
   4.382456e+01  -2.215282e+01
   8.074031e+01   4.750996e+01
   2.220327e+01   7.024180e+01
  -4.651968e+01   5.383457e+01
  -5.743630e+01  -6.653279e+00
  -2.809381e+01  -3.961087e+01
   3.593677e+01  -4.531337e+01
   3.476604e+01  -1.989487e+01
  -1.910720e+01   5.225182e+00
  -3.734090e+01   9.288256e-01
  -1.496008e+01  -1.816709e+01
   5.627407e+01  -3.975168e+01
   9.821623e+01  -2.418699e+01
   5.310332e+01   1.524674e+01
  -1.284560e+01   6.136007e+01
  -5.590211e+01   5.250968e+01
  -3.522781e+01   1.188984e+01
  -6.090086e+00  -3.511466e+01
   2.122715e+01  -3.074415e+01
   3.007047e+01   5.410876e+00
   1.591792e+01   3.876558e+01
  -2.983247e+00   2.268069e+01
  -1.961012e+01  -1.307281e+00
  -2.560026e+01  -1.799512e+01
  -1.961619e+01  -3.359118e+00
   9.207820e-02   1.645126e+01
   4.491093e+00   1.036186e+01
  -5.818126e+00  -2.229717e+01
  -6.591990e+00  -3.753329e+01
   1.493672e+01  -2.061291e+01
   3.212885e+01   2.790816e+01
   2.619787e+01   4.057121e+01
  -2.585155e+01   2.274116e+01
  -4.087392e+01  -1.381363e+01
  -2.040372e+01  -3.851663e+01
   3.468302e+01  -2.461281e+01
   5.646426e+01   2.297470e+00
   3.061072e+01   3.153616e+01
  -2.630959e+01   4.259698e+01
  -5.684814e+01   2.572103e+01
  -2.709741e+01   4.709562e+00
   1.621693e+01  -1.256409e+00
   2.041919e+01   5.743371e+00
  -1.589673e+01   1.540940e+01
  -4.581356e+01   1.081411e+01
