
 $NMID
 id='ANONYMOUS ', fmtdat='(2E16.6)'
 volume=1.0
 tramp=1.0
 $END
   3.106413e+03   2.132131e+02
   1.909497e+03   1.979779e+03
  -1.223892e+02   2.148934e+03
  -1.709275e+03   5.768651e+02
  -7.134928e+02  -5.550493e+02
   5.028891e+02  -3.188745e+02
   6.038124e+02   3.220768e+02
  -1.006753e+02   7.236810e+02
  -5.755767e+02   6.690852e+02
  -6.562186e+02  -8.777387e+01
  -3.190145e+02  -6.750182e+02
   1.313700e+02  -7.266388e+02
   4.448977e+02  -1.249053e+02
   1.426754e+02   5.497055e+02
  -2.137488e+02   5.129940e+02
  -4.595200e+02   1.926179e+01
  -2.356950e+02  -5.261271e+02
   2.641485e+02  -5.771236e+02
   4.115931e+02  -1.455980e+02
   2.699384e+02   2.461673e+02
   1.226370e+01   3.200919e+02
  -1.968137e+02   2.141832e+02
  -1.685687e+02   3.220221e+01
   1.175712e+02  -2.081711e+01
   2.374544e+02   8.896966e+01
   7.229445e+01   3.534270e+02
  -3.375385e+02   3.220719e+02
  -7.275590e+02  -1.431097e+02
  -3.554444e+02  -4.285084e+02
   3.577849e+02  -3.161800e+02
   5.609949e+02   1.258884e+02
   2.231869e+02   3.973751e+02
  -1.862869e+02   3.636624e+02
  -5.086995e+02   1.070592e+02
  -3.271883e+02  -1.839660e+02
  -3.073726e+01  -3.250156e+02
   1.774748e+02  -2.117425e+02
   9.536847e+01   2.045227e+02
  -1.761879e+02   3.257837e+02
  -3.016918e+02  -4.473044e+01
  -1.235653e+02  -5.422001e+02
   3.110632e+02  -4.637227e+02
   3.980443e+02   6.261172e+01
   1.239146e+02   4.087948e+02
  -2.571762e+02   1.919436e+02
  -2.769094e+02  -2.814043e+02
   1.344754e+02  -3.784981e+02
   4.496931e+02  -2.044434e+01
   4.090671e+02   3.962103e+02
   1.407680e+02   4.291279e+02
  -2.725293e+02   2.698736e+02
  -5.143587e+02  -6.915564e+01
  -2.542902e+02  -3.502078e+02
   1.327746e+02  -2.514091e+02
   3.749916e+02  -6.154574e+01
   2.001213e+02   1.390672e+02
  -9.183566e+01   8.069692e+01
  -7.918789e+01  -1.105986e+02
   1.364748e+02  -1.370274e+02
   2.513709e+02   3.544113e+01
   1.402057e+02   2.093926e+02
  -1.744305e+02   2.301946e+02
  -2.993710e+02   8.938900e+01
  -1.789088e+02  -7.388531e+01
   3.974102e+00  -1.930853e+02
   1.820312e+02  -3.260850e+02
   2.163189e+02  -1.046124e+02
   2.157990e+02   1.282224e+02
  -1.773074e+01   3.531185e+02
  -7.703946e+01   3.010506e+02
  -1.063026e+02   1.206076e+02
  -4.093625e+01   1.444788e+01
  -3.693170e+01   6.771111e+01
  -1.487098e+02   1.021001e+02
  -2.348624e+02  -7.570169e+01
  -1.310662e+02  -2.065047e+02
   4.722719e+01  -2.200628e+02
   2.032667e+02   6.788923e+00
   1.049838e+02   1.513585e+02
  -1.848937e+01   2.109304e+02
  -2.312555e+02   9.511127e+01
  -2.318032e+02  -1.178311e+02
  -2.048799e+02  -2.184839e+02
   9.118462e+01  -2.406579e+02
   1.755802e+02  -8.859149e+01
   1.185568e+02  -6.360421e+00
   8.640255e+01  -2.933373e+01
   2.050339e+02  -4.966955e+01
   2.810488e+02   6.189592e+01
   2.564113e+02   2.425363e+02
  -3.152252e+01   3.332691e+02
  -2.270833e+02   3.486721e+02
  -3.822637e+02   1.481852e+02
  -2.829655e+02  -8.127013e+01
  -2.433130e+01  -2.140733e+02
   9.284396e+01  -1.953746e+02
   6.912296e+01  -1.147886e+01
  -8.251404e+01   7.481528e+01
  -1.402811e+02  -3.762170e+00
  -2.224492e+01  -1.652462e+02
   1.361872e+02  -1.073735e+02
   1.362352e+02   7.052322e+01
  -2.360973e+01   1.209446e+02
  -1.500340e+02   4.003419e+01
  -1.359992e+02  -2.528761e+02
   2.083793e+01  -2.641645e+02
   1.958221e+02  -1.609765e+02
   2.655890e+02   3.329729e+01
   2.626470e+02   1.914809e+02
   6.930678e+01   1.992796e+02
  -1.173007e+02   1.304427e+02
  -1.228297e+02   1.834899e+01
  -4.152279e+01  -2.494041e+01
   4.443348e+01   2.870517e+01
   1.708518e+01   1.081853e+02
  -7.917428e+01   8.414167e+01
  -1.318615e+02  -7.659698e+00
  -4.061382e+01  -5.005154e+01
   5.700878e+01  -2.068323e+01
   5.119261e+01   6.447918e+01
  -9.405158e+01   6.742677e+01
  -2.170209e+02   1.571592e+01
  -1.871267e+02  -8.972050e+01
  -5.529068e+01  -2.017982e+02
   1.667966e+02  -1.904092e+02
   2.596547e+02  -8.705070e+01
   1.264023e+02   4.913321e+01
  -7.783613e+00   8.802471e+01
  -7.728511e+01  -1.620975e+00
   3.574128e+01  -9.319317e+01
   1.486159e+02  -3.681400e+01
   1.271077e+02   9.573659e+01
   5.945042e+01   1.254330e+02
  -9.456067e+01   1.345040e+02
  -9.196470e+01   2.029758e+01
  -5.053736e+01  -4.116822e+01
   2.551564e+01   1.581213e+00
   1.367707e+01   6.292917e+01
  -6.684670e+01   8.897361e+01
  -1.475534e+02   3.497362e+01
  -1.385713e+02  -7.635030e+01
  -5.038637e+00  -1.923884e+02
   1.507839e+02  -1.391736e+02
   1.561220e+02  -2.506402e+01
   5.676300e+01   9.457916e+01
  -5.552143e+01   9.131557e+01
  -7.591567e+01   2.356549e+01
  -1.489169e+01  -1.985676e+01
   1.629304e+01  -1.156633e+01
  -1.940691e+00   8.429248e+00
  -4.274346e+01   3.944684e+00
  -8.170739e+01  -6.230710e+01
   5.216752e+00  -1.254042e+02
   1.337186e+02  -1.164255e+02
   2.027971e+02  -5.626329e+01
   1.691095e+02   1.027451e+02
   4.783643e+01   1.892382e+02
  -9.452230e+01   1.232970e+02
  -1.169196e+02   1.104726e+01
  -7.078245e+01  -4.936020e+01
  -2.361138e+01  -2.804087e+01
  -4.736923e+01   6.728059e+00
  -7.380568e+01   1.565369e+00
  -3.369641e+01  -4.806528e+01
   3.527204e+01  -7.505298e+01
   6.967669e+01  -3.397436e+01
   6.066958e+01   3.631933e+01
  -2.596049e+00   9.152831e+01
  -1.243937e+02   7.069418e+01
  -1.635804e+02  -2.856867e+01
  -7.297866e+01  -1.545263e+02
   5.777770e+01  -1.531693e+02
   2.216348e+02  -5.286814e+01
   2.014425e+02   6.189693e+01
   8.439904e+01   1.606661e+02
  -3.565243e+01   1.121785e+02
  -7.463743e+01   7.464435e+01
  -7.443542e+01   5.830692e+01
  -6.215660e+01   7.418005e+01
  -6.914001e+01   7.083411e+01
  -1.102787e+02  -4.968436e+00
  -8.305340e+01  -1.274481e+02
   3.909807e+00  -2.072855e+02
   8.761505e+01  -1.667016e+02
   1.250243e+02  -2.539828e+01
   1.031270e+02   1.228703e+02
   1.893242e+01   1.187551e+02
  -3.703940e+01   6.042555e+01
  -4.297191e+01  -4.858726e+00
  -6.405310e-01  -3.865990e+01
   1.560054e+01  -2.941396e+01
  -2.748884e+01  -1.211065e+01
  -6.192903e+01  -1.344356e+01
  -3.377794e+01  -3.239589e+01
   4.370881e+01  -2.310113e+01
   1.223623e+02  -2.534355e+01
   9.063997e+01   5.082530e+01
   1.386673e+01   7.757229e+01
  -1.198457e+02   5.095408e+01
  -1.185682e+02   2.908220e+01
  -4.217850e+01  -4.130309e+01
   4.952268e+01  -1.904579e+01
   5.726543e+01   1.674187e+01
   5.728664e+00   4.991057e+01
  -4.645794e+01   3.210655e+01
  -4.081481e+01   1.645606e+00
  -4.336570e+01  -3.550715e+01
  -3.906375e+01  -3.284402e+01
  -4.991474e+01  -2.391803e+00
  -5.338431e+01  -1.156470e+00
  -3.643520e+01  -3.879001e+01
   2.879632e+01  -1.104072e+02
   1.100676e+02  -1.049626e+02
   1.185096e+02  -3.650173e+01
   1.063081e+02   8.456424e+01
   1.658164e+01   1.104955e+02
  -6.355819e+01   4.420398e+01
  -4.740124e+01  -8.074675e+00
   4.839465e+01  -1.351069e+01
   1.133311e+02   3.537811e+01
   4.867392e+01   8.877690e+01
  -6.602711e+01   7.270075e+01
  -1.350253e+02   3.818091e+01
  -1.180011e+02  -3.351603e+01
  -1.914071e+01  -5.851811e+01
   4.493073e+01  -4.375672e+01
   3.869768e+01  -4.907010e+00
  -3.528033e+01   2.167734e+01
  -7.039296e+01  -1.248482e+01
  -2.778174e+01  -1.038252e+02
   8.590149e+01  -1.481465e+02
   1.426833e+02  -2.118097e+01
   1.042695e+02   9.310265e+01
   1.350712e+01   1.465187e+02
  -6.532675e+01   1.235713e+02
  -8.113399e+01  -9.418243e+00
  -5.291503e+01  -9.320577e+01
   6.326597e+00  -9.284153e+01
   3.385325e+01  -1.586812e+01
   4.421635e+01   2.818498e+01
   1.811862e+01   5.470295e+00
   6.885591e+00  -1.556483e+01
   1.150068e+01   6.550864e+00
   4.256573e+01   8.377784e+01
   3.703555e+01   8.435313e+01
  -3.666393e+01   3.107275e+01
  -1.086440e+02  -3.070107e+01
  -1.151443e+02  -5.474305e+01
  -1.605333e+01  -4.572193e+01
   5.908838e+01  -9.705063e+00
   7.509652e+01  -4.678395e+00
   9.369089e+00   6.158491e+00
  -3.124822e+01   1.621160e+01
  -1.261511e+01   1.405024e+01
   1.651689e+01  -1.432851e+00
  -3.215714e+00  -6.277433e+00
  -4.602572e+01  -1.266529e+01
  -6.064667e+01   1.468745e-01
  -3.802500e+00  -5.652682e+01
   9.256641e+01  -9.257740e+01
   1.384476e+02  -1.866233e+01
   1.140740e+02   6.473651e+01
   1.845693e+00   1.208416e+02
  -4.746453e+01   1.049017e+02
  -1.030904e+02   5.779920e+01
  -7.411316e+01  -2.217240e+01
  -2.185377e+01  -2.683811e+01
   2.251358e+00  -5.170760e+00
  -8.498512e+00  -2.825293e+00
  -2.815471e+01  -3.466924e+01
  -2.076355e+01  -7.087157e+01
   2.099185e+01  -5.803073e+01
   6.413158e+01   1.787765e+01
   6.045357e+01   7.246609e+01
  -3.540608e-01   1.013586e+02
  -5.784970e+01   1.890014e+01
  -6.687579e+01  -6.294792e+01
  -3.203847e+01  -7.946812e+01
   5.195673e+01  -4.223113e+01
   6.878632e+01   7.902850e+00
   2.636444e+01   3.226322e+01
  -1.760244e+01   3.628670e+01
  -2.357696e+01   2.447050e+01
   2.853972e+01   1.804517e+00
   4.281039e+01  -7.482547e+00
   1.033338e+01   2.129695e+01
  -7.006019e+01   5.013950e+01
  -9.500144e+01   4.297205e+01
  -5.043762e+01  -8.303679e+00
   8.080417e+00  -5.780679e+01
   3.708998e+01  -6.351009e+01
   3.020004e+01  -2.367206e-01
   1.709635e+00   4.039407e+01
  -1.784338e+01   3.194991e+01
  -3.011286e+01  -1.914697e+01
  -2.483666e+01  -4.154157e+01
   6.471228e-01  -2.137865e+01
   2.683093e+01   3.545262e+00
   2.535860e+01   1.836898e+01
   1.710700e+01   4.783243e+00
  -2.357574e+00  -8.946784e+00
  -4.087546e+00   2.151470e-01
  -4.155127e+00   2.807981e+01
  -1.040213e+01   3.046163e+01
  -2.890848e+01   4.961543e+00
  -2.534305e+01  -3.373121e+01
   4.946412e+00  -5.509359e+01
   3.645850e+01  -1.895000e+01
   3.941105e+01   3.084083e+01
   5.575384e+00   4.158976e+01
  -4.393491e+01   1.937946e+01
  -6.330589e+01  -1.607647e+01
  -3.939346e+01  -3.250060e+01
   2.853308e+01  -3.488871e+01
   5.361350e+01  -1.663369e+01
   2.217893e+01  -6.565711e+00
  -2.788010e+01  -3.400584e+00
  -2.302250e+01  -6.682728e+00
   2.597151e+01  -2.223009e+01
   6.759345e+01  -1.791626e+01
