
 $NMID
 id='ANONYMOUS ', fmtdat='(2E16.6)'
 volume=1.0
 tramp=1.0
 $END
  -2.688943e+03  -1.426448e+02
  -1.740436e+03  -1.699519e+03
  -7.512290e+01  -1.519917e+03
   1.110316e+03  -8.739228e+02
   7.456590e+02   2.387811e+01
  -6.497864e+00   2.108883e+02
  -4.231585e+02  -1.194355e+02
   1.164834e+02  -4.543243e+02
   3.280140e+02  -5.443537e+02
   6.548641e+02  -1.318924e+02
   3.915808e+02   4.553925e+02
  -3.875648e+01   7.666049e+02
  -3.692572e+02   2.324629e+02
  -2.450508e+02  -3.591670e+02
   6.527700e+01  -5.553946e+02
   3.426986e+02  -5.888298e+01
   2.694846e+02   4.665071e+02
  -1.211790e+02   5.635499e+02
  -3.621428e+02   2.623267e+02
  -4.074979e+02  -1.676005e+02
  -1.403656e+02  -3.270458e+02
   1.085683e+02  -2.077327e+02
   8.491029e+01  -7.973716e+01
  -1.083625e+02  -5.863708e+01
  -2.213343e+02  -8.458153e+01
   2.210131e+01  -2.809375e+02
   4.448346e+02  -1.964078e+02
   5.330554e+02   1.373285e+02
   2.085107e+02   3.363794e+02
  -2.512569e+02   2.184320e+02
  -4.376003e+02  -1.169810e+02
  -1.600547e+02  -3.061946e+02
   1.990496e+02  -3.308989e+02
   4.921970e+02  -1.413281e+02
   2.296680e+02   1.775670e+02
   8.288146e+01   2.588978e+02
  -8.295051e+01   1.738882e+02
  -2.158756e+01  -9.537737e+01
   1.380568e+02  -1.883026e+02
   1.981829e+02   1.558699e+02
   1.555403e+02   4.232724e+02
  -1.875107e+02   3.880227e+02
  -3.100106e+02   6.249595e+01
  -1.344177e+02  -3.038880e+02
   1.352298e+02  -1.265137e+02
   1.952664e+02   2.782384e+02
  -1.058963e+02   3.081328e+02
  -3.946784e+02   2.037623e+01
  -4.016180e+02  -3.839948e+02
  -1.489946e+02  -4.562421e+02
   2.885677e+02  -2.350709e+02
   5.031358e+02   1.688135e+01
   2.664476e+02   2.467369e+02
  -6.443837e+01   2.239996e+02
  -3.112638e+02   7.457804e+01
  -1.780015e+02  -6.051674e+01
   5.525504e+01  -4.719666e+01
   5.992785e+01   4.754133e+01
  -1.181452e+02   9.515194e+01
  -2.320484e+02  -4.569122e+01
  -1.171434e+02  -1.631989e+02
   1.236650e+02  -1.901633e+02
   2.523889e+02  -9.062149e+01
   2.261295e+02   8.651732e+01
   1.575715e+01   2.716502e+02
  -2.587812e+02   3.725796e+02
  -2.616354e+02   1.875436e+02
  -1.977953e+02  -1.354884e+02
  -6.403787e+01  -3.097002e+02
   2.813385e+01  -2.847253e+02
   2.002507e+01  -1.366868e+02
   2.895159e+01  -7.125928e+01
   9.815329e+01  -8.943092e+01
   2.193577e+02  -6.887096e+01
   1.952355e+02   5.471839e+01
   8.969121e+01   1.593267e+02
  -7.637109e+01   1.769091e+02
  -1.565246e+02  -4.591569e+01
  -1.211863e+02  -1.927056e+02
   2.122472e+01  -2.138634e+02
   1.987649e+02  -6.499259e+01
   2.441366e+02   1.302852e+02
   1.664905e+02   2.207259e+02
  -6.616715e+01   2.497142e+02
  -1.490746e+02   1.153103e+02
  -1.244526e+02   7.451089e+01
  -1.168925e+02   5.819089e+01
  -2.687410e+02   3.938387e+01
  -3.472057e+02  -6.322676e+01
  -2.544668e+02  -1.945447e+02
  -1.741988e+01  -3.391039e+02
   2.857565e+02  -3.473423e+02
   3.718675e+02  -1.663653e+02
   2.670974e+02   4.280676e+01
   3.891787e+01   1.741232e+02
  -7.529646e+01   1.288561e+02
  -1.598460e+01   2.994133e+01
   1.005247e+02  -6.141178e+01
   1.044246e+02   1.560221e+01
   2.168923e+00   1.069617e+02
  -9.361863e+01   8.083736e+01
  -9.558987e+01  -4.041059e+01
  -3.371222e+00  -9.280047e+01
   1.402675e+02  -2.620205e+01
   1.764651e+02   2.209196e+02
   4.752771e+01   2.270070e+02
  -1.755512e+02   1.238910e+02
  -2.806007e+02  -5.660869e+01
  -2.452486e+02  -1.641061e+02
  -4.607302e+01  -2.328137e+02
   1.016697e+02  -1.163900e+02
   1.373867e+02   7.933380e+00
   2.485597e+01   1.151561e+01
  -4.372075e+01  -4.737804e+01
  -5.178189e+00  -9.126033e+01
   9.431755e+01  -8.133368e+01
   1.296037e+02   4.241982e+00
   2.367878e+01   4.375353e+01
  -5.845092e+01   1.146656e+01
  -2.353158e+01  -7.428536e+01
   1.384272e+02  -7.969304e+01
   2.657994e+02  -1.951031e+01
   2.300720e+02   1.292020e+02
   5.970179e+01   2.000617e+02
  -1.881848e+02   2.206482e+02
  -1.988040e+02   4.781757e+01
  -1.175565e+02  -3.719129e+01
   1.475703e+01  -8.445347e+01
   5.319694e+01   9.548337e+00
  -3.982363e+01   5.879611e+01
  -1.381163e+02   4.324329e+01
  -1.888358e+02  -1.020770e+02
  -8.379420e+01  -1.296724e+02
   6.278440e+01  -1.308357e+02
   1.201282e+02  -2.551270e+01
   3.666318e+01   3.201678e+01
  -3.450951e+01  -1.893410e+01
  -1.439762e+01  -8.518277e+01
   6.378351e+01  -8.764783e+01
   1.823291e+02  -4.747038e+00
   1.385627e+02   8.887901e+01
   8.024417e+00   1.773673e+02
  -9.720920e+01   1.117936e+02
  -1.605684e+02  -7.096975e-01
  -4.634454e+01  -8.278156e+01
   4.840975e+01  -7.076325e+01
   6.154605e+01  -2.409838e+01
   2.833784e+00   2.008992e+01
  -3.146570e+01   1.438914e+01
   4.491367e+00  -1.759112e+01
   6.646727e+01  -9.539633e+00
   7.917557e+01   6.063569e+01
   8.374039e+00   1.595744e+02
  -1.224404e+02   1.072940e+02
  -2.234444e+02   2.685678e+01
  -1.848947e+02  -8.884979e+01
  -8.461997e+01  -2.004914e+02
   8.165202e+01  -1.339420e+02
   8.912989e+01  -1.992872e+01
   6.892440e+01   3.869818e+01
   2.558624e+01   3.239969e+01
   4.404195e+01  -7.893596e+00
   7.898312e+01  -6.241246e+00
   4.474632e+01   5.112701e+01
  -3.411376e+01   9.188304e+01
  -7.579774e+01   5.751196e+01
  -7.764936e+01  -3.004535e+01
   8.036215e+00  -1.281513e+02
   1.232928e+02  -8.893288e+01
   1.736878e+02   4.666542e+01
   1.108731e+02   1.722870e+02
  -7.127396e+01   1.881971e+02
  -2.130107e+02   6.189514e+01
  -2.133805e+02  -3.923166e+01
  -8.880529e+01  -1.337287e+02
   3.466940e+01  -1.087459e+02
   7.769870e+01  -6.304316e+01
   6.079639e+01  -6.313166e+01
   4.078015e+01  -8.033049e+01
   7.140475e+01  -7.472824e+01
   1.290188e+02   6.247054e+00
   8.084778e+01   1.057408e+02
   7.167591e-01   1.728870e+02
  -8.143707e+01   1.500194e+02
  -1.507189e+02   1.240374e+01
  -9.058569e+01  -1.021267e+02
  -1.253600e+01  -1.410061e+02
   6.082340e+01  -7.414275e+01
   5.594955e+01   1.056463e+01
  -4.754898e+00   4.697219e+01
  -2.086056e+01   3.024991e+01
   2.292107e+01   1.059039e+01
   8.889943e+01   1.388385e+01
   3.798129e+01   3.031554e+01
  -5.854256e+01   3.501553e+01
  -1.411002e+02   3.096887e+01
  -1.389256e+02  -4.245947e+01
  -8.893158e+00  -7.705701e+01
   1.060706e+02  -5.862237e+01
   1.191476e+02   6.343526e-01
   3.617190e+01   4.158264e+01
  -3.810561e+01   2.679980e+01
  -7.014308e+01  -1.131996e+01
  -1.734924e+01  -6.345183e+01
   3.713215e+01  -4.677722e+01
   5.211320e+01  -5.584428e+00
   5.159824e+01   3.563485e+01
   3.981352e+01   3.896727e+01
   3.393258e+01   9.319395e-01
   6.356591e+01   2.831236e+00
   4.742968e+01   5.884030e+01
  -2.410606e+01   1.158428e+02
  -1.117859e+02   1.174422e+02
  -1.494460e+02   4.764737e+01
  -1.235048e+02  -8.248334e+01
  -1.313031e+01  -1.127889e+02
   8.124500e+01  -6.317258e+01
   5.934211e+01   6.931640e+00
  -5.205374e+01   2.025082e+01
  -1.125958e+02  -1.933460e+01
  -5.204131e+01  -8.019541e+01
   5.885025e+01  -8.644585e+01
   1.448502e+02  -5.295110e+01
   1.414012e+02   3.349666e+01
   3.553258e+01   6.741911e+01
  -5.284680e+01   6.217095e+01
  -3.755725e+01   2.316397e+00
   3.885634e+01  -2.275280e+01
   8.128136e+01   1.737018e+01
   3.450341e+01   9.927349e+01
  -6.691962e+01   1.364253e+02
  -1.141816e+02   3.859218e+01
  -1.005356e+02  -7.582683e+01
  -3.880736e+01  -1.372737e+02
   5.663911e+01  -1.014625e+02
   8.402054e+01   9.148160e+00
   3.538624e+01   9.776767e+01
  -1.044662e+01   7.118062e+01
  -4.519840e+01   1.859643e+01
  -4.040542e+01  -2.818100e+01
  -1.502294e+01  -8.273206e+00
  -6.825024e+00   1.226316e+01
  -2.282047e+01  -1.186366e+01
  -5.153157e+01  -8.108748e+01
  -4.862048e+01  -8.096514e+01
   4.266597e+01  -3.980344e+01
   1.105814e+02   1.944148e+01
   8.867496e+01   5.966188e+01
   1.333121e+01   4.199441e+01
  -6.329502e+01   2.298935e+01
  -7.183087e+01   8.122352e-01
  -1.357059e+01  -9.615141e+00
   2.967346e+01  -1.744893e+01
   1.893035e+01  -1.182728e+01
  -1.032851e+01   2.205472e+00
   3.131680e+00   5.052033e+00
   4.830837e+01  -2.164693e+00
   7.668932e+01  -2.870363e+00
   1.968410e+01   6.297649e+01
  -8.609210e+01   8.748737e+01
  -1.719005e+02   2.493046e+01
  -1.331837e+02  -6.053873e+01
  -4.193721e+01  -1.289970e+02
   3.877133e+01  -1.255840e+02
   1.023784e+02  -4.452643e+01
   5.196973e+01   1.521079e+01
   2.139551e+01   2.293937e+01
   2.133329e+00   1.089134e+01
   1.273325e+01   5.086925e+00
   2.772035e+01   3.874076e+01
   1.584009e+01   7.496209e+01
  -1.332736e+01   5.740588e+01
  -6.909877e+01  -1.046763e+01
  -6.991864e+01  -6.282075e+01
  -1.217619e+00  -9.671677e+01
   7.759841e+01  -3.080976e+01
   7.880143e+01   5.195068e+01
   5.088873e+01   8.309663e+01
  -4.197034e+01   5.577014e+01
  -9.011103e+01   4.814719e+00
  -4.365491e+01  -4.225315e+01
   1.384127e+01  -5.181888e+01
   2.758310e+01  -2.504263e+01
  -2.394762e+01   3.962069e+00
  -5.790353e+01   9.474055e+00
  -1.214078e+01  -2.175466e+01
   6.618174e+01  -4.886643e+01
   9.197440e+01  -4.419213e+01
   6.479096e+01   1.375537e+01
  -9.532949e+00   7.460480e+01
  -4.320257e+01   6.691172e+01
  -3.118683e+01   7.274507e+00
  -7.995291e+00  -4.786067e+01
   1.280982e+01  -3.635962e+01
   3.002991e+01   9.610478e+00
   2.131906e+01   4.197190e+01
   2.214326e+00   3.012197e+01
  -3.016670e+01  -3.022316e+00
  -3.795963e+01  -2.060734e+01
  -1.893058e+01  -4.740958e+00
   4.810686e+00   1.519319e+01
   2.571048e+00   6.095308e+00
  -6.248000e+00  -3.288003e+01
   2.466376e+00  -4.147375e+01
   2.582051e+01  -2.025737e+01
   2.758627e+01   2.128901e+01
   7.576500e+00   5.143758e+01
  -4.032835e+01   2.421130e+01
  -4.016398e+01  -1.604791e+01
  -1.738263e+01  -4.865421e+01
   4.450775e+01  -2.381816e+01
   6.078889e+01   1.468573e+00
   4.770031e+01   3.012424e+01
  -2.841126e+01   3.908398e+01
  -5.921376e+01   2.218968e+01
  -2.349799e+01   7.131403e+00
   2.782454e+01  -3.833326e+00
   3.390408e+01   1.288543e+00
  -2.124947e+01   1.881687e+01
  -7.300972e+01   1.707199e+01
