
 $NMID
 id='ANONYMOUS ', fmtdat='(2E16.6)'
 volume=1.0
 tramp=1.0
 $END
  -2.235909e+03   2.203901e+02
  -1.817502e+03  -1.487075e+03
  -1.769184e+02  -1.861853e+03
   1.411394e+03  -1.169317e+03
   8.506795e+02  -3.103821e+02
   5.525590e+01   3.000488e+02
  -3.691110e+02  -1.829531e+02
  -1.827132e+02  -3.416186e+02
   3.387751e+02  -6.245751e+02
   5.889821e+02  -9.399404e+01
   3.855523e+02   4.908884e+02
   4.544995e+01   5.676661e+02
  -2.786348e+02   1.955789e+02
  -2.564319e+02  -3.948359e+02
   1.219831e+02  -4.521534e+02
   3.499112e+02  -1.575095e+02
   3.416114e+02   4.648814e+02
  -8.127674e+01   5.661378e+02
  -4.197496e+02   2.159732e+02
  -4.043059e+02  -1.340657e+02
  -1.536136e+02  -3.350211e+02
   8.611374e+01  -2.594625e+02
   6.843226e+01  -5.427087e+01
  -1.664735e+02  -5.868928e+01
  -2.984339e+02  -2.479636e+02
   3.625677e+01  -2.225622e+02
   4.051507e+02  -2.116634e+02
   5.539159e+02   4.079859e+01
   2.020882e+02   3.302218e+02
  -3.670486e+02   2.062371e+02
  -4.131583e+02  -2.756929e+01
  -1.852313e+02  -2.950000e+02
   1.393020e+02  -3.257376e+02
   2.745344e+02  -1.397550e+02
   2.798129e+02   6.275441e+01
   7.903310e+01   2.607183e+02
  -1.023409e+01   1.707669e+02
   1.417542e+01  -1.377564e+02
   1.516321e+02  -1.376923e+02
   1.846796e+02   4.397182e+01
  -3.855268e+01   4.883472e+02
  -1.994861e+02   4.165397e+02
  -2.504372e+02  -2.603874e+01
  -1.301911e+02  -2.286604e+02
   1.274020e+02  -1.591051e+02
   1.070822e+02   2.228941e+02
  -2.636200e+01   3.147713e+02
  -3.397691e+02   8.366980e+01
  -4.547216e+02  -2.174243e+02
  -1.919603e+02  -3.949378e+02
   2.421859e+02  -2.588520e+02
   4.427421e+02   2.156776e+01
   3.072131e+02   1.717639e+02
  -5.575081e+01   2.063402e+02
  -2.612966e+02   4.043653e+01
  -2.118777e+02  -4.820855e+01
  -3.191746e+00  -2.567764e+01
   3.944008e+01   3.737214e+01
  -1.175546e+02   6.575386e+01
  -2.031394e+02  -7.165876e+01
  -1.422254e+02  -1.510303e+02
   1.187241e+02  -2.105918e+02
   3.004636e+02  -1.139339e+02
   2.022674e+02   6.115064e+01
   1.813525e+01   2.963311e+02
  -2.367789e+02   2.957850e+02
  -3.203781e+02   1.685214e+02
  -1.805758e+02  -1.338816e+02
  -1.038957e+02  -2.834902e+02
   1.728164e+01  -2.630087e+02
   1.790821e+01  -1.592102e+02
   2.631164e+01  -9.857867e+01
   9.580453e+01  -9.187912e+01
   2.010389e+02  -7.287544e+01
   2.315499e+02   8.440756e+01
   9.930176e+01   2.422178e+02
  -8.952668e+01   1.986909e+02
  -1.624905e+02  -3.685633e+01
  -1.456542e+02  -2.220442e+02
   4.539674e+01  -2.082853e+02
   2.388451e+02  -6.998698e+01
   2.336938e+02   1.189125e+02
   1.493107e+02   2.794461e+02
  -2.704238e+01   2.521244e+02
  -1.298409e+02   1.063667e+02
  -1.333609e+02   7.390038e+01
  -1.294057e+02   8.050416e+01
  -2.442871e+02   2.284085e+01
  -3.983531e+02  -1.817183e+01
  -2.702337e+02  -2.222650e+02
   1.151639e+00  -3.970783e+02
   3.807125e+02  -3.750397e+02
   3.656187e+02  -1.399709e+02
   2.986939e+02   5.771275e+01
   3.897824e+01   2.489688e+02
  -8.548534e+01   1.831583e+02
  -2.121556e+01   2.766882e+01
   1.088100e+02  -2.604859e+01
   1.196528e+02   3.225873e+01
   3.690902e+01   1.201917e+02
  -5.880273e+01   8.367995e+01
  -8.126822e+01  -4.620979e+01
   3.311386e+00  -1.027679e+02
   1.422725e+02   1.448692e+01
   1.571600e+02   2.196420e+02
   1.341278e+01   3.229788e+02
  -1.690917e+02   1.609781e+02
  -2.908713e+02  -1.964193e+01
  -3.378150e+02  -2.430967e+02
  -4.957235e+01  -2.079940e+02
   8.845473e+01  -1.149968e+02
   1.243790e+02  -3.919366e+00
   3.057434e+01   1.508693e+01
  -4.932965e+01  -5.001008e+01
   1.445804e+01  -9.861503e+01
   1.275322e+02  -5.625440e+01
   1.315904e+02   2.612140e+01
   2.992086e+01   4.918608e+01
  -7.993703e+01  -7.245913e+00
  -2.915635e+01  -7.935937e+01
   9.543065e+01  -8.782360e+01
   2.736189e+02  -2.531749e+01
   2.729741e+02   1.352542e+02
   6.602993e+01   2.512423e+02
  -1.977669e+02   2.025898e+02
  -2.136276e+02   1.190997e+02
  -9.136386e+01  -4.735957e+01
   3.263998e+01  -7.982146e+01
   4.627350e+01   5.840752e+00
  -4.205090e+01   7.127072e+01
  -1.695856e+02   4.928224e+01
  -1.390350e+02  -7.643621e+01
  -3.441699e+01  -1.743566e+02
   7.199059e+01  -1.246347e+02
   9.174522e+01  -1.860196e+01
   4.054983e+01   2.842615e+01
  -3.471805e+01  -2.014506e+01
  -2.505553e+01  -9.228023e+01
   7.624951e+01  -1.145403e+02
   1.738181e+02   9.337834e+00
   1.559586e+02   1.101704e+02
   1.900713e+01   1.657834e+02
  -1.417988e+02   1.245767e+02
  -1.332909e+02   2.427884e+01
  -5.226804e+01  -8.196242e+01
   5.395811e+01  -9.141446e+01
   5.900156e+01  -3.531849e+01
  -5.944266e-01   2.424721e+01
  -2.884998e+01   9.233498e+00
   2.649870e+00  -2.557860e+01
   7.287072e+01  -1.162938e+00
   1.005421e+02   7.220046e+01
   1.047167e+01   1.326636e+02
  -7.579986e+01   1.444520e+02
  -2.039500e+02  -4.937852e-01
  -1.840000e+02  -1.384625e+02
  -2.364590e+01  -2.079162e+02
   8.815149e+01  -1.158710e+02
   1.190912e+02  -4.597683e+01
   6.677913e+01   3.402566e+01
   2.546030e+01   2.402795e+01
   4.075721e+01  -1.069123e+01
   7.714577e+01  -1.534237e+01
   5.233300e+01   6.074105e+01
  -3.752304e+01   8.593438e+01
  -1.039637e+02   7.784706e+01
  -9.672693e+01  -2.226447e+01
   1.694430e+01  -1.214998e+02
   1.534191e+02  -8.118979e+01
   1.607848e+02   5.382859e+01
   7.413568e+01   1.758407e+02
  -1.034106e+02   2.061520e+02
  -2.082764e+02   8.710085e+01
  -2.331279e+02  -7.599440e+01
  -8.711194e+01  -1.460691e+02
   3.230080e+01  -1.368812e+02
   7.772005e+01  -6.807976e+01
   5.337140e+01  -5.448085e+01
   5.366413e+01  -9.294164e+01
   6.957322e+01  -6.405763e+01
   1.292160e+02   1.329180e+00
   1.299029e+02   1.223529e+02
   3.745344e+01   1.760851e+02
  -8.913023e+01   1.318765e+02
  -1.302843e+02   1.413563e+01
  -1.059814e+02  -7.475255e+01
   1.230020e+01  -1.249994e+02
   7.109611e+01  -6.160218e+01
   4.487355e+01   1.173861e+01
  -1.232779e+00   4.013744e+01
  -1.935998e+01   3.089052e+01
   2.454223e+01   1.178681e+01
   7.868787e+01   7.089394e+00
   4.401171e+01   3.567065e+01
  -7.313972e+01   4.414484e+01
  -1.825492e+02   2.074262e-02
  -1.295850e+02  -7.669339e+01
  -2.068719e-01  -8.576832e+01
   9.752725e+01  -8.314967e+01
   1.096122e+02   6.438856e-01
   4.062788e+01   3.669356e+01
  -4.605906e+01   4.879688e+01
  -6.414950e+01  -1.888184e+01
  -1.912033e+01  -6.286585e+01
   2.861879e+01  -5.652402e+01
   6.077300e+01  -4.246239e+00
   4.777662e+01   4.107077e+01
   4.317981e+01   3.440259e+01
   4.344718e+01   4.021018e-01
   5.293183e+01  -5.863733e+00
   4.968142e+01   6.522333e+01
  -2.415756e+00   1.079373e+02
  -8.804962e+01   1.197054e+02
  -1.590216e+02   2.926604e+01
  -1.204269e+02  -7.245864e+01
   1.544594e+01  -1.294665e+02
   7.041155e+01  -5.255755e+01
   5.285052e+01   8.504159e+00
  -5.051934e+01   2.018974e+01
  -1.235998e+02  -4.800418e+01
  -4.931049e+01  -8.082058e+01
   5.203273e+01  -1.127530e+02
   1.639219e+02  -5.145776e+01
   1.245074e+02   4.454207e+01
   2.585416e+01   7.946075e+01
  -4.199133e+01   6.031356e+01
  -3.899885e+01   1.407043e+00
   2.897962e+01  -3.059906e+01
   7.670193e+01   1.977605e+01
   3.029797e+01   1.049827e+02
  -6.698660e+01   1.351373e+02
  -1.240141e+02   6.889891e+01
  -9.930732e+01  -7.757080e+01
  -2.952388e+01  -1.659517e+02
   5.157519e+01  -1.463357e+02
   9.753079e+01   6.730245e+00
   5.061255e+01   9.727924e+01
   3.425772e-01   9.541126e+01
  -4.338804e+01   1.433016e+01
  -4.288718e+01  -2.106455e+01
  -1.389564e+01  -5.523975e+00
  -1.228822e+00   1.270506e+01
  -2.535658e+01  -1.647583e+01
  -4.384354e+01  -6.640625e+01
  -3.173979e+01  -1.057807e+02
   5.098332e+01  -4.295830e+01
   1.317661e+02   3.065110e+01
   1.015520e+02   4.901120e+01
   1.793629e+01   4.947922e+01
  -6.291158e+01   3.715807e+01
  -6.339853e+01   8.807058e+00
  -1.535421e+01  -1.012410e+01
   2.724735e+01  -2.022468e+01
   1.404351e+01  -1.025703e+01
  -1.301587e+01   4.689398e+00
   2.609794e+00   4.377275e+00
   5.372975e+01  -6.887801e+00
   8.869550e+01   1.040228e+01
   2.947048e+01   7.788798e+01
  -6.790694e+01   1.018790e+02
  -1.490732e+02   5.743635e+01
  -1.380209e+02  -1.402209e+01
  -4.699775e+01  -1.527134e+02
   5.694340e+01  -1.433054e+02
   9.043316e+01  -4.132706e+01
   8.362958e+01   3.564482e+00
   2.299674e+01   3.035213e+01
   3.402495e+00   1.151574e+01
   1.188884e+01   7.278167e+00
   3.251452e+01   4.489567e+01
   5.293295e+00   7.155636e+01
  -2.616611e+01   6.434150e+01
  -6.272992e+01  -3.204025e+00
  -9.299195e+01  -9.898892e+01
  -2.871599e+01  -9.830739e+01
   5.756486e+01  -2.925706e+01
   9.298448e+01   4.726601e+01
   3.538651e+01   9.082680e+01
  -5.171734e+01   6.497812e+01
  -8.485054e+01   7.165752e+00
  -4.052688e+01  -5.897204e+01
   1.966931e+01  -5.434934e+01
   3.780514e+01  -2.071541e+01
  -1.726068e+01   4.840038e+00
  -5.742617e+01   1.210712e+01
  -1.805005e+01  -2.225552e+01
   6.417321e+01  -6.336603e+01
   1.120508e+02  -4.119088e+01
   5.211663e+01   1.344495e+01
   1.066302e-01   7.751397e+01
  -3.733201e+01   8.486295e+01
  -3.460647e+01   1.216522e+01
  -1.026677e+01  -4.299006e+01
   1.622033e+01  -4.464619e+01
   3.463324e+01   4.061901e+00
   3.137322e+01   4.861393e+01
  -2.277696e+00   3.450466e+01
  -2.922118e+01  -5.252697e+00
  -3.365987e+01  -1.642576e+01
  -1.465200e+01  -3.842894e+00
   3.754694e+00   1.808006e+01
   6.471601e+00   7.845516e+00
  -2.275322e+00  -2.579963e+01
   6.451979e-01  -4.023049e+01
   2.039365e+01  -2.274450e+01
   4.133326e+01   2.918191e+01
   8.543624e+00   5.756891e+01
  -3.357024e+01   1.904041e+01
  -6.596644e+01  -2.520234e+01
  -2.056890e+01  -4.956240e+01
   4.750472e+01  -3.384553e+01
   8.442854e+01   7.934571e+00
   4.861434e+01   3.224565e+01
  -2.059881e+01   3.246843e+01
  -5.533309e+01   2.112760e+01
  -2.330550e+01   6.940010e+00
   2.169656e+01  -2.348683e+00
   2.968899e+01   4.292885e+00
  -1.605647e+01   2.349147e+01
  -6.516115e+01   3.113421e+01
