
 $NMID
 id='ANONYMOUS ', fmtdat='(2E16.6)'
 volume=1.0
 tramp=1.0
 $END
   1.967565e+03   5.209493e+02
   1.124864e+03   1.276120e+03
   1.733159e+01   9.591765e+02
  -3.957024e+02   8.972938e+02
  -7.021271e+02   4.409625e+02
  -6.185351e+01   6.660807e+01
   1.517965e+02   1.061511e+02
   7.033477e+01   4.022965e+02
  -1.560666e+02   3.266451e+02
  -3.724381e+02  -1.540258e+01
  -2.333352e+02  -1.284336e+02
  -6.615721e+01  -3.455644e+02
   8.665863e+01  -9.262450e+01
   1.371543e+02   2.060733e+02
  -5.629857e+01   2.957514e+02
  -1.777088e+02   8.393284e+01
  -2.572958e+02  -2.426504e+02
  -1.537236e+01  -4.390280e+02
   2.872603e+02  -2.212446e+02
   3.090530e+02   4.900583e+01
   1.262580e+02   1.839737e+02
  -7.799997e+01   1.557224e+02
   2.310632e+01   9.293429e+01
   1.045676e+02   1.097838e+02
   1.113390e+02   2.568177e+02
  -5.459265e+01   2.419333e+02
  -2.434990e+02  -1.013124e+01
  -3.038841e+02  -2.076338e+02
  -1.369934e+02  -1.692398e+02
   1.767587e+02  -9.336003e+00
   3.210463e+02   6.630381e+01
   1.025241e+02   1.563693e+02
  -1.678684e+02   1.952831e+02
  -2.690999e+02   6.874569e+01
  -2.146788e+02  -1.044082e+02
  -1.117419e+02  -1.879816e+02
  -2.579652e+01  -8.117298e+01
  -1.005375e+02   2.719666e+01
  -1.407506e+02  -6.422677e+00
  -1.163014e+02  -1.459797e+02
   1.322676e+02  -3.046214e+02
   1.535518e+02  -1.619615e+02
   1.228736e+02  -2.070951e+01
   1.142170e+02   1.375632e+02
  -3.864988e+01   2.399895e+01
  -8.956226e+01  -1.394976e+02
   9.930622e+01  -2.393295e+02
   2.791919e+02  -2.464859e+01
   3.247746e+02   2.381613e+02
   9.054316e+01   2.993703e+02
  -2.177744e+02   2.087365e+02
  -2.854044e+02  -1.142071e+02
  -2.097330e+02  -1.622142e+02
   5.150496e+00  -8.289932e+01
   8.949619e+01  -7.405289e+01
   1.521853e+02  -1.624214e+01
   4.047059e+01  -2.806150e+01
  -1.823158e+00  -1.507139e+01
   8.105105e+00   4.457676e+01
   1.368806e+02   3.382311e+01
   6.963837e+01   6.235241e+01
  -8.693420e+01   1.746893e+02
  -1.969288e+02   7.274047e+01
  -1.780249e+02  -1.898530e+01
   5.565424e+01  -2.276390e+02
   2.311063e+02  -2.280404e+02
   2.580509e+02  -2.031799e+01
   1.115601e+02   1.375400e+02
   5.380601e+00   2.312912e+02
  -4.905157e-01   1.976693e+02
   3.107632e+01   9.857070e+01
   2.087769e+00   9.680089e+01
  -1.280748e+02   7.526072e+01
  -1.704463e+02   2.993769e+01
  -1.087923e+02  -9.818849e+01
  -3.980925e+01  -1.474334e+02
   5.074383e+01  -1.050045e+02
   1.122531e+02   6.391487e+01
   2.945082e+01   1.575571e+02
  -6.745408e+01   1.495326e+02
  -1.462216e+02   2.925313e+00
  -2.256349e+02  -1.579648e+02
  -7.418832e+01  -1.820687e+02
  -1.154406e+01  -1.497585e+02
   7.949343e+01  -9.499699e+01
   1.033307e+02  -5.273017e+01
   1.134388e+02  -6.739616e+01
   1.950169e+02  -3.794932e+01
   3.008799e+02   1.065011e+02
   1.644247e+02   2.045164e+02
  -1.057544e+02   2.578689e+02
  -2.243016e+02   2.325005e+02
  -3.235923e+02   6.286534e+01
  -1.577509e+02  -9.094798e+01
   3.004510e+01  -1.015180e+02
   6.078523e+01  -1.120901e+02
  -1.067093e+01  -2.078499e+01
  -1.013247e+02  -1.693743e+01
  -5.365173e+01  -4.580164e+01
   3.846089e+00  -7.401066e+01
   6.428692e+01  -5.191169e+01
   5.165307e+01   3.507969e+01
  -4.254594e+01   6.449258e+01
  -9.364562e+01  -3.616414e+01
  -9.893034e+01  -1.332099e+02
   3.192327e+01  -1.611513e+02
   1.506716e+02  -1.192210e+02
   2.547607e+02   3.568714e+01
   1.189519e+02   1.941452e+02
   3.472769e+01   1.931583e+02
  -8.907618e+01   9.923426e+01
  -9.587709e+01   6.585063e+00
  -1.591838e+01  -7.664690e+00
   3.092097e+01   5.065351e+01
  -3.798742e+01   8.100848e+01
  -8.383498e+01   1.016755e+01
  -7.404986e+01  -5.221146e+01
   1.671834e+00  -3.120165e+01
   5.486265e+01   3.538035e+01
   1.427751e+01   7.073560e+01
  -1.218415e+02   6.875245e+01
  -1.779908e+02  -3.517444e+01
  -1.420760e+02  -1.117572e+02
   1.611962e+01  -1.681017e+02
   1.383679e+02  -1.224271e+02
   1.696148e+02  -3.077137e+01
   6.549119e+01   5.016116e+01
  -3.307340e+01   2.428576e+01
  -3.729173e+01  -5.846071e+00
   2.858571e+01  -2.805101e+01
   1.168409e+02   1.188794e+01
   1.146778e+02   7.318494e+01
   1.130512e+00   1.087588e+02
  -4.855809e+01   7.788320e+01
  -9.601178e+01   9.669929e+00
  -2.381736e+01  -1.927173e+01
   3.622014e+01   2.557782e+01
   6.685183e+00   7.822091e+01
  -8.995323e+01   7.251231e+01
  -1.421516e+02   3.176187e+00
  -1.164962e+02  -9.694726e+01
   2.808103e+01  -1.416994e+02
   1.105555e+02  -7.160272e+01
   1.106478e+02  -1.482430e+00
   3.212281e+01   4.393270e+01
  -4.298472e+01   3.854633e+01
  -3.591167e+01   9.312508e+00
   9.414398e+00  -1.559803e+01
   3.022461e+01  -1.802896e-01
  -1.096499e+01   2.363776e+01
  -6.051073e+01  -3.237946e+00
  -6.175593e+01  -5.057593e+01
  -4.071972e+00  -1.338511e+02
   1.011564e+02  -9.818480e+01
   1.538490e+02  -8.387795e+00
   9.030256e+01   1.185957e+02
  -1.510892e+01   1.576068e+02
  -9.730737e+01   1.025133e+02
  -8.446407e+01   2.190499e+01
  -4.212943e+01  -2.415009e+01
  -2.579067e+01  -2.410006e+01
  -3.783171e+01   1.288602e+01
  -5.700174e+01   5.397964e+00
  -4.399080e+01  -3.354703e+01
   3.087828e+01  -7.207698e+01
   8.667132e+01  -3.172588e+01
   8.218222e+01   3.504376e+01
  -7.319921e+00   8.927810e+01
  -1.142276e+02   4.738683e+01
  -1.354360e+02  -5.691209e+01
  -2.391423e+00  -1.495845e+02
   1.013113e+02  -1.438944e+02
   1.926607e+02  -3.345330e+01
   1.179659e+02   8.170396e+01
   5.183896e+01   1.061521e+02
  -4.143873e+01   6.656407e+01
  -4.734220e+01   4.986686e+01
  -4.509292e+01   5.148423e+01
  -3.541576e+01   4.531984e+01
  -6.991296e+01   4.248371e+01
  -7.562973e+01  -2.151217e+01
  -5.365333e+01  -1.103120e+02
  -8.484646e+00  -1.367773e+02
   5.975998e+01  -9.367213e+01
   1.301683e+02   1.798723e+01
   8.265948e+01   8.020343e+01
  -1.561251e+01   1.217256e+02
  -6.556926e+01   4.671324e+01
  -4.588646e+01  -1.776638e+01
  -1.119575e-01  -4.048862e+01
   2.605975e+01  -2.776464e+01
  -1.030372e+01  -9.065816e+00
  -6.614026e+01  -1.724365e+01
  -2.813050e+01  -2.975010e+01
   4.512675e+01  -2.207592e+01
   1.101202e+02   2.425956e+01
   8.336491e+01   5.765408e+01
  -9.914351e+00   5.692516e+01
  -1.047368e+02   3.777433e+01
  -9.271733e+01  -2.371530e+00
  -3.393503e+01  -4.039748e+01
   4.455345e+01  -2.856492e+01
   5.974666e+01   1.687807e+01
   1.750247e+01   5.251641e+01
  -3.011421e+01   4.016387e+01
  -4.747080e+01   2.462226e+00
  -3.148833e+01  -4.029498e+01
  -3.820782e+01  -2.786701e+01
  -2.844944e+01   1.977643e+00
  -4.219998e+01   2.702636e+00
  -2.747498e+01  -4.716171e+01
   2.588916e+01  -1.035300e+02
   9.593646e+01  -9.691377e+01
   1.263008e+02  -8.727939e+00
   9.119057e+01   7.404052e+01
  -7.577735e+00   8.135157e+01
  -7.327160e+01   4.615945e+01
  -3.732949e+01  -7.654990e+00
   3.996725e+01  -7.902917e+00
   8.136766e+01   1.857432e+01
   3.568168e+01   8.081597e+01
  -6.935562e+01   5.540299e+01
  -1.233360e+02   1.631155e+01
  -8.862458e+01  -1.855022e+01
  -1.489070e+01  -5.340503e+01
   4.345405e+01  -3.449263e+01
   3.510770e+01   1.098603e+01
  -1.946772e+01   2.934480e+01
  -6.883230e+01  -9.163450e+00
  -1.881500e+01  -7.383355e+01
   5.168343e+01  -9.697701e+01
   1.095066e+02  -5.852312e+01
   7.211258e+01   6.754906e+01
  -2.066165e+01   1.070824e+02
  -6.133288e+01   8.027602e+01
  -6.337143e+01  -2.109260e+01
  -3.132852e+01  -8.977442e+01
   1.551144e+01  -5.981599e+01
   3.385046e+01  -5.711588e+00
   3.220714e+01   2.873873e+01
   6.724007e+00   5.176239e+00
   2.772570e+00  -1.161875e+01
   2.037087e+01   2.337694e+01
   3.214169e+01   6.392429e+01
  -2.110282e+00   6.402088e+01
  -4.156323e+01   1.925396e+01
  -7.630307e+01  -3.047281e+01
  -8.734952e+01  -3.855203e+01
  -1.619617e+01  -2.822624e+01
   5.577683e+01  -1.356745e+01
   4.537840e+01  -1.319629e+01
   1.635423e+01   8.496963e+00
  -1.827598e+01   8.313521e+00
  -1.722874e+01   6.019340e+00
   6.235379e+00  -2.909045e+00
  -2.533346e-02  -1.848276e+00
  -5.206296e+01  -7.751287e+00
  -5.638266e+01  -1.924315e+01
  -1.285187e+01  -5.050380e+01
   8.373671e+01  -7.940560e+01
   1.441170e+02  -4.469196e+01
   1.061889e+02   2.047404e+01
  -1.772703e+01   1.006196e+02
  -7.067227e+01   8.619985e+01
  -8.024488e+01   5.177880e+01
  -4.522917e+01  -1.489168e+01
  -1.189264e+01  -2.460835e+01
  -1.575836e+00  -1.007743e+01
  -1.129028e+01  -7.398339e+00
  -1.365155e+01  -3.146599e+01
   2.889888e+00  -7.305600e+01
   1.378600e+01  -4.177234e+01
   4.769177e+01   1.393848e+01
   3.740492e+01   7.419066e+01
   1.885291e+01   7.333628e+01
  -5.075919e+01   1.803881e+01
  -7.515969e+01  -3.865643e+01
  -2.667909e+01  -5.400289e+01
   4.182732e+01  -5.033506e+01
   6.983573e+01   1.539500e+01
   2.907601e+01   4.615245e+01
  -3.207448e+01   4.211682e+01
  -3.800734e+01   2.033502e+01
   1.661597e+01  -7.229282e+00
   4.685565e+01  -4.035058e-01
   1.451753e+01   1.828780e+01
  -5.372210e+01   3.837526e+01
  -7.655742e+01   2.969778e+01
  -5.209061e+01  -1.518424e+01
   2.043883e+01  -5.279102e+01
   4.400546e+01  -6.236037e+01
   2.875560e+01  -1.211907e+01
   6.829989e+00   3.188608e+01
  -1.958507e+01   3.377888e+01
  -2.490623e+01  -2.184446e+00
  -2.081109e+01  -3.658944e+01
   1.788109e+00  -2.647595e+01
   2.115800e+01   4.202629e+00
   3.336972e+01   1.809812e+01
   1.629867e+01   2.920873e+00
  -9.062573e-01  -1.470440e+01
  -3.011661e+00  -1.078516e+01
   6.923702e+00   1.942611e+01
   8.210056e+00   4.028598e+01
  -1.604811e+01   1.990185e+01
  -2.919862e+01  -2.258144e+01
  -1.332911e+01  -3.240996e+01
   2.533344e+01  -2.456382e+01
   4.045999e+01   1.811354e+01
   1.241254e+01   3.662379e+01
  -3.895968e+01   2.645212e+01
  -5.074720e+01  -1.955412e+01
  -3.199576e+01  -3.780876e+01
   1.938361e+01  -3.734687e+01
   3.631750e+01  -2.454058e+01
   2.182908e+01  -6.170507e+00
  -1.678792e+01   5.153341e+00
  -2.270614e+01   2.447562e+00
   1.104820e+01  -1.727684e+01
   4.168593e+01  -2.273031e+01
