
 $NMID
 id='ANONYMOUS ', fmtdat='(2E16.6)'
 volume=1.0
 tramp=1.0
 $END
   1.302864e+03  -4.275780e+01
   1.266491e+03   2.808765e+02
   3.697252e+02   8.952758e+02
  -5.188278e+02   6.166210e+02
  -3.819956e+02   1.459823e+02
  -1.593414e+02   1.766540e+02
   7.940096e+01  -1.829187e+02
   7.478577e+01   1.601252e+02
  -1.493499e+02   2.883358e+02
  -2.610310e+02   2.091866e+02
  -2.703894e+02  -2.333374e+02
  -8.171200e+01  -3.056507e+02
   6.005883e+01  -8.078596e+01
   1.688793e+02   1.328005e+02
  -6.019070e+01   2.178158e+02
  -1.200733e+02  -8.831115e+00
  -1.151532e+02  -2.365958e+02
   1.253729e+02  -4.605797e+02
   2.536004e+02  -2.307620e+02
   2.312415e+02   7.571960e+01
   4.167687e+01   1.265596e+02
  -9.772679e+00   1.150685e+02
  -1.767935e+01   8.359759e+01
   9.382571e+01   9.325661e+01
   1.671935e+02   1.608656e+02
  -8.556451e+01   1.775394e+02
  -2.343325e+02   3.560760e+01
  -2.264085e+02  -7.572048e+01
  -1.454659e+01  -2.278150e+02
   1.065593e+02  -9.842408e+01
   1.890604e+02   1.874655e+02
   7.884020e+01   1.624351e+02
  -1.528864e+02   8.428567e+01
  -1.639609e+02   8.046419e+00
  -1.071176e+02  -6.972508e+01
  -6.986825e+01  -1.226236e+02
  -2.972700e+01  -9.111166e+01
  -4.140768e+01   2.092464e+01
  -3.701222e+01   4.544556e+01
  -7.697888e+01  -1.842807e+02
   6.908076e+01  -2.635777e+02
   2.208434e+02  -1.134801e+02
   1.348726e+02  -1.212618e+02
  -1.561870e+01   9.552976e+01
  -5.826961e+01   4.839770e+01
  -1.032266e+02  -1.118965e+02
   1.077309e+02  -1.256700e+02
   1.834932e+02   3.271435e+01
   1.836253e+02   2.769770e+02
   8.447036e+01   2.025114e+02
  -1.631455e+02   1.071665e+02
  -2.774192e+02   2.913767e+01
  -1.799592e+02  -8.997328e+01
  -4.887761e+01  -9.093123e+01
   1.509254e+02  -6.507226e+01
   1.212545e+02  -1.426881e+01
   4.003673e+01  -1.482061e+01
   1.645811e+01  -3.695261e+00
   7.946311e+01   1.131082e+01
   1.160463e+02  -9.858792e+00
   3.440078e+01   8.980122e+01
  -8.698974e+01   1.576266e+02
  -1.864049e+02   1.216131e+02
  -1.493737e+02  -2.943645e+01
  -6.670585e+00  -1.813666e+02
   1.534846e+02  -2.102515e+02
   1.527834e+02  -4.916716e+01
   1.185401e+02   5.452595e+01
  -7.681580e-01   1.930387e+02
   2.293840e+01   1.913583e+02
   9.198607e+00   1.079644e+02
  -7.407302e+00   9.281183e+01
  -9.889943e+01   4.920388e+01
  -1.736186e+02   2.410751e+01
  -1.295938e+02  -6.630706e+01
  -1.883846e+01  -1.457682e+02
   6.333460e+01  -9.135384e+01
   8.739585e+01   4.090280e+01
   5.823699e+01   1.004495e+02
  -4.377676e+01   1.174856e+02
  -1.630093e+02  -1.889812e+01
  -9.804702e+01  -6.004883e+01
  -6.379538e+01  -1.384542e+02
   1.019276e+01  -1.290607e+02
   8.825174e+01  -1.176283e+02
   4.969051e+01  -5.446155e+01
   9.522296e+01  -3.838584e+01
   1.493843e+02  -8.007371e-01
   1.424057e+02   9.359164e+01
   1.997253e+02   1.637098e+02
  -1.720570e+01   1.679883e+02
  -1.493903e+02   1.249232e+02
  -2.330826e+02   9.888969e+01
  -1.209442e+02  -5.920378e+01
  -1.096544e+01  -9.951185e+01
   6.641223e+01  -8.694817e+01
  -8.843999e+00  -1.851628e+01
  -3.689985e+01   1.403032e+01
  -4.571812e+01  -5.442618e+00
   6.218194e+00  -7.381955e+01
   4.248821e+01  -7.866223e+01
   4.196862e+01   4.036350e+01
   2.959833e+00   3.561115e+01
  -9.501960e+01   1.732457e+01
  -8.569847e+01  -1.487555e+02
  -4.093568e+01  -1.719802e+02
   1.555126e+02  -9.775408e+01
   2.026742e+02   6.375882e+00
   1.747932e+02   1.220541e+02
   1.475665e+01   1.656858e+02
  -9.337752e+01   7.726863e+01
  -5.687731e+01  -9.206562e-01
  -1.282697e+01  -2.296051e+00
   1.517651e+01   3.407895e+01
  -9.557503e+00   5.720452e+01
  -5.447076e+01   2.513178e+01
  -6.786254e+01   5.855286e-01
  -6.183160e+00  -1.924944e+01
   3.832980e+01  -5.940507e+00
   1.578045e+01   6.095634e+01
  -7.201717e+01   4.111138e+01
  -1.510692e+02   2.536095e+01
  -9.181920e+01  -6.310486e+01
  -4.111646e+01  -1.403825e+02
   6.800410e+01  -1.171182e+02
   1.504765e+02  -4.110132e+01
   6.204420e+01   2.642835e+01
   4.382597e+00   3.876160e+01
  -2.574689e+01  -2.012072e+01
   3.967566e+01  -5.103676e+01
   7.847502e+01  -1.763795e+01
   5.309536e+01   7.009921e+01
   3.723257e-01   7.240978e+01
  -2.813998e+01   8.518283e+01
  -5.315171e+01   1.251937e+01
  -9.087862e+00  -3.324368e+01
   2.325455e+01   1.754071e+01
   8.441676e+00   5.476562e+01
  -4.730494e+01   6.056472e+01
  -1.153255e+02  -1.171498e+01
  -4.764800e+01  -6.750210e+01
   5.081863e+00  -1.164060e+02
   1.061077e+02  -1.020461e+02
   9.533796e+01  -1.381413e+01
   1.626883e+01   4.871685e+01
  -1.963333e+01   4.880139e+01
  -4.269792e+01   2.069957e+01
   6.753053e+00  -1.669469e+01
   2.647451e+01  -4.635727e+00
  -7.008711e+00   1.497144e+01
  -4.820563e+01   2.477729e+00
  -6.995854e+01  -4.794872e+01
  -2.610042e+00  -9.286555e+01
   1.139648e+02  -6.116834e+01
   1.521150e+02  -7.423060e+00
   9.404184e+01   6.439921e+01
   2.356056e+01   1.010395e+02
  -6.146178e+01   8.798445e+01
  -6.321977e+01  -3.229736e+00
  -4.376328e+01  -1.430610e+01
  -1.673168e+01  -1.098090e+01
  -4.095182e+01   9.920277e+00
  -5.163118e+01   5.719912e+00
  -3.559270e+01  -3.379454e+01
   1.953763e+01  -5.355922e+01
   5.314149e+01  -5.046892e+01
   6.476820e+01   2.663975e+01
  -8.752932e+00   6.654404e+01
  -8.176966e+01   5.482643e+01
  -1.182174e+02  -4.581418e+01
  -6.797046e+01  -6.801020e+01
   5.655876e+01  -1.116024e+02
   1.482921e+02  -4.051729e+01
   1.071190e+02   4.680961e+01
   2.919349e+01   1.146909e+02
  -1.406386e+01   7.639925e+01
  -5.460691e+01   5.459226e+01
  -3.841042e+01   3.867107e+01
  -1.981260e+01   4.811963e+01
  -4.386554e+01   3.008594e+01
  -6.827976e+01  -1.402124e+01
  -7.200096e+01  -8.267644e+01
   2.553847e+01  -1.507013e+02
   7.029238e+01  -9.850287e+01
   6.994213e+01   4.753007e-01
   7.448462e+01   8.747022e+01
   1.458634e+01   8.492162e+01
  -4.136925e+01   2.837301e+01
  -3.557045e+01  -3.978376e+00
   1.220200e+01  -3.577353e+01
   2.487807e+01  -1.534711e+01
  -1.013004e+01  -1.706056e+00
  -4.112367e+01  -8.033748e+00
  -3.395914e+01  -2.059618e+01
   3.556198e+01  -2.172117e+01
   8.302230e+01   2.493185e+00
   5.028850e+01   4.546346e+01
  -4.775038e+00   5.827841e+01
  -8.253817e+01   3.746799e+01
  -9.005862e+01  -3.062027e+00
  -2.148713e+01  -3.810570e+01
   3.115719e+01  -2.910213e+01
   4.312720e+01   1.643939e+01
   6.642676e+00   3.513420e+01
  -1.706174e+01   3.177839e+01
  -3.366065e+01  -2.358181e-01
  -4.185340e+01  -2.428265e+01
  -2.788695e+01  -2.071919e+01
  -3.315995e+01  -5.008038e+00
  -3.303906e+01   5.191747e+00
  -3.046074e+01  -1.986620e+01
   7.966153e+00  -9.453645e+01
   7.702983e+01  -6.759657e+01
   1.002844e+02  -2.355539e+00
   5.148547e+01   6.121952e+01
   8.739505e+00   7.829490e+01
  -5.426103e+01   3.118399e+01
  -2.552694e+01  -4.107081e+00
   2.026218e+01  -1.346957e+01
   7.337340e+01   1.532849e+01
   2.862886e+01   6.646001e+01
  -3.044188e+01   4.668951e+01
  -8.480269e+01   1.537117e+01
  -9.121184e+01  -1.977406e+01
  -8.659886e+00  -3.600233e+01
   2.728452e+01  -2.375222e+01
   2.283084e+01   4.158747e+00
  -2.754927e+01   1.250363e+01
  -5.042574e+01  -1.339800e+01
  -1.815810e+01  -6.401294e+01
   4.210760e+01  -1.031816e+02
   7.711664e+01  -3.044447e+01
   7.846523e+01   3.428736e+01
   1.041830e+01   6.858390e+01
  -5.003435e+01   5.323953e+01
  -5.077192e+01  -6.376461e+00
  -3.742251e+01  -8.226009e+01
   4.308596e+00  -5.347965e+01
   2.192696e+01  -5.754973e+00
   2.750511e+01   2.035789e+01
   5.761877e+00   4.014251e+00
   6.446890e+00  -8.299856e+00
   1.339365e+01   7.752864e+00
   2.963683e+01   5.682909e+01
   1.769908e+01   3.705372e+01
  -2.699322e+01   2.141975e+01
  -6.599665e+01  -1.295517e+01
  -5.757572e+01  -4.699547e+01
  -1.559166e+01  -3.194504e+01
   2.573787e+01  -9.312943e+00
   5.262035e+01   1.146473e+00
   9.214851e+00   1.042890e+01
  -1.636959e+01   9.809608e+00
  -1.207764e+01   3.514215e+00
   4.962228e+00  -2.114728e+00
   3.284706e-02  -1.759608e+00
  -2.729145e+01   7.551460e+00
  -4.552062e+01  -5.744291e+00
  -1.152634e+01  -3.872382e+01
   5.477002e+01  -5.212706e+01
   1.172808e+02  -1.431859e+01
   8.564205e+01   2.408526e+01
   3.907565e+01   5.906320e+01
  -7.366329e+00   8.214311e+01
  -7.844829e+01   4.002210e+01
  -4.565669e+01  -7.002462e+00
  -1.215153e+01  -2.299281e+01
  -3.683763e+00  -7.495111e+00
  -7.175023e+00  -3.719569e+00
  -1.633703e+01  -1.737991e+01
  -1.102808e+01  -4.709602e+01
   1.149712e+01  -4.688342e+01
   3.206428e+01   6.055140e+00
   5.174210e+01   4.033970e+01
   1.054484e+01   6.892681e+01
  -2.352711e+01   5.166721e+00
  -4.398727e+01  -3.994078e+01
  -1.481491e+01  -5.845587e+01
   3.122589e+01  -3.562363e+01
   3.989370e+01  -1.976712e+01
   1.902323e+01   2.479595e+01
  -9.520191e+00   3.802977e+01
  -2.453188e+01   1.665827e+01
   1.183754e+01  -5.611745e+00
   2.879532e+01  -1.087460e+01
   5.763775e+00   1.629234e+01
  -3.873304e+01   4.275763e+01
  -6.853579e+01   2.254967e+01
  -3.787850e+01  -1.525583e+01
   1.621321e+00  -3.983936e+01
   3.285603e+01  -4.099396e+01
   3.034439e+01  -7.882351e+00
   9.172907e+00   3.066250e+01
  -8.031434e+00   2.582456e+01
  -2.296459e+01  -1.144822e+00
  -1.798130e+01  -2.298386e+01
  -2.872827e+00  -2.139075e+01
   1.906691e+01  -5.321306e-02
   1.685594e+01   1.633590e+01
   1.076015e+01   5.239005e+00
  -2.653432e+00  -1.071145e+01
  -2.342718e+00  -6.626122e+00
   1.049370e+01   1.923960e+01
  -1.936228e-01   3.719590e+01
  -1.209853e+01   1.913771e+01
  -2.331732e+01  -2.127901e+01
  -1.795948e+01  -3.543798e+01
   2.093563e+01  -1.804541e+01
   3.391215e+01   1.472559e+01
   1.271593e+01   3.228452e+01
  -3.074679e+01   1.376940e+01
  -5.467518e+01   3.505780e+00
  -2.880641e+01  -1.117591e+01
   2.586436e+01  -2.738895e+01
   4.564445e+01  -9.860317e+00
   1.899306e+01  -7.497063e+00
  -1.566791e+01   1.697741e+00
  -1.232362e+01  -5.714807e-01
   1.040373e+01  -1.056320e+01
   3.780307e+01  -3.192388e-01
