
 $NMID
 id='ANONYMOUS ', fmtdat='(2E16.6)'
 volume=1.0
 tramp=1.0
 $END
  -1.391348e+03   2.642724e+02
  -9.983976e+02  -7.901611e+01
  -3.789467e+02  -7.818681e+02
   2.934131e+02  -8.260277e+02
   6.270345e+02  -2.257234e+02
   2.319890e+02   1.014135e+02
   1.113617e+02   1.894487e+02
  -1.196915e+02  -1.019321e+02
   4.892755e+01  -1.960819e+02
   3.188942e+02  -1.963079e+02
   3.055358e+02   1.952568e+02
   5.232197e+01   2.798830e+02
  -1.734131e+02   1.115972e+02
  -1.510886e+02  -5.651922e+01
  -4.250553e+01  -2.618567e+02
   8.156534e+01  -5.475020e+01
   1.359488e+02   1.105057e+02
  -4.378781e+01   1.987466e+02
  -3.339209e+02   2.238079e+02
  -2.180034e+02  -3.499486e+01
  -8.097394e+01  -7.783647e+01
  -3.112092e+01  -9.677407e+01
   2.572888e+01  -5.978977e+01
  -6.721526e+01  -1.056130e+02
  -6.558220e+01  -6.267271e+01
   8.233197e+01  -6.514964e+01
   1.496586e+02  -9.588433e+00
   1.803824e+02   1.355760e+02
   2.683854e+01  -4.794202e+00
  -1.154174e+02   9.291973e+01
  -1.378209e+02  -8.915221e+01
  -3.854444e+01  -1.291887e+02
   7.371857e+01  -1.342707e+02
   1.416346e+02  -2.205624e+01
   6.498809e+01   9.340918e+01
   2.115649e+01   3.700719e+01
   5.737229e+01   8.562920e+01
   6.041157e+01  -9.657152e+00
   2.450353e+01  -1.675011e+01
   3.689471e+01   9.175553e+01
  -7.818117e+00   2.345788e+02
  -1.274184e+01   1.062056e+02
  -1.056502e+02   4.732213e-01
   5.389589e+00  -3.669264e+01
  -3.448411e+01  -2.704398e+01
   7.458409e+01   4.158410e+01
  -2.739289e+01   1.072766e+02
  -1.419497e+02   1.042680e+00
  -1.516034e+02  -1.623496e+02
  -1.430282e+02  -1.745656e+02
   4.006586e+01  -1.152020e+02
   1.840029e+02  -3.063439e+01
   1.139152e+02   4.545931e+01
   3.909134e+01   1.045598e+02
  -6.100780e+01   5.120998e+01
  -9.842718e+01   2.611806e+01
  -2.788265e+01  -3.439049e-01
  -1.404648e+01  -2.657102e+01
  -1.314407e+00   9.018184e+00
  -9.129772e+01  -5.214331e+00
  -7.553304e+01  -4.714369e+01
   6.334771e+01  -7.332330e+01
   1.434943e+02  -4.914733e+01
   1.522392e+02   6.527742e+01
   2.559356e+00   1.260935e+02
  -1.257231e+02   2.156749e+02
  -1.556582e+02   8.238704e+01
  -1.137530e+02  -6.854290e+01
   2.862337e+01  -9.482836e+01
  -5.435597e+00  -1.159875e+02
   1.572872e+01  -8.783583e+01
   2.705170e+01  -6.975279e+01
   7.688122e+01  -3.499078e+01
   1.386317e+02  -8.840849e+00
   7.015717e+01   4.970664e+00
   1.305117e+01   6.764551e+01
  -5.587390e+00   5.098362e+01
  -6.336314e+01  -3.311265e+01
  -7.462068e+01  -6.363705e+01
   8.772696e+00  -9.913589e+01
   7.586699e+01   5.344098e+00
   1.558808e+02   4.509778e+01
   7.855510e+01   5.855711e+01
  -1.516432e+01   1.233197e+02
  -5.613517e+01   8.137093e+01
  -6.614076e+01   4.868235e+01
  -6.032134e+01   2.703440e+01
  -1.319069e+02  -1.039365e+00
  -1.690908e+02  -1.085232e+01
  -1.320010e+02  -7.375969e+01
  -3.057285e+01  -2.211253e+02
   1.178263e+02  -1.247010e+02
   2.592798e+02  -7.684117e+01
   8.819630e+01   4.370399e+01
   6.195309e+01   8.512538e+01
   3.378551e+00   7.208670e+01
   3.069881e+01   2.497791e+01
   4.646140e+01  -2.304379e+01
   5.752625e+01   1.623812e+00
  -9.852556e+00   4.198020e+01
  -4.527726e+01   2.451873e+01
  -1.751977e+01   7.172087e-01
  -1.711609e+01  -5.350652e+01
   4.976936e+01  -9.818792e+00
   6.159513e+01   8.930548e+01
   2.178486e+01   1.322563e+02
  -9.216500e+01   8.571166e+01
  -1.719704e+02  -3.631039e+01
  -1.326562e+02  -8.140252e+01
   6.344657e-01  -1.159876e+02
   7.693040e+01  -3.961656e+01
   5.465502e+01  -1.926385e+01
   1.191935e+01  -1.119652e+01
  -1.179205e+01  -2.891590e+01
   9.502325e+00  -3.517219e+01
   2.925618e+01  -1.637230e+01
   7.292182e+01   7.769881e+00
   1.110284e+01   9.723247e+00
  -3.079506e+01  -2.832842e+00
  -3.969078e-01  -2.696803e+01
   7.050461e+01  -1.594318e+01
   1.360613e+02  -2.853935e+01
   1.040222e+02   5.248961e+01
   1.518983e+01   1.125388e+02
  -1.069150e+02   1.189494e+02
  -7.484272e+01   2.148230e+01
  -5.025867e+01  -3.193073e+01
   8.916260e+00  -2.263599e+01
   1.009416e+01   5.060048e+00
  -1.772653e+01   2.164362e+01
  -4.628008e+01   2.880959e+01
  -7.771870e+01  -5.313041e+01
  -2.993266e+01  -7.125558e+01
   5.026241e+01  -5.777829e+01
   5.490321e+01  -1.555553e+01
   1.701966e+00   9.870621e+00
  -2.221624e+01  -1.899215e+01
  -1.036970e+00  -5.848393e+01
   3.470138e+01  -3.258266e+01
   1.153230e+02  -2.095436e+01
   4.667064e+01   4.311736e+01
   4.430746e+00   6.483044e+01
  -5.100864e+01   2.045718e+01
  -6.259864e+01  -8.299448e-01
  -3.212343e+01  -3.585484e+01
   1.776092e+01  -3.165431e+01
   2.155321e+01  -1.525454e+01
  -3.108221e+00   9.919132e+00
  -2.194857e+01   1.058762e+00
   1.511012e+00  -1.620396e+01
   5.122443e+01  -3.549321e+00
   6.611225e+01   4.356035e+01
   1.884711e+00   8.013057e+01
  -8.638216e+01   4.911750e+01
  -1.128524e+02   1.390713e+00
  -6.467148e+01  -5.121029e+01
  -2.183701e+01  -5.419451e+01
   4.756967e+01  -7.379351e+01
   3.682179e+01  -6.102349e+00
   3.464225e+01   1.791195e+01
   1.782991e+01   1.160030e+01
   2.262258e+01  -3.755110e+00
   3.568097e+01   5.869164e+00
   2.295306e+01   2.878478e+01
  -2.549649e+01   7.173915e+01
  -5.522231e+01   3.767390e+01
  -4.405880e+01  -2.398833e+01
   2.374336e-01  -7.917046e+01
   5.522987e+01  -4.158908e+01
   1.043278e+02   3.871754e+01
   5.749941e+01   1.123142e+02
  -4.682841e+01   9.451985e+01
  -1.197931e+02   4.720604e+01
  -1.045922e+02   6.525948e-01
  -1.053117e+01  -5.157216e+01
   1.729472e+00  -7.044859e+01
   3.961366e+01  -3.214905e+01
   1.877719e+01  -2.799159e+01
   7.260178e+00  -3.130226e+01
   2.866707e+01  -4.279225e+01
   6.861444e+01   1.599006e+00
   4.138760e+01   4.750747e+01
  -3.888391e+00   9.190074e+01
  -5.645828e+01   8.223419e+01
  -8.420261e+01   9.076056e+00
  -4.453450e+01  -5.858115e+01
  -5.385995e+00  -8.550861e+01
   2.688400e+01  -2.591616e+01
   3.125912e+01   1.379533e+01
  -9.407413e+00   2.586806e+01
  -1.715507e+01   9.740603e+00
   1.162764e+01  -2.700856e+00
   3.788710e+01   1.191798e+01
   2.867036e+01   1.063194e+01
  -2.952665e+01   1.489327e+01
  -6.443840e+01   6.587089e+00
  -6.169471e+01  -2.624272e+01
   4.056748e+00  -4.052310e+01
   6.362076e+01  -1.896070e+01
   4.487669e+01  -3.480551e+00
   1.292348e+01   2.834511e+01
  -2.137563e+01   2.089727e+01
  -3.757149e+01  -6.686708e+00
  -8.936334e+00  -4.075568e+01
   1.443748e+01  -3.434390e+01
   3.417381e+01  -7.510393e+00
   3.085037e+01   1.731579e+01
   2.272073e+01   2.246609e+01
   2.263968e+01   3.655837e+00
   2.958294e+01  -1.645389e+00
   3.347592e+01   3.016820e+01
  -2.036194e+01   8.885425e+01
  -7.639425e+01   4.312996e+01
  -8.951169e+01   1.763149e+01
  -6.070389e+01  -5.186025e+01
  -4.680197e+00  -5.278774e+01
   3.711813e+01  -3.998911e+01
   3.593513e+01   3.573924e+00
  -2.391008e+01   7.266993e+00
  -6.036050e+01  -1.894940e+01
  -2.378034e+01  -5.287164e+01
   1.964387e+01  -5.460180e+01
   8.428301e+01  -2.489599e+01
   9.443472e+01   3.247575e+01
   9.247628e+00   2.998037e+01
  -2.940491e+01   3.695050e+01
  -1.791118e+01  -5.979949e+00
   2.215889e+01  -6.840831e+00
   3.980927e+01   7.946764e+00
   1.715520e+01   5.089277e+01
  -4.403357e+01   6.063884e+01
  -6.925681e+01   1.665048e+01
  -5.802656e+01  -4.112287e+01
  -2.956431e+01  -6.321884e+01
   2.792098e+01  -4.441654e+01
   3.743806e+01   5.215731e+00
   9.336876e+00   5.598909e+01
  -1.706367e+00   2.858274e+01
  -2.564954e+01   5.373099e+00
  -8.831804e+00  -1.125084e+01
  -1.207343e-01   1.650601e+00
  -2.822914e+00   4.059095e+00
  -1.858310e+01  -7.794581e+00
  -2.005632e+01  -4.138908e+01
  -1.895925e+01  -3.726089e+01
   1.459942e+01  -2.259931e+01
   6.514206e+01   2.057226e+00
   4.212169e+01   3.605145e+01
   8.697409e+00   2.608879e+01
  -2.436956e+01   1.824100e+01
  -3.385518e+01   7.280430e-01
  -9.556769e+00  -9.906642e+00
   1.591545e+01  -8.624411e+00
   8.973538e+00  -1.886949e+00
  -2.791383e+00   4.807069e+00
   1.701849e+00   1.322913e+00
   2.532536e+01  -1.116140e+01
   4.311324e+01  -1.369048e+01
   1.657837e+01   3.847743e+01
  -3.276455e+01   5.672593e+01
  -1.111072e+02   7.960485e+00
  -6.680931e+01  -2.054679e+01
  -2.990573e+01  -6.312447e+01
   8.932603e-01  -5.182327e+01
   5.897216e+01  -2.684898e+01
   2.332993e+01   2.990049e+00
   1.233556e+01   1.222125e+01
   3.483532e+00   9.652231e+00
   8.574378e+00   5.803963e+00
   1.466097e+01   2.183531e+01
   3.198822e+00   3.676555e+01
  -1.730661e+01   3.523377e+01
  -3.440055e+01  -5.185753e+00
  -3.707945e+01  -1.912965e+01
   6.386600e+00  -5.567446e+01
   2.962912e+01  -2.029755e+01
   5.510182e+01   2.527593e+01
   1.427462e+01   3.703661e+01
  -2.125800e+01   2.665076e+01
  -4.681754e+01   5.741142e+00
  -2.390982e+01  -2.540214e+01
   7.693659e+00  -3.391342e+01
   1.008331e+01  -1.157923e+01
  -8.747985e+00   1.601321e+00
  -3.019516e+01   1.157351e+01
  -5.230329e+00  -1.172385e+01
   2.634456e+01  -3.016492e+01
   4.168354e+01  -1.684156e+01
   3.779573e+01   1.175513e+01
   2.183948e+00   4.058496e+01
  -1.853120e+01   3.779130e+01
  -2.243710e+01   5.405546e+00
  -1.972945e+00  -1.875441e+01
   3.981718e+00  -2.242289e+01
   1.299966e+01   8.524147e-01
   6.868022e+00   1.476761e+01
   3.839564e+00   2.339368e+01
  -1.459312e+01   3.870125e+00
  -1.673896e+01  -1.250429e+01
  -7.220306e+00  -4.793171e+00
   3.729463e+00   1.029540e+01
   1.334329e+00   5.245158e+00
  -1.996962e+00  -1.619508e+01
  -6.848040e+00  -3.203236e+01
   1.159010e+01  -1.484514e+01
   1.605297e+01   5.697949e+00
   1.767120e+01   2.464228e+01
  -1.804787e+01   1.178419e+01
  -3.221022e+01  -7.142162e+00
  -1.287967e+01  -2.227533e+01
   2.242970e+01  -1.106889e+01
   4.615798e+01  -6.159641e+00
   2.838523e+01   1.565548e+01
  -1.741759e+01   1.998972e+01
  -3.265259e+01   1.962197e+01
  -1.755647e+01   4.846236e+00
   1.251643e+01  -5.115652e+00
   1.586176e+01  -3.964433e+00
  -6.214609e+00   9.073991e+00
  -3.178410e+01   6.620556e+00
