
 $NMID
 id='ANONYMOUS ', fmtdat='(2E16.6)'
 volume=1.0
 tramp=1.0
 $END
   3.459179e+03   2.598051e+02
   2.158711e+03   1.947801e+03
  -3.039530e+02   2.304395e+03
  -1.600624e+03   9.016314e+02
  -9.518866e+02  -4.282808e+02
   3.849162e+02  -4.314426e+02
   6.765848e+02   2.261236e+02
  -1.449304e+02   8.460956e+02
  -6.185357e+02   6.839510e+02
  -8.265447e+02   3.273947e+01
  -3.883434e+02  -6.019190e+02
   2.067287e+02  -8.862280e+02
   5.692919e+02  -2.058188e+02
   4.143586e+02   4.531517e+02
  -1.956977e+02   6.548548e+02
  -5.360068e+02  -1.976893e+01
  -2.594950e+02  -6.035420e+02
   3.035879e+02  -5.888529e+02
   4.686400e+02  -1.744106e+02
   4.252152e+02   2.835980e+02
   9.950860e+01   3.978440e+02
  -1.634099e+02   2.340894e+02
  -1.380573e+02   4.625235e+01
   1.235479e+02  -5.790609e+01
   3.293491e+02   6.890778e+01
   9.465778e+01   3.513428e+02
  -4.348531e+02   2.870497e+02
  -6.570313e+02  -1.287220e+02
  -3.511959e+02  -4.338037e+02
   3.275011e+02  -3.954232e+02
   6.232560e+02   8.128993e+01
   2.579048e+02   4.498261e+02
  -2.512570e+02   4.580466e+02
  -6.007105e+02   1.271733e+02
  -3.284310e+02  -2.296666e+02
  -8.533823e+01  -3.731825e+02
   1.357137e+02  -1.932087e+02
   8.137825e+01   1.602868e+02
  -1.011407e+02   3.311423e+02
  -2.895578e+02  -1.105018e+02
  -2.094537e+02  -5.418771e+02
   2.162169e+02  -5.303216e+02
   4.857713e+02  -3.934027e+01
   2.152470e+02   4.327714e+02
  -2.127923e+02   1.909367e+02
  -3.251987e+02  -3.126365e+02
   7.914062e+01  -4.611836e+02
   5.208436e+02  -8.894908e+01
   4.484410e+02   3.809623e+02
   1.345191e+02   5.315743e+02
  -3.185718e+02   2.942490e+02
  -5.555826e+02  -1.094791e+01
  -3.522547e+02  -3.117469e+02
   1.011132e+02  -2.856570e+02
   3.493682e+02  -5.589055e+01
   2.184972e+02   1.336736e+02
  -1.123751e+02   7.822364e+01
  -1.070309e+02  -1.126374e+02
   1.631884e+02  -1.562820e+02
   2.909810e+02   5.988425e+01
   1.743816e+02   2.198917e+02
  -1.512294e+02   2.144898e+02
  -2.653289e+02   4.956661e+01
  -2.060145e+02  -1.205964e+02
   1.953071e+01  -2.462596e+02
   2.110213e+02  -3.703690e+02
   2.874474e+02  -2.276587e+02
   2.528620e+02   1.538952e+02
   7.792320e+01   3.612317e+02
  -1.029741e+02   3.122396e+02
  -8.884555e+01   1.298788e+02
  -2.562415e+01   1.169734e+01
  -6.536101e+01   1.012380e+02
  -2.239956e+02   1.064855e+02
  -2.413872e+02  -3.908466e+01
  -1.324545e+02  -2.172266e+02
   4.950857e+01  -2.222552e+02
   1.788041e+02  -8.607482e+00
   1.739924e+02   2.100250e+02
   1.126129e+01   2.985017e+02
  -2.271439e+02   1.092384e+02
  -3.028550e+02  -1.420939e+02
  -1.912307e+02  -3.133585e+02
   1.046836e+02  -2.676672e+02
   1.856829e+02  -1.199639e+02
   1.515158e+02  -5.518903e+01
   1.086848e+02  -4.954982e+01
   2.970949e+02  -6.229001e+01
   3.597185e+02   5.553218e+01
   3.064256e+02   2.036038e+02
   9.601456e+00   3.804266e+02
  -2.504075e+02   4.390567e+02
  -4.274691e+02   2.412195e+02
  -3.122503e+02  -3.435665e+01
  -8.477714e+01  -2.443648e+02
   1.126584e+02  -2.097482e+02
   5.859351e+01  -3.476453e+01
  -9.545534e+01   1.071889e+02
  -1.760759e+02  -1.788609e+00
  -3.115606e+01  -1.632093e+02
   1.207507e+02  -1.336776e+02
   1.492056e+02   3.748428e+01
   5.260552e-01   1.489367e+02
  -1.838738e+02   2.219089e+01
  -1.475521e+02  -2.320493e+02
  -1.302106e+00  -2.806669e+02
   1.915399e+02  -1.680061e+02
   2.994015e+02   5.987995e+01
   2.414003e+02   1.890207e+02
   6.519268e+01   2.485943e+02
  -1.045514e+02   1.240250e+02
  -1.629232e+02   2.538828e+01
  -4.170763e+01  -1.690263e+01
   5.159502e+01   4.751428e+01
   2.229515e+01   1.149828e+02
  -1.144249e+02   9.458621e+01
  -1.533906e+02  -8.839555e+00
  -4.047689e+01  -6.063182e+01
   7.891854e+01  -2.338778e+01
   3.976763e+01   6.912317e+01
  -1.232692e+02   7.944335e+01
  -2.583236e+02   1.859226e+01
  -2.378914e+02  -1.251981e+02
  -4.541001e+01  -2.447224e+02
   1.551859e+02  -2.410916e+02
   2.451645e+02  -1.146719e+02
   1.302858e+02   4.131703e+01
  -1.211417e+01   1.014783e+02
  -7.459353e+01  -6.241817e+00
   3.813083e+01  -8.685883e+01
   1.595645e+02  -6.772622e+01
   2.154989e+02   7.472812e+01
   6.128431e+01   1.757124e+02
  -9.407847e+01   1.440857e+02
  -1.493915e+02   3.991008e+01
  -6.059074e+01  -4.011552e+01
   2.706801e+01   4.388796e+00
   3.174607e+01   7.923949e+01
  -6.207732e+01   8.734600e+01
  -2.115561e+02   3.331443e+01
  -1.774961e+02  -9.707359e+01
  -1.780107e+01  -1.970238e+02
   1.379031e+02  -1.330395e+02
   1.794369e+02   8.699243e+00
   6.529716e+01   9.379473e+01
  -3.952285e+01   1.043224e+02
  -6.601468e+01   2.623465e+01
  -1.449020e+01  -2.832469e+01
   2.991251e+01  -1.966628e+01
  -3.954619e+00   1.163581e+01
  -7.750857e+01  -1.517672e-01
  -9.340659e+01  -4.943106e+01
  -2.445310e+01  -1.605694e+02
   1.345966e+02  -1.126895e+02
   2.477941e+02  -5.188253e+01
   2.056376e+02   1.073928e+02
   7.195941e+01   2.131339e+02
  -1.160692e+02   1.579459e+02
  -1.099027e+02   1.871288e+01
  -7.084380e+01  -4.310225e+01
  -2.932668e+01  -3.164485e+01
  -4.645073e+01   1.031945e+01
  -7.667503e+01  -6.694709e+00
  -4.467259e+01  -4.387191e+01
   4.726581e+01  -8.544432e+01
   7.623388e+01  -6.948502e+01
   7.730009e+01   3.413461e+01
  -1.372806e+01   1.120705e+02
  -1.133495e+02   1.092785e+02
  -2.033738e+02  -5.418306e+01
  -1.051021e+02  -1.729461e+02
   7.709547e+01  -2.330977e+02
   2.251357e+02  -8.598856e+01
   2.431951e+02   4.145770e+01
   9.392098e+01   1.782255e+02
  -2.370246e+01   1.192371e+02
  -7.979376e+01   7.155410e+01
  -7.281750e+01   6.635406e+01
  -5.198685e+01   8.283140e+01
  -8.572659e+01   7.999628e+01
  -1.267478e+02  -1.666051e+01
  -9.095161e+01  -1.248250e+02
   5.433659e-01  -2.045088e+02
   1.034281e+02  -1.469752e+02
   1.531725e+02  -2.631021e+00
   1.073430e+02   1.168330e+02
   6.239393e+00   1.722250e+02
  -6.389332e+01   8.829363e+01
  -5.860053e+01  -8.014997e-02
   2.577965e+00  -4.604945e+01
   1.343756e+01  -2.948853e+01
  -2.772293e+01  -1.450242e+01
  -8.284747e+01  -2.012113e+01
  -3.838238e+01  -2.299482e+01
   6.204004e+01  -3.803731e+01
   1.513645e+02  -2.536519e+01
   1.461368e+02   2.939640e+01
   1.842925e+01   7.811907e+01
  -1.027590e+02   4.988303e+01
  -1.256618e+02   1.697001e+01
  -3.699637e+01  -4.713427e+01
   4.888862e+01  -2.257855e+01
   7.750699e+01   2.077126e+01
   9.017135e+00   7.136474e+01
  -5.318090e+01   5.395176e+01
  -5.951770e+01   5.443212e+00
  -4.592323e+01  -3.954992e+01
  -3.986323e+01  -4.006339e+01
  -4.603079e+01  -6.697490e+00
  -6.698824e+01   2.363110e-02
  -3.713729e+01  -6.283270e+01
   2.999667e+01  -1.300582e+02
   1.094015e+02  -1.262611e+02
   1.556400e+02  -3.904383e+01
   1.105820e+02   1.029685e+02
   2.457339e+01   1.231443e+02
  -7.894104e+01   6.726214e+01
  -6.363461e+01  -1.251762e+01
   5.441858e+01  -1.675946e+01
   1.343086e+02   2.562640e+01
   6.107433e+01   8.900346e+01
  -6.554173e+01   1.016701e+02
  -1.789406e+02   6.134698e+01
  -1.667544e+02  -2.355517e+01
  -4.519124e+01  -7.985559e+01
   6.147730e+01  -7.023075e+01
   4.594016e+01  -3.981575e+00
  -3.894842e+01   2.650562e+01
  -8.888783e+01  -1.781711e+01
  -3.197249e+01  -1.080716e+02
   6.253322e+01  -1.407617e+02
   1.403985e+02  -6.872070e+01
   1.111721e+02   8.535847e+01
   3.545212e+01   1.746364e+02
  -7.332219e+01   1.118868e+02
  -8.212721e+01  -9.280956e+00
  -3.483610e+01  -9.887726e+01
   1.063128e+01  -8.675540e+01
   4.406082e+01  -2.014288e+01
   4.307015e+01   3.060799e+01
   1.926081e+01   9.661529e+00
   5.945463e+00  -1.744437e+01
   2.132480e+01   9.003805e+00
   4.609165e+01   8.916265e+01
   5.226268e+01   9.030249e+01
  -3.740056e+01   3.924446e+01
  -1.286071e+02  -2.310741e+01
  -9.861680e+01  -6.861342e+01
  -1.560899e+01  -4.504817e+01
   8.429191e+01  -2.054491e+01
   7.664351e+01  -1.356643e+01
   9.133473e+00   9.813047e+00
  -3.497213e+01   1.977451e+01
  -1.594673e+01   1.390238e+01
   1.598575e+01  -1.009880e+00
  -5.275353e+00  -7.863620e+00
  -5.813408e+01   5.483994e+00
  -8.672171e+01  -5.146947e+00
  -2.314550e+01  -7.048763e+01
   1.129058e+02  -9.631688e+01
   1.851872e+02  -4.417025e+01
   1.368894e+02   6.180019e+01
   4.758434e+01   1.472182e+02
  -3.513776e+01   1.474123e+02
  -1.057823e+02   5.104158e+01
  -5.977493e+01  -2.510898e+01
  -2.456774e+01  -2.958868e+01
  -1.411850e+00  -1.091763e+01
  -1.283961e+01  -5.064495e+00
  -3.248592e+01  -3.930618e+01
  -2.374154e+01  -8.737607e+01
   2.307561e+01  -5.958125e+01
   7.435814e+01   2.074892e+01
   7.703436e+01   7.706586e+01
  -6.032615e+00   9.950061e+01
  -8.189616e+01   2.805495e+01
  -8.917362e+01  -5.678656e+01
  -3.142974e+01  -9.785757e+01
   5.088024e+01  -6.027941e+01
   1.032615e+02   9.895473e+00
   4.474628e+01   4.122695e+01
  -1.859738e+01   5.862365e+01
  -2.747151e+01   3.000522e+01
   2.870057e+01  -2.188956e+00
   6.376638e+01  -1.926888e+01
   1.343624e+01   2.445531e+01
  -6.398277e+01   5.481710e+01
  -1.020030e+02   5.786028e+01
  -6.807202e+01  -1.639995e+01
   5.613888e+00  -8.288639e+01
   4.978740e+01  -6.699125e+01
   2.787929e+01  -7.448100e+00
   5.511505e+00   4.927211e+01
  -1.915923e+01   3.802945e+01
  -3.123008e+01  -1.308909e+01
  -2.559932e+01  -5.078604e+01
  -3.129110e+00  -3.105107e+01
   3.016792e+01   3.512960e+00
   4.009770e+01   2.498607e+01
   2.133880e+01   3.700472e+00
  -2.192347e+00  -1.643118e+01
  -5.812466e+00   1.904111e+00
   2.423332e-01   3.661332e+01
  -1.228402e+01   4.525985e+01
  -3.062261e+01   1.222345e+01
  -2.732360e+01  -3.698666e+01
  -2.328806e+00  -5.527892e+01
   4.491664e+01  -2.311320e+01
   4.891950e+01   2.480059e+01
   1.444321e+01   5.520816e+01
  -5.304274e+01   2.921047e+01
  -7.879109e+01  -4.940607e+00
  -4.643733e+01  -4.360501e+01
   2.823229e+01  -3.986035e+01
   5.732553e+01  -1.935699e+01
   2.137479e+01  -4.383816e+00
  -3.374920e+01   2.437078e+00
  -4.170800e+01  -8.256087e+00
   2.656134e+01  -2.215403e+01
   8.119741e+01  -1.199879e+01
