
 $NMID
 id='ANONYMOUS ', fmtdat='(2E16.6)'
 volume=1.0
 tramp=1.0
 $END
  -2.347421e+03   7.196918e+01
  -1.370971e+03  -7.026171e+02
  -3.914288e+02  -1.342028e+03
   8.622793e+02  -7.644461e+02
   5.520272e+02  -1.278128e+02
   5.595503e+01  -4.151317e+01
  -2.268736e+02   5.364467e+01
  -4.033577e+01  -2.818921e+02
   3.443390e+02  -3.240342e+02
   3.185647e+02  -1.344623e+02
   2.503511e+02   2.888792e+02
   1.668519e+01   4.680846e+02
  -1.011646e+02   1.027887e+02
  -1.335601e+02  -3.053779e+02
   1.185450e+02  -3.072173e+02
   1.952624e+02   6.013366e+01
   1.071949e+02   3.138685e+02
  -1.016782e+02   5.185522e+02
  -3.448579e+02   1.990312e+02
  -2.295715e+02  -1.295298e+02
  -3.531402e+01  -2.022684e+02
   7.700201e+01  -1.971478e+02
   1.971956e+01  -6.148488e+01
  -1.516020e+02  -1.274872e+02
  -2.000750e+02  -2.140231e+02
   9.691542e+01  -3.270795e+02
   3.660071e+02  -6.839583e+00
   2.671569e+02   1.923285e+02
   5.209213e+01   2.660635e+02
  -1.850097e+02   9.382114e+01
  -3.384586e+02  -2.432478e+02
  -8.271039e+01  -3.053490e+02
   2.035656e+02  -1.894078e+02
   2.487472e+02  -3.735930e+01
   1.836708e+02   1.338693e+02
   3.749308e+01   1.936870e+02
   6.319189e+00   8.472038e+01
   4.044319e+01  -3.907633e+01
   9.204712e+01  -1.467106e+01
   1.187384e+02   2.281725e+02
  -1.286432e+02   2.585344e+02
  -2.907076e+02   1.733141e+02
  -2.755934e+02  -8.116937e+00
   2.428867e+01  -2.146807e+02
   1.190658e+02  -7.258426e+01
   1.181298e+02   2.006404e+02
  -1.579304e+02   1.787898e+02
  -3.425010e+02  -3.240970e+01
  -2.252039e+02  -3.027281e+02
  -9.078157e+01  -3.178735e+02
   2.241669e+02  -1.600876e+02
   2.674349e+02   3.583639e+01
   2.569226e+02   1.597989e+02
  -5.729401e+00   1.122536e+02
  -1.458224e+02   4.263460e+01
  -1.391836e+02   2.092097e+01
  -3.982508e+01   4.010329e+01
   9.273945e+00   3.007753e+01
  -6.882644e+01  -1.875582e+01
  -1.283738e+02  -1.567337e+01
  -1.696286e+01  -1.017964e+02
   1.415273e+02  -1.366846e+02
   2.636590e+02  -1.432912e+02
   1.968708e+02   8.905185e+01
  -2.630931e+01   2.603203e+02
  -1.953528e+02   2.916393e+02
  -2.224951e+02   9.290738e+01
  -1.591185e+02  -9.433512e+01
   3.429561e+01  -2.583681e+02
   2.563162e+01  -2.046568e+02
   5.877765e+00  -1.325634e+02
   2.368749e+01  -1.111216e+02
   1.243690e+02  -7.146137e+01
   2.128436e+02  -4.886756e-01
   1.694902e+02   1.265928e+02
   2.823997e+01   1.830233e+02
  -8.895860e+01   1.143894e+02
  -1.129126e+02  -4.980764e+01
  -7.462163e+01  -1.645058e+02
   6.496485e+01  -1.716587e+02
   2.033393e+02   1.412428e+01
   2.362011e+02   1.413551e+02
   9.091269e+01   1.599408e+02
  -3.408762e+00   1.857289e+02
  -1.235976e+02   1.248696e+02
  -7.089014e+01   8.229759e+01
  -1.224017e+02   5.182334e+01
  -1.918221e+02  -3.553453e+01
  -2.350933e+02  -1.077957e+02
  -2.084515e+02  -2.448358e+02
   4.945318e+01  -2.682802e+02
   2.616439e+02  -2.514622e+02
   3.265536e+02  -8.631797e+01
   1.443511e+02   9.728426e+01
  -2.008020e+01   1.497930e+02
  -9.931496e+01   1.039410e+02
   6.888098e+00   2.199271e+01
   7.258336e+01  -3.091940e+01
   8.154444e+01   2.352649e+01
  -2.066189e+01   1.164092e+02
  -7.377833e+01   7.023827e+01
  -7.151456e+01  -4.835095e+01
   3.337916e+01  -6.366364e+01
   1.149807e+02  -2.057657e+00
   9.002799e+01   1.718138e+02
  -6.822056e+00   2.762901e+02
  -2.070792e+02   1.833405e+02
  -2.682893e+02  -6.739547e+01
  -1.830159e+02  -1.911865e+02
  -2.626311e+01  -1.970019e+02
   1.136105e+02  -9.888866e+01
   1.166915e+02   2.926589e+00
   1.612620e+01   1.577736e+01
  -3.745498e+01  -5.295473e+01
   1.000623e+01  -8.514189e+01
   9.193360e+01  -3.286125e+01
   9.172365e+01   2.211752e+01
   6.808629e+00   3.076195e+01
  -5.820572e+01   9.752034e-01
  -2.171776e+01  -8.284022e+01
   1.167624e+02  -5.188803e+01
   2.105345e+02  -5.559333e+00
   1.347994e+02   1.239549e+02
   4.113152e+01   1.655042e+02
  -1.265877e+02   1.397809e+02
  -2.067119e+02   4.902759e+01
  -8.280216e+01  -3.276453e+01
   2.044899e+01  -4.022465e+01
   3.707750e+01   2.095456e+01
  -5.159950e+01   5.573086e+01
  -1.325744e+02   1.214748e+01
  -7.914338e+01  -5.406980e+01
   3.615359e+00  -1.238729e+02
   5.561202e+01  -8.293349e+01
   8.392512e+01  -7.230570e+00
   1.329300e+01   3.663995e+01
  -3.391929e+01  -1.384544e+01
  -1.842177e+01  -8.148180e+01
   7.879799e+01  -8.430806e+01
   1.434829e+02   1.535802e+01
   1.116291e+02   9.916138e+01
   4.536890e+00   1.422591e+02
  -1.371871e+02   1.013797e+02
  -1.115342e+02   4.999695e+00
  -1.647372e+01  -6.371062e+01
   3.971754e+01  -6.518168e+01
   4.711002e+01  -1.300850e+01
  -9.119059e+00   1.911454e+01
  -3.508223e+01   2.066449e+00
   6.685108e+00  -1.856024e+01
   6.280934e+01  -5.847027e+00
   9.385023e+01   5.616658e+01
   1.144587e+01   1.359076e+02
  -1.395844e+02   1.199019e+02
  -1.865256e+02   2.536433e+01
  -1.146301e+02  -1.032038e+02
  -1.520311e+01  -1.458053e+02
   9.476592e+01  -1.086068e+02
   9.213033e+01   1.387496e+01
   5.564244e+01   2.735780e+01
   2.585390e+01   1.861183e+01
   4.408071e+01  -7.544689e+00
   6.592694e+01   4.811024e+00
   5.146636e+01   3.869595e+01
  -3.965200e+01   6.952741e+01
  -8.396961e+01   5.345369e+01
  -8.379201e+01  -4.131307e+01
   1.098008e+01  -8.753457e+01
   1.024955e+02  -8.537508e+01
   1.488423e+02   8.041166e+01
   6.576199e+01   1.314006e+02
  -1.071371e+02   1.626461e+02
  -1.868650e+02   4.488847e+01
  -1.247477e+02  -8.498269e+01
  -3.561808e+01  -1.476991e+02
   1.815603e+01  -8.696310e+01
   7.186229e+01  -6.810825e+01
   4.882857e+01  -4.254431e+01
   2.793498e+01  -6.416873e+01
   7.094518e+01  -4.349951e+01
   8.212926e+01   2.374263e+01
   7.317780e+01   1.139264e+02
  -3.187661e+01   1.836369e+02
  -9.333518e+01   9.596090e+01
  -1.047816e+02   4.757928e+00
  -7.150158e+01  -1.287977e+02
   3.243569e+00  -1.206975e+02
   6.552698e+01  -4.128091e+01
   4.817447e+01   1.205769e+01
  -1.686084e+01   4.442438e+01
  -3.310371e+01   2.233447e+01
   1.923376e+01   7.249288e+00
   5.594134e+01   7.004064e+00
   3.920787e+01   2.728298e+01
  -5.085283e+01   2.545962e+01
  -1.066734e+02  -9.440792e+00
  -9.205117e+01  -5.730017e+01
   2.031315e+01  -6.601131e+01
   1.059484e+02  -3.050939e+01
   1.088274e+02   7.441905e+00
   3.354660e+01   4.748022e+01
  -4.112573e+01   3.045775e+01
  -5.419696e+01  -2.315446e+01
  -1.710117e+01  -4.820437e+01
   3.792432e+01  -4.263716e+01
   4.084546e+01   4.906964e-01
   3.914607e+01   4.037003e+01
   3.047275e+01   3.633946e+01
   4.015141e+01   1.633663e+01
   4.885701e+01  -4.084408e+00
   3.560427e+01   3.507119e+01
  -2.399409e+01   1.127330e+02
  -1.321586e+02   8.745131e+01
  -1.290482e+02   6.832884e+00
  -6.972875e+01  -7.951916e+01
  -2.204457e+00  -9.606005e+01
   7.432046e+01  -5.184086e+01
   3.565224e+01   9.903582e+00
  -3.979638e+01   1.685707e+01
  -9.925785e+01  -3.769794e+01
  -4.161079e+01  -8.698465e+01
   6.181411e+01  -6.022674e+01
   1.216480e+02  -2.253190e+01
   1.076645e+02   3.663423e+01
   8.559476e+00   5.163242e+01
  -4.049800e+01   3.066612e+01
  -3.241222e+01  -1.120478e+01
   3.052782e+01  -2.214686e+01
   6.815347e+01   1.858716e+01
   6.362881e+00   7.980018e+01
  -4.206146e+01   1.076153e+02
  -1.123869e+02   4.770517e+01
  -1.004366e+02  -5.084464e+01
  -1.048875e+01  -1.282883e+02
   5.683567e+01  -7.951157e+01
   6.651537e+01   1.709412e+01
   3.558230e+01   9.092824e+01
  -1.471876e+01   8.143148e+01
  -3.660503e+01  -1.496295e-01
  -2.452566e+01  -2.522851e+01
  -6.904426e+00  -5.561483e+00
  -8.565534e+00   1.307122e+01
  -2.046808e+01  -1.409766e+01
  -2.363688e+01  -7.601133e+01
  -1.916421e+01  -6.167932e+01
   4.325081e+01  -2.541080e+01
   8.926556e+01   2.110548e+01
   7.804265e+01   6.012183e+01
   1.372684e+01   3.934298e+01
  -5.279541e+01   6.227680e+00
  -6.056136e+01  -1.055610e+01
  -1.341115e+01  -1.310096e+01
   1.757156e+01  -7.739832e+00
   1.818242e+01  -4.239788e+00
  -7.103529e+00   3.023721e+00
   4.655305e-01   2.965167e+00
   4.608658e+01   2.162134e+00
   6.364333e+01   1.811845e+01
   7.154232e+00   4.627316e+01
  -6.724181e+01   7.515391e+01
  -1.529106e+02   2.653019e+01
  -1.054434e+02  -4.820819e+01
  -2.418714e+01  -9.779224e+01
   3.051972e+01  -1.217567e+02
   9.636249e+01  -4.753833e+01
   5.610440e+01   1.074269e+01
   1.371725e+01   2.860684e+01
   3.693098e+00   9.291713e+00
   9.164350e+00   5.503763e+00
   2.215499e+01   3.345311e+01
   8.161053e+00   6.836524e+01
  -1.881921e+01   5.191811e+01
  -5.055496e+01  -1.372272e+01
  -5.433984e+01  -4.932180e+01
  -6.836164e-01  -8.193799e+01
   3.665398e+01  -1.619134e+01
   5.710907e+01   5.075389e+01
   3.175570e+01   6.746412e+01
  -5.083655e+01   4.735383e+01
  -6.460155e+01   4.096338e+00
  -2.549011e+01  -3.727273e+01
   2.476056e+01  -4.769020e+01
   3.716270e+01  -2.254265e+01
  -1.697906e+01   6.375747e+00
  -4.356740e+01   1.296800e+01
  -8.083357e+00  -2.181591e+01
   5.430926e+01  -5.230911e+01
   9.464171e+01  -3.161525e+01
   5.241052e+01   2.100553e+01
  -3.675450e+00   5.280338e+01
  -4.493014e+01   4.952514e+01
  -3.827407e+01   6.696225e+00
  -6.473845e+00  -3.821221e+01
   1.510393e+01  -3.540807e+01
   2.675710e+01   2.781642e+00
   2.166957e+01   3.361143e+01
   6.610747e+00   2.746983e+01
  -2.182322e+01  -2.206961e+00
  -3.052061e+01  -2.020439e+01
  -1.365073e+01  -9.013893e+00
   3.763534e+00   1.344487e+01
   5.157686e+00   9.691050e+00
  -9.578880e+00  -1.953311e+01
  -4.624437e-01  -4.062944e+01
   1.716904e+01  -2.021283e+01
   2.821888e+01   2.894404e+01
   1.721902e+01   4.695986e+01
  -2.992594e+01   1.836777e+01
  -4.195415e+01  -3.024877e+01
  -1.012516e+01  -4.570014e+01
   4.646133e+01  -2.425633e+01
   7.232266e+01   7.024907e+00
   3.728911e+01   1.816646e+01
  -2.790113e+01   2.927466e+01
  -5.154229e+01   1.859464e+01
  -2.217441e+01   5.592972e+00
   1.706604e+01  -2.531447e+00
   1.970584e+01   4.835222e+00
  -2.014730e+01   1.514802e+01
  -4.386250e+01  -6.250240e+00
