
 $NMID
 id='ANONYMOUS ', fmtdat='(2E16.6)'
 volume=1.0
 tramp=1.0
 $END
  -1.343515e+03  -1.959456e+02
  -8.708215e+02  -5.491265e+02
   5.211226e+01  -1.343775e+03
   6.330124e+02  -9.899394e+02
   4.778794e+02  -2.937904e+02
   2.569975e+02   3.602843e+01
  -1.514686e+02   1.298812e+02
  -1.465989e+01  -1.169257e+02
   1.732121e+02  -2.843094e+02
   3.511010e+02  -5.747445e+01
   2.407252e+02   2.988942e+02
   4.878460e+01   1.634922e+02
  -1.014433e+02   1.201682e+02
  -1.006140e+02  -1.167685e+02
  -3.348227e+01  -1.989023e+02
   1.189739e+02  -1.010477e+02
   1.846195e+02   2.100433e+02
  -5.798184e+01   2.375094e+02
  -2.274718e+02   1.814358e+02
  -2.802181e+02   6.817757e+00
  -1.391619e+02  -1.765496e+02
   3.815616e+00  -1.301505e+02
   6.158757e+00  -8.666086e+01
  -1.176758e+02  -6.310087e+01
  -7.683712e+01  -1.228293e+02
   9.164626e+01  -1.309492e+02
   2.335629e+02  -1.046821e+02
   3.135557e+02   1.365668e+02
   7.215036e+01   1.062593e+02
  -1.273923e+02   4.360953e+01
  -2.037853e+02  -7.688840e+01
  -7.830038e+01  -1.750038e+02
   1.693507e+02  -1.817998e+02
   2.179975e+02  -2.740052e+01
   1.753314e+02   5.364379e+01
   1.273518e+02   8.668788e+01
   1.116874e+01   7.883895e+01
   3.963066e+01  -6.386813e+01
   6.605520e+01  -3.170296e+01
   1.973001e+01   1.418788e+02
  -4.113490e+01   2.121824e+02
  -7.248890e+01   1.870942e+02
  -1.166999e+02  -2.963233e+01
  -1.434212e+01  -8.190819e+01
   9.444266e+00  -2.745923e+01
   3.246626e+01   1.354166e+02
  -1.138749e+02   1.430906e+02
  -1.239090e+02  -2.617917e+01
  -1.904280e+02  -1.693962e+02
  -6.650154e+01  -2.465527e+02
   4.906461e+01  -9.484300e+01
   2.716865e+02   9.356990e+01
   1.087999e+02   1.096886e+02
   2.859995e+01   1.660909e+02
  -1.689272e+02   1.010193e+02
  -1.422313e+02   4.515225e+01
  -4.891983e+00   1.306656e+00
   4.072399e+00  -1.730433e+01
  -6.190631e+01   2.427916e+01
  -9.945227e+01   3.341088e+01
  -1.401956e+02  -6.469434e+01
   1.488991e+01  -1.340857e+02
   1.717058e+02  -1.670697e+01
   1.602443e+02   6.021626e+01
   1.762495e+01   1.887039e+02
  -2.079876e+02   1.841651e+02
  -1.658890e+02   1.081865e+02
  -1.335580e+02  -1.252370e+02
  -5.101923e+01  -1.456339e+02
  -6.562565e+01  -1.453633e+02
  -1.831696e+01  -8.500878e+01
   2.340977e+01  -7.686408e+01
   8.429779e+01  -7.146436e+01
   1.486242e+02   1.005054e+01
   1.281972e+02   8.484506e+01
   3.306576e+01   9.143690e+01
  -2.812711e+01   9.373739e+01
  -9.815095e+01  -2.145222e+01
  -7.846426e+01  -1.403472e+02
   5.130640e+01  -1.536649e+02
   1.346772e+02  -2.901559e+01
   8.724958e+01   1.016448e+02
   9.279371e+01   1.237768e+02
  -1.664945e+01   1.152943e+02
  -9.609105e+01   4.705669e+01
  -8.096930e+01   5.049706e+01
  -7.872329e+01   4.221050e+01
  -1.405762e+02   4.585410e+01
  -1.836453e+02  -4.439534e+01
  -1.646631e+02  -1.665326e+02
   4.712073e+01  -2.224016e+02
   1.411526e+02  -2.630428e+02
   2.307799e+02  -4.516728e+01
   1.143025e+02   3.858616e+01
   8.318805e+00   1.514795e+02
  -3.027085e+01   7.170400e+01
   3.176000e+00   2.796312e+01
   6.726615e+01   6.023881e+00
   7.397739e+01   2.503522e+01
  -1.700436e+01   5.671783e+01
  -5.380125e+01   3.917334e+01
  -4.270052e+01  -3.211245e+01
   2.998829e+01  -6.380525e+01
   9.783066e+01   1.729899e+01
   6.176604e+01   1.067659e+02
  -1.031355e+01   1.718171e+02
  -1.547797e+02   9.072220e+01
  -2.010978e+02  -9.223399e+01
  -1.254490e+02  -1.375640e+02
  -3.548243e+01  -1.540424e+02
   9.162440e+01  -5.460422e+01
   8.139110e+01  -1.062052e+01
   1.234892e+01   3.543078e+00
  -1.235474e+01  -3.412965e+01
   2.927742e+01  -5.173175e+01
   8.035790e+01  -4.198152e+01
   6.817445e+01   6.359829e+00
   1.632681e+01   2.588479e+01
  -4.224844e+01  -9.952439e+00
  -1.403482e+01  -4.813533e+01
   7.141362e+01  -2.694477e+01
   1.937589e+02   5.455320e+00
   1.819783e+02   5.332945e+01
   1.650891e+01   1.405954e+02
  -9.079295e+01   1.052366e+02
  -1.436922e+02   3.916284e+01
  -6.996803e+01  -3.118869e+01
   1.108372e+01  -3.305804e+01
   1.864201e+01   5.138031e+00
  -3.429561e+01   4.195187e+01
  -9.575872e+01   1.976106e+01
  -1.005441e+02  -5.121589e+01
  -5.492196e+01  -9.839123e+01
   4.964480e+01  -6.789102e+01
   6.986128e+01  -8.266339e+00
   1.584346e+01   1.005616e+01
  -1.602535e+01  -2.320707e+01
  -2.361299e+01  -5.978064e+01
   4.307347e+01  -5.223628e+01
   1.525615e+02  -1.007568e+01
   1.131339e+02   6.216621e+01
  -2.061873e+01   1.202627e+02
  -5.003400e+01   6.842425e+01
  -9.664322e+01   2.491234e+01
  -1.518559e+01  -4.829939e+01
   2.721937e+01  -6.789644e+01
   3.046208e+01  -3.177008e+00
  -6.155716e+00   1.548493e+01
  -2.466799e+01   2.844991e+00
  -3.192429e-02  -1.998457e+01
   5.291634e+01  -1.472534e+00
   7.591351e+01   6.463631e+01
  -1.812757e+01   9.412787e+01
  -7.615797e+01   7.411968e+01
  -1.331810e+02  -2.248195e+01
  -1.184343e+02  -7.873290e+01
  -2.577171e+01  -1.305263e+02
   7.772713e+01  -4.681426e+01
   4.894415e+01  -3.150600e+01
   4.159453e+01   2.682840e+01
   1.406860e+01   1.481880e+01
   3.052672e+01  -6.259476e+00
   4.769015e+01   1.537825e-02
   2.727888e+01   3.528289e+01
  -2.783267e+01   6.120140e+01
  -9.112710e+01   4.417109e+01
  -5.662094e+01  -3.219362e+01
   1.534599e+01  -7.245788e+01
   1.019294e+02  -6.151286e+01
   1.070962e+02   4.738194e+01
   3.922265e+01   1.095669e+02
  -7.608776e+01   1.400070e+02
  -1.710597e+02   2.719207e+01
  -1.458944e+02  -1.518245e+01
  -5.402042e+01  -8.904124e+01
  -3.628216e+00  -8.043685e+01
   4.643062e+01  -2.320058e+01
   3.715086e+01  -3.859209e+01
   3.022732e+01  -7.006023e+01
   4.077705e+01  -4.764498e+01
   6.945483e+01   5.681565e+00
   7.367071e+01   6.754954e+01
  -3.281434e+00   9.655693e+01
  -8.437040e+01   8.547547e+01
  -6.175056e+01  -1.518496e+01
  -6.560887e+01  -6.593759e+01
   5.389795e+00  -8.641146e+01
   3.991651e+01  -3.393451e+01
   3.682975e+01   1.729303e+01
  -1.073635e+01   3.183480e+01
  -1.313969e+01   2.024665e+01
   1.483510e+01   4.331937e+00
   3.993024e+01   8.750339e+00
   2.796218e+01   2.392258e+01
  -4.158319e+01   2.324578e+01
  -7.414635e+01   2.285835e+01
  -7.985277e+01  -1.219769e+01
  -5.315436e+00  -5.237548e+01
   6.512560e+01  -2.278073e+01
   7.814843e+01  -1.491958e+00
   7.961314e+00   3.026086e+01
  -3.771787e+01   2.610008e+01
  -3.810246e+01  -1.613173e+01
  -5.825873e+00  -3.536863e+01
   2.274035e+01  -3.283828e+01
   4.444148e+01  -1.531447e+01
   3.517835e+01   3.505569e+01
   2.683753e+01   1.836100e+01
   2.656272e+01  -4.388216e+00
   3.272592e+01   4.135560e+00
   2.532569e+01   4.907194e+01
  -3.157763e+01   7.977580e+01
  -6.436242e+01   5.792386e+01
  -8.134184e+01   1.819422e+01
  -6.159976e+01  -4.710806e+01
   8.201459e-01  -7.514680e+01
   5.112828e+01  -3.579413e+01
   3.602847e+01   2.257870e+00
  -3.122167e+01   1.192568e+01
  -6.939284e+01  -1.803782e+01
  -3.386221e+01  -4.261036e+01
   3.124564e+01  -6.460794e+01
   1.041800e+02  -3.442281e+01
   8.647620e+01   2.668559e+01
   2.349057e+01   4.190390e+01
  -3.916564e+01   3.157329e+01
  -2.604348e+01   6.368366e+00
   2.309974e+01  -1.193081e+01
   5.310475e+01   3.210480e+00
   3.275735e+01   6.776609e+01
  -4.575336e+01   7.085911e+01
  -7.001397e+01   2.885575e+01
  -5.368189e+01  -6.400212e+01
  -3.596132e+01  -1.004532e+02
   2.203161e+01  -7.287058e+01
   5.941158e+01   2.533658e+00
   8.519736e+00   7.144395e+01
  -2.992248e+00   5.653137e+01
  -2.350844e+01   7.869560e+00
  -2.013858e+01  -1.483099e+01
  -8.332886e+00  -5.493522e-01
  -3.489361e+00   7.436570e+00
  -1.827818e+01  -1.208461e+01
  -2.352582e+01  -4.843804e+01
  -2.134410e+01  -5.921638e+01
   2.515938e+01  -1.592728e+01
   8.530091e+01   2.310457e+01
   6.653960e+01   2.493454e+01
   7.632898e+00   3.522424e+01
  -3.058720e+01   1.163984e+01
  -6.025702e+01   5.398223e+00
  -9.817990e+00  -7.155670e+00
   1.851235e+01  -9.787109e+00
   1.339812e+01  -5.793083e+00
  -7.135861e+00   4.566053e+00
   2.248478e-01   2.453606e+00
   2.635210e+01  -5.228264e+00
   4.993285e+01   1.352384e+01
   2.715596e+01   3.576440e+01
  -5.185792e+01   6.501246e+01
  -8.524979e+01   3.910694e+01
  -8.148386e+01  -2.501852e+01
  -1.643321e+01  -9.489759e+01
   3.980254e+01  -1.091424e+02
   5.604532e+01  -3.072266e+01
   4.513508e+01   6.812639e+00
   1.860805e+01   2.118891e+01
   3.955968e+00   1.051477e+01
   8.957088e+00   5.641009e+00
   1.290657e+01   2.040203e+01
  -1.017473e+01   3.950533e+01
  -1.095049e+01   4.211748e+01
  -3.630212e+01  -5.580895e+00
  -4.912016e+01  -6.470200e+01
  -2.881512e+00  -5.455059e+01
   4.021536e+01  -3.160450e+01
   4.957191e+01   3.057623e+01
   2.841384e+01   6.793253e+01
  -2.865072e+01   4.343658e+01
  -6.313224e+01  -8.478764e+00
  -2.850197e+01  -2.814422e+01
   2.275787e+01  -2.978523e+01
   2.170392e+01  -1.580393e+01
  -8.284535e+00   8.664367e+00
  -4.236824e+01   8.563843e+00
  -1.354724e+01  -1.347151e+01
   4.557952e+01  -3.353674e+01
   4.950840e+01  -1.024251e+01
   3.968204e+01   6.684821e+00
   2.939668e+00   4.942865e+01
  -2.915039e+01   3.311774e+01
  -2.393027e+01   7.369950e+00
  -1.026254e+01  -2.353378e+01
   1.000259e+01  -2.544730e+01
   2.096860e+01   7.764808e+00
   2.137429e+01   2.313264e+01
  -1.916462e+00   2.677667e+01
  -1.869679e+01  -2.134245e+00
  -2.365067e+01  -1.111848e+01
  -1.133954e+01  -2.206893e+00
   4.277108e+00   1.338106e+01
   1.869295e+00   5.872750e+00
  -6.189058e+00  -1.733999e+01
  -7.458636e+00  -3.200522e+01
   1.217031e+01  -1.471387e+01
   3.033099e+01   1.417925e+01
   1.101882e+01   3.343284e+01
  -1.707197e+01   1.751425e+01
  -4.235388e+01  -6.828336e+00
  -1.550332e+01  -3.425768e+01
   2.560615e+01  -1.671183e+01
   6.232762e+01   9.913890e+00
   2.698533e+01   2.251163e+01
  -1.554211e+01   2.863604e+01
  -4.193835e+01   1.520974e+01
  -1.886707e+01   1.108419e+00
   1.276428e+01  -4.401550e+00
   1.395265e+01  -7.334762e-01
  -7.021244e+00   9.223746e+00
  -3.244325e+01   1.043685e+01
