
 $NMID
 id='ANONYMOUS ', fmtdat='(2E16.6)'
 volume=1.0
 tramp=1.0
 $END
   5.803808e+02   1.670073e+02
   4.049550e+02   4.073064e+02
   2.097064e+02   3.661881e+02
  -7.720452e+01   4.460902e+02
  -1.029206e+02   2.371427e+02
  -5.070962e+01   1.206077e+02
   7.722793e+01  -7.169950e+01
   6.399599e+01   4.163712e+01
   9.758871e+01  -1.703915e+01
  -8.217809e+01   6.039152e+01
  -1.253291e+02   5.033699e+01
  -4.265984e+01  -1.070769e+02
  -4.757494e+01  -3.860643e+01
   7.037443e+01   1.824209e+01
   7.467707e+01   1.875447e+02
  -5.773393e+01   8.318000e+01
  -1.381578e+02  -6.282959e+01
  -6.397880e+01  -1.625759e+02
   9.494108e+01  -4.803936e+01
   1.072909e+02   1.555358e+01
   9.546142e+01   7.642060e+01
  -8.766933e+00   4.767648e+01
   1.098399e+01   4.821892e+00
   4.182513e+01   2.380720e+01
   9.015345e+01   9.349495e+01
  -8.039493e+01  -1.396813e+01
  -1.109059e+02   5.869831e+01
  -1.146064e+02   5.373227e+01
  -6.113714e+01  -3.356122e+01
   3.666103e+01  -6.601960e+01
   4.647991e+01   1.237089e+01
   4.112625e+00   4.178058e+01
  -3.356268e+01   6.891649e+01
  -3.749492e+01   3.495307e+01
  -1.267780e+01   6.324913e+01
  -1.309515e+01   1.875405e+01
  -5.434875e+01  -1.290861e+01
  -2.457855e+01   6.297426e+00
  -7.102643e+01   4.658633e+01
  -1.813546e+01  -7.417374e+01
   8.050747e-01  -1.403050e+02
   6.782136e+01  -7.131519e+01
   1.393489e+01  -5.958800e+01
   2.899760e+01   4.633926e+01
  -3.113105e+01  -9.923694e+00
   3.364690e+00  -4.029268e+01
   8.404408e+01  -3.370653e+01
  -9.299828e+00   4.448576e+00
   1.352737e+02  -2.741238e+01
   6.192011e+01   3.333010e+01
  -6.746719e+00   9.021225e+01
  -8.142671e+01  -1.181765e+01
  -3.806695e+01   4.707341e+01
  -1.802984e+01   1.381294e+01
   2.450333e+01  -1.454889e+02
   6.009043e+01  -2.123905e+01
   2.237040e+01  -1.589384e+01
  -2.948485e+01   5.197789e+00
   2.890893e+01  -2.696525e+00
   5.397057e+01   1.304634e+00
   6.311855e+01   1.531533e+01
   2.236527e+00   7.105611e+01
  -5.293908e+01   2.928695e+01
  -6.065761e+01  -1.858974e+01
   4.821133e+00  -1.284088e+02
   3.307583e+01  -7.087360e+01
   8.111053e+01  -1.284423e+02
   3.293392e+01   6.275381e+01
   1.555519e+01   7.778213e+01
  -9.449821e-01   1.100195e+02
   3.068411e+01   4.589116e+01
   1.189971e+01   3.773164e+01
  -2.022594e+01   2.868139e+01
  -6.144805e+01   2.346425e+01
  -5.801971e+01  -4.624804e+01
  -4.899959e+01  -7.927989e+01
   8.140293e+00  -5.520722e+01
   3.336221e+00   1.385161e+01
   5.166832e+00   5.314766e+01
  -4.982621e+00   3.189385e+01
  -7.267115e+01   2.465207e+01
  -3.980088e+01   4.166591e+00
  -2.195704e+01  -6.452359e+01
  -1.237440e+01  -4.627159e+01
   5.915896e+01  -2.683637e+01
   2.443823e+01  -1.401714e+01
   4.659836e+01  -3.005289e+01
   4.342749e+01  -3.747459e+01
   9.382087e+01  -2.953213e+01
   1.133685e+02   9.907532e+01
  -6.285199e-01   9.391117e+01
  -4.166560e+01   1.810513e+02
  -3.078402e+01  -1.594762e+01
  -8.362092e+01   6.786194e+00
   1.209471e+01  -7.298215e+01
  -5.525860e+00  -3.226530e+01
  -1.658262e+01  -2.411241e+01
  -4.242817e+01   6.038824e+00
  -2.985613e+01  -2.902482e+01
   1.148669e+01  -1.243534e+01
   1.703830e+00   1.180049e+01
  -7.239042e-01   2.085702e+01
  -7.423355e+00   1.414766e+01
  -5.452662e+01  -1.316984e+01
  -2.923676e+01  -6.886955e+01
  -1.796750e+01  -7.323377e+01
   2.022305e+01  -2.766066e+01
   5.028530e+01  -1.103682e+01
   7.918922e+01   7.651510e+01
   4.054204e+01   4.139218e+01
  -6.054684e+00   1.813364e+01
  -2.430481e+01  -1.438465e+01
  -8.175495e+00  -3.154968e+00
   3.156596e+00   6.443494e+00
  -1.468276e+01   1.903399e+01
  -2.662304e+01   1.009842e+01
  -3.500909e+01  -7.532054e+00
  -3.781797e-01  -7.141555e+00
   3.397323e+01   7.808013e+00
  -3.385756e+00   8.025458e+00
   2.234745e+00   2.582681e+01
  -8.273156e+01  -5.764425e+00
  -5.853414e+01  -3.725744e+01
   1.636044e+00  -7.029495e+01
   6.170141e+01  -7.907691e+01
   1.981493e+01  -1.403706e+01
   3.830416e+00   6.214975e+00
  -5.261384e+00   3.260587e+01
  -7.733211e+00   5.417360e+00
   2.469168e+01  -1.813680e+01
   5.761252e+01  -2.505365e+01
   3.044966e+01   4.782677e+00
   3.811782e+01   4.456350e+01
  -7.650822e+00   2.977176e+01
  -2.677580e+01   7.804871e+00
   1.010175e+00  -3.963842e+00
   5.909630e+00   3.927274e+00
   4.629270e+00   1.789113e+01
  -1.897615e+01   3.601245e+01
  -4.666180e+01  -1.462371e+01
  -1.749191e+01   6.977850e+00
  -2.713141e+00  -2.410625e+01
   1.146568e+01  -5.034127e+01
   4.602371e+01   1.263237e+01
  -7.382665e+00   2.537322e+01
  -1.167548e+01   2.981596e+01
  -2.288866e+01  -1.523670e-01
   6.343562e+00  -5.790691e+00
   8.502386e+00  -2.513339e+00
   9.475512e-01   1.317186e+01
  -2.449561e+01  -1.564076e-01
  -4.062517e+01  -2.596718e+01
  -7.778413e+00  -1.982608e+01
   2.643797e+00  -3.085226e+01
   4.287311e+01  -1.468641e+01
   6.668164e+01   3.696230e+01
   2.529233e+01   5.237112e+01
  -1.855841e+01   1.549677e+01
  -2.288617e+01   7.471652e+00
  -6.098761e+00  -7.114041e+00
  -1.657439e+00  -8.582850e-01
  -8.554449e+00  -2.826337e+00
  -1.422720e+01   9.736304e+00
  -1.526598e+01  -9.888946e+00
  -9.664350e-01  -1.791569e+01
   3.817375e+01  -2.937743e+01
   2.833067e+01   7.241180e+00
   1.067985e+01   2.415759e+01
  -7.541839e+01   1.109917e+01
  -3.335419e+01  -2.728562e+00
  -2.649829e+01  -2.514026e+01
  -2.134206e+00  -6.573320e+01
   3.785052e+01  -3.548826e+01
   1.088131e+02   1.168904e+01
   3.848179e+01   1.208641e+01
  -1.542883e+01   4.284365e+01
  -1.353989e+01   1.260029e+01
  -8.249308e+00   1.193196e+01
  -8.880242e+00   2.898726e+01
  -7.835189e+00   2.922018e+01
  -3.215691e+01   7.884135e+00
  -5.334065e+01  -3.499050e+01
  -6.408613e-01  -4.227256e+01
   2.516879e+01  -1.004418e+01
   1.636990e+01  -7.085484e+00
   1.788555e+01   4.475906e+00
   1.050877e+01   2.279825e+01
  -1.195907e+01   1.867181e+01
  -9.589531e+00  -2.072786e+00
  -1.939421e+00  -7.557164e+00
   3.660985e-01  -1.414189e+01
  -6.942304e+00  -1.102776e+00
  -1.186250e+01   2.201592e+00
  -1.396222e+01  -1.020669e+01
   1.409874e+01  -1.376418e+01
   6.921005e+01  -1.433171e+01
   4.021883e+01  -5.124319e+00
  -1.485083e+00   3.338373e+01
  -1.202526e+01   2.741137e+01
  -2.259728e+01   1.838529e+01
  -1.012080e+01  -8.077860e+00
   1.057973e+01  -1.542725e+01
   1.326126e+01   1.132410e+00
   1.158279e+01   2.687586e+00
  -4.555153e+00   1.174561e+01
  -1.908191e+01   4.729580e+00
  -8.123496e+00  -9.219528e+00
  -1.424500e+01  -4.112652e+00
  -1.332248e+01   9.441694e+00
  -4.742908e+00   5.663822e+00
  -1.346378e+01  -1.396241e+01
   6.811314e+00  -5.561132e+00
   7.904186e+00  -1.517135e+01
   4.010722e+01  -3.843277e+01
   2.844243e+01  -7.742322e+00
  -7.904057e+00   3.124481e+01
  -6.266443e+00   1.118118e+01
  -7.691390e+00   3.945233e+00
   1.331922e+01  -4.080458e+00
   4.414529e+01   6.678881e+00
   1.132459e+01   9.715773e+00
  -1.046681e+01   2.616803e+01
  -4.325551e+01   1.551609e+01
  -3.083611e+01  -1.566874e+00
  -8.343176e+00  -2.449645e+01
   1.770276e+00  -1.599763e+01
   3.507494e+00  -3.582890e+00
  -2.827954e-01   1.072636e+01
  -1.583876e+01  -2.791398e+00
  -1.619225e+01  -2.491459e+01
   1.419409e+01  -1.986078e+01
   3.309761e+01  -2.756614e+01
   2.204166e+01   1.599409e+01
  -3.279420e+00   5.639866e+01
   6.395544e-01   3.797873e+01
  -1.808388e+01  -1.012558e+01
  -1.209527e+01  -1.849095e+01
   2.410355e+00  -3.133557e+01
   1.545482e+01  -8.873988e+00
   4.094810e+00   3.095807e+00
   9.535897e-01  -3.373144e-01
   4.683671e-01  -2.065913e+00
   1.067281e+01   4.071470e+00
   1.394972e+01   1.255959e+01
   1.728961e+01   3.215261e+01
  -1.821554e+01   1.601292e+01
  -3.638739e+01  -1.279332e+01
  -3.550393e+01   2.445612e-01
   6.522259e-01  -7.287134e+00
   1.610093e+01  -2.001356e+00
   2.077937e+01  -3.053220e+00
   1.839286e+00  -1.145233e+00
  -6.485673e+00   3.552832e+00
  -4.093402e+00   8.462100e-01
  -1.540069e+00  -1.433326e+00
   2.134936e-01  -1.002516e+00
  -8.916594e+00   8.969610e+00
  -3.741422e+01   3.233016e+00
  -1.218141e+01  -2.652575e+01
   1.952558e+01  -2.604038e+01
   8.846340e+00  -6.458651e+00
   3.235082e+01  -1.375625e+00
   1.646774e+01   3.115966e+01
  -1.396416e+01   2.946337e+01
  -1.557163e+01   2.147291e+01
  -1.883829e+01  -1.600458e+00
  -8.911070e+00  -9.962860e+00
  -2.707499e+00  -4.061872e+00
  -5.807089e+00  -2.727245e+00
  -3.512219e+00  -1.570124e+01
  -8.379164e+00  -1.913539e+01
   4.563497e+00  -1.915549e+01
   2.098735e+01  -7.720931e+00
   3.320725e+01   3.807264e+01
   1.264567e+01   9.615996e+00
  -1.544682e+01   1.796020e+01
  -3.226467e+01  -3.147519e+00
  -2.375751e+01  -1.796727e+01
   1.441295e+01  -1.461972e+01
   2.301715e+01   8.446430e+00
   1.387474e+01   1.465204e+01
   2.941121e+00   1.988645e+01
  -8.830934e+00   5.570633e+00
   3.663453e+00  -5.562353e+00
   1.760680e+01  -1.020418e+01
   5.985351e+00   1.975122e+00
  -2.276246e+01   8.292712e+00
  -1.131786e+01   2.352254e+01
  -1.364668e+01   2.714761e+00
  -4.886721e+00  -3.173024e+01
   3.750439e+00  -1.543147e+01
   4.393000e+00  -8.284927e+00
   8.719978e+00   8.178246e+00
   9.213037e-01   1.429822e+01
  -2.928415e+00  -2.684273e-01
  -7.647953e+00  -1.050907e+01
  -3.149085e+00  -9.527614e+00
   7.254244e+00   1.424716e+00
   1.005020e+01  -2.895049e+00
   4.037258e+00  -4.844502e-01
  -3.596826e+00  -7.185434e+00
  -3.072112e+00  -3.071378e+00
   3.787175e+00   5.564962e+00
   3.455743e+00   1.013540e+01
   1.306752e+00   2.415276e+00
  -1.933034e+01   3.896957e+00
  -6.875007e+00  -1.288666e+01
   4.835947e+00  -6.994663e+00
   2.135404e+01   9.178691e+00
   9.134461e+00   1.989115e+01
   4.055185e-02   9.739018e+00
  -2.160364e+01  -7.792852e+00
  -9.680537e+00   8.903236e-01
   5.008565e+00  -6.385582e+00
   1.891524e+01  -1.466124e+01
   5.802972e+00  -4.174336e+00
  -4.316863e+00   5.257926e+00
  -6.228551e+00  -4.790938e-01
   3.541641e+00  -5.812065e+00
   1.093410e+01  -1.107129e+01
