
 $NMID
 id='ANONYMOUS ', fmtdat='(2E16.6)'
 volume=1.0
 tramp=1.0
 $END
   5.399995e+02   8.835527e+01
   5.267926e+02   9.360669e+01
   9.301913e+01   4.543618e+02
  -3.200977e+02   1.370489e+02
  -1.266055e+02  -1.865939e+02
   1.520586e+02  -2.395440e+02
   1.780193e+02   1.177383e+02
   1.174658e+02   6.776142e+01
  -2.053391e+02   7.089430e+01
  -1.807008e+02   6.155800e+00
  -1.150510e+02  -1.687412e+02
  -3.287313e+01  -2.846809e+01
   1.466232e+02  -7.230119e+01
   1.215325e+01   5.789739e+01
  -1.449932e+01   1.133791e+02
  -1.576858e+02   3.049341e+01
  -4.940115e+01  -8.876489e+01
  -1.155747e+01  -5.991512e+00
  -5.680018e+00  -6.321731e+01
   5.055347e+01   1.326216e+02
  -2.777025e+01   9.609938e+01
  -3.763546e+01   5.053070e+01
  -1.368874e+01  -1.495510e+00
   2.154718e+01  -1.708087e+01
   1.168601e+02   8.971869e+01
   5.553327e+01   8.511185e+01
  -5.326315e+01   4.941716e+01
  -2.505144e+02  -1.593129e+01
  -7.019271e+00  -1.452920e+02
   1.385870e+01  -5.252131e+01
   1.846980e+02  -1.233813e+01
   8.753369e+00   7.783489e+01
  -8.000663e+01   1.092047e+02
  -1.140964e+02   7.422620e+01
  -1.190767e+02  -1.845400e+01
   1.917026e+01  -1.050063e+02
  -1.523267e+01  -2.477681e+01
  -2.000005e+01  -7.143612e-01
  -7.036438e+01   2.559609e+00
  -4.507563e+01   1.730589e+01
   5.087222e+01  -1.198737e+02
   9.080562e+01  -8.891110e+01
   1.945570e+01  -6.147049e+00
  -3.423504e+01   9.923475e+01
  -2.881011e+00   1.075424e+02
  -7.452075e+00  -1.646152e+01
   3.203150e+00  -5.039751e+01
   6.737070e+00  -5.678661e+01
   1.191374e+02  -6.912935e+00
   1.145355e+02   1.223389e+02
  -4.202507e+01   6.659771e+01
  -1.252999e+02  -2.018480e+01
  -7.468413e+01  -3.659782e+01
   2.481855e+01  -6.334432e+01
   7.028491e+01  -1.073498e+01
   2.967544e+01   7.221702e+00
   4.166241e+00   1.508648e+01
  -2.615458e+01  -2.924134e+01
   1.058374e+01  -2.690121e+01
   3.072239e+01   4.057515e+01
   3.013906e+01   4.270280e+01
  -6.611334e+01   6.620018e+01
  -5.295459e+01   1.013638e+02
  -2.878965e+01  -1.988540e+01
   2.660134e+01  -1.350626e+01
   3.171187e+01  -1.163734e+02
   5.409116e+01   2.342262e+01
   1.967626e+01   3.251190e+01
   1.072392e+01   6.517647e+01
   1.027535e+01  -1.873901e+01
  -7.225800e+00   1.633745e+01
   3.111822e+00  -2.729780e-01
  -4.190539e+00   3.683987e+01
  -2.125425e+01  -2.128812e+00
  -4.038101e+01  -5.522827e+00
   1.855476e+01  -3.778032e+01
   2.832235e+01  -5.480842e+01
   6.775928e+01   7.105785e+00
   4.363754e+01   5.831135e+01
  -1.385747e+01   5.261389e+01
  -3.210841e+01  -2.238887e+01
  -6.596572e+01   2.457617e+01
  -1.261528e+01  -8.458569e+01
   9.406073e+00  -4.012372e+01
  -2.388653e+01  -8.121215e+00
   2.296634e+01  -4.313800e-01
   1.266014e+01   1.278425e+00
   5.279504e+01   1.059681e+01
   7.232367e+01  -1.712420e+01
   5.085787e+01   2.801183e+01
   1.815145e+01   1.059170e+02
  -1.457420e+02   7.121649e+00
  -2.987993e+01   7.819687e+01
  -5.859647e+01  -1.290656e+01
   1.967007e+01  -5.587255e+01
  -8.538868e+00  -3.846338e+01
   1.342198e+01  -7.401221e+00
  -1.470978e+01   1.153469e+01
  -6.608355e+00   3.508696e-01
  -1.686905e+01  -2.676288e+01
   1.056014e+01  -3.367968e+01
   2.807440e+01   1.768008e+01
  -3.284349e+01   3.157862e+01
  -1.614448e+01  -6.693717e+00
  -1.754618e+01  -4.823156e+00
   3.751070e+01  -4.841249e+01
   2.645659e+01  -5.022923e+01
   9.415546e+01  -5.466916e+01
   1.090052e+01   3.186520e+01
  -8.159088e+00   4.427364e+01
  -1.853218e+01   3.654970e+01
  -2.504987e+01  -8.736286e+00
  -8.750652e+00  -4.634710e+00
   1.560536e+01   3.579538e+00
   7.422005e+00   2.589636e+01
  -3.894253e+01   1.048542e+00
  -2.425905e+01  -6.569655e+00
  -7.253608e+00  -1.712622e+01
   1.917926e+01   4.845612e+00
   1.750551e+01   1.406131e+01
  -4.236219e+01   4.045622e+01
  -4.904369e+01  -1.213018e+01
  -4.933735e+01  -7.546129e+01
  -5.425377e+00  -3.568434e+01
   3.032958e+01   1.019584e+01
   4.509623e+01  -4.323772e+01
   2.574008e+01  -1.787264e+01
  -1.488529e+01   4.860731e+00
  -1.849657e+01   2.326598e+00
   3.763066e+00  -1.562766e+01
   3.040595e+01   2.571685e+00
   6.622020e+01   4.639643e+01
  -2.075868e+01   7.191836e+01
  -1.613302e+01   3.961998e+00
  -3.656065e+01   9.085783e+00
  -2.069768e+01  -1.234958e+01
   1.136098e+01  -9.988515e+00
   4.660190e+00   8.140783e+00
  -2.307594e+01   2.006990e+01
  -4.089673e+01   1.426884e+00
  -6.592146e+01  -5.298104e+01
  -1.748570e+01  -3.512470e+01
   3.805350e+01  -5.020611e+01
   2.127743e+01  -1.977219e+01
   3.935708e+00   1.025208e+01
  -2.019281e+01   3.539244e+01
   5.010011e+00   2.254129e+00
   3.218545e+00  -6.234350e+00
   8.949867e+00  -6.658339e+00
  -2.617084e+00   6.334848e+00
  -6.509512e+00   1.232092e+00
  -1.779425e+01  -6.361241e+00
  -1.367098e+01  -3.377261e+01
  -9.631694e+00  -4.837514e+01
   3.561341e+01  -5.226298e+01
   6.381003e+00   6.459187e+01
  -2.561935e+00   5.655215e+01
   2.938548e+00   4.739858e+01
  -2.524297e+01   8.723223e+00
  -3.151657e+01  -4.841707e+00
  -1.481922e+01  -2.872012e+00
  -5.730923e+00   1.168199e+01
  -1.678941e+01   6.918590e+00
  -4.413950e+00  -9.083469e+00
   4.960463e+00  -3.669804e+01
   2.432068e+01  -8.933661e+00
   1.340604e+00  -8.426835e+00
   5.872609e+00   2.701229e+01
  -2.468792e+01   1.484090e+01
  -3.924897e+01   2.445631e+01
  -1.105401e+01  -3.920653e+01
   2.181354e+01  -4.422145e+01
   4.045407e+01  -1.910875e+01
   6.628680e+01   5.679184e+01
   2.215691e+01   5.842009e+01
  -3.101347e+00   5.469514e+00
   9.525083e+00   1.307037e+01
  -6.674159e+00   3.409254e+00
  -1.998486e+01   4.434737e+00
  -2.839340e+01   2.849022e+01
  -1.308304e+01  -9.277575e+00
  -1.584015e+01  -1.479399e+01
  -2.499429e+01  -3.136128e+01
   1.763086e+01  -7.487774e+00
   3.526725e+01  -1.976669e+01
   3.896884e+01   1.279835e+01
   1.264377e+01   1.126211e+01
  -8.630733e+00   2.590782e+01
  -9.857521e+00   6.839273e+00
  -6.124782e+00  -9.481940e+00
   2.961517e+00  -1.541875e+01
  -7.153784e+00  -4.080400e+00
  -1.242117e+01  -1.270280e+00
  -7.564054e+00   1.227971e+00
   1.220996e+01  -2.024449e+00
   1.871993e+01   1.574198e+01
   2.349407e+01   2.824327e+01
   7.164487e-02   1.138079e+01
  -2.897082e+01   3.569238e+01
  -3.020320e+01   1.297303e+01
  -1.065210e+01  -7.343872e+00
   1.348553e+01  -1.238670e+01
   1.304348e+01  -9.915671e-01
   9.921332e+00   1.839357e+01
  -7.595032e+00   1.411971e+01
  -8.577628e+00  -9.133955e+00
  -1.091664e+01  -8.499857e+00
  -1.065217e+01  -7.901176e+00
  -8.137992e+00   1.708712e-01
  -1.244836e+01   2.773282e+00
  -1.206324e+01  -1.871715e+01
  -2.227299e+01  -4.036914e+01
  -1.268441e+00  -2.350048e+01
   3.462726e+01  -1.454025e+01
   3.461608e+01   1.256354e+01
  -5.244074e+00  -1.148780e+00
  -1.107690e+01   3.460091e+01
  -1.023508e+01  -1.173227e+00
   1.270925e+01  -2.342303e+00
   7.502635e+00   3.096558e+01
   1.397914e+01   5.606946e+00
  -9.361149e+00   2.736195e+01
  -6.416354e+00  -1.574721e+01
  -2.226361e+00  -7.880384e+00
   1.138300e+01  -1.894226e+01
   3.440858e+00  -1.620627e+01
   2.082748e+01  -3.680886e+00
  -2.980572e+00   7.232809e+00
  -1.681021e+01  -8.022233e-01
  -5.606505e+00  -2.678864e+01
  -1.214236e+01  -2.539139e+01
   2.986296e+01  -3.659199e-01
   4.221132e+01  -1.141142e+01
   1.213608e+00   2.159981e+01
  -9.179704e+00   2.076143e+01
  -8.697814e+00  -6.108330e+00
  -2.879356e+01   5.836913e-01
  -8.437383e+00  -1.350272e+01
   8.040306e+00  -2.823354e+00
   9.505402e+00   9.894663e+00
   5.607839e+00   1.570106e+00
   1.121603e+00  -5.466021e+00
   7.051965e+00   5.448656e+00
   1.975595e+01   1.028084e+01
  -6.381652e+00   2.839959e+01
  -4.594726e+00   5.160989e+00
  -2.082145e+01  -8.719209e+00
  -3.234213e+01  -1.245938e+01
  -1.368303e+00  -6.084490e+00
   1.639897e+01  -4.178300e+00
   1.312006e+01   2.312438e+00
   5.070717e+00   1.949300e+00
  -3.898712e+00  -2.404444e-02
  -4.006166e+00   3.140854e+00
   5.157113e+00  -3.288169e-01
  -5.705598e-01  -1.178081e+00
  -1.162960e+01  -7.124710e+00
  -1.324894e+01  -1.542345e+00
   3.223953e+00  -1.350061e+01
   1.161088e+01  -1.852676e+01
   3.623710e+01  -4.771139e+01
   3.339653e+01   4.958220e+00
  -6.866099e+00   4.324756e+01
  -2.539769e+01   3.512746e+01
   1.459398e+01   1.457055e+01
  -1.522079e+01  -3.278846e+00
  -4.281300e+00  -4.701789e+00
  -1.109995e+00  -1.984496e+00
  -1.910433e+00  -4.604884e+00
  -1.452958e-02  -3.871520e+00
  -1.699424e+01  -1.227662e+01
   6.877143e+00  -1.461266e+00
   6.587654e+00   1.298210e+00
   2.583936e+01   1.481193e+01
   1.470816e+01   2.074274e+01
  -1.246227e+01   5.640393e+00
  -2.018030e+01  -1.074276e+01
  -1.429791e+00  -1.217601e+01
   1.986673e+01   3.640326e+00
   1.740997e+01   3.403891e+00
   6.354662e+00   1.204003e+01
  -9.641741e-01   2.232046e+01
  -5.430767e+00   6.342189e+00
   3.827738e+00  -1.353237e+00
   1.227604e+01  -7.093660e-01
   6.643760e+00   7.249510e+00
   3.659805e+00   1.738566e+01
   1.352221e+00   2.552491e+01
  -3.522811e+00   7.574038e+00
  -4.126992e-01  -2.174699e+01
   4.067934e+00  -2.861606e+01
   8.970083e+00  -5.310966e+00
  -1.747610e+00   8.605036e+00
  -3.409335e+00   1.348733e+01
  -9.241761e+00  -5.336407e-01
  -4.916133e+00  -8.672094e+00
   7.724820e-01  -6.210107e+00
   5.928631e+00  -1.859970e+00
   6.742512e+00   2.479222e+00
   2.313943e+00  -6.711807e-01
   1.284441e+00  -3.865516e+00
  -1.370934e-01   8.474167e-01
   3.172338e+00   2.796950e+00
  -9.930512e-01   3.634194e+00
  -6.507638e+00   7.735574e+00
  -1.045909e+01  -1.165450e+01
   2.710367e+00  -8.157490e+00
   5.424629e+00  -9.819945e-01
   6.887021e+00   1.643849e+01
   9.755988e-01  -1.432493e-01
  -8.291326e+00   3.771293e-01
  -1.948378e+01   5.358439e+00
  -1.489472e+01  -3.766462e+00
  -9.503413e-01  -6.809578e+00
  -1.637999e+00  -3.418796e+00
   2.167176e+00  -5.451297e+00
  -1.248577e+00   5.650778e+00
  -4.774254e+00  -2.821461e+00
   6.326796e-01  -6.271602e+00
   1.571629e+01  -8.496453e-01
