
 $NMID
 id='ANONYMOUS ', fmtdat='(2E16.6)'
 volume=1.0
 tramp=1.0
 $END
   3.431466e+03  -9.130886e+01
   2.041031e+03   2.233921e+03
  -2.201411e+02   2.374468e+03
  -1.793158e+03   6.115616e+02
  -6.517497e+02  -5.453016e+02
   6.022970e+02  -4.399948e+02
   7.104019e+02   4.036528e+02
   8.644205e+00   8.719343e+02
  -8.256731e+02   7.684805e+02
  -7.305442e+02  -9.376742e+01
  -3.381552e+02  -6.669684e+02
   2.000004e+02  -8.418070e+02
   5.590046e+02  -3.274537e+01
   2.587758e+02   6.524011e+02
  -2.599304e+02   6.334642e+02
  -5.419225e+02  -3.524196e+01
  -2.139598e+02  -6.342557e+02
   3.344932e+02  -5.438844e+02
   4.907569e+02  -7.841919e+01
   3.482805e+02   3.134316e+02
  -1.368400e+01   3.595902e+02
  -2.098728e+02   2.332110e+02
  -1.883859e+02   1.037820e+01
   7.871863e+01  -7.663405e+01
   3.088322e+02   1.031333e+02
   1.612538e+02   4.016626e+02
  -3.663773e+02   3.396959e+02
  -6.340708e+02  -1.144108e+02
  -2.981170e+02  -4.827755e+02
   3.726359e+02  -4.047548e+02
   5.996366e+02   1.543475e+02
   3.324821e+02   4.862745e+02
  -2.313249e+02   4.578865e+02
  -4.917315e+02   1.639755e+02
  -3.600008e+02  -2.185206e+02
  -3.376154e+01  -3.869244e+02
   1.656246e+02  -2.050392e+02
   1.639273e+02   2.001970e+02
  -1.390574e+02   3.797451e+02
  -3.554732e+02   7.289872e+00
  -1.580697e+02  -5.495670e+02
   3.452465e+02  -5.553508e+02
   5.964889e+02   1.971108e+01
   1.601417e+02   5.331748e+02
  -2.670688e+02   2.501079e+02
  -3.354266e+02  -2.556014e+02
   6.266924e+01  -4.998007e+02
   5.121268e+02  -3.060919e+01
   4.889034e+02   3.617806e+02
   1.292949e+02   4.539674e+02
  -3.125061e+02   2.937615e+02
  -4.261167e+02  -8.525874e+01
  -3.079577e+02  -3.685438e+02
   1.672698e+02  -2.799755e+02
   3.369985e+02  -5.634419e+01
   2.359412e+02   1.949751e+02
  -1.293670e+02   8.940374e+01
  -1.254695e+02  -1.408643e+02
   1.214682e+02  -1.748235e+02
   2.652406e+02   6.597142e+01
   1.188060e+02   2.246863e+02
  -1.686559e+02   1.943467e+02
  -3.155882e+02   3.326247e+01
  -1.274485e+02  -8.339903e+01
   2.529645e+00  -1.562121e+02
   1.892916e+02  -2.070937e+02
   2.476476e+02  -1.755918e+02
   2.620701e+02   1.158760e+02
   3.117006e+01   3.752755e+02
  -6.514632e+01   3.043363e+02
  -1.235872e+02   8.858221e+01
  -4.741742e+01  -4.978758e+00
  -6.536588e+01   5.871715e+01
  -1.608664e+02   1.158137e+02
  -2.308399e+02  -4.939246e+01
  -1.223196e+02  -2.148411e+02
   3.841433e+01  -1.790689e+02
   1.748093e+02   4.772330e+00
   1.499218e+02   1.931583e+02
  -9.142877e+00   2.509537e+02
  -2.224055e+02   9.923015e+01
  -2.726941e+02  -1.714449e+02
  -1.567508e+02  -2.952706e+02
   1.044634e+02  -2.702324e+02
   1.988135e+02  -1.109163e+02
   1.013739e+02   4.500311e+00
   9.692794e+01  -1.044249e+01
   1.987030e+02  -2.745148e+01
   3.463404e+02   9.255074e+01
   2.582706e+02   1.913097e+02
  -4.031494e+01   3.403733e+02
  -2.852611e+02   3.225985e+02
  -4.610913e+02   9.609176e+01
  -2.358864e+02  -7.002867e+01
  -4.672726e+01  -2.134612e+02
   1.132756e+02  -2.432670e+02
   7.266453e+01  -2.835205e+01
  -8.620161e+01   1.027464e+02
  -1.718377e+02   2.123002e+01
  -6.037662e+00  -1.637059e+02
   1.331382e+02  -1.386353e+02
   1.319018e+02   7.188541e+01
  -1.948111e+01   1.770280e+02
  -1.636276e+02   4.714946e+01
  -1.298939e+02  -2.485118e+02
   1.472108e+01  -2.612540e+02
   1.943810e+02  -1.465081e+02
   2.812078e+02   6.916138e+01
   2.228916e+02   1.815692e+02
   8.698490e+01   1.961092e+02
  -1.126055e+02   1.355432e+02
  -1.430792e+02   2.008501e+01
  -4.350548e+01  -2.045133e+01
   6.064127e+01   2.565042e+01
   8.958207e+00   9.510875e+01
  -1.039028e+02   8.560895e+01
  -1.532023e+02  -9.511904e+00
  -4.558708e+01  -6.293777e+01
   5.951814e+01  -1.731054e+01
   4.424801e+01   7.256147e+01
  -9.398402e+01   6.376633e+01
  -2.030772e+02   2.755088e+01
  -2.067798e+02  -1.038573e+02
  -6.306538e+01  -2.093026e+02
   1.354755e+02  -1.782389e+02
   2.522742e+02  -7.895159e+01
   1.265163e+02   5.335174e+01
  -1.478875e+01   9.321152e+01
  -7.371760e+01  -6.733229e+00
   3.606274e+01  -7.502503e+01
   1.499039e+02  -3.909971e+01
   1.718861e+02   9.614531e+01
   7.788776e+01   1.650698e+02
  -8.288587e+01   1.377584e+02
  -1.222026e+02   4.319754e+01
  -5.909405e+01  -4.405857e+01
   3.010825e+01  -1.911969e+00
   3.189135e+01   7.906413e+01
  -5.522554e+01   8.997742e+01
  -1.651385e+02   4.949697e+01
  -1.363737e+02  -1.221569e+02
   8.957226e+00  -1.762797e+02
   1.495657e+02  -1.329281e+02
   1.735522e+02  -2.318727e+01
   4.373409e+01   9.172262e+01
  -5.664563e+01   7.689964e+01
  -7.550545e+01   2.503275e+01
  -2.244965e+01  -2.219564e+01
   1.774807e+01  -1.675759e+01
  -4.596266e+00   7.059824e+00
  -4.969038e+01   6.187125e+00
  -6.893831e+01  -5.637482e+01
  -1.400065e+01  -1.107122e+02
   1.347644e+02  -1.033742e+02
   2.116542e+02  -4.469557e+01
   1.764443e+02   1.073088e+02
   4.168675e+01   1.786942e+02
  -9.574667e+01   1.470265e+02
  -1.260401e+02  -5.580464e+00
  -4.854078e+01  -4.907083e+01
  -1.971870e+01  -3.228630e+01
  -4.555870e+01   1.231010e+01
  -7.107169e+01   4.950476e+00
  -3.169021e+01  -4.768525e+01
   5.134780e+01  -6.008878e+01
   5.904746e+01  -4.098582e+01
   7.803050e+01   2.933928e+01
  -2.309367e+01   7.546923e+01
  -1.118616e+02   7.799065e+01
  -1.933964e+02  -4.302496e+01
  -7.816476e+01  -1.533781e+02
   6.177333e+01  -1.922434e+02
   1.848430e+02  -6.802317e+01
   1.623683e+02   4.715917e+01
   7.844423e+01   1.434611e+02
  -2.802727e+01   1.149249e+02
  -6.843472e+01   7.740467e+01
  -8.459717e+01   6.203820e+01
  -5.506473e+01   6.706345e+01
  -8.582152e+01   4.713625e+01
  -9.789923e+01  -1.925172e+01
  -7.518105e+01  -1.061174e+02
   6.722245e+00  -1.850884e+02
   6.607462e+01  -1.393544e+02
   1.243074e+02  -2.419897e+00
   1.089132e+02   1.180272e+02
   1.178958e+01   1.507674e+02
  -6.130083e+01   8.530868e+01
  -5.138116e+01   3.116217e+00
   5.019556e+00  -3.114624e+01
   1.014089e+01  -2.946140e+01
  -2.734209e+01  -1.158315e+01
  -5.905791e+01  -1.529167e+01
  -3.314579e+01  -2.639322e+01
   5.190727e+01  -3.146880e+01
   1.204158e+02  -4.867868e+00
   1.020787e+02   5.420574e+01
   1.457694e+01   6.907670e+01
  -8.144023e+01   4.281867e+01
  -1.181294e+02   2.126965e+01
  -3.509420e+01  -3.999492e+01
   5.275912e+01  -2.629094e+01
   5.255688e+01   2.156682e+01
  -2.806909e+00   5.482436e+01
  -5.264911e+01   4.694936e+01
  -5.136526e+01  -4.177337e+00
  -3.841798e+01  -3.526562e+01
  -3.295893e+01  -3.862396e+01
  -4.668560e+01   1.518271e+00
  -4.779040e+01  -7.262466e+00
  -2.956377e+01  -5.493482e+01
   3.057842e+01  -1.250855e+02
   1.346414e+02  -1.161478e+02
   1.318196e+02  -2.850184e+01
   8.624653e+01   1.114823e+02
   7.659614e+00   1.162507e+02
  -7.504170e+01   3.927398e+01
  -4.940732e+01  -2.219705e+01
   4.484386e+01  -1.916438e+01
   1.177353e+02   3.559771e+01
   3.567864e+01   1.016564e+02
  -6.726461e+01   7.367359e+01
  -1.764737e+02   4.893468e+01
  -1.361606e+02  -2.986550e+01
  -3.587985e+01  -6.923234e+01
   6.046190e+01  -5.607746e+01
   4.418906e+01   2.074702e-01
  -3.195491e+01   1.724156e+01
  -8.304090e+01  -1.756196e+01
  -1.992970e+01  -1.142651e+02
   8.383522e+01  -1.131853e+02
   1.435439e+02  -4.309342e+01
   1.018873e+02   9.747613e+01
   1.870244e+01   1.330691e+02
  -6.313166e+01   1.213368e+02
  -8.600369e+01  -2.269331e+01
  -6.242213e+01  -1.054009e+02
   6.370985e+00  -1.068998e+02
   3.962154e+01  -1.191975e+01
   4.563922e+01   2.144922e+01
   1.984625e+01   7.911335e+00
   6.116590e+00  -1.507394e+01
   1.209997e+01   6.214151e+00
   4.567934e+01   8.921576e+01
   3.540900e+01   8.301751e+01
  -4.325787e+01   3.168771e+01
  -1.147889e+02  -3.386061e+01
  -1.055363e+02  -6.731724e+01
  -9.073790e+00  -5.157400e+01
   6.939231e+01  -1.587455e+01
   7.393662e+01  -1.143350e+01
   8.880784e+00   6.983608e+00
  -3.209581e+01   1.793484e+01
  -1.153296e+01   1.280576e+01
   1.727732e+01  -5.769522e-01
  -5.318319e+00  -8.116544e+00
  -6.103369e+01  -2.773743e+00
  -7.357523e+01  -6.573618e+00
  -4.565065e+00  -5.653622e+01
   9.298622e+01  -9.762534e+01
   1.601582e+02  -3.346828e+01
   1.065601e+02   5.706682e+01
   2.616885e+01   1.119087e+02
  -5.800558e+01   1.215784e+02
  -8.711420e+01   5.173621e+01
  -6.672176e+01  -2.831232e+01
  -2.171352e+01  -3.168058e+01
   4.670295e+00  -5.519770e+00
  -8.626674e+00  -1.049982e+00
  -3.038775e+01  -4.004707e+01
  -2.115100e+01  -7.511579e+01
   1.489262e+01  -5.198213e+01
   6.499152e+01   2.034231e+01
   7.006010e+01   7.765100e+01
  -2.372789e+00   9.716391e+01
  -6.940577e+01   1.379188e+01
  -7.564101e+01  -7.079852e+01
  -2.628434e+01  -8.685899e+01
   6.483884e+01  -4.391757e+01
   7.891787e+01   6.413935e+00
   3.171720e+01   4.111706e+01
  -1.726786e+01   4.664348e+01
  -3.165127e+01   2.634248e+01
   2.639569e+01   5.300024e+00
   4.655792e+01  -1.410669e+01
   1.014637e+01   2.552891e+01
  -6.202575e+01   4.617844e+01
  -1.038284e+02   4.433833e+01
  -4.800151e+01  -1.232321e+01
   6.762821e-01  -6.589813e+01
   5.740629e+01  -6.329214e+01
   3.197747e+01   1.260998e+00
   4.303369e+00   4.213446e+01
  -1.830072e+01   3.528545e+01
  -2.996289e+01  -1.991953e+01
  -2.569817e+01  -4.595204e+01
  -9.756255e-01  -2.677419e+01
   2.858030e+01   9.662270e+00
   3.677538e+01   2.299891e+01
   1.788210e+01   3.242797e+00
  -4.019226e+00  -8.421534e+00
  -4.690411e+00   2.248308e+00
  -8.939178e+00   2.703052e+01
  -1.243719e+01   4.186848e+01
  -3.217409e+01   4.707392e-01
  -2.546906e+01  -4.110850e+01
   5.690822e+00  -5.047673e+01
   4.182189e+01  -1.708846e+01
   4.331520e+01   2.696763e+01
   1.281879e+01   5.329656e+01
  -5.021189e+01   2.451600e+01
  -7.151124e+01  -4.992886e+00
  -3.804944e+01  -3.988764e+01
   2.626942e+01  -2.260626e+01
   5.561866e+01  -1.529206e+01
   2.323877e+01  -4.541715e+00
  -3.257572e+01  -4.743677e+00
  -3.032427e+01  -1.289801e+01
   2.920413e+01  -2.346201e+01
   8.173570e+01  -1.031444e+01
