
 $NMID
 id='ANONYMOUS ', fmtdat='(2E16.6)'
 volume=1.0
 tramp=1.0
 $END
  -3.406974e+03   2.817454e+02
  -2.139611e+03  -1.296277e+03
   4.442709e+02  -2.170167e+03
   1.408336e+03  -1.182857e+03
   9.590293e+02   7.518798e+01
  -2.033487e+02   3.920603e+02
  -5.557922e+02  -1.192716e+02
  -7.043272e+01  -6.550861e+02
   4.076391e+02  -5.269393e+02
   6.965496e+02  -7.050424e+01
   4.409540e+02   5.354844e+02
  -5.091775e+01   6.116799e+02
  -4.411008e+02   2.193122e+02
  -3.593687e+02  -5.289340e+02
   1.325066e+01  -6.096706e+02
   4.305823e+02  -4.895482e+01
   3.301160e+02   4.868099e+02
  -1.715270e+02   5.411533e+02
  -4.683316e+02   1.877263e+02
  -4.387665e+02  -2.154419e+02
  -9.100772e+01  -3.499522e+02
   1.719066e+02  -2.673298e+02
   1.171677e+02  -5.648786e+01
  -1.505174e+02  -2.498297e+01
  -2.913234e+02  -1.624524e+02
  -8.321011e+01  -2.544608e+02
   3.686190e+02  -3.370989e+02
   5.965959e+02  -3.914978e+01
   3.174637e+02   3.367378e+02
  -2.494747e+02   3.716237e+02
  -4.993284e+02  -6.168631e+01
  -2.586988e+02  -3.776198e+02
   2.195015e+02  -3.692942e+02
   3.948537e+02  -1.289129e+02
   2.887759e+02   1.087578e+02
   9.764038e+01   3.036903e+02
  -8.126971e+01   1.646216e+02
  -5.416309e+01  -9.707706e+01
   1.467551e+02  -2.849359e+02
   2.572026e+02   4.861851e+01
   8.240085e+01   4.679863e+02
  -1.518992e+02   5.606115e+02
  -4.308593e+02   4.578562e+01
  -1.750060e+02  -3.428381e+02
   1.586029e+02  -2.061625e+02
   2.384770e+02   2.272017e+02
  -1.206298e+01   4.286320e+02
  -3.865691e+02   1.332668e+02
  -4.844911e+02  -2.640474e+02
  -2.052233e+02  -4.637138e+02
   2.152532e+02  -3.326904e+02
   5.095707e+02   6.821261e+01
   3.828506e+02   2.516507e+02
  -6.735449e+01   2.854469e+02
  -2.442729e+02   8.494642e+01
  -2.025237e+02  -9.038443e+01
   1.953700e+01  -4.660746e+01
   7.293908e+01   5.735129e+01
  -6.519302e+01   6.528160e+01
  -2.187528e+02  -2.672596e+01
  -1.278977e+02  -2.064007e+02
   1.205100e+02  -2.384751e+02
   2.790749e+02  -7.859772e+01
   2.340857e+02   8.516583e+01
  -3.878272e+01   3.047742e+02
  -2.227264e+02   3.646013e+02
  -3.533871e+02   1.965416e+02
  -2.316594e+02  -1.571984e+02
  -7.072238e+01  -3.789002e+02
   3.584761e+01  -3.034920e+02
   5.569538e+01  -1.310222e+02
   2.052723e+01  -5.634238e+01
   6.567712e+01  -8.075956e+01
   1.840305e+02  -8.072454e+01
   2.432889e+02   1.128208e+02
   1.515623e+02   2.194139e+02
  -6.098629e+01   1.942076e+02
  -1.490207e+02   1.195213e+01
  -1.486265e+02  -1.765813e+02
   6.211709e+01  -2.243868e+02
   2.566053e+02  -2.774514e+01
   3.363302e+02   7.686161e+01
   1.787791e+02   3.075976e+02
  -3.827528e+01   2.412763e+02
  -1.625706e+02   1.383091e+02
  -1.552915e+02   3.008644e+01
  -1.356842e+02   6.363991e+01
  -2.171080e+02   6.066500e+01
  -3.788194e+02  -3.452968e+01
  -2.922103e+02  -2.330580e+02
   1.903424e+01  -3.554063e+02
   2.739761e+02  -4.254457e+02
   4.131617e+02  -2.115655e+02
   2.928203e+02   9.975054e+01
   5.473959e+01   2.518507e+02
  -8.449721e+01   1.683391e+02
  -3.508331e+01   3.119645e+01
   1.227041e+02  -7.227790e+01
   1.533230e+02   3.731919e+01
   5.312085e+01   1.240900e+02
  -1.009562e+02   1.120671e+02
  -1.275565e+02  -3.895391e+01
   4.643506e+00  -1.450716e+02
   1.673428e+02  -3.778110e+00
   1.478264e+02   2.100868e+02
   3.232683e+01   3.459042e+02
  -1.998565e+02   1.805213e+02
  -2.156078e+02  -2.154325e+01
  -3.038336e+02  -2.746779e+02
  -7.538517e+01  -2.365444e+02
   1.004754e+02  -1.278181e+02
   1.457114e+02  -2.692837e+01
   4.247166e+01   1.103326e+01
  -5.012806e+01  -4.150546e+01
  -2.280155e+01  -1.065836e+02
   1.096160e+02  -6.411288e+01
   1.530015e+02   1.525913e+01
   4.441052e+01   5.297040e+01
  -8.083812e+01  -5.936482e+00
  -4.652755e+01  -6.196696e+01
   9.944581e+01  -8.138261e+01
   3.017815e+02  -2.685233e+01
   2.560530e+02   1.472659e+02
   3.431798e+01   2.504588e+02
  -1.870430e+02   2.555666e+02
  -2.366945e+02   9.484235e+01
  -1.262615e+02  -2.452926e+01
   4.108307e+01  -9.189230e+01
   6.034476e+01  -1.022986e+01
  -3.365129e+01   7.836710e+01
  -2.005105e+02   5.820433e+01
  -1.739412e+02  -8.716246e+01
  -7.304848e+01  -1.897601e+02
   7.227390e+01  -1.381142e+02
   1.186279e+02  -2.081573e+01
   4.684936e+01   2.614297e+01
  -2.838552e+01  -3.245007e+00
  -3.647782e+01  -1.014902e+02
   9.053212e+01  -1.248601e+02
   1.712645e+02  -6.751860e+00
   1.515277e+02   7.943691e+01
   1.395079e+01   1.959231e+02
  -1.075571e+02   1.539379e+02
  -1.562871e+02   2.376984e+00
  -5.771694e+01  -9.053043e+01
   5.685914e+01  -9.082558e+01
   6.759347e+01  -3.027214e+01
   4.390940e+00   2.685314e+01
  -3.171886e+01   1.094155e+01
   6.127352e+00  -1.814220e+01
   7.877942e+01   1.997518e+00
   9.707837e+01   7.033094e+01
   1.092654e+01   1.356545e+02
  -9.518858e+01   1.408509e+02
  -2.152905e+02   1.601557e+01
  -1.903025e+02  -1.654857e+02
  -4.484316e+01  -2.007467e+02
   6.697889e+01  -1.338445e+02
   1.027631e+02  -2.735121e+01
   6.106476e+01   4.114516e+01
   2.856598e+01   2.468979e+01
   4.622914e+01  -1.670738e+01
   6.836014e+01  -2.924199e+00
   5.179538e+01   3.692286e+01
  -3.814907e+01   7.654430e+01
  -1.046707e+02   5.847710e+01
  -8.437320e+01  -3.682477e+01
   2.643404e+00  -1.086211e+02
   1.655716e+02  -7.636565e+01
   2.016685e+02   5.915068e+01
   9.365026e+01   2.102711e+02
  -8.615705e+01   2.341780e+02
  -2.238238e+02   8.346586e+01
  -2.593256e+02  -6.142798e+01
  -7.824376e+01  -1.444215e+02
   3.699834e+01  -1.365562e+02
   8.047459e+01  -7.103353e+01
   5.915323e+01  -5.859380e+01
   5.690151e+01  -9.120641e+01
   6.721520e+01  -6.953985e+01
   1.285687e+02   2.617137e+01
   1.300566e+02   1.247709e+02
   3.969738e+01   1.967466e+02
  -9.075160e+01   1.273646e+02
  -1.452147e+02   4.077522e+01
  -1.122856e+02  -8.291281e+01
  -8.937655e+00  -1.359690e+02
   4.942456e+01  -6.466295e+01
   5.452872e+01   8.581432e+00
   3.046942e+00   3.749680e+01
  -1.152106e+01   3.694050e+01
   2.941620e+01   1.131145e+01
   6.593133e+01   2.694727e+01
   4.954063e+01   2.773247e+01
  -5.941092e+01   3.837978e+01
  -1.618263e+02  -6.461567e+00
  -1.343423e+02  -4.271094e+01
  -1.673232e+01  -7.497635e+01
   1.005703e+02  -7.955229e+01
   1.070716e+02  -1.754689e+01
   4.663742e+01   4.296429e+01
  -4.983739e+01   5.119013e+01
  -6.220545e+01  -5.341519e+00
  -1.931079e+01  -6.145199e+01
   3.511164e+01  -5.570946e+01
   6.359622e+01  -4.639844e+00
   4.332338e+01   5.002620e+01
   4.247926e+01   2.633229e+01
   4.838161e+01  -1.024200e+00
   5.470556e+01  -7.871459e+00
   4.224061e+01   5.712926e+01
  -6.167016e+00   1.200625e+02
  -1.175617e+02   1.229133e+02
  -1.432982e+02   3.163817e+01
  -1.351763e+02  -6.248674e+01
   1.134670e+01  -1.138764e+02
   6.722649e+01  -6.651083e+01
   4.999423e+01   5.564347e+00
  -6.156765e+01   1.924827e+01
  -1.441261e+02  -3.809265e+01
  -6.409594e+01  -8.571186e+01
   5.342975e+01  -1.101237e+02
   1.967897e+02  -3.310584e+01
   1.397321e+02   2.279930e+01
   3.093744e+01   8.027580e+01
  -5.054291e+01   6.093333e+01
  -3.652464e+01   8.437796e-01
   2.827067e+01  -2.728069e+01
   8.680766e+01   1.438085e+01
   3.607998e+01   1.063143e+02
  -8.010459e+01   1.355396e+02
  -1.469428e+02   6.146134e+01
  -1.085569e+02  -5.985012e+01
   1.013545e+00  -1.987401e+02
   6.180525e+01  -1.437615e+02
   1.004261e+02   6.028557e+00
   4.074627e+01   9.441987e+01
  -2.406592e+00   1.008257e+02
  -4.373765e+01   1.586613e+01
  -4.009767e+01  -2.125432e+01
  -1.740407e+01  -1.814642e+00
  -2.237077e+00   1.590711e+01
  -2.502571e+01  -1.667748e+01
  -5.400878e+01  -7.499196e+01
  -3.770048e+01  -9.401128e+01
   4.460613e+01  -5.101611e+01
   1.264057e+02   3.654752e+01
   1.159452e+02   5.191613e+01
   1.881005e+01   4.054514e+01
  -7.945067e+01   2.859804e+01
  -7.904237e+01   6.332253e+00
  -1.335005e+01  -4.047288e+00
   3.021800e+01  -1.921114e+01
   1.364280e+01  -1.190528e+01
  -1.474780e+01   4.170379e+00
   2.783466e+00   5.589583e+00
   6.100211e+01  -6.667910e+00
   8.175079e+01   2.345475e+01
   2.148023e+01   7.436516e+01
  -9.458034e+01   1.254346e+02
  -1.341944e+02   6.261673e+01
  -1.512744e+02  -6.040100e+01
  -3.363327e+01  -1.529553e+02
   4.327858e+01  -1.561395e+02
   8.673535e+01  -5.138076e+01
   7.775782e+01   8.401547e+00
   2.769407e+01   2.961943e+01
   6.883027e-01   1.027708e+01
   1.115661e+01   5.832193e+00
   3.303614e+01   4.761178e+01
   1.553982e+01   7.390163e+01
  -1.536479e+01   7.083013e+01
  -6.960178e+01  -1.568311e+01
  -7.477071e+01  -9.720410e+01
  -1.560287e+01  -8.930137e+01
   6.757981e+01  -1.683757e+01
   1.004636e+02   2.867867e+01
   3.431377e+01   8.969645e+01
  -6.511871e+01   6.520139e+01
  -9.153892e+01  -1.346532e+01
  -3.605143e+01  -4.427446e+01
   2.955473e+01  -6.060474e+01
   3.604891e+01  -2.652569e+01
  -2.209039e+01   4.199989e+00
  -6.240642e+01   1.330211e+01
  -1.540031e+01  -1.902874e+01
   6.255527e+01  -6.450164e+01
   9.423549e+01  -5.474141e+01
   5.504548e+01   1.396149e+01
  -3.412377e+00   8.134199e+01
  -3.167064e+01   7.576000e+01
  -3.235847e+01   1.729699e+01
  -9.175029e+00  -4.372253e+01
   1.102826e+01  -4.092945e+01
   3.296583e+01   9.259969e+00
   2.932435e+01   4.548595e+01
   6.241481e+00   3.143140e+01
  -2.724928e+01  -4.351220e+00
  -3.448085e+01  -1.558763e+01
  -1.918883e+01  -2.316062e+00
   3.841445e+00   1.345674e+01
   5.061807e+00   3.769517e+00
   2.441135e+00  -2.948781e+01
  -2.245765e-01  -4.419736e+01
   2.228658e+01  -1.842584e+01
   3.622626e+01   2.424706e+01
   1.839762e+01   5.224454e+01
  -4.199442e+01   2.255109e+01
  -6.489491e+01  -2.634884e+01
  -2.054528e+01  -5.303693e+01
   4.618850e+01  -3.511484e+01
   8.263710e+01   7.554458e+00
   4.714941e+01   3.704911e+01
  -2.034028e+01   3.582119e+01
  -5.860558e+01   2.688892e+01
  -2.190811e+01   6.798538e+00
   2.357614e+01  -4.615087e+00
   3.426415e+01   6.835181e+00
  -1.867899e+01   2.795565e+01
  -6.366821e+01   3.468607e+01
