
 $NMID
 id='ANONYMOUS ', fmtdat='(2E16.6)'
 volume=1.0
 tramp=1.0
 $END
   2.971535e+03   4.473910e+02
   1.367328e+03   1.669406e+03
  -2.900523e+02   1.153214e+03
  -6.096134e+02   8.461792e+02
  -7.605107e+02   2.162255e+02
   2.945411e+00  -4.010472e+01
   2.024459e+02   2.343944e+02
  -5.527874e+01   5.177944e+02
  -3.295995e+02   4.202593e+02
  -5.010531e+02  -3.003037e+01
  -2.169060e+02  -4.959185e+02
   5.636104e+01  -5.123354e+02
   2.140728e+02  -1.849630e+02
  -4.080756e+00   3.590502e+02
  -2.284249e+02   5.006504e+02
  -3.532165e+02   7.675069e+01
  -2.399969e+02  -4.626919e+02
   7.202592e+01  -5.671664e+02
   4.249018e+02  -1.912966e+02
   3.601532e+02   1.739690e+02
   1.522868e+02   2.935358e+02
  -1.050205e+02   1.592560e+02
  -3.123405e+01   6.952567e+01
   1.895901e+02   9.651018e+01
   2.415583e+02   3.353591e+02
   8.284503e+00   3.541946e+02
  -4.422093e+02   1.248403e+02
  -6.300473e+02  -2.656525e+02
  -1.563433e+02  -3.883062e+02
   3.468927e+02  -1.869648e+02
   4.251279e+02   1.258447e+02
   1.522769e+02   3.023094e+02
  -2.677990e+02   2.827537e+02
  -4.482879e+02   9.598552e+01
  -2.495872e+02  -1.095379e+02
   2.108484e+00  -2.411583e+02
   4.332074e+01  -1.260607e+02
  -6.642900e+01   4.834643e+01
  -1.989898e+02   9.123391e+01
  -1.921114e+02  -1.649624e+02
   8.605189e+01  -4.585998e+02
   3.087477e+02  -4.248275e+02
   2.879012e+02   9.096689e+01
   4.746109e+01   3.129882e+02
  -1.527364e+02   7.271990e+01
  -1.276566e+02  -3.016524e+02
   1.346490e+02  -3.029653e+02
   3.821396e+02  -3.869847e+01
   4.327058e+02   3.154443e+02
   7.694744e+01   4.004710e+02
  -3.085793e+02   1.615485e+02
  -3.567465e+02  -1.258659e+02
  -2.484138e+02  -2.104123e+02
   2.340595e+01  -1.356697e+02
   2.384753e+02   4.897927e+00
   1.515344e+02   6.795235e+01
   5.914237e+00   9.247218e+00
  -1.392247e+01  -8.029846e+01
   8.580752e+01  -4.357197e+01
   2.001480e+02   8.485629e+01
   8.043559e+01   1.436560e+02
  -1.547409e+02   1.895044e+02
  -2.941500e+02   7.607687e+01
  -2.453493e+02  -7.398582e+01
   5.591774e+01  -2.872994e+02
   3.152147e+02  -2.917727e+02
   3.410893e+02  -1.471701e+02
   1.558667e+02   1.211624e+02
   3.397794e+01   2.982180e+02
  -3.802157e+01   2.673358e+02
   5.976119e+00   1.448806e+02
  -1.964403e+01   1.026341e+02
  -1.447454e+02   1.274796e+02
  -2.466912e+02   6.395612e+01
  -1.645866e+02  -9.993064e+01
  -7.158985e+01  -2.496266e+02
   1.169765e+02  -1.321465e+02
   1.679997e+02   5.538404e+01
   6.547648e+01   2.016545e+02
  -4.307149e+01   1.811006e+02
  -1.998639e+02   3.926009e+01
  -2.428849e+02  -2.351279e+02
  -9.165257e+01  -2.442024e+02
   4.236309e+01  -2.140590e+02
   1.302907e+02  -8.890873e+01
   1.087843e+02  -5.018813e+01
   1.322086e+02  -4.358644e+01
   2.561646e+02  -3.844823e+01
   3.217757e+02   8.622524e+01
   2.366778e+02   2.924323e+02
  -1.241957e+02   4.058134e+02
  -3.850064e+02   2.772775e+02
  -5.098458e+02   1.168135e+02
  -2.274002e+02  -1.307932e+02
   3.163925e+01  -2.112290e+02
   1.006599e+02  -1.576520e+02
   5.630119e+00  -2.981463e+01
  -1.102679e+02  -8.062557e+00
  -9.901204e+01  -5.241000e+01
   1.673956e+01  -1.371735e+02
   1.362999e+02  -7.199089e+01
   7.257895e+01   7.215050e+01
  -7.131534e+01   1.189933e+02
  -1.390372e+02  -3.495952e+01
  -1.098141e+02  -1.805800e+02
   5.957593e+01  -2.261572e+02
   1.965607e+02  -1.440815e+02
   3.141914e+02   4.968019e+01
   1.927147e+02   2.388457e+02
   3.875961e+01   2.331109e+02
  -1.300733e+02   1.332833e+02
  -1.118571e+02  -1.629128e+01
  -1.930541e+01  -2.344051e+01
   4.122362e+01   4.930809e+01
  -2.517596e+01   9.000153e+01
  -1.070807e+02   4.243050e+01
  -1.423888e+02  -5.166078e+01
  -1.870468e+01  -5.525848e+01
   6.378839e+01   3.197728e+01
   2.432578e+01   8.978622e+01
  -1.393004e+02   8.889814e+01
  -2.629407e+02  -6.521016e+01
  -1.997662e+02  -1.673779e+02
   2.142437e+01  -2.080609e+02
   1.819798e+02  -1.705429e+02
   2.077813e+02  -4.589453e+01
   9.764255e+01   5.800297e+01
  -4.180940e+01   6.417946e+01
  -6.005996e+01  -1.051969e+01
   5.241197e+01  -6.226169e+01
   1.424484e+02   4.748228e+00
   1.799694e+02   1.353235e+02
   3.870860e+01   1.525541e+02
  -7.480915e+01   1.161103e+02
  -1.076644e+02  -4.984951e+00
  -3.865552e+01  -2.938827e+01
   4.498771e+01   2.417638e+01
   2.222487e+01   1.083723e+02
  -9.925618e+01   9.074427e+01
  -1.877651e+02  -2.033590e+01
  -1.355300e+02  -1.262905e+02
  -1.110180e+00  -1.639269e+02
   1.522325e+02  -1.199052e+02
   1.353220e+02   7.431552e+00
   4.591257e+01   7.830717e+01
  -5.835031e+01   6.541062e+01
  -5.670471e+01   1.045707e+01
  -3.099652e-01  -1.889138e+01
   3.105191e+01  -9.279165e+00
  -5.998936e+00   2.396602e+01
  -6.848113e+01   7.171023e-02
  -7.564205e+01  -7.440365e+01
  -2.878457e+00  -1.487306e+02
   1.142076e+02  -1.239318e+02
   2.073748e+02   2.891819e+01
   1.579215e+02   1.601792e+02
   1.726362e+00   1.792025e+02
  -1.018491e+02   1.390662e+02
  -1.236241e+02   2.236455e+01
  -5.213036e+01  -3.386136e+01
  -2.983780e+01  -2.677220e+01
  -4.951812e+01   9.936279e+00
  -8.350345e+01   1.208919e+01
  -4.391839e+01  -5.168514e+01
   4.112471e+01  -9.898219e+01
   1.040687e+02  -4.807552e+01
   8.707775e+01   3.554151e+01
  -2.522179e+01   1.283624e+02
  -1.678942e+02   5.543889e+01
  -1.819754e+02  -4.772316e+01
  -4.966629e+01  -2.152255e+02
   1.389262e+02  -1.750960e+02
   2.313020e+02  -5.199891e+01
   2.345806e+02   1.230514e+02
   8.640572e+01   1.363883e+02
  -5.176479e+01   1.059670e+02
  -7.980375e+01   6.089956e+01
  -6.545623e+01   5.749456e+01
  -6.017669e+01   7.030857e+01
  -9.466218e+01   6.259116e+01
  -1.203784e+02  -1.249988e+01
  -9.076653e+01  -1.293869e+02
  -6.378677e+00  -1.804250e+02
   7.280571e+01  -1.609379e+02
   1.626634e+02   9.418030e+00
   1.077846e+02   1.058408e+02
  -7.743748e+00   1.433925e+02
  -6.880323e+01   6.470126e+01
  -5.612523e+01  -1.717902e+01
  -1.630864e+00  -4.547170e+01
   2.865737e+01  -3.211141e+01
  -1.800915e+01  -1.241179e+01
  -6.999743e+01  -1.724798e+01
  -3.504489e+01  -4.259830e+01
   6.179260e+01  -3.102957e+01
   1.469078e+02   2.180464e+01
   1.057830e+02   6.808333e+01
   2.053321e-01   9.279393e+01
  -1.194866e+02   5.770321e+01
  -1.381368e+02  -2.018338e+00
  -4.112491e+01  -4.738931e+01
   5.300503e+01  -2.823719e+01
   7.138580e+01   2.394091e+01
   2.075157e+01   7.259478e+01
  -3.717609e+01   5.657694e+01
  -6.457354e+01  -6.347157e+00
  -4.320194e+01  -4.352918e+01
  -4.652909e+01  -4.578627e+01
  -5.165060e+01  -1.785814e+00
  -5.362767e+01  -6.563674e+00
  -3.208600e+01  -6.775684e+01
   3.456729e+01  -1.387124e+02
   9.052126e+01  -1.342929e+02
   1.565128e+02  -2.573524e+01
   1.195480e+02   8.505810e+01
  -1.783205e+01   1.106344e+02
  -8.579831e+01   4.533764e+01
  -6.235618e+01  -1.159084e+01
   4.685261e+01  -1.802986e+01
   1.068959e+02   3.869060e+01
   6.264797e+01   9.669802e+01
  -8.019275e+01   7.972725e+01
  -1.734965e+02   3.961326e+01
  -1.367847e+02  -5.214782e+01
  -1.930450e+01  -5.959374e+01
   6.158020e+01  -4.796849e+01
   4.760108e+01   2.863533e+00
  -3.445232e+01   3.071469e+01
  -7.668383e+01  -2.136750e+01
  -3.727997e+01  -1.057299e+02
   5.558959e+01  -1.270163e+02
   1.240366e+02  -5.880604e+01
   1.006708e+02   9.071854e+01
  -7.175119e+00   1.398506e+02
  -7.533320e+01   1.012193e+02
  -8.852734e+01  -2.409384e+01
  -3.399567e+01  -1.101233e+02
   2.814714e+01  -8.437736e+01
   5.676542e+01  -1.239621e+01
   3.543153e+01   2.488920e+01
   1.197632e+01   1.152604e+01
   4.491963e+00  -1.404324e+01
   2.566381e+01   2.062224e+01
   5.608382e+01   8.638104e+01
   4.268064e+00   9.804880e+01
  -5.848632e+01   3.345946e+01
  -1.136957e+02  -3.943762e+01
  -1.156199e+02  -7.871524e+01
  -1.331431e+01  -4.172414e+01
   7.847896e+01  -2.397061e+01
   7.317683e+01  -6.728260e+00
   1.848223e+01   8.331788e+00
  -3.171044e+01   1.667431e+01
  -1.726191e+01   1.099440e+01
   1.159380e+01  -1.277416e+00
  -1.600965e+00  -3.784530e+00
  -4.695871e+01  -9.050230e+00
  -7.333293e+01  -3.348093e+01
  -1.915855e+01  -8.159727e+01
   1.062074e+02  -9.836486e+01
   1.570287e+02  -4.574647e+01
   1.359057e+02   4.092200e+01
   1.085214e+01   1.382069e+02
  -8.000527e+01   1.068354e+02
  -1.037360e+02   6.311196e+01
  -6.912303e+01  -2.253766e+01
  -2.257506e+01  -3.591256e+01
  -2.096206e+00  -1.020784e+01
  -1.256040e+01  -8.407088e+00
  -1.781810e+01  -3.994224e+01
   2.499080e+00  -8.221577e+01
   2.591173e+01  -5.748912e+01
   7.327018e+01   1.371058e+01
   4.067667e+01   8.390831e+01
   1.176517e+01   9.636682e+01
  -7.140327e+01   3.230323e+01
  -1.035388e+02  -6.643435e+01
  -4.324614e+01  -7.551762e+01
   4.402974e+01  -4.038524e+01
   8.044081e+01   1.603957e+01
   3.151932e+01   5.365261e+01
  -4.024884e+01   4.408715e+01
  -3.508484e+01   1.850414e+01
   2.097340e+01  -4.267672e+00
   5.317037e+01   2.505810e+00
   1.757553e+01   2.638343e+01
  -7.539225e+01   4.881420e+01
  -1.144163e+02   3.329779e+01
  -5.764381e+01  -7.816983e+00
   2.660674e+01  -7.048424e+01
   5.484194e+01  -7.218586e+01
   3.855797e+01  -1.136820e+01
   8.825467e-01   4.387164e+01
  -2.321823e+01   4.267454e+01
  -2.680100e+01  -1.157987e+01
  -2.009604e+01  -4.125549e+01
   9.848550e-01  -3.313850e+01
   2.804019e+01   8.874631e+00
   3.852410e+01   2.515909e+01
   1.843291e+01   5.811104e+00
  -1.889323e+00  -1.619178e+01
  -6.952234e+00  -1.067116e+01
   4.334931e+00   2.681791e+01
  -3.899750e+00   4.619662e+01
  -2.004499e+01   1.744906e+01
  -2.957614e+01  -2.221362e+01
  -1.438522e+01  -5.074904e+01
   3.398908e+01  -2.644098e+01
   5.376738e+01   3.030229e+01
   1.076601e+01   4.656523e+01
  -4.092946e+01   2.982140e+01
  -6.908410e+01  -2.056738e+01
  -3.919311e+01  -3.818417e+01
   2.487146e+01  -3.662683e+01
   5.309574e+01  -2.058805e+01
   2.660447e+01  -5.596106e+00
  -2.264033e+01  -2.226504e+00
  -2.817817e+01  -8.216434e+00
   2.116722e+01  -2.000077e+01
   7.865376e+01  -2.123453e+01
