
 $NMID
 id='ANONYMOUS ', fmtdat='(2E16.6)'
 volume=1.0
 tramp=1.0
 $END
   1.991775e+03   4.419468e+02
   1.626148e+03   1.138450e+03
   8.598549e+01   1.784252e+03
  -1.118820e+03   1.262602e+03
  -8.621078e+02   3.264605e+02
  -2.563789e+02  -7.657311e+01
   2.604227e+02  -5.193233e+01
   1.512183e+02   3.066393e+02
  -3.566580e+02   4.652990e+02
  -5.745751e+02   1.424440e+02
  -3.767966e+02  -5.121606e+02
  -7.838618e+01  -4.274650e+02
   1.971656e+02  -1.645883e+02
   1.706110e+02   2.885500e+02
  -1.675537e+01   3.970280e+02
  -2.956556e+02   1.271306e+02
  -3.089109e+02  -3.784232e+02
   5.944345e+01  -4.312144e+02
   3.663553e+02  -2.267637e+02
   3.995905e+02   4.113772e+01
   1.764014e+02   3.233173e+02
  -9.863449e+01   2.033298e+02
  -1.897138e+01   1.064318e+02
   1.889269e+02   1.165949e+02
   2.083293e+02   2.013373e+02
  -9.052482e+01   2.397800e+02
  -3.240580e+02   7.565664e+01
  -4.420500e+02  -1.326666e+02
  -1.943032e+02  -1.750695e+02
   2.076038e+02  -1.668177e+02
   3.462145e+02   1.282255e+02
   1.385340e+02   2.825100e+02
  -1.590498e+02   2.610739e+02
  -3.581165e+02   1.092356e+02
  -2.631666e+02  -1.497759e+02
  -1.679458e+02  -1.725826e+02
   1.359605e+00  -1.483219e+02
  -4.373110e+01   8.961499e+01
  -1.162143e+02   9.769494e+01
  -6.657683e+01  -1.485999e+02
   6.119414e+01  -4.024753e+02
   1.206994e+02  -2.526560e+02
   1.935106e+02   5.752233e+01
   7.387134e+01   1.496209e+02
  -1.022650e+02   1.076585e+02
  -1.069690e+02  -2.210509e+02
   7.888779e+01  -2.575699e+02
   2.703388e+02  -1.962408e+01
   3.855117e+02   3.206693e+02
   1.265639e+02   3.947247e+02
  -1.689223e+02   1.718193e+02
  -3.857087e+02  -1.043866e+02
  -2.815431e+02  -1.783949e+02
   4.074287e+01  -2.297004e+02
   2.357136e+02  -1.147069e+02
   1.985718e+02  -9.962242e+00
   1.571179e+01  -1.547783e+00
  -2.767659e+01  -5.511967e+00
   7.075328e+01  -4.229962e+01
   1.866554e+02  -9.152325e+00
   1.558384e+02   1.293012e+02
  -1.015003e+02   2.223219e+02
  -3.354947e+02   9.162881e+01
  -2.147770e+02  -9.321992e+01
  -3.633226e+00  -2.928289e+02
   2.947207e+02  -2.993662e+02
   2.930478e+02  -1.061791e+02
   1.852335e+02   1.825944e+02
   1.895039e+01   2.743536e+02
   1.638405e+01   2.590665e+02
  -2.742123e+00   1.297700e+02
  -4.273622e+01   1.349866e+02
  -1.119146e+02   9.990367e+01
  -2.115136e+02   1.281774e+01
  -2.339610e+02  -1.343344e+02
  -8.155639e+01  -1.547113e+02
   4.363392e+01  -1.493763e+02
   1.293263e+02   3.752194e+01
   1.364883e+02   2.211871e+02
  -7.078552e+01   2.349818e+02
  -2.473886e+02   2.548575e+01
  -1.818405e+02  -1.472096e+02
  -1.612188e+02  -2.319174e+02
   2.811599e+01  -2.071482e+02
   1.384495e+02  -9.754338e+01
   1.395423e+02  -7.706805e+01
   1.292864e+02  -6.892907e+01
   2.396560e+02  -3.164384e+01
   3.321547e+02   8.584836e+01
   2.789175e+02   2.954608e+02
  -2.838112e+01   3.915914e+02
  -3.238565e+02   4.128491e+02
  -3.704935e+02   5.905868e+01
  -1.962493e+02  -6.614624e+01
   8.321340e+00  -2.413486e+02
   6.867605e+01  -1.296700e+02
   1.109880e+01  -4.427637e+01
  -1.139125e+02   1.702022e+01
  -1.177336e+02  -5.020564e+01
   2.282261e+01  -1.115973e+02
   1.019056e+02  -7.743955e+01
   5.667633e+01   4.739035e+01
  -2.896350e+01   9.657166e+01
  -1.371140e+02  -8.976883e+00
  -1.302082e+02  -1.703439e+02
   3.196087e+00  -2.811501e+02
   1.873995e+02  -1.485088e+02
   3.104501e+02   1.203271e+02
   2.435843e+02   2.639399e+02
   3.108498e+01   2.460546e+02
  -1.217225e+02   8.890637e+01
  -1.225564e+02  -4.753339e+00
  -2.485197e+01  -8.340769e+00
   3.060494e+01   5.221294e+01
  -3.564594e+01   8.677538e+01
  -1.104293e+02   6.495154e+01
  -1.143860e+02  -4.741301e+01
  -9.642165e+00  -4.919656e+01
   6.919510e+01   1.667045e+01
   2.711908e+01   7.903669e+01
  -1.177009e+02   6.052454e+01
  -3.043984e+02  -1.347487e+01
  -2.539082e+02  -1.132884e+02
  -2.229341e+01  -2.490276e+02
   1.684397e+02  -1.738366e+02
   2.330931e+02  -8.273051e+01
   9.798554e+01   4.184172e+01
  -2.352726e+01   5.409820e+01
  -3.982160e+01  -8.864481e+00
   5.469887e+01  -7.063882e+01
   1.476084e+02  -2.535815e+01
   1.449998e+02   8.119578e+01
   6.353610e+01   1.636716e+02
  -6.735388e+01   1.200002e+02
  -9.969722e+01   1.388052e+01
  -3.507314e+01  -2.082134e+01
   3.739715e+01   3.307893e+01
   2.742649e+01   1.129017e+02
  -9.545358e+01   9.873214e+01
  -2.087525e+02   7.259316e+00
  -1.598915e+02  -1.066425e+02
   1.217526e+01  -1.730807e+02
   9.722239e+01  -1.124378e+02
   1.448831e+02  -1.736554e+01
   3.891306e+01   7.768227e+01
  -4.885556e+01   9.348945e+01
  -5.528919e+01   1.953382e+01
   5.362296e+00  -2.208292e+01
   3.270688e+01  -2.701991e+00
  -8.497078e+00   3.485041e+01
  -8.129055e+01  -4.645190e+00
  -9.370402e+01  -9.687013e+01
   6.158821e+00  -1.656023e+02
   1.157050e+02  -1.117150e+02
   2.029368e+02   3.075585e+01
   1.784050e+02   1.372453e+02
   4.276821e+01   2.204250e+02
  -1.175869e+02   9.847014e+01
  -1.025474e+02   3.787351e+01
  -6.210847e+01  -5.133721e+01
  -2.494651e+01  -2.497719e+01
  -4.702917e+01   1.387861e+01
  -7.719666e+01   7.458121e-01
  -5.075460e+01  -4.574429e+01
   3.714289e+01  -8.846091e+01
   1.284181e+02  -6.418231e+01
   9.689850e+01   4.433611e+01
  -2.286653e+01   1.141316e+02
  -1.589403e+02   9.328881e+01
  -1.751759e+02  -8.768450e+01
  -5.400013e+01  -1.746743e+02
   1.157308e+02  -2.071866e+02
   2.588156e+02  -5.775704e+01
   2.276988e+02   6.450661e+01
   8.113495e+01   1.472572e+02
  -2.277324e+01   1.306134e+02
  -8.963119e+01   4.221582e+01
  -6.049916e+01   5.335731e+01
  -4.711929e+01   1.061188e+02
  -7.051906e+01   5.995716e+01
  -1.220842e+02  -2.429771e+01
  -1.023792e+02  -1.101736e+02
  -6.113891e+00  -1.785172e+02
   1.001173e+02  -1.570791e+02
   1.178179e+02   7.379215e+00
   9.803917e+01   9.489712e+01
  -1.055509e+01   1.296851e+02
  -6.677314e+01   6.369610e+01
  -5.656685e+01  -2.065207e+01
   1.146069e+01  -4.527480e+01
   2.543767e+01  -2.232775e+01
  -2.519411e+01  -1.024994e+01
  -7.446681e+01  -2.392613e+01
  -4.777896e+01  -3.703174e+01
   6.985117e+01  -3.535795e+01
   1.426132e+02   3.018902e+00
   1.333253e+02   4.429686e+01
   1.524341e+00   9.110675e+01
  -1.244312e+02   4.806533e+01
  -1.196122e+02  -1.546404e+01
  -2.377366e+01  -3.962449e+01
   4.624264e+01  -3.335731e+01
   5.468753e+01   1.788345e+01
   9.277710e+00   5.998184e+01
  -3.909892e+01   5.759411e+01
  -6.313076e+01   1.531175e+01
  -4.970429e+01  -5.325535e+01
  -3.943364e+01  -3.136424e+01
  -4.028836e+01   3.792662e+00
  -5.294905e+01  -3.148707e+00
  -4.108972e+01  -7.580644e+01
   4.103563e+01  -1.231643e+02
   1.168817e+02  -9.470443e+01
   1.506179e+02  -3.433331e+01
   9.591588e+01   9.724015e+01
   4.413333e+00   1.330999e+02
  -8.119031e+01   4.946183e+01
  -6.113724e+01  -9.290519e+00
   5.188211e+01  -1.732652e+01
   1.126986e+02   3.394873e+01
   4.333870e+01   8.974034e+01
  -6.370453e+01   8.449672e+01
  -1.637873e+02   4.851167e+01
  -1.220452e+02  -3.191609e+01
  -2.740638e+01  -5.812532e+01
   5.545340e+01  -5.123491e+01
   4.173477e+01   2.471820e+00
  -3.418209e+01   2.592637e+01
  -8.330231e+01  -1.278756e+01
  -4.508787e+01  -1.129902e+02
   8.198102e+01  -1.172074e+02
   1.295418e+02  -6.194931e+01
   9.717586e+01   9.607247e+01
   2.639465e+01   1.618683e+02
  -7.050646e+01   1.314514e+02
  -8.677782e+01  -7.232783e+00
  -1.298263e+01  -1.156698e+02
   2.187406e+01  -8.594571e+01
   4.492905e+01  -1.340400e+01
   3.859178e+01   2.807387e+01
   1.113376e+01   2.106744e+00
   3.068798e+00  -1.341036e+01
   2.807881e+01   2.156142e+01
   4.323741e+01   7.156198e+01
   4.116495e+01   9.369532e+01
  -4.065146e+01   3.264936e+01
  -1.238322e+02  -4.160377e+01
  -9.941583e+01  -5.138897e+01
  -1.409976e+01  -5.056126e+01
   6.008833e+01  -2.947237e+01
   7.456128e+01  -1.572226e+00
   1.418278e+01   1.136040e+01
  -2.518488e+01   2.051000e+01
  -2.168173e+01   9.927147e+00
   1.224728e+01  -4.764542e+00
  -9.528795e-01  -5.095153e+00
  -5.002006e+01   1.362620e+00
  -8.862615e+01  -1.879198e+01
  -2.818954e+01  -7.005312e+01
   8.655286e+01  -9.974257e+01
   1.363870e+02  -4.658626e+01
   1.251712e+02   4.444843e+01
   2.029438e+01   1.363084e+02
  -5.960050e+01   1.566187e+02
  -9.615711e+01   4.434113e+01
  -6.411890e+01  -1.440414e+01
  -2.763463e+01  -3.822725e+01
  -3.803716e+00  -1.494166e+01
  -1.534144e+01  -9.540258e+00
  -2.411625e+01  -3.970433e+01
   3.463917e-01  -7.267009e+01
   1.662926e+01  -6.048768e+01
   6.198550e+01   1.855051e+01
   8.111345e+01   9.642701e+01
   2.983755e+00   9.525459e+01
  -6.662972e+01   3.022115e+01
  -8.728902e+01  -4.960334e+01
  -4.743468e+01  -9.920604e+01
   5.013418e+01  -6.236483e+01
   1.040324e+02   7.295393e+00
   4.421383e+01   4.753897e+01
  -3.677817e+01   5.325005e+01
  -3.587849e+01   2.550651e+01
   1.819778e+01  -8.155759e+00
   6.193019e+01  -3.302460e+00
   1.680686e+01   2.093190e+01
  -7.493663e+01   5.632022e+01
  -8.254946e+01   4.013052e+01
  -6.849599e+01  -2.256495e+01
   9.571771e+00  -7.968621e+01
   4.094451e+01  -6.682187e+01
   3.902184e+01  -1.311393e+01
   1.281866e+01   3.955697e+01
  -1.732466e+01   4.708594e+01
  -3.217822e+01  -9.803060e+00
  -3.139368e+01  -4.600171e+01
   1.427113e+00  -4.119307e+01
   2.871762e+01   2.290231e+00
   4.358289e+01   2.234209e+01
   1.529814e+01   4.097661e+00
  -3.388516e+00  -1.905203e+01
  -4.700655e+00  -8.962979e+00
   5.318989e+00   2.495744e+01
   1.712779e+00   4.803576e+01
  -2.115170e+01   2.531120e+01
  -4.093086e+01  -2.792549e+01
  -2.244386e+01  -4.802836e+01
   3.386837e+01  -2.140412e+01
   6.585482e+01   2.614406e+01
   2.222195e+01   5.201982e+01
  -4.343959e+01   3.144380e+01
  -8.982406e+01  -1.781195e+01
  -4.698625e+01  -3.683506e+01
   2.403410e+01  -4.076110e+01
   5.922302e+01  -2.380698e+01
   2.804928e+01  -3.291449e+00
  -1.637273e+01   4.844076e+00
  -2.506562e+01  -1.766906e+00
   1.455120e+01  -1.590825e+01
   5.451433e+01  -2.086956e+01
