
 $NMID
 id='ANONYMOUS ', fmtdat='(2E16.6)'
 volume=1.0
 tramp=1.0
 $END
  -2.938433e+03   2.202446e+02
  -2.303669e+03  -1.077417e+03
   2.116256e+02  -2.244223e+03
   1.354627e+03  -9.619870e+02
   1.146335e+03  -1.451108e+00
  -7.926949e+01   2.390383e+02
  -4.715302e+02  -6.038565e+01
  -8.196314e+01  -4.699451e+02
   5.090773e+02  -4.523863e+02
   6.736706e+02  -1.885573e+00
   3.717717e+02   6.052445e+02
   6.237330e+01   6.101284e+02
  -3.429712e+02   1.508023e+02
  -2.264907e+02  -4.114575e+02
   5.575148e+01  -4.803129e+02
   3.568986e+02  -9.352822e+01
   3.501605e+02   4.365961e+02
  -9.794062e+01   6.577911e+02
  -4.012150e+02   2.520419e+02
  -3.851542e+02  -1.563183e+02
  -3.694197e+01  -4.105231e+02
   1.566576e+02  -2.171810e+02
   8.008553e+01  -7.446083e+01
  -1.460481e+02  -6.749301e+01
  -2.835665e+02  -1.788832e+02
  -3.991477e+01  -3.479237e+02
   4.471153e+02  -1.262931e+02
   6.493309e+02   6.003543e+01
   2.914602e+02   3.068143e+02
  -2.901311e+02   2.185121e+02
  -4.623861e+02  -1.294518e+02
  -1.768584e+02  -3.375855e+02
   2.647480e+02  -3.182111e+02
   3.681136e+02  -1.501567e+02
   2.798447e+02   1.735634e+02
   1.247577e+02   3.413660e+02
  -3.441263e+01   2.029751e+02
   5.396025e+00  -9.218256e+01
   1.335913e+02  -1.872078e+02
   2.287222e+02   7.211818e+01
   1.107402e+02   4.850261e+02
  -1.696503e+02   4.939058e+02
  -3.301968e+02   2.795642e+01
  -1.706254e+02  -2.881034e+02
   1.546855e+02  -1.392277e+02
   1.836479e+02   2.557652e+02
  -6.164105e+01   3.663574e+02
  -4.234565e+02   7.371191e+01
  -3.813959e+02  -3.806246e+02
  -1.082091e+02  -4.524019e+02
   2.643937e+02  -2.817059e+02
   6.014349e+02   4.262067e+01
   3.243468e+02   2.498847e+02
  -6.464051e+01   2.013120e+02
  -3.146882e+02   1.584204e+02
  -1.797953e+02   1.709062e+01
  -1.927215e+01  -3.754094e+01
   5.185075e+01   3.799224e+01
  -7.972081e+01   4.691974e+01
  -1.960308e+02  -4.528056e+01
  -1.082469e+02  -1.861703e+02
   1.012688e+02  -2.511838e+02
   3.181180e+02  -1.411010e+02
   2.170568e+02   1.207052e+02
  -3.620766e+01   2.947109e+02
  -2.817829e+02   3.332609e+02
  -3.294441e+02   1.110978e+02
  -1.992626e+02  -1.554935e+02
  -4.631348e+01  -3.416633e+02
   9.225242e+00  -3.039967e+02
   3.291957e+01  -1.516126e+02
   5.380569e+01  -8.041803e+01
   9.096138e+01  -1.397894e+02
   2.069603e+02  -4.195959e+01
   2.243691e+02   1.381221e+02
   1.114466e+02   2.395367e+02
  -8.269149e+01   1.672596e+02
  -1.951327e+02  -1.577397e+01
  -1.163610e+02  -2.182644e+02
   5.794053e+01  -2.310509e+02
   2.402790e+02  -1.361917e+01
   2.640856e+02   1.475894e+02
   1.496280e+02   2.895126e+02
  -7.863637e+01   2.276279e+02
  -1.831463e+02   1.690898e+02
  -1.363418e+02   3.605177e+01
  -1.303152e+02   5.769809e+01
  -2.549545e+02   1.008718e+01
  -3.628130e+02  -1.489643e+02
  -3.265646e+02  -2.557027e+02
  -8.383580e+00  -3.795161e+02
   3.954176e+02  -3.680614e+02
   3.972546e+02  -2.046877e+02
   2.613795e+02   5.998872e+01
   1.045092e+01   2.571967e+02
  -5.543156e+01   2.154119e+02
  -1.517001e+01   3.441532e+01
   1.053348e+02  -3.440622e+01
   1.087743e+02   5.068248e+01
   2.101907e+01   1.353611e+02
  -8.981337e+01   1.131369e+02
  -1.061468e+02  -5.820188e+01
   9.784427e+00  -1.212094e+02
   1.398336e+02  -6.135593e+00
   1.545789e+02   2.122821e+02
  -3.331148e+01   3.581884e+02
  -1.966169e+02   1.864471e+02
  -3.344147e+02  -3.146422e+01
  -2.475273e+02  -2.851792e+02
  -5.054680e+01  -2.465628e+02
   1.271594e+02  -1.263248e+02
   1.507603e+02   5.330138e+00
   4.482061e+01   1.291132e+01
  -4.386698e+01  -5.531331e+01
   2.372439e+00  -1.054423e+02
   1.150629e+02  -6.064552e+01
   1.319691e+02   1.529459e+01
   3.682156e+01   4.296817e+01
  -8.274637e+01  -1.454645e+01
  -5.206865e+01  -7.318967e+01
   1.257755e+02  -7.551079e+01
   2.814292e+02   7.389134e+01
   2.240743e+02   1.905106e+02
   1.764035e+00   2.245428e+02
  -2.382396e+02   1.862405e+02
  -2.738683e+02   9.439155e+01
  -1.316928e+02  -2.069047e+01
   2.585548e+01  -7.075989e+01
   5.541417e+01   7.345798e+00
  -5.712922e+01   7.760951e+01
  -1.854059e+02   1.486377e+01
  -1.710945e+02  -7.127106e+01
  -5.657012e+01  -1.889836e+02
   8.468218e+01  -1.221270e+02
   1.177058e+02  -9.178194e-01
   3.936163e+01   3.132040e+01
  -3.388336e+01  -1.045148e+01
  -1.540581e+01  -9.946850e+01
   9.928915e+01  -9.730653e+01
   1.842127e+02  -4.647521e+00
   1.768011e+02   1.201739e+02
   2.057468e+00   1.939987e+02
  -1.218409e+02   1.745694e+02
  -1.517232e+02   7.098594e+00
  -4.391080e+01  -9.484514e+01
   7.922466e+01  -9.065140e+01
   7.202466e+01  -1.956319e+01
  -7.549564e+00   1.796107e+01
  -3.729905e+01  -1.906394e+00
   7.394266e+00  -2.180612e+01
   8.080066e+01   1.760197e+01
   8.699669e+01   9.949452e+01
  -1.727772e+01   1.546337e+02
  -1.361205e+02   1.433413e+02
  -2.111298e+02   2.024245e+01
  -1.755717e+02  -1.455065e+02
  -6.127924e+01  -2.337068e+02
   8.066780e+01  -1.606743e+02
   1.062548e+02  -3.529203e+01
   6.361864e+01   4.417078e+01
   2.947313e+01   2.348949e+01
   4.818379e+01  -1.974806e+01
   7.397814e+01  -6.960002e+00
   4.691730e+01   5.776981e+01
  -2.600887e+01   8.932064e+01
  -1.229241e+02   5.693155e+01
  -1.020047e+02  -4.698849e+01
   2.551655e+01  -1.157482e+02
   1.520633e+02  -7.471878e+01
   1.844735e+02   8.636069e+01
   9.836181e+01   1.779464e+02
  -1.492746e+02   2.266737e+02
  -2.499197e+02   2.616342e+01
  -2.143028e+02  -8.982500e+01
  -8.988787e+01  -1.663893e+02
   3.247561e+01  -1.364855e+02
   8.368863e+01  -6.836669e+01
   5.873474e+01  -7.142325e+01
   6.589787e+01  -9.672460e+01
   5.818778e+01  -8.346728e+01
   1.088506e+02   3.955373e+01
   1.075007e+02   1.576159e+02
   3.474448e+01   1.915645e+02
  -8.031441e+01   1.360868e+02
  -1.433382e+02   9.805969e+00
  -1.248598e+02  -1.214220e+02
  -8.363448e+00  -1.421794e+02
   6.602074e+01  -7.590706e+01
   5.017593e+01   1.282868e+01
  -1.317654e+00   4.746317e+01
  -2.341100e+01   3.494778e+01
   2.451860e+01   1.029551e+01
   7.472918e+01   2.464827e+01
   5.188676e+01   3.954276e+01
  -7.190802e+01   3.061347e+01
  -1.677204e+02  -1.335471e+01
  -1.370670e+02  -5.895238e+01
  -6.418126e+00  -8.873691e+01
   1.238248e+02  -6.890941e+01
   1.398386e+02  -3.064097e+01
   4.324401e+01   4.785832e+01
  -5.962764e+01   3.887842e+01
  -7.310891e+01  -6.689682e+00
  -1.423784e+01  -6.838127e+01
   4.533995e+01  -6.527247e+01
   6.674765e+01   3.063863e+00
   5.995326e+01   4.317766e+01
   4.782979e+01   3.718785e+01
   5.564103e+01  -2.907116e+00
   5.891140e+01   5.506297e+00
   3.710763e+01   7.358639e+01
  -6.698104e+00   1.359929e+02
  -1.127579e+02   1.261720e+02
  -1.527396e+02   4.240668e+01
  -1.156437e+02  -9.055252e+01
   3.107664e+00  -1.255565e+02
   7.110407e+01  -6.521194e+01
   5.217483e+01   7.086577e+00
  -5.377605e+01   1.048889e+01
  -1.216703e+02  -4.993102e+01
  -6.124884e+01  -9.524701e+01
   8.427785e+01  -1.018186e+02
   1.668276e+02  -5.595844e+00
   1.234162e+02   2.778304e+01
   2.108377e+01   7.847112e+01
  -6.605513e+01   4.818168e+01
  -4.274380e+01   4.101396e+00
   3.858417e+01  -2.491286e+01
   7.688627e+01   4.750442e+00
   3.607447e+01   8.763573e+01
  -7.727782e+01   1.365035e+02
  -1.473332e+02   5.153924e+01
  -1.190801e+02  -8.085854e+01
  -2.253639e+01  -1.931670e+02
   9.525608e+01  -1.247783e+02
   1.019313e+02   1.049379e+01
   5.972871e+01   1.092247e+02
  -1.430759e+01   9.676703e+01
  -4.139202e+01   1.254177e+01
  -3.692837e+01  -2.626201e+01
  -1.630184e+01  -1.851141e+00
  -5.109301e+00   1.689594e+01
  -2.661751e+01  -2.066753e+01
  -5.985701e+01  -7.178942e+01
  -3.025655e+01  -8.218476e+01
   5.302668e+01  -4.411565e+01
   1.290569e+02   5.121977e+01
   1.180709e+02   5.931119e+01
   1.558936e+01   5.388909e+01
  -6.292040e+01   2.493842e+01
  -7.970355e+01  -1.699122e+00
  -1.494463e+01  -1.004406e+01
   3.023428e+01  -2.188989e+01
   1.893724e+01  -8.996128e+00
  -1.422313e+01   3.224002e+00
   2.300407e+00   5.257753e+00
   6.324361e+01  -5.231076e+00
   8.007272e+01   2.545980e+01
   1.106705e+01   7.703346e+01
  -9.806795e+01   1.049602e+02
  -1.671652e+02   6.665544e+01
  -1.356635e+02  -7.751133e+01
  -3.597745e+01  -1.644876e+02
   7.042064e+01  -1.470177e+02
   1.026802e+02  -6.318948e+01
   8.041920e+01   2.452782e+01
   2.576049e+01   3.504966e+01
   1.086669e+00   1.326762e+01
   1.076231e+01   9.261011e+00
   3.056232e+01   4.404426e+01
   2.903332e+01   7.389287e+01
  -2.353279e+01   7.597134e+01
  -7.590633e+01  -2.203452e+01
  -7.149338e+01  -9.687373e+01
  -9.814935e+00  -1.092160e+02
   6.592889e+01  -2.731152e+01
   9.412868e+01   6.445252e+01
   1.596064e+01   9.922319e+01
  -6.939643e+01   5.817430e+01
  -8.914920e+01  -6.670622e+00
  -3.579815e+01  -4.678692e+01
   3.444045e+01  -6.023421e+01
   3.888217e+01  -3.239687e+01
  -2.460196e+01   4.870428e+00
  -7.040426e+01   5.817886e+00
  -1.795441e+01  -2.310424e+01
   7.239160e+01  -6.384537e+01
   1.053868e+02  -6.643892e+01
   6.873969e+01   1.713836e+01
  -1.700040e+01   7.820042e+01
  -5.665674e+01   8.667229e+01
  -4.303557e+01   1.364367e+01
  -7.829139e+00  -5.101521e+01
   2.003165e+01  -4.304508e+01
   3.672312e+01   9.180080e+00
   1.676308e+01   5.097318e+01
  -5.043921e+00   3.485979e+01
  -3.320189e+01  -5.258622e-01
  -4.039552e+01  -2.753441e+01
  -1.683538e+01  -3.239649e+00
   3.483961e+00   1.870690e+01
   5.209929e+00   8.001755e+00
  -7.820710e+00  -2.731896e+01
  -3.073137e+00  -4.686726e+01
   2.563182e+01  -1.752045e+01
   4.004046e+01   4.184324e+01
   1.578259e+01   5.934661e+01
  -3.840241e+01   2.354935e+01
  -6.449205e+01  -3.515435e+01
  -2.138075e+01  -6.072732e+01
   5.963452e+01  -2.860394e+01
   9.557597e+01   2.487228e+01
   4.756098e+01   3.844800e+01
  -2.152399e+01   4.272855e+01
  -5.923039e+01   2.152851e+01
  -2.496686e+01   1.025607e+01
   2.278906e+01  -3.235675e+00
   3.044862e+01   6.927342e+00
  -2.242558e+01   2.093542e+01
  -6.777773e+01   2.933689e+01
