
 $NMID
 id='ANONYMOUS ', fmtdat='(2E16.6)'
 volume=1.0
 tramp=1.0
 $END
   2.314877e+03  -5.267258e+01
   1.572360e+03   9.950669e+02
   8.388157e+01   1.330436e+03
  -7.421694e+02   1.111280e+03
  -6.668765e+02   5.815253e+02
  -1.951042e+02  -1.170644e+01
   2.452716e+02  -2.028128e+00
   8.736597e+01   3.597020e+02
  -2.507933e+02   3.838747e+02
  -3.849975e+02   8.882731e+01
  -3.024462e+02  -2.391562e+02
  -7.013075e+01  -4.716899e+02
   1.587887e+02  -2.407820e+02
   1.748467e+02   2.197190e+02
   4.066864e+01   4.138868e+02
  -3.212713e+02   1.755084e+02
  -3.978282e+02  -2.713404e+02
   8.206697e+00  -4.949866e+02
   3.286024e+02  -3.009913e+02
   4.490510e+02   1.275137e+02
   1.832080e+02   2.312050e+02
  -8.108823e+01   2.155532e+02
  -2.791122e+01   6.946727e+01
   1.381627e+02   1.266702e+02
   1.379460e+02   2.079235e+02
  -7.396427e+01   2.560588e+02
  -3.613689e+02   1.361912e+02
  -3.649312e+02   6.320969e+00
  -2.205393e+02  -1.833591e+02
   2.100383e+02  -1.931939e+02
   2.156219e+02   6.325834e+01
   1.073737e+02   2.455827e+02
  -2.125351e+02   2.315630e+02
  -2.551115e+02   6.627750e+01
  -1.988079e+02  -8.908291e+01
  -8.376441e+01  -1.557254e+02
  -5.385563e+01  -1.061145e+02
  -1.215212e+02   8.688029e+00
  -1.028308e+02   1.093734e+02
  -7.532993e+01  -8.031557e+01
  -6.459074e+01  -2.587145e+02
   7.399174e+01  -3.557941e+02
   2.106200e+02  -3.292501e+01
   1.469849e+02   1.414098e+02
  -8.783857e+01   3.483913e+01
  -1.146709e+02  -2.071127e+02
   6.171892e+01  -2.527000e+02
   2.635369e+02  -8.576129e+01
   3.208908e+02   2.376763e+02
   9.409148e+01   3.581721e+02
  -1.899887e+02   2.672040e+02
  -2.296318e+02   4.081248e+01
  -2.423504e+02  -7.258394e+01
  -2.978094e-01  -1.514166e+02
   1.176240e+02  -1.226897e+02
   1.869810e+02  -7.709114e+00
   5.537637e+01  -9.581588e+00
  -3.714060e+01  -2.573387e+01
   7.861993e+01  -1.899637e+01
   1.779146e+02   2.368878e+01
   1.162234e+02   1.315142e+02
  -7.524256e+01   1.897488e+02
  -2.134784e+02   1.505761e+02
  -1.693234e+02  -5.856922e+01
   2.434856e+01  -3.028127e+02
   1.869607e+02  -2.709245e+02
   2.702869e+02  -1.203102e+02
   1.540266e+02   1.197533e+02
   4.762204e+01   2.194824e+02
   1.746748e+01   2.201415e+02
   2.264016e+01   1.623533e+02
  -3.019810e+01   1.097282e+02
  -9.773759e+01   8.717716e+01
  -2.081633e+02   3.901762e+01
  -1.609065e+02  -1.137308e+02
  -9.502927e+01  -1.773250e+02
   8.286152e+01  -1.527569e+02
   1.170851e+02   7.765578e+00
   1.038221e+02   1.984600e+02
  -5.768805e+01   1.608708e+02
  -2.069405e+02   9.582544e+00
  -2.279467e+02  -8.716112e+01
  -1.652456e+02  -1.938222e+02
   4.945692e+00  -2.050981e+02
   9.676637e+01  -1.246496e+02
   1.070454e+02  -7.812741e+01
   1.191401e+02  -5.125560e+01
   2.470426e+02  -5.396598e+01
   2.738115e+02   6.965983e+01
   2.163110e+02   2.398002e+02
   6.733604e+00   2.922775e+02
  -2.473947e+02   3.671802e+02
  -2.842105e+02   1.685293e+02
  -2.252737e+02  -4.608692e+01
  -3.069628e+01  -1.699044e+02
   5.483306e+01  -1.747222e+02
  -1.015401e+01  -3.244629e+01
  -8.613100e+01   1.174873e+01
  -9.010315e+01  -6.311612e+01
  -1.026615e+01  -8.373963e+01
   3.705386e+01  -4.611838e+01
   5.713007e+01   3.468721e+01
  -1.015192e+01   7.473799e+01
  -1.209107e+02  -9.429055e+00
  -1.103926e+02  -1.715726e+02
  -1.217523e+01  -2.320035e+02
   1.859002e+02  -1.587636e+02
   2.513504e+02   1.506947e+01
   2.386249e+02   1.980570e+02
  -4.076675e+00   2.009153e+02
  -9.451724e+01   8.598666e+01
  -1.018817e+02   1.180083e+00
  -1.500533e+01   3.803402e-01
   3.880876e+01   5.178134e+01
  -1.545539e+01   5.987226e+01
  -9.665443e+01   5.538967e+01
  -9.637864e+01  -3.526506e+00
  -1.919219e+01  -2.334953e+01
   5.926149e+01   2.205335e+01
   3.090319e+01   6.847422e+01
  -9.427717e+01   6.342013e+01
  -2.493672e+02  -2.099385e+01
  -1.965165e+02  -1.308756e+02
   2.345077e+00  -2.210178e+02
   1.548523e+02  -1.806711e+02
   1.798816e+02  -7.122799e+01
   7.074920e+01   1.226912e+01
  -1.689783e+01   6.436960e+01
  -3.541107e+01   1.518683e+00
   4.122974e+01  -4.934781e+01
   1.500471e+02  -1.479341e+01
   1.292818e+02   5.671799e+01
   5.114738e+01   1.330633e+02
  -5.307284e+01   9.713297e+01
  -8.825644e+01  -3.139856e+00
  -2.664096e+01  -2.395977e+01
   3.156797e+01   2.183655e+01
   1.878166e+01   9.434326e+01
  -6.249307e+01   1.048639e+02
  -1.862074e+02   2.566480e+00
  -1.238105e+02  -5.489023e+01
  -2.287576e+01  -1.251798e+02
   9.581936e+01  -1.215465e+02
   1.223619e+02   1.840035e+01
   3.961574e+01   5.387874e+01
  -4.770021e+01   5.644900e+01
  -5.083166e+01   1.693100e+01
   5.019550e+00  -2.206412e+01
   3.389783e+01  -3.065041e+00
  -9.665028e+00   2.608650e+01
  -7.850648e+01   3.389716e-01
  -7.998778e+01  -7.668278e+01
  -1.653298e+01  -1.141287e+02
   8.158599e+01  -1.163583e+02
   1.766101e+02  -1.170291e+01
   1.319971e+02   1.279762e+02
   4.050859e+01   1.670253e+02
  -5.826208e+01   1.156253e+02
  -9.834478e+01   4.204329e+01
  -4.686439e+01  -2.764540e+01
  -2.610033e+01  -1.569669e+01
  -3.964202e+01   1.472293e+01
  -6.891261e+01   3.337548e+00
  -5.758692e+01  -4.623190e+01
   1.367074e+01  -7.528167e+01
   9.777351e+01  -4.623925e+01
   9.352314e+01   4.133781e+01
   8.761543e+00   8.264338e+01
  -1.504376e+02   6.290499e+01
  -1.707364e+02  -6.177274e+01
  -7.134337e+01  -1.481601e+02
   9.078514e+01  -1.924235e+02
   1.922883e+02  -3.177177e+01
   2.057386e+02   6.014203e+01
   8.612203e+01   1.193190e+02
  -2.592090e+01   1.120657e+02
  -6.667314e+01   6.917212e+01
  -4.672838e+01   5.690210e+01
  -4.095681e+01   7.889819e+01
  -5.310496e+01   6.831884e+01
  -1.113935e+02  -2.058563e+01
  -1.015467e+02  -1.146199e+02
  -2.337210e+01  -1.601576e+02
   7.964359e+01  -1.256643e+02
   8.688015e+01  -1.637052e+01
   8.256301e+01   8.324180e+01
   6.531384e+00   1.317475e+02
  -5.375456e+01   6.637457e+01
  -4.923040e+01  -1.271415e+01
   2.008699e+00  -3.978744e+01
   1.951432e+01  -2.843467e+01
  -1.967720e+01  -7.177976e+00
  -6.811395e+01  -1.218619e+01
  -3.900081e+01  -2.641282e+01
   6.816458e+01  -3.751054e+01
   1.623801e+02   1.385245e+00
   1.233198e+02   3.651221e+01
  -5.630203e+00   7.534249e+01
  -7.780606e+01   5.273887e+01
  -1.014375e+02   1.484714e+01
  -3.668041e+01  -3.408843e+01
   4.444869e+01  -3.512270e+01
   4.700054e+01   8.163070e+00
   1.603459e+01   4.745955e+01
  -2.759074e+01   5.253479e+01
  -5.931282e+01   3.333674e+00
  -4.947573e+01  -3.899930e+01
  -4.093658e+01  -2.704941e+01
  -3.803116e+01   3.756494e+00
  -4.269611e+01   7.806842e+00
  -3.969062e+01  -5.325590e+01
  -6.711502e-01  -9.487018e+01
   7.824618e+01  -1.203792e+02
   1.586384e+02  -4.367197e+01
   1.003054e+02   4.539163e+01
  -4.375032e+00   1.316911e+02
  -5.951592e+01   4.923660e+01
  -4.954913e+01  -9.455454e-02
   4.347284e+01  -1.283553e+01
   1.131575e+02   2.703962e+01
   4.351304e+01   6.983762e+01
  -5.272509e+01   7.958659e+01
  -1.776779e+02   2.640361e+01
  -1.339308e+02  -3.436775e+01
  -2.643355e+01  -7.894088e+01
   4.468450e+01  -4.347092e+01
   3.489587e+01   3.249914e+00
  -2.258575e+01   2.558786e+01
  -7.708731e+01  -1.532910e+01
  -4.256440e+01  -8.472585e+01
   4.072710e+01  -1.147691e+02
   1.095196e+02  -7.755327e+01
   8.814684e+01   4.884581e+01
   9.893925e+00   1.438750e+02
  -4.890514e+01   1.059706e+02
  -7.434523e+01   6.468746e+00
  -4.561327e+01  -7.805862e+01
   2.343887e+01  -8.181571e+01
   4.019344e+01  -1.551028e+01
   3.295015e+01   2.501736e+01
   1.325275e+01   2.443830e+00
   3.964123e+00  -9.142451e+00
   2.435360e+01   1.776176e+01
   4.918230e+01   5.977893e+01
   2.988824e+01   8.069257e+01
  -4.318468e+01   3.814440e+01
  -9.738610e+01  -3.196428e+01
  -9.129270e+01  -3.436766e+01
  -1.760394e+01  -3.824026e+01
   6.122873e+01  -2.409309e+01
   6.368027e+01   2.862756e-01
   1.487329e+01   4.579146e+00
  -2.267005e+01   2.104676e+01
  -1.316891e+01   4.977746e+00
   9.007488e+00  -4.711707e+00
  -7.918121e-01  -3.666680e+00
  -5.228375e+01   1.274861e+01
  -8.430234e+01  -2.121772e+01
  -2.492921e+01  -6.949751e+01
   7.214890e+01  -9.620337e+01
   1.320625e+02  -7.332992e+01
   1.246234e+02   3.245993e+01
   3.435550e+01   1.123731e+02
  -5.465012e+01   1.398465e+02
  -8.759199e+01   4.983427e+01
  -5.950974e+01  -6.511384e+00
  -2.143129e+01  -2.907482e+01
  -3.102303e+00  -1.255552e+01
  -1.239926e+01  -1.045592e+01
  -2.291565e+01  -3.981885e+01
  -2.415308e+01  -6.448283e+01
   1.415132e+01  -5.586720e+01
   5.633215e+01   4.785812e+00
   6.516037e+01   8.442567e+01
   3.048070e+01   7.921074e+01
  -4.998873e+01   2.986764e+01
  -8.420138e+01  -3.873560e+01
  -3.837056e+01  -7.876522e+01
   5.888533e+01  -5.928477e+01
   8.650538e+01  -3.687293e+00
   4.011448e+01   5.735703e+01
  -2.268306e+01   5.055303e+01
  -3.764461e+01   2.412553e+01
   1.524258e+01  -6.712944e+00
   4.831618e+01  -1.305496e+01
   1.855303e+01   1.946255e+01
  -5.368500e+01   4.502632e+01
  -9.167627e+01   5.073998e+01
  -5.937860e+01  -1.693373e+01
   8.206571e+00  -7.086459e+01
   3.019899e+01  -6.291585e+01
   2.621424e+01  -2.012258e+01
   1.120826e+01   3.866563e+01
  -1.645649e+01   3.871765e+01
  -2.499084e+01   1.437356e-02
  -2.531274e+01  -4.761978e+01
  -1.262929e+00  -3.518262e+01
   2.731073e+01   2.349505e+00
   3.734939e+01   1.793091e+01
   1.546862e+01   3.634213e+00
  -4.163578e+00  -1.787647e+01
  -4.761827e+00  -8.811678e+00
   6.084380e+00   2.412749e+01
   2.567224e+00   4.609771e+01
  -1.993384e+01   2.665199e+01
  -4.003395e+01  -2.863537e+01
  -2.543984e+01  -4.464308e+01
   3.182082e+01  -2.408663e+01
   5.428274e+01   2.324942e+01
   2.834539e+01   5.162462e+01
  -4.974651e+01   3.957816e+01
  -7.920263e+01  -1.224904e+01
  -3.388939e+01  -3.018695e+01
   1.690601e+01  -2.986521e+01
   4.805203e+01  -2.786245e+01
   2.082349e+01  -3.097469e+00
  -2.155203e+01   4.636950e+00
  -2.428981e+01   3.312049e+00
   1.453457e+01  -1.834491e+01
   5.947083e+01  -3.503417e+01
