
 $NMID
 id='ANONYMOUS ', fmtdat='(2E16.6)'
 volume=1.0
 tramp=1.0
 $END
   1.351407e+03   3.799426e+02
   6.877302e+02   1.071869e+03
  -2.004672e+02   7.708382e+02
  -5.096176e+02   4.036350e+02
  -1.223266e+02   3.884126e-01
   2.249525e+02  -6.565008e+01
   1.272506e+02   6.275343e+01
   9.076377e+01   4.395361e+02
  -1.452794e+02   2.446757e+02
  -1.689589e+02  -8.076802e+01
  -1.554540e+02  -1.457497e+02
  -1.382707e+00  -3.400555e+02
   1.665791e+02   4.450499e+01
   1.159380e+02   2.631422e+02
  -1.041332e+02   2.292552e+02
  -2.187882e+02  -4.518118e+01
  -7.386866e+01  -2.361489e+02
   1.329951e+02  -3.318219e+02
   1.647126e+02  -6.055511e+01
   1.209568e+02   8.927635e+01
  -1.050902e+00   1.093288e+02
  -8.574147e+01   5.610057e+01
  -6.665451e+01   1.362988e+01
   7.029097e+01   9.043106e+00
   1.210944e+02   1.180952e+02
   6.400041e+01   1.534860e+02
  -1.547520e+02   1.184604e+02
  -1.853836e+02  -1.328661e+02
  -8.135076e+01  -2.244324e+02
   1.318932e+02  -1.118894e+02
   2.786163e+02   1.723631e+02
   1.154255e+02   1.133698e+02
  -9.168429e+01   1.225447e+02
  -1.493299e+02   5.130462e+01
  -1.147365e+02  -9.078324e+01
   6.033202e+01  -1.956112e+02
   1.009565e+02  -1.221491e+02
   4.729203e+01   2.414389e+01
  -6.397287e+01   9.460505e+01
  -1.240329e+02  -5.912483e+01
  -6.571657e+01  -1.525324e+02
   1.284212e+02  -1.829758e+02
   1.542824e+02  -4.015093e+01
   2.414159e+01   1.809282e+02
  -8.771607e+01   8.781163e+01
  -1.750064e+02  -5.162676e+01
   7.083874e+01  -1.763767e+02
   1.353888e+02   9.567586e+00
   2.528443e+02   1.356902e+02
   2.663515e+01   2.085179e+02
  -1.669693e+02   1.102051e+02
  -2.160835e+02  -8.107138e+01
  -7.712942e+01  -1.373276e+02
   5.904526e+01  -5.430503e+01
   1.545926e+02  -9.534359e+00
   1.001605e+02   7.593566e+01
  -1.240496e+01   2.492460e+01
  -4.920400e+01  -4.793165e+01
   2.954676e+01  -6.821450e+01
   7.877395e+01   4.050229e+01
   5.641325e+01   1.142758e+02
  -9.001931e+01   1.031348e+02
  -1.085895e+02  -2.158437e+01
  -5.797606e+01  -5.759670e+01
   3.416429e+01  -6.511566e+01
   1.268174e+02  -8.140942e+01
   6.559980e+01  -6.113158e+01
   8.871257e+01   4.188802e+01
   3.898485e+01   1.360342e+02
  -2.561242e+01   1.614185e+02
  -2.088499e+01   4.561230e+01
   3.925702e+00   1.288920e+01
  -3.792214e+01   5.010403e+01
  -5.233278e+01   4.707660e+01
  -1.152456e+02  -8.400980e+00
  -5.683963e+01  -1.111362e+02
   5.213352e+01  -1.028092e+02
   6.682646e+01   5.046419e+01
   4.443228e+01   7.940716e+01
   4.072147e+01   8.507976e+01
  -6.901080e+01   6.956332e+01
  -1.068460e+02  -1.256388e+02
   3.264308e+00  -1.214422e+02
   4.176116e+01  -8.871499e+01
   6.690977e+01  -5.557325e+01
   3.278937e+01   1.683407e+01
   3.010109e+01  -1.708172e+01
   9.627958e+01  -1.180969e-01
   1.228862e+02   8.616889e+01
   1.770006e+02   1.045020e+02
  -6.143190e+01   1.018501e+02
  -1.042527e+02   5.217315e+01
  -2.138880e+02  -3.535810e+01
  -1.105171e+02  -4.744493e+01
   1.190345e+01  -8.526297e+01
   3.630327e+01  -7.993414e+01
   1.653076e+01  -1.552714e+01
  -2.596550e+01   2.099566e+01
  -3.045212e+01  -9.443557e+00
  -2.446684e+00  -5.443044e+01
   7.383721e+01  -5.035048e+01
   6.601876e+01   4.168515e+01
  -1.241673e+01   4.682931e+01
  -5.193000e+01   1.530260e+01
  -9.083234e+01  -1.015049e+02
  -1.638838e+01  -1.175927e+02
   1.452198e+02  -5.431693e+01
   1.296234e+02   3.385517e+01
   2.892906e+01   9.356213e+01
   4.647918e+01   1.060460e+02
  -5.868540e+01   3.749519e+01
  -4.311392e+01   8.982096e+00
  -2.114179e+01  -1.493285e+01
   3.017260e+01   1.500621e+01
  -1.387508e+00   4.919687e+01
  -4.940078e+01   2.513687e+01
  -4.093923e+01  -2.741598e+01
   1.267124e+00  -2.964642e+01
   2.415085e+01   2.925203e+00
   8.164819e+00   5.150123e+01
  -5.498188e+01   7.266825e+00
  -5.562620e+01  -8.127008e+00
  -7.145105e+01  -2.272064e+01
  -1.237973e+01  -8.194341e+01
   3.053453e+01  -8.846534e+01
   9.921424e+01  -4.696868e+01
   6.595092e+01   2.711322e+01
  -2.596223e+01   2.437761e+01
  -3.902390e+01  -5.739177e+00
   2.222569e+01  -3.671163e+01
   7.697317e+01  -1.225519e+01
   6.600698e+01   3.692554e-01
   1.882346e+01   3.088374e+01
  -2.015462e+01   5.066582e+01
  -2.845406e+01   1.532796e+01
  -2.537207e+01  -1.840608e+01
   1.112908e+01   6.156483e+00
   6.857502e+00   2.273217e+01
  -4.960664e+01   2.221512e+01
  -4.928011e+01   2.348155e+01
  -3.541986e+01  -6.830752e+01
   1.530396e+01  -8.531210e+01
   9.970110e+01  -5.733466e+01
   8.033456e+01   8.058819e+00
   1.199434e+01   3.503685e+01
  -3.031955e+01   2.570237e+01
  -2.615463e+01   1.366272e+01
  -5.101884e+00  -7.630038e+00
   4.997087e+00  -2.115366e+00
  -5.483213e+00   2.719537e+00
  -1.518706e+01  -1.681740e+01
  -1.615238e+01  -2.750361e+01
   1.422900e+01  -5.058656e+01
   7.197697e+01  -6.166745e+01
   8.329246e+01  -6.164245e+00
   2.073287e+01   6.622926e+01
   2.700297e+01   6.841158e+01
  -2.916001e+01   5.992407e+01
  -4.796669e+01  -7.343787e+00
  -1.857063e+01  -2.026335e+01
  -4.118371e+00  -1.243309e+01
  -2.851997e+01   2.917714e+00
  -2.498912e+01  -1.937466e-01
  -2.138086e+01  -9.481418e+00
   2.865296e+01  -2.000659e+01
   3.646071e+01  -2.203323e+01
   4.026240e+01  -8.487743e+00
  -3.125970e+01   2.686708e+01
  -5.249835e+01   1.919945e+01
  -3.782522e+01  -2.920282e+01
  -1.599267e+01  -5.479066e+01
   3.164236e+01  -5.491817e+01
   1.156772e+02  -7.560665e+00
   7.064525e+01   2.199359e+01
   3.475218e+01   5.718310e+01
  -1.065827e+01   3.589745e+01
  -3.456253e+01   2.957978e+01
  -3.886386e+01   2.339574e+01
  -1.899338e+01   2.867556e+01
  -4.092723e+01   1.857598e+01
  -2.141174e+01  -9.680468e+00
  -1.955512e+01  -6.852899e+01
  -1.219383e+01  -9.815615e+01
   1.828169e+01  -6.853656e+01
   5.976658e+01   2.904329e+01
   5.652051e+01   4.280943e+01
   3.764549e+00   5.214311e+01
  -1.956977e+01   1.458199e+01
  -1.584773e+01   6.068556e+00
   1.241570e-01  -2.333270e+01
   1.324259e+01  -1.219917e+01
  -8.592821e+00  -4.003868e+00
  -1.800003e+01  -1.603660e+01
  -1.574292e+01  -2.443222e+01
   1.795574e+01  -2.805761e+01
   5.201127e+01   1.639346e+00
   2.683325e+01   1.036273e+01
  -3.720895e+00   2.550387e+01
  -5.039119e+01   2.610929e+01
  -7.353533e+01  -1.542883e+01
  -1.755800e+01  -2.659208e+01
   2.077557e+01  -2.337868e+01
   3.267337e+01   1.735680e+01
  -1.266436e+01   2.516807e+01
  -9.395283e+00   1.712758e+01
  -1.400378e+01  -3.676490e+00
  -1.659861e+01  -1.916279e+01
  -1.092474e+01  -2.117280e+01
  -2.587127e+01  -1.734069e+00
  -2.235460e+01  -7.096162e+00
   4.672170e+00  -2.394858e+01
   1.543509e+01  -5.562149e+01
   3.716005e+01  -3.741726e+01
   5.177908e+01  -3.213616e+00
   2.313596e+01   4.649916e+01
  -1.502376e+01   3.648600e+01
  -4.919960e+01   1.488588e+01
  -9.283700e+00  -7.268042e+00
   1.617831e+01  -4.252891e+00
   2.784715e+01   1.105684e+01
   1.552504e+01   4.457075e+01
  -2.510411e+01   4.042808e+01
  -4.294279e+01   1.056019e+01
  -5.916253e+01  -1.486864e+01
  -7.263228e+00  -2.720257e+01
   1.578826e+01  -1.672612e+01
   1.868971e+01   8.273403e+00
  -2.087496e+01   1.105250e+01
  -2.353604e+01  -1.885244e+00
   1.980724e+00  -4.609657e+01
   7.512801e+01  -4.212008e+01
   6.384091e+01  -3.998529e+00
   3.315167e+01   6.260872e+01
  -7.535235e+00   6.163716e+01
  -4.994450e+01   2.501188e+01
  -3.605447e+01  -1.217490e+01
  -1.282615e+01  -5.911905e+01
   3.357132e+00  -3.911928e+01
   1.255981e+01  -4.798228e+00
   2.323061e+01   4.797786e+00
   1.039245e+01   5.014520e+00
   3.003227e+00  -8.854005e+00
   7.340940e+00   4.602963e+00
   2.036419e+01   2.691164e+01
   1.374067e+01   3.276228e+01
  -1.752984e+01   1.068364e+01
  -2.350353e+01  -5.351700e+00
  -3.432831e+01  -5.161627e+01
  -2.129202e+00  -1.850688e+01
   1.878773e+01  -1.021110e+01
   4.318449e+01  -3.997796e-01
   3.884630e+00   7.940767e+00
  -1.489713e+01   5.839043e+00
  -7.390603e+00   3.609994e+00
   5.477639e+00  -1.560720e-01
  -1.658564e+00  -2.002194e+00
  -2.321307e+01  -2.986031e+00
  -2.384943e+01  -1.573203e+01
  -4.574397e+00  -1.926651e+01
   3.739566e+01  -4.015236e+01
   5.433349e+01  -1.144789e+01
   5.875382e+01   1.623975e+01
   7.462297e+00   3.915270e+01
  -2.417391e+01   3.788218e+01
  -5.831763e+01   1.606490e+01
  -1.786861e+01  -1.369687e+01
  -8.257938e+00  -1.253507e+01
   3.221059e+00  -1.485863e+00
  -2.509360e+00  -1.482066e+00
  -1.320659e+01  -5.336323e+00
   3.786715e+00  -3.542414e+01
   4.025408e-01  -3.024578e+01
   1.378738e+01   8.950042e+00
   6.670049e+00   4.882747e+01
  -2.917601e+00   4.271340e+01
  -1.756202e+01   4.455183e+00
  -2.977523e+01  -2.628284e+01
  -7.185911e+00  -3.831562e+01
   8.877455e+00  -2.896142e+01
   2.192370e+01   5.162396e+00
   7.358917e+00   1.232973e+01
  -2.339494e+01   1.317673e+01
  -1.511278e+01   6.379081e+00
   1.356041e+01   3.227312e-01
   1.898513e+01  -6.286751e+00
   6.238563e+00   1.098572e+01
  -3.016053e+01   1.864882e+01
  -5.495403e+01  -1.813362e+00
  -2.721010e+01  -5.441792e+00
   4.157931e+00  -2.122961e+01
   2.140269e+01  -3.017696e+01
   1.838822e+01  -2.057863e+00
  -4.200888e+00   1.716158e+01
  -1.694424e+01   1.194542e+01
  -1.256158e+01  -1.008657e+01
  -8.418892e+00  -1.343028e+01
   9.722714e-01  -8.717926e+00
   1.064696e+01  -4.861219e-01
   6.798535e+00   3.030482e+00
   9.060961e+00   4.411084e+00
  -1.535524e+00  -4.704310e+00
  -5.125269e+00  -1.203181e-01
  -5.983376e+00   1.186013e+01
  -8.722093e+00   2.128171e+01
  -8.366989e+00   4.262003e+00
  -1.538180e+01  -1.365243e+01
   5.292464e+00  -2.210220e+01
   1.306106e+01  -2.295475e+00
   1.932708e+01   4.243297e+00
   1.268578e+01   1.863990e+01
  -2.086038e+01   1.012427e+01
  -2.645218e+01  -7.147879e+00
  -1.051150e+01  -1.672321e+01
   1.244112e+01  -1.922698e+01
   2.124813e+01  -8.266006e+00
   9.933530e+00   9.969609e-02
  -1.491889e+01  -1.102051e+00
  -9.836196e+00  -5.405648e+00
   1.220277e+01  -8.116407e+00
   2.982327e+01  -8.059467e+00
