
 $NMID
 id='ANONYMOUS ', fmtdat='(2E16.6)'
 volume=1.0
 tramp=1.0
 $END
  -3.378973e+03  -2.601453e+00
  -2.215047e+03  -1.533243e+03
   3.614624e+02  -2.090307e+03
   1.341406e+03  -1.042587e+03
   9.871038e+02   2.119824e+02
  -1.227270e+02   2.967359e+02
  -5.328626e+02  -7.611365e+01
  -6.724536e+01  -7.747575e+02
   4.701603e+02  -5.954712e+02
   7.852414e+02  -5.328932e+01
   4.422796e+02   6.435117e+02
  -2.568901e+00   6.802653e+02
  -3.914621e+02   1.951346e+02
  -3.506967e+02  -4.198832e+02
  -2.475620e+00  -5.383717e+02
   3.704361e+02  -1.667885e+02
   2.880215e+02   4.853509e+02
  -1.544538e+02   5.688797e+02
  -4.108555e+02   1.710192e+02
  -3.984849e+02  -2.471751e+02
  -1.051481e+02  -3.403370e+02
   2.044319e+02  -2.752456e+02
   1.341544e+02  -8.869347e+01
  -9.840368e+01  -4.522625e+01
  -2.053165e+02  -1.414159e+02
  -1.110895e+02  -3.271004e+02
   4.104773e+02  -3.086651e+02
   6.185911e+02  -4.185499e+01
   2.837719e+02   3.031885e+02
  -2.857222e+02   2.982193e+02
  -4.814732e+02   3.984358e+00
  -2.283254e+02  -3.807000e+02
   1.844006e+02  -3.788569e+02
   4.667062e+02  -1.732959e+02
   3.506656e+02   1.005322e+02
   1.047914e+02   3.043884e+02
  -9.268670e+01   2.267235e+02
  -5.476146e+01  -1.439183e+02
   1.351970e+02  -2.404184e+02
   2.902565e+02   8.158076e+00
   1.135038e+02   4.358121e+02
  -1.827732e+02   5.130336e+02
  -3.847252e+02   5.712771e+01
  -1.567088e+02  -3.661787e+02
   1.710040e+02  -2.294990e+02
   2.620665e+02   2.479946e+02
  -5.200276e+01   3.933380e+02
  -4.700942e+02   6.822742e+01
  -5.777224e+02  -3.145746e+02
  -1.837808e+02  -4.827433e+02
   2.313652e+02  -3.235611e+02
   5.056555e+02   2.549930e+01
   3.829324e+02   2.709286e+02
  -6.234387e+01   2.946418e+02
  -3.172169e+02   1.582028e+02
  -2.081743e+02  -4.937512e+01
   3.337533e+01  -6.061461e+01
   7.315150e+01   8.943039e+01
  -1.018216e+02   7.252118e+01
  -2.367097e+02  -2.756881e+01
  -1.359774e+02  -1.805811e+02
   1.281177e+02  -2.445601e+02
   2.736223e+02  -1.139563e+02
   2.181492e+02   8.411988e+01
  -5.108822e+01   2.987501e+02
  -2.164787e+02   3.238332e+02
  -3.048609e+02   2.302623e+02
  -2.384861e+02  -1.270902e+02
  -7.452931e+01  -3.719768e+02
   4.514843e+01  -3.344270e+02
   5.106278e+01  -1.167810e+02
   3.376340e+01  -6.259309e+01
   7.596295e+01  -5.372826e+01
   1.862586e+02  -9.657877e+01
   2.379246e+02   8.714603e+01
   9.053674e+01   2.474481e+02
  -5.387628e+01   1.954113e+02
  -1.507232e+02   7.117482e+00
  -1.303614e+02  -2.074487e+02
   4.040298e+01  -2.380034e+02
   2.106740e+02  -1.048044e+02
   3.243027e+02   1.432797e+02
   1.777293e+02   2.714739e+02
  -1.123490e+02   2.571551e+02
  -1.882279e+02   1.420877e+02
  -1.405150e+02   5.615517e+01
  -1.138408e+02   4.981711e+01
  -2.325391e+02   7.963680e+01
  -3.438147e+02  -1.332687e+01
  -2.474784e+02  -3.017414e+02
  -3.746225e-01  -3.803580e+02
   3.492138e+02  -3.464682e+02
   4.220978e+02  -2.043519e+02
   2.661908e+02   8.488828e+01
   2.754164e+01   2.347166e+02
  -3.101471e+01   1.944817e+02
  -3.116049e+01   4.267567e+01
   1.191940e+02  -5.231957e+01
   1.367377e+02   1.127636e+01
   3.920252e+01   1.329649e+02
  -8.281632e+01   1.321699e+02
  -1.389169e+02  -4.100877e+01
   1.760195e+01  -1.272494e+02
   1.620590e+02   4.996117e+00
   1.365316e+02   2.024738e+02
  -1.957063e+01   3.295683e+02
  -2.070707e+02   1.514082e+02
  -2.969570e+02  -2.535412e+01
  -2.840410e+02  -2.538137e+02
  -4.351769e+01  -2.351345e+02
   8.849573e+01  -1.325014e+02
   1.540239e+02  -2.704297e+00
   5.378967e+01   1.173268e+01
  -5.247230e+01  -4.615794e+01
  -8.938893e+00  -9.207962e+01
   1.010995e+02  -6.902256e+01
   1.344785e+02   7.322987e+00
   4.356367e+01   4.745690e+01
  -6.576307e+01   8.955155e-01
  -3.939151e+01  -6.207430e+01
   1.107472e+02  -8.422651e+01
   2.925604e+02   4.774264e+01
   2.200055e+02   1.729918e+02
  -2.281947e+01   2.400918e+02
  -2.116406e+02   2.290154e+02
  -2.535763e+02   1.176532e+02
  -1.388829e+02  -2.782954e+01
   1.866730e+01  -9.071602e+01
   6.726901e+01  -5.237007e+00
  -4.074650e+01   7.036271e+01
  -1.799413e+02   4.054873e+01
  -1.329190e+02  -1.065237e+02
  -7.233534e+01  -1.949526e+02
   8.395875e+01  -1.210928e+02
   1.134801e+02  -2.000280e+01
   4.396234e+01   2.916254e+01
  -3.099095e+01  -7.733834e+00
  -2.095937e+01  -8.671527e+01
   8.961312e+01  -1.058046e+02
   1.737612e+02  -7.489851e+00
   1.419095e+02   1.033443e+02
   3.721461e+00   1.752318e+02
  -1.256251e+02   1.571266e+02
  -1.543282e+02  -5.518841e+00
  -4.710389e+01  -9.034011e+01
   5.718501e+01  -9.240949e+01
   7.600865e+01  -3.261252e+01
   8.040033e+00   1.809983e+01
  -2.667628e+01   1.140381e+01
   9.970558e+00  -1.755746e+01
   8.096473e+01  -3.540702e+00
   7.733236e+01   8.834356e+01
   1.409665e+01   1.564952e+02
  -1.163713e+02   1.325776e+02
  -2.168339e+02   6.676897e+00
  -1.567567e+02  -1.380918e+02
  -5.929210e+01  -2.091456e+02
   7.206184e+01  -1.570184e+02
   9.072641e+01  -4.855173e+01
   6.273667e+01   4.010211e+01
   3.039499e+01   2.449437e+01
   5.274154e+01  -1.072519e+01
   6.648145e+01  -1.070922e+01
   4.433808e+01   5.082598e+01
  -1.912746e+01   8.517584e+01
  -9.830908e+01   5.154536e+01
  -9.929664e+01  -4.324073e+01
   1.591385e+00  -1.050067e+02
   1.688941e+02  -5.505875e+01
   1.929033e+02   3.148864e+01
   7.498888e+01   1.827067e+02
  -1.079305e+02   2.048263e+02
  -2.209485e+02   9.101089e+01
  -2.407001e+02  -7.033888e+01
  -1.074682e+02  -1.371750e+02
   4.175220e+01  -1.434875e+02
   9.070335e+01  -8.920861e+01
   6.684052e+01  -5.271156e+01
   5.584913e+01  -7.505744e+01
   5.865555e+01  -6.883108e+01
   1.313635e+02   1.935512e+01
   1.244927e+02   1.101644e+02
   4.407976e+01   1.964329e+02
  -6.439358e+01   1.528415e+02
  -1.434458e+02   2.908509e+01
  -1.080073e+02  -1.057371e+02
  -1.130905e+01  -1.272788e+02
   4.049840e+01  -8.688165e+01
   5.854188e+01   7.440930e+00
   5.230311e+00   4.167426e+01
  -1.821259e+01   2.835077e+01
   3.042700e+01   1.141603e+01
   7.691066e+01   2.360942e+01
   5.268580e+01   4.054243e+01
  -5.890594e+01   3.898995e+01
  -1.582273e+02   4.218130e+00
  -1.230644e+02  -5.307841e+01
  -9.210388e+00  -7.956601e+01
   9.404822e+01  -7.633140e+01
   1.174015e+02  -4.860090e+01
   4.569435e+01   4.233064e+01
  -5.306294e+01   4.078422e+01
  -6.263073e+01  -3.697788e+00
  -2.234503e+01  -6.159329e+01
   3.704125e+01  -6.029247e+01
   5.682882e+01   6.679237e+00
   5.611276e+01   4.155936e+01
   4.515076e+01   3.238108e+01
   4.604640e+01  -1.273900e+01
   5.470537e+01  -1.416104e+00
   3.255692e+01   6.554009e+01
  -1.246138e+01   1.230196e+02
  -5.960091e+01   1.360538e+02
  -1.581007e+02   3.772839e+01
  -1.358266e+02  -6.156972e+01
   3.161554e+00  -1.242957e+02
   6.986761e+01  -5.464209e+01
   5.241660e+01   2.866783e-01
  -5.660241e+01   1.773696e+01
  -1.237830e+02  -5.171677e+01
  -7.107487e+01  -8.464772e+01
   7.349854e+01  -9.063489e+01
   1.975909e+02  -3.911589e+01
   1.393506e+02   3.025940e+01
   3.076475e+01   7.493876e+01
  -5.604897e+01   5.593935e+01
  -3.375812e+01   4.327294e+00
   3.212166e+01  -2.956704e+01
   8.785979e+01   2.812402e+01
   5.129209e+01   1.001916e+02
  -8.480255e+01   1.253984e+02
  -1.525035e+02   7.739451e+01
  -9.947128e+01  -8.609302e+01
  -1.018388e+01  -1.900636e+02
   8.180264e+01  -1.460577e+02
   9.183428e+01   8.253931e-01
   5.614417e+01   1.016529e+02
  -9.953340e+00   8.753139e+01
  -3.673376e+01   1.990965e+01
  -3.986687e+01  -3.026226e+01
  -1.809087e+01  -4.259838e+00
  -3.312792e+00   1.584875e+01
  -2.094641e+01  -1.876529e+01
  -6.240774e+01  -7.190875e+01
  -2.186632e+01  -8.836903e+01
   4.778268e+01  -4.058729e+01
   1.204701e+02   4.372520e+01
   1.169491e+02   4.987456e+01
   1.485276e+01   4.362392e+01
  -7.706693e+01   1.944260e+01
  -7.571622e+01   1.013537e+01
  -1.537007e+01  -4.767952e+00
   2.679142e+01  -2.015005e+01
   1.454557e+01  -1.098459e+01
  -1.400039e+01   2.981175e+00
   4.548662e+00   4.833645e+00
   6.816772e+01  -4.689811e+00
   8.815996e+01   2.539651e+01
   1.799254e+01   7.216936e+01
  -9.529881e+01   9.717919e+01
  -1.603125e+02   8.250990e+01
  -1.401407e+02  -6.189494e+01
  -3.441399e+01  -1.414098e+02
   8.403851e+01  -1.284383e+02
   9.924235e+01  -6.823501e+01
   7.375692e+01   1.870338e+01
   2.149255e+01   3.298633e+01
   9.036461e-01   1.192113e+01
   1.140840e+01   6.584833e+00
   3.211505e+01   5.526783e+01
   2.653540e+01   7.509932e+01
  -2.301097e+01   6.310275e+01
  -7.700042e+01  -1.039299e+01
  -6.242906e+01  -1.010741e+02
  -2.470171e+01  -9.079880e+01
   6.082806e+01  -2.324051e+01
   9.200884e+01   5.129849e+01
   3.747561e+01   8.854838e+01
  -6.159671e+01   5.418579e+01
  -9.361326e+01  -1.430624e+01
  -3.973430e+01  -4.561956e+01
   2.863203e+01  -5.489861e+01
   3.404835e+01  -2.709305e+01
  -2.679496e+01   3.961047e+00
  -7.079984e+01   8.377310e+00
  -1.486180e+01  -1.591883e+01
   8.313539e+01  -5.910347e+01
   9.348691e+01  -5.838493e+01
   6.469628e+01   3.178608e+00
  -8.799405e+00   7.942081e+01
  -3.978192e+01   6.313683e+01
  -3.357575e+01   9.099489e+00
  -1.273074e+01  -4.670223e+01
   1.621149e+01  -3.744055e+01
   3.128660e+01   1.189077e+01
   2.108572e+01   5.238468e+01
  -3.452680e+00   3.553154e+01
  -2.684914e+01  -8.210087e+00
  -3.752694e+01  -2.275530e+01
  -1.765570e+01  -9.072407e-01
   5.025424e+00   1.611001e+01
   7.091666e+00   3.529436e+00
  -1.500787e+00  -3.459429e+01
   4.926804e-01  -4.249908e+01
   2.232221e+01  -1.575080e+01
   3.150480e+01   2.760334e+01
   7.525307e+00   5.724479e+01
  -3.852665e+01   2.683229e+01
  -5.629805e+01  -2.977916e+01
  -1.880719e+01  -6.013859e+01
   4.833602e+01  -3.754533e+01
   8.191604e+01   1.897156e+01
   3.503606e+01   3.868060e+01
  -2.315986e+01   3.659577e+01
  -6.184935e+01   2.909111e+01
  -2.387197e+01   7.659210e+00
   2.300619e+01  -4.629384e+00
   2.911261e+01   5.121362e+00
  -2.288861e+01   2.848238e+01
  -6.576375e+01   2.732144e+01
