
 $NMID
 id='ANONYMOUS ', fmtdat='(2E16.6)'
 volume=1.0
 tramp=1.0
 $END
   2.708707e+03   3.694753e+02
   1.842444e+03   1.457054e+03
   8.371417e+01   1.465062e+03
  -8.234870e+02   1.025121e+03
  -5.501065e+02   2.537469e+02
   4.428251e+01   3.610757e+00
   2.750620e+02   1.836588e+02
  -5.486145e+01   5.251232e+02
  -3.627732e+02   5.188073e+02
  -4.756996e+02   7.282459e+01
  -2.523926e+02  -4.033164e+02
   9.934388e+01  -4.679303e+02
   2.259787e+02  -1.433878e+02
   2.032037e+02   3.342151e+02
  -2.488194e+02   5.076372e+02
  -4.318803e+02   2.109405e+01
  -2.995892e+02  -5.470197e+02
   1.745374e+02  -5.068304e+02
   4.032593e+02  -2.555757e+02
   3.937644e+02   1.746716e+02
   7.803721e+01   3.313967e+02
  -6.796806e+01   1.821967e+02
  -6.914935e+01   8.136202e+01
   1.427190e+02   4.757295e+01
   2.656033e+02   2.884416e+02
   1.312058e+01   3.666983e+02
  -4.378533e+02   9.689290e+01
  -6.453360e+02  -2.706779e+02
  -2.618221e+02  -3.392438e+02
   3.630857e+02  -1.191259e+02
   4.679583e+02   6.431705e+01
   1.183929e+02   2.784812e+02
  -3.024026e+02   3.380524e+02
  -4.329471e+02   9.922224e+01
  -2.765135e+02  -1.046303e+02
  -6.734531e+01  -3.345898e+02
   6.698395e+01  -1.782385e+02
  -8.251091e+01   4.459028e+01
  -1.841807e+02   1.905252e+02
  -1.927876e+02  -1.779438e+02
   3.298926e+01  -4.740140e+02
   3.178745e+02  -3.604556e+02
   2.603654e+02   4.722142e+01
   8.477698e+01   3.571930e+02
  -1.218746e+02   9.916798e+01
  -2.022197e+02  -2.417976e+02
   8.532560e+01  -4.012967e+02
   3.750972e+02  -1.060326e+00
   4.565735e+02   3.652455e+02
   1.208111e+02   4.088207e+02
  -2.184244e+02   2.991303e+02
  -4.583912e+02  -4.551776e+01
  -3.176952e+02  -1.717306e+02
   3.225163e+01  -2.114712e+02
   2.811628e+02  -1.218300e+01
   1.961578e+02  -3.603652e+00
   1.371870e+01   7.364206e+00
  -5.116654e+01  -7.131607e+01
   8.482794e+01  -5.004261e+01
   2.075886e+02   3.882326e+01
   1.212949e+02   1.342665e+02
  -1.594530e+02   2.091720e+02
  -2.912641e+02   9.721324e+01
  -1.984252e+02  -6.633198e+01
   3.031879e+01  -2.596399e+02
   2.092545e+02  -3.464462e+02
   3.273542e+02  -9.491432e+01
   2.011147e+02   1.420129e+02
   5.018612e+01   2.831753e+02
  -6.892276e+01   2.392240e+02
   2.162018e+00   1.423595e+02
  -1.324310e+01   7.882937e+01
  -1.277040e+02   1.383391e+02
  -2.421016e+02   3.736123e+00
  -1.619589e+02  -1.129333e+02
  -4.287616e+01  -2.982668e+02
   8.333966e+01  -1.636191e+02
   1.825425e+02   3.153376e+01
   9.794921e+01   1.637028e+02
  -3.467434e+01   1.848280e+02
  -1.870594e+02   4.879629e+01
  -2.924277e+02  -1.474368e+02
  -1.429040e+02  -2.284321e+02
   2.590003e+01  -2.304807e+02
   1.180263e+02  -9.718374e+01
   1.275241e+02  -7.727238e+01
   1.233687e+02  -7.156914e+01
   2.742670e+02  -1.676430e+01
   3.630848e+02   7.331129e+01
   2.408523e+02   2.563582e+02
  -1.581327e+01   4.035702e+02
  -3.635181e+02   3.264816e+02
  -5.085928e+02   1.567323e+02
  -2.771561e+02  -1.262824e+02
  -9.039054e+00  -2.157835e+02
   1.011491e+02  -1.866873e+02
   1.628335e+01  -1.097444e+01
  -7.590713e+01   2.345500e+01
  -7.740027e+01  -5.100036e+01
   9.710592e+00  -1.202629e+02
   1.084485e+02  -7.764415e+01
   6.830754e+01   3.783708e+01
  -4.215470e+01   1.270962e+02
  -1.347697e+02  -2.228805e+01
  -1.207957e+02  -2.309177e+02
   3.896660e+01  -2.609231e+02
   2.180558e+02  -2.085041e+02
   3.412119e+02   7.380799e+01
   2.132608e+02   2.402084e+02
   6.555454e+01   2.327796e+02
  -1.097709e+02   1.348647e+02
  -1.030709e+02   2.307838e+01
  -1.563541e+01  -1.661116e+01
   4.628595e+01   6.093664e+01
  -4.646865e+00   8.543577e+01
  -1.220516e+02   5.214783e+01
  -1.372531e+02  -4.341797e+01
  -2.427428e+01  -5.596225e+01
   6.307542e+01   1.685826e+01
   4.552433e+01   8.823639e+01
  -1.334244e+02   9.351612e+01
  -2.455643e+02  -2.348790e+01
  -2.214177e+02  -1.218624e+02
  -2.088968e+01  -2.253030e+02
   1.313628e+02  -1.743192e+02
   2.277999e+02  -1.130887e+02
   1.221663e+02   3.516424e+01
  -3.023067e+01   6.663907e+01
  -6.146214e+01  -7.649740e+00
   3.752942e+01  -6.190135e+01
   1.469880e+02  -2.444875e+01
   1.759770e+02   9.900768e+01
   3.331010e+01   1.516966e+02
  -1.033701e+02   1.181977e+02
  -1.011114e+02   5.784027e+00
  -4.667630e+01  -3.210461e+01
   4.605499e+01   2.062829e+01
   3.942772e+01   9.656172e+01
  -7.947225e+01   9.950202e+01
  -1.825932e+02   1.144309e+01
  -1.793691e+02  -1.300560e+02
  -2.080888e-01  -1.836574e+02
   1.471933e+02  -1.275527e+02
   1.406566e+02  -3.006669e+01
   4.723783e+01   8.631630e+01
  -3.227630e+01   7.748198e+01
  -5.845299e+01   1.862431e+01
   1.410574e+00  -1.700153e+01
   3.337366e+01  -4.535608e+00
  -7.995031e+00   2.182600e+01
  -7.271527e+01   1.590819e+01
  -8.259567e+01  -6.371024e+01
  -1.614261e+00  -1.470078e+02
   1.080878e+02  -1.643732e+02
   2.079624e+02   3.012736e+01
   1.588421e+02   1.575985e+02
   1.977769e+01   1.988166e+02
  -1.113973e+02   1.299478e+02
  -1.258313e+02   3.606599e+01
  -6.218461e+01  -3.265044e+01
  -3.740707e+01  -1.952955e+01
  -4.914553e+01   7.582396e+00
  -8.854664e+01   6.387682e+00
  -5.586714e+01  -5.043193e+01
   2.911376e+01  -1.078289e+02
   1.072387e+02  -6.358457e+01
   9.047274e+01   3.596736e+01
  -2.892808e+01   1.147791e+02
  -1.277713e+02   6.037483e+01
  -1.775667e+02  -6.708349e+01
  -7.677536e+01  -1.936407e+02
   1.199022e+02  -1.917843e+02
   2.411542e+02  -6.611898e+01
   2.004512e+02   6.628553e+01
   6.999335e+01   1.401684e+02
  -2.276655e+01   1.134116e+02
  -7.261432e+01   6.181345e+01
  -8.223968e+01   5.461006e+01
  -4.446921e+01   9.016603e+01
  -7.149039e+01   8.043877e+01
  -1.041735e+02  -7.766505e+00
  -1.125666e+02  -1.200033e+02
  -3.389742e+01  -1.825733e+02
   1.061765e+02  -1.484504e+02
   1.580256e+02   8.203604e+00
   1.283931e+02   1.061295e+02
   9.466115e+00   1.427493e+02
  -8.648465e+01   7.213113e+01
  -5.532617e+01  -1.910368e+01
   2.573979e+00  -5.188404e+01
   2.268228e+01  -3.984986e+01
  -1.631786e+01  -6.035044e+00
  -7.701504e+01  -1.962235e+01
  -5.223651e+01  -2.709486e+01
   6.250079e+01  -2.783925e+01
   1.534504e+02   1.153745e+01
   1.298332e+02   5.214036e+01
  -3.915879e+00   1.031902e+02
  -1.195846e+02   7.474602e+01
  -1.402179e+02   2.863849e+00
  -3.974211e+01  -4.504479e+01
   4.853237e+01  -3.582651e+01
   7.572168e+01   2.168460e+01
   1.691449e+01   7.733992e+01
  -2.805574e+01   5.842680e+01
  -6.150637e+01   5.319164e+00
  -5.084018e+01  -4.613953e+01
  -5.179086e+01  -3.603936e+01
  -4.745166e+01  -1.598961e+01
  -5.461355e+01  -5.604463e+00
  -3.605603e+01  -6.636821e+01
   1.260852e+01  -1.320792e+02
   1.068119e+02  -1.389423e+02
   1.733899e+02  -1.403667e+01
   1.309689e+02   9.153860e+01
  -2.922520e+00   1.053670e+02
  -8.300844e+01   6.760971e+01
  -6.200170e+01  -7.540099e+00
   4.673975e+01  -1.545630e+01
   1.024905e+02   4.025252e+01
   7.002820e+01   9.044286e+01
  -7.322195e+01   9.797871e+01
  -1.564450e+02   1.375267e+01
  -1.504711e+02  -3.210240e+01
  -2.363290e+01  -7.684738e+01
   6.747940e+01  -4.309145e+01
   4.992462e+01  -4.582986e-01
  -3.575736e+01   3.413972e+01
  -8.403563e+01  -1.148678e+01
  -5.032070e+01  -1.084681e+02
   7.587500e+01  -1.317249e+02
   1.200849e+02  -7.199690e+01
   1.076082e+02   9.546789e+01
   7.994732e+00   1.349216e+02
  -5.966336e+01   1.165284e+02
  -9.209508e+01   5.359185e+00
  -4.529722e+01  -1.184092e+02
   1.092863e+01  -7.755910e+01
   4.991662e+01  -1.513440e+01
   4.319487e+01   3.307561e+01
   1.584696e+01   6.530542e+00
   2.207020e+00  -1.510640e+01
   2.854548e+01   1.456787e+01
   6.417645e+01   7.897333e+01
   2.863790e+01   9.562491e+01
  -4.936196e+01   3.890052e+01
  -1.102571e+02  -3.409243e+01
  -1.257821e+02  -6.480770e+01
  -1.558638e+01  -4.892741e+01
   8.570727e+01  -1.592226e+01
   7.016807e+01  -9.307102e-01
   1.931147e+01   7.681777e+00
  -3.230625e+01   2.093921e+01
  -1.654267e+01   1.364388e+01
   1.085200e+01  -2.626628e+00
  -1.752723e+00  -4.304510e+00
  -5.285253e+01   1.837771e+00
  -7.353151e+01  -3.159776e+01
  -1.918417e+01  -7.152241e+01
   6.337379e+01  -1.052940e+02
   1.620592e+02  -8.101385e+01
   1.177336e+02   6.112486e+01
   2.691826e+01   1.255073e+02
  -8.363698e+01   1.336856e+02
  -1.078057e+02   5.309624e+01
  -7.422408e+01  -1.639692e+01
  -2.301344e+01  -2.888330e+01
  -4.750048e+00  -1.165525e+01
  -1.146629e+01  -7.984442e+00
  -2.362654e+01  -4.177157e+01
  -2.504009e+01  -7.667539e+01
   2.864269e+01  -5.767059e+01
   5.877212e+01   2.034161e+01
   5.558334e+01   9.143466e+01
   6.407870e+00   1.014547e+02
  -7.004447e+01   2.666590e+01
  -1.012930e+02  -6.541087e+01
  -2.490028e+01  -9.744695e+01
   4.882032e+01  -5.239112e+01
   9.044273e+01  -4.362235e+00
   5.064147e+01   5.215103e+01
  -2.764519e+01   4.692844e+01
  -3.874349e+01   2.565671e+01
   2.072934e+01  -2.602566e+00
   5.847266e+01  -6.530910e+00
   2.053571e+01   2.850432e+01
  -5.637509e+01   6.015301e+01
  -1.216834e+02   3.334552e+01
  -6.589608e+01  -1.787763e+01
   8.488367e+00  -7.324115e+01
   5.918439e+01  -8.862618e+01
   3.879718e+01  -1.470263e+01
   8.796005e+00   3.837214e+01
  -2.253009e+01   4.359526e+01
  -3.547066e+01  -7.560862e+00
  -3.088645e+01  -4.188269e+01
   2.097581e+00  -3.493030e+01
   3.154700e+01   9.793640e+00
   3.810943e+01   2.049350e+01
   1.936122e+01   4.273824e+00
  -3.236500e+00  -1.780752e+01
  -5.320090e+00  -8.273463e+00
   6.494788e+00   2.590222e+01
   3.184696e+00   4.989301e+01
  -1.972475e+01   2.348891e+01
  -3.377700e+01  -2.265262e+01
  -1.763485e+01  -5.081211e+01
   3.306342e+01  -2.109798e+01
   5.183450e+01   2.397468e+01
   1.559552e+01   5.260553e+01
  -4.825287e+01   4.065060e+01
  -7.096667e+01  -7.726172e+00
  -4.336708e+01  -3.998760e+01
   2.083311e+01  -3.856137e+01
   5.335998e+01  -2.807612e+01
   2.865771e+01  -6.252710e+00
  -2.734754e+01   5.178562e+00
  -2.891069e+01  -8.728602e+00
   1.926764e+01  -1.972753e+01
   8.521875e+01  -1.831753e+01
