
 $NMID
 id='ANONYMOUS ', fmtdat='(2E16.6)'
 volume=1.0
 tramp=1.0
 $END
  -3.251287e+03   5.110177e+01
  -2.175225e+03  -1.987743e+03
   2.112343e+02  -2.658212e+03
   1.534752e+03  -1.047472e+03
   8.866845e+02   6.945159e+01
  -1.918876e+02   4.657670e+02
  -3.754016e+02  -1.410801e+02
  -3.955965e+00  -5.367064e+02
   5.447235e+02  -8.020728e+02
   7.895040e+02   6.730502e+01
   4.054312e+02   6.841147e+02
  -7.619496e+01   7.201842e+02
  -4.522109e+02   1.567127e+02
  -2.751739e+02  -5.264820e+02
   1.627844e+02  -5.351688e+02
   4.186245e+02  -3.690782e+01
   2.119649e+02   4.820372e+02
  -1.902657e+02   5.476354e+02
  -5.151196e+02   1.329822e+02
  -4.392227e+02  -1.868376e+02
  -1.004143e+02  -3.594653e+02
   1.516404e+02  -2.569654e+02
   1.340950e+02  -8.249253e+01
  -1.369282e+02  -8.366745e+01
  -2.248960e+02  -2.248066e+02
  -4.901412e+01  -2.948614e+02
   4.289083e+02  -1.589996e+02
   4.514060e+02   2.406356e+02
   2.589716e+02   3.109677e+02
  -3.035061e+02   1.879254e+02
  -4.721585e+02  -1.165626e+02
  -1.900033e+02  -4.120528e+02
   1.913230e+02  -3.593144e+02
   4.561941e+02  -1.386493e+02
   3.199308e+02   2.344667e+02
   9.380544e+01   3.867307e+02
  -6.811375e+01   2.150607e+02
  -1.330982e+01  -1.353940e+02
   1.756431e+02  -2.149184e+02
   2.273122e+02   8.348214e+01
   2.183432e+01   4.981385e+02
  -2.272957e+02   4.155335e+02
  -3.500767e+02  -4.347213e+01
  -1.596021e+02  -3.374889e+02
   1.696068e+02  -1.965052e+02
   1.862617e+02   2.253331e+02
  -1.292061e+02   4.110447e+02
  -4.517943e+02  -2.969694e+01
  -4.244058e+02  -4.203657e+02
  -1.748058e+02  -5.208753e+02
   3.473459e+02  -2.026964e+02
   5.659605e+02   1.595347e+02
   3.127873e+02   3.149787e+02
  -5.938257e+01   2.457517e+02
  -2.900913e+02   4.579633e+01
  -2.071961e+02  -6.648637e+01
   1.286218e+01  -5.943224e+01
   5.688168e+01   3.505153e+01
  -7.419234e+01   1.145340e+02
  -2.548006e+02  -6.377117e+01
  -1.493566e+02  -2.330944e+02
   1.810975e+02  -2.055901e+02
   3.430277e+02  -5.442832e+01
   2.365594e+02   8.686451e+01
  -3.371091e+01   2.916144e+02
  -3.096941e+02   2.897488e+02
  -3.487387e+02   1.616459e+02
  -2.676352e+02  -1.868328e+02
  -4.074907e+01  -4.003635e+02
   9.571622e+01  -3.178517e+02
   7.964701e+01  -1.521593e+02
   5.040980e+01  -7.234797e+01
   1.476632e+02  -5.586928e+01
   2.109324e+02  -2.849830e+01
   2.628820e+02   1.039005e+02
   7.103544e+01   2.575747e+02
  -7.526974e+01   1.876341e+02
  -1.742162e+02  -5.619598e+01
  -1.569957e+02  -2.321182e+02
   1.684319e+01  -2.644030e+02
   2.313973e+02  -1.146110e+02
   2.400340e+02   1.748415e+02
   1.848617e+02   3.225301e+02
  -9.771161e+01   2.486964e+02
  -1.761228e+02   1.341671e+02
  -1.707154e+02   4.893265e+01
  -1.359430e+02   3.945984e+01
  -2.348167e+02   3.976658e+01
  -3.950231e+02  -1.263482e+02
  -2.961441e+02  -2.712511e+02
   8.042643e+01  -4.173414e+02
   4.477444e+02  -3.705396e+02
   4.327391e+02  -5.808996e+01
   2.790431e+02   9.895155e+01
   1.334003e+01   2.567581e+02
  -7.257159e+01   1.737255e+02
  -2.264542e+01   3.464981e+01
   1.246649e+02  -4.504600e+01
   1.542987e+02   4.418195e+01
   3.369050e+00   1.424758e+02
  -1.335088e+02   1.106403e+02
  -1.177042e+02  -4.945125e+01
   4.516525e+01  -1.299154e+02
   1.594785e+02   1.565432e+00
   1.582787e+02   2.188212e+02
  -1.972555e+01   3.095882e+02
  -2.488809e+02   1.884283e+02
  -2.979866e+02  -1.260551e+02
  -2.424615e+02  -2.305152e+02
  -4.498370e+01  -2.787821e+02
   1.320921e+02  -1.162157e+02
   1.732698e+02  -8.065870e-01
   3.880413e+01   1.229440e+01
  -5.246441e+01  -6.615141e+01
  -1.350309e+01  -1.271290e+02
   1.183560e+02  -5.378679e+01
   1.315198e+02   4.280395e+01
   3.269752e+01   6.054242e+01
  -8.064561e+01  -1.634312e+00
  -2.363310e+01  -8.251520e+01
   1.461812e+02  -6.938677e+01
   2.888350e+02   4.324875e+01
   2.392999e+02   1.680036e+02
   2.173268e+01   2.848969e+02
  -2.390602e+02   2.504064e+02
  -2.715580e+02   5.897378e+01
  -1.396042e+02  -5.318437e+01
   3.916670e+01  -7.140857e+01
   5.533712e+01   1.177233e+01
  -4.773581e+01   7.972187e+01
  -1.763502e+02   1.256449e+01
  -1.765991e+02  -1.036179e+02
  -5.542660e+01  -1.728716e+02
   1.068159e+02  -1.196377e+02
   1.355693e+02  -2.238460e+01
   5.439608e+01   3.115844e+01
  -3.389601e+01  -1.796172e+01
  -1.670613e+01  -1.081331e+02
   1.255051e+02  -8.657591e+01
   1.948837e+02  -1.633499e+01
   1.860301e+02   1.728026e+02
  -1.467652e+00   2.433476e+02
  -1.552361e+02   1.100424e+02
  -1.866576e+02   1.653138e+01
  -5.632682e+01  -1.116303e+02
   6.557082e+01  -9.754365e+01
   6.693920e+01  -2.398746e+01
   7.738330e+00   2.208922e+01
  -3.213921e+01   7.241845e+00
   1.188179e+01  -1.983184e+01
   8.760445e+01  -2.308527e+00
   9.014852e+01   1.042924e+02
   5.846611e-01   1.792274e+02
  -1.515276e+02   1.318778e+02
  -2.230536e+02  -1.577267e+01
  -1.780540e+02  -1.593026e+02
  -2.435988e+01  -2.245130e+02
   9.666061e+01  -1.302010e+02
   1.185568e+02  -8.038870e+00
   7.255261e+01   5.297995e+01
   2.982688e+01   3.766446e+01
   5.145630e+01  -7.616428e+00
   8.186423e+01   7.953678e-01
   4.943974e+01   5.837403e+01
  -4.788337e+01   9.201713e+01
  -1.103880e+02   6.763034e+01
  -8.787439e+01  -5.194507e+01
   4.557416e+01  -1.273970e+02
   1.507871e+02  -9.908962e+01
   1.783277e+02   7.344422e+01
   6.341170e+01   2.183262e+02
  -1.304357e+02   1.900436e+02
  -2.894462e+02   7.394541e+01
  -2.192849e+02  -1.107735e+02
  -9.565339e+01  -1.823710e+02
   5.510702e+01  -1.305876e+02
   8.161994e+01  -5.977646e+01
   7.782497e+01  -5.879895e+01
   5.952485e+01  -8.181316e+01
   1.044397e+02  -6.472673e+01
   1.279795e+02   2.885927e+01
   1.098943e+02   1.751268e+02
   5.640656e+00   2.415129e+02
  -8.996609e+01   1.652684e+02
  -1.663645e+02  -1.822700e+01
  -1.015805e+02  -1.329795e+02
  -6.004751e-01  -1.422795e+02
   6.299193e+01  -7.328330e+01
   5.838447e+01   2.237554e+01
  -1.149114e+01   4.552049e+01
  -3.031791e+01   2.414219e+01
   2.846662e+01   1.515747e+01
   8.159223e+01   2.824416e+01
   4.261474e+01   3.624575e+01
  -7.326064e+01   3.657322e+01
  -1.718708e+02   1.433557e+00
  -1.459910e+02  -7.164408e+01
   8.747079e+00  -8.667006e+01
   1.336108e+02  -3.752228e+01
   1.182837e+02   2.513773e+00
   3.539172e+01   5.653258e+01
  -5.996065e+01   3.158106e+01
  -6.764519e+01  -2.461295e+01
  -8.591009e+00  -7.113404e+01
   4.463095e+01  -5.907429e+01
   6.532008e+01   5.597590e+00
   4.324672e+01   4.594252e+01
   3.033871e+01   4.596269e+01
   4.752148e+01   8.170642e+00
   6.523516e+01   7.146804e+00
   3.684462e+01   7.022983e+01
  -4.633071e+01   1.380295e+02
  -1.468496e+02   1.275295e+02
  -1.673656e+02   9.362098e+00
  -9.219410e+01  -1.149711e+02
  -4.526284e+00  -1.148684e+02
   1.028639e+02  -4.781935e+01
   5.992222e+01   1.437778e+01
  -6.765786e+01   2.079582e+01
  -1.296488e+02  -4.909189e+01
  -5.496543e+01  -1.060213e+02
   9.971968e+01  -9.975685e+01
   1.739422e+02  -3.347596e+01
   1.383178e+02   5.166478e+01
   3.322228e+01   8.650175e+01
  -6.097858e+01   4.157719e+01
  -3.795526e+01  -8.346987e+00
   3.944736e+01  -2.160623e+01
   8.463093e+01   1.580770e+01
   2.856823e+01   1.052949e+02
  -8.987080e+01   1.480604e+02
  -1.592288e+02   5.213962e+01
  -9.766175e+01  -1.002952e+02
  -8.588859e+00  -1.928929e+02
   1.074518e+02  -1.131134e+02
   8.866357e+01   1.940720e+01
   2.591467e+01   1.039281e+02
  -2.912705e+01   8.998393e+01
  -4.363566e+01   5.189047e+00
  -5.147935e+01  -3.122887e+01
  -1.396626e+01  -9.994757e+00
  -5.744413e+00   1.700565e+01
  -2.774500e+01  -2.102731e+01
  -3.822871e+01  -8.477434e+01
  -4.266442e+01  -1.019648e+02
   4.703004e+01  -3.517127e+01
   1.374904e+02   3.578055e+01
   8.150261e+01   7.609398e+01
   8.738280e+00   4.696934e+01
  -7.598189e+01   2.788838e+01
  -7.889160e+01   4.124523e+00
  -1.260918e+01  -1.333494e+01
   3.458256e+01  -2.199552e+01
   1.941730e+01  -1.045941e+01
  -1.770271e+01   1.769105e+00
   3.755565e+00   5.266714e+00
   6.382505e+01   9.490356e+00
   7.867649e+01   2.089820e+01
   1.706313e+01   7.281201e+01
  -1.039493e+02   1.156140e+02
  -2.024184e+02   3.994078e+01
  -1.494968e+02  -8.138675e+01
  -1.688087e+01  -1.534567e+02
   9.245842e+01  -1.584346e+02
   9.746180e+01  -5.680368e+01
   7.409287e+01   3.306618e+01
   1.807677e+01   4.004771e+01
   1.047293e-01   1.125666e+01
   1.252628e+01   6.336441e+00
   3.077664e+01   4.594041e+01
   1.019976e+01   8.984228e+01
  -2.973899e+01   6.740391e+01
  -6.953135e+01  -3.233117e+01
  -6.888562e+01  -1.079603e+02
   1.186329e+01  -9.013593e+01
   7.762667e+01  -3.444029e+01
   7.170774e+01   6.677578e+01
   4.619924e+01   1.077926e+02
  -6.780143e+01   6.319713e+01
  -1.092952e+02  -1.791198e+01
  -4.857117e+01  -4.697992e+01
   4.383659e+01  -5.301885e+01
   3.441453e+01  -2.095932e+01
  -2.826264e+01   1.395648e+00
  -6.832508e+01   3.526149e+00
  -1.094575e+01  -2.337723e+01
   7.983703e+01  -5.100118e+01
   1.165701e+02  -2.244753e+01
   6.179151e+01   1.650437e+01
  -9.332387e+00   8.483693e+01
  -6.484344e+01   6.993711e+01
  -4.037306e+01  -4.373925e+00
  -7.073569e-01  -5.088209e+01
   2.407256e+01  -4.208561e+01
   2.906290e+01   1.538461e+01
   3.134268e+01   5.455590e+01
  -3.010973e+00   3.855856e+01
  -2.979050e+01  -3.921568e+00
  -3.334520e+01  -2.735947e+01
  -1.877334e+01  -8.680913e+00
   3.335253e+00   1.747199e+01
   4.691305e+00   7.264604e+00
   5.920339e-01  -2.943841e+01
   1.158144e+01  -4.504421e+01
   3.525705e+01  -1.331290e+01
   3.735081e+01   3.974342e+01
   5.129363e+00   5.724247e+01
  -3.723442e+01   2.133333e+01
  -5.274023e+01  -4.024562e+01
  -1.460574e+01  -5.445871e+01
   5.682762e+01  -2.907836e+01
   9.059260e+01   1.575207e+01
   4.689434e+01   5.426379e+01
  -3.250553e+01   4.189138e+01
  -5.965733e+01   2.097531e+01
  -2.354649e+01   2.887154e+00
   2.958765e+01  -1.324554e+00
   3.325951e+01   1.202549e+01
  -2.391605e+01   2.085693e+01
  -6.068068e+01   1.235832e+01
