
 $NMID
 id='ANONYMOUS ', fmtdat='(2E16.6)'
 volume=1.0
 tramp=1.0
 $END
   3.555600e+03  -3.745320e+02
   2.060412e+03   2.055935e+03
  -1.834073e+02   2.570007e+03
  -1.362597e+03   7.718600e+02
  -8.559295e+02  -1.847148e+02
   2.975056e+02  -3.932835e+02
   4.692983e+02   3.358098e+02
   2.556970e+01   8.131855e+02
  -4.575544e+02   5.971792e+02
  -6.285560e+02   4.009065e+01
  -5.698495e+02  -4.695872e+02
   5.665780e+01  -6.693156e+02
   5.050247e+02  -1.068061e+02
   2.762361e+02   4.844657e+02
  -1.974025e+02   5.407954e+02
  -5.046937e+02  -1.628639e+01
  -2.653112e+02  -5.692359e+02
   3.117228e+02  -5.313601e+02
   4.650081e+02  -1.408524e+02
   3.938157e+02   2.300289e+02
   3.630916e+01   3.663251e+02
  -1.712311e+02   2.275673e+02
  -1.212769e+02   5.107866e+01
   1.519498e+02  -2.118426e+01
   3.149766e+02   2.065451e+02
   2.719913e+01   4.014965e+02
  -3.611692e+02   2.570491e+02
  -7.113692e+02  -1.017875e+02
  -2.280750e+02  -4.476726e+02
   3.271455e+02  -2.739619e+02
   5.169163e+02   1.292174e+02
   2.333252e+02   3.382503e+02
  -2.819291e+02   4.097425e+02
  -4.784570e+02   1.315947e+02
  -3.429149e+02  -1.819521e+02
  -4.880609e+01  -3.032761e+02
   1.077235e+02  -2.325313e+02
   5.239744e+01   1.544749e+02
  -1.645261e+02   2.950907e+02
  -2.593716e+02  -6.687238e+01
  -7.257348e+01  -5.703860e+02
   3.496283e+02  -4.883255e+02
   4.325186e+02  -8.673140e+01
   1.644543e+02   3.920563e+02
  -1.831794e+02   1.779497e+02
  -2.048868e+02  -2.146727e+02
   9.888290e+01  -4.769836e+02
   4.420775e+02  -1.136106e+02
   5.492229e+02   3.580746e+02
   7.920992e+01   4.845886e+02
  -3.486137e+02   2.201445e+02
  -5.059834e+02  -3.366972e+00
  -3.394749e+02  -2.655373e+02
   1.012636e+02  -2.671415e+02
   3.349582e+02  -2.657495e+01
   2.311844e+02   1.388329e+02
  -5.813110e+01   7.549264e+01
  -6.739663e+01  -1.398805e+02
   1.256844e+02  -1.072360e+02
   2.362861e+02   3.975173e+01
   1.123828e+02   2.173962e+02
  -1.621537e+02   2.100933e+02
  -3.334489e+02   9.371502e+01
  -1.980954e+02  -8.814420e+01
   4.262378e+00  -2.091348e+02
   2.684180e+02  -3.216504e+02
   3.075371e+02  -2.132808e+02
   2.368303e+02   8.216717e+01
   4.948026e+01   3.617084e+02
  -4.333919e+01   2.715671e+02
  -4.808991e+01   1.245035e+02
  -6.168889e+00   4.060884e+01
  -1.067868e+02   1.083394e+02
  -1.751917e+02   9.060810e+01
  -2.254340e+02  -1.198213e+01
  -1.090852e+02  -2.520002e+02
   8.981031e+01  -2.027275e+02
   1.878697e+02   3.549941e+01
   1.707344e+02   2.243080e+02
  -1.630695e+01   2.151066e+02
  -2.056542e+02   6.814240e+01
  -2.787856e+02  -1.775905e+02
  -1.782355e+02  -2.881993e+02
   6.464476e+01  -2.699215e+02
   1.509005e+02  -1.433477e+02
   1.281345e+02  -3.360056e+01
   9.905680e+01  -3.566205e+01
   2.213876e+02  -3.227486e+01
   3.545993e+02   7.379169e+01
   2.821742e+02   2.510682e+02
   4.885766e+00   4.412567e+02
  -3.180397e+02   3.508080e+02
  -5.149492e+02   1.622318e+02
  -2.637668e+02  -1.401612e+02
  -4.439254e+01  -2.645176e+02
   1.473078e+02  -1.949954e+02
   3.897588e+01  -2.456236e+01
  -8.696953e+01   7.887685e+01
  -1.338059e+02   2.634203e+01
  -5.572558e+01  -1.606832e+02
   1.126186e+02  -1.248829e+02
   1.201403e+02   5.262000e+01
  -4.751251e+00   1.681485e+02
  -1.382754e+02   4.739019e+01
  -1.103156e+02  -2.087427e+02
  -1.670119e+01  -3.147117e+02
   2.376563e+02  -1.965519e+02
   3.038667e+02   3.030720e+01
   2.680093e+02   2.054498e+02
   7.840487e+01   2.278991e+02
  -1.008921e+02   1.616104e+02
  -1.224286e+02   3.323297e+01
  -3.850607e+01  -2.625068e+01
   5.946920e+01   4.457464e+01
   9.470348e+00   9.812989e+01
  -1.051632e+02   8.655589e+01
  -1.484866e+02  -7.264597e+00
  -3.154937e+01  -6.118472e+01
   7.439183e+01  -7.803332e+00
   4.856576e+01   8.404325e+01
  -1.291455e+02   5.847571e+01
  -2.293239e+02   3.588863e+00
  -2.163244e+02  -1.354157e+02
  -5.271565e+01  -2.161852e+02
   1.285180e+02  -2.188744e+02
   2.427892e+02  -1.337929e+02
   1.468997e+02   5.270680e+01
  -1.028861e+01   8.399634e+01
  -6.855248e+01  -4.453393e+00
   3.301572e+01  -7.824903e+01
   1.405438e+02  -6.453643e+01
   1.781130e+02   9.372701e+01
   6.006995e+01   1.721665e+02
  -5.460137e+01   1.402359e+02
  -1.045135e+02   2.495630e+01
  -5.119053e+01  -4.662075e+01
   3.423270e+01   1.291519e+01
   4.481530e+01   9.099468e+01
  -7.172870e+01   1.103801e+02
  -1.635981e+02   1.981371e+01
  -1.893865e+02  -1.451267e+02
  -1.176205e+01  -1.917330e+02
   1.607283e+02  -1.294761e+02
   1.678310e+02   1.630163e+00
   5.091006e+01   8.729018e+01
  -5.219047e+01   8.628808e+01
  -6.502877e+01   3.136372e+01
  -1.119968e+01  -2.257401e+01
   2.176456e+01  -1.393058e+01
  -5.316383e+00   1.554638e+01
  -6.388140e+01   4.041857e+00
  -8.361836e+01  -5.489140e+01
  -1.938627e+01  -1.454825e+02
   1.244197e+02  -1.448381e+02
   1.823364e+02  -1.692797e+01
   1.751348e+02   1.195073e+02
   4.351422e+01   1.835473e+02
  -9.648848e+01   1.334931e+02
  -1.303546e+02   1.985430e+01
  -5.961524e+01  -3.945947e+01
  -2.767906e+01  -2.780657e+01
  -4.460521e+01   1.174365e+01
  -6.832682e+01   3.047562e+00
  -4.316157e+01  -4.101252e+01
   5.523061e+01  -8.952575e+01
   1.076147e+02  -6.205577e+01
   9.153170e+01   2.152808e+01
  -1.220554e+01   1.088227e+02
  -1.298032e+02   9.488056e+01
  -1.711554e+02  -5.214988e+01
  -9.114032e+01  -1.782697e+02
   8.165020e+01  -1.872976e+02
   2.373973e+02  -1.035205e+02
   2.031343e+02   5.482642e+01
   8.849443e+01   1.534140e+02
  -1.859171e+01   1.187799e+02
  -6.789314e+01   6.982924e+01
  -7.497088e+01   5.961933e+01
  -4.348079e+01   9.223498e+01
  -8.268665e+01   5.300353e+01
  -1.145357e+02   2.075623e+00
  -1.175521e+02  -1.378745e+02
  -3.038214e+01  -1.787644e+02
   8.915627e+01  -1.371037e+02
   1.675027e+02  -1.677068e+01
   1.330711e+02   1.223773e+02
   1.297370e+01   1.310536e+02
  -5.855771e+01   7.368555e+01
  -5.045650e+01   3.488008e+00
  -4.510111e+00  -4.623291e+01
   1.748476e+01  -3.307005e+01
  -2.717383e+01  -1.137200e+01
  -8.031875e+01  -9.099667e+00
  -4.829739e+01  -3.084448e+01
   4.636947e+01  -4.400837e+01
   1.359695e+02   8.816542e+00
   1.299864e+02   4.233638e+01
   9.905006e+00   7.957307e+01
  -1.289604e+02   7.112188e+01
  -1.245263e+02  -1.375711e+01
  -3.934331e+01  -4.182091e+01
   5.254494e+01  -4.720169e+01
   6.109305e+01   2.102296e+01
   1.433361e+01   6.523351e+01
  -3.972783e+01   5.574965e+01
  -5.962385e+01  -1.251078e+00
  -4.699887e+01  -4.636307e+01
  -4.250765e+01  -4.281395e+01
  -5.227597e+01   2.251978e+00
  -5.265179e+01   1.115053e+00
  -4.022635e+01  -6.476812e+01
   1.668503e+01  -1.388322e+02
   1.147596e+02  -1.403695e+02
   1.451245e+02  -2.298338e+01
   1.303972e+02   8.825944e+01
   2.880453e+00   1.133424e+02
  -7.220937e+01   4.987184e+01
  -5.613876e+01  -1.798879e+01
   3.948955e+01  -1.980519e+01
   1.105086e+02   1.266316e+01
   5.990285e+01   9.826880e+01
  -7.403194e+01   1.205063e+02
  -1.452770e+02   7.162046e+01
  -1.456450e+02  -1.129553e+01
  -3.700663e+01  -7.178959e+01
   5.511574e+01  -6.547787e+01
   4.874822e+01   1.218468e+00
  -3.789492e+01   2.833450e+01
  -7.426251e+01  -1.671729e+01
  -3.610427e+01  -1.098814e+02
   7.373455e+01  -1.450676e+02
   1.458687e+02  -8.318207e+01
   1.229770e+02   9.628870e+01
   2.513855e+01   1.900026e+02
  -7.186126e+01   1.478289e+02
  -9.664290e+01  -1.168912e+01
  -4.975834e+01  -1.127442e+02
  -6.400963e+00  -1.072900e+02
   4.350146e+01  -1.472351e+01
   4.323201e+01   2.515758e+01
   1.940037e+01   1.016330e+01
   6.220504e+00  -1.607473e+01
   2.287652e+01   1.418664e+01
   4.139991e+01   8.048622e+01
   3.765926e+01   9.762776e+01
  -5.140925e+01   3.688894e+01
  -1.162688e+02  -8.699024e+00
  -1.114422e+02  -7.034686e+01
  -1.481227e+01  -4.955204e+01
   7.948564e+01  -1.767543e+01
   7.522407e+01  -6.876351e+00
   1.699716e+01   7.913019e+00
  -3.635693e+01   1.744574e+01
  -1.477994e+01   1.328844e+01
   1.743249e+01  -5.123537e+00
  -5.070305e+00  -6.219488e+00
  -6.704844e+01   1.104361e+01
  -7.305299e+01  -1.513779e+01
  -2.649176e+01  -7.253800e+01
   1.017692e+02  -9.642191e+01
   1.598706e+02  -5.038593e+01
   1.541918e+02   3.685782e+01
   3.080114e+01   1.364538e+02
  -3.642877e+01   1.271274e+02
  -9.852465e+01   4.697471e+01
  -7.942034e+01  -1.654297e+01
  -2.435728e+01  -3.015690e+01
  -1.027349e+00  -9.565850e+00
  -9.464212e+00  -4.216407e+00
  -3.233325e+01  -3.767500e+01
  -1.109930e+01  -8.567366e+01
   1.562386e+01  -6.214541e+01
   7.589244e+01  -3.319082e+00
   7.978642e+01   1.040462e+02
   1.055476e+01   9.768612e+01
  -6.809716e+01   2.187658e+01
  -1.026630e+02  -6.949887e+01
  -2.622770e+01  -8.766914e+01
   4.704329e+01  -4.895197e+01
   8.304123e+01  -2.413156e+00
   3.806833e+01   4.644727e+01
  -2.623545e+01   5.467726e+01
  -3.103491e+01   2.279416e+01
   2.431668e+01  -2.632491e+00
   5.543143e+01  -9.900627e+00
   1.567283e+01   2.709491e+01
  -6.175819e+01   6.957957e+01
  -1.092737e+02   5.904228e+01
  -5.208878e+01  -8.482762e+00
   3.655757e+00  -6.977198e+01
   6.184390e+01  -7.707724e+01
   3.851680e+01  -1.675139e+01
   1.210843e+01   4.213840e+01
  -1.873987e+01   3.852139e+01
  -3.393629e+01  -1.438852e+01
  -3.150926e+01  -4.763409e+01
  -4.798419e+00  -3.436367e+01
   2.789883e+01   1.124731e+01
   3.805707e+01   1.870574e+01
   1.823025e+01  -9.985895e-02
  -4.529950e+00  -1.576251e+01
  -4.992759e+00  -2.625176e+00
  -1.598651e-01   2.732759e+01
  -4.527083e+00   3.668860e+01
  -2.501833e+01   1.494669e+01
  -3.151064e+01  -3.728422e+01
  -9.574212e+00  -5.364965e+01
   3.643929e+01  -2.310010e+01
   5.704632e+01   2.200788e+01
   1.811945e+01   4.719616e+01
  -4.767629e+01   3.789077e+01
  -8.278895e+01   5.289095e+00
  -5.140775e+01  -3.602225e+01
   2.505702e+01  -3.405445e+01
   4.418607e+01  -2.107041e+01
   2.003690e+01  -7.382968e+00
  -2.964260e+01  -9.007164e-01
  -2.871646e+01  -9.073396e+00
   2.278528e+01  -2.568581e+01
   8.456564e+01  -1.092765e+01
