
 $NMID
 id='ANONYMOUS ', fmtdat='(2E16.6)'
 volume=1.0
 tramp=1.0
 $END
   2.191087e+03   2.354351e+02
   1.853648e+03   1.107072e+03
   1.792761e+02   1.229765e+03
  -8.202697e+02   8.844181e+02
  -6.453905e+02   2.954839e+02
  -1.211754e+02  -1.485050e+02
   3.246832e+02   3.837202e+01
   1.448498e+02   4.530868e+02
  -3.302360e+02   3.955114e+02
  -5.435463e+02   2.116017e+02
  -2.033117e+02  -3.001294e+02
   5.785703e+00  -6.407582e+02
   2.295958e+02  -1.763651e+02
   1.969920e+02   2.935012e+02
  -2.280101e+01   4.932043e+02
  -3.802367e+02   1.384401e+02
  -2.846565e+02  -4.639483e+02
   5.510127e+01  -6.413071e+02
   3.935637e+02  -2.818060e+02
   3.689029e+02   1.467137e+02
   9.913432e+01   2.949937e+02
  -7.924567e+01   2.254699e+02
  -5.662355e+01   8.601333e+01
   1.544279e+02   1.093889e+02
   2.581080e+02   1.964592e+02
  -8.687210e+01   2.972742e+02
  -4.244464e+02   1.509559e+02
  -4.253115e+02  -1.749083e+02
  -1.985700e+02  -3.975462e+02
   2.894548e+02  -1.132085e+02
   4.696735e+02   7.791993e+01
   1.258312e+02   3.160260e+02
  -2.117113e+02   2.757374e+02
  -4.034092e+02   1.193355e+02
  -2.722889e+02  -1.201058e+02
  -1.586539e+02  -3.089636e+02
  -2.831292e+01  -1.667453e+02
  -1.176584e+02   3.906423e+01
  -1.475980e+02   1.023613e+02
  -1.900956e+02  -1.834352e+02
  -2.656710e+01  -4.283703e+02
   2.115227e+02  -3.673699e+02
   2.104904e+02   1.807134e+01
   1.202158e+02   2.263238e+02
  -9.180123e+01   1.058182e+02
  -7.529047e+01  -2.246103e+02
   1.343026e+02  -2.981499e+02
   4.363660e+02  -4.247288e+01
   4.334501e+02   3.265717e+02
   2.174804e+02   4.204236e+02
  -2.868860e+02   3.291443e+02
  -4.524617e+02  -9.500887e+01
  -2.210302e+02  -2.504955e+02
  -3.794204e+01  -1.583535e+02
   2.007226e+02  -1.016491e+02
   2.095392e+02  -3.740371e+01
   3.533347e+01   1.893346e+01
  -5.102247e+01  -2.214889e+01
   5.098970e+01  -1.487366e+01
   1.794096e+02  -7.159019e+00
   1.197524e+02   1.224142e+02
  -9.200447e+01   2.695967e+02
  -3.007401e+02   1.460349e+02
  -2.288056e+02  -6.969872e+01
  -2.299086e+00  -2.643667e+02
   2.811848e+02  -3.485118e+02
   3.039999e+02  -9.239590e+01
   1.538267e+02   1.530294e+02
   1.685325e+01   3.279978e+02
   1.254448e+01   3.063292e+02
  -4.252362e+00   1.478155e+02
  -3.751587e+01   9.431358e+01
  -1.267270e+02   1.340447e+02
  -2.283788e+02   2.945377e+01
  -1.894985e+02  -1.063789e+02
  -8.270758e+01  -2.020427e+02
   7.438408e+01  -1.826193e+02
   1.598101e+02   4.647512e+01
   1.243995e+02   2.023072e+02
  -6.942399e+01   2.080627e+02
  -2.066808e+02   1.729305e+01
  -3.232820e+02  -1.382735e+02
  -1.421536e+02  -2.509225e+02
   2.405632e+01  -2.137205e+02
   1.234534e+02  -1.296376e+02
   1.167654e+02  -5.869503e+01
   1.311502e+02  -7.870959e+01
   2.629547e+02  -3.554608e+01
   3.571696e+02   4.236608e+01
   2.966107e+02   1.906342e+02
   1.325481e+01   3.792438e+02
  -3.032036e+02   2.743532e+02
  -4.287508e+02   2.002562e+02
  -2.738167e+02  -4.270971e+01
  -6.052540e+00  -1.608919e+02
   7.596826e+01  -1.977884e+02
   3.163277e+00  -4.364405e+01
  -9.979891e+01   1.639221e+01
  -9.199906e+01  -4.677949e+01
  -7.558853e+00  -1.153628e+02
   1.026566e+02  -8.083315e+01
   9.283732e+01   3.521101e+01
  -2.227093e+01   1.002800e+02
  -1.068907e+02   4.298298e+00
  -1.173457e+02  -1.829875e+02
   2.750787e+00  -2.495294e+02
   1.972534e+02  -1.918656e+02
   3.101707e+02  -2.097646e+01
   2.230282e+02   1.824416e+02
   5.547901e+01   2.499101e+02
  -1.304029e+02   1.008583e+02
  -1.098164e+02  -1.461074e+01
  -3.007489e+01  -2.016248e+00
   4.323391e+01   5.868149e+01
  -4.487766e+00   8.678880e+01
  -1.077336e+02   5.348714e+01
  -1.299262e+02  -5.830262e+00
  -2.913320e+01  -3.963790e+01
   6.434445e+01   1.109318e+01
   4.705203e+01   9.132659e+01
  -1.454722e+02   1.099847e+02
  -2.735078e+02   3.667953e+00
  -1.889370e+02  -1.077961e+02
  -3.425973e+01  -2.265168e+02
   1.883703e+02  -1.686790e+02
   2.142967e+02  -7.233633e+01
   1.119181e+02   2.500887e+01
  -2.206151e+01   5.803423e+01
  -6.135015e+01  -1.460086e+00
   4.672205e+01  -6.596135e+01
   1.628923e+02  -2.096045e+01
   1.249180e+02   9.479114e+01
   4.348035e+01   1.268723e+02
  -5.604263e+01   8.417525e+01
  -1.019273e+02   8.984362e+00
  -4.014325e+01  -2.599535e+01
   4.171067e+01   1.569372e+01
   1.688077e+01   9.220132e+01
  -7.572361e+01   9.731126e+01
  -1.716241e+02  -4.486476e+00
  -1.714108e+02  -1.100627e+02
  -2.224746e+01  -1.772674e+02
   1.386913e+02  -1.689890e+02
   1.452411e+02  -3.519530e+01
   3.858478e+01   6.941203e+01
  -4.267279e+01   6.707205e+01
  -5.546417e+01   1.850295e+01
   1.886553e+00  -2.199087e+01
   3.684683e+01  -5.761751e+00
  -6.581082e+00   2.729088e+01
  -8.346234e+01   9.704037e-01
  -7.917477e+01  -8.634353e+01
   1.255198e+01  -1.586056e+02
   1.181249e+02  -1.480724e+02
   2.243766e+02  -1.689836e+01
   1.703101e+02   1.345718e+02
   4.222919e+01   2.130862e+02
  -8.379745e+01   1.524642e+02
  -1.263955e+02   4.992954e+01
  -6.758616e+01  -2.847625e+01
  -3.191657e+01  -2.297214e+01
  -4.930911e+01   1.653772e+01
  -8.407926e+01   1.610631e+01
  -5.231792e+01  -5.999873e+01
   2.257970e+01  -9.892522e+01
   1.024383e+02  -6.228698e+01
   1.032618e+02   3.891344e+01
  -2.479629e+01   1.158704e+02
  -1.259255e+02   6.095444e+01
  -1.844678e+02  -6.554165e+01
  -8.104576e+01  -1.842253e+02
   1.235762e+02  -2.159278e+02
   2.268097e+02  -5.706408e+01
   2.073346e+02   5.423611e+01
   6.759950e+01   1.537598e+02
  -1.990115e+01   1.108837e+02
  -7.418995e+01   5.627539e+01
  -4.797780e+01   6.918399e+01
  -4.438862e+01   6.970901e+01
  -7.763746e+01   9.254248e+01
  -1.039724e+02  -1.453127e+01
  -1.373345e+02  -1.218441e+02
  -4.333116e+01  -2.081827e+02
   1.013646e+02  -1.387970e+02
   1.472832e+02  -3.540422e+01
   1.359176e+02   8.719307e+01
   1.925308e+01   1.404650e+02
  -8.336317e+01   7.747101e+01
  -6.419299e+01  -2.138038e+01
   3.856490e+00  -4.716669e+01
   2.107386e+01  -3.399770e+01
  -1.902392e+01  -8.443209e+00
  -7.026830e+01  -1.328234e+01
  -4.489219e+01  -2.563987e+01
   6.378051e+01  -3.291132e+01
   1.372100e+02  -5.517379e+00
   1.184853e+02   8.293697e+01
  -4.298877e+00   9.368936e+01
  -1.196728e+02   7.023013e+01
  -1.417008e+02   2.082991e+01
  -3.659870e+01  -3.939190e+01
   4.638782e+01  -4.676325e+01
   7.299268e+01   1.338882e+01
   1.602317e+01   6.893638e+01
  -3.428179e+01   5.780815e+01
  -5.852000e+01   7.169374e+00
  -6.154461e+01  -3.534562e+01
  -4.322694e+01  -3.708500e+01
  -4.662868e+01   2.586198e+00
  -6.381138e+01   2.659279e-01
  -3.660608e+01  -5.675564e+01
   4.482655e+00  -1.397469e+02
   1.283374e+02  -1.348727e+02
   1.880029e+02  -3.722495e+01
   1.233846e+02   7.454423e+01
  -6.237001e+00   1.189333e+02
  -8.034986e+01   7.200225e+01
  -5.960496e+01  -5.796577e+00
   4.962326e+01  -1.332678e+01
   9.291461e+01   4.490325e+01
   7.049293e+01   9.667462e+01
  -5.151417e+01   1.092026e+02
  -1.634720e+02   3.303330e+01
  -1.151524e+02  -4.296992e+01
  -1.880809e+01  -7.921503e+01
   4.956337e+01  -5.230354e+01
   3.748703e+01  -8.228781e+00
  -3.524096e+01   2.459075e+01
  -9.311419e+01  -1.789750e+01
  -3.111194e+01  -9.813914e+01
   4.431178e+01  -1.306069e+02
   1.399606e+02  -4.389180e+01
   1.171616e+02   6.488952e+01
   2.345127e+01   1.386261e+02
  -4.879679e+01   1.216934e+02
  -9.285248e+01  -9.241958e+00
  -6.024821e+01  -8.538063e+01
   2.220497e+00  -7.587305e+01
   4.419182e+01  -1.022292e+01
   4.046410e+01   2.625829e+01
   1.515633e+01   4.048857e+00
   6.208422e+00  -1.580865e+01
   2.882601e+01   1.811624e+01
   5.544936e+01   7.865964e+01
   2.358091e+01   7.524024e+01
  -4.938222e+01   3.682063e+01
  -1.053033e+02  -2.433931e+01
  -1.228805e+02  -4.231027e+01
  -1.407301e+01  -4.161140e+01
   6.925311e+01  -2.853715e+01
   6.710638e+01  -6.852650e+00
   1.568614e+01   1.089562e+01
  -3.102405e+01   1.589579e+01
  -1.465363e+01   1.075026e+01
   9.524255e+00  -4.455883e+00
  -7.730605e-01  -3.848949e+00
  -6.206227e+01   6.494426e+00
  -8.540524e+01  -6.198407e+00
  -1.557075e+01  -6.296006e+01
   8.124035e+01  -1.063736e+02
   1.884470e+02  -7.310457e+01
   1.224631e+02   2.889404e+01
   1.419606e+01   1.221022e+02
  -6.831353e+01   1.424324e+02
  -9.420659e+01   6.177842e+01
  -7.230000e+01  -8.992338e+00
  -2.503241e+01  -3.049959e+01
  -3.147188e+00  -1.144511e+01
  -1.087415e+01  -9.151747e+00
  -1.930612e+01  -3.403751e+01
  -3.139439e+01  -9.188908e+01
   2.570972e+01  -6.193704e+01
   6.212279e+01   9.550018e+00
   7.702286e+01   6.592141e+01
   1.157080e+01   9.449374e+01
  -4.905224e+01   3.510258e+01
  -8.923815e+01  -3.652519e+01
  -2.233094e+01  -8.098293e+01
   5.334389e+01  -5.283501e+01
   7.740839e+01  -2.066759e+00
   4.711661e+01   5.572082e+01
  -2.082943e+01   5.664059e+01
  -3.864639e+01   3.290058e+01
   2.242811e+01  -1.131617e+01
   6.137479e+01  -1.157127e+01
   1.653601e+01   2.380926e+01
  -5.497757e+01   4.639216e+01
  -1.051930e+02   5.650049e+01
  -7.090326e+01  -1.398807e+01
   5.280301e+00  -7.652531e+01
   4.226956e+01  -7.279025e+01
   4.235707e+01  -1.616361e+01
   8.906594e+00   5.320141e+01
  -1.804633e+01   4.343221e+01
  -2.951256e+01  -3.415488e+00
  -2.790400e+01  -4.437881e+01
   2.177626e+00  -3.575726e+01
   2.686764e+01   1.411611e+00
   3.496139e+01   2.475833e+01
   1.898599e+01   4.616542e+00
  -5.571089e+00  -1.572083e+01
  -7.199970e+00  -1.032214e+01
   5.890036e+00   2.681570e+01
   6.491747e+00   4.899602e+01
  -2.041102e+01   2.541011e+01
  -4.471496e+01  -2.320423e+01
  -1.077660e+01  -5.455443e+01
   3.445087e+01  -2.831588e+01
   4.510975e+01   2.076166e+01
   1.950698e+01   5.051415e+01
  -4.909438e+01   2.827235e+01
  -6.878535e+01  -1.281765e+01
  -4.288222e+01  -2.948523e+01
   2.006671e+01  -4.984835e+01
   5.859444e+01  -2.628007e+01
   2.434637e+01  -9.013327e+00
  -2.245005e+01   7.240464e+00
  -3.162991e+01  -3.869011e+00
   1.587333e+01  -2.200905e+01
   6.957326e+01  -2.049436e+01
