
 $NMID
 id='ANONYMOUS ', fmtdat='(2E16.6)'
 volume=1.0
 tramp=1.0
 $END
  -8.335675e+06   1.358783e+06
  -6.413377e+06  -3.158512e+06
  -8.531410e+05  -5.499099e+06
   3.326159e+06  -4.128517e+06
   3.212270e+06  -6.513545e+05
   3.496915e+05   1.650450e+06
  -1.797541e+06   9.859572e+05
  -1.529030e+06  -1.331557e+06
   2.130047e+05  -2.500654e+06
   1.567044e+06  -1.253460e+06
   1.508956e+06   9.683215e+05
   3.340089e+05   1.778002e+06
  -7.979365e+05   4.523337e+05
  -8.009747e+05  -1.433066e+06
   3.422190e+05  -1.827805e+06
   1.443212e+06  -3.427372e+05
   1.271199e+06   1.540845e+06
  -1.174429e+05   2.145015e+06
  -1.454133e+06   1.186043e+06
  -1.647595e+06  -2.564880e+05
  -8.415577e+05  -1.020516e+06
  -6.712993e+04  -9.026459e+05
  -8.364290e+04  -5.626029e+05
  -6.465622e+05  -6.549277e+05
  -7.984023e+05  -1.146182e+06
   1.127155e+05  -1.413816e+06
   1.589120e+06  -9.437288e+05
   2.275118e+06   8.887367e+04
   1.362171e+06   9.344867e+05
  -3.582957e+05   9.605755e+05
  -1.214809e+06   2.305270e+05
  -4.947537e+05  -5.611467e+05
   8.119967e+05  -6.873402e+05
   1.271462e+06   1.952079e+03
   6.126082e+05   9.208991e+05
  -2.549250e+05   1.210038e+06
  -5.119880e+05   5.545294e+05
  -2.139076e+05  -3.864488e+05
   1.077395e+05  -5.776463e+05
   1.148538e+05   2.057922e+05
  -1.870343e+05   9.981482e+05
  -5.733465e+05   7.368728e+05
  -6.663523e+05  -3.894355e+05
  -1.819067e+05  -1.086730e+06
   6.126076e+05  -5.080300e+05
   9.037385e+05   7.245537e+05
   1.566199e+05   1.275857e+06
  -1.102283e+06   6.046394e+05
  -1.653147e+06  -5.837724e+05
  -8.569399e+05  -1.229221e+06
   6.091881e+05  -9.246100e+05
   1.420854e+06  -7.804966e+04
   9.374215e+05   5.918022e+05
  -2.248171e+05   6.238827e+05
  -9.012275e+05   1.189532e+05
  -5.626421e+05  -3.652365e+05
   2.343215e+05  -3.336506e+05
   5.356613e+05   1.315509e+05
   5.035531e+04   4.588177e+05
  -5.648983e+05   2.423178e+05
  -4.977877e+05  -2.999454e+05
   2.602714e+05  -5.854805e+05
   8.885263e+05  -2.733929e+05
   6.519335e+05   4.508442e+05
  -3.132726e+05   1.058863e+06
  -1.191412e+06   1.052566e+06
  -1.339895e+06   3.160988e+05
  -8.289462e+05  -7.169454e+05
  -2.017279e+05  -1.335058e+06
   1.285619e+05  -1.191605e+06
   1.874698e+05  -6.534154e+05
   2.577395e+05  -3.377111e+05
   5.072371e+05  -3.487860e+05
   8.023241e+05  -2.256822e+05
   8.360426e+05   3.117108e+05
   4.313755e+05   8.568817e+05
  -2.399397e+05   7.743211e+05
  -7.226132e+05   1.744927e+04
  -6.200895e+05  -7.577343e+05
   4.005342e+04  -8.866492e+05
   7.631850e+05  -3.303207e+05
   9.846195e+05   3.981840e+05
   5.847925e+05   7.823732e+05
  -9.415675e+03   7.099000e+05
  -2.983175e+05   4.447475e+05
  -2.597896e+05   3.036920e+05
  -3.194370e+05   3.465750e+05
  -7.426536e+05   3.350706e+05
  -1.192358e+06  -5.232180e+01
  -1.049842e+06  -6.290550e+05
  -1.653890e+05  -1.168426e+06
   8.597073e+05  -1.184382e+06
   1.229000e+06  -5.879458e+05
   7.385645e+05   2.344419e+05
  -5.547119e+04   6.953138e+05
  -4.247897e+05   4.995766e+05
  -1.559662e+05  -6.475159e+04
   3.383329e+05  -3.805792e+05
   5.086015e+05  -1.403417e+05
   2.135445e+05   3.035731e+05
  -1.935051e+05   3.524067e+05
  -2.583935e+05  -8.181784e+04
   1.160227e+05  -4.137345e+05
   5.721223e+05  -8.363212e+04
   6.216725e+05   7.170576e+05
   8.747127e+04   1.201952e+06
  -7.139024e+05   8.458249e+05
  -1.200987e+06  -7.241899e+04
  -9.993269e+05  -8.062769e+05
  -2.763528e+05  -8.865823e+05
   3.811023e+05  -4.696968e+05
   4.945042e+05  -5.779340e+04
   1.459088e+05   6.205019e+03
  -1.330265e+05  -2.078088e+05
   3.982558e+04  -3.635681e+05
   4.615606e+05  -2.192394e+05
   5.888887e+05   1.304422e+05
   1.991099e+05   3.557605e+05
  -3.097988e+05   2.382192e+05
  -3.511021e+05  -9.460665e+04
   1.748372e+05  -2.886088e+05
   7.353188e+05  -1.063968e+05
   7.167449e+05   3.452995e+05
   6.649456e+04   6.989785e+05
  -6.534467e+05   6.363710e+05
  -8.302588e+05   1.762194e+05
  -3.829664e+05  -3.074345e+05
   2.047398e+05  -4.054293e+05
   3.842123e+05  -7.924610e+04
   5.059705e+04   2.765652e+05
  -4.121636e+05   2.457694e+05
  -5.373490e+05  -1.488379e+05
  -2.130108e+05  -4.759520e+05
   2.437869e+05  -3.941153e+05
   4.102493e+05  -2.789102e+04
   1.663550e+05   2.037174e+05
  -1.884721e+05   6.503277e+04
  -2.319555e+05  -2.663306e+05
   1.393652e+05  -4.160958e+05
   5.730662e+05  -1.884261e+05
   6.079810e+05   2.652162e+05
   1.649732e+05   5.870437e+05
  -3.565966e+05   5.189521e+05
  -4.967971e+05   1.298492e+05
  -2.034988e+05  -2.368835e+05
   1.597675e+05  -2.817001e+05
   2.338431e+05  -3.772605e+04
   1.840582e+04   1.855786e+05
  -1.925553e+05   1.562547e+05
  -1.581154e+05  -3.023366e+04
   6.575114e+04  -9.019151e+04
   1.997091e+05   9.635106e+04
   3.070235e+04   3.328338e+05
  -3.548374e+05   3.124698e+05
  -6.169669e+05  -5.391245e+04
  -4.740106e+05  -5.253984e+05
   6.891010e+03  -7.340771e+05
   4.555722e+05  -5.116203e+05
   5.596548e+05  -4.297960e+04
   3.545466e+05   3.023488e+05
   1.275692e+05   3.153504e+05
   7.324136e+04   1.292875e+05
   1.092284e+05   4.131387e+04
   3.247694e+04   1.630272e+05
  -2.072190e+05   2.947334e+05
  -4.259418e+05   1.718657e+05
  -3.778595e+05  -1.983946e+05
  -3.259094e+02  -4.977085e+05
   4.829091e+05  -4.054131e+05
   6.997648e+05   7.050256e+04
   4.306816e+05   5.766114e+05
  -1.720089e+05   7.223483e+05
  -6.788689e+05   4.176301e+05
  -7.474559e+05  -6.878806e+04
  -4.126342e+05  -3.736521e+05
  -1.171287e+04  -3.683396e+05
   1.620304e+05  -2.327676e+05
   1.090521e+05  -2.111311e+05
   4.899571e+04  -3.225944e+05
   1.480272e+05  -3.493920e+05
   3.410333e+05  -1.110745e+05
   4.061034e+05   2.931246e+05
   2.025227e+05   5.514013e+05
  -1.588343e+05   4.415904e+05
  -3.893488e+05   4.590894e+04
  -2.932653e+05  -3.283088e+05
   2.949483e+04  -4.197228e+05
   2.769225e+05  -2.127769e+05
   2.532765e+05   9.119675e+04
   5.763292e+04   2.706228e+05
  -5.647811e+04   2.599182e+05
   1.645725e+04   1.612608e+05
   1.165982e+05   1.062782e+05
   1.434521e+04   1.165901e+05
  -3.034029e+05   9.987767e+04
  -5.735784e+05  -2.877288e+04
  -5.028638e+05  -2.368679e+05
  -7.912078e+04  -3.882292e+05
   3.794498e+05  -3.619825e+05
   5.161828e+05  -1.653084e+05
   2.823077e+05   5.845161e+04
  -3.461983e+04   1.428759e+05
  -1.324372e+05   5.049632e+04
   2.992951e+03  -7.971081e+04
   1.482350e+05  -6.934987e+04
   1.398580e+05   9.320774e+04
   3.666513e+04   2.195040e+05
  -9.733007e+03   1.406161e+05
   4.536654e+04  -6.397299e+04
   1.141799e+05  -1.341922e+05
   9.328009e+04   5.280217e+04
  -4.479999e+04   3.053884e+05
  -2.336491e+05   3.243184e+05
  -3.326235e+05   5.427381e+04
  -2.117382e+05  -2.472865e+05
   9.334752e+04  -2.972182e+05
   3.257517e+05  -7.960742e+04
   2.195246e+05   1.698960e+05
  -1.816750e+05   2.178636e+05
  -4.969436e+05   3.283007e+04
  -3.849763e+05  -2.241886e+05
   7.493801e+04  -3.484351e+05
   4.522121e+05  -2.462096e+05
   4.189563e+05  -6.433939e+03
   7.742214e+04   1.637551e+05
  -1.829291e+05   1.210622e+05
  -1.071009e+05  -6.084107e+04
   1.832343e+05  -1.427654e+05
   3.462600e+05   3.474024e+04
   1.779666e+05   3.534107e+05
  -1.936420e+05   4.963250e+05
  -4.488844e+05   2.572446e+05
  -3.862457e+05  -2.216845e+05
  -8.729745e+04  -5.444837e+05
   1.995995e+05  -4.298608e+05
   2.931080e+05   3.256926e+03
   1.880584e+05   3.470973e+05
  -4.360770e+03   3.234787e+05
  -1.550979e+05   5.709465e+04
  -1.786675e+05  -1.125507e+05
  -8.621118e+04  -5.120081e+04
  -1.111343e+03   4.180511e+04
  -4.391191e+04  -5.545147e+04
  -1.564122e+05  -2.695312e+05
  -1.203624e+05  -3.333273e+05
   1.612457e+05  -1.455343e+05
   4.611572e+05   1.127710e+05
   4.412446e+05   2.299142e+05
   7.473289e+04   1.982616e+05
  -2.821300e+05   1.356397e+05
  -3.063639e+05   8.608118e+04
  -8.265527e+04   1.357180e+04
   5.308756e+04  -6.649192e+04
  -2.991488e+04  -8.547373e+04
  -1.211101e+05  -4.846775e+04
  -1.911020e+03  -3.898222e+04
   2.368923e+05  -6.281470e+04
   3.075063e+05  -3.271832e+03
   8.120673e+04   1.875408e+05
  -2.698381e+05   3.388283e+05
  -4.658991e+05   2.266702e+05
  -3.758800e+05  -1.252293e+05
  -8.798353e+04  -4.218548e+05
   1.941686e+05  -4.107373e+05
   3.006619e+05  -1.504719e+05
   2.034623e+05   8.099381e+04
   2.912007e+04   1.019219e+05
  -5.247391e+04  -5.998779e+03
   1.310313e+04  -3.495203e+04
   1.160754e+05   9.394169e+04
   1.045532e+05   2.388228e+05
  -4.932074e+04   1.976440e+05
  -2.116063e+05  -5.195176e+04
  -2.108892e+05  -2.972313e+05
  -7.728202e+03  -2.990760e+05
   2.419066e+05  -4.626086e+04
   3.046640e+05   2.336770e+05
   9.529179e+04   3.159165e+05
  -2.063440e+05   1.839452e+05
  -3.148699e+05  -1.450345e+04
  -1.488010e+05  -1.460266e+05
   6.866573e+04  -1.722243e+05
   7.498099e+04  -1.111308e+05
  -1.068770e+05  -1.640618e+04
  -2.013483e+05   1.488285e+04
  -3.678507e+04  -8.185620e+04
   2.369645e+05  -2.201074e+05
   3.413274e+05  -2.090770e+05
   1.987691e+05   1.163710e+04
  -1.780979e+04   2.474663e+05
  -1.210348e+05   2.525861e+05
  -8.805566e+04   3.278336e+04
  -3.337726e+03  -1.546223e+05
   6.974647e+04  -1.139731e+05
   1.061021e+05   6.956495e+04
   7.915581e+04   1.693216e+05
  -1.524759e+04   9.954635e+04
  -1.149696e+05  -2.101427e+04
  -1.375023e+05  -5.471806e+04
  -7.515767e+04  -6.347517e+03
  -5.704069e+02   1.882599e+04
   2.949797e+04  -3.794514e+04
   3.567629e+04  -1.211846e+05
   6.439950e+04  -1.257687e+05
   1.064383e+05  -1.192772e+04
   9.796119e+04   1.396173e+05
   8.804350e+02   1.908154e+05
  -1.315162e+05   8.268964e+04
  -1.794127e+05  -9.257796e+04
  -6.670942e+04  -1.781450e+05
   1.364843e+05  -1.122424e+05
   2.447541e+05   2.232550e+04
   1.390153e+05   1.059982e+05
  -8.012055e+04   1.007153e+05
  -1.770744e+05   4.937837e+04
  -5.020255e+04   5.748336e+03
   1.340386e+05   2.275818e+03
   1.329668e+05   4.906828e+04
  -7.559985e+04   1.074535e+05
  -2.634000e+05   8.570591e+04
