
 $NMID
 id='ANONYMOUS ', fmtdat='(2E16.6)'
 volume=1.0
 tramp=1.0
 $END
   2.345682e+07  -5.382257e+05
   1.539234e+07   1.203944e+07
  -8.459197e+05   1.530479e+07
  -1.049714e+07   8.683253e+06
  -7.934397e+06  -3.373480e+05
   1.130236e+05  -4.119834e+06
   4.520265e+06  -1.223530e+06
   2.772269e+06   3.850563e+06
  -1.562629e+06   5.565535e+06
  -4.237366e+06   2.218415e+06
  -3.543434e+06  -2.807472e+06
  -5.170643e+05  -4.428966e+06
   2.032698e+06  -1.108994e+06
   1.623532e+06   3.395769e+06
  -1.371981e+06   4.087993e+06
  -3.713122e+06   1.613236e+05
  -2.643840e+06  -4.439212e+06
   1.123432e+06  -5.551895e+06
   4.328114e+06  -2.775653e+06
   4.576064e+06   1.065855e+06
   2.322413e+06   3.178519e+06
  -3.462744e+04   2.970361e+06
  -4.749876e+05   1.834084e+06
   8.247923e+05   1.516524e+06
   1.565952e+06   2.422229e+06
  -2.856594e+05   3.183572e+06
  -3.800584e+06   2.186404e+06
  -5.523904e+06  -3.757513e+05
  -3.342926e+06  -2.470776e+06
   7.480437e+05  -2.431609e+06
   2.767056e+06  -6.579501e+05
   1.238095e+06   1.070812e+06
  -1.552305e+06   1.357326e+06
  -2.635337e+06   4.012859e+04
  -1.452473e+06  -1.895617e+06
   3.842740e+05  -2.792669e+06
   1.273631e+06  -1.567403e+06
   8.856974e+05   7.688675e+05
  -3.756416e+04   1.627036e+06
  -4.037908e+05  -1.003055e+05
   3.384128e+05  -2.176585e+06
   1.465531e+06  -1.609571e+06
   1.453051e+06   1.227162e+06
  -2.549090e+05   2.754755e+06
  -2.177918e+06   8.001791e+05
  -2.129363e+06  -2.530264e+06
   3.321469e+05  -3.505884e+06
   3.192255e+06  -1.188395e+06
   3.858658e+06   1.951882e+06
   1.622785e+06   3.160885e+06
  -1.671326e+06   1.941224e+06
  -3.260106e+06  -2.383679e+05
  -1.944122e+06  -1.604040e+06
   7.869481e+05  -1.319015e+06
   2.217731e+06   6.311578e+04
   1.203625e+06   1.069188e+06
  -6.985343e+05   7.130728e+05
  -1.170231e+06  -4.182231e+05
   1.181413e+05  -8.695698e+05
   1.279646e+06  -9.165328e+04
   6.503161e+05   9.848681e+05
  -1.230364e+06   1.148618e+06
  -2.338847e+06   1.187608e+05
  -1.392569e+06  -1.479043e+06
   9.913975e+05  -2.674659e+06
   3.048995e+06  -2.519248e+06
   3.415798e+06  -6.673180e+05
   2.109248e+06   1.905687e+06
   3.428965e+05   3.356166e+06
  -6.211137e+05   2.796634e+06
  -6.005531e+05   1.322708e+06
  -4.633338e+05   6.107862e+05
  -9.532279e+05   8.133712e+05
  -1.764424e+06   6.309725e+05
  -1.945306e+06  -6.169580e+05
  -1.025057e+06  -1.882958e+06
   4.772813e+05  -1.698295e+06
   1.514169e+06  -1.816110e+04
   1.294169e+06   1.701537e+06
  -1.483364e+05   2.017857e+06
  -1.826534e+06   7.625840e+05
  -2.415759e+06  -1.018991e+06
  -1.442903e+06  -2.070064e+06
   1.409775e+05  -1.926123e+06
   9.684813e+05  -1.158505e+06
   8.484799e+05  -6.626415e+05
   8.770810e+05  -6.740927e+05
   1.800068e+06  -5.828515e+05
   2.789257e+06   2.486983e+05
   2.341395e+06   1.652261e+06
   1.945420e+05   2.728242e+06
  -2.150005e+06   2.630980e+06
  -2.900584e+06   1.266881e+06
  -1.709809e+06  -5.528876e+05
   1.201045e+05  -1.590438e+06
   9.659241e+05  -1.156922e+06
   3.440612e+05   1.317343e+05
  -8.082774e+05   8.350845e+05
  -1.191778e+06   2.473628e+05
  -4.762945e+05  -7.421534e+05
   4.400681e+05  -7.628401e+05
   4.876054e+05   2.206128e+05
  -3.979174e+05   7.866502e+05
  -1.250671e+06  -1.310477e+05
  -1.091360e+06  -1.832374e+06
   1.830125e+05  -2.600471e+06
   1.776543e+06  -1.580469e+06
   2.609652e+06   4.308556e+05
   2.064456e+06   1.909382e+06
   4.967290e+05   1.994551e+06
  -9.099026e+05   1.039816e+06
  -1.129368e+06   1.052386e+05
  -3.349087e+05  -2.556223e+04
   2.621268e+05   4.967112e+05
  -1.846249e+05   8.330249e+05
  -1.130452e+06   4.095582e+05
  -1.316339e+06  -4.321212e+05
  -3.534249e+05  -8.452263e+05
   7.469653e+05  -4.508162e+05
   7.270839e+05   2.775081e+05
  -4.798095e+05   5.605268e+05
  -1.645004e+06   6.089391e+04
  -1.502916e+06  -8.818835e+05
  -1.758937e+04  -1.540002e+06
   1.569231e+06  -1.320475e+06
   1.911639e+06  -2.800075e+05
   8.296602e+05   7.698173e+05
  -5.484484e+05   9.193564e+05
  -9.219394e+05   1.230482e+05
  -8.093275e+04  -6.586134e+05
   9.892660e+05  -4.973155e+05
   1.189968e+06   4.377465e+05
   3.761943e+05   1.100482e+06
  -6.243681e+05   8.033401e+05
  -8.956163e+05  -4.184407e+04
  -2.905226e+05  -4.781410e+05
   4.686719e+05  -7.588638e+04
   4.872484e+05   6.815324e+05
  -3.987224e+05   9.538212e+05
  -1.364930e+06   3.565739e+05
  -1.373970e+06  -7.026532e+05
  -2.914659e+05  -1.380857e+06
   9.040533e+05  -1.135323e+06
   1.148044e+06  -2.179231e+05
   4.047477e+05   5.560264e+05
  -4.076749e+05   5.901139e+05
  -5.007564e+05   5.524047e+04
   1.390725e+04  -3.740869e+05
   4.312414e+05  -2.826520e+05
   2.900539e+05   7.516166e+04
  -1.990737e+05   1.326854e+05
  -4.249657e+05  -3.026709e+05
   1.577089e+04  -7.848573e+05
   8.849211e+05  -6.622820e+05
   1.422026e+06   2.249438e+05
   1.022717e+06   1.289274e+06
  -1.103281e+05   1.681922e+06
  -1.095911e+06   1.084644e+06
  -1.250673e+06   1.509345e+04
  -7.432630e+05  -6.851837e+05
  -2.725996e+05  -6.550195e+05
  -2.171090e+05  -2.749022e+05
  -2.980845e+05  -1.524843e+05
  -5.632181e+04  -4.299235e+05
   5.367224e+05  -6.548954e+05
   1.008861e+06  -3.225984e+05
   8.311004e+05   4.977440e+05
  -7.760719e+04   1.115699e+06
  -1.170138e+06   8.473213e+05
  -1.593074e+06  -2.673438e+05
  -8.797465e+05  -1.394445e+06
   5.452479e+05  -1.627930e+06
   1.642392e+06  -8.245637e+05
   1.672570e+06   2.972798e+05
   8.354051e+05   8.946052e+05
  -3.887229e+04   7.859909e+05
  -3.531385e+05   4.807200e+05
  -2.157850e+05   5.010990e+05
  -1.360512e+05   7.877408e+05
  -4.083909e+05   8.106278e+05
  -8.246892e+05   2.116389e+05
  -9.061362e+05  -7.301168e+05
  -3.958228e+05  -1.295980e+06
   4.201917e+05  -9.941336e+05
   8.925274e+05  -4.097727e+04
   6.078471e+05   8.144666e+05
  -1.610615e+05   9.536498e+05
  -6.923782e+05   3.965116e+05
  -5.550531e+05  -3.105297e+05
  -3.955458e+04  -6.525571e+05
   2.205557e+05  -5.632706e+05
  -2.498045e+03  -3.408361e+05
  -2.762833e+05  -2.522383e+05
  -3.062754e+04  -2.731720e+05
   7.356163e+05  -1.799231e+05
   1.351656e+06   1.660342e+05
   1.122731e+06   6.377103e+05
   7.957877e+04   9.210368e+05
  -9.727126e+05   7.785216e+05
  -1.215056e+06   2.792071e+05
  -6.100522e+05  -2.153863e+05
   1.254668e+05  -3.421651e+05
   3.202147e+05  -7.652100e+04
  -5.973063e+03   2.208401e+05
  -3.345345e+05   1.625955e+05
  -3.208999e+05  -2.295089e+05
  -1.020372e+05  -5.138849e+05
   3.938194e+03  -3.317222e+05
  -1.020507e+05   1.228387e+05
  -2.500042e+05   2.740872e+05
  -2.084140e+05  -1.450702e+05
   1.218493e+05  -7.052769e+05
   5.961982e+05  -7.292047e+05
   8.358445e+05  -8.775098e+04
   5.026916e+05   6.168193e+05
  -2.678021e+05   7.116244e+05
  -8.022391e+05   1.717109e+05
  -4.980899e+05  -4.088345e+05
   4.519957e+05  -4.714870e+05
   1.128518e+06  -1.830435e+03
   8.112167e+05   5.583597e+05
  -2.401727e+05   7.547458e+05
  -1.047157e+06   4.644225e+05
  -9.252624e+05  -5.474887e+04
  -1.412703e+05  -3.718415e+05
   4.347629e+05  -2.334919e+05
   2.438195e+05   1.718855e+05
  -4.324614e+05   3.289470e+05
  -8.078519e+05  -9.901491e+04
  -4.057671e+05  -8.348769e+05
   4.694558e+05  -1.149966e+06
   1.053092e+06  -5.747661e+05
   8.723415e+05   5.392496e+05
   1.492847e+05   1.256700e+06
  -5.008344e+05   9.476520e+05
  -6.599408e+05  -6.331502e+04
  -3.650440e+05  -8.170295e+05
   7.724680e+04  -7.144037e+05
   3.710362e+05  -9.353026e+04
   3.753571e+05   2.687851e+05
   1.668657e+05   1.116666e+05
   1.333523e+04  -8.338496e+04
   1.248437e+05   1.645265e+05
   3.382220e+05   6.497343e+05
   2.074138e+05   7.609758e+05
  -4.212271e+05   2.963611e+05
  -1.041455e+06  -3.083886e+05
  -9.585764e+05  -5.683123e+05
  -1.443941e+05  -4.711299e+05
   6.388548e+05  -2.938797e+05
   7.017119e+05  -1.568409e+05
   2.095301e+05   1.399113e+03
  -1.184635e+05   1.523773e+05
   3.567145e+04   1.739121e+05
   2.470667e+05   9.845204e+04
   1.214214e+04   9.525655e+04
  -5.234694e+05   1.439691e+05
  -7.178173e+05  -1.842856e+04
  -2.145006e+05  -4.640121e+05
   6.328990e+05  -7.837261e+05
   1.129938e+06  -4.917953e+05
   9.039066e+05   3.222036e+05
   1.755796e+05   9.826326e+05
  -5.054026e+05   9.385128e+05
  -7.213352e+05   3.388050e+05
  -4.637774e+05  -1.905577e+05
  -6.925400e+04  -2.458533e+05
   9.937788e+04  -9.775348e+03
  -3.778553e+04   5.332397e+04
  -2.391087e+05  -2.354709e+05
  -2.006318e+05  -5.589599e+05
   1.318342e+05  -4.589218e+05
   4.833984e+05   1.195320e+05
   4.819240e+05   6.926169e+05
   2.267815e+04   7.058569e+05
  -5.529991e+05   1.203622e+05
  -7.009345e+05  -5.435583e+05
  -2.105513e+05  -7.485086e+05
   4.980100e+05  -4.315444e+05
   7.469851e+05   6.093587e+04
   3.408731e+05   3.824910e+05
  -1.897843e+05   4.210385e+05
  -2.151607e+05   2.462919e+05
   2.202268e+05   2.563877e+04
   4.623194e+05  -2.231871e+04
   8.618472e+04   2.022981e+05
  -5.681613e+05   4.813465e+05
  -8.276239e+05   4.192759e+05
  -4.802493e+05  -7.847695e+04
   6.615942e+04  -5.824721e+05
   3.339901e+05  -5.764230e+05
   2.435561e+05  -7.985662e+04
   1.291618e+04   3.510048e+05
  -1.719585e+05   2.755995e+05
  -2.460187e+05  -1.439232e+05
  -1.716712e+05  -3.999155e+05
   4.523682e+04  -2.555238e+05
   2.684450e+05   4.834673e+04
   3.159499e+05   1.609865e+05
   1.685276e+05   3.811727e+04
  -3.237860e+03  -6.874236e+04
  -5.866140e+04   4.172073e+04
  -5.187168e+04   2.712750e+05
  -1.173051e+05   3.304416e+05
  -2.453502e+05   7.179774e+04
  -2.591007e+05  -3.111680e+05
  -3.331129e+04  -4.524509e+05
   3.029013e+05  -1.971165e+05
   4.309370e+05   2.189558e+05
   1.551566e+05   4.129067e+05
  -3.363832e+05   2.489639e+05
  -5.846948e+05  -6.766447e+04
  -3.200241e+05  -2.602370e+05
   2.009305e+05  -2.454143e+05
   4.285905e+05  -1.203991e+05
   1.388007e+05  -7.511566e+03
  -2.863557e+05   1.220810e+04
  -2.998472e+05  -9.183647e+04
   1.552011e+05  -2.302729e+05
   5.775953e+05  -1.871836e+05
