
 $NMID
 id='ANONYMOUS ', fmtdat='(2E16.6)'
 volume=1.0
 tramp=1.0
 $END
  -3.301299e+07  -1.877451e+06
  -1.940821e+07  -1.977647e+07
   4.104311e+06  -2.151718e+07
   1.589304e+07  -9.543730e+06
   1.018153e+07   2.641696e+06
  -1.273265e+06   5.492173e+06
  -6.007285e+06   3.157442e+05
  -2.546419e+06  -5.612171e+06
   3.129053e+06  -6.563226e+06
   5.876845e+06  -1.919694e+06
   4.374594e+06   4.086228e+06
   3.021846e+05   5.767677e+06
  -2.755876e+06   1.435279e+06
  -1.788300e+06  -4.202054e+06
   2.273599e+06  -4.791455e+06
   4.896204e+06   5.071397e+05
   2.841160e+06   6.300641e+06
  -2.317325e+06   7.275958e+06
  -6.263068e+06   3.312668e+06
  -6.327332e+06  -1.819075e+06
  -3.225070e+06  -4.728212e+06
   2.304292e+05  -4.597233e+06
   1.373739e+06  -2.850952e+06
  -1.174238e+05  -1.782989e+06
  -1.506920e+06  -2.525172e+06
   2.997561e+05  -3.651083e+06
   4.604316e+06  -2.693196e+06
   6.929758e+06   5.333585e+05
   4.322452e+06   3.308090e+06
  -7.412634e+05   3.268467e+06
  -3.290405e+06   1.058042e+06
  -1.653280e+06  -9.640141e+05
   1.427414e+06  -1.354722e+06
   2.742243e+06  -1.105867e+05
   1.711093e+06   1.979344e+06
  -2.684596e+05   3.304433e+06
  -1.645347e+06   2.175359e+06
  -1.539975e+06  -7.990818e+05
  -2.468334e+05  -2.316959e+06
   6.260789e+05  -3.615091e+05
  -2.591355e+05   2.413537e+06
  -1.880299e+06   1.795903e+06
  -1.658563e+06  -1.875891e+06
   1.048704e+06  -3.638348e+06
   3.518279e+06  -5.983256e+05
   2.704227e+06   3.980050e+06
  -1.093021e+06   4.869185e+06
  -4.529816e+06   1.263398e+06
  -4.684692e+06  -2.947913e+06
  -1.552911e+06  -4.120435e+06
   2.309007e+06  -2.120372e+06
   3.887380e+06   7.538881e+05
   2.052180e+06   2.242944e+06
  -1.312198e+06   1.516458e+06
  -2.880124e+06  -4.514695e+05
  -1.354520e+06  -1.610723e+06
   1.043039e+06  -8.503057e+05
   1.344502e+06   6.518738e+05
  -4.420071e+05   8.717818e+05
  -1.560630e+06  -4.468699e+05
  -2.307789e+05  -1.597323e+06
   2.208947e+06  -1.197794e+06
   3.142286e+06   4.482677e+05
   1.541762e+06   2.270498e+06
  -1.459240e+06   3.417293e+06
  -3.915106e+06   3.075107e+06
  -4.394252e+06   7.443607e+05
  -2.740764e+06  -2.520132e+06
  -2.825701e+05  -4.306977e+06
   1.138276e+06  -3.384412e+06
   9.536452e+05  -1.310486e+06
   3.928082e+05  -4.443431e+05
   8.053713e+05  -9.345760e+05
   1.916864e+06  -9.202943e+05
   2.315437e+06   5.407175e+05
   1.290909e+06   2.095872e+06
  -4.485481e+05   1.935194e+06
  -1.633286e+06   2.778548e+04
  -1.413316e+06  -1.956784e+06
   2.175326e+05  -2.381070e+06
   2.243439e+06  -9.385963e+05
   3.046627e+06   1.295881e+06
   1.835655e+06   2.751665e+06
  -2.937769e+05   2.621682e+06
  -1.465931e+06   1.525610e+06
  -1.287790e+06   7.287985e+05
  -1.188352e+06   6.477382e+05
  -2.209639e+06   4.892977e+05
  -3.324725e+06  -5.455977e+05
  -2.677930e+06  -2.157087e+06
  -4.802854e+04  -3.255865e+06
   2.687909e+06  -3.008187e+06
   3.485286e+06  -1.421820e+06
   2.050994e+06   6.489125e+05
  -1.032658e+05   1.873253e+06
  -1.132634e+06   1.396270e+06
  -4.231657e+05  -1.352655e+05
   9.764029e+05  -9.728052e+05
   1.461764e+06  -2.344678e+05
   5.760224e+05   9.411565e+05
  -5.243304e+05   8.861182e+05
  -4.892589e+05  -2.847055e+05
   6.046783e+05  -7.687574e+05
   1.416479e+06   4.924895e+05
   9.157452e+05   2.368213e+06
  -6.552657e+05   2.892043e+06
  -2.247573e+06   1.448240e+06
  -2.889607e+06  -8.162119e+05
  -2.158178e+06  -2.310416e+06
  -4.346800e+05  -2.289024e+06
   1.101874e+06  -1.173653e+06
   1.325566e+06  -9.086039e+04
   3.951943e+05   4.919353e+04
  -2.768218e+05  -6.047648e+05
   3.028430e+05  -9.976716e+05
   1.419094e+06  -4.080653e+05
   1.546996e+06   6.467550e+05
   3.324289e+05   1.054016e+06
  -9.192823e+05   4.678208e+05
  -7.966136e+05  -3.667636e+05
   6.167317e+05  -5.516886e+05
   1.866137e+06   1.047209e+05
   1.610861e+06   1.110404e+06
  -1.120979e+05   1.733147e+06
  -1.909380e+06   1.409308e+06
  -2.260529e+06   2.010488e+05
  -9.356364e+05  -9.874523e+05
   7.327543e+05  -1.093166e+06
   1.150716e+06  -9.050099e+04
   7.767129e+04   8.166985e+05
  -1.212447e+06   5.364936e+05
  -1.370826e+06  -6.124566e+05
  -3.321493e+05  -1.318683e+06
   8.129843e+05  -8.568395e+05
   1.028296e+06   1.559830e+05
   2.684116e+05   5.898945e+05
  -5.823564e+05   4.418203e+04
  -5.432334e+05  -8.464239e+05
   5.202311e+05  -1.114706e+06
   1.636161e+06  -3.566079e+05
   1.594472e+06   9.079244e+05
   2.606782e+05   1.659533e+06
  -1.155995e+06   1.285777e+06
  -1.374897e+06   1.693679e+05
  -4.246101e+05  -6.865335e+05
   5.238187e+05  -6.578262e+05
   5.680855e+05  -4.530241e+04
  -5.053065e+04   3.859914e+05
  -4.755917e+05   2.658425e+05
  -2.620069e+05  -7.473815e+04
   2.681965e+05  -6.616490e+04
   4.465669e+05   4.343978e+05
  -1.096175e+05   9.271990e+05
  -1.099493e+06   7.135340e+05
  -1.665781e+06  -3.610633e+05
  -1.132552e+06  -1.590192e+06
   2.277289e+05  -1.970322e+06
   1.343865e+06  -1.181322e+06
   1.434892e+06   7.591580e+04
   7.910707e+05   8.069921e+05
   2.863844e+05   7.039684e+05
   2.954662e+05   2.981095e+05
   3.893275e+05   2.308739e+05
   3.853861e+04   5.479577e+05
  -6.895326e+05   7.270787e+05
  -1.194472e+06   2.924300e+05
  -9.143216e+05  -6.207145e+05
   1.749647e+05  -1.262591e+06
   1.420410e+06  -8.976811e+05
   1.843395e+06   4.169439e+05
   9.255274e+05   1.700459e+06
  -7.823230e+05   1.880558e+06
  -2.010450e+06   8.375331e+05
  -1.924426e+06  -4.894620e+05
  -8.710184e+05  -1.092187e+06
   1.127974e+05  -8.649634e+05
   3.970471e+05  -5.075251e+05
   2.193162e+05  -6.012998e+05
   1.846423e+05  -9.713439e+05
   5.491989e+05  -9.609440e+05
   1.009594e+06  -2.059354e+05
   1.037442e+06   9.131463e+05
   3.971377e+05   1.551044e+06
  -5.477783e+05   1.149696e+06
  -1.048430e+06  -1.171927e+04
  -6.517822e+05  -1.013554e+06
   2.796266e+05  -1.110635e+06
   8.678413e+05  -3.787268e+05
   6.257030e+05   4.596126e+05
  -4.150098e+04   7.947628e+05
  -3.433377e+05   6.307905e+05
  -3.251840e+04   3.759603e+05
   3.240874e+05   3.055676e+05
   2.738719e+04   3.216151e+05
  -8.955733e+05   1.570469e+05
  -1.608009e+06  -2.939483e+05
  -1.282770e+06  -8.370834e+05
  -1.145401e+03  -1.107019e+06
   1.234187e+06  -8.620082e+05
   1.457588e+06  -2.310812e+05
   6.839716e+05   3.294440e+05
  -1.906371e+05   4.119797e+05
  -3.894621e+05   5.078571e+04
   1.369624e+04  -2.900859e+05
   3.930149e+05  -1.845001e+05
   3.714704e+05   2.900671e+05
   1.252414e+05   6.122138e+05
   6.837694e+03   3.971601e+05
   1.185426e+05  -1.180310e+05
   2.794224e+05  -2.875359e+05
   2.298214e+05   1.862478e+05
  -1.670171e+05   8.187138e+05
  -7.495054e+05   8.309279e+05
  -1.034384e+06   6.576557e+04
  -5.952183e+05  -7.658032e+05
   3.650050e+05  -8.542557e+05
   9.866616e+05  -1.817533e+05
   5.724321e+05   5.020120e+05
  -5.670504e+05   5.216521e+05
  -1.312242e+06  -7.721235e+04
  -8.792984e+05  -7.025938e+05
   3.513283e+05  -8.409989e+05
   1.240412e+06  -4.438617e+05
   1.051620e+06   1.340259e+05
   1.304022e+05   4.341037e+05
  -5.251445e+05   2.335723e+05
  -2.849294e+05  -2.292322e+05
   5.174095e+05  -3.828628e+05
   9.562732e+05   1.386380e+05
   4.647407e+05   1.002112e+06
  -5.853216e+05   1.351676e+06
  -1.262004e+06   6.466795e+05
  -1.003710e+06  -6.706528e+05
  -1.144731e+05  -1.481555e+06
   6.356009e+05  -1.071076e+06
   7.613526e+05   1.290624e+05
   3.625842e+05   9.778241e+05
  -1.526781e+05   8.127806e+05
  -4.461851e+05   7.562338e+04
  -4.080024e+05  -3.264313e+05
  -1.700380e+05  -1.271048e+05
  -2.660570e+04   8.824747e+04
  -1.650439e+05  -2.240122e+05
  -3.726095e+05  -7.920094e+05
  -1.776679e+05  -8.935083e+05
   5.402782e+05  -3.123175e+05
   1.203765e+06   4.165952e+05
   1.071371e+06   7.129913e+05
   1.397256e+05   5.664319e+05
  -7.459735e+05   3.201976e+05
  -8.230891e+05   1.407022e+05
  -2.613313e+05  -3.126772e+04
   1.393180e+05  -1.778580e+05
  -1.041028e+04  -1.864828e+05
  -2.617834e+05  -1.062895e+05
  -2.040095e+04  -1.139585e+05
   5.969724e+05  -1.613206e+05
   8.504519e+05   5.066538e+04
   2.689308e+05   5.732905e+05
  -7.632108e+05   9.158157e+05
  -1.380837e+06   5.386052e+05
  -1.088309e+06  -4.183602e+05
  -1.704042e+05  -1.165301e+06
   6.526151e+05  -1.088493e+06
   8.729567e+05  -3.821887e+05
   5.372843e+05   2.311795e+05
   8.113053e+04   2.968796e+05
  -9.808948e+04   2.925735e+04
   5.114759e+04  -3.981474e+04
   2.549655e+05   2.944206e+05
   1.975938e+05   6.659668e+05
  -1.738303e+05   5.418980e+05
  -5.635556e+05  -1.445332e+05
  -5.558561e+05  -8.262399e+05
  -2.197584e+04  -8.445409e+05
   6.486526e+05  -1.456762e+05
   8.159863e+05   6.529650e+05
   2.296940e+05   8.992834e+05
  -6.091584e+05   5.061417e+05
  -8.935644e+05  -1.035289e+05
  -3.940411e+05  -4.897169e+05
   2.523866e+05  -5.111105e+05
   2.887709e+05  -2.800398e+05
  -2.374071e+05  -2.520142e+04
  -5.413472e+05   9.684951e+03
  -9.907770e+04  -2.497269e+05
   6.925235e+05  -5.373441e+05
   1.012272e+06  -4.315228e+05
   5.818463e+05   1.407289e+05
  -1.061708e+05   6.942734e+05
  -4.451872e+05   6.685598e+05
  -3.197533e+05   9.369312e+04
  -1.393846e+04  -4.083283e+05
   2.149088e+05  -3.313561e+05
   2.878437e+05   1.597477e+05
   1.873976e+05   4.801522e+05
  -6.473693e+04   3.206689e+05
  -3.179703e+05  -6.038771e+04
  -3.689800e+05  -2.218363e+05
  -1.938622e+05  -6.647071e+04
   7.058582e+03   1.010283e+05
   6.240432e+04  -1.133496e+04
   4.021354e+04  -3.116461e+05
   1.173502e+05  -4.194871e+05
   2.895523e+05  -1.165131e+05
   3.270020e+05   3.609697e+05
   5.781451e+04   5.422497e+05
  -3.584587e+05   2.323682e+05
  -5.169863e+05  -2.676856e+05
  -1.775821e+05  -4.887512e+05
   4.160426e+05  -2.799345e+05
   7.026979e+05   1.003164e+05
   3.725331e+05   3.230679e+05
  -2.526645e+05   2.969492e+05
  -5.226171e+05   1.412113e+05
  -1.823806e+05   1.670705e+03
   3.190514e+05  -2.522361e+04
   3.466910e+05   9.507385e+04
  -1.702100e+05   2.551973e+05
  -6.583509e+05   2.039527e+05
