
 $NMID
 id='ANONYMOUS ', fmtdat='(2E16.6)'
 volume=1.0
 tramp=1.0
 $END
   2.250070e+07   1.738241e+06
   1.430035e+07   1.104712e+07
  -6.465901e+05   1.391235e+07
  -1.001194e+07   9.312232e+06
  -8.334371e+06   1.104602e+06
  -5.627577e+05  -4.062332e+06
   4.714843e+06  -2.220929e+06
   3.625363e+06   3.692140e+06
  -1.107934e+06   6.555965e+06
  -4.407446e+06   2.880073e+06
  -3.656972e+06  -3.251216e+06
  -2.137687e+05  -5.048292e+06
   2.406686e+06  -8.421745e+05
   1.720747e+06   4.386569e+06
  -1.509202e+06   4.939125e+06
  -3.907090e+06   3.857396e+05
  -2.727408e+06  -4.676484e+06
   1.291852e+06  -5.726236e+06
   4.572267e+06  -2.441443e+06
   4.355116e+06   1.746132e+06
   1.479004e+06   3.414656e+06
  -7.135515e+05   2.319792e+06
  -7.629849e+04   1.050329e+06
   2.039272e+06   1.783804e+06
   2.294611e+06   3.762825e+06
  -8.842550e+05   4.312251e+06
  -5.228800e+06   2.077770e+06
  -6.609352e+06  -1.398748e+06
  -3.339581e+06  -3.379820e+06
   1.710103e+06  -2.592585e+06
   3.819078e+06  -4.663616e+04
   1.324208e+06   2.091825e+06
  -2.711260e+06   2.063150e+06
  -4.022978e+06  -2.890458e+05
  -1.743695e+06  -3.095470e+06
   1.199703e+06  -3.709056e+06
   1.873783e+06  -1.367395e+06
   4.195271e+05   1.511359e+06
  -8.699965e+05   1.712192e+06
  -5.126608e+05  -9.278571e+05
   9.152301e+05  -3.093022e+06
   1.933996e+06  -1.972573e+06
   1.627035e+06   1.222840e+06
   1.162815e+05   2.727735e+06
  -1.522282e+06   7.903529e+05
  -1.714982e+06  -2.358031e+06
   3.245832e+05  -3.239869e+06
   3.268732e+06  -9.297396e+05
   4.317609e+06   2.333814e+06
   1.982308e+06   3.722058e+06
  -1.960193e+06   2.396752e+06
  -4.004125e+06  -1.761802e+05
  -2.514290e+06  -1.828541e+06
   6.761645e+05  -1.518964e+06
   2.386233e+06   3.644515e+03
   1.377669e+06   1.078127e+06
  -7.200947e+05   7.301085e+05
  -1.466020e+06  -4.917706e+05
  -2.077463e+05  -1.215636e+06
   1.392620e+06  -6.822604e+05
   1.274509e+06   5.556063e+05
  -6.738152e+05   1.215391e+06
  -2.320840e+06   4.472692e+05
  -1.522460e+06  -1.395488e+06
   1.443743e+06  -2.888417e+06
   4.030080e+06  -2.567628e+06
   4.091613e+06  -2.463459e+05
   2.018797e+06   2.578445e+06
  -4.856071e+04   3.951520e+06
  -7.268915e+05   3.309855e+06
  -5.572523e+05   1.904106e+06
  -8.153156e+05   1.186518e+06
  -1.826065e+06   1.088742e+06
  -2.727980e+06   3.739719e+05
  -2.515489e+06  -1.388210e+06
  -9.990393e+05  -2.849384e+06
   1.018122e+06  -2.309065e+06
   2.211709e+06   1.499901e+05
   1.623875e+06   2.462358e+06
  -4.462842e+05   2.619609e+06
  -2.420072e+06   6.320461e+05
  -2.716484e+06  -1.674957e+06
  -1.264622e+06  -2.587041e+06
   4.606768e+05  -1.983025e+06
   1.082441e+06  -1.018949e+06
   8.071619e+05  -6.912525e+05
   9.882842e+05  -8.893782e+05
   2.260801e+06  -7.228460e+05
   3.484150e+06   4.330037e+05
   2.857983e+06   2.223885e+06
   6.529435e+04   3.499028e+06
  -2.997958e+06   3.199988e+06
  -3.906686e+06   1.292171e+06
  -2.124517e+06  -1.012022e+06
   4.567926e+05  -2.098615e+06
   1.475001e+06  -1.339499e+06
   4.182075e+05   2.561689e+05
  -1.154579e+06   9.820734e+05
  -1.504594e+06   2.019147e+05
  -4.680770e+05  -9.637702e+05
   6.783211e+05  -9.577797e+05
   7.146421e+05   2.887712e+05
  -3.855336e+05   1.134625e+06
  -1.558419e+06   1.276574e+05
  -1.579771e+06  -2.139185e+06
  -4.152789e+04  -3.457734e+06
   2.200128e+06  -2.321232e+06
   3.509695e+06   4.683173e+05
   2.789579e+06   2.644022e+06
   5.816132e+05   2.734136e+06
  -1.303036e+06   1.292327e+06
  -1.504107e+06   1.340921e+04
  -4.314014e+05  -5.911793e+04
   3.048356e+05   6.535407e+05
  -2.593536e+05   1.009497e+06
  -1.399770e+06   4.323387e+05
  -1.616711e+06  -5.764953e+05
  -4.318050e+05  -1.048401e+06
   9.671291e+05  -5.499217e+05
   9.783392e+05   3.930083e+05
  -6.023465e+05   7.876258e+05
  -2.202923e+06   9.667723e+04
  -2.036774e+06  -1.230704e+06
  -2.805516e+03  -2.091133e+06
   2.130866e+06  -1.677499e+06
   2.503065e+06  -2.499701e+05
   1.002899e+06   1.014426e+06
  -7.483065e+05   1.079156e+06
  -1.123269e+06   7.076671e+04
  -1.395752e+04  -8.154329e+05
   1.294526e+06  -5.519971e+05
   1.505050e+06   6.125223e+05
   4.739653e+05   1.431456e+06
  -7.987912e+05   1.056743e+06
  -1.165663e+06  -2.964190e+04
  -4.031228e+05  -6.019807e+05
   5.631607e+05  -7.385858e+04
   5.553028e+05   9.008625e+05
  -6.041417e+05   1.183836e+06
  -1.791613e+06   3.303491e+05
  -1.703414e+06  -1.021740e+06
  -2.710345e+05  -1.788334e+06
   1.221521e+06  -1.393341e+06
   1.482929e+06  -2.248116e+05
   5.112541e+05   7.277439e+05
  -5.488406e+05   7.493540e+05
  -6.891838e+05   3.620627e+04
   4.836891e+03  -5.475206e+05
   6.264746e+05  -4.101382e+05
   4.844589e+05   1.280830e+05
  -1.994618e+05   2.505269e+05
  -5.537703e+05  -3.386038e+05
   2.184973e+04  -9.922073e+05
   1.167257e+06  -8.027718e+05
   1.815461e+06   3.842150e+05
   1.218779e+06   1.734746e+06
  -2.674771e+05   2.180381e+06
  -1.501829e+06   1.375945e+06
  -1.669781e+06  -2.653006e+04
  -9.974400e+05  -9.853412e+05
  -3.403726e+05  -9.895191e+05
  -2.019635e+05  -4.538789e+05
  -2.934007e+05  -1.976334e+05
  -2.412911e+04  -5.104833e+05
   7.173780e+05  -8.185687e+05
   1.340724e+06  -3.841417e+05
   1.095921e+06   7.163822e+05
  -1.410670e+05   1.499451e+06
  -1.579826e+06   1.056225e+06
  -2.066061e+06  -4.484065e+05
  -1.072329e+06  -1.851486e+06
   7.648774e+05  -2.054786e+06
   2.135157e+06  -9.852293e+05
   2.166706e+06   4.389879e+05
   1.106300e+06   1.207804e+06
  -5.209848e+04   1.087550e+06
  -5.414415e+05   6.720689e+05
  -4.175071e+05   6.316403e+05
  -2.893776e+05   9.512714e+05
  -5.755089e+05   9.701008e+05
  -1.051991e+06   1.939759e+05
  -1.102798e+06  -1.020501e+06
  -4.066153e+05  -1.711371e+06
   6.275700e+05  -1.255680e+06
   1.163147e+06  -3.528851e+00
   7.407256e+05   1.067577e+06
  -2.314244e+05   1.212607e+06
  -8.639276e+05   5.142057e+05
  -6.801269e+05  -3.551217e+05
  -5.937357e+04  -7.920640e+05
   2.486894e+05  -7.159583e+05
  -1.243772e+04  -4.701252e+05
  -3.252724e+05  -3.666710e+05
  -9.390561e+03  -3.642973e+05
   9.377428e+05  -1.846016e+05
   1.696647e+06   3.048359e+05
   1.401231e+06   8.829112e+05
   7.828675e+04   1.156164e+06
  -1.261759e+06   9.122227e+05
  -1.569507e+06   3.036440e+05
  -7.853642e+05  -2.582160e+05
   1.654644e+05  -4.008032e+05
   4.006022e+05  -9.945085e+04
  -4.842488e+04   2.491874e+05
  -4.684583e+05   1.753431e+05
  -3.904700e+05  -3.245279e+05
  -4.541966e+04  -6.922157e+05
   7.552847e+04  -4.369380e+05
  -1.444437e+05   1.846247e+05
  -3.779198e+05   3.794959e+05
  -2.664031e+05  -1.983323e+05
   2.357251e+05  -9.223811e+05
   8.272166e+05  -8.876792e+05
   1.035178e+06  -1.049834e+04
   5.460983e+05   8.453022e+05
  -4.069277e+05   8.553333e+05
  -1.024507e+06   1.097060e+05
  -6.072918e+05  -5.852845e+05
   6.089531e+05  -5.849365e+05
   1.482492e+06   5.524805e+04
   1.072465e+06   7.677385e+05
  -3.183581e+05   9.966100e+05
  -1.400970e+06   5.919274e+05
  -1.236963e+06  -1.019105e+05
  -1.811536e+05  -5.025569e+05
   5.737422e+05  -2.925934e+05
   2.856820e+05   2.275770e+05
  -6.117486e+05   3.708411e+05
  -1.038713e+06  -2.294525e+05
  -4.172506e+05  -1.138859e+06
   7.560416e+05  -1.441475e+06
   1.442745e+06  -6.306629e+05
   1.089744e+06   7.906728e+05
   8.685665e+04   1.659264e+06
  -7.266207e+05   1.219394e+06
  -8.604314e+05  -1.038704e+05
  -4.418847e+05  -1.085734e+06
   1.143919e+05  -9.434892e+05
   4.765100e+05  -1.084496e+05
   4.978572e+05   3.841571e+05
   2.425158e+05   1.661668e+05
   1.022749e+04  -1.169105e+05
   9.959396e+04   2.056454e+05
   3.698426e+05   8.650739e+05
   2.506319e+05   1.011815e+06
  -5.255765e+05   3.557612e+05
  -1.339311e+06  -4.860089e+05
  -1.241657e+06  -8.140351e+05
  -1.540313e+05  -6.170221e+05
   8.900479e+05  -3.303004e+05
   9.383801e+05  -1.614206e+05
   2.428693e+05   1.533824e+03
  -1.801278e+05   1.866504e+05
   7.341932e+04   2.457907e+05
   3.574764e+05   1.675676e+05
  -8.694834e+03   1.290022e+05
  -7.404135e+05   1.309737e+05
  -9.283367e+05  -9.906995e+04
  -1.764085e+05  -6.214019e+05
   9.341110e+05  -9.435280e+05
   1.487656e+06  -5.075956e+05
   1.098215e+06   5.276128e+05
   1.262964e+05   1.303024e+06
  -7.301974e+05   1.161317e+06
  -9.701879e+05   3.483067e+05
  -5.947281e+05  -3.116525e+05
  -5.002801e+04  -3.268551e+05
   1.688297e+05   1.719960e+04
  -3.745459e+04   9.294394e+04
  -3.083996e+05  -3.126444e+05
  -2.285063e+05  -7.425454e+05
   2.213741e+05  -5.770083e+05
   6.289552e+05   2.256498e+05
   5.431294e+05   9.739295e+05
  -7.955740e+04   9.204627e+05
  -7.588850e+05   7.028853e+04
  -8.534266e+05  -8.083166e+05
  -1.793841e+05  -9.934276e+05
   6.967244e+05  -4.870970e+05
   9.474164e+05   1.608971e+05
   3.826955e+05   5.035183e+05
  -2.862423e+05   4.935062e+05
  -2.701256e+05   2.885178e+05
   3.218367e+05   6.349465e+04
   6.135527e+05   1.797086e+04
   8.038972e+04   2.653757e+05
  -7.820412e+05   5.796848e+05
  -1.080541e+06   4.943831e+05
  -5.784469e+05  -1.210335e+05
   1.437442e+05  -7.375584e+05
   4.568115e+05  -7.011087e+05
   2.908930e+05  -5.146706e+04
  -3.290687e+04   4.748352e+05
  -2.580321e+05   3.237721e+05
  -3.124181e+05  -2.418951e+05
  -1.814717e+05  -5.377992e+05
   9.444570e+04  -2.994800e+05
   3.448690e+05   1.020418e+05
   3.822279e+05   2.170092e+05
   2.131363e+05   4.480958e+04
   2.141866e+04  -6.594662e+04
  -7.374139e+04   1.016717e+05
  -1.354804e+05   3.740731e+05
  -2.514976e+05   3.902944e+05
  -3.531348e+05   1.334745e+04
  -2.690458e+05  -4.726718e+05
   5.633890e+04  -6.033600e+05
   4.309442e+05  -2.137015e+05
   5.205365e+05   3.494985e+05
   1.476959e+05   5.667510e+05
  -4.515237e+05   2.862724e+05
  -7.362405e+05  -1.598720e+05
  -3.821063e+05  -3.703991e+05
   2.871376e+05  -2.756570e+05
   5.633214e+05  -8.510295e+04
   1.561123e+05   1.147627e+04
  -4.127375e+05  -3.340646e+04
  -3.998496e+05  -1.828323e+05
   2.505798e+05  -3.103357e+05
   8.177428e+05  -1.933170e+05
