
 $NMID
 id='ANONYMOUS ', fmtdat='(2E16.6)'
 volume=1.0
 tramp=1.0
 $END
  -5.023220e+06  -1.737116e+06
  -2.189908e+06  -3.618573e+06
   1.360930e+06  -3.008733e+06
   2.695967e+06  -1.029453e+06
   1.499166e+06   5.234971e+05
  -2.949334e+05   7.588824e+05
  -9.376772e+05  -2.668693e+04
  -3.079068e+05  -9.124084e+05
   6.247396e+05  -1.028529e+06
   9.780926e+05  -1.908841e+05
   5.589974e+05   8.324569e+05
  -1.739038e+05   9.836715e+05
  -5.230309e+05   9.033112e+04
  -1.617924e+05  -8.520878e+05
   5.169377e+05  -7.908102e+05
   7.675771e+05   2.037017e+05
   2.589569e+05   1.103895e+06
  -6.049404e+05   1.090775e+06
  -1.115918e+06   2.836075e+05
  -9.121177e+05  -5.778927e+05
  -2.401786e+05  -8.898106e+05
   2.947397e+05  -6.311676e+05
   2.653139e+05  -2.739208e+05
  -1.502005e+05  -2.852790e+05
  -3.002199e+05  -6.176331e+05
   2.226196e+05  -7.409350e+05
   1.018327e+06  -2.893175e+05
   1.241894e+06   4.355370e+05
   5.747058e+05   7.884826e+05
  -3.684505e+05   5.205680e+05
  -7.143192e+05  -1.980064e+04
  -2.587195e+05  -3.550814e+05
   4.163926e+05  -2.934860e+05
   6.363015e+05   8.091143e+04
   2.779335e+05   5.160955e+05
  -2.318022e+05   6.467352e+05
  -4.063381e+05   2.715698e+05
  -1.587565e+05  -2.861594e+05
   1.576933e+05  -3.983140e+05
   1.481544e+05   7.954871e+04
  -1.771895e+05   5.141156e+05
  -4.075573e+05   2.857005e+05
  -2.164562e+05  -3.385971e+05
   2.380517e+05  -5.175785e+05
   4.791527e+05   4.506664e+04
   2.248461e+05   7.045138e+05
  -3.433985e+05   6.929133e+05
  -7.723171e+05   1.325929e+04
  -7.123177e+05  -6.612779e+05
  -1.729225e+05  -7.653539e+05
   4.583662e+05  -3.219998e+05
   6.816251e+05   2.193572e+05
   3.273037e+05   4.250018e+05
  -2.346204e+05   2.034710e+05
  -4.488324e+05  -1.592221e+05
  -1.725599e+05  -2.857382e+05
   1.959670e+05  -9.180469e+04
   2.258980e+05   1.482919e+05
  -4.652946e+04   1.535371e+05
  -2.232953e+05  -3.963518e+04
  -5.025324e+04  -1.773303e+05
   3.079180e+05  -1.060268e+05
   4.629788e+05   1.257752e+05
   1.833620e+05   3.882671e+05
  -3.917268e+05   5.323063e+05
  -8.437873e+05   3.931070e+05
  -8.169488e+05  -6.308453e+04
  -3.530883e+05  -5.775800e+05
   1.336852e+05  -7.721590e+05
   2.843800e+05  -5.614795e+05
   1.605808e+05  -2.542511e+05
   1.025831e+05  -1.545210e+05
   2.735610e+05  -1.903072e+05
   4.799572e+05  -7.250039e+04
   4.491848e+05   2.578326e+05
   1.519742e+05   5.092936e+05
  -1.979076e+05   3.849301e+05
  -3.580565e+05  -5.995599e+04
  -2.185799e+05  -4.524591e+05
   1.410391e+05  -4.547924e+05
   4.676447e+05  -6.750182e+04
   4.920307e+05   3.858113e+05
   1.865183e+05   5.640742e+05
  -1.717143e+05   4.149602e+05
  -2.948933e+05   1.763688e+05
  -2.160342e+05   7.910065e+04
  -2.168837e+05   9.885302e+04
  -4.254449e+05   3.814269e+04
  -6.090535e+05  -1.995691e+05
  -4.392077e+05  -4.906776e+05
   9.649817e+04  -6.245751e+05
   6.243471e+05  -4.884545e+05
   7.324066e+05  -1.395609e+05
   3.675128e+05   2.237653e+05
  -1.137213e+05   3.696480e+05
  -2.884457e+05   2.162422e+05
  -7.112420e+04  -5.377965e+04
   2.325189e+05  -1.473090e+05
   2.799310e+05   1.465978e+04
   5.948423e+04   1.975195e+05
  -1.415726e+05   1.486093e+05
  -9.807716e+04  -6.985846e+04
   1.142920e+05  -1.480713e+05
   2.457595e+05   8.362243e+04
   1.432906e+05   4.329717e+05
  -1.437175e+05   5.449818e+05
  -4.396402e+05   2.690297e+05
  -5.531920e+05  -2.004960e+05
  -3.838432e+05  -5.135567e+05
  -2.551978e+04  -4.741564e+05
   2.577203e+05  -1.946981e+05
   2.633446e+05   3.145125e+04
   7.352864e+04   2.186696e+04
  -3.226287e+04  -1.262128e+05
   8.910955e+04  -1.731304e+05
   2.743056e+05  -2.464079e+04
   2.641374e+05   1.682009e+05
   2.786644e+04   2.026861e+05
  -1.920953e+05   5.820970e+04
  -1.504410e+05  -9.936524e+04
   1.308556e+05  -1.048172e+05
   3.713985e+05   5.831341e+04
   3.019735e+05   2.641175e+05
  -6.301651e+04   3.474010e+05
  -4.158273e+05   2.232532e+05
  -4.433956e+05  -3.163355e+04
  -1.425269e+05  -2.142757e+05
   1.754542e+05  -1.724845e+05
   2.110219e+05   2.782304e+04
  -2.301093e+04   1.542454e+05
  -2.505186e+05   5.780624e+04
  -2.421759e+05  -1.591438e+05
  -2.827919e+04  -2.607820e+05
   1.750330e+05  -1.443520e+05
   1.919086e+05   5.332584e+04
   3.689310e+04   1.172422e+05
  -1.112487e+05  -1.230547e+04
  -7.484476e+04  -1.844413e+05
   1.427382e+05  -1.997898e+05
   3.321669e+05  -1.141741e+04
   2.766651e+05   2.312998e+05
  -5.867367e+03   3.268176e+05
  -2.609683e+05   2.072320e+05
  -2.653331e+05  -9.918496e+03
  -5.943823e+04  -1.422203e+05
   1.218673e+05  -1.090628e+05
   1.163688e+05   1.314861e+04
  -1.883633e+04   8.557049e+04
  -1.114436e+05   4.871906e+04
  -6.857113e+04  -2.577529e+04
   4.342797e+04  -2.147284e+04
   7.861282e+04   8.384622e+04
  -4.054326e+04   1.736793e+05
  -2.321389e+05   1.062287e+05
  -3.111367e+05  -1.218065e+05
  -1.670729e+05  -3.438859e+05
   1.078106e+05  -3.752784e+05
   2.977470e+05  -1.919372e+05
   2.810155e+05   5.330903e+04
   1.394893e+05   1.852017e+05
   3.938696e+04   1.611227e+05
   4.052255e+04   7.888040e+04
   5.758292e+04   5.413429e+04
  -1.020366e+04   1.003285e+05
  -1.508609e+05   1.225321e+05
  -2.430415e+05   2.843571e+04
  -1.692387e+05  -1.487686e+05
   6.522600e+04  -2.494738e+05
   3.045667e+05  -1.379862e+05
   3.487590e+05   1.370230e+05
   1.297660e+05   3.577026e+05
  -2.048584e+05   3.376264e+05
  -4.094502e+05   1.018573e+05
  -3.591048e+05  -1.476630e+05
  -1.453887e+05  -2.374072e+05
   4.157307e+04  -1.739218e+05
   9.977881e+04  -9.690030e+04
   7.649895e+04  -1.097894e+05
   7.552112e+04  -1.734633e+05
   1.358671e+05  -1.605425e+05
   1.977764e+05  -3.930577e+03
   1.688396e+05   2.120617e+05
   2.465570e+04   3.141983e+05
  -1.455157e+05   2.045455e+05
  -2.036060e+05  -3.542819e+04
  -9.505028e+04  -2.136860e+05
   8.389455e+04  -2.044915e+05
   1.719979e+05  -5.201997e+04
   1.043134e+05   9.733080e+04
  -2.610735e+04   1.450908e+05
  -7.670288e+04   1.115938e+05
  -1.407254e+04   7.514617e+04
   5.179781e+04   7.133578e+04
  -5.214971e+03   6.418197e+04
  -1.746444e+05   3.561723e+03
  -2.975472e+05  -1.063243e+05
  -2.213892e+05  -2.003899e+05
   3.038311e+04  -2.098420e+05
   2.603136e+05  -1.241012e+05
   2.863997e+05  -1.185626e+03
   1.230059e+05   7.775142e+04
  -4.699766e+04   6.946665e+04
  -7.447276e+04   9.182823e+02
   1.390134e+04  -5.032530e+04
   8.348060e+04  -2.188349e+04
   6.125026e+04   6.749917e+04
  -1.105362e+03   1.240950e+05
  -1.733073e+04   7.762954e+04
   2.677042e+04  -2.405618e+04
   6.858163e+04  -5.333189e+04
   4.174063e+04   4.261054e+04
  -6.034451e+04   1.569291e+05
  -1.724927e+05   1.372562e+05
  -1.970925e+05  -2.467397e+04
  -8.405163e+04  -1.687158e+05
   9.879040e+04  -1.484351e+05
   1.932303e+05   2.541927e+03
   9.381854e+04   1.174379e+05
  -1.245203e+05   8.383415e+04
  -2.538478e+05  -5.310116e+04
  -1.562323e+05  -1.617748e+05
   8.805311e+04  -1.565102e+05
   2.556813e+05  -5.532886e+04
   2.051859e+05   5.484141e+04
   1.455653e+04   8.971859e+04
  -1.088125e+05   3.087367e+04
  -4.563436e+04  -5.254544e+04
   1.164804e+05  -5.479247e+04
   1.810105e+05   6.309884e+04
   5.187191e+04   2.124828e+05
  -1.644134e+05   2.408350e+05
  -2.689344e+05   8.004811e+04
  -1.723618e+05  -1.649840e+05
   2.679718e+04  -2.925132e+05
   1.581639e+05  -1.906233e+05
   1.448907e+05   4.591534e+04
   4.278218e+04   2.014912e+05
  -5.132829e+04   1.562456e+05
  -8.823936e+04   2.379145e+03
  -7.271086e+04  -7.788462e+04
  -3.300095e+04  -3.186804e+04
  -6.425063e+03   1.723444e+04
  -1.880417e+04  -4.655196e+04
  -4.403001e+04  -1.651417e+05
  -9.939184e+03  -1.801691e+05
   1.096078e+05  -4.360182e+04
   2.210555e+05   1.204629e+05
   1.896992e+05   1.733268e+05
   9.532488e+03   1.136766e+05
  -1.593607e+05   3.764521e+04
  -1.661410e+05   2.169124e+03
  -4.631631e+04  -1.213209e+04
   3.449389e+04  -2.926626e+04
  -1.084525e+03  -3.857303e+04
  -5.308806e+04  -3.210603e+04
   1.618392e+03  -2.374999e+04
   1.272141e+05  -1.004416e+04
   1.632464e+05   3.987992e+04
   2.556806e+04   1.198631e+05
  -1.838714e+05   1.493920e+05
  -2.827721e+05   5.457699e+04
  -1.911466e+05  -1.205535e+05
   7.631412e+03  -2.329657e+05
   1.617411e+05  -1.882453e+05
   1.827130e+05  -4.190724e+04
   9.793442e+04   6.590247e+04
   3.683563e+03   6.082927e+04
  -2.474039e+04  -3.183256e+02
   9.515595e+03  -9.517094e+03
   4.215364e+04   6.426775e+04
   1.795513e+04   1.362678e+05
  -5.350899e+04   9.841081e+04
  -1.059427e+05  -5.080896e+04
  -7.702846e+04  -1.829388e+05
   2.997080e+04  -1.642885e+05
   1.339571e+05  -1.579864e+03
   1.348424e+05   1.587492e+05
   1.112529e+04   1.821272e+05
  -1.361942e+05   7.427800e+04
  -1.678592e+05  -5.163502e+04
  -5.735934e+04  -1.054091e+05
   6.620106e+04  -8.669795e+04
   6.201918e+04  -4.353115e+04
  -4.940489e+04  -1.418239e+04
  -1.067014e+05  -1.681554e+04
  -9.413485e+03  -5.096846e+04
   1.525397e+05  -8.155299e+04
   2.072245e+05  -5.276677e+04
   1.036561e+05   4.360601e+04
  -4.452940e+04   1.293493e+05
  -1.051531e+05   1.128447e+05
  -6.095604e+04   4.223847e+03
   1.324844e+04  -8.155583e+04
   5.372513e+04  -5.482480e+04
   5.086703e+04   4.451170e+04
   1.958184e+04   9.971773e+04
  -2.456853e+04   5.652496e+04
  -5.953030e+04  -2.427586e+04
  -6.257399e+04  -5.289032e+04
  -3.521977e+04  -1.693537e+04
  -4.169809e+03   1.692144e+04
   1.220708e+04  -6.458720e+03
   2.379499e+04  -6.184963e+04
   4.491576e+04  -7.332212e+04
   6.280802e+04  -5.646252e+03
   4.609030e+04   8.599260e+04
  -1.411978e+04   1.080534e+05
  -7.952416e+04   3.111580e+04
  -8.880744e+04  -7.218952e+04
  -1.599776e+04  -1.026565e+05
   8.913012e+04  -3.968931e+04
   1.307907e+05   4.523641e+04
   6.013355e+04   7.556807e+04
  -5.931292e+04   4.598153e+04
  -1.052240e+05   5.793625e+03
  -3.217357e+04  -6.578378e+03
   6.732094e+04   9.256999e+03
   6.577749e+04   3.479134e+04
  -4.536672e+04   4.643181e+04
  -1.406258e+05   1.706405e+04
