
 $NMID
 id='ANONYMOUS ', fmtdat='(2E16.6)'
 volume=1.0
 tramp=1.0
 $END
  -4.322500e+07  -5.005903e+05
  -2.670045e+07  -2.518057e+07
   4.310919e+06  -2.874144e+07
   2.071610e+07  -1.314737e+07
   1.366632e+07   3.428040e+06
  -1.601742e+06   7.427975e+06
  -8.063105e+06   4.359411e+05
  -3.452214e+06  -7.483239e+06
   4.129356e+06  -8.673936e+06
   7.752831e+06  -2.602986e+06
   5.808604e+06   5.155402e+06
   5.488795e+05   7.412077e+06
  -3.472383e+06   1.967450e+06
  -2.333731e+06  -5.307553e+06
   2.923572e+06  -6.218584e+06
   6.458471e+06   5.439281e+05
   3.924157e+06   8.126775e+06
  -2.749845e+06   9.567567e+06
  -7.973498e+06   4.600472e+06
  -8.282975e+06  -1.974848e+06
  -4.528073e+06  -5.880053e+06
  -1.199550e+05  -6.041365e+06
   1.630314e+06  -4.010964e+06
   5.577134e+04  -2.491220e+06
  -1.706640e+06  -3.122178e+06
   3.279499e+05  -4.489622e+06
   5.652913e+06  -3.499434e+06
   8.752414e+06   4.218618e+05
   5.659601e+06   4.019304e+06
  -7.027320e+05   4.146356e+06
  -3.998786e+06   1.458853e+06
  -2.026167e+06  -1.030206e+06
   1.731745e+06  -1.504175e+06
   3.278007e+06  -6.740702e+04
   2.041120e+06   2.360375e+06
  -2.517540e+05   4.025777e+06
  -1.932396e+06   2.837363e+06
  -2.003454e+06  -7.805203e+05
  -5.529740e+05  -2.876774e+06
   6.393107e+05  -6.371919e+05
  -2.978940e+05   2.906373e+06
  -2.370538e+06   2.280393e+06
  -2.221614e+06  -2.437593e+06
   1.292552e+06  -4.904934e+06
   4.721865e+06  -1.056340e+06
   3.836505e+06   5.075703e+06
  -1.176753e+06   6.498610e+06
  -5.835683e+06   1.888761e+06
  -6.126933e+06  -3.685282e+06
  -2.042726e+06  -5.308559e+06
   2.982288e+06  -2.745022e+06
   5.015749e+06   9.811214e+05
   2.630923e+06   2.936111e+06
  -1.739934e+06   2.037363e+06
  -3.795214e+06  -5.247320e+05
  -1.806735e+06  -2.108779e+06
   1.346917e+06  -1.161046e+06
   1.727353e+06   8.500075e+05
  -6.778694e+05   1.167651e+06
  -2.164106e+06  -6.593142e+05
  -3.315142e+05  -2.296955e+06
   2.970501e+06  -1.759581e+06
   4.207399e+06   5.206615e+05
   2.106609e+06   2.957366e+06
  -1.727628e+06   4.415842e+06
  -4.833061e+06   4.001610e+06
  -5.530639e+06   1.111086e+06
  -3.592899e+06  -3.053860e+06
  -5.060340e+05  -5.461964e+06
   1.438950e+06  -4.371879e+06
   1.316598e+06  -1.646247e+06
   5.293728e+05  -4.145163e+05
   8.938263e+05  -1.049334e+06
   2.247409e+06  -1.170979e+06
   2.821399e+06   5.667106e+05
   1.616906e+06   2.518399e+06
  -5.219716e+05   2.356604e+06
  -1.992411e+06   1.019816e+04
  -1.742919e+06  -2.436142e+06
   2.438405e+05  -2.976210e+06
   2.778639e+06  -1.242325e+06
   3.879486e+06   1.511429e+06
   2.458104e+06   3.409994e+06
  -2.326694e+05   3.382520e+06
  -1.814084e+06   2.062591e+06
  -1.668966e+06   1.006768e+06
  -1.547702e+06   8.380580e+05
  -2.817306e+06   6.274771e+05
  -4.221474e+06  -6.655674e+05
  -3.403605e+06  -2.705590e+06
  -8.466149e+04  -4.106036e+06
   3.345753e+06  -3.802695e+06
   4.334714e+06  -1.823723e+06
   2.563567e+06   7.602009e+05
  -8.715156e+04   2.312552e+06
  -1.374935e+06   1.754681e+06
  -5.317104e+05  -1.552006e+05
   1.206843e+06  -1.233711e+06
   1.852178e+06  -3.204294e+05
   7.590257e+05   1.175985e+06
  -6.514112e+05   1.112319e+06
  -6.094282e+05  -3.835790e+05
   8.265322e+05  -9.806985e+05
   1.875481e+06   6.841141e+05
   1.157467e+06   3.101710e+06
  -9.383666e+05   3.708374e+06
  -2.946232e+06   1.781462e+06
  -3.650139e+06  -1.109592e+06
  -2.658218e+06  -2.940660e+06
  -5.154616e+05  -2.864905e+06
   1.370291e+06  -1.465826e+06
   1.650849e+06  -1.199217e+05
   4.962536e+05   6.158472e+04
  -3.552230e+05  -7.626462e+05
   3.727250e+05  -1.281039e+06
   1.804532e+06  -5.455081e+05
   1.983620e+06   8.150046e+05
   4.323233e+05   1.355428e+06
  -1.169488e+06   6.030057e+05
  -1.003144e+06  -4.706158e+05
   7.980781e+05  -6.913622e+05
   2.356452e+06   1.600182e+05
   2.002191e+06   1.419450e+06
  -1.691034e+05   2.176647e+06
  -2.408704e+06   1.763814e+06
  -2.846300e+06   2.551228e+05
  -1.193359e+06  -1.247745e+06
   9.116584e+05  -1.402859e+06
   1.464687e+06  -1.384437e+05
   1.214975e+05   1.032563e+06
  -1.525629e+06   6.929267e+05
  -1.739231e+06  -7.728541e+05
  -4.136223e+05  -1.678866e+06
   1.049615e+06  -1.084731e+06
   1.315655e+06   2.136871e+05
   3.384105e+05   7.672339e+05
  -7.459273e+05   7.421334e+04
  -7.025108e+05  -1.055107e+06
   6.329599e+05  -1.406293e+06
   2.045931e+06  -4.683562e+05
   2.012888e+06   1.123272e+06
   3.422938e+05   2.089257e+06
  -1.453738e+06   1.631708e+06
  -1.740545e+06   2.147993e+05
  -5.365007e+05  -8.774609e+05
   6.661088e+05  -8.357554e+05
   7.118984e+05  -5.284168e+04
  -7.767953e+04   4.831749e+05
  -5.990243e+05   3.160606e+05
  -3.055070e+05  -1.093779e+05
   3.649018e+05  -7.790706e+04
   5.716733e+05   5.632468e+05
  -1.389575e+05   1.177934e+06
  -1.382259e+06   9.048962e+05
  -2.097659e+06  -4.434732e+05
  -1.435689e+06  -1.990339e+06
   2.789080e+05  -2.474158e+06
   1.694531e+06  -1.478931e+06
   1.802299e+06   1.101342e+05
   9.679767e+05   1.020797e+06
   3.271633e+05   8.656701e+05
   3.657289e+05   3.426293e+05
   5.100685e+05   2.730917e+05
   6.441421e+04   6.907984e+05
  -8.673662e+05   9.159048e+05
  -1.499159e+06   3.621109e+05
  -1.133152e+06  -7.806881e+05
   2.334348e+05  -1.578487e+06
   1.784154e+06  -1.124154e+06
   2.314135e+06   5.201726e+05
   1.169791e+06   2.141805e+06
  -9.809239e+05   2.383464e+06
  -2.540662e+06   1.067118e+06
  -2.431601e+06  -6.246040e+05
  -1.084454e+06  -1.390893e+06
   1.643781e+05  -1.084971e+06
   5.023492e+05  -6.134444e+05
   2.516343e+05  -7.348601e+05
   2.038608e+05  -1.221462e+06
   6.777863e+05  -1.223080e+06
   1.269880e+06  -2.747085e+05
   1.310062e+06   1.136623e+06
   5.087146e+05   1.944040e+06
  -6.802251e+05   1.446179e+06
  -1.320295e+06  -1.191178e+04
  -8.294532e+05  -1.279133e+06
   3.524354e+05  -1.409666e+06
   1.112078e+06  -4.844043e+05
   8.110528e+05   5.872559e+05
  -4.616576e+04   1.021860e+06
  -4.433043e+05   8.117732e+05
  -5.246524e+04   4.753033e+05
   4.051837e+05   3.747055e+05
   3.536488e+04   3.983638e+05
  -1.129147e+06   2.063194e+05
  -2.029275e+06  -3.525734e+05
  -1.622488e+06  -1.047491e+06
  -1.020706e+04  -1.408774e+06
   1.550227e+06  -1.107199e+06
   1.842643e+06  -2.974005e+05
   8.746351e+05   4.255645e+05
  -2.338769e+05   5.293343e+05
  -4.975204e+05   6.552769e+04
   4.221401e+03  -3.641900e+05
   4.863688e+05  -2.280239e+05
   4.673227e+05   3.607908e+05
   1.633974e+05   7.528581e+05
   1.671041e+04   4.867523e+05
   1.546028e+05  -1.409771e+05
   3.513332e+05  -3.471365e+05
   2.880111e+05   2.323801e+05
  -2.039068e+05   1.016717e+06
  -9.309903e+05   1.049015e+06
  -1.296821e+06   1.096630e+05
  -7.598690e+05  -9.417220e+05
   4.410684e+05  -1.080825e+06
   1.229748e+06  -2.488442e+05
   7.174522e+05   6.224914e+05
  -7.137134e+05   6.582505e+05
  -1.649752e+06  -1.012066e+05
  -1.098501e+06  -8.954158e+05
   4.549276e+05  -1.061188e+06
   1.568903e+06  -5.478942e+05
   1.321780e+06   1.797535e+05
   1.587696e+05   5.485841e+05
  -6.650944e+05   2.940370e+05
  -3.661626e+05  -2.844682e+05
   6.367665e+05  -4.818037e+05
   1.192030e+06   1.610746e+05
   5.907029e+05   1.240069e+06
  -7.143188e+05   1.687597e+06
  -1.566909e+06   8.152825e+05
  -1.256530e+06  -8.329759e+05
  -1.475595e+05  -1.852778e+06
   7.986133e+05  -1.340457e+06
   9.608917e+05   1.655288e+05
   4.549161e+05   1.232569e+06
  -1.994124e+05   1.026477e+06
  -5.648651e+05   9.797005e+04
  -5.067158e+05  -4.133971e+05
  -2.064556e+05  -1.653142e+05
  -3.808860e+04   1.125007e+05
  -2.214465e+05  -2.713081e+05
  -4.759363e+05  -9.884736e+05
  -2.180977e+05  -1.129051e+06
   6.852848e+05  -4.045101e+05
   1.509020e+06   5.191673e+05
   1.339375e+06   8.991400e+05
   1.785765e+05   7.112269e+05
  -9.271402e+05   3.958693e+05
  -1.031938e+06   1.744598e+05
  -3.368044e+05  -3.393188e+04
   1.714323e+05  -2.207428e+05
  -2.065728e+03  -2.403795e+05
  -3.161584e+05  -1.383941e+05
  -2.874456e+04  -1.374160e+05
   7.351620e+05  -1.961320e+05
   1.062855e+06   5.512575e+04
   3.512843e+05   7.015026e+05
  -9.382208e+05   1.144526e+06
  -1.722452e+06   6.938358e+05
  -1.366287e+06  -5.008482e+05
  -2.201882e+05  -1.452201e+06
   8.085307e+05  -1.371012e+06
   1.082687e+06  -4.882912e+05
   6.669677e+05   2.835369e+05
   1.068783e+05   3.662615e+05
  -1.104033e+05   3.182971e+04
   7.301465e+04  -4.927660e+04
   3.213425e+05   3.737714e+05
   2.493609e+05   8.370558e+05
  -2.105530e+05   6.792677e+05
  -6.983018e+05  -1.748965e+05
  -6.978188e+05  -1.020582e+06
  -4.045049e+04  -1.046303e+06
   7.974289e+05  -1.856889e+05
   1.017550e+06   8.036468e+05
   2.971501e+05   1.117391e+06
  -7.504135e+05   6.395835e+05
  -1.118485e+06  -1.170520e+05
  -5.067877e+05  -6.081160e+05
   3.030605e+05  -6.472927e+05
   3.620275e+05  -3.626194e+05
  -2.879088e+05  -3.790709e+04
  -6.739570e+05   1.378103e+04
  -1.289898e+05  -3.094997e+05
   8.648047e+05  -6.757814e+05
   1.276021e+06  -5.499746e+05
   7.417199e+05   1.677072e+05
  -1.246552e+05   8.708418e+05
  -5.540046e+05   8.495728e+05
  -3.979074e+05   1.323253e+05
  -1.872445e+04  -5.034608e+05
   2.606198e+05  -4.168006e+05
   3.521942e+05   1.938817e+05
   2.377699e+05   5.979414e+05
  -6.999848e+04   4.036527e+05
  -3.947644e+05  -7.113373e+04
  -4.706644e+05  -2.757950e+05
  -2.481852e+05  -8.501963e+04
   1.869414e+04   1.258730e+05
   9.185382e+04  -6.819233e+03
   4.709369e+04  -3.752784e+05
   1.254134e+05  -5.141106e+05
   3.430003e+05  -1.509142e+05
   4.075360e+05   4.325074e+05
   8.289329e+04   6.619382e+05
  -4.400766e+05   2.908663e+05
  -6.457018e+05  -3.224635e+05
  -2.243003e+05  -6.035784e+05
   5.185801e+05  -3.560225e+05
   8.784929e+05   1.135808e+05
   4.692952e+05   3.990142e+05
  -3.077817e+05   3.767951e+05
  -6.464054e+05   1.866828e+05
  -2.305544e+05   1.043541e+04
   3.869200e+05  -2.829454e+04
   4.227684e+05   1.151064e+05
  -2.126594e+05   3.095414e+05
  -8.146858e+05   2.468605e+05
