
 $NMID
 id='ANONYMOUS ', fmtdat='(2E16.6)'
 volume=1.0
 tramp=1.0
 $END
   4.338347e+07  -2.301707e+06
   2.797160e+07   2.491708e+07
  -3.564924e+06   2.962593e+07
  -2.058316e+07   1.316818e+07
  -1.347270e+07  -4.085177e+06
   1.830485e+06  -7.478602e+06
   7.873591e+06   8.024676e+04
   3.010810e+06   7.473011e+06
  -4.240780e+06   8.003231e+06
  -7.523812e+06   2.301912e+06
  -5.790721e+06  -4.621500e+06
  -9.446965e+05  -6.855910e+06
   3.075000e+06  -2.228353e+06
   2.303575e+06   4.461538e+06
  -2.695257e+06   5.601903e+06
  -6.294593e+06  -5.496306e+05
  -4.028080e+06  -7.802750e+06
   2.378158e+06  -9.447426e+06
   7.612262e+06  -5.014494e+06
   8.402608e+06   1.234550e+06
   5.250135e+06   5.491965e+06
   8.201861e+05   6.417776e+06
  -1.736222e+06   4.627615e+06
  -8.837749e+05   2.389800e+06
   1.140162e+06   2.156012e+06
   1.274674e+05   3.599693e+06
  -4.474385e+06   3.574967e+06
  -7.815168e+06   4.663031e+05
  -5.645824e+06  -3.159158e+06
  -1.141634e+05  -3.916673e+06
   3.090816e+06  -1.908217e+06
   1.882263e+06   2.275348e+05
  -8.919493e+05   9.326181e+05
  -2.225399e+06   2.855669e+05
  -1.804854e+06  -1.448036e+06
  -3.950305e+05  -3.292729e+06
   1.392125e+06  -2.984626e+06
   2.299260e+06   1.352414e+05
   1.225971e+06   2.706940e+06
  -4.756894e+05   1.235665e+06
  -1.251368e+05  -2.184944e+06
   1.987682e+06  -2.027902e+06
   2.145495e+06   2.367443e+06
  -1.420455e+06   4.932431e+06
  -5.122200e+06   1.217724e+06
  -4.231531e+06  -5.025264e+06
   1.000615e+06  -6.656254e+06
   5.665031e+06  -2.191441e+06
   5.800775e+06   3.263573e+06
   1.856749e+06   4.834894e+06
  -2.703957e+06   2.447885e+06
  -4.461653e+06  -9.392011e+05
  -2.270989e+06  -2.713869e+06
   1.741223e+06  -1.925233e+06
   3.646626e+06   4.657724e+05
   1.730112e+06   2.032039e+06
  -1.275093e+06   1.166056e+06
  -1.515256e+06  -7.566740e+05
   8.893297e+05  -9.411020e+05
   2.115456e+06   1.023983e+06
  -2.895020e+04   2.607640e+06
  -3.303509e+06   1.805576e+06
  -4.225896e+06  -6.428463e+05
  -2.079511e+06  -2.951589e+06
   1.298156e+06  -4.247733e+06
   4.002058e+06  -3.994863e+06
   4.949588e+06  -1.497107e+06
   3.662604e+06   2.450027e+06
   8.864592e+05   4.950595e+06
  -1.268786e+06   4.003812e+06
  -1.337403e+06   1.266843e+06
  -3.152773e+05  -2.722016e+03
  -2.656207e+05   7.987367e+05
  -1.489522e+06   1.319426e+06
  -2.337756e+06   1.603350e+04
  -1.610020e+06  -1.752137e+06
   1.073516e+05  -1.861543e+06
   1.449670e+06  -1.314110e+05
   1.492118e+06   1.838786e+06
   8.826571e+03   2.496011e+06
  -2.281125e+06   1.353949e+06
  -3.622335e+06  -9.473739e+05
  -2.621430e+06  -2.935982e+06
  -8.418633e+04  -3.302830e+06
   1.659395e+06  -2.191267e+06
   1.669911e+06  -1.027856e+06
   1.455487e+06  -7.068027e+05
   2.460315e+06  -5.532334e+05
   3.692887e+06   4.799687e+05
   3.031059e+06   2.229262e+06
   2.200916e+05   3.505416e+06
  -2.659245e+06   3.380681e+06
  -3.531264e+06   1.825785e+06
  -2.225803e+06  -3.843287e+05
  -1.777974e+05  -1.900184e+06
   9.579416e+05  -1.607517e+06
   4.624184e+05   4.870796e+04
  -9.223314e+05   1.116514e+06
  -1.590179e+06   3.763344e+05
  -7.714309e+05  -9.788032e+05
   4.489922e+05  -9.567739e+05
   4.344964e+05   3.280542e+05
  -8.285447e+05   7.329216e+05
  -1.665819e+06  -8.487033e+05
  -8.460536e+05  -2.863478e+06
   1.062245e+06  -3.097388e+06
   2.627408e+06  -1.273250e+06
   3.001213e+06   1.048581e+06
   2.137381e+06   2.373444e+06
   4.673436e+05   2.302570e+06
  -1.059229e+06   1.280192e+06
  -1.358233e+06   2.029725e+05
  -4.231893e+05  -2.938312e+04
   3.260120e+05   6.351257e+05
  -2.973643e+05   1.141278e+06
  -1.578183e+06   5.466205e+05
  -1.752901e+06  -6.721238e+05
  -3.897753e+05  -1.181902e+06
   9.853655e+05  -5.308243e+05
   8.054384e+05   3.763595e+05
  -7.093127e+05   5.238665e+05
  -1.940393e+06  -1.763261e+05
  -1.605547e+06  -1.148990e+06
   1.468572e+05  -1.762041e+06
   1.966215e+06  -1.508094e+06
   2.386569e+06  -3.038605e+05
   1.072736e+06   1.039621e+06
  -7.326516e+05   1.281929e+06
  -1.295922e+06   1.996146e+05
  -1.826518e+05  -8.973982e+05
   1.275787e+06  -6.601093e+05
   1.499996e+06   6.181901e+05
   3.576175e+05   1.417609e+06
  -9.008549e+05   9.024395e+05
  -1.108615e+06  -2.054479e+05
  -2.607830e+05  -6.627590e+05
   6.659608e+05  -7.689853e+04
   6.488516e+05   8.801052e+05
  -4.697853e+05   1.226353e+06
  -1.710874e+06   4.966313e+05
  -1.761957e+06  -8.616171e+05
  -3.750932e+05  -1.767716e+06
   1.189540e+06  -1.444740e+06
   1.477306e+06  -2.308439e+05
   4.648808e+05   7.334653e+05
  -5.447701e+05   7.150481e+05
  -5.601432e+05   7.152276e+04
   8.947740e+04  -3.493798e+05
   4.542983e+05  -2.144032e+05
   1.558257e+05   7.946787e+04
  -3.745364e+05  -2.727774e+03
  -4.864784e+05  -5.348964e+05
   1.242133e+05  -1.026135e+06
   1.161004e+06  -8.088596e+05
   1.798394e+06   3.062476e+05
   1.298767e+06   1.635756e+06
  -1.381918e+05   2.091833e+06
  -1.370955e+06   1.270053e+06
  -1.485144e+06  -6.302178e+04
  -7.842701e+05  -7.871545e+05
  -2.791662e+05  -6.121059e+05
  -3.747461e+05  -2.026593e+05
  -5.153917e+05  -2.317603e+05
  -9.680208e+04  -6.305707e+05
   7.252083e+05  -8.024480e+05
   1.250779e+06  -3.254858e+05
   9.401531e+05   6.136142e+05
  -1.778228e+05   1.293953e+06
  -1.468026e+06   9.775180e+05
  -1.956499e+06  -3.667892e+05
  -1.037414e+06  -1.782151e+06
   7.920367e+05  -2.062252e+06
   2.151435e+06  -9.654259e+05
   2.058101e+06   4.943216e+05
   8.895648e+05   1.143597e+06
  -1.478334e+05   8.583368e+05
  -3.584029e+05   4.695536e+05
  -9.341990e+04   6.304391e+05
  -7.361264e+04   1.091743e+06
  -5.351109e+05   1.104265e+06
  -1.089602e+06   2.992326e+05
  -1.165361e+06  -9.013380e+05
  -5.142508e+05  -1.617880e+06
   5.086221e+05  -1.247534e+06
   1.110341e+06  -2.935630e+04
   7.371787e+05   1.076774e+06
  -2.855426e+05   1.213693e+06
  -9.761649e+05   4.055810e+05
  -7.222387e+05  -5.443103e+05
   5.028953e+04  -9.156123e+05
   4.140644e+05  -6.997497e+05
   5.603357e+04  -3.773573e+05
  -3.709976e+05  -2.844352e+05
  -5.458626e+04  -3.297324e+05
   9.734857e+05  -2.129076e+05
   1.767537e+06   2.299745e+05
   1.416075e+06   8.462863e+05
   2.261554e+04   1.226924e+06
  -1.317057e+06   1.016105e+06
  -1.566161e+06   2.944733e+05
  -7.441290e+05  -3.842603e+05
   1.976667e+05  -4.865069e+05
   4.362665e+05  -5.286525e+04
   3.327375e+04   3.431304e+05
  -3.816797e+05   2.239359e+05
  -4.181890e+05  -2.831223e+05
  -2.132216e+05  -6.141704e+05
  -7.548086e+04  -4.044251e+05
  -1.231202e+05   9.586198e+04
  -2.538797e+05   2.670730e+05
  -2.459434e+05  -1.932528e+05
   1.116094e+05  -8.536596e+05
   7.481199e+05  -9.332160e+05
   1.142383e+06  -1.773309e+05
   7.323627e+05   7.600866e+05
  -3.254960e+05   9.730897e+05
  -1.056035e+06   3.064160e+05
  -6.386431e+05  -4.811378e+05
   5.876508e+05  -5.779832e+05
   1.380144e+06   4.347796e+04
   9.068941e+05   7.276127e+05
  -3.867523e+05   8.818301e+05
  -1.294957e+06   4.632467e+05
  -1.085067e+06  -1.341250e+05
  -1.323495e+05  -4.474494e+05
   5.555950e+05  -2.534918e+05
   3.349789e+05   2.381081e+05
  -4.952153e+05   4.525387e+05
  -1.013973e+06  -5.254072e+04
  -5.900901e+05  -1.000563e+06
   4.802905e+05  -1.467460e+06
   1.259897e+06  -7.844911e+05
   1.096062e+06   6.290811e+05
   2.107235e+05   1.542123e+06
  -6.148456e+05   1.138330e+06
  -8.088235e+05  -1.269707e+05
  -4.052331e+05  -1.023163e+06
   1.638993e+05  -8.520457e+05
   4.833992e+05  -9.006145e+04
   4.150811e+05   3.218064e+05
   1.487690e+05   1.223322e+05
   3.914606e+04  -8.726028e+04
   2.425684e+05   2.370250e+05
   4.590469e+05   8.180925e+05
   1.940054e+05   9.341358e+05
  -6.011850e+05   3.647614e+05
  -1.283812e+06  -3.703160e+05
  -1.129083e+06  -7.000649e+05
  -1.769347e+05  -5.981781e+05
   7.311447e+05  -3.750750e+05
   8.489494e+05  -1.788985e+05
   3.118327e+05   3.073431e+04
  -1.216099e+05   1.955261e+05
  -2.455906e+04   1.862456e+05
   2.318749e+05   8.440790e+04
   4.470266e+04   1.114111e+05
  -5.672268e+05   2.106186e+05
  -9.006876e+05   1.463776e+04
  -3.854934e+05  -5.766540e+05
   6.970343e+05  -1.027855e+06
   1.440839e+06  -6.953954e+05
   1.220250e+06   3.314180e+05
   2.693316e+05   1.203986e+06
  -6.252322e+05   1.206013e+06
  -8.875915e+05   4.885771e+05
  -5.677468e+05  -1.862617e+05
  -1.235561e+05  -3.029948e+05
   5.685668e+04  -5.244565e+04
  -7.338347e+04   1.968985e+04
  -2.708704e+05  -3.123598e+05
  -2.337104e+05  -6.936837e+05
   1.364094e+05  -5.888380e+05
   5.864345e+05   8.854048e+04
   6.573982e+05   7.978864e+05
   1.272644e+05   8.795046e+05
  -6.366367e+05   2.299838e+05
  -9.058484e+05  -5.915555e+05
  -3.299045e+05  -9.261954e+05
   5.922549e+05  -6.025489e+05
   9.649779e+05   3.152862e+04
   4.791052e+05   5.110000e+05
  -2.239921e+05   5.934536e+05
  -3.167666e+05   3.324687e+05
   2.104388e+05   6.523136e+03
   5.578199e+05  -4.978129e+04
   1.360270e+05   2.599843e+05
  -6.947911e+05   6.068500e+05
  -1.076984e+06   5.026421e+05
  -6.676276e+05  -1.283615e+05
   5.769441e+04  -7.521703e+05
   4.523923e+05  -7.583273e+05
   3.601720e+05  -1.576838e+05
   5.782184e+04   4.079797e+05
  -1.910570e+05   3.817778e+05
  -3.024365e+05  -1.158652e+05
  -2.348949e+05  -4.899592e+05
   2.864294e+04  -3.701612e+05
   3.361800e+05   2.667402e+04
   4.219376e+05   2.285691e+05
   2.148785e+05   7.772895e+04
  -3.873049e+04  -1.275099e+05
  -8.080275e+04  -3.834224e+04
   1.976847e+04   2.959531e+05
  -1.779388e+04   4.680422e+05
  -2.581128e+05   1.982434e+05
  -4.026955e+05  -3.044920e+05
  -1.568631e+05  -5.445026e+05
   3.392176e+05  -2.813448e+05
   5.790140e+05   2.168964e+05
   2.344185e+05   4.834434e+05
  -4.272420e+05   3.314236e+05
  -7.624228e+05  -3.569054e+04
  -4.244732e+05  -3.103650e+05
   2.379908e+05  -3.556779e+05
   5.405070e+05  -2.190381e+05
   2.170267e+05  -2.751479e+04
  -2.887840e+05   6.577738e+04
  -3.460035e+05  -4.177879e+04
   1.370205e+05  -2.490063e+05
   6.277482e+05  -2.479255e+05
