
 $NMID
 id='ANONYMOUS ', fmtdat='(2E16.6)'
 volume=1.0
 tramp=1.0
 $END
  -5.458179e+07  -2.031106e+06
  -3.160764e+07  -3.478075e+07
   8.414118e+06  -3.655389e+07
   2.711253e+07  -1.341056e+07
   1.575125e+07   7.112132e+06
  -3.417909e+06   8.906246e+06
  -9.477242e+06  -1.363819e+06
  -2.487589e+06  -9.506006e+06
   6.207034e+06  -8.962582e+06
   9.410456e+06  -1.724529e+06
   6.617623e+06   6.271519e+06
   5.156636e+05   8.444080e+06
  -4.004743e+06   2.518137e+06
  -2.431011e+06  -5.469164e+06
   3.836397e+06  -6.338646e+06
   7.606279e+06   1.502028e+06
   4.016779e+06   1.005266e+07
  -4.033816e+06   1.134888e+07
  -1.001196e+07   5.392857e+06
  -1.041564e+07  -2.398782e+06
  -6.107195e+06  -7.514373e+06
  -3.107840e+05  -8.354970e+06
   2.986195e+06  -5.676109e+06
   1.724893e+06  -2.543750e+06
  -1.146337e+06  -2.255820e+06
  -9.482070e+04  -4.213040e+06
   5.543658e+06  -4.142638e+06
   9.550381e+06  -1.125378e+05
   6.739903e+06   4.321790e+06
  -1.726801e+04   4.970061e+06
  -3.832274e+06   2.347854e+06
  -2.448864e+06  -1.797532e+05
   7.291023e+05  -1.022421e+06
   2.405856e+06  -4.231292e+05
   2.169150e+06   1.584593e+06
   4.959919e+05   3.971875e+06
  -1.938165e+06   3.682242e+06
  -3.100881e+06  -3.019708e+05
  -1.453302e+06  -3.616531e+06
   8.537037e+05  -1.746645e+06
   2.247232e+05   2.527883e+06
  -2.497349e+06   2.225248e+06
  -2.298775e+06  -3.162860e+06
   2.493048e+06  -5.858148e+06
   6.687829e+06  -7.512388e+05
   4.698775e+06   6.864166e+06
  -2.117910e+06   8.179963e+06
  -7.293767e+06   2.093755e+06
  -6.680615e+06  -4.555683e+06
  -1.675120e+06  -5.964575e+06
   3.474554e+06  -2.593170e+06
   5.148508e+06   1.606118e+06
   2.326323e+06   3.464192e+06
  -2.390494e+06   2.077177e+06
  -4.382118e+06  -1.020141e+06
  -1.829714e+06  -2.691976e+06
   1.710760e+06  -1.278823e+06
   1.696693e+06   1.048455e+06
  -1.257659e+06   8.842668e+05
  -2.344942e+06  -1.695394e+06
   6.344012e+05  -3.242100e+06
   4.470082e+06  -1.698043e+06
   5.087650e+06   1.428690e+06
   2.144471e+06   3.909358e+06
  -1.954137e+06   5.098053e+06
  -5.125585e+06   4.593309e+06
  -6.163063e+06   1.482982e+06
  -4.365710e+06  -3.288279e+06
  -7.050127e+05  -6.107736e+06
   1.943308e+06  -4.644389e+06
   1.720941e+06  -1.207535e+06
   1.766301e+05   1.611909e+05
   1.049910e+05  -1.021168e+06
   1.747357e+06  -1.694401e+06
   2.846397e+06  -7.066526e+04
   1.948246e+06   2.065897e+06
  -8.732312e+04   2.188816e+06
  -1.616890e+06   1.568473e+05
  -1.643409e+06  -2.160090e+06
   1.011150e+05  -2.947191e+06
   2.823028e+06  -1.533122e+06
   4.377278e+06   1.363257e+06
   3.018942e+06   3.822945e+06
  -1.977581e+05   4.129099e+06
  -2.312339e+06   2.563919e+06
  -2.199348e+06   1.045119e+06
  -1.813481e+06   6.432367e+05
  -2.938891e+06   4.131044e+05
  -4.315936e+06  -8.739118e+05
  -3.404097e+06  -2.861616e+06
  -1.036815e+04  -4.138003e+06
   3.340361e+06  -3.814389e+06
   4.269156e+06  -1.983661e+06
   2.651702e+06   5.351749e+05
   1.776988e+05   2.268768e+06
  -1.191471e+06   1.898172e+06
  -5.633313e+05  -6.568338e+04
   1.143987e+06  -1.278460e+06
   1.920569e+06  -3.353969e+05
   8.720401e+05   1.236995e+06
  -5.646317e+05   1.105943e+06
  -4.358211e+05  -3.982544e+05
   1.057928e+06  -6.897520e+05
   1.809214e+06   1.284278e+06
   5.875073e+05   3.460465e+06
  -1.618862e+06   3.383857e+06
  -3.140846e+06   1.085929e+06
  -3.299739e+06  -1.499703e+06
  -2.245081e+06  -2.839702e+06
  -3.933115e+05  -2.654982e+06
   1.300096e+06  -1.439037e+06
   1.601309e+06  -1.761449e+05
   4.946081e+05   6.149102e+04
  -3.374033e+05  -7.684369e+05
   4.555185e+05  -1.330145e+06
   1.929003e+06  -5.180777e+05
   2.011910e+06   9.510302e+05
   3.445553e+05   1.430675e+06
  -1.196828e+06   5.397135e+05
  -8.888505e+05  -4.852497e+05
   8.635276e+05  -5.085569e+05
   2.193247e+06   3.734862e+05
   1.733152e+06   1.416278e+06
  -2.999436e+05   1.987435e+06
  -2.377639e+06   1.603811e+06
  -2.805125e+06   1.908745e+05
  -1.183718e+06  -1.310597e+06
   9.741093e+05  -1.476762e+06
   1.571440e+06  -1.365418e+05
   1.620363e+05   1.093687e+06
  -1.552732e+06   6.924049e+05
  -1.707141e+06  -8.405945e+05
  -2.920214e+05  -1.674257e+06
   1.125969e+06  -9.528826e+05
   1.256337e+06   3.487377e+05
   2.253258e+05   7.923262e+05
  -8.030967e+05   2.867389e+04
  -7.086855e+05  -1.087644e+06
   6.286841e+05  -1.420201e+06
   2.046102e+06  -4.831075e+05
   2.021515e+06   1.126142e+06
   3.206853e+05   2.105892e+06
  -1.504516e+06   1.610732e+06
  -1.746929e+06   1.574607e+05
  -4.791322e+05  -8.910876e+05
   6.898204e+05  -7.896799e+05
   6.446662e+05  -5.738631e+04
  -1.268417e+05   3.641588e+05
  -5.042659e+05   2.021394e+05
  -1.305978e+05  -6.694123e+04
   4.417245e+05   8.713613e+04
   5.001313e+05   6.876970e+05
  -2.432002e+05   1.188137e+06
  -1.421814e+06   8.598183e+05
  -2.087733e+06  -4.835846e+05
  -1.416913e+06  -2.008288e+06
   2.946766e+05  -2.437625e+06
   1.673026e+06  -1.377428e+06
   1.702059e+06   1.763694e+05
   8.433620e+05   9.308290e+05
   3.061387e+05   6.734860e+05
   4.741695e+05   2.433786e+05
   6.174268e+05   3.374211e+05
   6.531207e+04   7.716265e+05
  -9.104477e+05   8.812654e+05
  -1.470723e+06   2.850961e+05
  -1.040168e+06  -7.599907e+05
   2.936769e+05  -1.466789e+06
   1.770019e+06  -1.030733e+06
   2.254275e+06   5.572164e+05
   1.078754e+06   2.153483e+06
  -1.091933e+06   2.352994e+06
  -2.595044e+06   9.599856e+05
  -2.350004e+06  -7.361974e+05
  -9.257557e+05  -1.377471e+06
   2.326256e+05  -9.490992e+05
   4.082876e+05  -5.081406e+05
   1.074595e+05  -7.616528e+05
   1.501289e+05  -1.315140e+06
   7.183021e+05  -1.276616e+06
   1.315035e+06  -2.791678e+05
   1.316314e+06   1.132979e+06
   5.029584e+05   1.930212e+06
  -6.727998e+05   1.431770e+06
  -1.297316e+06  -4.194933e+04
  -7.788463e+05  -1.319289e+06
   4.367112e+05  -1.394534e+06
   1.181957e+06  -3.720870e+05
   7.927144e+05   7.268067e+05
  -1.583391e+05   1.077538e+06
  -5.634033e+05   7.695447e+05
  -9.677340e+04   4.165824e+05
   4.276672e+05   3.530003e+05
   4.909771e+04   3.892464e+05
  -1.164871e+06   1.756074e+05
  -2.070900e+06  -4.004360e+05
  -1.599212e+06  -1.096209e+06
   8.371220e+04  -1.444846e+06
   1.639636e+06  -1.099589e+06
   1.855673e+06  -2.227731e+05
   8.235028e+05   5.234703e+05
  -2.821153e+05   5.650117e+05
  -5.162646e+05   1.770486e+04
  -1.675302e+04  -4.267516e+05
   4.549331e+05  -2.486899e+05
   4.761567e+05   3.597393e+05
   2.361892e+05   7.391508e+05
   8.398219e+04   4.885235e+05
   1.398115e+05  -9.102945e+04
   2.881070e+05  -2.875011e+05
   2.709374e+05   2.425743e+05
  -1.702731e+05   9.924880e+05
  -9.402399e+05   1.050377e+06
  -1.384617e+06   1.359001e+05
  -8.366424e+05  -9.509574e+05
   4.545582e+05  -1.140946e+06
   1.283973e+06  -3.055190e+05
   7.256516e+05   5.992729e+05
  -7.287452e+05   6.325629e+05
  -1.598093e+06  -1.457448e+05
  -9.839617e+05  -9.001651e+05
   5.207672e+05  -9.786037e+05
   1.523675e+06  -4.325833e+05
   1.233746e+06   2.315318e+05
   1.180150e+05   5.210638e+05
  -6.638669e+05   2.495295e+05
  -3.807297e+05  -3.111775e+05
   6.044460e+05  -5.156917e+05
   1.196419e+06   1.097063e+05
   6.541315e+05   1.211999e+06
  -6.348033e+05   1.711687e+06
  -1.521767e+06   8.630223e+05
  -1.251362e+06  -7.964362e+05
  -1.584169e+05  -1.815599e+06
   7.826950e+05  -1.283628e+06
   9.273264e+05   2.098610e+05
   3.958799e+05   1.216466e+06
  -2.569955e+05   9.664467e+05
  -5.726650e+05   6.468876e+04
  -4.542441e+05  -3.914656e+05
  -1.541498e+05  -1.391796e+05
  -5.435561e+04   9.174291e+04
  -2.854147e+05  -3.147322e+05
  -4.929594e+05  -9.946319e+05
  -1.534430e+05  -1.091550e+06
   7.450726e+05  -3.751562e+05
   1.477208e+06   5.093534e+05
   1.261440e+06   8.785404e+05
   1.665578e+05   7.134707e+05
  -8.644217e+05   4.049102e+05
  -9.957281e+05   1.552269e+05
  -3.710242e+05  -7.107279e+04
   1.491245e+05  -2.264364e+05
   5.292230e+04  -1.976285e+05
  -2.531999e+05  -9.193462e+04
  -5.387181e+04  -1.363055e+05
   6.608819e+05  -2.317818e+05
   1.062478e+06   3.186374e+04
   4.441860e+05   7.177400e+05
  -8.662885e+05   1.185629e+06
  -1.751501e+06   7.373457e+05
  -1.441328e+06  -4.627822e+05
  -2.544671e+05  -1.428795e+06
   8.129909e+05  -1.381356e+06
   1.077540e+06  -5.337378e+05
   6.582454e+05   2.397233e+05
   1.351896e+05   3.676685e+05
  -5.956605e+04   7.853884e+04
   8.627939e+04  -2.518360e+03
   2.873308e+05   3.832486e+05
   2.255921e+05   8.234336e+05
  -1.930382e+05   6.890229e+05
  -6.862622e+05  -1.234598e+05
  -7.429007e+05  -9.683208e+05
  -1.175856e+05  -1.052875e+06
   7.591084e+05  -2.568391e+05
   1.043918e+06   7.335033e+05
   3.450122e+05   1.113784e+06
  -7.345156e+05   6.880951e+05
  -1.142785e+06  -9.259312e+04
  -5.363207e+05  -6.457603e+05
   3.077189e+05  -6.995164e+05
   4.082504e+05  -3.675699e+05
  -2.336968e+05  -4.401379e+03
  -6.547980e+05   3.123594e+04
  -1.485864e+05  -3.193580e+05
   8.494119e+05  -6.696554e+05
   1.300466e+06  -5.072935e+05
   7.854511e+05   2.113431e+05
  -1.134088e+05   8.869016e+05
  -5.930284e+05   8.627735e+05
  -4.548931e+05   1.672112e+05
  -5.684418e+04  -4.802644e+05
   2.480787e+05  -4.478830e+05
   3.555331e+05   1.382071e+05
   2.502579e+05   5.894671e+05
  -5.833335e+04   4.486698e+05
  -3.973870e+05  -4.449111e+04
  -4.817500e+05  -3.058173e+05
  -2.428782e+05  -1.129550e+05
   3.924567e+04   1.676973e+05
   7.969580e+04   7.388311e+04
  -3.210528e+04  -3.503865e+05
   2.737032e+04  -5.809624e+05
   3.199193e+05  -2.503321e+05
   4.849928e+05   3.736902e+05
   1.808744e+05   6.605417e+05
  -4.108880e+05   3.226450e+05
  -6.831289e+05  -2.832602e+05
  -2.587862e+05  -5.793403e+05
   5.263989e+05  -3.646657e+05
   9.060513e+05   8.348134e+04
   4.855454e+05   3.907834e+05
  -3.059481e+05   4.154486e+05
  -6.589115e+05   2.380914e+05
  -2.695360e+05   1.594906e+04
   3.330764e+05  -8.195227e+04
   4.067252e+05   4.837724e+04
  -1.560912e+05   2.820271e+05
  -7.295616e+05   2.683317e+05
