
 $NMID
 id='ANONYMOUS ', fmtdat='(2E16.6)'
 volume=1.0
 tramp=1.0
 $END
  -1.776092e+07  -2.020036e+06
  -1.002315e+07  -1.132278e+07
   2.859320e+06  -1.163176e+07
   9.089886e+06  -4.734455e+06
   5.614562e+06   1.863473e+06
  -9.142466e+05   3.122745e+06
  -3.467098e+06   2.594218e+04
  -1.293578e+06  -3.269231e+06
   2.007583e+06  -3.625152e+06
   3.383442e+06  -8.723600e+05
   2.249752e+06   2.464878e+06
  -1.225021e+05   3.227758e+06
  -1.626443e+06   6.668249e+05
  -8.287612e+05  -2.431072e+06
   1.453033e+06  -2.586250e+06
   2.677526e+06   4.484009e+05
   1.300801e+06   3.537331e+06
  -1.557358e+06   3.830033e+06
  -3.507518e+06   1.494747e+06
  -3.296882e+06  -1.253193e+06
  -1.524466e+06  -2.642521e+06
   2.741225e+05  -2.435532e+06
   8.138729e+05  -1.515141e+06
   3.346441e+04  -1.041186e+06
  -6.384801e+05  -1.464328e+06
   3.554749e+05  -1.945371e+06
   2.603905e+06  -1.238673e+06
   3.741306e+06   5.954197e+05
   2.233554e+06   2.000279e+06
  -5.377184e+05   1.773450e+06
  -1.854722e+06   4.424057e+05
  -8.438525e+05  -5.998067e+05
   8.874954e+05  -6.390813e+05
   1.497582e+06   1.410334e+05
   7.465087e+05   1.204937e+06
  -3.994041e+05   1.759262e+06
  -1.007755e+06   1.054384e+06
  -7.606390e+05  -5.141096e+05
  -3.484202e+04  -1.243890e+06
   2.959115e+05  -1.601565e+05
  -2.932257e+05   1.280729e+06
  -1.113320e+06   8.755483e+05
  -8.526464e+05  -1.115085e+06
   6.668866e+05  -2.000478e+06
   1.926411e+06  -2.786538e+05
   1.380909e+06   2.209418e+06
  -6.948117e+05   2.612038e+06
  -2.475212e+06   5.494334e+05
  -2.444656e+06  -1.774219e+06
  -6.818740e+05  -2.327829e+06
   1.382274e+06  -1.083124e+06
   2.132266e+06   5.934313e+05
   1.031944e+06   1.380366e+06
  -8.188287e+05   8.466350e+05
  -1.608239e+06  -3.527266e+05
  -7.022378e+05  -9.875436e+05
   6.176301e+05  -4.660015e+05
   7.311932e+05   4.407486e+05
  -2.988774e+05   5.288771e+05
  -9.137787e+05  -2.922584e+05
  -1.415852e+05  -9.511191e+05
   1.232281e+06  -6.434967e+05
   1.721230e+06   3.482616e+05
   7.663376e+05   1.296689e+06
  -9.382337e+05   1.752470e+06
  -2.248786e+06   1.433747e+06
  -2.382779e+06   1.840697e+05
  -1.341972e+06  -1.471216e+06
   5.880239e+04  -2.342729e+06
   8.018382e+05  -1.807452e+06
   6.340312e+05  -6.689209e+05
   2.798097e+05  -1.695035e+05
   4.771767e+05  -4.012919e+05
   1.043968e+06  -3.785297e+05
   1.196065e+06   4.023115e+05
   5.806214e+05   1.201357e+06
  -3.581960e+05   1.034684e+06
  -9.109238e+05  -7.708309e+04
  -6.776597e+05  -1.158564e+06
   2.446073e+05  -1.297187e+06
   1.265320e+06  -3.990972e+05
   1.575619e+06   8.466959e+05
   8.535669e+05   1.562462e+06
  -2.718500e+05   1.389226e+06
  -8.439852e+05   7.515049e+05
  -7.203596e+05   3.369975e+05
  -6.760313e+05   2.999792e+05
  -1.222643e+06   1.656947e+05
  -1.771741e+06  -4.526764e+05
  -1.342511e+06  -1.303238e+06
   1.334216e+05  -1.771717e+06
   1.604091e+06  -1.491819e+06
   1.961335e+06  -5.838409e+05
   1.081794e+06   4.617228e+05
  -1.547019e+05   1.009318e+06
  -7.011803e+05   6.990309e+05
  -2.412957e+05  -9.785489e+04
   5.784815e+05  -4.929404e+05
   8.262672e+05  -6.879693e+04
   2.808065e+05   5.473002e+05
  -3.452060e+05   4.786368e+05
  -2.825316e+05  -1.789674e+05
   3.642429e+05  -4.261816e+05
   7.815310e+05   3.037813e+05
   4.143824e+05   1.349650e+06
  -5.060630e+05   1.590441e+06
  -1.327677e+06   7.001567e+05
  -1.551022e+06  -6.124187e+05
  -1.051803e+06  -1.401369e+06
  -1.076818e+05  -1.277541e+06
   6.653148e+05  -5.704026e+05
   7.294290e+05   3.114637e+04
   2.137425e+05   5.348979e+04
  -1.296169e+05  -3.431461e+05
   2.004822e+05  -5.397969e+05
   7.956270e+05  -1.715699e+05
   8.364908e+05   4.217080e+05
   1.538929e+05   6.100175e+05
  -5.257274e+05   2.389294e+05
  -4.384595e+05  -2.276382e+05
   3.459548e+05  -2.798665e+05
   1.010743e+06   1.392056e+05
   8.277261e+05   6.874950e+05
  -1.473801e+05   9.466384e+05
  -1.116271e+06   6.749346e+05
  -1.249801e+06  -7.964054e+03
  -4.682335e+05  -5.936510e+05
   4.524800e+05  -5.701013e+05
   6.407573e+05   1.262062e+03
   1.330700e+04   4.537377e+05
  -6.876335e+05   2.436748e+05
  -7.296164e+05  -4.001972e+05
  -1.246144e+05  -7.516957e+05
   4.952483e+05  -4.486466e+05
   5.774795e+05   1.287054e+05
   1.408394e+05   3.490270e+05
  -3.099076e+05   2.144876e+04
  -2.617708e+05  -4.644913e+05
   3.198191e+05  -5.705098e+05
   8.914335e+05  -1.156531e+05
   8.171163e+05   5.665467e+05
   6.124510e+04   9.158406e+05
  -6.969391e+05   6.471367e+05
  -7.711091e+05   2.098292e+04
  -2.099987e+05  -4.113975e+05
   3.201813e+05  -3.507908e+05
   3.275790e+05  -1.692813e+03
  -3.143477e+04   2.163333e+05
  -2.684299e+05   1.313788e+05
  -1.457111e+05  -5.061200e+04
   1.394066e+05  -2.641758e+04
   2.156039e+05   2.504194e+05
  -1.035081e+05   4.886306e+05
  -6.246480e+05   3.266303e+05
  -8.783682e+05  -2.775535e+05
  -5.297126e+05  -9.153488e+05
   2.301316e+05  -1.058651e+06
   8.019450e+05  -5.758476e+05
   7.858955e+05   1.228477e+05
   3.853867e+05   5.013341e+05
   1.017893e+05   4.177379e+05
   1.242228e+05   1.795125e+05
   1.856307e+05   1.315854e+05
  -1.274137e+04   2.828214e+05
  -4.095827e+05   3.466928e+05
  -6.527581e+05   8.851110e+04
  -4.499631e+05  -3.870309e+05
   1.662597e+05  -6.714327e+05
   8.111398e+05  -4.074038e+05
   9.726991e+05   3.211675e+05
   4.210284e+05   9.668226e+05
  -5.081333e+05   9.840355e+05
  -1.131403e+06   3.621401e+05
  -1.031701e+06  -3.607632e+05
  -4.294580e+05  -6.490478e+05
   1.073511e+05  -4.786542e+05
   2.554761e+05  -2.568030e+05
   1.623969e+05  -3.032933e+05
   1.529579e+05  -5.057707e+05
   3.432281e+05  -4.893707e+05
   5.533245e+05  -6.053802e+04
   5.130086e+05   5.483830e+05
   1.346012e+05   8.619959e+05
  -3.574867e+05   5.965466e+05
  -5.717271e+05  -5.620077e+04
  -3.083149e+05  -5.791189e+05
   2.010467e+05  -5.922854e+05
   4.870655e+05  -1.759783e+05
   3.220970e+05   2.658659e+05
  -4.876572e+04   4.258541e+05
  -2.053624e+05   3.341133e+05
  -3.581451e+04   2.128825e+05
   1.498311e+05   1.850139e+05
  -8.810078e+03   1.727110e+05
  -4.863769e+05   3.787297e+04
  -8.432880e+05  -2.381503e+05
  -6.516906e+05  -5.136762e+05
   4.072298e+04  -5.967472e+05
   6.992246e+05  -4.061586e+05
   8.043069e+05  -5.829441e+04
   3.658529e+05   2.041832e+05
  -1.175086e+05   2.088819e+05
  -2.119395e+05   1.201528e+04
   2.823293e+04  -1.452016e+05
   2.297787e+05  -6.898598e+04
   1.815377e+05   1.806843e+05
   1.908837e+04   3.363755e+05
  -2.838095e+04   2.120849e+05
   7.456010e+04  -5.976717e+04
   1.729093e+05  -1.432331e+05
   1.089907e+05   1.072668e+05
  -1.421872e+05   4.252674e+05
  -4.415751e+05   4.026542e+05
  -5.403174e+05  -1.898149e+04
  -2.664623e+05  -4.371354e+05
   2.374524e+05  -4.306004e+05
   5.301609e+05  -3.646325e+04
   2.772061e+05   3.066545e+05
  -3.357561e+05   2.531836e+05
  -7.132116e+05  -1.137279e+05
  -4.492448e+05  -4.338780e+05
   2.332776e+05  -4.470767e+05
   7.055936e+05  -1.829123e+05
   5.738336e+05   1.271930e+05
   5.106119e+04   2.472966e+05
  -2.984035e+05   1.056833e+05
  -1.424013e+05  -1.325123e+05
   3.004628e+05  -1.722659e+05
   5.044677e+05   1.324246e+05
   1.854304e+05   5.664333e+05
  -4.018195e+05   6.897011e+05
  -7.227641e+05   2.685680e+05
  -5.031245e+05  -4.254898e+05
   2.596289e+04  -8.115506e+05
   4.084348e+05  -5.495448e+05
   4.099310e+05   1.067245e+05
   1.498190e+05   5.513485e+05
  -1.187917e+05   4.412392e+05
  -2.427658e+05   2.299875e+04
  -2.091415e+05  -2.025958e+05
  -9.298841e+04  -8.334730e+04
  -1.845489e+04   5.115962e+04
  -6.918481e+04  -1.190578e+05
  -1.560427e+05  -4.462823e+05
  -5.589975e+04  -5.024698e+05
   3.009267e+05  -1.470733e+05
   6.315204e+05   2.952068e+05
   5.493527e+05   4.517007e+05
   4.480378e+04   3.126077e+05
  -4.301641e+05   1.254560e+05
  -4.580532e+05   3.105843e+04
  -1.348821e+05  -2.408476e+04
   8.939609e+04  -8.724303e+04
  -2.790138e+02  -1.110160e+05
  -1.420275e+05  -8.052588e+04
  -1.359540e+03  -5.913959e+04
   3.394337e+05  -4.420940e+04
   4.540825e+05   7.688408e+04
   9.935673e+04   3.163348e+05
  -4.720173e+05   4.419729e+05
  -7.679818e+05   2.082593e+05
  -5.490683e+05  -2.891347e+05
  -1.966964e+04  -6.394832e+05
   4.102760e+05  -5.476607e+05
   4.882569e+05  -1.497117e+05
   2.749912e+05   1.600985e+05
   2.371183e+04   1.611498e+05
  -5.943341e+04   2.432265e+02
   2.962088e+04  -2.659703e+04
   1.270815e+05   1.719757e+05
   7.453284e+04   3.724869e+05
  -1.242658e+05   2.812599e+05
  -2.956159e+05  -1.160353e+05
  -2.457838e+05  -4.821656e+05
   4.656490e+04  -4.528628e+05
   3.614059e+05  -2.958136e+04
   3.964435e+05   4.081382e+05
   6.545278e+04   4.960462e+05
  -3.567537e+05   2.297316e+05
  -4.699291e+05  -1.080656e+05
  -1.820744e+05  -2.767915e+05
   1.596276e+05  -2.522507e+05
   1.616777e+05  -1.373364e+05
  -1.341165e+05  -3.655083e+04
  -2.938254e+05  -2.925953e+04
  -3.613171e+04  -1.374093e+05
   4.062865e+05  -2.516652e+05
   5.680917e+05  -1.849565e+05
   3.010446e+05   9.920601e+04
  -9.710650e+04   3.658285e+05
  -2.703744e+05   3.353572e+05
  -1.662011e+05   2.918480e+04
   2.319575e+04  -2.229265e+05
   1.349650e+05  -1.602970e+05
   1.426921e+05   1.116507e+05
   7.160513e+04   2.700111e+05
  -5.257156e+04   1.611339e+05
  -1.666516e+05  -5.447474e+04
  -1.866011e+05  -1.347209e+05
  -1.030342e+05  -4.260654e+04
  -2.864973e+03   4.669390e+04
   4.030720e+04  -1.547948e+04
   5.328303e+04  -1.662431e+05
   9.986387e+04  -2.040088e+05
   1.620326e+05  -2.893171e+04
   1.405167e+05   2.192240e+05
  -1.569121e+04   2.910734e+05
  -2.094660e+05   9.827202e+04
  -2.551888e+05  -1.778176e+05
  -6.139755e+04  -2.752335e+05
   2.378119e+05  -1.263811e+05
   3.669640e+05   9.665838e+04
   1.799521e+05   1.954155e+05
  -1.512227e+05   1.399774e+05
  -2.857507e+05   3.934519e+04
  -9.219513e+04  -8.951717e+03
   1.802730e+05   1.478241e+04
   1.819954e+05   8.241288e+04
  -1.164970e+05   1.307007e+05
  -3.799087e+05   6.609960e+04
