
 $NMID
 id='ANONYMOUS ', fmtdat='(2E16.6)'
 volume=1.0
 tramp=1.0
 $END
  -3.288438e+07  -2.971392e+06
  -1.760156e+07  -2.224857e+07
   6.646257e+06  -2.172511e+07
   1.676126e+07  -6.784296e+06
   8.913270e+06   5.141186e+06
  -2.557578e+06   5.236066e+06
  -5.548301e+06  -1.275058e+06
  -1.015440e+06  -5.752016e+06
   4.023705e+06  -4.976184e+06
   5.631839e+06  -5.915870e+05
   3.769001e+06   3.979903e+06
   6.392213e+04   5.069637e+06
  -2.542878e+06   1.450407e+06
  -1.406919e+06  -3.221233e+06
   2.393656e+06  -3.539222e+06
   4.418047e+06   1.206456e+06
   1.990848e+06   6.093252e+06
  -2.836859e+06   6.543389e+06
  -6.180448e+06   2.827989e+06
  -6.195281e+06  -1.801626e+06
  -3.477462e+06  -4.792106e+06
   1.302311e+05  -5.185596e+06
   2.200471e+06  -3.350161e+06
   1.354043e+06  -1.230483e+06
  -6.075488e+05  -1.025010e+06
  -1.545801e+05  -2.371732e+06
   3.208908e+06  -2.470990e+06
   5.660837e+06  -3.126109e+04
   4.014482e+06   2.712702e+06
  -4.920343e+03   3.133724e+06
  -2.311277e+06   1.551714e+06
  -1.607494e+06  -3.173001e+03
   1.761876e+05  -6.138882e+05
   1.242135e+06  -3.776678e+05
   1.283129e+06   8.125010e+05
   3.291474e+05   2.335251e+06
  -1.262481e+06   2.196800e+06
  -2.020124e+06  -2.746328e+05
  -8.826292e+05  -2.328522e+06
   6.561428e+05  -1.173496e+06
   2.515904e+05   1.420272e+06
  -1.443158e+06   1.205522e+06
  -1.224676e+06  -1.979572e+06
   1.762519e+06  -3.379359e+06
   4.130338e+06  -1.340629e+05
   2.619339e+06   4.332130e+06
  -1.567880e+06   4.832243e+06
  -4.423171e+06   1.039372e+06
  -3.773948e+06  -2.821709e+06
  -7.754164e+05  -3.470120e+06
   2.080363e+06  -1.382229e+06
   2.887480e+06   1.078926e+06
   1.173663e+06   2.093831e+06
  -1.539989e+06   1.153407e+06
  -2.582454e+06  -7.654708e+05
  -9.748565e+05  -1.706146e+06
   1.080704e+06  -7.365361e+05
   9.487781e+05   6.600359e+05
  -8.076409e+05   4.191063e+05
  -1.275494e+06  -1.189142e+06
   6.352102e+05  -1.943526e+06
   2.811251e+06  -7.826422e+05
   2.939715e+06   1.116545e+06
   1.085066e+06   2.412262e+06
  -1.265644e+06   2.943072e+06
  -3.047367e+06   2.600216e+06
  -3.641734e+06   7.768437e+05
  -2.550178e+06  -2.023222e+06
  -3.018255e+05  -3.612514e+06
   1.290298e+06  -2.614132e+06
   1.043448e+06  -5.178561e+05
  -2.563450e+04   2.092681e+05
  -1.129951e+05  -6.333237e+05
   9.346641e+05  -1.115207e+06
   1.685371e+06  -1.609653e+05
   1.217897e+06   1.138467e+06
   3.736809e+04   1.280949e+06
  -8.854971e+05   1.609697e+05
  -9.504248e+05  -1.183592e+06
   4.741755e+04  -1.699127e+06
   1.662338e+06  -9.055944e+05
   2.580211e+06   8.368014e+05
   1.727359e+06   2.331562e+06
  -2.314483e+05   2.472957e+06
  -1.477793e+06   1.454113e+06
  -1.348820e+06   5.044475e+05
  -1.049428e+06   2.771419e+05
  -1.651360e+06   1.640751e+05
  -2.413185e+06  -5.656353e+05
  -1.878674e+06  -1.666163e+06
   3.392242e+04  -2.334883e+06
   1.903246e+06  -2.133851e+06
   2.434259e+06  -1.127367e+06
   1.552241e+06   2.925156e+05
   1.449953e+05   1.315717e+06
  -6.872773e+05   1.123513e+06
  -3.589310e+05  -3.126585e+04
   6.483620e+05  -7.506427e+05
   1.126877e+06  -1.853447e+05
   5.150395e+05   7.441295e+05
  -3.244577e+05   6.598144e+05
  -2.389581e+05  -2.026756e+05
   5.997826e+05  -3.268076e+05
   9.422347e+05   8.136288e+05
   1.723779e+05   1.958425e+06
  -1.027986e+06   1.778744e+06
  -1.743074e+06   4.466989e+05
  -1.742390e+06  -9.148242e+05
  -1.178629e+06  -1.568442e+06
  -2.025013e+05  -1.452132e+06
   7.320628e+05  -7.996848e+05
   9.101244e+05  -9.543980e+04
   2.803320e+05   4.469345e+04
  -1.920007e+05  -4.358109e+05
   2.759166e+05  -7.603231e+05
   1.120207e+06  -2.778925e+05
   1.146073e+06   5.753797e+05
   1.830558e+05   8.349737e+05
  -6.792226e+05   3.136139e+05
  -5.000201e+05  -2.519785e+05
   4.566639e+05  -2.466054e+05
   1.171533e+06   2.282261e+05
   9.258582e+05   7.688549e+05
  -1.759884e+05   1.072626e+06
  -1.329285e+06   8.708805e+05
  -1.580284e+06   8.135412e+04
  -6.591468e+05  -7.704319e+05
   5.844750e+05  -8.482495e+05
   9.231964e+05  -5.741905e+04
   9.621625e+04   6.458564e+05
  -8.901637e+05   3.919952e+05
  -9.593605e+05  -4.927929e+05
  -1.416175e+05  -9.473519e+05
   6.480305e+05  -5.175492e+05
   7.023245e+05   2.152177e+05
   1.209758e+05   4.526729e+05
  -4.503942e+05   2.149577e+04
  -4.011774e+05  -6.031161e+05
   3.445833e+05  -7.944454e+05
   1.146115e+06  -2.696910e+05
   1.134642e+06   6.428881e+05
   1.653303e+05   1.193851e+06
  -8.717469e+05   8.964289e+05
  -9.970391e+05   6.349512e+04
  -2.657296e+05  -5.185998e+05
   3.953094e+05  -4.500537e+05
   3.697583e+05  -4.625524e+04
  -4.799762e+04   1.828575e+05
  -2.446276e+05   1.155144e+05
  -5.221655e+04   2.507518e+03
   2.274322e+05   9.407041e+04
   2.381605e+05   3.966484e+05
  -1.642454e+05   6.450593e+05
  -8.001644e+05   4.564781e+05
  -1.160175e+06  -2.890702e+05
  -7.772020e+05  -1.138172e+06
   1.854392e+05  -1.365921e+06
   9.458035e+05  -7.532527e+05
   9.401225e+05   1.168045e+05
   4.559075e+05   5.161930e+05
   1.766402e+05   3.608395e+05
   2.829559e+05   1.399502e+05
   3.440032e+05   2.106683e+05
   1.340914e+04   4.353880e+05
  -5.206652e+05   4.643567e+05
  -8.025101e+05   1.312419e+05
  -5.514408e+05  -4.192419e+05
   1.761023e+05  -7.882364e+05
   9.818021e+05  -5.467060e+05
   1.244645e+06   3.272897e+05
   5.811364e+05   1.207472e+06
  -6.365639e+05   1.301819e+06
  -1.463438e+06   5.057548e+05
  -1.300779e+06  -4.374790e+05
  -4.965376e+05  -7.680073e+05
   1.316484e+05  -5.111407e+05
   2.119405e+05  -2.795352e+05
   5.314972e+04  -4.460551e+05
   1.004785e+05  -7.575355e+05
   4.268804e+05  -7.168357e+05
   7.493900e+05  -1.433670e+05
   7.348111e+05   6.484020e+05
   2.712199e+05   1.089761e+06
  -3.868571e+05   8.034540e+05
  -7.266371e+05  -3.050524e+04
  -4.214548e+05  -7.459419e+05
   2.627306e+05  -7.723179e+05
   6.630365e+05  -1.837104e+05
   4.232652e+05   4.251900e+05
  -1.133466e+05   5.976559e+05
  -3.273553e+05   4.129405e+05
  -5.604742e+04   2.264444e+05
   2.364165e+05   2.037457e+05
   2.205909e+04   2.168733e+05
  -6.532596e+05   7.813903e+04
  -1.152947e+06  -2.518390e+05
  -8.820628e+05  -6.290599e+05
   6.553576e+04  -8.038764e+05
   9.350586e+05  -5.964719e+05
   1.041949e+06  -1.042319e+05
   4.476850e+05   3.030368e+05
  -1.712313e+05   3.117863e+05
  -2.857348e+05  -1.570740e+03
   5.195588e+03  -2.451088e+05
   2.625794e+05  -1.350410e+05
   2.629655e+05   2.118534e+05
   1.274465e+05   4.252061e+05
   4.556677e+04   2.835476e+05
   7.272761e+04  -4.437494e+04
   1.486461e+05  -1.600736e+05
   1.399246e+05   1.318490e+05
  -1.013933e+05   5.486189e+05
  -5.314538e+05   5.758882e+05
  -7.796025e+05   5.790115e+04
  -4.628008e+05  -5.470699e+05
   2.716847e+05  -6.368017e+05
   7.319635e+05  -1.552503e+05
   4.032038e+05   3.446890e+05
  -4.159754e+05   3.438636e+05
  -8.889536e+05  -9.840129e+04
  -5.338314e+05  -5.052026e+05
   3.002827e+05  -5.307050e+05
   8.456096e+05  -2.237317e+05
   6.792962e+05   1.358922e+05
   6.193213e+04   2.881288e+05
  -3.707969e+05   1.338187e+05
  -2.114144e+05  -1.792880e+05
   3.434457e+05  -2.902363e+05
   6.764497e+05   6.822989e+04
   3.631210e+05   6.917484e+05
  -3.725572e+05   9.657416e+05
  -8.682149e+05   4.760364e+05
  -6.986961e+05  -4.600770e+05
  -7.314474e+04  -1.022108e+06
   4.469567e+05  -7.115454e+05
   5.118962e+05   1.258167e+05
   2.095079e+05   6.790371e+05
  -1.476315e+05   5.310658e+05
  -3.167706e+05   2.992828e+04
  -2.514284e+05  -2.158543e+05
  -8.716221e+04  -7.184937e+04
  -3.087429e+04   4.942884e+04
  -1.562056e+05  -1.872269e+05
  -2.687187e+05  -5.661829e+05
  -7.772431e+04  -6.083892e+05
   4.222540e+05  -1.970583e+05
   8.255520e+05   2.979089e+05
   6.985957e+05   4.979686e+05
   8.457232e+04   4.004572e+05
  -4.885745e+05   2.243410e+05
  -5.571465e+05   7.979045e+04
  -2.046351e+05  -4.902392e+04
   8.693389e+04  -1.293698e+05
   3.138250e+04  -1.033706e+05
  -1.425098e+05  -4.376012e+04
  -3.097514e+04  -7.714934e+04
   3.725470e+05  -1.325221e+05
   5.984194e+05   2.598479e+04
   2.448542e+05   4.173274e+05
  -4.999724e+05   6.672643e+05
  -9.974032e+05   3.956338e+05
  -8.114604e+05  -2.812706e+05
  -1.316238e+05  -8.073941e+05
   4.708308e+05  -7.662833e+05
   6.127558e+05  -2.912299e+05
   3.704589e+05   1.365433e+05
   7.436089e+04   2.089873e+05
  -3.596728e+04   5.061322e+04
   4.386139e+04   2.906238e+03
   1.553166e+05   2.139171e+05
   1.209424e+05   4.609592e+05
  -1.136549e+05   3.886865e+05
  -3.896051e+05  -7.071337e+04
  -4.168162e+05  -5.536086e+05
  -5.855783e+04  -6.021138e+05
   4.357865e+05  -1.439110e+05
   5.878641e+05   4.232183e+05
   1.843972e+05   6.341240e+05
  -4.238650e+05   3.820344e+05
  -6.435327e+05  -6.476682e+04
  -2.919468e+05  -3.709561e+05
   1.837491e+05  -3.904018e+05
   2.334248e+05  -1.989196e+05
  -1.328920e+05   2.700206e+02
  -3.682968e+05   1.301160e+04
  -7.927319e+04  -1.830781e+05
   4.829334e+05  -3.692409e+05
   7.324648e+05  -2.682341e+05
   4.364654e+05   1.330363e+05
  -7.409048e+04   4.994845e+05
  -3.448534e+05   4.751034e+05
  -2.625324e+05   8.415685e+04
  -3.025126e+04  -2.734722e+05
   1.467096e+05  -2.508195e+05
   2.038040e+05   8.005863e+04
   1.357217e+05   3.345538e+05
  -4.160153e+04   2.541181e+05
  -2.259647e+05  -2.827242e+04
  -2.652574e+05  -1.789801e+05
  -1.321944e+05  -6.671598e+04
   1.712518e+04   9.795880e+04
   3.537713e+04   4.384524e+04
  -1.993929e+04  -2.046474e+05
   2.494369e+04  -3.387842e+05
   1.921493e+05  -1.430881e+05
   2.774667e+05   2.211854e+05
   9.814730e+04   3.829723e+05
  -2.362872e+05   1.808436e+05
  -3.856950e+05  -1.685170e+05
  -1.430073e+05  -3.302241e+05
   3.001617e+05  -1.987049e+05
   5.119372e+05   5.760496e+04
   2.704373e+05   2.257419e+05
  -1.800527e+05   2.323170e+05
  -3.790515e+05   1.278267e+05
  -1.540268e+05   1.666782e+03
   1.921844e+05  -5.104583e+04
   2.353301e+05   2.733197e+04
  -8.553255e+04   1.625571e+05
  -4.123656e+05   1.534037e+05
