
 $NMID
 id='ANONYMOUS ', fmtdat='(2E16.6)'
 volume=1.0
 tramp=1.0
 $END
   6.164810e+07   5.682079e+05
   3.659765e+07   3.917736e+07
  -9.015540e+06   4.193966e+07
  -3.072417e+07   1.516593e+07
  -1.783866e+07  -8.569986e+06
   4.055514e+06  -1.019616e+07
   1.073742e+07   1.913816e+06
   2.536949e+06   1.087065e+07
  -7.237952e+06   9.774308e+06
  -1.059811e+07   1.717855e+06
  -7.415332e+06  -6.812900e+06
  -7.264616e+05  -9.192288e+06
   4.283007e+06  -2.957157e+06
   2.623440e+06   5.694528e+06
  -4.306853e+06   6.773459e+06
  -8.527176e+06  -1.744688e+06
  -4.555375e+06  -1.119144e+07
   4.383708e+06  -1.272675e+07
   1.107745e+07  -6.294085e+06
   1.177299e+07   2.262967e+06
   7.310558e+06   8.188775e+06
   8.306998e+05   9.620207e+06
  -3.387189e+06   6.840616e+06
  -2.513999e+06   2.926792e+06
   7.965016e+05   2.014299e+06
   2.711385e+05   4.146709e+06
  -5.533611e+06   4.581031e+06
  -1.012509e+07   5.486902e+05
  -7.522173e+06  -4.382632e+06
  -4.562493e+05  -5.400225e+06
   3.727574e+06  -2.829049e+06
   2.585835e+06  -2.820014e+05
  -3.736848e+05   6.804849e+05
  -2.027325e+06   4.646576e+05
  -2.166076e+06  -1.257931e+06
  -8.470903e+05  -3.946919e+06
   1.849558e+06  -4.181760e+06
   3.615055e+06  -9.234131e+04
   2.045987e+06   3.910962e+06
  -7.828184e+05   2.341179e+06
  -4.194782e+05  -2.348543e+06
   2.626946e+06  -2.302135e+06
   2.545177e+06   3.566577e+06
  -2.914003e+06   6.687640e+06
  -7.825244e+06   1.006996e+06
  -5.575940e+06  -7.707026e+06
   2.270737e+06  -9.357305e+06
   8.125216e+06  -2.539569e+06
   7.309623e+06   4.951465e+06
   1.706858e+06   6.494661e+06
  -3.817294e+06   2.711222e+06
  -5.485887e+06  -1.885050e+06
  -2.368178e+06  -3.856248e+06
   2.747594e+06  -2.293257e+06
   4.880529e+06   1.151640e+06
   2.012685e+06   3.035042e+06
  -1.904790e+06   1.450492e+06
  -1.779282e+06  -1.169524e+06
   1.601123e+06  -8.966647e+05
   2.688116e+06   2.169646e+06
  -9.064459e+05   3.939078e+06
  -5.281458e+06   2.002631e+06
  -5.799936e+06  -1.707192e+06
  -2.406940e+06  -4.439853e+06
   1.975534e+06  -5.604449e+06
   5.290034e+06  -5.070488e+06
   6.564466e+06  -1.832167e+06
   4.902427e+06   3.342885e+06
   9.541729e+05   6.551614e+06
  -2.165067e+06   5.005939e+06
  -2.028496e+06   1.118892e+06
  -1.207680e+05  -4.922681e+05
   2.536622e+05   9.049455e+05
  -1.473799e+06   1.912845e+06
  -2.839651e+06   3.852830e+05
  -2.098598e+06  -1.860954e+06
  -9.110504e+04  -2.115357e+06
   1.477793e+06  -1.783463e+05
   1.621592e+06   2.111995e+06
  -2.741681e+04   3.006799e+06
  -2.876084e+06   1.736827e+06
  -4.720466e+06  -1.232632e+06
  -3.451894e+06  -4.018237e+06
   4.405946e+04  -4.586470e+06
   2.510750e+06  -2.960064e+06
   2.491988e+06  -1.190653e+06
   2.015370e+06  -6.281268e+05
   3.114324e+06  -3.675689e+05
   4.527349e+06   9.520630e+05
   3.549628e+06   2.998891e+06
   8.104392e+03   4.291334e+06
  -3.413937e+06   3.955113e+06
  -4.333375e+06   2.130413e+06
  -2.742215e+06  -4.211744e+05
  -3.095848e+05  -2.276409e+06
   1.114834e+06  -2.000335e+06
   5.858309e+05   1.954664e+04
  -1.135856e+06   1.338570e+06
  -2.011037e+06   3.780209e+05
  -9.704884e+05  -1.281787e+06
   5.404761e+05  -1.132544e+06
   3.821171e+05   4.411029e+05
  -1.235295e+06   6.295782e+05
  -1.942903e+06  -1.587549e+06
  -4.309717e+05  -3.817404e+06
   2.007768e+06  -3.466489e+06
   3.433353e+06  -8.584563e+05
   3.316053e+06   1.761797e+06
   2.127448e+06   2.939249e+06
   3.310412e+05   2.660400e+06
  -1.305251e+06   1.465705e+06
  -1.619461e+06   2.061629e+05
  -5.097699e+05  -6.212818e+04
   3.474582e+05   7.955700e+05
  -4.883170e+05   1.411820e+06
  -2.046927e+06   5.571890e+05
  -2.119784e+06  -1.023840e+06
  -3.414439e+05  -1.524949e+06
   1.253197e+06  -5.460827e+05
   8.750199e+05   5.163280e+05
  -9.409160e+05   4.590992e+05
  -2.222158e+06  -4.908462e+05
  -1.674452e+06  -1.489757e+06
   3.852454e+05  -1.987000e+06
   2.453250e+06  -1.591515e+06
   2.884063e+06  -1.776095e+05
   1.235541e+06   1.376033e+06
  -1.012025e+06   1.574231e+06
  -1.670251e+06   1.674620e+05
  -2.041909e+05  -1.149338e+06
   1.609171e+06  -7.300919e+05
   1.764176e+06   8.914145e+05
   2.576480e+05   1.744753e+06
  -1.212081e+06   9.463196e+05
  -1.296924e+06  -4.205110e+05
  -1.951307e+05  -8.475082e+05
   8.586915e+05  -2.859840e+04
   7.470867e+05   1.125539e+06
  -6.310034e+05   1.471479e+06
  -2.100508e+06   5.182111e+05
  -2.094235e+06  -1.146871e+06
  -3.368614e+05  -2.179892e+06
   1.568228e+06  -1.669273e+06
   1.814940e+06  -1.474610e+05
   4.784409e+05   9.344488e+05
  -7.246759e+05   8.053685e+05
  -6.367285e+05   5.609165e+04
   1.655936e+05  -3.317622e+05
   4.922570e+05  -1.477010e+05
   5.075836e+04   7.500666e+04
  -5.138185e+05  -1.493586e+05
  -5.051598e+05  -7.714175e+05
   2.885465e+05  -1.244630e+06
   1.483232e+06  -8.793098e+05
   2.154698e+06   5.048708e+05
   1.465792e+06   2.071211e+06
  -3.032425e+05   2.500207e+06
  -1.724691e+06   1.381031e+06
  -1.722433e+06  -2.189566e+05
  -8.037561e+05  -9.377592e+05
  -2.765212e+05  -6.129777e+05
  -5.194833e+05  -1.868693e+05
  -6.938983e+05  -3.537378e+05
  -8.348793e+04  -8.277252e+05
   9.575416e+05  -9.017609e+05
   1.510647e+06  -2.612722e+05
   1.027945e+06   7.826709e+05
  -3.399029e+05   1.470944e+06
  -1.824776e+06   1.026743e+06
  -2.303814e+06  -5.869748e+05
  -1.086447e+06  -2.231629e+06
   1.163638e+06  -2.435689e+06
   2.709507e+06  -9.669632e+05
   2.409335e+06   8.072335e+05
   8.910711e+05   1.435122e+06
  -2.863768e+05   9.317487e+05
  -3.943794e+05   4.642804e+05
  -3.946073e+04   7.730378e+05
  -1.088042e+05   1.387985e+06
  -7.420151e+05   1.349679e+06
  -1.372383e+06   3.046245e+05
  -1.364990e+06  -1.157213e+06
  -5.248076e+05  -1.981017e+06
   6.840596e+05  -1.472166e+06
   1.332303e+06   5.181601e+04
   7.952468e+05   1.380163e+06
  -4.806941e+05   1.446852e+06
  -1.264239e+06   3.536145e+05
  -8.358292e+05  -8.070552e+05
   1.959133e+05  -1.153296e+06
   6.341424e+05  -7.978871e+05
   1.261641e+05  -4.124409e+05
  -4.474172e+05  -3.485364e+05
  -5.614456e+04  -3.939010e+05
   1.218748e+06  -1.791433e+05
   2.159830e+06   4.148663e+05
   1.651354e+06   1.144583e+06
  -1.113232e+05   1.519564e+06
  -1.721842e+06   1.153720e+06
  -1.928976e+06   2.104582e+05
  -8.462980e+05  -5.847783e+05
   3.022389e+05  -6.065221e+05
   5.473922e+05  -3.477566e+03
   3.760886e+04   4.623169e+05
  -4.515252e+05   2.610869e+05
  -4.955681e+05  -3.670521e+05
  -2.748372e+05  -7.424766e+05
  -1.176413e+05  -4.926153e+05
  -1.454438e+05   7.009966e+04
  -2.771444e+05   2.615921e+05
  -2.731236e+05  -2.543690e+05
   1.601677e+05  -1.005400e+06
   9.650503e+05  -1.088023e+06
   1.456619e+06  -1.733656e+05
   9.003580e+05   9.655129e+05
  -4.575950e+05   1.204805e+06
  -1.334153e+06   3.539912e+05
  -7.498846e+05  -6.026226e+05
   7.583899e+05  -6.467444e+05
   1.632475e+06   1.698998e+05
   9.700179e+05   9.433575e+05
  -5.733888e+05   9.862715e+05
  -1.567180e+06   3.968615e+05
  -1.243188e+06  -2.684551e+05
  -1.025703e+05  -5.312389e+05
   6.893551e+05  -2.420479e+05
   4.048779e+05   3.268901e+05
  -6.000406e+05   5.435115e+05
  -1.226208e+06  -8.378640e+04
  -7.024268e+05  -1.222507e+06
   6.076277e+05  -1.763558e+06
   1.536527e+06  -9.092954e+05
   1.284884e+06   7.998869e+05
   1.705552e+05   1.852149e+06
  -8.024998e+05   1.299585e+06
  -9.493416e+05  -2.355409e+05
  -3.866913e+05  -1.253651e+06
   2.932106e+05  -9.810071e+05
   5.977711e+05  -5.726071e+04
   4.443132e+05   3.998931e+05
   1.335660e+05   1.399788e+05
   6.594407e+04  -8.899444e+04
   3.297640e+05   3.301044e+05
   5.214171e+05   1.021793e+06
   1.307011e+05   1.118929e+06
  -7.954908e+05   3.881413e+05
  -1.509493e+06  -5.182920e+05
  -1.267798e+06  -9.028193e+05
  -1.703517e+05  -7.367825e+05
   8.606535e+05  -4.146646e+05
   1.012787e+06  -1.509121e+05
   4.028715e+05   8.123543e+04
  -1.424006e+05   2.329397e+05
  -8.397161e+04   1.951264e+05
   2.270019e+05   8.394473e+04
   6.671188e+04   1.349551e+05
  -6.421748e+05   2.447301e+05
  -1.090415e+06  -1.731548e+04
  -5.028922e+05  -7.282718e+05
   8.492686e+05  -1.231168e+06
   1.805305e+06  -7.916177e+05
   1.511980e+06   4.409947e+05
   2.797980e+05   1.454824e+06
  -8.302038e+05   1.431778e+06
  -1.096939e+06   5.734555e+05
  -6.681004e+05  -2.261959e+05
  -1.534546e+05  -3.735001e+05
   3.171636e+04  -9.231386e+04
  -1.020813e+05  -1.437141e+04
  -2.852942e+05  -4.026271e+05
  -2.248489e+05  -8.450289e+05
   1.858924e+05  -7.121649e+05
   6.940413e+05   1.036161e+05
   7.808411e+05   9.641266e+05
   1.600696e+05   1.074109e+06
  -7.529537e+05   2.919965e+05
  -1.078577e+06  -7.165716e+05
  -3.804494e+05  -1.136043e+06
   7.383176e+05  -7.300636e+05
   1.183474e+06   7.515533e+04
   5.743130e+05   6.728613e+05
  -3.062797e+05   7.444919e+05
  -4.367010e+05   3.906682e+05
   2.125935e+05  -1.323912e+03
   6.632037e+05  -3.955034e+04
   1.643694e+05   3.290104e+05
  -8.660847e+05   6.890948e+05
  -1.354231e+06   5.155620e+05
  -8.356728e+05  -2.246707e+05
   1.049136e+05  -9.190988e+05
   6.205361e+05  -9.037079e+05
   4.856308e+05  -1.984628e+05
   7.297646e+04   4.783964e+05
  -2.428497e+05   4.733644e+05
  -3.590136e+05  -1.168296e+05
  -2.645739e+05  -6.002477e+05
   4.545957e+04  -4.792704e+05
   4.063002e+05   3.220645e+04
   5.074818e+05   3.232285e+05
   2.531598e+05   1.277095e+05
  -5.686938e+04  -1.865287e+05
  -9.078486e+04  -1.113726e+05
   6.382699e+04   3.372755e+05
   2.674340e+04   6.102574e+05
  -3.022315e+05   2.971298e+05
  -5.240682e+05  -3.451244e+05
  -2.302930e+05  -6.626349e+05
   4.041071e+05  -3.427986e+05
   7.141085e+05   2.656846e+05
   2.798714e+05   5.794571e+05
  -5.420701e+05   3.831608e+05
  -9.401404e+05  -6.413911e+04
  -5.076010e+05  -3.938665e+05
   3.058330e+05  -4.454295e+05
   6.743281e+05  -2.722156e+05
   2.930135e+05  -2.642210e+04
  -3.114186e+05   9.980721e+04
  -4.016541e+05  -2.254433e+04
   1.402300e+05  -2.706238e+05
   7.111225e+05  -2.751234e+05
