
 $NMID
 id='ANONYMOUS ', fmtdat='(2E16.6)'
 volume=1.0
 tramp=1.0
 $END
   3.974003e+07  -2.503916e+06
   2.643424e+07   2.157730e+07
  -2.044406e+06   2.697045e+07
  -1.844608e+07   1.343172e+07
  -1.300010e+07  -2.490000e+06
   1.039137e+06  -7.030947e+06
   7.495741e+06  -7.805771e+05
   3.580414e+06   6.799416e+06
  -3.435262e+06   8.206393e+06
  -7.052944e+06   2.799794e+06
  -5.618272e+06  -4.350939e+06
  -9.382610e+05  -6.698209e+06
   2.986237e+06  -2.022043e+06
   2.329128e+06   4.648435e+06
  -2.417300e+06   5.808619e+06
  -6.011351e+06  -1.549119e+05
  -4.089621e+06  -7.264533e+06
   1.963246e+06  -8.994158e+06
   7.034993e+06  -4.763666e+06
   7.728588e+06   1.214542e+06
   4.609955e+06   5.025331e+06
   6.424263e+05   5.553330e+06
  -1.184436e+06   3.945252e+06
  -4.469531e+04   2.462011e+06
   1.512983e+06   2.767076e+06
  -1.338110e+05   3.978909e+06
  -4.856617e+06   3.384062e+06
  -7.854963e+06   9.646306e+04
  -5.343852e+06  -3.257417e+06
   3.089027e+05  -3.701275e+06
   3.392592e+06  -1.499681e+06
   1.772579e+06   7.335382e+05
  -1.491167e+06   1.263484e+06
  -2.849120e+06   1.070768e+05
  -1.858448e+06  -1.980920e+06
   1.043678e+04  -3.547998e+06
   1.520678e+06  -2.696830e+06
   1.850486e+06   4.471097e+05
   7.623139e+05   2.494069e+06
  -4.278278e+05   6.904133e+05
   1.683265e+05  -2.537403e+06
   2.060484e+06  -2.157029e+06
   2.188837e+06   2.131198e+06
  -9.266951e+05   4.652471e+06
  -4.355292e+06   1.347358e+06
  -3.903707e+06  -4.414656e+06
   6.696264e+05  -6.094905e+06
   5.236486e+06  -2.105310e+06
   5.782518e+06   3.064268e+06
   2.098192e+06   4.776336e+06
  -2.613771e+06   2.633986e+06
  -4.625697e+06  -7.023110e+05
  -2.537226e+06  -2.595290e+06
   1.496653e+06  -1.976907e+06
   3.516262e+06   2.716610e+05
   1.786991e+06   1.841104e+06
  -1.159459e+06   1.142418e+06
  -1.607359e+06  -7.028077e+05
   6.216074e+05  -1.121056e+06
   2.098367e+06   5.419974e+05
   4.440290e+05   2.210798e+06
  -2.697150e+06   1.867728e+06
  -3.967614e+06  -2.510750e+05
  -2.128489e+06  -2.631408e+06
   1.317731e+06  -4.116436e+06
   4.146425e+06  -3.867521e+06
   4.931654e+06  -1.315538e+06
   3.430397e+06   2.529588e+06
   7.652269e+05   4.909767e+06
  -1.112630e+06   4.071382e+06
  -1.195417e+06   1.567113e+06
  -5.168152e+05   3.276339e+05
  -7.297971e+05   8.810806e+05
  -1.884756e+06   1.102216e+06
  -2.478395e+06  -3.631128e+05
  -1.514355e+06  -2.128542e+06
   3.657379e+05  -2.069558e+06
   1.741368e+06  -5.201895e+04
   1.619597e+06   2.109472e+06
  -9.332583e+04   2.661265e+06
  -2.412533e+06   1.249769e+06
  -3.561012e+06  -1.135827e+06
  -2.432937e+06  -2.929023e+06
  -1.754755e+04  -3.097114e+06
   1.524393e+06  -2.021985e+06
   1.495534e+06  -1.040382e+06
   1.403101e+06  -8.340081e+05
   2.544616e+06  -6.715412e+05
   3.855313e+06   4.411382e+05
   3.186065e+06   2.313435e+06
   2.329539e+05   3.699431e+06
  -2.862619e+06   3.547829e+06
  -3.803883e+06   1.811262e+06
  -2.310337e+06  -5.551232e+05
  -2.354449e+04  -2.044459e+06
   1.132509e+06  -1.619442e+06
   4.700627e+05   1.032999e+05
  -1.023751e+06   1.146548e+06
  -1.646844e+06   3.712679e+05
  -7.419937e+05  -1.011130e+06
   5.280237e+05  -1.010638e+06
   5.449720e+05   3.390244e+05
  -7.529454e+05   9.151506e+05
  -1.773581e+06  -5.932404e+05
  -1.165664e+06  -2.834793e+06
   7.789692e+05  -3.430057e+06
   2.675106e+06  -1.695558e+06
   3.354222e+06   9.210881e+05
   2.470706e+06   2.583081e+06
   5.426145e+05   2.558220e+06
  -1.175086e+06   1.363821e+06
  -1.470412e+06   1.730991e+05
  -4.496562e+05  -3.437574e+04
   3.461424e+05   6.723048e+05
  -2.849512e+05   1.174315e+06
  -1.607548e+06   5.711767e+05
  -1.826732e+06  -6.566351e+05
  -4.437981e+05  -1.207847e+06
   1.030656e+06  -5.796904e+05
   9.053716e+05   3.983022e+05
  -7.221070e+05   6.419520e+05
  -2.139569e+06  -9.261726e+04
  -1.834356e+06  -1.233028e+06
   1.008928e+05  -1.965532e+06
   2.114085e+06  -1.663867e+06
   2.553001e+06  -3.326993e+05
   1.129098e+06   1.076570e+06
  -7.565449e+05   1.306787e+06
  -1.314582e+06   1.964663e+05
  -1.588380e+05  -9.177869e+05
   1.343108e+06  -6.827782e+05
   1.596350e+06   6.334143e+05
   4.294470e+05   1.502781e+06
  -9.169656e+05   1.013720e+06
  -1.197204e+06  -1.544260e+05
  -3.270152e+05  -6.844810e+05
   6.737364e+05  -9.162576e+04
   6.695341e+05   9.261862e+05
  -5.192896e+05   1.286737e+06
  -1.821951e+06   4.963612e+05
  -1.853138e+06  -9.336456e+05
  -3.886898e+05  -1.868152e+06
   1.247693e+06  -1.527956e+06
   1.561449e+06  -2.614009e+05
   5.147731e+05   7.695149e+05
  -5.692525e+05   7.728947e+05
  -6.272165e+05   6.858888e+04
   7.267012e+04  -4.299808e+05
   5.337392e+05  -2.827719e+05
   2.583533e+05   1.068901e+05
  -3.546414e+05   8.003899e+04
  -5.472914e+05  -5.060392e+05
   8.822016e+04  -1.081182e+06
   1.220177e+06  -8.685633e+05
   1.909282e+06   3.244729e+05
   1.368748e+06   1.740433e+06
  -1.596666e+05   2.236509e+06
  -1.475407e+06   1.387518e+06
  -1.626494e+06  -4.316655e+04
  -8.949727e+05  -8.865749e+05
  -3.089719e+05  -7.544567e+05
  -3.416692e+05  -2.764353e+05
  -4.857427e+05  -2.221233e+05
  -9.331262e+04  -6.296140e+05
   7.558427e+05  -8.634084e+05
   1.347587e+06  -3.740495e+05
   1.044253e+06   6.723165e+05
  -1.680463e+05   1.431905e+06
  -1.576026e+06   1.071858e+06
  -2.103841e+06  -3.905554e+05
  -1.127854e+06  -1.893719e+06
   8.041688e+05  -2.190691e+06
   2.260221e+06  -1.054780e+06
   2.216790e+06   4.845840e+05
   1.015840e+06   1.224004e+06
  -1.253679e+05   9.788330e+05
  -4.322418e+05   5.536950e+05
  -1.838996e+05   6.583859e+05
  -1.215137e+05   1.109033e+06
  -5.595760e+05   1.135450e+06
  -1.135022e+06   3.013628e+05
  -1.222725e+06  -9.712251e+05
  -5.306854e+05  -1.728795e+06
   5.567901e+05  -1.324962e+06
   1.188606e+06  -3.493217e+04
   7.948001e+05   1.127529e+06
  -2.713079e+05   1.289176e+06
  -9.989916e+05   4.760585e+05
  -7.649018e+05  -5.113483e+05
   6.422498e+03  -9.374821e+05
   3.824613e+05  -7.553820e+05
   3.775596e+04  -4.286817e+05
  -3.805937e+05  -3.185345e+05
  -4.789397e+04  -3.568588e+05
   1.016424e+06  -2.305458e+05
   1.850674e+06   2.404917e+05
   1.503603e+06   8.877856e+05
   5.738733e+04   1.279334e+06
  -1.361781e+06   1.063585e+06
  -1.654643e+06   3.338243e+05
  -8.078746e+05  -3.623593e+05
   1.911715e+05  -4.937460e+05
   4.522446e+05  -7.588113e+04
   1.910564e+04   3.333623e+05
  -4.244313e+05   2.253373e+05
  -4.369683e+05  -3.052902e+05
  -1.829624e+05  -6.644425e+05
  -4.073723e+04  -4.316384e+05
  -1.380160e+05   1.278082e+05
  -3.044322e+05   3.140689e+05
  -2.684051e+05  -2.037623e+05
   1.452243e+05  -9.207473e+05
   8.013848e+05  -9.813241e+05
   1.170832e+06  -1.573185e+05
   7.284784e+05   8.138526e+05
  -3.519643e+05   9.975307e+05
  -1.098561e+06   2.821395e+05
  -6.696939e+05  -5.299585e+05
   6.208670e+05  -6.203812e+05
   1.489971e+06   3.512515e+04
   1.015039e+06   7.751679e+05
  -3.821151e+05   9.730546e+05
  -1.398825e+06   5.400778e+05
  -1.194364e+06  -1.237804e+05
  -1.579397e+05  -4.890891e+05
   5.910701e+05  -2.858024e+05
   3.435627e+05   2.432047e+05
  -5.492139e+05   4.580068e+05
  -1.075180e+06  -9.434016e+04
  -5.831846e+05  -1.085604e+06
   5.679182e+05  -1.542900e+06
   1.370912e+06  -7.963238e+05
   1.160975e+06   6.979216e+05
   2.033441e+05   1.658907e+06
  -6.707916e+05   1.232056e+06
  -8.729513e+05  -1.191866e+05
  -4.501780e+05  -1.096632e+06
   1.514334e+05  -9.312995e+05
   5.089843e+05  -1.067590e+05
   4.649912e+05   3.557335e+05
   1.843904e+05   1.429936e+05
   3.292024e+04  -1.021979e+05
   2.196493e+05   2.344014e+05
   4.690107e+05   8.705737e+05
   2.308541e+05   1.009925e+06
  -6.096131e+05   3.932427e+05
  -1.375445e+06  -4.105176e+05
  -1.232271e+06  -7.626619e+05
  -1.876002e+05  -6.354723e+05
   8.130814e+05  -3.884148e+05
   9.211451e+05  -1.922145e+05
   3.115236e+05   1.814581e+04
  -1.426592e+05   2.040930e+05
   2.613761e+03   2.174591e+05
   2.798007e+05   1.141148e+05
   3.280722e+04   1.207575e+05
  -6.447364e+05   2.018529e+05
  -9.572862e+05  -6.643001e+03
  -3.539074e+05  -6.117574e+05
   7.899256e+05  -1.064961e+06
   1.523532e+06  -6.987272e+05
   1.254450e+06   3.877979e+05
   2.561349e+05   1.294608e+06
  -6.751802e+05   1.267986e+06
  -9.524687e+05   4.853992e+05
  -6.069598e+05  -2.267464e+05
  -1.127058e+05  -3.236548e+05
   8.944440e+04  -3.282569e+04
  -6.937206e+04   4.381980e+04
  -3.012483e+05  -3.283730e+05
  -2.529626e+05  -7.448875e+05
   1.609199e+05  -6.187347e+05
   6.295636e+05   1.269084e+05
   6.674950e+05   8.828889e+05
   8.526161e+04   9.344042e+05
  -7.008454e+05   2.019059e+05
  -9.443114e+05  -6.749997e+05
  -3.155823e+05  -9.905554e+05
   6.455162e+05  -6.087868e+05
   1.012512e+06   5.777045e+04
   4.859759e+05   5.296454e+05
  -2.443840e+05   6.002436e+05
  -3.163331e+05   3.445609e+05
   2.529302e+05   2.393488e+04
   6.035397e+05  -3.857105e+04
   1.311184e+05   2.732553e+05
  -7.517075e+05   6.404105e+05
  -1.134048e+06   5.429052e+05
  -6.827578e+05  -1.226156e+05
   7.577608e+04  -7.898088e+05
   4.686953e+05  -7.915899e+05
   3.560816e+05  -1.430918e+05
   3.830519e+04   4.473505e+05
  -2.147852e+05   3.877406e+05
  -3.204993e+05  -1.551808e+05
  -2.379512e+05  -5.275669e+05
   4.233961e+04  -3.698090e+05
   3.562386e+05   4.583673e+04
   4.383208e+05   2.320335e+05
   2.288626e+05   7.007183e+04
  -2.723606e+04  -1.149791e+05
  -8.823369e+04   7.297486e+02
  -2.218345e+04   3.305236e+05
  -7.745679e+04   4.660923e+05
  -2.921766e+05   1.572038e+05
  -3.865535e+05  -3.611862e+05
  -1.100084e+05  -5.845353e+05
   3.796059e+05  -2.798052e+05
   5.946268e+05   2.584188e+05
   2.267432e+05   5.298205e+05
  -4.535105e+05   3.423883e+05
  -7.959158e+05  -6.295115e+04
  -4.390833e+05  -3.389703e+05
   2.589770e+05  -3.549341e+05
   5.716065e+05  -1.995383e+05
   2.106820e+05  -2.256338e+04
  -3.371644e+05   4.104875e+04
  -3.777299e+05  -8.185778e+04
   1.762221e+05  -2.792679e+05
   7.138229e+05  -2.487884e+05
