
 $NMID
 id='ANONYMOUS ', fmtdat='(2E16.6)'
 volume=1.0
 tramp=1.0
 $END
  -1.972464e+07  -1.277362e+06
  -1.195279e+07  -1.060384e+07
   1.482884e+06  -1.236776e+07
   8.923284e+06  -6.931442e+06
   6.525826e+06   1.590641e+05
  -9.704660e+04   3.316954e+06
  -3.744734e+06   1.118584e+06
  -2.357821e+06  -3.177942e+06
   1.286971e+06  -4.788883e+06
   3.589946e+06  -1.876225e+06
   2.931483e+06   2.597326e+06
   2.486401e+05   3.925957e+06
  -1.877665e+06   8.131329e+05
  -1.369434e+06  -3.167141e+06
   1.243314e+06  -3.612750e+06
   3.136904e+06  -6.874229e+04
   2.088478e+06   3.876832e+06
  -1.182249e+06   4.674185e+06
  -3.842066e+06   2.096323e+06
  -3.819543e+06  -1.286678e+06
  -1.619883e+06  -2.931539e+06
   4.224770e+05  -2.399581e+06
   4.688917e+05  -1.245230e+06
  -1.002111e+06  -1.207189e+06
  -1.600115e+06  -2.358870e+06
   3.784194e+05  -3.046764e+06
   3.680155e+06  -1.839838e+06
   5.044510e+06   6.771508e+05
   2.811910e+06   2.456193e+06
  -9.754652e+05   2.173313e+06
  -2.715667e+06   4.035953e+05
  -1.152417e+06  -1.218934e+06
   1.576099e+06  -1.422952e+06
   2.630452e+06  -2.758781e+04
   1.383888e+06   1.925842e+06
  -5.264909e+05   2.676141e+06
  -1.314056e+06   1.286854e+06
  -6.794511e+05  -9.424482e+05
   3.163085e+05  -1.495370e+06
   4.784857e+05   3.111904e+05
  -4.038037e+05   2.137758e+06
  -1.369869e+06   1.452586e+06
  -1.209106e+06  -1.060521e+06
   2.347694e+05  -2.236632e+06
   1.682242e+06  -4.843524e+05
   1.540342e+06   2.222581e+06
  -4.620386e+05   2.853476e+06
  -2.782861e+06   8.032846e+05
  -3.329960e+06  -1.838042e+06
  -1.403349e+06  -2.817826e+06
   1.495428e+06  -1.716584e+06
   2.911183e+06   2.168022e+05
   1.743254e+06   1.400263e+06
  -6.571153e+05   1.100941e+06
  -1.887043e+06  -1.101133e+05
  -1.004876e+06  -9.195086e+05
   6.200485e+05  -5.696270e+05
   1.048980e+06   3.779426e+05
  -1.737387e+03   7.670557e+05
  -1.020948e+06   1.961833e+05
  -6.074031e+05  -6.478929e+05
   9.204187e+05  -8.505421e+05
   1.912293e+06  -9.031332e+04
   1.129432e+06   1.254556e+06
  -1.029721e+06   2.321998e+06
  -2.913118e+06   2.137543e+06
  -3.129283e+06   4.007696e+05
  -1.757546e+06  -1.875954e+06
  -1.260932e+05  -3.037621e+06
   5.901501e+05  -2.466867e+06
   4.593124e+05  -1.234338e+06
   4.240736e+05  -7.016856e+05
   1.031292e+06  -8.426126e+05
   1.805527e+06  -5.204416e+05
   1.867715e+06   7.300224e+05
   9.050530e+05   1.886903e+06
  -5.353543e+05   1.640964e+06
  -1.480950e+06  -4.666574e+02
  -1.204882e+06  -1.640891e+06
   2.074987e+05  -1.886453e+06
   1.739886e+06  -6.077067e+05
   2.152333e+06   1.089075e+06
   1.146657e+06   1.955754e+06
  -2.741417e+05   1.665786e+06
  -9.064934e+05   9.098072e+05
  -7.210936e+05   5.248794e+05
  -7.628292e+05   6.042350e+05
  -1.639234e+06   5.168078e+05
  -2.542698e+06  -2.761105e+05
  -2.113957e+06  -1.563614e+06
  -1.218337e+05  -2.521375e+06
   2.061700e+06  -2.388544e+06
   2.751110e+06  -1.087725e+06
   1.583515e+06   6.020737e+05
  -1.890035e+05   1.511281e+06
  -9.690532e+05   1.046086e+06
  -3.172804e+05  -1.503274e+05
   7.872927e+05  -7.520584e+05
   1.098744e+06  -1.852349e+05
   3.937172e+05   7.027519e+05
  -4.395072e+05   7.023000e+05
  -4.685921e+05  -1.959839e+05
   3.181575e+05  -7.346700e+05
   1.092742e+06   5.190329e+04
   1.013772e+06   1.597396e+06
  -8.228504e+04   2.371859e+06
  -1.566608e+06   1.510147e+06
  -2.417455e+06  -3.526879e+05
  -1.948475e+06  -1.782119e+06
  -4.593029e+05  -1.880070e+06
   8.757378e+05  -9.568542e+05
   1.063197e+06  -6.869549e+04
   3.094888e+05   3.046618e+04
  -2.314057e+05  -4.646432e+05
   1.870982e+05  -7.485667e+05
   1.034954e+06  -3.377606e+05
   1.184501e+06   4.168088e+05
   3.064702e+05   7.673985e+05
  -6.935588e+05   4.011335e+05
  -6.814822e+05  -2.633236e+05
   4.302061e+05  -5.306578e+05
   1.530339e+06  -6.944344e+04
   1.416733e+06   8.234893e+05
   2.234588e+04   1.443552e+06
  -1.473006e+06   1.215717e+06
  -1.776857e+06   2.286425e+05
  -7.423213e+05  -7.212099e+05
   5.303736e+05  -8.168953e+05
   8.381633e+05  -7.704125e+04
   4.201166e+04   6.069838e+05
  -9.256904e+05   4.312766e+05
  -1.087560e+06  -4.212669e+05
  -3.398140e+05  -1.013514e+06
   5.699723e+05  -7.377756e+05
   8.191968e+05   3.427379e+04
   2.680589e+05   4.318991e+05
  -4.252294e+05   5.533763e+04
  -4.303344e+05  -6.444237e+05
   3.985334e+05  -8.763260e+05
   1.279821e+06  -2.952345e+05
   1.256683e+06   6.869211e+05
   2.376542e+05   1.282569e+06
  -8.548435e+05   1.026926e+06
  -1.059117e+06   1.822838e+05
  -3.659682e+05  -5.142317e+05
   3.840893e+05  -5.383618e+05
   4.749429e+05  -4.378706e+04
  -3.369854e+03   3.604560e+05
  -4.110585e+05   2.803136e+05
  -3.007983e+05  -6.454471e+04
   1.575504e+05  -1.371714e+05
   3.859028e+05   2.627027e+05
  -1.706144e+04   7.156715e+05
  -8.261892e+05   5.974795e+05
  -1.312320e+06  -2.351971e+05
  -9.197523e+05  -1.216237e+06
   1.349378e+05  -1.561242e+06
   1.032353e+06  -9.978382e+05
   1.166945e+06  -7.644580e+03
   7.034845e+05   6.494391e+05
   2.651465e+05   6.389067e+05
   1.919327e+05   2.878072e+05
   2.507551e+05   1.520008e+05
   3.454401e+04   3.893597e+05
  -5.016879e+05   5.979659e+05
  -9.407599e+05   2.939094e+05
  -7.797709e+05  -4.725832e+05
   7.384308e+04  -1.045405e+06
   1.097882e+06  -7.771050e+05
   1.478339e+06   2.725280e+05
   7.956099e+05   1.303159e+06
  -5.254086e+05   1.489304e+06
  -1.522861e+06   7.351351e+05
  -1.542868e+06  -2.891775e+05
  -7.785071e+05  -8.322590e+05
   2.819828e+04  -7.401191e+05
   3.401349e+05  -4.649895e+05
   2.365625e+05  -4.734279e+05
   1.639065e+05  -7.199654e+05
   3.983201e+05  -7.293098e+05
   7.640044e+05  -1.706188e+05
   8.229484e+05   7.003243e+05
   3.387862e+05   1.213314e+06
  -4.131383e+05   9.151249e+05
  -8.289161e+05   2.325948e+04
  -5.471006e+05  -7.587464e+05
   1.581096e+05  -8.731888e+05
   6.285023e+05  -3.592685e+05
   4.940389e+05   2.791064e+05
   3.084631e+04   5.853480e+05
  -1.961248e+05   5.093611e+05
   7.527529e+03   3.189977e+05
   2.507842e+05   2.456920e+05
   2.222007e+04   2.573969e+05
  -6.784251e+05   1.510270e+05
  -1.240201e+06  -1.830695e+05
  -1.025078e+06  -6.087585e+05
  -6.057935e+04  -8.410642e+05
   9.080277e+05  -6.902504e+05
   1.123129e+06  -2.392136e+05
   5.563075e+05   1.946315e+05
  -1.216657e+05   3.041260e+05
  -2.907942e+05   6.845827e+04
   1.976545e+04  -1.983655e+05
   3.198011e+05  -1.445750e+05
   2.914551e+05   2.206339e+05
   7.511015e+04   4.891813e+05
  -2.070478e+04   3.151009e+05
   9.356840e+04  -1.210499e+05
   2.410727e+05  -2.650122e+05
   1.931740e+05   1.364844e+05
  -1.302277e+05   6.607076e+05
  -5.700127e+05   6.632480e+05
  -7.703128e+05   4.859828e+04
  -4.413693e+05  -5.922366e+05
   2.701715e+05  -6.449922e+05
   7.477734e+05  -1.272885e+05
   4.546614e+05   3.946305e+05
  -4.247580e+05   4.291146e+05
  -1.049072e+06  -1.136227e+04
  -7.557742e+05  -5.223484e+05
   2.208342e+05  -6.989252e+05
   9.751883e+05  -4.286256e+05
   8.638205e+05   5.458993e+04
   1.313588e+05   3.474145e+05
  -4.040534e+05   2.125481e+05
  -2.169859e+05  -1.637493e+05
   4.178962e+05  -2.945154e+05
   7.531314e+05   1.184262e+05
   3.519011e+05   7.955590e+05
  -4.756045e+05   1.062269e+06
  -1.001762e+06   5.080751e+05
  -8.020216e+05  -5.243409e+05
  -1.129503e+05  -1.175691e+06
   4.818349e+05  -8.776850e+05
   6.106407e+05   6.388479e+04
   3.300518e+05   7.623076e+05
  -7.376843e+04   6.631125e+05
  -3.421969e+05   8.183978e+04
  -3.519845e+05  -2.553799e+05
  -1.622120e+05  -1.053257e+05
  -9.622657e+03   7.776480e+04
  -9.843069e+04  -1.572733e+05
  -2.957365e+05  -6.119236e+05
  -1.877612e+05  -7.083901e+05
   3.863005e+05  -2.622770e+05
   9.647085e+05   3.076302e+05
   8.895226e+05   5.430290e+05
   1.248909e+05   4.389488e+05
  -6.089112e+05   2.643508e+05
  -6.575396e+05   1.363861e+05
  -1.856639e+05  -4.905307e+03
   1.169472e+05  -1.402155e+05
  -4.174865e+04  -1.614615e+05
  -2.412052e+05  -9.632141e+04
  -5.871314e+03  -9.225034e+04
   5.034991e+05  -1.255712e+05
   6.687373e+05   3.681960e+04
   1.741083e+05   4.441731e+05
  -6.197238e+05   7.155202e+05
  -1.060975e+06   4.214005e+05
  -8.259132e+05  -3.332433e+05
  -1.387867e+05  -9.230959e+05
   4.911416e+05  -8.579670e+05
   6.835488e+05  -2.926903e+05
   4.326503e+05   1.926204e+05
   5.464669e+04   2.332522e+05
  -1.048362e+05   6.452632e+03
   2.918496e+04  -5.345207e+04
   2.201003e+05   2.190397e+05
   1.779100e+05   5.227819e+05
  -1.367747e+05   4.235355e+05
  -4.535255e+05  -1.279433e+05
  -4.310822e+05  -6.662461e+05
   6.392700e+03  -6.634295e+05
   5.291657e+05  -9.377401e+04
   6.425001e+05   5.328281e+05
   1.724010e+05   7.054109e+05
  -4.797116e+05   3.846013e+05
  -6.916456e+05  -7.964205e+04
  -2.995214e+05  -3.614142e+05
   1.913436e+05  -3.792254e+05
   2.001196e+05  -2.176641e+05
  -2.147245e+05  -2.679519e+04
  -4.342841e+05   1.020341e+04
  -7.176608e+04  -1.906307e+05
   5.396364e+05  -4.363029e+05
   7.695200e+05  -3.730597e+05
   4.330260e+05   8.293063e+04
  -7.804710e+04   5.380979e+05
  -3.193786e+05   5.211281e+05
  -2.242669e+05   5.751140e+04
  -1.652642e+03  -3.334778e+05
   1.710458e+05  -2.492687e+05
   2.310063e+05   1.468869e+05
   1.495616e+05   3.776413e+05
  -5.449359e+04   2.314679e+05
  -2.506851e+05  -5.488659e+04
  -2.845675e+05  -1.538923e+05
  -1.530345e+05  -3.481547e+04
  -6.134396e+03   6.071507e+04
   4.777534e+04  -4.952447e+04
   6.208186e+04  -2.629389e+05
   1.371056e+05  -3.062398e+05
   2.436987e+05  -5.041286e+04
   2.297341e+05   3.113314e+05
   7.752389e+03   4.320405e+05
  -2.931274e+05   1.752092e+05
  -3.945543e+05  -2.225071e+05
  -1.328413e+05  -3.940201e+05
   3.178704e+05  -2.214396e+05
   5.409524e+05   8.332046e+04
   2.898257e+05   2.518133e+05
  -1.967727e+05   2.181507e+05
  -4.046150e+05   9.358283e+04
  -1.242719e+05  -1.291603e+03
   2.793309e+05  -3.580353e+03
   2.857791e+05   9.921262e+04
  -1.537944e+05   2.201809e+05
  -5.540858e+05   1.672862e+05
