
 $NMID
 id='ANONYMOUS ', fmtdat='(2E16.6)'
 volume=1.0
 tramp=1.0
 $END
  -8.486481e+02  -6.161396e+02
  -5.273786e+02  -3.341485e+02
   9.609283e+01  -5.661759e+02
   3.154147e+02  -4.957467e+02
   2.618944e+02  -1.863293e+02
   7.757322e+01  -4.910874e+01
  -6.871014e+01  -1.667399e+02
  -4.913961e+01  -9.540952e+01
   1.225618e+02  -8.192335e+01
   1.119619e+02   1.003442e+01
   2.608605e+01   2.203719e+02
  -1.290190e+01   1.760225e+02
  -7.624838e+01   3.738469e+01
  -1.818319e+01  -4.594809e+01
  -2.744793e+01  -9.046440e+01
   1.753123e+02  -1.296769e+01
   9.117076e+01   1.627277e+02
   3.810849e+01   1.882666e+02
  -8.656000e+01   1.201617e+02
  -1.067795e+02  -5.150759e+01
  -1.498801e+01  -1.635999e+02
   1.751593e+01  -6.736463e+01
  -2.317155e+01   1.069601e+01
  -9.581253e+01  -3.291938e+01
  -5.322572e+01  -8.988857e+01
   5.837105e+01  -7.957435e+01
   7.078209e+01   6.851012e+01
   1.683511e+02   2.013434e+01
  -1.498609e+01   1.674642e+02
  -7.205451e+01   2.016768e+01
  -1.879203e+02  -5.703496e+01
   5.046515e+01  -1.010529e+02
   6.171216e+01  -5.855386e+01
   1.361838e+02   4.578252e+01
   5.262324e+01   3.303134e+01
  -3.703367e+01   6.963107e+01
   3.029897e+01   4.619622e+01
   1.066329e+01  -8.579048e+00
   9.391168e+01  -7.584903e+00
   6.419517e+01   1.097384e+02
  -9.633768e+01   1.032361e+02
  -5.064979e+01   6.462338e+01
  -1.638017e+01  -2.938773e+01
  -2.636297e+01  -5.004296e+01
   2.459241e+01  -4.283446e+01
   2.794466e+01   5.131094e+01
  -5.640539e+01   1.181882e+02
  -1.314101e+02  -6.269159e+01
  -1.058913e+02  -7.788077e+01
   1.969450e+01  -1.736551e+02
   2.985794e+01  -5.142959e+01
   1.580660e+02   4.353605e+01
   5.411507e+01   9.312460e+01
   1.118813e+01  -1.994190e+01
  -7.569613e+01   1.302860e+00
  -4.215426e+01   1.779488e+01
  -2.864273e+01  -4.333009e+01
   7.100867e+00  -5.600439e+01
  -3.385404e+01  -1.380588e+00
  -3.222603e+01  -5.337178e+01
  -4.350159e+01  -3.005145e+01
   5.526776e+01  -7.734692e+01
   1.259963e+02  -3.014275e+01
   8.806767e+01   4.231395e+01
   3.028572e+01   1.242396e+02
  -1.257703e+02   9.339758e+01
  -1.393024e+02   2.319883e+01
  -7.875541e+01  -3.597081e+01
  -7.521380e+00  -9.025432e+01
  -5.419575e+00  -8.479025e+01
   2.494537e+01  -1.038619e+02
  -1.246150e+01  -5.335270e+01
   3.225871e+01  -1.291937e+01
   9.388665e+01   1.054213e+00
   7.134875e+01   5.811397e+01
   1.465045e+01   9.651542e+01
  -1.820115e+01   2.478834e+01
  -4.516771e+01  -3.612652e+01
   1.292998e+01  -6.873299e+01
   3.518061e+01  -8.363608e+01
   6.610666e+01  -1.345620e+01
   6.698046e+01   8.470076e+01
   3.081350e+01   4.741631e+01
  -1.411678e+01   3.740574e+01
  -3.540865e+01   7.591603e+01
  -4.351451e+01   2.186454e+01
  -5.562456e+01   4.916260e+01
  -7.918220e+01   1.865500e+01
  -1.083291e+02  -6.372231e+01
  -8.881899e+01  -8.498539e+01
   1.193710e+01  -8.361327e+01
   1.055987e+02  -1.110067e+02
   1.526121e+02  -2.707909e+01
   6.219701e+01   1.703369e+01
  -3.023319e+01   4.285982e+01
  -1.044456e+01   5.789232e+01
  -2.201074e+00   2.008028e+01
   5.219966e+01   3.947121e+01
  -1.100409e+01   4.284353e+01
   8.158958e-01   1.926927e+01
  -1.536096e+01   1.558003e+01
   4.885061e+00  -1.580493e+01
   1.968875e+01  -5.566513e+01
   5.220862e+01  -1.891406e+00
   7.935139e+00   7.328644e+01
  -4.998744e+01   9.540911e+01
  -5.132045e+01   7.407031e+01
  -8.506774e+01  -5.464256e+01
  -8.405358e+01  -8.960891e+01
  -1.938226e+01  -8.558092e+01
   3.965828e+01  -6.284024e+01
   4.676412e+01   1.189207e+01
  -5.220453e+00   3.789663e-01
  -1.770802e+01   1.201347e+01
   2.071910e+01  -1.316654e+01
   4.808505e+01   6.608049e+00
   2.850104e+01   6.970138e+00
  -2.142500e+01  -1.956989e+01
  -2.544873e+01  -4.645664e-01
  -1.129482e+00  -5.450918e+01
   3.751094e+01   1.644953e+00
   1.194819e+02   1.563051e+01
   6.204630e+01   5.575754e+01
  -2.411237e+01   6.284518e+01
  -1.065489e+02   5.091977e+01
  -9.721933e+01   2.000871e+01
   4.986781e+00  -1.053353e+01
  -2.059086e+01  -1.459430e+01
   1.591588e+01   1.944605e+01
  -1.817370e+01   2.920205e+01
  -7.084885e+01  -2.473223e+01
  -6.178685e+01  -3.805638e+01
  -3.860969e+01  -6.594376e+01
   3.521766e+01  -1.751069e+01
   3.974090e+01   1.519947e+01
  -5.086076e-01   3.708450e+01
   5.796359e+00   8.664733e+00
  -2.303815e+00  -5.084518e+01
   6.759008e+01  -1.432363e+01
   8.940066e+01  -6.198520e+00
   3.802925e+01   4.849556e+01
  -2.144156e+01   1.957551e+01
  -6.238491e+01   2.402084e+01
  -5.455247e+01  -1.043937e+01
   9.823551e+00  -3.238181e+01
   1.564845e+01  -7.359940e+00
   2.662835e+01  -1.555408e+01
  -4.068272e+00   3.701178e+01
  -1.828613e+01   1.847145e+01
  -3.297055e+00  -5.820349e+00
  -2.403860e+00  -2.532113e+01
   1.216522e+01   4.902780e+01
  -1.208497e+01   5.621525e+01
  -5.698755e+01   2.753767e+01
  -2.928561e+01  -1.372015e+01
  -6.279111e+01  -5.127411e+01
   5.695965e+00  -8.903635e+01
  -1.822831e+00  -6.750608e+01
   2.974679e+01   2.275787e+01
   3.057561e+01   3.129407e+01
   4.971344e+00   1.752645e+01
   2.725947e+01  -4.399273e+00
  -2.943672e+00   3.960128e+00
   3.825258e+01  -1.434862e+01
  -7.405917e+00   4.474443e+01
  -6.360271e+01  -1.744946e+00
  -5.235746e+01  -4.074878e+01
   2.099236e+01  -2.863960e+01
   3.815986e+01  -2.558902e+01
   5.372183e+01   8.255407e+00
  -2.884720e+00   6.543616e+01
  -3.341528e+01   5.871408e+01
  -1.073328e+02   3.667518e+01
  -8.315439e+01  -8.831615e+01
  -8.114833e+00  -5.111805e+01
   3.685117e+01  -3.899532e+01
   3.334958e+01  -3.443294e+01
  -1.572647e+01  -1.272555e+01
   2.892203e+01  -8.193731e+00
   5.332413e+01  -1.746367e+01
   6.349129e+01   9.193569e+00
   1.302805e+01   6.035542e+01
   4.087362e+00   6.228680e+01
  -2.319907e+01   7.122735e+01
  -4.891258e+01  -1.827309e+01
  -2.872202e+01  -3.019787e+01
   2.782821e+01  -4.154840e+01
   2.669095e+01  -3.705929e+01
   3.005551e+01   3.122153e+01
   1.985285e+01   5.471431e+00
  -1.633973e+01   6.411616e+00
   9.498628e+00   1.492809e+01
   7.449250e+00   9.032202e+00
   2.467622e+01   1.314810e+01
  -1.488068e+01   2.761225e+01
  -8.184437e+01  -5.495975e+00
  -7.713831e+01  -5.078209e+01
   1.944236e+01  -3.721504e+01
   4.895641e+01   8.304035e+00
   3.307797e+01   2.905515e+01
   2.720883e+01   2.116579e+01
   6.601657e+00   3.191855e+01
  -3.312660e+01  -8.172750e+00
   8.846200e+00  -3.229009e+01
  -1.162874e+01   9.296677e+00
   3.505025e+01   1.428480e+01
  -9.278785e+00   3.246655e+01
  -1.036027e-01   1.964578e+01
   2.237347e+01   4.396303e+00
  -2.324167e+01   3.341460e+00
   2.150200e+01   4.354596e+01
  -3.797469e+00   2.318370e+01
  -5.919703e+01   3.614402e+01
  -5.563825e+01  -2.231709e+00
  -3.994941e+01  -4.659464e+01
   2.094972e+00  -4.159301e+01
   4.169494e+01  -2.654659e+01
   5.202687e+00   1.825922e+01
  -1.063417e+01   6.043902e+00
  -1.991495e+01  -5.470199e+00
  -3.722083e+01  -1.979087e+00
   2.385562e+01   6.783783e+00
   8.367858e+01   3.027725e+00
   4.729695e+01   2.823230e+01
   9.061103e+00   5.221118e+01
  -2.402941e+01  -3.815294e+00
  -1.224383e+01  -6.849370e+00
   1.721276e+01  -2.711930e+01
   1.205836e+01   3.112115e+01
   5.678072e-01  -9.328716e+00
  -2.573291e+01   4.370680e+01
  -1.982503e+01  -2.511762e+01
  -2.689303e+01  -6.257669e+01
  -1.920037e-02  -5.189350e+01
   9.139726e+00  -4.817275e+01
   2.044554e+01  -2.456944e+01
  -2.528094e+01   2.452549e+01
  -1.896082e+01   8.116829e+00
  -2.440271e+01   2.048105e+00
  -1.870573e+01  -2.847513e+00
  -2.741556e+01  -4.670615e+01
   1.671228e+00   1.551227e+01
   1.310952e+01  -1.974804e+01
  -2.325222e+01  -4.466073e+01
  -1.018968e+01  -1.152648e+01
   1.187005e+01  -1.543444e-01
   3.772723e+01   4.989233e+01
   3.143368e+01   5.821061e+01
  -2.350423e+00   7.696489e+00
  -2.259249e+01  -7.363218e-01
  -4.839243e+00  -2.004165e+01
  -1.975404e+01  -1.003116e+01
   1.336013e+01   1.134153e+01
   1.493043e+01  -1.576101e+01
   1.811512e+01  -1.301277e+01
  -2.779514e+01   3.135782e+00
   2.305731e+01   2.528370e+01
   6.026953e+01  -9.070050e-01
   2.030047e+01   3.671385e+01
  -2.894100e+01   2.936759e+01
  -8.130245e+01   7.306429e+00
  -6.170692e+01   2.753091e+00
  -1.907698e+01  -4.819115e+01
   3.011246e+01  -5.327872e+01
   2.912895e+01  -1.205588e+01
   4.795524e+01  -1.925716e+00
  -8.574512e+00  -1.613665e+01
  -2.831936e+01   3.230430e+00
  -1.678659e+01  -1.054439e+01
   2.750547e+00   1.876087e+01
  -1.817598e+01   1.706200e+01
  -2.265404e+01   3.083003e+01
  -8.477430e+00  -1.292383e+01
  -9.524029e+00   3.718926e+00
  -1.362923e+01  -2.155675e+01
   2.929872e+01  -1.721258e+01
   8.181405e+00   2.602111e+01
   2.282922e+01   1.383348e+01
  -3.116122e+00   1.887851e+01
  -4.852148e+01  -1.703208e+01
  -2.411585e+00  -6.647318e+00
   3.540318e+01  -4.046378e+01
   2.370015e+01   9.846565e+00
  -4.476007e+00  -2.524612e+01
   2.672133e+01  -1.713472e+01
  -1.991682e+01   2.709382e+00
   2.382958e+01  -2.930042e+01
   3.641043e+01  -2.096148e-01
   5.960443e+01   9.999986e+00
  -1.486501e+01   3.695664e+01
  -1.857799e+01   3.927723e+01
   1.394410e+00   1.615380e+01
   1.139215e+01  -3.067000e+01
   1.344280e+01  -1.712172e+01
   1.668366e+01  -2.760798e+01
  -1.898970e+01   4.344615e+01
  -4.142827e+00   3.488535e+00
  -1.349761e+01  -1.951369e+01
  -1.540919e+01  -1.867286e+01
  -9.461268e+00   5.813305e+00
  -2.412414e+01  -1.585946e+00
   4.421150e+00   3.488050e+00
  -2.740119e+01  -6.588742e-01
  -2.960846e+00   6.194603e+00
   2.307062e+01  -2.451537e+00
  -3.139671e-01  -7.284873e+00
  -1.238154e+01   3.346878e+01
  -2.231805e+01   1.788458e+01
  -6.424741e+00  -2.058816e+01
  -2.554097e+00  -2.316883e+01
   2.081449e+01  -3.899297e+01
   2.847624e+01   1.373809e+01
   2.228669e+01   3.105444e+01
  -2.871100e+01   2.939022e+01
  -9.365990e+00   2.056886e+01
  -2.999066e+01  -1.569227e+01
   1.040693e+01  -2.353288e+01
   5.133764e+00   2.205643e+01
  -9.882607e+00  -3.899468e+01
  -3.000534e+01   1.447174e+01
