
 $NMID
 id='ANONYMOUS ', fmtdat='(2E16.6)'
 volume=1.0
 tramp=1.0
 $END
   1.075431e+03   8.020747e+02
   6.749489e+02   6.147200e+02
  -3.412442e+00   8.332257e+02
  -4.874472e+02   7.723043e+02
  -4.697296e+02   1.952609e+02
  -2.366166e+01   1.547188e+02
  -7.406789e+01   1.740245e+00
   9.126601e+01   1.191557e+02
  -2.287830e+02   1.788705e+02
  -2.071155e+02   1.567676e+01
  -6.415858e+01  -3.109165e+02
   5.745719e+01  -2.484790e+02
   1.054716e+02   1.929100e+01
   8.544883e+01   1.351813e+02
  -2.729161e+01   9.928433e+01
  -1.683739e+02   4.893362e+01
  -2.002432e+02  -1.966638e+02
   3.965772e+01  -3.565569e+02
   2.123203e+02  -1.357783e+02
   1.876297e+02   9.559987e+01
   5.423641e+01   2.365855e+02
  -7.750925e+01   1.218750e+02
   2.706256e+00   5.414642e+01
   1.523478e+02   1.279907e+02
   5.801080e+01   1.543443e+02
  -8.797456e+01   1.603033e+02
  -1.207353e+02  -3.372348e+01
  -2.168233e+02  -1.146047e+02
   5.588293e-01  -2.152304e+02
   1.079850e+02  -1.858094e-01
   2.325566e+02   1.251100e+02
  -3.509324e+01   1.828573e+02
  -1.300182e+02   1.120951e+02
  -1.806618e+02  -2.104278e+01
  -9.915252e+01  -1.101313e+02
  -1.624034e+01  -1.521709e+02
   1.810768e+01  -8.426756e+01
  -1.350948e+01   9.393927e-02
  -7.876661e+01  -7.672861e-01
  -1.130880e+02  -1.444152e+02
   7.845445e+01  -1.732638e+02
   6.733053e+01  -7.061624e+01
   6.570226e+01   2.163425e+01
   7.723908e+01   1.098467e+02
  -3.136419e+01   6.503079e+01
  -2.907890e+01  -9.948081e+01
   8.888627e+01  -8.615661e+01
   1.735751e+02   2.625969e+01
   2.224792e+02   1.027834e+02
   5.024141e+01   2.367226e+02
  -1.345039e+02   3.270495e+01
  -2.073092e+02  -6.062938e+01
  -7.649032e+01  -1.680941e+02
  -9.934283e+00  -1.279411e+01
   9.730498e+01  -3.758609e+01
   9.523410e+01  -3.232383e+01
   5.363998e+01  -2.518085e+00
  -1.061609e+01   2.203899e+01
   4.045098e+01  -7.720124e+00
   8.610683e+01   4.703027e+01
   2.063178e+01   6.534278e+01
  -6.437275e+01   1.129992e+02
  -1.684939e+02   1.633838e+01
  -1.248570e+02  -9.576209e+01
  -1.097005e+01  -1.719522e+02
   1.916796e+02  -1.500541e+02
   1.876714e+02  -1.208072e+01
   9.353361e+01   4.877886e+01
  -1.855435e+01   1.315321e+02
  -1.226659e+01   1.065806e+02
  -3.455967e+01   9.789759e+01
  -2.521962e+01   7.018525e+01
  -5.685038e+01   2.995766e+01
  -1.305407e+02   7.056811e+00
  -1.029909e+02  -9.772777e+01
  -2.262996e+01  -1.157118e+02
   5.003632e+01  -9.803200e+01
   9.671686e+01   4.104697e+01
   4.102771e+01   1.353581e+02
  -1.165415e+01   1.490661e+02
  -1.237638e+02   1.537538e+01
  -6.509442e+01  -8.448912e+01
  -3.358416e+01  -1.103712e+02
   1.707382e+01  -6.236357e+01
   9.427452e+01  -9.624245e+01
   4.587323e+01  -5.778161e+01
   7.031737e+01  -6.955953e+01
   1.300328e+02   1.865165e+01
   1.663492e+02   8.440370e+01
   9.720894e+01   1.135255e+02
  -5.359890e+01   1.728279e+02
  -1.705519e+02   1.771114e+02
  -1.843690e+02  -1.205534e+00
  -1.338274e+02  -4.698945e+01
   5.768905e+00  -1.485598e+02
   5.438654e+01  -7.680565e+01
   1.171966e+01  -2.775863e+01
  -7.985953e+01  -1.756450e+01
   1.197493e+01  -5.787592e+01
   1.006760e+01  -4.632496e+01
   7.818864e+01  -2.252255e+01
   1.498874e+00   5.316847e+01
  -2.263557e+01   5.333235e+01
  -4.470472e+01  -2.281286e+01
  -3.735729e+01  -1.190273e+02
   6.284035e+01  -1.681293e+02
   8.720476e+01  -1.066008e+02
   1.585904e+02   8.702063e+01
   1.030766e+02   1.660220e+02
  -6.000013e-01   1.180505e+02
  -7.254813e+01   6.423101e+01
  -8.886502e+01  -8.740716e+00
  -1.141210e+01   3.031005e+01
  -1.173311e+00   2.525315e+01
  -3.601569e+01   5.004025e+01
  -8.473980e+01   1.146247e+00
  -4.025881e+01  -1.848520e+01
   3.554340e+01   3.460462e+00
   3.510128e+01   9.227935e+00
  -1.607508e+01   5.008565e+01
  -6.169733e+01   6.801981e+00
  -1.346228e+02  -4.024014e+01
  -1.081875e+02  -1.084085e+02
   1.655132e+01  -1.118759e+02
   1.415410e+02  -9.704208e+01
   1.396336e+02  -2.063768e+01
   3.961869e+01   3.773262e+01
  -3.166217e+01   4.074540e+01
  -3.008840e+00  -2.336015e+01
   2.214275e+01  -4.437836e+01
   1.423054e+02   1.827944e+01
   6.979216e+01   4.097280e+01
   5.995338e+00   1.320610e+02
  -4.046410e+01   3.322258e+01
  -5.437365e+01  -3.330861e+01
  -2.776971e+01  -4.531723e+01
   2.472094e+01   4.522532e+00
  -7.703710e-01   4.255247e+01
  -6.005860e+01   3.833006e+01
  -1.395804e+02  -1.067637e+01
  -6.553337e+01  -6.007756e+01
   8.487554e+00  -6.879094e+01
   7.484985e+01  -3.863922e+01
   1.041628e+02   1.421917e+01
   5.308303e+01   1.359522e+01
  -3.610034e+01  -2.637760e+01
  -3.111153e+01   9.644574e+00
   1.181051e+01   1.044306e+01
   4.193855e+01  -1.364663e+01
  -2.981332e+00   2.219336e+01
  -2.378895e+01  -1.280950e+01
  -6.160263e+01  -1.418877e+01
   2.385630e+01  -9.120863e+01
   8.170041e+01  -1.051114e+01
   8.951630e+01   7.079190e+01
   7.377720e+01   7.924106e+01
  -5.659789e+01   1.341249e+02
  -2.806728e+01   4.781322e+01
  -5.674324e+01   1.311074e+00
  -4.298098e+01  -5.606639e+01
  -2.628554e+01  -8.067582e+00
  -2.126878e+00   1.116917e+00
  -5.822567e+01   7.002164e+00
  -2.817806e+01  -3.361269e+01
   1.791834e+01  -4.271677e+01
   7.374567e+01  -3.848948e+01
   2.838867e+01   3.869574e+01
  -1.037482e+01   7.486720e+01
  -8.082299e+01   3.264133e+01
  -9.752526e+01  -2.507023e+01
  -1.500811e+01  -1.348635e+02
   5.333089e+01  -9.948833e+01
   1.418733e+02  -2.155376e+01
   1.301272e+02   7.411704e+01
   2.654488e+01   8.312662e+01
  -1.588319e+01   9.441835e+01
  -3.546517e+01   4.822154e+01
  -2.606766e+01   2.127427e+01
  -3.631320e+01   5.226729e+01
  -5.660117e+01   1.135321e+01
  -5.114476e+01   1.270201e+01
  -4.512342e+01  -7.981814e+01
  -9.086777e-01  -1.181771e+02
   3.073414e+01  -8.009156e+01
   8.464332e+01   3.064993e+00
   4.520414e+01   6.951141e+01
  -3.987283e+01   4.738614e+01
  -2.563541e+01   5.954546e+01
  -4.462197e+01  -1.969357e+01
   1.435173e+01  -1.376779e+01
   2.772212e+01  -3.889093e+01
  -1.354201e+01  -4.857869e+00
  -2.101186e+01  -3.537467e+01
  -4.042369e+01  -4.268693e+01
   8.868498e+00  -1.428514e+01
   1.052973e+02   1.655123e+01
   7.709953e+01   5.951923e+01
  -6.081888e+00   7.262537e+01
  -7.219749e+01   3.249658e+01
  -8.149314e+01  -1.738770e+01
  -2.328544e+01  -3.879025e+01
   3.264676e+01  -1.904376e+01
   3.569764e+01   4.154739e+01
  -1.586999e+01   7.152179e+00
   1.387285e+01  -2.813559e+01
  -3.055783e+01   9.705393e+00
  -1.666313e+01  -1.872402e+01
  -2.602896e+01  -1.407513e+01
  -3.650717e+00  -6.258502e+00
  -6.908247e+00  -2.952986e+00
  -3.018343e+01  -4.186634e+01
   2.622333e+01  -6.455251e+01
   3.879540e+01  -7.912889e+01
   9.370011e+01  -3.757796e+01
   5.593415e+01   7.155685e+00
  -8.203380e+00   2.776589e+01
  -4.004537e+01   3.546688e+01
  -2.839396e+01  -4.242659e+00
   1.624380e+01  -4.686561e+00
   2.244740e+01   1.293125e+01
   4.761878e+01   6.929365e+01
  -5.552232e+01   2.469954e+01
  -9.978715e+01   1.669202e+01
  -7.081658e+01  -2.488595e+01
   1.521238e+01  -2.777156e+01
   3.560171e+01  -4.512808e+01
   3.128437e+01  -8.412208e+00
  -1.745402e+01   1.167179e+01
  -8.712145e-01  -1.317306e+01
   2.472021e-01  -6.312706e+01
   5.379155e+01  -5.254253e+01
   6.611548e+01  -5.656951e+00
   6.855315e+01   6.300139e+01
   1.945291e+01   8.408080e+01
  -3.371435e+01   8.247711e+01
  -4.671264e+01  -2.746319e+01
  -8.142999e+00  -8.684199e+01
  -9.516282e+00  -5.330383e+01
   2.215429e+01  -1.369669e+01
   1.082002e+01   3.083256e+01
   4.072277e+00  -3.679073e+01
  -1.150673e+01  -3.194235e+00
  -3.850593e+00  -3.070872e+00
   2.864891e+01   3.648476e+01
  -1.917389e+01   3.336932e+01
  -5.493628e+01   2.139003e+01
  -5.576505e+01  -3.635978e+01
  -4.199421e+01  -4.258421e+01
   4.621921e+00  -1.972496e+01
   5.075970e+01   2.788023e+01
   5.212749e+01  -1.692929e+01
   2.172143e+01   7.869562e+00
  -5.076113e+01   2.283748e+01
  -5.201957e+01  -3.861467e+01
   3.252724e+01   2.242642e+01
  -7.923927e+00  -3.247215e+01
  -2.965705e+01  -8.459135e+00
  -2.925126e+01   3.242138e-01
   2.318209e+00  -4.194092e+01
   3.704663e+01  -3.394935e+01
   1.243697e+02  -1.990166e+01
   9.067912e+01   2.721018e+01
   9.893187e+00   6.380259e+01
  -2.529173e+01   6.597089e+01
  -4.835394e+01   8.622431e+00
  -5.235777e+01  -1.014433e+01
   1.776568e+01  -2.956751e+01
   3.336242e+01  -1.566559e+01
  -5.713113e+00  -1.280257e+01
   2.733548e+00  -5.584242e+01
  -2.450452e+00  -4.652130e+01
   2.475346e+01  -4.048885e+01
   2.875726e+01  -1.131604e+00
   2.962975e+01   4.635784e+01
  -5.687760e+00   5.136774e+01
  -3.931335e+01   2.647095e+01
  -2.336236e+01  -4.468236e+01
  -3.067230e+01  -5.197103e+01
   9.569840e+00  -5.225129e+01
   5.515897e+01   2.963874e+01
   4.569143e+01   9.943905e+00
  -3.431935e+01   5.860411e+01
  -2.250707e+01   3.957833e+01
   1.486971e+01   8.095929e+00
   2.700414e+00  -4.576121e+00
   2.814816e+01  -2.607857e+01
  -4.337505e+01   4.927477e+01
  -6.678583e+01  -7.682672e+00
  -3.187465e+01  -1.368020e+00
   7.490376e+00  -4.249269e+01
   1.805296e+01  -4.652184e+01
   1.635253e+01   8.178192e+00
  -1.301911e+01   3.371826e+01
  -2.017454e+01   2.618879e+00
  -5.018022e+01  -1.188658e+01
   1.521819e+01  -1.181049e+01
   1.176449e+01  -3.805233e+01
   5.072944e+01   3.374704e+01
   3.935825e+01   2.977132e+01
   3.482324e+00   3.059655e+01
   8.390414e+00  -1.095146e+01
  -4.486229e+00  -1.600359e+01
   3.960905e+01   1.040666e+01
  -4.418736e-01  -1.292021e+00
  -5.084234e+00  -1.963091e+01
  -1.884263e+01  -9.224064e+00
   5.058415e+00  -7.739351e+00
   1.801137e+01  -1.810714e+01
   5.588678e+01   7.997700e+00
   1.187969e+01   2.101303e+01
  -2.295936e+01   1.725963e+00
  -3.812889e+01  -3.026929e+00
  -3.137097e+01  -2.163990e+01
   5.337657e+01  -3.169320e+01
   2.430318e+01  -3.963443e+00
   3.445345e+01   6.031900e+00
   4.798899e+00   2.383299e+00
  -4.215206e+01   1.718224e+00
   1.030600e+01   2.031446e+01
   3.258172e+01  -2.030754e+01
