
 $NMID
 id='ANONYMOUS ', fmtdat='(2E16.6)'
 volume=1.0
 tramp=1.0
 $END
  -3.382054e+03  -4.504783e+02
  -1.844259e+03  -2.534271e+03
   6.866825e+02  -2.121346e+03
   1.819886e+03  -5.892769e+02
   5.655150e+02   5.194705e+02
  -5.361390e+02   5.086703e+02
  -6.330818e+02  -3.287794e+02
   8.754466e+01  -7.797002e+02
   7.183723e+02  -4.912769e+02
   9.168374e+02   1.887855e+02
   3.868576e+02   7.282244e+02
  -2.589608e+02   7.973359e+02
  -4.975749e+02   9.694862e+01
  -2.990357e+02  -6.363761e+02
   2.973696e+02  -7.473176e+02
   4.764261e+02   1.315240e+00
   1.118252e+02   6.057276e+02
  -3.305344e+02   5.426136e+02
  -5.602329e+02  -4.986271e+01
  -3.524291e+02  -3.436037e+02
   1.085445e+01  -3.774579e+02
   2.122737e+02  -2.518648e+02
   1.717768e+02  -2.114634e+01
  -1.282857e+02   4.026795e+01
  -3.970950e+02  -1.929328e+02
  -1.033370e+02  -3.678074e+02
   4.216454e+02  -3.242448e+02
   6.680714e+02   2.517127e+02
   2.675040e+02   4.935329e+02
  -2.588584e+02   3.528464e+02
  -6.070688e+02  -1.170207e+02
  -2.228102e+02  -4.251670e+02
   2.512128e+02  -4.196643e+02
   4.882415e+02  -1.069549e+02
   3.966909e+02   2.011628e+02
  -2.694698e+01   3.687356e+02
  -1.915567e+02   2.051103e+02
  -6.414238e+01  -1.541799e+02
   2.526195e+02  -2.825690e+02
   3.367657e+02   1.508837e+02
   1.328033e+02   5.706227e+02
  -2.692290e+02   5.658922e+02
  -5.256647e+02   2.926231e+01
  -2.385868e+02  -4.834215e+02
   2.712073e+02  -2.863536e+02
   3.235020e+02   3.164670e+02
  -6.704464e+01   4.534166e+02
  -4.923418e+02   1.578758e+01
  -5.311729e+02  -3.089941e+02
  -5.341019e+01  -5.149751e+02
   3.506845e+02  -3.054728e+02
   4.985496e+02   8.624940e+01
   2.851679e+02   3.522701e+02
  -9.282972e+01   3.378550e+02
  -3.509115e+02   7.700229e+00
  -1.723933e+02  -1.741367e+02
   1.098178e+02  -1.901040e+01
   1.172280e+02   1.233854e+02
  -1.676239e+02   1.166734e+02
  -2.852748e+02  -8.302580e+01
  -1.094147e+02  -3.131051e+02
   2.354848e+02  -1.974160e+02
   2.870415e+02  -1.115062e+02
   1.957927e+02   1.094597e+02
  -2.750969e+01   2.214090e+02
  -2.667421e+02   2.921117e+02
  -3.338095e+02   1.856524e+02
  -2.251891e+02  -1.048675e+02
   2.956878e+01  -4.551084e+02
   7.490469e+01  -3.082321e+02
   9.865402e+01  -9.899700e+01
   9.571130e+00   2.531561e+00
   9.390278e+01  -3.718166e+01
   1.983701e+02  -8.086324e+01
   2.243290e+02   1.085806e+02
   8.471348e+01   2.746243e+02
  -9.253867e+01   2.265721e+02
  -2.118055e+02  -2.313707e+01
  -1.719376e+02  -2.063227e+02
   2.282376e+01  -2.402619e+02
   2.696943e+02  -9.734512e+01
   2.750852e+02   1.811937e+02
   1.199128e+02   3.473925e+02
  -6.268500e+01   2.246074e+02
  -1.959743e+02   1.478921e+02
  -1.551688e+02   5.950715e+00
  -9.169959e+01  -4.605342e+00
  -2.143976e+02   1.276221e+01
  -3.934728e+02  -7.169429e+01
  -2.382588e+02  -2.970643e+02
   5.106481e+01  -3.720784e+02
   3.475355e+02  -3.259134e+02
   4.541501e+02  -1.347081e+02
   2.767263e+02   1.118456e+02
  -2.187033e+00   2.534813e+02
  -1.180920e+02   2.221299e+02
  -4.353288e+01   2.415440e+01
   8.878321e+01  -5.603765e+01
   1.577786e+02   6.755405e+01
   3.311939e+01   1.478562e+02
  -9.431982e+01   1.706277e+02
  -1.776054e+02  -7.205539e+01
   4.247462e+01  -1.522095e+02
   1.619718e+02   6.944015e+00
   1.043466e+02   1.946471e+02
  -5.518707e+01   3.298498e+02
  -2.628579e+02   1.254606e+02
  -2.632908e+02  -8.877118e+01
  -2.129868e+02  -2.729442e+02
  -2.507022e+01  -2.620706e+02
   1.211087e+02  -1.242641e+02
   1.658770e+02   1.026748e+01
   3.112041e+01   1.274330e+01
  -6.918801e+01  -2.436222e+01
  -2.046811e+01  -8.369511e+01
   1.272540e+02  -9.807487e+01
   1.894768e+02   5.445896e+01
   6.606866e+01   7.002672e+01
  -6.537045e+01   2.916410e+00
  -3.854825e+01  -5.747160e+01
   9.450537e+01  -6.796682e+01
   2.333484e+02   4.796909e+01
   2.540104e+02   1.923749e+02
   3.873671e+01   2.147616e+02
  -1.817416e+02   2.039728e+02
  -2.164783e+02   1.033833e+02
  -1.448136e+02  -7.738463e+01
   3.395582e+01  -6.009923e+01
   8.428238e+01   2.762262e+01
  -5.240111e+01   9.036532e+01
  -2.048976e+02   3.495053e+01
  -1.895801e+02  -1.219133e+02
  -6.010863e+01  -2.506390e+02
   9.860698e+01  -1.358609e+02
   1.579635e+02  -1.329149e+01
   4.835835e+01   4.061818e+01
  -1.629713e+01  -1.079500e+00
  -1.510720e+01  -7.433415e+01
   7.323127e+01  -1.005940e+02
   1.618574e+02   1.376092e+00
   1.819067e+02   1.233432e+02
  -1.400134e+01   1.833555e+02
  -1.057885e+02   9.944181e+01
  -1.695817e+02  -3.717372e+01
  -4.728697e+01  -1.095930e+02
   7.194912e+01  -8.665307e+01
   6.674876e+01  -5.072529e+01
   4.688548e+01   2.778458e+01
  -2.361146e+01   1.182183e+01
  -1.580354e+01  -1.856121e+01
   6.950496e+01   1.644178e+01
   1.041903e+02   7.069329e+01
   1.683507e+01   1.519911e+02
  -1.241414e+02   1.038721e+02
  -1.981576e+02  -2.153889e+00
  -1.509145e+02  -2.121793e+02
  -5.290045e+01  -2.071685e+02
   1.224091e+02  -1.274387e+02
   1.622399e+02  -3.835973e+01
   7.443626e+01   5.539578e+01
  -9.995883e+00  -3.255548e-01
   5.231167e+01   9.689753e-01
   9.744011e+01  -2.174274e+01
   6.244913e+01   5.334264e+01
  -1.172860e+01   8.158375e+01
  -9.433511e+01   4.691253e+01
  -3.802234e+01  -7.146840e+01
   2.865591e+01  -1.162375e+02
   1.272029e+02  -3.972264e+01
   1.889092e+02   5.493468e+01
   5.348091e+01   1.978963e+02
  -1.316897e+02   1.899664e+02
  -2.638614e+02   7.771143e+01
  -2.401916e+02  -1.072924e+02
  -6.321907e+01  -1.620168e+02
   5.886508e+01  -1.115207e+02
   8.348204e+01  -5.065155e+01
   6.222551e+01  -3.664655e+01
   9.796200e+01  -6.102995e+01
   1.248584e+02  -8.863675e+01
   1.350119e+02   2.020184e+01
   8.555364e+01   1.177722e+02
  -1.073701e+01   2.150786e+02
  -1.283617e+02   1.515374e+02
  -1.724714e+02  -1.455849e+01
  -8.514771e+01  -1.053707e+02
  -8.449048e-01  -1.307905e+02
   5.641134e+01  -5.685637e+01
   4.651188e+01  -4.586123e+00
  -1.669240e+01   5.199981e+01
  -2.996124e+01   5.491625e+01
   1.476622e+01   2.667402e+01
   7.437300e+01   1.528581e+01
   2.014424e+01   7.168856e+01
  -7.131480e+01   3.494079e+01
  -1.280925e+02  -1.210003e+00
  -1.212322e+02  -5.985221e+01
  -2.763245e+01  -9.436130e+01
   1.248801e+02  -6.334926e+01
   1.350991e+02  -1.643508e+01
   5.247846e+01   5.521432e+01
  -4.983829e+01   2.529376e+01
  -6.930561e+01   2.513251e+01
   1.260621e+00  -4.994729e+01
   6.886402e+01  -4.807663e+01
   4.580418e+01   1.466205e+01
   4.143044e+01   5.395847e+01
   5.501265e+01   5.040907e+01
   4.339526e+01   2.012696e+01
   4.887496e+01  -2.518660e+01
   3.149292e+01   5.001246e+01
  -2.593891e+01   1.364888e+02
  -1.136490e+02   1.444623e+02
  -1.715025e+02   3.228249e+00
  -1.544163e+02  -4.649173e+01
  -1.398822e+01  -1.140635e+02
   1.235748e+02  -8.034323e+01
   4.892684e+01   4.645466e+01
  -4.820908e+01   1.854914e+01
  -1.179816e+02  -5.323681e+01
  -7.362176e+01  -1.047677e+02
   7.472898e+01  -8.068350e+01
   1.732026e+02  -5.210513e+01
   1.506698e+02   3.430897e+01
  -4.997953e+00   7.531487e+01
  -7.526608e+01   1.602143e+01
  -4.390091e+01   1.453178e+01
   4.861074e+01  -2.220910e+01
   9.709773e+01   5.318240e+01
   2.423746e+01   1.025036e+02
  -1.104675e+02   9.219931e+01
  -1.601202e+02   6.626305e+01
  -9.631373e+01  -1.006365e+02
  -1.673226e+01  -1.549227e+02
   8.736202e+01  -1.531570e+02
   9.226556e+01   1.675837e+01
   4.077750e+01   1.087477e+02
   4.804458e+00   7.949918e+01
  -2.940626e+01  -3.401539e+01
  -4.201223e+01  -4.133797e+01
  -3.474024e+01   7.676334e+00
  -6.789371e+00   3.850947e+01
  -4.378247e+01  -4.411647e+00
   1.199972e+01  -1.267084e+02
  -3.946293e+01  -1.247442e+02
   5.656777e+01  -3.851176e+01
   1.288730e+02   4.019379e+01
   1.010540e+02   7.499672e+01
   1.677317e+01   3.911299e+01
  -7.969419e+01   1.787641e+01
  -8.470535e+01   1.064141e+01
  -1.015250e+01   1.127533e+01
   4.257932e+01  -5.040197e+01
  -1.523527e+01  -1.686224e+01
  -2.528106e+01   2.528312e+00
  -1.800418e+01   2.468651e+01
   7.118383e+00   1.334753e+01
   9.014386e+01   1.513115e+01
   3.033930e+01   6.613857e+01
  -1.209345e+02   1.240919e+02
  -1.871082e+02   4.268915e+01
  -1.557061e+02  -7.494755e+01
   6.766040e+00  -1.183435e+02
   8.240639e+01  -1.375931e+02
   1.099062e+02  -3.604011e+01
   9.693598e+01   2.156495e+01
   3.180440e+01   1.648131e+01
  -4.673032e+00   7.273705e+00
   1.659081e+01   2.818830e+01
   1.153095e+01   3.601716e+01
   4.754788e+01   6.142299e+01
  -2.998462e+01   7.999788e+01
  -6.726726e+01  -9.781526e+00
  -7.033436e+01  -1.341729e+02
  -2.513524e+01  -1.048007e+02
   7.717683e+01  -8.134236e+00
   5.532360e+01   5.624649e+01
   2.310464e+01   1.010481e+02
  -8.371805e+01  -1.010385e+01
  -1.094108e+02  -3.749233e+01
  -6.238995e+01  -5.016110e+01
   5.167204e+01  -7.790832e+01
   1.437968e+00  -2.180762e+01
  -3.488288e+01  -1.384866e+01
  -4.839711e+01   8.911319e+00
  -1.455362e+01  -4.643228e+01
   8.921760e+01  -8.862082e+01
   9.394718e+01  -4.075153e+01
   6.410854e+01  -5.971574e+00
   3.365960e+00   6.829721e+01
  -4.866127e+01   4.666931e+01
  -9.093015e+00  -2.509548e+01
  -6.244155e+00  -5.547571e+01
   2.323353e+01  -1.805217e+01
   3.149061e+01   1.694190e+01
   1.657973e+01   2.726586e+01
  -4.266995e+01   2.358960e+01
  -3.855548e+01  -1.228169e+01
  -6.258698e+01  -1.847885e+00
  -2.863044e+00  -2.618867e+00
   9.142041e-01   9.880032e+00
  -1.465722e+01  -9.249779e+00
   4.254508e+00  -1.417760e+01
   1.316897e+01  -6.679715e+01
   7.064183e+01  -1.621143e+01
   6.802250e+01   4.219984e+01
  -7.684361e+00   5.977355e+01
  -3.599753e+01   5.095442e+00
  -4.076323e+01  -3.250075e+01
  -8.350890e+00  -4.620155e+01
   6.471609e+01  -1.164044e+01
   8.324732e+01   2.946713e+01
   5.614181e+01   3.990957e+01
  -5.269945e+00   1.933970e+01
  -7.607008e+01   2.111726e+01
  -2.041250e+01   1.480121e+01
   1.756162e+01  -1.045562e+01
   6.332108e+00   4.529263e+01
  -6.297721e+01   1.156725e+01
  -1.125217e+02   4.984094e+01
