
 $NMID
 id='ANONYMOUS ', fmtdat='(2E16.6)'
 volume=1.0
 tramp=1.0
 $END
   3.595757e+03   8.929582e+02
   2.166518e+03   2.370497e+03
  -8.396971e+02   2.211109e+03
  -1.850695e+03   5.299168e+02
  -6.605666e+02  -3.772349e+02
   5.261985e+02  -1.263578e+02
   5.834780e+02   5.237276e+02
  -2.320675e+02   9.533576e+02
  -7.884587e+02   5.797940e+02
  -8.494426e+02  -1.775902e+02
  -1.775324e+02  -7.058646e+02
   2.932030e+02  -6.481825e+02
   4.488842e+02   1.252189e+02
   2.360076e+02   5.489320e+02
  -3.663913e+02   6.504383e+02
  -5.181280e+02  -1.021955e+01
  -2.356805e+02  -6.208358e+02
   2.190681e+02  -6.152804e+02
   5.101357e+02  -8.817511e+01
   3.291989e+02   2.698126e+02
   4.753402e+01   3.284317e+02
  -1.844872e+02   1.952386e+02
  -1.047238e+02   5.667688e+00
   2.115124e+02  -3.297719e+01
   4.759221e+02   2.573924e+02
   1.141304e+02   4.683371e+02
  -5.776216e+02   4.093306e+02
  -8.261380e+02  -2.310663e+02
  -3.245895e+02  -5.589996e+02
   3.727055e+02  -3.235254e+02
   6.268824e+02   1.630751e+02
   2.493015e+02   4.905651e+02
  -3.375023e+02   4.201188e+02
  -5.212685e+02   1.279840e+02
  -3.449841e+02  -1.890044e+02
  -4.908406e+01  -4.011875e+02
   2.263195e+02  -1.991376e+02
   4.942608e+01   2.996365e+02
  -3.061220e+02   3.294051e+02
  -3.444750e+02  -1.564013e+02
  -8.678146e+01  -6.853149e+02
   3.112163e+02  -5.497606e+02
   4.410913e+02   7.060564e+01
   1.621466e+02   4.885125e+02
  -3.499760e+02   1.962968e+02
  -3.280834e+02  -3.639724e+02
   1.341077e+02  -5.503539e+02
   5.270094e+02   1.757680e+01
   5.845283e+02   3.949512e+02
   1.496117e+02   5.911085e+02
  -3.320311e+02   3.054280e+02
  -5.704982e+02  -6.401398e+01
  -3.126673e+02  -3.638654e+02
   1.563461e+02  -2.725352e+02
   3.688433e+02   1.254630e+01
   1.666298e+02   1.208312e+02
  -7.721540e+01   2.039327e+01
  -7.724060e+01  -1.708615e+02
   1.368045e+02  -1.336584e+02
   2.464123e+02   1.008763e+02
   6.389286e+01   2.498848e+02
  -1.912238e+02   2.125454e+02
  -3.184661e+02   8.124513e+01
  -2.082428e+02  -6.283167e+01
  -8.431462e+00  -2.336861e+02
   2.551446e+02  -3.986632e+02
   3.862974e+02  -1.964135e+02
   3.103917e+02   1.579623e+02
   4.212898e+01   3.939138e+02
  -1.149354e+02   3.597117e+02
  -7.891617e+01   1.376194e+02
   9.651043e+00   1.225373e+01
  -6.691928e+01   1.186193e+02
  -2.252229e+02   9.799902e+01
  -2.770190e+02  -8.584065e+01
  -1.359353e+02  -2.661405e+02
   1.107779e+02  -2.284891e+02
   2.213272e+02   3.410593e+01
   1.699498e+02   2.310210e+02
  -3.255427e+01   2.928601e+02
  -2.646747e+02   1.029228e+02
  -2.961114e+02  -1.817327e+02
  -1.356467e+02  -3.730357e+02
   9.851111e+01  -2.798137e+02
   1.816990e+02  -1.331307e+02
   1.533872e+02  -3.419841e+01
   7.786089e+01  -7.657796e+01
   2.478961e+02  -3.988343e+01
   3.876400e+02   6.114833e+01
   3.527861e+02   3.675634e+02
   3.563433e+01   4.376782e+02
  -4.239606e+02   4.217147e+02
  -5.381135e+02   2.002366e+02
  -3.043013e+02  -1.219920e+02
  -2.860091e+00  -2.765557e+02
   1.297260e+02  -2.154930e+02
   2.776494e+01  -1.052098e+01
  -1.450005e+02   8.035393e+01
  -1.987998e+02  -7.916707e+01
  -3.278622e+01  -1.805610e+02
   1.881553e+02  -1.169764e+02
   1.522768e+02   1.047908e+02
  -7.708786e+01   1.720070e+02
  -2.213238e+02  -1.584321e+01
  -1.519869e+02  -2.567490e+02
   4.955808e+01  -3.615675e+02
   2.630134e+02  -1.809055e+02
   3.738716e+02   7.434921e+01
   2.589465e+02   2.546100e+02
   8.876413e+01   2.843280e+02
  -1.558019e+02   1.532978e+02
  -1.939795e+02  -1.256020e+01
  -4.934323e+01  -5.212041e+01
   7.944045e+01   5.064451e+01
   3.833942e+01   1.339848e+02
  -1.397455e+02   8.935839e+01
  -1.717583e+02  -1.690618e+01
  -7.169498e+01  -9.383468e+01
   9.414855e+01   3.013768e+00
   4.277227e+01   9.916611e+01
  -1.283232e+02   1.305780e+02
  -2.724437e+02  -8.741247e+00
  -2.252479e+02  -1.886213e+02
  -6.464910e+01  -2.489476e+02
   2.248780e+02  -2.597232e+02
   3.151714e+02  -1.247154e+02
   1.520217e+02   8.904853e+01
  -2.496724e+01   8.859233e+01
  -7.084877e+01   1.454004e+00
   6.649910e+01  -1.343738e+02
   1.878931e+02  -4.840414e+01
   1.992132e+02   1.175480e+02
   3.730782e+01   1.783949e+02
  -7.168614e+01   1.454290e+02
  -1.325271e+02   1.411845e+01
  -7.365047e+01  -3.694395e+01
   2.168167e+01  -8.315339e+00
   4.839038e+01   6.864617e+01
  -1.279351e+02   1.151511e+02
  -1.808316e+02   1.358217e+01
  -2.109778e+02  -1.225611e+02
  -7.066314e+00  -2.532360e+02
   1.584936e+02  -1.547103e+02
   2.055871e+02   8.642095e+00
   5.622231e+01   1.252508e+02
  -7.236429e+01   1.426109e+02
  -9.904382e+01   2.832470e+01
  -1.414102e+01  -4.176049e+01
   3.753580e+01  -3.068052e+01
  -3.232003e-01  -6.099902e+00
  -7.056813e+01   2.112119e+01
  -1.187537e+02  -7.273725e+01
  -3.532484e+00  -1.881008e+02
   1.314980e+02  -1.038462e+02
   2.326021e+02  -2.639282e+01
   1.489897e+02   1.472637e+02
   4.110426e+01   1.971263e+02
  -1.204159e+02   1.993786e+02
  -1.541789e+02  -3.540716e+00
  -7.194299e+01  -7.494168e+01
  -1.849597e+01  -6.449947e+01
  -4.993335e+01   7.101288e+00
  -8.650927e+01   2.265442e+01
  -2.381755e+01  -4.660196e+01
   4.434579e+01  -8.701134e+01
   8.472720e+01  -9.623437e+01
   9.650602e+01   5.334337e+01
  -1.656056e+01   1.033073e+02
  -1.599254e+02   7.528239e+01
  -2.056474e+02  -3.319689e+01
  -7.671209e+01  -2.434372e+02
   1.020750e+02  -2.356151e+02
   2.714776e+02  -7.933247e+01
   2.489410e+02   7.463323e+01
   7.911646e+01   1.697070e+02
  -4.625713e+01   1.364476e+02
  -9.965143e+01   8.407675e+01
  -6.905309e+01   8.510247e+01
  -3.770770e+01   1.095091e+02
  -6.385123e+01   1.014958e+02
  -1.486027e+02  -1.242794e+01
  -1.098303e+02  -1.737327e+02
  -1.187903e+01  -2.509011e+02
   8.468652e+01  -1.557025e+02
   1.699501e+02   2.555937e+01
   1.447436e+02   1.150452e+02
  -6.811025e+00   1.411339e+02
  -6.453643e+01   9.466464e+01
  -6.477986e+01  -6.517027e+00
   4.324731e+00  -3.002656e+01
  -3.365586e+00  -4.991707e+01
  -2.221913e+01  -1.604913e+01
  -9.004363e+01  -3.006347e+01
  -3.618042e+01  -4.568717e+01
   6.437641e+01  -4.824159e+01
   1.869093e+02  -2.363555e+00
   1.598945e+02   6.396781e+01
   3.036395e+01   7.177380e+01
  -1.106379e+02   1.123514e+02
  -1.390175e+02  -9.854844e+00
  -3.834570e+01  -5.558665e+01
   5.697976e+01  -1.582902e+01
   5.233579e+01   1.350432e+01
   2.052079e+01   7.062916e+01
  -2.924283e+01   3.249884e+01
  -7.181611e+01   2.868457e+00
  -7.045890e+01  -1.654249e+01
  -4.125358e+01  -5.101239e+01
  -5.426884e+01  -5.231854e+00
  -4.229817e+01   1.678365e+01
  -3.478110e+01  -8.808155e+01
  -1.074040e+01  -1.551753e+02
   1.062427e+02  -1.220302e+02
   1.965788e+02  -6.983149e+01
   1.348662e+02   9.535088e+01
   8.763526e+00   1.391367e+02
  -7.963970e+01   9.052273e+01
  -6.378010e+01  -2.208906e+01
   3.616145e+01  -2.581266e+01
   1.561034e+02   3.260296e+01
   6.507604e+01   1.169129e+02
  -7.488873e+01   1.411700e+02
  -1.824895e+02   3.865860e+01
  -1.917950e+02  -6.884295e+01
  -2.742800e+01  -7.386805e+01
   4.493172e+01  -6.085647e+01
   3.338462e+01  -4.218563e+01
  -5.678657e+01   3.766086e+01
  -5.704936e+01  -2.751923e+01
  -7.297918e+01  -7.116867e+01
   1.044186e+02  -1.377392e+02
   1.739426e+02  -5.503871e+01
   1.393453e+02   9.244658e+01
  -1.106412e+01   1.632860e+02
  -8.605351e+01   1.960325e+02
  -8.453747e+01  -1.965802e+01
  -5.310489e+01  -9.461988e+01
  -1.769632e+01  -1.033728e+02
   5.411030e+01  -1.399079e+01
   6.095075e+01   2.607199e+01
   2.836593e+01   1.364999e+00
   1.007785e+01  -2.041588e+01
   4.936462e+01  -1.537631e+00
   7.811177e+01   7.860726e+01
   2.760200e+01   1.137768e+02
  -2.359686e+01  -2.072078e+00
  -1.391634e+02  -4.282108e+01
  -1.200615e+02  -1.030318e+02
  -2.746713e+01  -6.236398e+01
   5.828705e+01  -2.629802e+01
   8.331995e+01   9.207425e+00
   1.369004e+01   2.659916e+01
  -5.545200e+01   1.327224e+01
  -3.863905e+01   4.011161e+01
   4.845560e-01  -2.018889e+01
  -2.376027e+01   9.150519e-01
  -8.225149e+01  -2.354821e+01
  -9.078682e+01  -2.417125e+01
   1.381547e+01  -9.612912e+01
   8.877852e+01  -1.273994e+02
   1.897351e+02  -4.849022e+01
   1.289835e+02   3.540479e+01
   4.256373e+01   1.558910e+02
  -9.840295e+01   1.402533e+02
  -9.159382e+01   7.394514e+01
  -7.471417e+01   1.769905e+00
  -2.934440e+01  -1.763389e+01
  -6.345405e+00  -6.732032e+00
  -4.075592e+01  -5.018828e+00
  -4.479402e+00  -1.234015e+01
  -3.987929e+01  -8.018987e+01
   3.829146e+01  -5.899606e+01
   5.358192e+01  -7.494057e+00
   6.589198e+01   1.108515e+02
   3.102183e+01   9.115908e+01
  -7.670101e+01   6.412796e+01
  -8.910928e+01  -7.203070e+01
  -3.175550e+01  -1.366318e+02
   2.691815e+01  -6.514343e+01
   1.073333e+02   2.096713e+01
   7.080296e+01   4.505706e+01
  -1.016624e+00   6.718300e+01
  -5.893882e+00   3.119831e+01
   3.217020e+01   2.752599e+01
   5.001431e+01  -1.865205e+01
   2.390883e+01   2.036826e+01
  -7.505901e+01   7.577638e+01
  -9.893978e+01   6.650672e+01
  -9.883894e+01   2.387383e+00
   2.024061e+01  -9.250796e+01
   4.412817e+01  -7.944910e+01
   2.084379e+01   3.521396e+01
   1.254819e+01   5.474579e+01
  -4.469363e+01   5.334956e+01
  -3.033936e+01  -4.535032e+01
   6.555179e+00  -7.170391e+01
   2.073779e+00  -4.883705e+01
   4.534530e+01  -9.076743e+00
   4.606849e+01   3.178444e+01
   2.122879e+01   2.081966e+01
   9.410758e+00  -7.405651e+00
  -3.353326e+01   1.302496e+01
   2.122164e+01   6.104606e+01
   1.516126e+01   3.523414e+01
  -1.418956e+01  -7.782167e+00
  -3.105228e+01  -5.771309e+01
   5.870306e+00  -8.459076e+01
   3.274819e+01  -4.320810e+01
   5.693624e+01   2.832990e+01
   8.092078e+00   3.381545e+01
  -3.108876e+01   2.469227e+01
  -1.036054e+02  -7.522267e+00
  -5.421875e+01  -2.464633e+01
   3.848582e+01  -4.693095e+01
   7.106635e+01  -5.291167e+01
   2.481066e+01  -5.950629e+00
  -2.542206e+01   1.408633e+01
  -3.295641e+01  -2.831752e+00
   3.542537e+01  -2.747060e+01
   8.306339e+01  -3.331993e+01
