
 $NMID
 id='ANONYMOUS ', fmtdat='(2E16.6)'
 volume=1.0
 tramp=1.0
 $END
   3.217941e+03   2.570635e+02
   1.340961e+03   2.257055e+03
  -5.616441e+02   2.045276e+03
  -1.666503e+03   7.533790e+02
  -8.223874e+02  -4.070155e+02
   3.918332e+02  -4.266535e+02
   5.992628e+02   2.329101e+02
  -2.593765e+01   7.546837e+02
  -6.096749e+02   4.400263e+02
  -6.936852e+02  -1.831295e+02
  -3.180645e+02  -6.931814e+02
   1.987521e+02  -6.189710e+02
   4.664200e+02  -1.119436e+02
   2.279941e+02   4.724761e+02
  -2.720235e+02   6.411041e+02
  -4.040097e+02   2.457770e+01
  -1.671774e+02  -5.089842e+02
   2.216390e+02  -5.027323e+02
   4.612196e+02  -1.506609e+01
   3.475029e+02   3.107182e+02
   1.351550e+01   3.565728e+02
  -1.779973e+02   2.204076e+02
  -1.394192e+02   3.633685e+01
   1.328285e+02   1.356866e+01
   2.880089e+02   2.159020e+02
   1.143827e+02   3.092336e+02
  -3.786904e+02   2.960361e+02
  -5.796970e+02  -2.411086e+02
  -2.463586e+02  -4.648171e+02
   2.322599e+02  -3.153878e+02
   5.576739e+02   1.189443e+02
   2.082041e+02   3.252526e+02
  -2.404698e+02   3.238562e+02
  -4.454794e+02   1.379726e+02
  -3.649152e+02  -1.279574e+02
  -5.141627e+01  -3.006018e+02
   1.238403e+02  -1.624578e+02
   1.188602e+02   9.074526e+01
  -2.515506e+02   2.657775e+02
  -2.613270e+02  -1.377771e+02
  -1.409615e+02  -5.122216e+02
   3.334031e+02  -4.593201e+02
   4.264386e+02  -1.413441e+01
   2.466858e+02   4.812133e+02
  -2.183362e+02   2.068229e+02
  -2.175781e+02  -2.683694e+02
   1.326015e+02  -4.433882e+02
   4.049990e+02   1.197096e+01
   4.848016e+02   3.445951e+02
   4.114273e+01   4.459179e+02
  -3.020642e+02   3.020555e+02
  -4.621395e+02  -1.085344e+02
  -2.621505e+02  -2.708974e+02
   6.601796e+01  -3.038582e+02
   2.975986e+02   3.142881e+01
   1.536347e+02   1.645671e+02
  -4.855220e+01   3.017799e+01
  -8.667167e+01  -5.125565e+01
   1.239829e+02  -7.787485e+01
   2.368237e+02   9.585914e+01
   7.471876e+01   2.463785e+02
  -1.818090e+02   1.975763e+02
  -3.368244e+02   7.602790e+01
  -1.521755e+02  -1.131744e+02
   3.955847e+01  -2.419774e+02
   2.682595e+02  -2.647656e+02
   3.351724e+02  -1.502453e+02
   2.239599e+02   1.354770e+02
  -2.458711e+01   3.816406e+02
  -1.329544e+02   3.143031e+02
  -8.215709e+01   1.198324e+02
  -2.247705e+01   3.526521e+01
  -1.060456e+02   5.251604e+01
  -2.048210e+02   4.450989e+01
  -1.823781e+02  -9.791519e+01
  -6.809543e+01  -2.552319e+02
   9.594256e+01  -1.897589e+02
   1.824175e+02   2.788611e+01
   1.290303e+02   2.226151e+02
  -1.545631e+01   1.962899e+02
  -2.212968e+02   5.583648e+01
  -2.359840e+02  -1.941801e+02
  -1.020282e+02  -3.239654e+02
   3.500432e+01  -2.043383e+02
   1.612769e+02  -1.271074e+02
   1.092504e+02  -5.069019e+01
   6.798686e+01  -3.820958e+00
   1.986271e+02  -1.098634e+01
   3.478627e+02   8.656690e+01
   2.226137e+02   2.663071e+02
   1.813820e+01   3.939642e+02
  -3.078239e+02   3.400869e+02
  -4.162021e+02   1.206860e+02
  -2.432382e+02  -9.812136e+01
   3.664695e+00  -2.270346e+02
   1.204437e+02  -1.787489e+02
   3.744125e+01  -3.456903e+01
  -1.237854e+02   2.881991e+01
  -1.079033e+02  -3.689749e+01
  -1.554974e+01  -1.525922e+02
   1.534413e+02  -1.019488e+02
   1.306048e+02   7.773838e+01
  -9.471761e+00   1.282391e+02
  -1.243838e+02   2.028271e+01
  -1.279165e+02  -2.049799e+02
   6.089415e+01  -3.061510e+02
   2.200379e+02  -1.303269e+02
   2.402243e+02   8.072736e+01
   2.194279e+02   2.294035e+02
   2.930818e+01   2.326943e+02
  -1.349964e+02   1.048808e+02
  -1.489319e+02  -1.790438e+01
  -4.679476e+01  -9.066733e+00
   3.635043e+01   3.608980e+00
   2.949576e+01   8.912099e+01
  -1.210837e+02   6.250127e+01
  -1.770674e+02  -5.159567e+01
  -6.724421e+01  -4.340825e+01
   7.267287e+01  -3.854425e+01
   3.448441e+01   7.171673e+01
  -1.084569e+02   1.054055e+02
  -2.289465e+02  -4.915518e+01
  -2.046062e+02  -2.160380e+02
  -4.261836e+01  -2.056487e+02
   1.603064e+02  -1.821782e+02
   2.287812e+02  -7.899210e+01
   1.124198e+02   6.755056e+01
  -2.710797e+01   8.679530e+01
  -5.874982e+01  -3.886245e+00
   3.325424e+01  -9.978182e+01
   1.772394e+02  -3.575525e+01
   1.628016e+02   1.064076e+02
   6.391807e+01   2.039786e+02
  -9.781614e+01   9.266290e+01
  -1.470585e+02   3.772048e+01
  -4.915049e+01  -3.249720e+01
   1.831662e+01   7.033600e+00
  -2.028036e+00   5.367687e+01
  -8.427132e+01   8.579154e+01
  -1.653323e+02   3.832624e+00
  -1.568650e+02  -1.053177e+02
   1.018811e+01  -1.685690e+02
   1.141719e+02  -1.027348e+02
   1.783480e+02  -2.010839e+01
   4.460141e+01   9.778618e+01
  -7.298213e+01   8.197241e+01
  -4.753941e+01   3.035987e+01
  -2.924219e+01  -3.233075e+01
   1.712131e+01   7.208486e+00
  -2.396603e+01   2.155532e+01
  -6.847413e+01   6.678427e+00
  -7.457228e+01  -9.684420e+01
  -1.399306e+01  -1.781670e+02
   1.027692e+02  -1.289739e+02
   1.935585e+02  -1.980594e+00
   1.532689e+02   1.667335e+02
   7.612178e+00   2.031798e+02
  -1.196948e+02   1.285505e+02
  -1.368964e+02   1.861474e+00
  -4.880482e+01  -4.298718e+01
  -1.941934e+01  -2.731328e+00
  -5.767599e+01   1.967376e+01
  -8.571288e+01  -4.049987e+01
  -4.780680e+01  -5.532423e+01
   2.180288e+01  -5.017947e+01
   6.590356e+01  -5.880657e+01
   7.741476e+01   5.324444e+01
  -3.152649e+01   1.131371e+02
  -1.213481e+02   5.510257e+01
  -1.833527e+02  -4.816445e+01
  -6.583447e+01  -2.013187e+02
   1.390631e+02  -1.781644e+02
   2.464340e+02  -4.283624e+01
   1.964360e+02   1.226536e+02
   6.163954e+01   1.674317e+02
  -5.636240e+01   1.078185e+02
  -5.651323e+01   8.019520e+01
  -9.552342e+01   7.255928e+01
  -7.053499e+01   6.975824e+01
  -8.871517e+01   6.132400e+01
  -1.448468e+02  -5.099438e+01
  -7.747846e+01  -1.246113e+02
  -9.486224e+00  -1.824829e+02
   6.717450e+01  -1.598963e+02
   1.755201e+02  -2.908658e+01
   6.216103e+01   9.606962e+01
   8.656704e-01   1.288311e+02
  -4.642896e+01   9.435246e+01
  -5.150902e+01   2.181246e+01
  -2.647475e+01  -4.334707e+01
   5.261422e+01  -3.045070e+01
  -1.673123e+01  -1.162577e+01
  -7.216517e+01  -4.387457e+01
  -3.147740e+01  -4.593524e+01
   9.468596e+01  -1.246963e+01
   1.150775e+02  -7.213818e+00
   1.163586e+02   5.141626e+01
   6.012779e+00   8.919292e+01
  -8.122758e+01   4.622365e+01
  -1.528005e+02  -2.389860e+01
  -3.538150e+01  -2.446971e+01
   5.645047e+01  -2.909278e+01
   6.137664e+01   8.057376e+00
   1.238375e+01   9.584819e+01
  -6.773237e+01   6.019634e+01
  -4.262351e+01   5.259871e+00
  -3.459247e+01  -8.847020e+01
  -3.653868e+01  -7.940581e+00
  -4.532069e+01  -2.358957e+01
  -8.646756e+01  -1.136073e+00
  -4.207950e+01  -9.683519e+01
   3.267115e+01  -1.386027e+02
   1.572388e+02  -1.179449e+02
   1.535553e+02  -2.655752e+01
   1.274143e+02   7.001836e+01
  -3.423237e+00   1.073021e+02
  -8.066849e+01   7.437090e+01
  -7.089891e+01   6.549838e+00
   8.518060e+01  -2.903311e+01
   1.207743e+02   5.821938e+01
   8.483505e+01   9.373543e+01
  -6.727484e+01   1.093283e+02
  -2.014752e+02   3.786931e+01
  -1.512681e+02  -2.375230e+01
  -2.446311e+00  -8.367202e+01
   7.643291e+01  -3.940675e+01
   2.321350e+01  -5.916935e+00
  -2.581899e+01   1.891815e+01
  -8.153753e+01  -3.947493e+01
  -3.793196e+01  -9.724231e+01
   1.040109e+02  -1.278338e+02
   1.210067e+02  -7.281077e+01
   1.003423e+02   1.041615e+02
  -5.442006e+00   1.388555e+02
  -4.834134e+01   1.368695e+02
  -9.729297e+01  -3.288752e+01
  -3.647826e+00  -1.215927e+02
  -3.693047e+00  -9.805404e+01
   3.578612e+01   1.792954e+01
   5.912193e+01   3.760793e+01
  -7.039302e+00   7.604213e+00
  -8.488914e+00  -1.590087e+01
   1.189394e+01   1.503496e+01
   2.383756e+01   9.368998e+01
   3.564767e+01   1.011020e+02
  -5.499188e+01   1.113880e+01
  -1.222370e+02  -2.935679e+01
  -1.124575e+02  -8.997256e+01
  -1.278011e+01  -5.034009e+00
   7.108633e+01  -3.591280e+01
   6.901514e+01  -1.743377e+01
  -1.507584e+01   9.623091e+00
  -1.895622e+01  -5.487283e+00
  -4.627983e+01  -4.767299e+00
   1.668780e+01  -6.576352e+00
  -1.107221e+01  -2.628108e+01
  -4.041985e+01  -6.924775e+00
  -9.015869e+01  -3.231785e+01
  -2.034568e+01  -5.606856e+01
   1.036310e+02  -8.403826e+01
   1.741557e+02  -1.617029e+01
   1.350079e+02   5.538082e+01
  -2.263743e+00   1.349045e+02
  -7.411105e+01   1.024642e+02
  -9.451829e+01   4.203791e+01
  -6.886909e+01  -3.921542e+01
  -1.442294e+01  -4.157690e+01
  -7.772578e+00  -6.234926e+00
  -2.969884e+01   1.675710e+01
  -2.174030e+01  -3.557958e+01
  -1.467495e+01  -7.823290e+01
   3.055598e+01  -9.451737e+01
   8.512721e+01   1.191704e+01
   5.241660e+01   8.795573e+01
   3.516605e-01   8.463840e+01
  -4.756223e+01   1.317460e+01
  -6.978487e+01  -4.928238e+01
  -2.639867e+01  -8.792056e+01
   6.904070e+01  -4.010869e+00
   9.162611e+01   1.430989e+01
   4.422754e+01   6.726158e+01
  -2.753360e+01   5.235080e+01
  -2.387213e+01   2.713419e+01
   5.610842e+01  -4.425567e+00
   4.828051e+01  -3.140870e+01
   2.074038e+01   2.077663e+01
  -6.677102e+01   2.855598e+01
  -1.008394e+02   1.900165e+01
  -6.019154e+01  -1.026412e+01
   2.167976e+01  -7.267486e+01
   6.621863e+01  -4.864375e+01
   3.410675e+01   7.730490e+00
  -8.134792e+00   3.976823e+01
  -3.170307e+01   5.154729e+01
  -4.116700e+01   1.093848e+01
  -2.054881e+01  -4.456099e+01
  -8.957372e-01  -3.147230e+01
   1.176826e+01   3.016529e+01
   3.388229e+01   3.290818e+00
   2.392315e+01   3.087555e+01
  -1.530174e+01   1.391978e-01
   3.007204e+01   9.933678e+00
   5.728993e+00   2.081070e+01
  -6.704623e+00   7.653145e+01
  -4.940646e+01   2.230721e+01
  -5.823417e+01  -1.396584e+01
  -4.123428e+00  -4.475697e+01
   4.551828e+01  -3.522237e+01
   3.352712e+01   3.500628e+01
  -2.253196e+00   9.253130e+01
  -5.473013e+01   2.499036e+00
  -7.381127e+01  -1.334621e+00
  -3.899277e+01  -4.834971e+01
   4.061712e+01  -1.573876e+01
   7.719965e+01  -3.797773e+01
   4.904829e+01  -2.223784e+01
  -1.634656e+01  -1.941575e+00
  -4.314991e+01  -3.769717e+01
   2.614945e+01  -3.294600e+01
   7.620136e+01  -3.000403e+01
