
 $NMID
 id='ANONYMOUS ', fmtdat='(2E16.6)'
 volume=1.0
 tramp=1.0
 $END
  -1.870960e+03   2.420673e+02
  -6.667840e+02  -7.531791e+02
  -9.204456e+01  -1.094434e+03
   5.446008e+02  -6.837326e+02
   6.149293e+02  -1.018923e+02
   1.462415e+02   9.652525e+01
  -1.009726e+02   3.684583e+01
  -5.303429e+01  -2.507483e+02
   1.925156e+02  -2.434622e+02
   2.949973e+02  -3.458114e+00
   2.837778e+02   2.637069e+02
   3.472059e+01   3.483487e+02
  -1.226661e+02   1.408338e+02
  -2.226752e+02  -1.036498e+02
   4.700786e+01  -2.847629e+02
   2.305802e+02   4.226021e+00
   2.976205e+01   1.355509e+02
  -3.964907e+01   3.393974e+02
  -2.475050e+02   1.175570e+02
  -2.867682e+02  -1.352450e+02
  -5.246685e+01  -2.040606e+02
   1.211590e+01  -1.272891e+02
   4.429493e+01  -6.201912e+01
  -6.494222e+01  -7.031621e+01
  -1.336512e+02  -2.009558e+02
  -3.921508e+01  -1.559208e+02
   2.392029e+02  -1.360850e+02
   2.986985e+02   1.638890e+02
   5.597031e+01   1.415259e+02
  -1.223275e+02   1.378099e+02
  -2.428668e+02  -8.187404e+01
  -7.942354e+01  -1.056356e+02
   1.535806e+02  -1.575659e+02
   2.744461e+02  -2.197172e+01
   2.044287e+02   3.639419e+01
   6.565450e+01   1.686410e+02
   4.382208e+01   1.340501e+02
   3.730277e+01  -2.200264e+01
   1.144176e+02   1.197248e+01
   1.792654e+01   8.160042e+01
  -3.317183e+01   1.811505e+02
  -5.775395e+01   2.019718e+02
  -1.225490e+02   7.355412e+01
  -1.204616e+02  -1.196238e+02
   1.734868e+01  -1.470922e+02
   3.998149e+01   2.012391e+02
  -1.008371e+02   1.977487e+02
  -1.903751e+02  -2.465293e+01
  -2.000756e+02  -8.060938e+01
   1.586549e+01  -2.056649e+02
   8.055458e+01  -1.655786e+02
   2.266665e+02   7.946686e+01
   1.381835e+02   9.989848e+01
   1.113869e+02   1.484168e+02
  -1.102140e+02   4.281338e+01
  -8.654413e+01  -1.043879e+01
  -4.646190e+01  -2.566477e+01
   3.853598e+01  -3.754875e+01
  -2.075506e+01  -8.150091e+00
  -7.752672e+01  -6.705482e+01
  -4.298256e+01  -9.890458e+01
   3.187998e+01  -8.055892e+01
   1.434033e+02  -4.692736e+01
   1.453227e+02   8.524103e+01
  -3.527304e+00   1.567586e+02
  -1.988362e+02   2.305604e+02
  -1.564818e+02   4.970609e+01
  -1.358204e+02  -1.013818e+02
  -1.956150e+01  -1.522536e+02
   2.988010e+01  -1.351021e+02
  -3.170604e+00  -7.464214e+01
   6.197117e+01  -2.941439e+01
   9.874393e+01  -6.523567e+01
   1.253352e+02   2.331880e+01
   1.172588e+02   8.354721e+01
   1.416715e+01   1.151369e+02
  -2.708263e+01   6.499907e+01
  -7.243552e+01  -2.589563e+01
  -4.861879e+01  -1.331377e+02
   1.069078e+01  -1.159889e+02
   1.286549e+02  -1.284147e+01
   1.231069e+02   7.071107e+01
   4.576018e+01   1.394591e+02
  -2.563226e+01   1.142684e+02
  -5.908268e+01   1.245417e+02
  -9.427245e+01   6.338623e+01
  -5.220023e+01   5.509160e+01
  -1.760940e+02  -1.595850e+01
  -1.854930e+02  -2.833864e+01
  -9.422721e+01  -1.748053e+02
   3.228654e+01  -2.592334e+02
   2.617891e+02  -2.014300e+02
   2.618267e+02  -8.857330e+01
   1.330927e+02   1.005344e+02
  -2.857963e+01   1.107480e+02
  -5.783251e+01   8.613668e+01
   4.595653e+00   3.428211e+01
   9.196526e+01   3.023629e+00
   5.028432e+01   6.486991e+01
  -3.839594e+01   4.623355e+01
  -1.387013e+01   3.669920e+01
  -5.540616e+01  -5.288284e+01
   6.278311e+00  -7.045729e+01
   7.227550e+01   8.013479e+00
   6.402894e+01   1.253113e+02
  -4.817099e+01   1.611582e+02
  -1.230586e+02   9.287762e+01
  -2.001990e+02  -4.816054e+01
  -1.014843e+02  -1.749352e+02
   4.839497e+00  -1.387892e+02
   1.094079e+02  -5.109464e+01
   7.145685e+01   4.721232e+01
   3.139934e+01   6.338825e+00
  -2.619044e+01  -4.401630e+01
   4.455656e+00  -7.106920e+01
   3.608164e+01  -3.091085e+01
   1.001171e+02   3.812535e+01
   3.920677e+01  -1.256918e+01
  -2.740872e+01  -1.394538e+01
  -9.813349e+00  -8.053642e+01
   6.503828e+01  -1.277052e+01
   1.557983e+02   1.423190e+01
   1.025382e+02   1.036218e+02
  -1.077339e+00   1.165478e+02
  -1.317886e+02   1.270070e+02
  -1.898520e+02   4.640427e+01
  -7.129861e+01  -3.971863e+01
   2.235202e+01  -2.568796e+01
   2.274971e+01   1.605528e+00
  -2.807999e+01   6.486781e+01
  -7.058789e+01  -5.489629e+00
  -8.722567e+01  -5.972940e+01
  -3.448954e+01  -8.680778e+01
   6.833236e+01  -1.033496e+02
   5.739123e+01   1.370744e+01
   6.977967e+00   2.906327e+01
  -2.903943e+00  -3.237830e+00
  -9.242272e-01  -5.288770e+01
   5.310126e+01  -2.955479e+01
   7.841975e+01   6.621750e+00
   9.002507e+01   1.014370e+02
  -1.738998e+01   1.134584e+02
  -6.278961e+01   5.773412e+01
  -6.408776e+01  -3.648835e+00
  -5.273105e+01  -3.668810e+01
   4.272721e+01  -4.317487e+01
   6.769351e+01  -1.381974e+01
  -1.630162e+01   5.557162e+00
  -9.493313e+00   6.756389e+00
  -4.568940e+00  -5.370260e+01
   6.421439e+01   1.185872e+00
   7.884725e+01   4.038540e+01
  -8.953998e+00   1.071491e+02
  -7.969169e+01   9.857994e+01
  -6.813466e+01   3.972752e+01
  -1.149584e+02  -9.133113e+01
   2.809400e+01  -8.079800e+01
   6.414639e+01  -7.676024e+01
   8.333956e+01  -4.122920e+00
   4.462639e+01   2.559705e+01
   2.265572e+01  -1.710982e+01
   2.735054e+01  -4.168993e+01
   7.873742e+01   1.736876e+01
   2.643538e+01   1.866945e+01
  -2.438491e+01   3.550252e+01
  -6.862641e+01   1.641936e+01
  -5.368366e+01  -4.395332e+01
  -7.340933e-01  -5.489695e+01
   8.189155e+01  -2.728126e+01
   1.587594e+02   4.095249e+01
   9.607616e+00   1.230666e+02
  -8.462215e+01   1.003895e+02
  -1.230627e+02   1.863276e+01
  -9.552167e+01  -7.123510e+01
  -5.004778e+01  -8.859037e+01
   3.255111e-01  -3.330308e+01
   3.696282e+01  -3.694530e+01
   3.074899e+01  -4.744033e+01
   1.961954e+01  -5.400756e+01
   5.361932e+01  -2.654175e+01
   5.249787e+01   1.224702e+01
   4.275271e+01   7.131783e+01
  -2.751070e+00   1.184539e+02
  -5.452900e+01   5.708891e+01
  -9.135331e+01  -2.673920e+01
  -4.023111e+01  -3.255207e+01
   5.084910e-01  -8.815021e+01
   1.337261e+01  -1.771919e+01
   5.838519e+00   1.581118e+01
   4.366719e+00   1.490189e+01
  -4.504269e+01   1.183424e+01
   7.106208e+00  -7.479439e+00
   6.168032e+01   2.622225e+01
   9.576992e+00   3.212757e+01
  -3.448662e+01   3.141795e+00
  -1.126167e+02  -1.888846e+01
  -7.118813e+01  -3.601216e+01
   2.484645e+01  -5.876862e+01
   6.485732e+01  -4.386844e+01
   7.653047e+01  -1.379365e+01
   6.118796e+00   3.193759e+01
  -2.314854e+01   3.611034e+01
  -2.769687e+01  -1.802208e+01
  -1.242698e+01  -6.064982e+01
   1.389957e+01  -3.638516e+01
   5.792586e+01   3.165374e+00
  -3.995791e+00   9.913805e+00
   5.916004e+01   2.606172e+01
   1.287483e+01  -1.192117e+01
   2.275626e+01   1.385686e+01
   8.818021e+00   3.645042e+01
  -6.270981e+00   1.140722e+02
  -9.325525e+01   6.033306e+01
  -1.512274e+02   3.731370e+01
  -9.172277e+01  -5.843065e+01
   3.221781e+01  -4.323543e+01
   6.948925e+01  -7.533131e+01
   6.930594e+01  -7.965330e+00
  -1.635491e+01  -2.182422e+00
  -7.161797e+01   2.496359e+00
  -3.825312e+01  -3.747726e+01
   4.850902e+01  -5.086840e+01
   8.149473e+01   4.784851e+00
   5.320580e+01   4.309473e+01
   3.016702e+01   6.105156e+01
  -6.051955e+01   3.115181e+01
  -8.184521e+00  -2.862273e-01
   3.657475e+01  -4.321079e+01
   5.814208e+01   5.894212e+00
  -1.617571e-01   6.687634e+01
  -5.097136e+01   7.180006e+01
  -5.811860e+01   4.465842e+01
  -9.139507e+01  -5.501542e+01
  -1.515860e+01  -9.811641e+01
   4.080926e+01  -6.330467e+01
   6.937455e+01   5.332333e+00
   3.964687e+01   4.681322e+01
  -4.123528e+01   6.503238e+01
  -3.880630e+01  -7.360663e+00
  -4.956908e+00  -3.853004e+00
  -1.763483e+01  -1.663906e+01
   1.472163e+01   1.941429e+01
  -5.800337e+00  -1.158522e+01
  -5.919396e+00  -3.671181e+01
   7.782827e+00  -7.360333e+01
   2.139714e+01  -2.007839e+01
   4.932322e+01   2.552402e+01
   6.010000e+01   6.807024e+01
  -5.297527e+00   2.568786e+01
  -4.110202e+01   2.886586e+01
  -4.849535e+01  -2.241174e+00
  -9.042659e+00   2.113571e+01
   2.006364e+01  -1.359558e+01
   3.322165e+01   5.705054e+00
   7.910411e-01   6.353571e+00
  -7.908407e+00   6.873992e+00
   9.809852e+00   7.504989e+00
   5.143848e+01   2.613532e+00
   1.780755e+01   3.024659e+01
  -3.275584e+01   8.772398e+01
  -8.970744e+01   8.506015e+00
  -8.849605e+01  -1.238180e+01
   9.782403e+00  -9.158287e+01
   1.869190e+01  -8.999680e+01
   6.292211e+01  -2.050490e+01
   7.703899e+01  -1.592799e+01
   1.927692e+00   1.569498e+01
   1.792851e+01  -2.430763e+01
   1.641098e+01  -1.861034e+00
  -6.771362e-01   6.228016e+01
  -1.143281e+01   3.687026e+01
  -2.036029e+01   3.031216e+01
  -5.241324e+01   1.233893e+01
   1.708630e+01  -3.310086e+01
  -3.778318e+01  -4.489526e+01
   2.142718e+01   1.246238e+00
   5.031071e+01   5.234878e+01
  -1.295852e+01   5.542365e+01
  -3.587109e+01   2.110786e+01
  -6.461736e+01   1.515620e-01
  -2.753381e+01  -1.709622e+01
   2.313079e+01  -5.015500e+01
   2.915488e+01  -1.276250e+01
  -2.161690e+01  -9.306903e+00
  -1.108249e+01  -3.518774e-03
  -1.558185e+01  -6.279034e+00
   1.267746e+01  -6.218624e+01
   6.175596e+01  -4.679361e+01
   4.851582e+01   1.868419e+01
  -2.313165e+01   5.753641e+01
  -5.338649e+01   5.150139e+01
  -1.747032e+01   1.989761e+01
   2.882371e+00  -9.632215e+00
   1.395650e+01  -2.133733e+01
   1.287546e+01   4.001438e+00
   2.005477e+01   2.539733e+01
  -1.304414e+01   1.395342e+01
  -2.370768e+01  -1.600639e+01
   6.507449e+00  -2.822180e+00
  -1.762749e+01  -2.686230e+01
  -3.995186e+00   1.178465e+01
   8.007004e+00  -1.061685e+01
  -1.205990e+00  -1.443239e+01
  -3.032964e+01  -6.164828e+01
   2.452554e+01  -1.926817e+00
   1.710539e+01   5.083596e+01
  -7.434631e+00   4.871825e+01
  -4.600998e+01  -4.380779e+00
  -5.876403e+01  -2.949783e+01
  -1.213916e+01  -3.491051e+01
   1.253795e+01  -4.137699e+01
   2.627000e+01   2.968296e+01
   2.190688e+01   7.571962e+00
  -1.453635e+01   1.533303e+01
  -3.318553e+01   5.299796e+00
  -2.414181e+01  -7.025687e-02
   2.330901e+01   2.430321e+01
  -2.920404e+00  -3.575413e+01
   1.883483e+00   2.765333e+01
  -2.994575e+01  -5.032605e+00
