
 $NMID
 id='ANONYMOUS ', fmtdat='(2E16.6)'
 volume=1.0
 tramp=1.0
 $END
  -1.190564e+03  -4.580396e+02
  -5.545759e+02  -5.749261e+02
  -1.070541e+02  -8.248835e+02
   6.074916e+02  -4.778712e+02
   5.631261e+02  -1.205849e+02
   7.722160e+01   3.725174e+01
  -8.085641e+01  -1.084727e+01
   5.624016e+01  -1.463362e+02
   2.090626e+02   5.416443e+00
   1.773378e+02  -5.714948e+01
   1.257334e+02   2.659736e+02
  -7.999259e+01   2.999533e+02
  -3.714983e+01   1.053440e+02
  -1.238760e+02  -8.110249e+01
   3.221049e+01  -2.166025e+02
   1.884909e+02   1.999714e+01
   7.330686e+01   1.629947e+02
   3.991362e+01   2.849142e+02
  -1.453535e+02   1.478705e+02
  -1.450494e+02  -8.091564e+01
  -5.319921e+01  -1.700877e+02
   6.026608e+01  -1.175389e+02
   1.329825e+01  -3.008294e+01
  -6.239721e+01  -6.417169e+01
  -1.284624e+02  -2.182754e+02
   4.172451e+01  -7.752600e+01
   8.501277e+01  -7.194585e+01
   1.724828e+02   2.515845e+02
  -6.230284e+00   1.590546e+02
  -6.551070e+01   1.454259e+02
  -1.391795e+02  -2.009883e+02
   1.271337e+01  -1.308114e+02
   1.770696e+02  -7.462604e+01
   2.238681e+02   2.902858e+01
   1.393297e+02   3.489480e+01
  -2.386613e+01   1.711528e+02
   2.794063e+01   9.295728e+01
   5.878399e+01   6.888753e-02
   7.232006e+01  -8.290250e+00
   4.674032e+01   1.111591e+02
  -4.146108e+01   1.488417e+02
  -1.293584e+02   1.683714e+02
  -2.813924e+01   7.711686e+01
   1.435525e+01  -6.269657e+01
   2.936329e+01  -3.998038e+01
   6.923429e+01   1.173149e+02
  -1.616363e+02   9.846516e+01
  -1.928810e+02  -4.580644e+01
  -1.373370e+02  -1.113346e+02
   3.411478e+01  -1.437210e+02
   8.839896e+01  -9.675290e+01
   1.232987e+02   1.369053e+02
   7.862168e+01   6.662051e+01
   2.133734e+01   8.896284e+01
  -1.024596e+02   1.106957e+01
  -5.605729e+01   1.279152e+01
   4.567881e+00  -9.888327e+00
   1.705510e+01  -4.194037e+01
  -3.539063e+01  -5.121110e+00
  -6.478759e+01  -6.268463e+01
   1.222532e+01  -1.151907e+02
   4.535198e+01  -9.081333e+01
   1.520809e+02  -4.791319e+01
   9.957798e+01   6.975748e+01
   1.884124e+01   1.907455e+02
  -1.825644e+02   1.663053e+02
  -1.722141e+02  -1.055605e+01
  -7.633317e+01  -1.090852e+02
  -3.512123e+01  -1.556288e+02
   6.749013e+01  -1.347400e+02
  -2.424020e+00  -5.257131e+01
   5.252105e+01  -7.144078e+01
   5.455874e+01  -3.020612e+01
   1.449122e+02   4.600590e+01
   7.208269e+01   1.296610e+02
  -2.646994e+00   9.970530e+01
  -5.062652e+01   5.356385e+01
  -6.248226e+01  -8.007790e+01
  -2.249127e+01  -1.445949e+02
   7.147539e-01  -9.222848e+01
   1.108397e+02  -7.595716e+00
   9.681882e+01   1.223955e+02
   5.449777e+01   1.353488e+02
  -4.842308e+01   9.085209e+01
  -7.511504e+01   8.088069e+01
  -5.048808e+01   5.095101e+01
  -6.088111e+01   3.359502e+01
  -1.274365e+02  -9.714579e+00
  -1.714395e+02  -9.991306e+00
  -9.492848e+01  -1.350081e+02
   3.435870e+01  -1.933485e+02
   2.034769e+02  -1.298097e+02
   2.177847e+02   4.010693e+00
   9.656430e+01   7.018885e+01
  -4.496879e+01   1.066888e+02
  -6.342881e+01   6.279928e+01
   7.443577e+00   3.190955e+01
   5.898941e+01  -1.160675e+01
   5.462187e+01   3.467143e+01
   1.243808e+01   4.002466e+01
  -5.493420e+01   4.708831e+00
   2.053009e+01   6.902093e-02
   3.416341e+01  -1.722554e+01
   5.831237e+01   2.826579e+01
   5.341752e+01   1.118642e+02
  -6.259658e+01   1.609268e+02
  -9.415255e+01   4.712032e+01
  -1.400861e+02  -5.753670e+01
  -9.312194e+01  -1.453060e+02
   1.672920e+01  -1.039098e+02
   7.213671e+01  -7.527295e+01
   1.270934e+01   1.081021e+01
   3.278845e+01   2.752767e+00
  -3.590961e+01  -2.762037e+01
   3.401543e+01  -2.518215e+01
   1.401167e+01  -2.427553e+01
   4.021683e+01   1.127246e+01
   2.867823e+01   3.681310e+00
  -2.873059e+01  -1.516796e+01
   1.601947e+01  -7.552434e+01
   5.651273e+01   4.600074e+00
   1.773406e+02   3.923590e+01
   7.205547e+01   1.268182e+02
  -1.308684e+01   9.547033e+01
  -1.260523e+02   9.402903e+01
  -1.173857e+02   2.927352e+01
  -3.470796e+01  -5.215927e+01
   3.252986e+01  -4.884828e+01
   1.972848e-01   2.753987e+01
  -1.759895e+01   3.257910e+01
  -1.056335e+02   2.175112e+01
  -6.563807e+01  -6.908508e+01
   1.057793e+01  -5.149977e+01
   5.813538e+01  -3.594946e+01
   2.731745e+01   2.048039e+01
   9.845928e+00   8.588013e+00
  -2.306554e+01  -4.041790e+01
  -5.357252e+00  -2.891098e+01
   5.052995e+01  -1.887801e+01
   8.604113e+01   3.470057e+01
   8.074668e+01   7.680775e+01
  -3.095505e+01   3.907541e+01
  -6.198328e+01   2.135274e+01
  -5.496978e+01   1.212937e+01
  -2.717906e+01  -4.769296e+01
   1.036483e+01  -1.218610e+01
   8.498513e+00  -2.136506e+01
  -4.250247e+01   4.804977e+01
  -4.243415e+01   1.938858e+01
  -4.471669e+00  -5.095062e+01
   4.711902e+01  -1.585470e+01
   4.222099e+01   5.236031e+01
  -8.233602e+01   9.867960e+01
  -3.839174e+01   5.289814e+01
  -1.231457e+02  -3.623149e+01
  -6.756611e+01  -6.417902e+01
   5.377235e+00  -5.872178e+01
   3.496968e+01  -3.614986e+01
   6.457928e+01   1.930743e+01
   1.540970e+01   2.365078e+01
   2.466924e+01   3.121710e+00
   2.069200e+01  -1.200643e+01
   5.227481e+01   1.118974e+01
   2.811088e+01  -7.489896e+00
  -3.941598e+01   2.966299e+01
  -6.725299e+01   3.862658e+01
  -1.997051e+01  -1.967729e+01
   2.043275e+01  -5.898533e+01
   5.350102e+01  -6.563663e+00
   9.252469e+01  -1.173377e+01
  -2.600296e+00   1.037544e+02
  -6.435122e+01   7.007172e+01
  -1.240863e+02   1.642784e+01
  -9.795760e+01  -5.797351e+01
  -3.405062e+01  -8.150702e+01
   5.436961e+01  -6.754250e+01
   2.792048e+01  -4.870796e+01
   9.812357e+00  -2.443798e+01
   3.320581e+01  -1.048493e+01
   2.432215e+01  -2.412200e+01
   5.104811e+01   1.999288e+01
   1.626416e+01   7.239173e+01
  -7.755806e+00   1.199967e+02
  -5.571583e+01   9.937053e+01
  -5.480177e+01  -6.327165e+01
  -2.133626e+01  -7.842862e+01
   2.089038e+01  -5.979971e+01
   3.258091e+01  -2.334583e+01
   4.324527e+01   2.218957e+01
   1.039794e+00   3.601886e+01
  -3.258199e+01   1.519500e+00
   2.478085e+01  -2.251443e+01
   2.661279e+01   5.410782e+01
   1.198073e+01   3.153418e+01
  -3.450980e+00   2.363210e+01
  -8.588521e+01  -6.477328e+01
  -5.474965e+01  -5.945640e+01
   2.346595e+01  -4.162123e+01
   4.101579e+01  -3.371653e+01
   8.561310e+01   1.201164e+01
   1.307911e+01   3.560318e+01
   3.307786e+00   9.481145e+00
  -5.895926e+00  -4.319603e+01
  -1.929461e+01  -4.530814e+01
   8.605464e+00   1.252561e+00
   1.828612e+01  -3.011206e+00
   2.367979e+01   3.356084e+01
   3.219068e+01   1.436896e+01
   2.893423e+01   6.682514e+00
   3.884979e-01  -2.558311e+00
   9.594095e+00   3.889612e+01
  -3.852447e+01   5.293293e+01
  -4.983302e+01   3.637450e+01
  -8.841532e+01   5.192095e+00
  -6.757726e+01  -6.135567e+01
   1.169935e+01  -6.987729e+01
   5.704089e+01  -6.132795e+00
   4.177967e+01   1.143100e+01
  -8.068934e+00  -4.710018e-01
  -6.529598e+01  -1.636135e+01
  -2.607007e+01  -2.030550e+01
   3.649338e+01  -3.721567e+01
   8.153348e+01  -2.535109e+01
   5.644379e+01   3.457742e+01
  -1.206870e+01   2.503838e+01
  -4.648176e+01   3.510195e+01
  -3.018712e+01   8.677520e+00
   1.825618e+01  -3.033261e+01
   2.158924e+01   2.861684e+01
  -2.078368e+01   5.351133e+01
  -3.941782e+01   5.147378e+01
  -5.759131e+01   1.362217e+01
  -5.461785e+01  -5.176718e+01
  -8.149512e+00  -8.302557e+01
   3.541637e+01  -7.407666e+01
   5.118456e+01   9.746928e-01
   1.194438e+01   6.141051e+01
   1.105994e+01   3.310395e+01
  -2.610232e+00   2.926444e+01
  -2.369822e+01  -1.700039e+01
  -3.413711e+01  -9.203417e+00
   9.591969e+00   7.159608e+00
   2.308607e+01  -2.657203e+01
  -1.049802e+01  -6.030929e+01
   3.253145e+01  -1.925233e+01
   5.541436e+01  -2.353576e+01
   5.069611e+01   1.880393e+01
   3.166904e+01   7.147963e+01
  -1.406145e+01   3.455227e+01
  -1.431349e+01   5.711819e+00
  -1.449397e+01   2.339196e+01
  -4.334684e+00   1.346645e+00
   5.014406e+01   1.000685e+00
   7.122159e+00  -1.368032e+01
   2.198804e+01   8.807002e-01
  -2.447778e+01   1.958322e+01
   2.738944e+01  -8.789746e+00
   2.067353e+01   3.442587e+01
   2.716687e+01   3.323619e+01
  -6.227566e+01   4.874609e+01
  -7.408969e+01   9.422244e+00
  -5.669676e+01  -1.606646e+01
  -6.512958e+00  -7.964776e+01
   2.608048e+01  -4.012197e+01
   3.122186e+01  -1.307879e+01
   4.630197e+01  -2.329811e+01
   1.295908e+01  -2.449172e+00
  -1.255444e+01   1.972589e+01
  -3.459605e-01  -8.294492e+00
  -1.856529e+01   4.198487e+01
  -2.783820e+01   1.944803e+01
  -3.614289e+01   1.919662e+01
  -3.101138e+01  -1.319854e+01
   1.275743e+00  -3.349977e+01
  -3.428626e+01  -4.704948e+01
   4.447725e+01   6.755677e-01
   4.293703e+01   5.584728e+01
   4.020535e+01   6.429453e+01
  -3.288329e+01  -4.931944e+00
  -5.600751e+01   9.138241e+00
  -2.326585e+01  -8.558562e+00
   2.452242e+01  -4.002009e+01
   2.733793e+01   8.027341e+00
  -3.192940e+01  -6.819630e+00
  -5.266471e+01  -9.199340e-02
  -7.923843e+00  -1.382267e+01
   1.880421e+01  -4.164769e+01
   7.720285e+01  -2.452621e+01
   2.352897e+01   4.456500e+01
  -2.117473e+00   2.288514e+01
  -3.328394e+01   2.516033e+01
  -1.599115e+01   1.876024e+00
   5.954831e+00   3.134009e+00
   1.494178e+01   1.357278e+01
   9.181884e+00  -2.903797e+01
  -1.398251e+01   4.169671e+01
   8.327380e-01   3.115115e+01
  -9.711691e+00  -2.510157e-01
  -8.508927e+00   3.665855e+00
   9.595393e-01  -8.004020e+00
  -2.293258e+01   3.757033e+01
  -6.544910e-01   6.441286e+00
   1.973671e+01  -2.803868e+01
  -6.029287e+00  -2.497840e+01
  -2.839543e+01   1.692600e+01
   1.532146e+01   2.074469e+01
  -1.548579e+01   2.845934e+01
  -1.262794e+01  -1.047629e+01
  -1.406585e+01  -1.565138e+01
   1.169814e+01  -7.903191e+00
   1.851293e+01  -1.919286e+01
   4.645480e+01  -2.405085e+00
   3.610270e+01   3.285345e+01
  -3.309057e+01   3.168463e+01
  -3.153060e+01   1.756300e+01
  -2.686995e+01  -1.976075e+01
  -9.757915e+00   1.142803e+01
   3.109441e+01   1.489965e+00
  -7.864869e+00   1.981249e+00
   1.050495e+00  -1.058498e+01
