
 $NMID
 id='ANONYMOUS ', fmtdat='(2E16.6)'
 volume=1.0
 tramp=1.0
 $END
   1.452761e+03   7.354811e+02
   8.442592e+02   6.864643e+02
   3.116070e+01   1.187849e+03
  -7.226802e+02   5.912993e+02
  -4.913717e+02   1.473006e+02
  -6.167587e+01   6.121326e+01
   9.789488e+01   1.366116e+02
   1.493895e+01   2.727098e+02
  -2.019459e+02   9.360376e+01
  -1.081563e+02   1.035937e+02
  -1.540412e+02  -2.339938e+02
   9.107407e+01  -2.708114e+02
   1.020215e+02  -5.220817e+01
   1.242974e+02   1.738704e+02
  -5.298447e+01   2.237490e+02
  -2.682923e+02   2.395027e+00
  -8.461621e+01  -2.508171e+02
   4.866964e+01  -3.392853e+02
   1.496009e+02  -1.571758e+02
   1.631340e+02   1.289677e+02
   2.998551e+01   1.915270e+02
  -7.662088e+01   1.308625e+02
  -1.959302e+01   4.162884e+01
   8.016515e+01   1.077905e+02
   1.165479e+02   2.175084e+02
  -6.998580e+01   1.386073e+02
  -1.941556e+02  -2.274337e+01
  -2.739743e+02  -2.542639e+02
   1.059592e+01  -1.690267e+02
   9.861056e+01  -8.252103e+01
   1.956776e+02   2.443431e+02
   3.103597e+01   1.505258e+02
  -1.889619e+02   7.816460e+01
  -2.431566e+02  -5.362428e+01
  -1.382559e+02  -5.542680e+01
   2.781975e+01  -1.380178e+02
  -3.165568e+01  -1.115387e+02
  -6.752960e+01   5.324433e+01
  -1.345598e+02   3.332638e+01
  -9.780022e+01  -1.740350e+02
  -6.580077e+00  -3.079654e+02
   1.520017e+02  -2.318962e+02
   1.155242e+02  -4.576427e+01
   6.209247e+01   6.349881e+01
  -8.192213e+01   3.986720e+01
  -9.575780e+01  -1.192460e+02
   1.299111e+02  -1.529134e+02
   2.536523e+02   9.920784e+01
   2.125086e+02   1.669213e+02
  -1.172318e+00   2.321545e+02
  -1.215657e+02   1.073859e+02
  -1.626949e+02  -1.433163e+02
  -9.133337e+01  -1.579357e+02
  -2.155472e+01  -1.235894e+02
   1.678871e+02  -1.093902e+01
   8.472907e+01   7.506185e+00
   1.076078e+01  -3.737182e+01
  -3.253399e+01   4.604422e+01
   8.417145e+01   2.362420e-01
   1.099195e+02   5.630866e+01
  -1.936757e+01   5.618179e+01
  -9.119481e+01   1.375934e+02
  -1.904446e+02   7.400661e+01
  -1.092131e+02  -7.609929e+01
   1.966232e+01  -1.928170e+02
   1.767722e+02  -1.786333e+02
   2.038091e+02   2.638962e+00
   1.039578e+02   1.233838e+02
  -9.771166e+00   1.687411e+02
  -3.957185e+01   1.751135e+02
  -4.384835e+00   1.038198e+02
  -2.770629e+01   1.105398e+02
  -6.520911e+01   5.097980e+01
  -1.679302e+02  -2.374377e+01
  -9.330484e+01  -1.304947e+02
  -1.442785e+01  -1.312779e+02
   5.380420e+01  -9.036274e+01
   1.040011e+02   7.665094e+01
   2.396582e+01   1.635477e+02
  -3.992153e+01   8.459254e+01
  -1.277894e+02  -8.521531e+00
  -1.644893e+02  -9.746316e+01
  -6.685110e+01  -1.559076e+02
   6.519377e+00  -1.391690e+02
   9.639938e+01  -6.898394e+01
   4.994837e+01  -6.957539e+00
   1.073527e+02  -3.388670e+01
   1.382779e+02   1.377532e+01
   1.915694e+02   6.195409e+01
   1.139117e+02   1.509594e+02
  -7.393767e+01   2.135475e+02
  -2.381677e+02   1.409899e+02
  -2.283855e+02  -3.613785e+01
  -9.880647e+01  -8.027334e+01
   5.255976e+01  -8.259623e+01
   4.815542e+01  -9.720583e+01
   1.911338e+01  -3.328829e+01
  -6.297528e+01   1.049322e+01
  -3.764630e+01  -4.376337e+01
   2.805025e+01  -6.629337e+01
   9.151306e+01  -6.925185e+00
   9.593600e+00   1.193952e+01
  -5.219345e+01   4.486454e+01
  -1.008003e+02  -1.691888e+01
  -4.952655e+01  -1.158838e+02
   5.361584e+01  -2.361658e+02
   1.038553e+02  -7.282562e+01
   1.703600e+02   4.471499e+01
   9.967843e+01   2.080005e+02
  -2.135369e+01   1.217591e+02
  -6.911252e+01   7.711456e+01
  -5.389163e+01   9.853741e+00
   3.311663e-01  -9.242209e+00
   1.921913e+01   4.701163e+01
  -5.154372e+01   6.112833e+01
  -6.873039e+01   2.155364e+01
  -8.317978e+01  -2.442686e+01
  -6.459575e+00  -2.626379e+01
   5.048075e+01   9.484714e+00
   4.743129e+00   4.718305e+01
  -7.322470e+01   3.988075e+01
  -1.548782e+02  -3.799194e+01
  -1.239569e+02  -1.161219e+02
   1.440364e+01  -1.351272e+02
   1.441455e+02  -9.429467e+01
   1.121092e+02  -2.876481e+00
   3.631828e+01   2.448704e+01
  -2.396797e+01   3.425121e+01
  -1.451106e+01  -2.554993e+01
   2.986386e+01  -2.238968e+01
   1.012291e+02  -9.849681e+00
   8.194074e+01   6.823124e+01
  -1.165976e+00   1.023011e+02
  -8.367331e+01   5.578184e+01
  -4.922782e+01  -2.332938e+01
  -1.118532e+01  -2.125530e+01
   2.777409e+01   3.866188e+01
   8.587177e+00   5.651305e+01
  -7.584302e+01   4.996054e+01
  -1.262212e+02  -1.713763e+01
  -9.178126e+01  -6.941828e+01
   4.547474e+01  -8.173821e+01
   1.023214e+02  -6.015887e+01
   9.503847e+01  -1.869050e-01
   2.184344e+01   7.504440e+01
  -8.388367e+00   1.280234e+01
  -3.951077e+01   5.019924e+00
  -4.535222e+00  -5.100034e+01
   1.346500e+01  -1.772280e+01
   7.939839e+00  -4.239427e-01
  -1.633973e+01  -5.270865e+00
  -6.685126e+01  -5.550244e+01
   5.879202e+00  -1.367933e+02
   9.728079e+01  -8.600807e+01
   1.271819e+02   3.773783e+01
   6.404030e+01   1.215097e+02
  -1.468766e+01   1.195665e+02
  -5.898514e+01   5.674305e+01
  -7.683478e+01  -3.813813e+00
  -3.060008e+01   1.695133e-01
  -4.903125e+01  -1.827459e+01
  -3.083725e+01   2.190005e-01
  -2.854446e+01   1.089920e+00
  -3.420694e+01   1.172718e+01
   3.826363e+01  -6.915399e+01
   8.604468e+01  -2.600940e+01
   5.542959e+01   2.827743e+01
  -2.817706e+01   5.824595e+01
  -8.457577e+01   3.179140e+01
  -1.293828e+02  -3.436745e+01
  -8.863922e+00  -1.535991e+02
   6.755707e+01  -7.939186e+01
   1.628555e+02  -3.816271e+01
   1.264032e+02   5.675614e+01
   3.203070e+01   1.089913e+02
  -6.407707e+01   7.057426e+01
  -6.537120e+01   1.940406e+01
  -1.250572e+01   2.223090e+01
  -2.921015e+01   4.776125e+01
  -6.322231e+01   2.693480e+01
  -6.418767e+01  -4.231733e+01
  -8.374705e+01  -6.003896e+01
  -8.831780e+00  -1.251878e+02
   6.840068e+01  -1.074314e+02
   1.062624e+02   4.569944e+01
   6.217591e+01   7.477455e+01
  -3.153777e+01   7.293330e+01
  -6.308322e+01   4.189035e+01
  -3.005282e+01  -2.588176e+01
   4.738088e+00  -3.380155e+01
   5.113853e+00   9.045750e+00
  -4.041675e+01   6.956773e-01
  -2.860083e+01  -1.272363e+01
  -2.605674e+01  -2.285777e+01
   5.723998e+01  -3.829171e+01
   1.155126e+02   2.123464e+01
   5.623804e+01   7.344016e+01
  -4.989034e+01   5.396244e+01
  -5.355995e+01   4.803765e+01
  -9.367477e+01  -6.656207e+00
  -3.000751e+01  -4.126848e+01
   3.905990e+01   3.234604e+00
   4.032609e+01   1.356744e+01
  -8.873540e+00   3.819822e+01
  -7.741771e+00  -1.486299e+01
  -2.569523e+01   2.206329e+00
  -2.772460e+01  -7.032203e+01
  -4.882889e+01  -3.316583e+01
  -2.307820e+01   7.252987e+00
  -1.164018e+01   2.285457e+01
  -2.319514e+01  -4.928369e+01
   3.285846e+01  -9.257341e+01
   6.425076e+01  -1.013998e+02
   1.081672e+02  -7.361271e+00
   4.117200e+01   5.029262e+01
   2.079235e+00   6.674329e+01
  -5.347096e+01   2.895763e+01
  -2.104430e+01  -2.961466e+01
   1.952510e+01  -5.574377e+00
   8.435979e+01   4.881641e+01
   2.369311e+01   6.930357e+01
  -5.373820e+01   5.198811e+01
  -8.477756e+01   2.592704e+01
  -6.844484e+01  -1.683412e+01
   3.013050e+00  -4.482640e+01
   4.368450e+01  -1.945958e+01
   6.013333e+01   8.942962e+00
  -3.726872e+01   2.468866e+01
  -6.851056e+01  -5.920026e+01
  -3.214217e+01  -5.493461e+01
   5.043514e+01  -7.645567e+01
   8.129792e+01  -1.429571e+01
   6.252262e+01   5.485715e+01
   3.012983e+01   8.672038e+01
  -3.927917e+01   1.054381e+02
  -5.333311e+01  -4.871363e-02
  -7.582310e+00  -5.874992e+01
  -1.152187e+01  -5.949396e+01
   1.216092e+01  -2.658612e+01
  -1.309437e+01   4.215347e+01
   3.956715e+01  -5.436034e+00
  -7.061489e-01  -3.493643e+01
  -9.343333e+00   2.525454e+01
   3.302354e+01   2.958839e+01
  -6.768567e+00   6.836537e+01
  -5.279550e+01   1.298122e+01
  -7.065956e+01  -3.446624e+01
  -4.606134e+01  -2.430500e+01
  -4.200517e+00  -1.902852e+01
   2.693860e+01  -5.609192e+01
   3.294733e+01   7.599376e+00
   1.108679e+01   1.600174e+01
  -3.398525e+01   9.355951e+00
  -2.308051e+01  -4.437633e+00
   8.397542e+00   2.839856e+01
  -1.330996e+01   1.239523e+00
  -4.677489e+01   3.727828e+00
  -4.759065e+01  -3.926820e+01
   1.389058e+00  -3.862140e+01
   6.943681e+01  -5.845787e+01
   1.536256e+02   1.707941e+01
   8.678962e+01   4.563792e+01
  -4.182397e+00   7.930892e+01
  -3.241896e+01   7.756814e+01
  -2.144335e+01   1.892048e+01
  -4.343037e+01  -1.140997e+01
   1.441495e+01  -2.679762e+00
   1.191962e+01   1.097234e+01
  -6.114396e+00  -2.529937e+01
   3.262526e+00  -3.195335e+01
   1.288211e+01  -5.387491e+01
   3.646714e+01  -2.417085e+01
   5.178914e+01   1.228418e+01
   9.458678e+00   7.329682e+01
   9.213944e+00   7.390571e+01
  -5.134808e+01   1.066608e+01
  -5.403776e+01  -2.529813e+01
  -3.147824e+01  -3.659561e+01
   3.568229e+01  -3.360930e+01
   6.065581e+01   1.401775e+01
   3.091664e+01   5.345719e+01
  -4.358069e+01   3.317103e+01
  -2.439209e+01  -1.708954e+01
   9.863889e+00  -5.032275e+00
   2.154904e+01   3.175831e+00
   2.559882e+01   2.870936e+01
  -2.990450e+01   3.106350e+01
  -9.083738e+01   2.571889e+01
  -5.012035e+01  -2.751636e+01
  -1.002743e+01  -3.878997e+00
   4.074491e+01  -2.911975e+01
  -2.751114e+00  -7.352809e+00
  -3.812776e+01   1.561447e+01
   5.053621e-02   1.210103e+01
  -3.797844e+01   3.530332e+01
  -1.641569e+01  -2.132576e+01
  -7.389397e+00  -6.747328e+00
   1.548867e+01   7.535342e+00
   6.248594e+00   2.793318e+01
   1.095248e+01  -2.917882e+00
   3.022859e-01  -4.909810e+01
  -2.896860e+01  -7.554923e+00
   8.497817e+00   2.540310e+01
  -3.574792e+00   2.819743e+01
  -1.865717e+01  -1.230184e+01
  -6.526698e+00  -2.844134e+00
  -2.725114e+00  -2.152253e+01
   1.527108e+01  -5.157496e+00
  -1.504873e+01  -1.668195e-01
  -3.359514e+00   5.469493e+01
  -3.252211e+01   3.805986e+00
  -6.696370e+01  -3.993882e+01
  -1.802214e+01  -3.324749e+01
   7.438585e+00  -2.882553e+01
   2.093496e-01  -5.759960e+00
   5.320808e+00  -1.209745e+01
   1.270660e+01   6.011798e+00
   1.163985e+01   4.524768e+00
   3.322991e+00   1.533808e+01
   2.151982e+01  -1.015785e+01
