
 $NMID
 id='ANONYMOUS ', fmtdat='(2E16.6)'
 volume=1.0
 tramp=1.0
 $END
  -2.001761e+03  -4.661030e+02
  -1.088881e+03  -1.199567e+03
   1.385329e+02  -1.313966e+03
   8.975016e+02  -7.594120e+02
   4.942870e+02  -8.443604e+01
   1.287343e+02  -1.150056e+02
  -6.849429e+01  -1.807965e+02
  -6.336477e+01  -3.847337e+02
   2.238441e+02  -2.669744e+02
   2.730751e+02  -1.073398e+02
   1.494357e+02   3.098520e+02
  -9.364576e+01   3.052393e+02
  -1.823671e+02   8.116415e+01
  -2.211991e+02  -2.446730e+02
   7.201589e+01  -3.461171e+02
   2.849805e+02   9.322910e+00
   1.527612e+02   3.360167e+02
  -4.254365e+01   4.287780e+02
  -2.498581e+02   2.553968e+02
  -2.586400e+02  -1.411694e+02
  -9.852366e+01  -2.586916e+02
   1.486421e+02  -2.188336e+02
  -2.836545e+01  -1.058108e+02
  -1.646149e+02  -1.745042e+02
  -1.770419e+02  -2.795627e+02
   6.510196e+01  -2.082717e+02
   3.252523e+02  -4.390673e+01
   3.454453e+02   2.228072e+02
   3.454314e+01   2.030456e+02
  -1.927147e+02   1.055883e+01
  -2.989205e+02  -2.191860e+02
  -6.591718e+00  -2.411299e+02
   2.379934e+02  -1.710846e+02
   3.095305e+02   2.590389e+01
   1.735743e+02   1.110877e+02
  -1.462810e+01   1.978876e+02
  -1.467159e+01   1.134563e+02
   3.984327e+01  -8.428034e+01
   1.643975e+02  -6.260143e+01
   1.396462e+02   1.481194e+02
  -4.334287e+01   3.999526e+02
  -1.361254e+02   3.044935e+02
  -2.473642e+02   1.761315e+01
  -5.512690e+01  -1.319665e+02
   1.089368e+02  -5.464214e+01
   1.245971e+02   2.056934e+02
  -1.329459e+02   2.322481e+02
  -2.920923e+02  -1.501459e+01
  -2.949542e+02  -2.761498e+02
  -7.416568e+01  -3.187099e+02
   1.973276e+02  -1.747140e+02
   3.287454e+02   1.286487e+02
   1.878753e+02   2.280027e+02
   9.951167e+00   1.299755e+02
  -1.593160e+02   4.377956e+01
  -1.226489e+02   1.701297e+01
  -2.190756e+01   6.089784e+01
   7.707221e+00   6.670086e+00
  -7.171417e+01   1.300349e+01
  -1.242359e+02  -6.120216e+01
  -2.909198e+01  -8.836149e+01
   1.207912e+02  -1.410493e+02
   2.474007e+02  -6.817728e+01
   1.799991e+02   1.017754e+02
   3.867891e+00   2.818674e+02
  -2.562587e+02   2.634388e+02
  -2.953325e+02   4.480658e+01
  -1.585993e+02  -1.378752e+02
  -2.961573e+01  -2.547264e+02
   1.065760e+02  -1.940570e+02
   2.686258e+01  -1.097833e+02
   3.364794e+01  -1.001204e+02
   1.083405e+02  -8.099766e+01
   2.126592e+02  -4.812402e+00
   1.647678e+02   1.336535e+02
   5.263263e+01   1.823290e+02
  -1.266834e+02   1.011297e+02
  -1.516599e+02  -8.066323e+01
  -6.705700e+01  -2.375879e+02
   1.977532e+01  -1.462091e+02
   1.576085e+02  -1.918825e+01
   1.745511e+02   1.584687e+02
   7.200163e+01   1.787033e+02
  -5.706714e+01   1.937949e+02
  -1.408021e+02   8.395547e+01
  -7.876212e+01   8.432814e+01
  -1.396321e+02   5.725411e+01
  -1.932347e+02  -1.777320e+01
  -2.974972e+02  -7.962073e+01
  -1.765456e+02  -2.260222e+02
   7.450798e+01  -2.815726e+02
   3.353513e+02  -2.660729e+02
   3.127778e+02  -4.280558e+01
   1.401460e+02   1.233942e+02
  -2.086240e+01   1.566613e+02
  -9.612375e+01   1.439996e+02
  -2.402631e+01   2.308104e+01
   1.167540e+02  -5.639121e+00
   6.008193e+01   1.041608e+01
  -3.667481e+01   9.303781e+01
  -5.354443e+01   1.052878e+01
  -3.231523e+01  -4.212749e+01
   1.564637e+01  -9.298613e+01
   1.123129e+02   5.148647e+01
   1.564713e+01   1.717014e+02
  -4.021131e+01   2.886882e+02
  -1.698084e+02   1.285797e+02
  -2.324611e+02  -4.830881e+01
  -1.759144e+02  -2.788017e+02
   1.942022e+01  -1.686868e+02
   1.184408e+02  -6.565209e+01
   9.419940e+01  -2.157881e+01
   1.910467e+01  -6.183301e+00
  -2.414459e+01  -4.942599e+01
   3.547459e+01  -9.434618e+01
   1.082674e+02  -2.556552e+01
   1.138739e+02   1.895014e+01
   1.966858e+01   3.026477e+01
  -7.170400e+01  -1.279938e+01
  -4.685147e+01  -1.039517e+02
   1.296225e+02  -2.524552e+01
   2.417783e+02   4.744490e+01
   1.595759e+02   1.579292e+02
  -7.778348e+00   1.693895e+02
  -1.639012e+02   1.450032e+02
  -1.977662e+02   2.345185e+01
  -6.436913e+01  -5.753896e+01
   1.135118e+01  -2.030217e+01
  -2.391976e+00   2.524957e+01
  -7.114649e+01   5.266278e+01
  -1.233843e+02   2.159263e+01
  -1.338724e+02  -5.778415e+01
  -1.265624e+01  -1.647590e+02
   7.740366e+01  -5.976706e+01
   6.303472e+01   2.097522e+01
   2.800575e+01   5.004294e+01
  -3.011467e+01  -2.289072e-01
   1.604836e+01  -7.708154e+01
   8.173750e+01  -3.884090e+01
   1.307316e+02   4.946083e+01
   8.956631e+01   1.038823e+02
  -2.167822e+01   1.455425e+02
  -1.065471e+02   1.024131e+02
  -1.286427e+02  -7.900009e+00
  -3.886399e+01  -5.088303e+01
   4.137698e+01  -4.025232e+01
   4.853070e+01  -4.430027e+01
  -4.382625e+01   1.842988e+01
  -4.269364e+01   1.153354e+01
  -1.701609e+01   1.699675e+01
   5.545981e+01  -8.624451e+00
   7.496945e+01   7.580816e+01
  -3.857924e+01   1.430441e+02
  -1.233438e+02   1.267325e+02
  -1.660412e+02  -3.948797e+01
  -1.034026e+02  -1.331121e+02
   3.870257e+01  -1.592171e+02
   4.546251e+01  -7.185415e+01
   1.063137e+02  -1.022010e+01
   2.665748e+01   1.904529e+01
   5.701943e+01   2.553070e+01
   3.462448e+01   1.200668e+01
   7.527864e+01  -2.572265e+00
   6.297132e+01   5.414468e+01
  -3.748966e+01   6.283838e+01
  -9.548613e+01   3.040686e+01
  -5.075586e+01  -5.594256e+01
   2.663125e+01  -9.042423e+01
   1.166476e+02  -1.791346e+01
   1.516059e+02   7.094988e+01
   9.151085e+00   1.783571e+02
  -8.134636e+01   1.923832e+02
  -1.973724e+02   1.072809e+01
  -1.737681e+02  -1.136962e+02
  -4.525361e+01  -1.237442e+02
   3.223341e+01  -7.743628e+01
   6.517920e+01  -7.205545e+01
   4.475269e+01  -3.655988e+01
   5.712429e+01  -4.817855e+01
   1.056788e+02  -3.706072e+01
   8.146400e+01   3.800442e+01
   6.253066e+01   9.519726e+01
   3.102613e+01   1.555726e+02
  -8.363672e+01   1.444853e+02
  -1.470371e+02  -1.340763e+01
  -8.626932e+01  -9.126024e+01
   2.011907e+01  -1.010573e+02
   5.085592e+01  -4.823512e+01
   3.674523e+01   3.887510e+01
   1.116043e+01   5.442500e+01
  -2.927696e+01   3.181842e+01
   2.948449e+01   2.832786e+01
   2.384277e+01   3.715434e+01
   7.230424e+00   6.802186e+01
  -4.087009e+01   9.293848e+00
  -1.244889e+02   7.971867e+00
  -9.317534e+01  -7.337499e+01
   6.632892e+01  -9.074512e+01
   8.342449e+01  -5.524059e+01
   1.075828e+02   2.173333e+01
   7.176775e+01   4.554160e+01
  -3.620210e+01   1.674044e+01
  -7.746060e+01   2.034467e+00
   7.249944e+00  -4.595732e+01
   4.004822e+01  -2.883259e+01
   5.486725e+01  -7.530840e+00
   4.609020e+01   5.872663e+01
   1.704860e+01   2.889894e+01
   2.722698e+01  -1.871513e+01
   3.818536e+01  -2.784543e+01
   3.637085e+01   6.133283e+01
  -1.976583e+01   1.070761e+02
  -7.286700e+01   1.010674e+02
  -1.319453e+02   2.686632e+01
  -1.000365e+02  -7.225543e+01
   3.323229e+01  -1.177312e+02
   8.017056e+01  -4.091059e+01
   8.065418e+01   3.266356e+01
  -3.812569e+01   2.291901e+01
  -1.064140e+02  -2.023172e+01
  -6.199113e+01  -8.845961e+01
   6.581249e+01  -3.285584e+01
   1.346613e+02  -5.977595e+01
   1.032923e+02   2.310764e+01
   1.007694e-01   7.546780e+01
  -4.801563e+01   2.073852e+01
  -4.903247e+01  -2.794256e+00
   4.557469e+01  -2.096653e+01
   6.739390e+01   2.387324e+01
   4.032569e+00   9.094546e+01
  -7.540644e+01   8.565151e+01
  -8.441709e+01   3.413111e+01
  -9.553829e+01  -7.436654e+01
  -3.188199e+01  -1.306515e+02
   6.809451e+01  -9.560805e+01
   8.492627e+01   3.711848e+01
  -3.660224e-01   7.980389e+01
  -3.828629e+01   7.139883e+01
  -5.326231e+01   1.421211e+01
  -3.937754e+01  -5.421941e+01
  -2.410776e+01   1.448286e+00
  -1.205078e+01   1.916385e+01
   8.666148e-01  -4.529392e+01
  -5.061794e+01  -7.512793e+01
  -5.621891e+00  -1.045286e+02
   2.388666e+01  -3.964287e+01
   9.682214e+01   6.287280e+01
   1.005104e+02   3.260288e+01
  -3.034954e+00   4.153743e+01
  -5.638558e+01   6.137584e+00
  -3.968203e+01   8.930491e+00
  -4.753533e+00  -1.126703e+01
   3.241610e+01  -2.564171e+01
   1.688703e+01  -2.542689e+01
  -2.514066e+01   2.232140e+01
  -6.821442e+00  -1.365136e+01
   4.808962e+01   2.351038e+01
   6.300322e+01   7.526559e+01
   2.427648e+01   7.554413e+01
  -3.267177e+01   8.603354e+01
  -2.104410e+02   2.024773e+01
  -1.107707e+02  -5.452685e+01
  -8.590581e+00  -1.302345e+02
   5.731173e+01  -7.921146e+01
   9.268505e+01  -2.287733e+01
   4.571932e+01   5.148067e+00
   2.139326e+01   4.080448e+01
  -2.945559e+01   4.309498e+01
  -3.053589e+00  -5.175334e+00
   2.222430e+01   3.492932e+01
  -2.297380e+00   5.332459e+01
  -2.918724e+01   6.345722e+01
  -4.882905e+01  -2.347811e+01
  -4.498081e+01  -1.167290e+02
  -1.609058e+01  -1.036196e+02
   7.186746e+01  -1.194904e+01
   8.365249e+01   4.298871e+01
   4.217627e+01   8.792126e+01
  -3.000323e+01   2.311727e+01
  -8.149458e+01  -1.669130e+01
  -3.858889e+01  -4.118796e+01
   2.007357e+01  -6.009492e+01
   3.294236e+01  -1.567284e+01
  -6.852106e+00   2.037512e+01
  -3.373128e+01   3.190161e+00
  -3.020958e+01  -7.764269e+00
   7.713032e+01  -6.470815e+01
   1.181984e+02  -4.185829e+01
   5.847611e+01  -4.782862e+00
  -2.469374e+00   6.448791e+01
  -4.200819e+01   3.099975e+01
  -2.157838e+00   3.306340e+01
   2.592627e+01  -3.901010e+01
   2.226854e+01   1.620103e+01
   3.376216e+01  -4.150694e+00
   1.968936e+01   4.257190e+01
  -5.256130e-01   4.028489e+01
  -3.263030e+01  -5.064659e+00
  -3.861908e+01  -9.665661e+00
  -1.294743e+01  -2.585238e+01
  -5.419051e+00   2.669842e+01
  -2.590912e+00  -2.260310e+01
  -2.015152e+01  -1.799267e+01
   1.858636e+01  -4.146169e+01
   1.570941e+01  -1.408563e+01
   5.055363e+01   1.443421e+01
   2.426895e+01   2.796170e+01
  -3.238253e+01  -2.556508e+01
  -3.123406e+01  -3.802163e+01
   1.792167e-01  -4.322711e+01
   5.571220e+01  -6.988784e+00
   7.585842e+01  -2.177019e+01
   2.672787e+01   4.193465e+01
  -3.492026e+01   3.738145e+01
  -2.717907e+01  -9.229243e+00
  -1.970323e+01   9.627933e+00
   3.023472e+01  -1.882080e+01
   6.679813e+00  -3.217935e+00
   2.818637e+00   3.308952e+01
  -4.568749e+01   2.217534e+01
