
 $NMID
 id='ANONYMOUS ', fmtdat='(2E16.6)'
 volume=1.0
 tramp=1.0
 $END
   2.873942e+03   4.440879e+02
   1.733089e+03   1.978891e+03
  -5.308598e+02   1.601876e+03
  -1.552954e+03   9.358834e+02
  -3.477873e+02   2.389801e+01
   2.827217e+02   7.880740e+01
   2.943661e+02   2.942021e+02
  -1.462905e+02   7.022062e+02
  -6.651975e+02   3.577028e+02
  -6.342432e+02  -8.882498e+01
  -2.182478e+02  -5.298734e+02
   2.460629e+02  -5.678446e+02
   2.625518e+02  -3.430432e+01
   1.728347e+02   4.689768e+02
  -2.164461e+02   4.620184e+02
  -4.450443e+02  -1.485076e+01
  -2.243886e+02  -5.615897e+02
   9.231141e+01  -5.198663e+02
   4.280401e+02  -1.611510e+02
   3.109681e+02   1.699900e+02
   6.279702e+01   2.898726e+02
  -1.759719e+02   2.249630e+02
  -6.146333e+01   4.599673e+01
   2.074660e+02   4.046699e+01
   3.961985e+02   2.562490e+02
   1.925605e+01   3.599771e+02
  -5.006923e+02   2.288500e+02
  -5.880371e+02  -2.567825e+02
  -1.467496e+02  -4.233608e+02
   3.376411e+02  -2.403503e+02
   5.172964e+02   1.971669e+02
   1.647262e+02   5.005421e+02
  -3.495151e+02   3.535222e+02
  -5.124044e+02   1.122415e+02
  -3.015592e+02  -1.626908e+02
  -1.838221e+01  -3.765672e+02
   1.049475e+02  -1.180307e+02
  -1.647470e+01   1.945935e+02
  -1.537793e+02   2.160389e+02
  -2.659866e+02  -1.262124e+02
  -2.477620e+00  -6.366208e+02
   2.557137e+02  -5.017306e+02
   4.000931e+02   1.171822e+02
   1.396726e+02   2.961665e+02
  -2.248798e+02   7.404585e+01
  -2.199476e+02  -3.276322e+02
   1.424806e+02  -4.480501e+02
   4.678323e+02  -2.885293e+01
   5.186369e+02   3.987991e+02
   1.210303e+02   4.944798e+02
  -3.376068e+02   2.365551e+02
  -5.091229e+02  -1.581391e+02
  -2.926552e+02  -3.037854e+02
   8.615843e+01  -2.091125e+02
   3.436420e+02  -5.956429e+01
   1.536212e+02   8.113577e+01
  -5.555361e+01   2.666794e+00
  -6.064348e+01  -8.962036e+01
   1.443410e+02  -4.331914e+01
   2.591442e+02   8.628882e+01
   5.201975e+01   2.152825e+02
  -1.293516e+02   2.000118e+02
  -3.206417e+02   1.092844e+02
  -1.955369e+02  -6.999244e+01
  -6.115263e+01  -3.264797e+02
   2.468476e+02  -4.137865e+02
   3.882082e+02  -2.038887e+02
   2.470287e+02   1.663929e+02
   5.140718e+01   3.650390e+02
  -1.025329e+02   3.113160e+02
  -1.360815e+01   1.317827e+02
   1.164481e+01   7.922187e+01
  -5.682485e+01   1.419163e+02
  -2.312271e+02   6.595529e+01
  -2.624886e+02  -1.316539e+02
   5.088837e-01  -3.009892e+02
   1.169251e+02  -1.963496e+02
   2.053662e+02   2.673287e+01
   1.126062e+02   2.726309e+02
  -6.347086e+01   2.452972e+02
  -2.643755e+02   9.186507e+01
  -2.771673e+02  -1.741503e+02
  -1.229554e+02  -2.463535e+02
   1.164007e+02  -2.411650e+02
   1.682128e+02  -9.852130e+01
   1.662841e+02  -4.534237e+01
   1.522191e+02  -8.337688e+01
   2.617256e+02  -1.459452e+01
   3.917608e+02   1.286425e+02
   2.906494e+02   3.128622e+02
   1.927604e+00   3.802767e+02
  -3.645280e+02   3.838204e+02
  -4.524566e+02   1.080440e+02
  -3.323126e+02  -1.051435e+02
  -5.503484e+00  -2.313910e+02
   1.301711e+02  -1.974523e+02
   7.699841e+00  -1.392003e+01
  -1.163847e+02   6.341975e+01
  -1.037705e+02  -6.241758e+01
   2.959924e+01  -1.795393e+02
   1.738387e+02  -6.781954e+01
   9.008041e+01   1.042321e+02
  -3.670664e+01   1.297724e+02
  -1.667939e+02  -1.800311e+01
  -1.281143e+02  -2.388007e+02
   3.915568e+01  -3.338519e+02
   2.346957e+02  -2.015003e+02
   3.147182e+02   2.547827e+01
   2.680627e+02   2.846544e+02
   3.070059e+01   2.445838e+02
  -1.355395e+02   1.112516e+02
  -1.326735e+02  -1.423539e+01
  -1.798265e+01  -4.162207e+01
   2.457803e+01   5.401615e+01
  -1.598401e+01   1.408364e+02
  -1.552099e+02   5.652166e+01
  -1.368270e+02  -5.091319e+01
  -1.433541e+01  -5.847473e+01
   9.712890e+01   1.748067e+01
   3.315939e+01   1.195427e+02
  -1.079199e+02   6.521314e+01
  -2.587130e+02  -6.128636e+01
  -2.533660e+02  -1.757887e+02
  -5.396173e+01  -2.481246e+02
   2.337317e+02  -2.501183e+02
   3.254195e+02  -7.735860e+01
   1.309808e+02   4.544095e+01
  -4.100229e+01   6.703663e+01
  -7.026496e+01  -1.528583e+01
   6.764836e+01  -9.812904e+01
   1.769748e+02  -3.911345e+01
   1.912241e+02   1.253679e+02
   2.306023e+00   1.539337e+02
  -7.590989e+01   1.093739e+02
  -1.137150e+02   3.384888e+00
  -4.659239e+01  -3.355010e+01
   5.500049e+01   2.682475e+01
  -4.875276e+00   8.378251e+01
  -6.802618e+01   8.562290e+01
  -2.230710e+02   1.513143e+01
  -1.851639e+02  -1.412174e+02
  -2.090316e+01  -2.156944e+02
   1.101551e+02  -1.582073e+02
   1.727826e+02  -1.563392e+01
   5.463088e+01   1.086200e+02
  -4.711867e+01   9.331538e+01
  -7.348328e+01   1.996552e+01
  -1.815704e+01  -2.049814e+01
   3.648144e+01  -1.278905e+01
   1.635780e+01   2.585734e+01
  -5.591686e+01  -1.132724e+01
  -1.034452e+02  -7.301330e+01
  -1.940023e+00  -1.700689e+02
   1.341651e+02  -1.630070e+02
   2.306906e+02  -7.885116e+00
   1.612426e+02   1.739679e+02
   1.600977e+01   2.354889e+02
  -8.117900e+01   1.539440e+02
  -1.339765e+02   2.808042e+01
  -6.928681e+01  -8.292896e+01
  -5.335740e+01  -8.007335e+01
  -6.586874e+01   7.538118e+00
  -7.424525e+01  -2.882205e+01
  -4.699802e+01  -5.200017e+01
   4.113493e+01  -1.148119e+02
   1.294075e+02  -1.028593e+02
   8.406767e+01   3.878720e+01
   5.093174e-01   1.284796e+02
  -1.548510e+02   9.446766e+01
  -2.123428e+02  -1.843409e+01
  -7.797176e+01  -2.197724e+02
   1.113779e+02  -2.371709e+02
   2.678123e+02  -7.251369e+01
   2.630930e+02   8.480221e+01
   7.193239e+01   1.600174e+02
  -4.344638e+01   1.485394e+02
  -9.961959e+01   7.303658e+01
  -6.982618e+01   7.036022e+01
  -6.094562e+01   6.809530e+01
  -1.033418e+02   8.667941e+01
  -1.033830e+02  -3.560766e+01
  -1.190206e+02  -1.493659e+02
  -1.592647e+01  -2.353450e+02
   1.001328e+02  -1.581133e+02
   1.464900e+02   2.958609e+01
   1.237579e+02   1.498304e+02
   3.482442e+00   1.601053e+02
  -4.634031e+01   1.138660e+02
  -7.400488e+01  -4.293970e+01
  -4.348384e-01  -3.033763e+01
  -2.380979e+00  -3.646990e+01
  -4.439919e+01  -9.800086e+00
  -1.146236e+02   1.509084e+01
  -2.926254e+01  -4.326786e+01
   5.240296e+01  -7.186346e+01
   1.756165e+02   1.565423e+01
   1.591322e+02   8.910735e+01
   6.482866e+00   8.347387e+01
  -1.388368e+02   7.846447e+01
  -1.141602e+02  -2.131627e+01
  -3.513475e+01  -5.405013e+01
   5.313144e+01  -4.615845e+01
   8.000226e+01   2.375267e+01
   1.870416e+01   6.010122e+01
  -7.274117e+01   4.091221e+01
  -6.671079e+01  -1.479814e+01
  -4.987188e+01  -4.991541e+01
  -6.108825e+01  -5.207390e+00
  -4.702731e+01  -2.281476e+01
  -7.536758e+01   1.030542e+01
  -4.129966e+01  -5.628871e+01
   1.726493e+01  -1.411844e+02
   1.279422e+02  -1.539649e+02
   1.776410e+02  -1.838773e+01
   1.691359e+02   6.822637e+01
   4.962276e+00   1.171432e+02
  -9.861218e+01   5.393016e+01
  -8.207300e+01  -2.257989e+01
   6.380531e+01  -2.012172e+01
   1.300209e+02   2.615231e+01
   6.687921e+01   1.265432e+02
  -9.036039e+01   1.297347e+02
  -1.844955e+02   1.441519e+01
  -1.687414e+02  -3.609069e+01
  -6.540246e-01  -8.504234e+01
   6.308325e+01  -7.466749e+01
   6.156508e+01  -1.300118e+01
  -5.328524e+01   3.130104e+01
  -7.278953e+01  -9.409364e+00
  -5.336168e+01  -9.486232e+01
   9.347086e+01  -1.440566e+02
   1.553978e+02  -9.041225e+01
   1.074468e+02   9.828653e+01
   6.615995e+00   1.546094e+02
  -7.109653e+01   1.355946e+02
  -1.163840e+02  -2.179727e+00
  -5.437015e+01  -1.132077e+02
   4.901753e+00  -8.881651e+01
   5.387614e+01   9.010282e+00
   6.650889e+01   3.715585e+01
   3.883380e+01   1.973028e+00
   2.029481e+01  -3.536576e+01
   2.012865e+01   5.195885e+00
   5.056292e+01   9.578180e+01
   1.806102e+01   1.343428e+02
  -3.246207e+01   1.600620e+01
  -1.156259e+02  -5.612039e+01
  -1.360650e+02  -7.235885e+01
  -2.227775e+01  -6.427263e+01
   9.634264e+01  -2.740991e+01
   8.908828e+01   1.029237e+01
   3.533139e+01  -4.209966e+00
  -4.039382e+01   3.429605e+01
   7.438618e+00   1.374046e+01
  -1.012921e+01   4.948589e+00
  -1.400231e+01   4.989601e+00
  -7.281741e+01   1.119647e+01
  -6.802567e+01  -3.976890e+01
   1.473001e+00  -9.480485e+01
   9.813032e+01  -1.255565e+02
   1.530282e+02  -1.137180e+02
   1.603658e+02   3.829887e+01
   1.571429e+01   1.299206e+02
  -9.253686e+01   1.476897e+02
  -9.993450e+01   7.828402e+01
  -9.786706e+01  -1.129939e+01
  -2.209819e+01  -1.983663e+01
  -1.794653e+01  -3.155598e+01
  -5.266368e+01  -3.247267e+01
  -9.056835e+00  -5.497891e+01
  -1.812921e+01  -6.718367e+01
   2.693970e+01  -6.657267e+01
   1.021542e+02   6.963880e+00
   6.855132e+01   9.468236e+01
   1.367939e+01   1.045140e+02
  -8.431103e+01   1.989681e+01
  -9.624916e+01  -3.768904e+01
  -6.608411e+01  -7.165290e+01
   5.174403e+01  -6.183621e+01
   1.063283e+02  -1.025996e+01
   2.900806e+01   2.824002e+01
  -2.790315e+01   8.035349e+01
  -4.292688e+01   2.372346e+01
   1.137813e+01   2.607080e+01
   5.309703e+01  -1.154717e+01
   2.516087e+01   3.740397e+01
  -9.016347e+01   5.833983e+01
  -1.457171e+02   7.507906e+01
  -5.823478e+01   1.302278e+01
   1.878383e+01  -8.799382e+01
   2.355923e+01  -6.187662e+01
   1.850637e+01  -3.128094e+01
   3.010388e+01   5.851423e+01
  -2.591417e+01   7.232534e+01
  -4.807156e+01  -1.242836e+01
  -5.519801e+00  -4.946983e+01
   2.595786e+00  -2.754618e+01
   4.423182e+01   2.517637e+01
   6.239751e+01   4.615398e+00
  -1.790288e+01   2.663788e+01
  -8.692540e+00  -1.384432e+01
  -3.710905e+01  -2.183798e+01
  -4.578917e+00  -5.775750e+00
  -5.617081e+00   5.301128e+01
  -3.121841e+00  -1.470945e+01
   2.126140e+00  -7.105011e-01
   2.182839e+00  -6.881121e+01
   3.518968e+01  -1.771610e+01
   8.310010e+01   5.822237e+01
   1.691430e+01   4.677982e+01
  -5.622233e+01   2.411830e+01
  -6.874376e+01  -1.722016e+01
  -5.736953e+01  -1.317439e+01
   3.752742e+01  -2.688705e+01
   7.866278e+01  -3.333821e+00
   2.971249e+01  -8.663848e-01
  -2.618252e+01  -6.957558e+00
  -4.986587e+01  -3.667950e+01
   5.423163e+00  -3.819925e+01
   6.649809e+01  -2.259782e+01
