
 $NMID
 id='ANONYMOUS ', fmtdat='(2E16.6)'
 volume=1.0
 tramp=1.0
 $END
   3.129725e+03   2.002501e+02
   1.748901e+03   2.018786e+03
  -3.955403e+02   1.711410e+03
  -1.507988e+03   7.841863e+02
  -6.344644e+02  -2.298930e+02
   2.683614e+02  -1.720884e+02
   4.521467e+02   3.846232e+02
  -1.099676e+02   6.350029e+02
  -5.305796e+02   5.249273e+02
  -6.004798e+02  -8.472893e+00
  -2.934445e+02  -6.400968e+02
   2.166954e+02  -5.569226e+02
   3.996020e+02  -7.055769e+01
   3.114672e+02   4.747525e+02
  -2.584190e+02   5.363165e+02
  -4.354108e+02   8.226903e+01
  -1.626892e+02  -4.535083e+02
   1.595182e+02  -6.219453e+02
   4.333382e+02  -1.053348e+02
   3.379228e+02   2.209442e+02
   3.686341e+01   3.403850e+02
  -2.145521e+02   1.958548e+02
  -1.057569e+02   6.276919e+01
   1.289316e+02  -6.298650e+01
   2.722063e+02   1.739531e+02
   1.500815e+02   3.001400e+02
  -3.828862e+02   2.855267e+02
  -5.380086e+02  -1.608877e+02
  -2.691086e+02  -4.444232e+02
   3.320501e+02  -3.988070e+02
   5.594353e+02   1.789361e+02
   1.679733e+02   3.803532e+02
  -2.027955e+02   3.495277e+02
  -4.040283e+02   1.549929e+02
  -3.696541e+02  -1.501858e+02
  -3.278725e+01  -3.389637e+02
   1.465588e+02  -1.615818e+02
   1.057612e+01   1.263044e+02
  -1.240157e+02   1.675474e+02
  -2.195434e+02  -1.160261e+02
  -9.096190e+00  -5.472090e+02
   2.072470e+02  -4.815160e+02
   4.098119e+02  -3.511438e+01
   1.504182e+02   4.738204e+02
  -2.248664e+02   1.749861e+02
  -1.847786e+02  -2.529765e+02
   1.116858e+02  -3.889259e+02
   3.161777e+02  -2.665497e+01
   4.611560e+02   3.181867e+02
   1.198134e+02   4.437725e+02
  -3.243730e+02   2.587848e+02
  -4.189995e+02  -8.670277e+01
  -2.865235e+02  -2.168104e+02
   1.376735e+02  -2.667063e+02
   2.280030e+02  -6.695846e+01
   1.683233e+02   7.004043e+01
  -9.184017e+01   2.156989e+01
  -8.699442e+01  -9.882405e+01
   1.033439e+02  -1.032251e+02
   2.217586e+02   3.714420e+01
   1.046148e+02   2.172315e+02
  -1.688260e+02   1.778580e+02
  -2.569647e+02   1.002828e+02
  -1.824356e+02  -8.837783e+01
   3.398635e+01  -2.427052e+02
   2.005962e+02  -2.967954e+02
   3.227479e+02  -1.225220e+02
   2.364152e+02   1.621869e+02
   7.888398e-01   3.826876e+02
  -5.665101e+01   2.529615e+02
  -7.263530e+01   1.091393e+02
  -6.002859e+01   3.670584e+01
  -1.006880e+02   8.561687e+01
  -2.336509e+02   4.862987e+01
  -1.963070e+02  -1.003395e+02
  -8.228495e+01  -1.926670e+02
   1.296620e+02  -1.476506e+02
   1.237944e+02  -8.904491e+00
   1.354922e+02   2.125626e+02
  -2.133018e+01   2.587575e+02
  -2.340949e+02   6.693913e+01
  -2.211808e+02  -1.119121e+02
  -1.048526e+02  -2.757981e+02
   7.872055e+01  -2.317083e+02
   1.873662e+02  -1.240807e+02
   1.484986e+02  -1.721909e+01
   8.199727e+01  -5.928590e+01
   2.303201e+02  -7.150879e+00
   3.700587e+02   5.935189e+01
   2.460156e+02   2.496919e+02
   2.104856e+00   3.233174e+02
  -3.635064e+02   3.206816e+02
  -4.138079e+02   1.641995e+02
  -2.457009e+02  -7.990648e+01
  -2.454222e+01  -2.121534e+02
   1.132607e+02  -1.916585e+02
   1.248910e+01  -4.178639e+01
  -5.463315e+01   5.946690e+01
  -1.029447e+02  -9.850332e+00
  -5.946559e+00  -1.511966e+02
   1.372566e+02  -9.042768e+01
   1.210608e+02   6.231618e+01
  -2.407052e+01   1.333145e+02
  -1.334139e+02   1.205299e+01
  -1.065934e+02  -1.902242e+02
   1.833164e+01  -2.999107e+02
   1.990717e+02  -1.593637e+02
   2.473126e+02   5.317007e+01
   2.440087e+02   1.671147e+02
   5.049886e+01   2.494952e+02
  -1.119261e+02   8.691431e+01
  -1.456071e+02  -3.129166e+01
  -1.981063e+01  -1.658579e+01
  -3.498924e+00   3.989070e+01
   6.113703e+00   8.160498e+01
  -1.017582e+02   8.521778e+01
  -1.602512e+02  -7.266987e+01
  -1.875666e+01  -1.416338e+01
   5.882194e+01   1.981052e+01
   3.633013e+01   6.607741e+01
  -1.079246e+02   5.803523e+01
  -1.884002e+02  -1.028364e+01
  -2.053456e+02  -1.382447e+02
  -4.438101e+01  -1.975598e+02
   1.334493e+02  -1.793232e+02
   2.162211e+02  -9.237246e+01
   1.467189e+02   4.349272e+01
  -3.772072e+01   8.480666e+01
  -6.822029e+01  -3.687247e+01
   3.101993e+01  -7.132495e+01
   1.582113e+02  -1.141831e+00
   1.532060e+02   9.203563e+01
   8.898691e+00   1.475694e+02
  -7.986709e+01   1.324205e+02
  -1.277909e+02   3.162526e+01
  -6.323034e+01  -3.779306e+01
   2.571121e+01   3.570413e+01
   1.598082e+01   7.769032e+01
  -7.451180e+01   9.308865e+01
  -1.754450e+02  -1.415045e+01
  -1.367419e+02  -1.477150e+02
   7.306533e+00  -1.427641e+02
   1.022975e+02  -1.350765e+02
   1.770056e+02  -4.316339e+00
   3.642063e+01   8.493724e+01
  -5.109766e+01   1.096127e+02
  -7.745640e+01   2.288179e+01
  -1.297262e+01  -3.942458e+01
   3.712404e+01   8.492575e-02
  -3.279909e+01   1.295426e+00
  -6.062651e+01  -1.140072e+01
  -8.139227e+01  -7.452143e+01
   2.555225e+00  -1.435881e+02
   1.343365e+02  -1.480430e+02
   1.985904e+02  -5.030993e+01
   1.435372e+02   1.228984e+02
   3.187739e+01   2.266563e+02
  -1.257894e+02   1.078075e+02
  -1.305481e+02  -8.325536e+00
  -7.326965e+01  -6.339483e+01
  -5.766142e+01   5.365399e+00
  -6.544779e+01   2.846342e+01
  -9.220505e+01  -3.792231e+00
  -5.340880e+01  -5.025794e+01
   5.538418e+01  -8.890138e+01
   1.059442e+02  -5.668716e+01
   8.794230e+01   5.134592e+01
  -6.048168e-01   1.171637e+02
  -1.400344e+02   7.313977e+01
  -1.756687e+02  -3.648998e+01
  -4.265075e+01  -1.792842e+02
   1.262459e+02  -1.923160e+02
   2.560348e+02  -7.282847e+01
   1.783392e+02   1.227495e+02
   7.517109e+01   1.620410e+02
  -5.537129e+01   1.329255e+02
  -1.011622e+02   6.982868e+01
  -5.022716e+01   7.576956e+01
  -6.745054e+01   8.391214e+01
  -7.618963e+01   6.469250e+01
  -1.283440e+02  -5.588935e+01
  -8.715018e+01  -1.336203e+02
  -1.674151e+01  -2.053280e+02
   1.007907e+02  -1.685186e+02
   1.284024e+02   2.942558e+01
   9.396355e+01   8.479278e+01
  -7.738149e+00   1.409443e+02
  -5.717995e+01   6.724619e+01
  -4.468032e+01   1.669855e+01
   2.510154e+01  -3.424621e+01
   3.797132e+01  -2.929760e+01
  -2.475490e+01  -2.606148e+01
  -3.704324e+01  -2.356182e+01
  -3.483933e+01  -5.952991e+01
   6.839561e+01  -1.669618e+01
   1.296140e+02   1.177567e+01
   1.090577e+02   2.652790e+01
  -9.894359e+00   6.217359e+01
  -1.109806e+02   7.744573e+01
  -1.032298e+02  -2.345620e+01
  -4.545959e+01  -3.076892e+01
   5.466822e+01  -4.488567e+01
   6.303622e+01   4.372203e+01
   2.744252e+01   6.471147e+01
  -3.767312e+01   4.820003e+01
  -3.344499e+01  -2.304173e+01
  -4.930385e+01  -6.418084e+01
  -4.520485e+01  -1.597078e+01
  -5.851628e+01  -3.862292e+01
  -4.523869e+01  -3.680088e+00
  -3.658146e+01  -7.209849e+01
   3.366257e+01  -1.497473e+02
   8.056650e+01  -1.249403e+02
   1.500755e+02  -1.118413e+01
   1.150084e+02   8.278198e+01
  -1.707383e+01   1.119427e+02
  -8.820764e+01   4.002816e+01
  -5.096161e+01  -7.941321e+00
   3.942838e+01   7.996404e+00
   1.131221e+02   2.997370e+01
   2.684061e+01   1.055146e+02
  -9.621598e+01   8.106887e+01
  -1.515947e+02   5.589318e+01
  -1.197528e+02  -3.107195e+01
  -1.644972e+01  -5.848184e+01
   6.471678e+01  -6.837108e+01
   3.099133e+01   3.524776e+00
  -4.193181e+01   4.201596e+01
  -5.824146e+01  -2.972127e+01
  -1.617615e+01  -1.156577e+02
   9.213089e+01  -1.194818e+02
   1.118932e+02  -4.834241e+01
   9.826079e+01   6.298902e+01
   1.330986e+01   1.622444e+02
  -7.311032e+01   1.291892e+02
  -9.826061e+01  -2.441698e+01
  -4.236492e+01  -9.056468e+01
   2.655745e+01  -8.137245e+01
   1.121445e+01   1.282266e-01
   4.944566e+01   4.180603e+01
  -1.854303e+01  -1.239421e+01
   3.017005e+01  -2.578780e+01
   3.170089e+01   2.288380e+01
   4.259927e+01   7.277027e+01
   3.663327e+01   1.026198e+02
  -3.602721e+01   2.176371e+01
  -9.632650e+01  -4.574762e+01
  -9.018440e+01  -6.786329e+01
   2.460972e+01  -6.401293e+01
   7.866660e+01  -2.991343e+01
   6.617288e+01  -3.641948e+01
   1.391855e+01   2.103765e+00
  -1.873811e+01   1.417845e+01
  -2.692085e+01   6.311290e+00
  -3.447965e+00  -1.217601e+01
  -1.118067e+01  -2.307405e+01
  -3.579819e+01   4.097743e+00
  -7.883371e+01  -5.074694e+01
  -2.664356e+01  -5.947300e+01
   1.250258e+02  -8.811434e+01
   1.701860e+02  -3.891111e+01
   1.016139e+02   6.856101e+01
   3.671890e+01   1.092612e+02
  -9.212016e+01   1.149054e+02
  -7.907186e+01   4.353433e+01
  -9.002226e+01  -1.315667e+01
  -3.840648e+00  -1.626721e+01
   3.067244e+00  -1.589586e+01
  -1.783851e+00   1.217643e+01
  -2.473227e+01  -4.939783e+01
  -1.087651e+01  -6.654413e+01
   9.415567e+00  -3.050659e+01
   6.482291e+01   2.392278e+01
   7.124600e+01   7.197173e+01
   2.607275e+01   9.838950e+01
  -1.007768e+02   2.420433e+01
  -6.371699e+01  -8.378503e+01
  -4.226679e+01  -1.073734e+02
   7.137913e+01  -6.288218e+01
   8.224828e+01   3.233791e+00
   3.544537e+01   4.359424e+01
  -3.944375e+01   6.735788e+01
  -6.439090e+01  -5.003686e+00
   3.203294e+01  -1.601869e+01
   7.060447e+01  -1.707085e+01
   1.232295e+01   5.713904e+01
  -6.375920e+01   4.903521e+01
  -1.382728e+02   4.438761e+01
  -4.594109e+01   8.715504e+00
   1.244572e+01  -9.472759e+01
   3.746827e+01  -8.676312e+01
   1.719690e+01  -2.261043e+01
   1.463495e+01   5.448273e+01
  -1.489610e+01   2.377136e+01
  -1.648364e+01   7.438348e+00
  -2.405263e+01  -2.394113e+01
  -9.496321e+00  -2.447624e+01
   2.034982e+01  -1.748279e+01
   3.940526e+01   1.239735e+01
   3.394334e+01   8.855233e+00
  -1.201651e+01  -1.574628e+01
   2.757495e+00  -2.519621e+00
  -4.636616e+00   2.449055e+01
  -2.341575e+01   6.514808e+01
   2.272614e+00  -1.049613e-01
  -4.246264e+01  -6.275727e+00
   7.651114e+00  -4.385420e+01
   2.275300e+01   1.396357e+00
   6.372871e+01   3.824528e+01
  -1.330797e+01   6.162588e+01
  -5.537097e+01   2.886784e+01
  -8.901923e+01  -4.856389e+01
  -6.263500e+01  -4.018507e+01
  -7.573637e+00  -3.308652e+01
   6.666994e+01  -2.820941e+01
   9.318625e+00   1.750656e+01
  -2.680974e+01  -9.634636e+00
  -3.652400e+01   1.260856e+01
   1.016660e+01  -3.151276e+01
   7.474010e+01  -2.708537e+01
