
 $NMID
 id='ANONYMOUS ', fmtdat='(2E16.6)'
 volume=1.0
 tramp=1.0
 $END
  -4.064180e+03  -9.067990e+01
  -2.382292e+03  -2.549240e+03
   7.575091e+02  -2.501789e+03
   2.020544e+03  -7.793127e+02
   8.766141e+02   6.270629e+02
  -6.776056e+02   4.847513e+02
  -8.396198e+02  -6.291731e+02
   1.960105e+02  -1.096870e+03
   9.097022e+02  -7.077395e+02
   8.990110e+02   1.918744e+02
   3.598515e+02   8.710939e+02
  -1.854723e+02   7.598569e+02
  -5.130772e+02  -2.374332e+01
  -3.557296e+02  -7.706821e+02
   4.036780e+02  -7.189314e+02
   5.828141e+02   1.444234e+01
   2.243374e+02   6.539763e+02
  -2.250590e+02   7.295973e+02
  -5.770183e+02   8.230393e+01
  -3.605579e+02  -2.890880e+02
  -1.123792e+01  -4.375642e+02
   2.733990e+02  -2.532694e+02
   2.181392e+02   4.233779e+00
  -1.486092e+02   4.057017e+01
  -4.168291e+02  -1.952658e+02
  -2.536605e+02  -4.485683e+02
   5.001702e+02  -4.339853e+02
   8.732745e+02   1.601698e+02
   3.080967e+02   5.961095e+02
  -4.453773e+02   5.293981e+02
  -7.470045e+02  -9.520358e+01
  -2.688033e+02  -4.560911e+02
   3.074024e+02  -5.203315e+02
   5.508793e+02  -2.339320e+02
   4.427210e+02   2.430136e+02
   7.937550e+01   4.267247e+02
  -2.104700e+02   2.485443e+02
  -1.358265e+02  -2.712568e+02
   2.245493e+02  -4.732155e+02
   4.903116e+02   1.041877e+01
   1.364204e+02   8.045996e+02
  -3.876833e+02   7.505381e+02
  -6.328458e+02  -1.096646e+01
  -3.167179e+02  -5.797921e+02
   3.251650e+02  -2.779134e+02
   4.055534e+02   3.920436e+02
  -1.562376e+02   5.531314e+02
  -5.728365e+02   8.268753e+01
  -6.497379e+02  -4.157065e+02
  -8.737005e+01  -5.925150e+02
   3.490583e+02  -3.378248e+02
   6.551383e+02   4.419130e+01
   3.441441e+02   4.207403e+02
  -2.076575e+02   3.848254e+02
  -4.433961e+02   2.008555e+01
  -2.374177e+02  -1.925961e+02
   1.699745e+02  -7.811728e+01
   1.480617e+02   1.960756e+02
  -1.458974e+02   1.395269e+02
  -3.624873e+02  -1.138687e+02
  -9.897761e+01  -2.840035e+02
   2.010360e+02  -2.401763e+02
   3.397751e+02  -2.572757e+01
   1.616857e+02   7.118898e+01
  -2.115502e+01   2.254116e+02
  -1.911412e+02   3.778926e+02
  -3.399390e+02   2.038436e+02
  -2.966755e+02  -1.768659e+02
  -3.916104e+01  -4.348155e+02
   1.126008e+02  -3.726520e+02
   1.492347e+02  -1.058307e+02
   2.021134e+01  -2.851894e+01
   1.918358e+01  -7.666881e+01
   1.778484e+02  -1.124250e+02
   3.110320e+02   6.754718e+01
   1.271312e+02   2.642465e+02
  -1.176412e+02   2.863181e+02
  -2.358524e+02   1.835738e+01
  -2.549965e+02  -2.402218e+02
  -1.428242e+00  -3.244573e+02
   3.078619e+02  -1.130173e+02
   3.463348e+02   1.323788e+02
   1.579002e+02   3.366411e+02
  -1.106749e+02   3.010195e+02
  -2.417791e+02   1.262017e+02
  -1.337899e+02   3.184511e+01
  -1.102008e+02   3.688920e+01
  -2.085452e+02   3.983335e+01
  -3.956345e+02  -3.327507e+01
  -3.495089e+02  -2.793223e+02
  -2.853705e+01  -4.780691e+02
   4.181188e+02  -4.037733e+02
   5.208964e+02  -2.196644e+02
   3.109284e+02   7.273077e+01
   3.810017e+01   3.014699e+02
  -1.527477e+02   2.692720e+02
  -7.229266e+01   1.356400e+01
   1.136694e+02  -1.218957e+02
   2.315724e+02   3.979956e+01
   4.500599e+01   2.410601e+02
  -1.495725e+02   1.820648e+02
  -1.673241e+02  -6.472262e+01
   3.485938e+01  -1.719922e+02
   1.929198e+02  -4.840924e+01
   1.690741e+02   2.256024e+02
  -8.918723e+01   3.673211e+02
  -2.425159e+02   1.883772e+02
  -3.242519e+02  -6.189066e+01
  -2.907063e+02  -2.254820e+02
  -6.562845e+01  -2.782136e+02
   1.352395e+02  -1.324927e+02
   1.787351e+02  -3.022253e+01
   7.496426e+01   5.191884e+01
  -9.882969e+01  -4.368468e+01
  -6.135960e+01  -1.434261e+02
   8.394839e+01  -1.280281e+02
   2.104587e+02   3.442570e+01
   9.940886e+01   5.470445e+01
  -1.093696e+02   1.174665e+01
  -5.639089e+01  -6.192594e+01
   1.328880e+02  -1.028845e+02
   2.686851e+02  -1.623590e+01
   2.287377e+02   1.628762e+02
   5.961874e+01   2.419716e+02
  -2.266002e+02   2.976945e+02
  -2.938563e+02   9.062645e+01
  -1.852168e+02  -8.814720e+01
   3.034350e+01  -1.379930e+02
   8.774328e+01  -1.334950e+01
  -3.180247e+01   1.134311e+02
  -2.113167e+02   6.346618e+01
  -2.469596e+02  -1.353807e+02
  -5.554085e+01  -2.227217e+02
   8.605691e+01  -1.581820e+02
   1.689924e+02  -1.325844e+01
   4.994295e+01   2.804222e+01
  -1.130134e+01   5.184375e+00
  -3.997203e+01  -1.030545e+02
   7.240827e+01  -1.058557e+02
   1.788203e+02  -3.577356e+01
   2.063501e+02   1.342491e+02
   1.777541e+01   2.207506e+02
  -1.618258e+02   1.734622e+02
  -1.961563e+02  -2.809568e+01
  -6.709785e+01  -1.013829e+02
   5.370671e+01  -1.473847e+02
   1.104323e+02  -3.865586e+01
   5.995648e+00   5.024011e+01
  -2.200989e+01   2.273391e+01
   3.601408e+01  -5.145832e+00
   5.168790e+01   5.299461e+00
   7.110793e+01   9.422566e+01
   1.830155e+01   1.553624e+02
  -1.084124e+02   1.460052e+02
  -2.259620e+02   2.266642e+01
  -1.705182e+02  -1.443918e+02
  -5.524804e+01  -2.292443e+02
   8.982496e+01  -1.929307e+02
   1.487683e+02  -1.965303e+01
   8.357544e+01   8.283317e+01
  -2.325202e+00   2.934566e+01
   3.514247e+01   6.761874e+00
   1.024690e+02   1.946874e+01
   3.246615e+01   3.962542e+01
  -4.567415e+01   9.349387e+01
  -1.096882e+02   6.214271e+01
  -7.758290e+01  -3.735642e+01
   1.814052e+01  -1.133738e+02
   1.440700e+02  -7.869944e+01
   2.070358e+02   3.956675e+01
   8.938480e+01   2.157943e+02
  -1.270254e+02   2.316635e+02
  -2.468420e+02   1.104057e+02
  -2.539938e+02  -1.077130e+02
  -1.061133e+02  -1.739173e+02
   3.388075e+01  -1.413406e+02
   1.234065e+02  -8.097004e+01
   6.080958e+01  -9.879723e+01
   4.910187e+01  -7.889426e+01
   8.754285e+01  -6.699250e+01
   1.003149e+02   1.438588e+01
   1.363786e+02   1.542930e+02
   3.558248e+01   2.635527e+02
  -8.251082e+01   1.674905e+02
  -2.025618e+02   1.468938e+01
  -1.705931e+02  -1.116736e+02
  -6.444349e+00  -1.579815e+02
   7.056589e+01  -9.768190e+01
   5.780138e+01   3.529822e+00
   9.394433e+00   2.136205e+01
  -1.331594e+01   3.214277e+01
   2.241820e+01  -1.021073e-01
   6.376899e+01   2.184371e+01
   3.744360e+01   2.065155e+01
  -3.103154e+01   6.805873e+01
  -1.508590e+02   3.297193e+01
  -1.431980e+02  -5.580230e+01
  -1.310906e+01  -8.964678e+01
   8.599047e+01  -7.107124e+01
   1.325919e+02  -2.607486e+01
   9.201485e+00   3.799558e+01
  -5.242361e+01   1.141152e+01
  -7.117871e+01  -2.918719e+01
  -3.473973e+01  -8.109181e+01
   6.704316e+01  -4.106954e+01
   6.339184e+01  -1.591076e+01
   5.032259e+01   4.398194e+01
   5.041815e+01   2.926437e+01
   5.730915e+01   7.586093e+00
   1.084353e+02  -2.272012e+01
   2.975274e+01   9.001677e+01
  -1.974612e+00   1.520900e+02
  -1.167086e+02   1.424620e+02
  -1.585404e+02   4.131870e+01
  -1.392369e+02  -8.883856e+01
  -1.679823e+01  -1.152968e+02
   9.647449e+01  -8.551831e+01
   4.268532e+01  -5.841903e-01
  -5.275002e+01   1.551145e+01
  -1.349688e+02  -6.446102e+01
  -6.366665e+01  -9.604764e+01
   6.794065e+01  -1.417622e+02
   1.907605e+02  -9.911016e+01
   1.992524e+02   3.232628e+01
   3.436488e+01   6.556360e+01
  -4.454694e+01   2.843981e+01
  -3.568876e+01   3.851704e+01
   2.986482e+01  -4.084092e+01
   9.120666e+01   1.455346e+00
   3.688091e+01   8.576787e+01
  -8.469355e+01   1.246712e+02
  -1.622463e+02   4.944685e+01
  -9.307396e+01  -1.043989e+02
  -3.776365e+01  -2.009795e+02
   9.405383e+01  -1.340211e+02
   9.040158e+01   3.166619e+01
   4.597081e+01   1.269099e+02
   3.575222e+01   9.137362e+01
  -5.134287e+01   4.719465e+00
  -5.920932e+01  -2.061831e+01
  -1.472708e+01  -2.716579e+01
  -1.080952e+01   1.918035e+01
  -2.584323e+01  -2.089042e+01
  -4.751712e+01  -7.815846e+01
  -4.967491e+01  -1.063717e+02
   2.467814e+01  -4.585379e+01
   1.453736e+02   1.486227e+01
   1.442417e+02   7.838250e+01
   2.130243e+00   5.023077e+01
  -9.009321e+01   3.523295e+00
  -1.113595e+02  -1.216063e+01
   2.609929e+00  -3.521334e+01
   5.389428e+01  -1.362530e+01
   1.838450e+00  -3.024927e+01
  -5.129235e+00  -5.950800e+00
   1.958535e+01   1.160957e+01
   7.490506e+01  -3.508676e-01
   7.346613e+01   6.648859e+01
  -1.570447e+01   9.696353e+01
  -1.081501e+02   1.164321e+02
  -1.949152e+02   5.096002e+01
  -1.762311e+02  -4.011295e+01
  -6.636500e+01  -1.572508e+02
   7.330039e+01  -1.280980e+02
   1.233911e+02  -4.339715e+01
   5.720714e+01   2.261743e+00
   3.839429e+01   3.562757e+01
  -1.262287e+01  -2.741447e+01
   1.447887e+01   7.158820e+00
   1.569684e+01   3.666091e+01
   4.557559e+01   1.032140e+02
  -2.240766e+01   4.371072e+01
  -8.003812e+01   8.448630e+00
  -5.697430e+01  -1.072587e+02
  -5.221544e+00  -8.889613e+01
   8.456168e+01  -3.464567e+01
   1.201979e+02   1.090305e+02
   6.189639e+01   7.245147e+01
  -3.421376e+01   5.085641e+01
  -1.096954e+02   4.050169e+00
  -2.541979e+01  -6.842088e+01
   1.538697e+01  -7.594137e+01
   2.111218e+01  -5.712949e+01
  -3.627543e+01  -7.299606e+00
  -6.574700e+01   1.503567e+01
  -3.262146e+01  -2.001070e+01
   8.131606e+01  -7.159786e+01
   6.931596e+01  -4.039859e+01
   4.458892e+01   2.293380e+01
  -3.877001e+01   8.494238e+01
  -4.670816e+01   5.065819e+01
  -6.639626e+01  -2.409462e+01
  -1.656408e+01  -3.446386e+01
   2.338797e+01  -6.789051e+01
   1.750116e+01   5.150790e+01
   7.474637e+00   4.920356e+01
   4.495288e+00   4.009272e+00
  -2.720217e+01  -1.222383e+01
  -8.569467e+01  -3.369788e+01
  -1.417079e+01   1.710975e+01
  -1.801671e+01   3.870157e+01
   2.947362e+01   7.903070e+00
   3.520583e+00  -3.523600e+01
   4.676155e+01  -4.265097e+01
   2.547440e+01   2.676748e+01
   5.654057e+01   4.758849e+01
   7.909020e+00   5.078993e+01
  -4.811059e+01   3.721491e+01
  -5.665291e+01  -1.351963e+01
  -1.202843e+01  -5.394600e+01
   2.128396e+01  -4.471715e+01
   1.026833e+02   2.903629e+01
   4.642334e+01   2.394667e+01
  -4.171013e+01   3.684793e+01
  -8.266997e+01   4.381502e+01
  -4.742188e+01   1.456586e+01
   2.331605e+01   2.096911e+01
   2.906836e+01   2.563909e+01
  -2.137611e+01   2.242691e+01
  -6.267777e+01   1.138455e+01
