
 $NMID
 id='ANONYMOUS ', fmtdat='(2E16.6)'
 volume=1.0
 tramp=1.0
 $END
   2.321461e+03   4.740172e+02
   9.307353e+02   1.078253e+03
  -2.304824e+02   1.435104e+03
  -1.128161e+03   7.381086e+02
  -5.577489e+02   2.300645e+02
  -1.577525e+01  -1.009574e+02
   5.591424e+00   1.535459e+02
  -2.358930e+01   4.019591e+02
  -3.595175e+02   3.029019e+02
  -4.640913e+02  -3.173413e+00
  -2.178844e+02  -4.297600e+02
  -4.219440e-01  -4.477304e+02
   2.745577e+02  -7.789936e+01
   2.004082e+02   2.818125e+02
  -1.755517e+02   3.361379e+02
  -2.745321e+02  -4.547429e+00
  -1.583132e+02  -3.293154e+02
   1.733083e+02  -5.115275e+02
   3.934358e+02  -1.222818e+02
   2.781153e+02   1.690827e+02
   3.462918e+01   2.477374e+02
  -4.239803e+01   1.642678e+02
  -1.126000e+02   4.230846e+01
   1.489734e+02   1.069883e+02
   1.836243e+02   1.994550e+02
  -2.129630e+01   3.185986e+02
  -4.466837e+02   5.918156e+01
  -4.034668e+02  -2.236755e+02
  -1.640566e+02  -2.937216e+02
   2.438141e+02  -1.695999e+02
   3.059025e+02   1.845838e+02
   1.309773e+02   3.061301e+02
  -1.873590e+02   1.419940e+02
  -2.690567e+02  -8.429156e+00
  -2.549355e+02  -1.170123e+02
  -2.344049e+01  -2.073013e+02
   7.666498e+01  -1.144964e+02
  -9.028801e+01   6.204441e+01
  -1.332806e+02   1.922637e+01
  -1.711236e+02  -1.235232e+02
   2.052785e+01  -3.891012e+02
   1.841570e+02  -3.822067e+02
   3.236306e+02   1.236829e+01
   1.255180e+02   3.214046e+02
  -1.478761e+02   4.639559e+01
  -6.013233e+01  -1.739663e+02
   1.265311e+02  -2.952241e+02
   2.768961e+02  -4.538334e+01
   3.665551e+02   2.753151e+02
   9.752975e+01   3.722906e+02
  -2.386445e+02   2.419164e+02
  -3.592598e+02  -9.676293e+01
  -2.327563e+02  -1.961425e+02
   5.867167e+01  -2.524500e+02
   1.453005e+02  -6.466059e+01
   1.100067e+02   5.334047e+00
  -1.441719e+01   9.342438e+00
  -4.772090e+01  -7.690035e+01
   8.108572e+01  -2.872073e+01
   1.131671e+02   5.872968e+01
   7.897269e+01   1.855237e+02
  -1.025972e+02   1.671616e+02
  -2.335776e+02   8.311063e+01
  -1.826672e+02  -1.025738e+02
   2.171833e+01  -2.297723e+02
   2.228035e+02  -1.798617e+02
   2.379399e+02  -1.848940e+01
   1.197201e+02   1.661477e+02
   2.782042e+00   2.758530e+02
  -1.401920e+01   1.804453e+02
  -6.931388e+00   1.262636e+02
  -3.302392e+01   5.535501e+01
  -1.509715e+02   8.824833e+01
  -1.847111e+02  -3.850613e+00
  -1.540916e+02  -1.439600e+02
  -4.230766e+01  -1.475606e+02
   7.046899e+01  -1.088875e+02
   8.667086e+01   4.523303e+01
   6.320407e+01   1.982945e+02
  -3.425501e+01   2.286825e+02
  -1.745582e+02  -2.718758e+00
  -1.790046e+02  -1.773853e+02
  -8.215143e+01  -2.075764e+02
   6.561946e+01  -2.238891e+02
   1.209744e+02  -1.334813e+02
   1.330843e+02  -5.872711e+01
   1.379126e+02  -6.580443e+01
   2.235158e+02  -2.764174e+00
   2.607844e+02   7.168347e+01
   2.031963e+02   2.553516e+02
  -3.745449e+01   2.986620e+02
  -3.330059e+02   2.395422e+02
  -3.398468e+02   7.233759e+01
  -1.627557e+02  -9.342454e+01
   1.495093e+01  -2.045840e+02
   9.868027e+01  -1.476070e+02
  -2.509736e+01  -1.493067e+01
  -7.630891e+01   6.871100e+00
  -1.014726e+02  -7.142956e+01
  -2.215259e+01  -1.060319e+02
   1.169523e+02  -6.696692e+01
   5.632095e+01   3.066542e+01
  -3.749011e+01   8.275281e+01
  -1.416435e+02  -1.164703e+01
  -7.315420e+01  -2.167364e+02
   8.882733e+01  -2.487562e+02
   1.778967e+02  -1.250835e+02
   2.667013e+02   9.823659e+01
   1.817040e+02   1.836213e+02
  -1.094901e+00   1.974103e+02
  -1.183860e+02   5.884954e+01
  -1.422766e+02  -1.111159e+01
  -4.653513e+01  -1.088797e+01
   2.513440e+01   3.660134e+01
   4.503982e+00   1.048886e+02
  -8.133968e+01   4.403627e+01
  -1.152784e+02  -4.848879e+01
  -7.055851e+00  -3.846797e+01
   6.372379e+01  -1.910230e+01
   2.766070e+01   9.200519e+01
  -1.071297e+02   6.919465e+01
  -2.334850e+02  -4.885551e+01
  -1.627050e+02  -1.069574e+02
  -1.226424e+01  -2.309935e+02
   1.542249e+02  -1.446663e+02
   2.622454e+02  -2.712353e+01
   1.084857e+02   4.994379e+01
  -1.864091e+01   4.883275e+01
  -4.766582e+01  -3.311691e+01
   2.743904e+01  -7.980966e+01
   1.287770e+02   4.250946e+01
   1.347568e+02   1.026395e+02
   4.032273e+01   1.212945e+02
  -9.973637e+01   9.251995e+01
  -6.462909e+01   2.887704e+00
  -3.245828e+01  -1.357028e+01
   2.245251e+01   1.338711e+01
  -9.656736e+00   9.528705e+01
  -9.177118e+01   7.863312e+01
  -1.425613e+02  -3.536689e+01
  -1.183514e+02  -1.330383e+02
   3.133008e+00  -1.497196e+02
   1.499373e+02  -8.859499e+01
   1.127283e+02   1.365164e+01
   2.527723e+01   7.562552e+01
  -7.556172e+01   8.320185e+01
  -7.492726e+01   2.714630e+01
   2.793061e+01  -2.699733e+01
   3.861709e+01  -1.138713e+01
  -8.075941e+00   3.067887e+00
  -4.142118e+01   8.409828e+00
  -9.036559e+01  -1.044129e+02
   2.295661e+01  -1.377154e+02
   1.485639e+02  -1.525487e+02
   1.229298e+02  -3.420458e+00
   1.161323e+02   1.274328e+02
   2.187071e+01   1.145436e+02
  -1.063392e+02   9.685302e+01
  -1.050889e+02  -1.846921e+01
  -2.826412e+01  -1.152161e+01
  -5.139729e+01  -1.619502e+01
  -6.085780e+01   1.972034e+01
  -9.035849e+01   4.082110e+00
  -6.715734e+01  -2.420704e+01
   6.157064e+01  -1.001641e+02
   9.293764e+01  -4.692798e+01
   6.184286e+01   7.056817e+01
  -9.476385e+00   5.081672e+01
  -1.172859e+02   1.520901e+01
  -1.643101e+02  -6.113543e+01
  -3.965024e+01  -1.746987e+02
   1.214198e+02  -1.305672e+02
   1.996966e+02  -2.298277e+01
   1.249255e+02   7.402917e+01
   7.313352e+01   1.479775e+02
  -3.059451e+01   7.759009e+01
  -7.118323e+01   5.935824e+01
  -5.360699e+01   3.164431e+01
  -4.397885e+01   5.994277e+01
  -3.862674e+01   2.622887e+01
  -9.302829e+01  -3.474063e+01
  -1.137150e+02  -1.054482e+02
  -5.701662e+00  -1.948911e+02
   8.946319e+01  -1.184523e+02
   9.706104e+01   1.547990e+01
   1.011525e+02   9.924583e+01
  -6.984730e+00   1.015698e+02
  -5.850064e+01   6.168260e+01
  -2.492867e+01  -1.335817e+01
  -1.332009e+01  -4.631625e+01
   6.237028e+01  -2.284166e+01
   2.593652e+01  -3.610267e+00
  -3.781042e+01  -2.678194e+00
  -2.338876e+01  -3.841530e+01
   7.193689e+01  -3.609764e+01
   1.541818e+02   1.105007e+01
   9.412744e+01   6.384747e+01
  -3.154080e+00   7.566918e+01
  -7.577740e+01   3.495271e+01
  -1.159243e+02  -1.453014e+01
  -1.388766e+01  -3.248706e+01
   2.548164e+01  -3.259231e+01
   1.886618e+01   3.429009e+01
   1.277290e+01   4.838332e+01
  -2.084697e+01   4.250972e+01
  -4.994432e+01   1.247749e+01
  -4.416374e+01  -1.383395e+01
  -1.665281e+01  -3.107392e+01
  -3.702548e+01  -1.243541e+01
  -5.348455e+01   8.758899e+00
  -4.681110e+00  -8.008783e+01
   3.445885e+01  -1.245549e+02
   1.242128e+02  -7.294289e+01
   1.804387e+02   3.244528e+00
   1.001290e+02   7.528005e+01
  -3.719166e+01   9.074818e+01
  -1.122169e+02   3.260891e+01
  -5.228582e+01  -2.843155e+00
   5.390240e+01  -1.670038e+01
   7.770745e+01   4.807182e+01
   1.777314e+01   8.236056e+01
  -6.367520e+01   6.787080e+01
  -1.566915e+02   3.046176e+01
  -1.263033e+02  -1.947571e+01
   5.215075e+00  -8.372393e+01
   3.600675e+01  -4.971538e+01
   2.568155e+01   1.929219e+01
  -4.247136e+01   3.549232e+01
  -6.594364e+01  -2.444396e+01
  -3.496396e+01  -8.457492e+01
   8.350228e+01  -1.134697e+02
   9.418993e+01  -1.578282e+01
   9.816875e+01   6.782292e+01
   1.128784e+00   1.461316e+02
  -2.952691e+01   8.173255e+01
  -9.163287e+01  -5.561358e+00
  -3.053055e+01  -5.862333e+01
   1.175531e+01  -9.291579e+01
   1.371263e+01   2.271551e-01
   1.211959e+01   2.586050e+01
  -1.279870e+01   1.790254e+01
  -2.548718e+00  -8.737117e+00
   9.505972e+00   4.695368e+01
   2.930171e+01   7.711605e+01
  -1.191679e+01   8.496675e+01
  -2.424828e+01   2.921681e+01
  -7.860107e+01  -3.777123e+01
  -9.108723e+01  -6.243652e+01
  -7.437529e+00  -6.473412e+01
   5.270347e+01  -3.010962e+01
   4.558744e+01   4.331446e+00
   1.946808e+01   4.861716e+00
  -2.853089e+00   2.864866e+01
  -9.496644e+00   2.390273e+01
  -4.612575e+00  -2.613931e+01
   2.685357e+01  -4.292356e+00
  -7.662422e+01  -2.777912e+01
  -2.693463e+01  -3.208269e+01
  -2.214789e+01  -2.471471e+01
   9.039332e+01  -8.638165e+01
   1.418133e+02  -2.772848e+01
   1.238717e+02   4.572596e+01
   7.940227e-01   1.237430e+02
  -6.910029e+01   9.927602e+01
  -7.028982e+01   5.209247e+01
  -2.501980e+01  -2.816187e+00
  -2.401372e+01  -2.026652e+01
   7.489819e+00   2.646325e+00
   3.217476e+01  -1.680519e+01
   1.196790e+00  -2.924456e+01
   2.548097e+01  -6.115124e+01
   3.405040e+01  -3.881045e+01
   8.493143e+01   2.424492e+01
   5.524953e+01   8.078953e+01
   4.623765e+01   8.009530e+01
  -9.058458e+01   7.274985e+00
  -6.075211e+01  -5.520632e+01
   2.432209e+00  -6.869047e+01
   5.434442e+01  -4.896144e+01
   7.426732e+01   2.779036e+01
   2.191976e+01   4.680375e+01
  -3.014725e+01   5.490553e+01
  -2.336067e+01   2.772157e+01
   1.883655e+01   1.350756e+01
   5.452412e+01  -9.759323e+00
   2.928706e+00   2.518274e+01
  -3.722052e+01   6.377281e+01
  -9.822729e+01   1.323100e+01
  -3.471255e+01  -1.663223e+01
   1.128202e+01  -7.883381e+01
   5.995432e+01  -7.133150e+01
   4.549586e+01  -3.889187e+00
   2.905683e+01   3.680599e+01
  -4.726903e+01   1.625780e+01
  -9.783599e-01  -1.045614e+00
  -3.369684e+01  -4.415498e+01
  -9.970504e+00  -4.982591e+01
   2.599836e+01   5.736201e+00
   4.461518e+00  -1.307600e+01
   4.780398e+01   8.620919e+00
   8.581956e+00  -3.575548e+01
  -7.815397e+00  -4.792807e+00
   7.785991e+00   7.668048e+00
   3.716170e+01   4.339490e+01
  -1.447521e+01   2.558255e+01
  -3.163006e+01  -5.434811e+01
   5.043482e-01  -1.521789e+01
   5.283171e+01  -8.482942e+00
   1.944526e+01   1.364420e+01
   2.571218e+01   2.753484e+01
  -4.719988e+01   5.056929e+01
  -6.283440e+01  -4.328393e+00
  -2.801382e+01  -3.284217e+01
   4.216586e+01  -3.315039e+01
   3.457902e+01  -8.073591e+00
   4.531586e+01  -1.965243e+01
  -1.072048e+01   3.577800e-01
  -1.565884e+01  -8.149565e+00
   1.928330e+01  -1.675648e+01
   3.926919e+01   8.231242e+00
