
 $NMID
 id='ANONYMOUS ', fmtdat='(2E16.6)'
 volume=1.0
 tramp=1.0
 $END
   2.137251e+03   2.559801e+02
   1.010904e+03   1.234519e+03
  -7.559355e+01   1.382708e+03
  -1.052431e+03   5.091044e+02
  -6.076214e+02   7.964771e+01
  -1.467407e+01  -1.217620e+02
   6.453678e+01  -2.453776e+01
  -5.844605e+01   3.396669e+02
  -1.863356e+02   3.386441e+02
  -4.337117e+02   6.591633e+00
  -2.785321e+02  -3.547524e+02
   5.609547e+01  -4.459179e+02
   2.202999e+02  -1.096431e+02
   2.467041e+02   3.773129e+02
  -1.977054e+02   3.396362e+02
  -1.983569e+02  -2.765523e+01
  -9.318423e+01  -2.144959e+02
   1.077222e+02  -4.368552e+02
   3.101001e+02  -1.835908e+02
   3.194914e+02   1.248665e+02
   4.807782e+01   2.358146e+02
  -1.155630e+02   1.833021e+02
  -5.793897e+01   1.863540e+01
   1.108669e+02   1.142033e+02
   1.838584e+02   2.006391e+02
  -1.388640e+01   2.364813e+02
  -3.914682e+02   1.367925e+02
  -2.889180e+02  -2.564115e+02
  -9.068938e+01  -1.672484e+02
   2.130771e+02  -1.612814e+02
   2.729350e+02   1.682514e+02
   7.532809e+01   1.869136e+02
  -2.591561e+02   1.775705e+02
  -2.950244e+02   7.531811e-01
  -2.301487e+02  -1.588773e+02
  -1.953844e+00  -1.720994e+02
   1.693539e+01  -1.356834e+02
  -7.093504e+01   1.032439e+02
  -1.184372e+02   1.091128e+02
  -6.738539e+01  -1.844038e+02
   4.751180e+01  -3.409691e+02
   1.551064e+02  -3.316937e+02
   2.299101e+02   1.189155e+01
   1.259207e+02   1.695904e+02
  -1.142560e+02   1.008916e+02
  -5.053044e+01  -2.445498e+02
   1.659757e+02  -2.042497e+02
   2.872371e+02  -6.397199e+00
   3.407719e+02   2.714254e+02
   5.683230e+01   3.352946e+02
  -2.056837e+02   2.219117e+02
  -3.036952e+02  -1.137613e+02
  -1.838218e+02  -1.716208e+02
   4.442276e+01  -2.255715e+02
   1.568673e+02  -6.291451e+01
   8.881547e+01  -3.905527e+00
  -9.218676e+00  -8.370849e+00
  -6.317352e+01  -5.135467e+01
   8.659650e+01   4.836899e+00
   1.172624e+02   9.217753e+01
   6.324856e+01   1.638709e+02
  -1.394470e+02   1.172651e+02
  -2.475853e+02   1.216576e+02
  -1.867809e+02  -1.150399e+02
   3.023473e+01  -2.426250e+02
   2.392417e+02  -1.746315e+02
   2.168475e+02  -6.048923e+01
   1.518643e+02   1.678203e+02
   2.770403e+01   2.794637e+02
  -4.992734e+01   1.895074e+02
  -2.026294e+01   9.581577e+01
  -2.839288e+01   6.003296e+01
  -1.242128e+02   6.850601e+01
  -1.973181e+02  -2.182214e+01
  -1.797295e+02  -1.317967e+02
  -6.190797e+01  -1.646007e+02
   1.066613e+02  -1.033892e+02
   1.213945e+02   5.604819e+01
   6.964101e+01   1.823516e+02
  -3.465578e+01   1.586621e+02
  -2.165141e+02   9.108037e+00
  -2.228602e+02  -1.884591e+02
  -6.956990e+01  -2.193858e+02
   6.091577e+01  -1.723493e+02
   1.361713e+02  -9.696645e+01
   1.047900e+02  -7.642139e+01
   1.312508e+02  -2.001244e+01
   2.217614e+02  -3.670402e+00
   3.015073e+02   4.515165e+01
   1.820341e+02   2.500476e+02
  -1.378183e+01   3.458252e+02
  -3.393795e+02   2.320394e+02
  -3.345060e+02   4.888832e+01
  -1.614580e+02  -1.430504e+02
   1.085506e+01  -2.071429e+02
   9.408689e+01  -1.374280e+02
   1.426125e+01  -3.407305e+01
  -7.046100e+01   4.479409e+00
  -9.897051e+01  -2.312069e+01
   2.456686e+01  -7.626912e+01
   1.265266e+02  -7.744435e+00
   3.318470e+01   3.043857e+01
  -5.227395e+01   7.135339e+01
  -1.027367e+02  -2.636334e+01
  -4.963376e+01  -1.949398e+02
   4.461317e+01  -2.448825e+02
   1.745741e+02  -1.042217e+02
   2.457323e+02   1.305726e+02
   1.787009e+02   1.865619e+02
   1.070289e+01   1.535502e+02
  -9.561989e+01   6.248324e+01
  -7.928806e+01  -2.083899e+01
  -7.074533e+01  -3.192336e+01
   5.214760e+01   6.769233e+01
  -6.201665e+01   6.535819e+01
  -6.099144e+01   4.295950e+01
  -9.717528e+01  -3.348814e+01
  -5.302167e+01  -2.531950e+01
   3.949864e+01   4.052256e+00
   4.931411e+01   7.604315e+01
  -1.331272e+02   5.200259e+01
  -2.242997e+02  -8.081017e+01
  -1.535139e+02  -1.562605e+02
   1.566014e+01  -1.752319e+02
   1.614576e+02  -1.340897e+02
   2.640167e+02   4.426259e+00
   7.379760e+01   5.213187e+01
  -2.765174e+01   2.942673e+01
  -1.540085e+01  -3.930217e+01
   4.210903e+01  -5.906027e+01
   8.288081e+01  -7.892572e+00
   1.367731e+02   8.079871e+01
   4.115859e+00   1.147509e+02
  -7.802738e+01   6.437868e+01
  -1.050403e+02  -2.181797e+01
  -9.538419e+00  -2.762949e+01
   2.756599e+01   7.973770e+00
  -1.046102e+01   6.332745e+01
  -6.348400e+01   6.902847e+01
  -1.673125e+02  -5.919385e+01
  -9.995524e+01  -1.464445e+02
   2.615841e+01  -1.233912e+02
   1.164729e+02  -1.075920e+02
   1.134266e+02  -2.367633e+01
   3.313582e+01   6.441120e+01
  -5.323360e+01   4.497333e+01
  -5.865360e+01   4.655269e+00
   1.190747e+01  -2.917278e+01
   3.392914e+01  -1.574336e+01
  -1.997004e+01   2.776278e+01
  -7.218157e+01   1.198572e+01
  -8.541799e+01  -4.714231e+01
   2.098509e+01  -1.304259e+02
   1.156400e+02  -1.221187e+02
   1.771969e+02   2.066791e+01
   1.157766e+02   1.441247e+02
   3.272492e+01   1.821345e+02
  -1.201661e+02   1.083758e+02
  -7.935278e+01   1.418714e+01
  -5.747744e+01  -2.344074e+01
  -1.999076e+01  -2.153385e+01
  -2.086478e+01   9.834933e-01
  -9.667614e+01  -1.214839e+01
  -6.368251e+01  -5.608080e+01
   7.000853e+01  -7.095914e+01
   1.015193e+02  -2.811566e+01
   3.893270e+01   4.483299e+01
  -1.570513e+01   7.689415e+01
  -1.180335e+02   5.830982e+01
  -1.643482e+02  -8.083819e+01
  -3.468133e+01  -1.698100e+02
   9.592669e+01  -1.331629e+02
   1.674132e+02  -5.439450e+01
   1.529200e+02   7.799194e+01
   4.491590e+01   1.199949e+02
  -3.526550e+01   8.342217e+01
  -5.586738e+01   5.838817e+01
  -4.730752e+01   3.975039e+01
  -1.651336e+01   3.846083e+01
  -7.061419e+01   2.001103e-01
  -9.138215e+01  -4.863536e+01
  -8.548494e+01  -1.060686e+02
   2.151225e+01  -1.801024e+02
   8.494706e+01  -1.167243e+02
   9.572762e+01   1.210431e+01
   8.195794e+01   7.736970e+01
  -1.515340e+01   5.639399e+01
  -8.678685e+01   4.462812e+01
  -2.393874e+01  -6.138938e-01
   1.396140e+01  -4.796655e+01
   3.525695e+00   3.443921e-01
  -2.030057e+01   1.249563e+01
  -3.803028e+01  -5.806682e+01
  -4.524746e+01  -1.909055e+01
   4.759263e+01  -2.588619e+01
   1.124111e+02   2.780128e+01
   6.447927e+01   7.440105e+01
  -1.250392e+00   7.658610e+01
  -9.516691e+01   1.823491e+01
  -1.465525e+02  -9.044684e-01
  -1.057050e+01  -7.258720e+01
   4.625768e+01  -1.942948e+01
   6.279128e+01   4.140049e+01
   3.360045e+01   2.599031e+01
  -1.236535e+01   1.974441e+01
  -5.175012e+01  -2.472735e+01
  -2.688853e+01  -3.682260e+01
  -1.331473e+01  -4.423214e+01
  -5.691720e+01   4.152796e+00
  -1.586774e+01  -1.017519e+01
  -3.135847e+01  -4.147493e+01
   2.076548e+01  -1.022789e+02
   1.146498e+02  -8.807266e+01
   1.482735e+02  -1.957240e+01
   9.652423e+01   9.755517e+01
  -1.165981e+01   1.068459e+02
  -6.931274e+01   4.066778e+01
  -9.239622e+00  -3.663011e+01
   4.245262e+01  -1.006082e+01
   1.232821e+02   5.610466e+01
   1.804582e+01   8.536199e+01
  -5.724458e+01   7.576550e+01
  -1.226977e+02   6.655671e+01
  -1.270171e+02  -1.836192e+01
  -2.232465e+00  -5.731666e+01
   6.412611e+01  -2.990720e+01
   5.750619e+01   1.975071e-01
  -3.411519e+01   3.822346e+01
  -5.643139e+01  -2.896697e+01
  -1.144792e+01  -7.804729e+01
   1.101040e+02  -1.071274e+02
   7.562014e+01  -4.806185e+01
   6.122538e+01   9.269012e+01
  -7.100956e+00   1.732238e+02
  -8.256673e+01   7.668782e+01
  -5.178697e+01   1.134081e+01
  -1.654320e+01  -6.162484e+01
   1.372905e+01  -8.263642e+01
   1.748693e+01   1.587704e+01
   4.693481e+01   2.964601e+01
   3.317180e+01   2.781932e+01
   7.833615e+00   1.498151e+01
   2.161859e+01  -4.687091e+00
   2.585534e+01   5.878833e+01
   1.299195e+01   4.389562e+01
  -5.858941e+01   2.925413e+01
  -8.423688e+01  -5.255236e+01
  -7.684033e+01  -4.907333e+01
  -1.629275e+01  -6.112506e+01
   6.219753e+01  -4.107083e+01
   7.700693e+01  -1.162320e+01
   2.881902e+01   1.740343e+01
  -2.467559e+01   1.714657e+01
  -2.695086e+01   2.397704e+01
   1.620874e+01  -4.904581e+00
   9.656837e+00  -1.633576e+01
  -7.934843e+01  -1.537209e+01
  -5.890281e+01  -4.495027e+01
  -9.651868e+00  -6.661802e+01
   1.005593e+02  -7.775272e+01
   1.372824e+02  -1.532393e+01
   8.813123e+01   5.584863e+01
   1.025397e+01   1.235200e+02
  -2.889819e+01   4.415134e+01
  -9.232871e+01   4.492746e+01
  -5.179949e+01  -5.023103e+00
  -1.393633e+01  -2.521694e+01
  -1.151105e+01   1.312832e+00
  -8.854732e+00  -1.884032e+00
   1.579186e+01  -5.259414e+01
   8.976151e+00  -6.680860e+01
   6.555919e+01  -5.898208e+01
   3.175381e+01   1.733578e+01
   6.363263e+01   8.900677e+01
   3.058191e+01   7.578905e+01
  -6.402429e+01  -1.899100e+01
  -7.907784e+01  -9.829665e+01
  -1.069138e+01  -4.032265e+01
   7.268438e+01  -2.794922e+01
   8.398452e+01   3.837792e+01
   3.269991e+01   7.491396e+01
  -3.936557e+01   4.956142e+01
  -3.811136e+01   8.592484e+00
   2.027736e+01  -2.779612e+00
   6.732262e+01  -3.061131e+01
   1.183112e+01   1.373231e+01
  -6.283342e+01   1.129393e+01
  -1.245704e+02   4.977081e+01
  -4.882822e+01  -2.622101e+01
   3.201339e+01  -6.202197e+00
   4.820993e+01  -5.757512e+01
   4.469920e+01  -5.988634e+00
  -1.728803e+01   2.501713e+01
  -3.799291e+01   2.717285e+00
  -3.598514e+01   7.273814e+00
  -7.145693e+00  -4.595636e+01
   3.910036e+00  -4.456996e+01
   1.898544e+01   3.135132e+01
   9.228158e+00   5.451353e+00
   9.712494e+00   2.928719e+00
   2.041273e+01  -1.019076e+01
  -2.111898e+01   9.107010e+00
   1.905073e+00   6.806310e+00
  -1.105798e+01   5.670839e+01
   6.612747e+00  -2.529888e+01
  -4.145448e+01  -6.294031e-01
   1.894804e+01  -4.872681e+01
   5.243864e+01   1.473903e+01
   2.222696e+01   4.429855e+01
   2.916089e+01   3.323709e+01
  -3.612419e+01   7.102727e+00
  -4.836459e+01   1.712325e+01
  -5.903522e+01  -3.266457e+01
   3.279876e+01  -6.315685e+01
   3.308522e+01  -5.186608e+00
   5.087981e+01   1.575111e+01
  -8.064032e+00  -1.445193e+01
  -4.168863e+01   2.899821e+01
   3.961638e+00  -1.509106e+01
   4.874525e+01   8.595858e+00
