
 $NMID
 id='ANONYMOUS ', fmtdat='(2E16.6)'
 volume=1.0
 tramp=1.0
 $END
   3.416697e+03  -1.724650e+01
   2.159283e+03   2.087242e+03
  -3.135290e+02   2.249917e+03
  -1.860392e+03   1.273816e+03
  -7.084019e+02  -1.833382e+02
   3.011445e+02  -2.617553e+02
   5.267157e+02   2.854132e+02
  -4.505645e+01   9.579938e+02
  -6.411600e+02   6.860830e+02
  -7.606250e+02   4.709282e+01
  -4.202887e+02  -5.847644e+02
   1.816250e+02  -7.164839e+02
   3.753312e+02  -1.038381e+02
   2.649770e+02   6.080659e+02
  -1.553716e+02   6.324457e+02
  -5.263311e+02  -5.562313e+01
  -2.108741e+02  -6.185783e+02
   1.926324e+02  -6.211191e+02
   4.937449e+02  -1.843798e+02
   3.590595e+02   2.124930e+02
   2.628529e+01   3.960452e+02
  -2.252753e+02   2.422161e+02
  -1.223341e+02   6.067426e+01
   1.364007e+02   9.561217e+00
   3.825258e+02   2.185822e+02
   1.001763e+02   4.073491e+02
  -5.109416e+02   3.573993e+02
  -6.422965e+02  -1.615351e+02
  -2.872073e+02  -4.637839e+02
   3.764200e+02  -3.242010e+02
   5.522193e+02   1.278324e+02
   2.380664e+02   4.172912e+02
  -2.625183e+02   4.244865e+02
  -4.882453e+02   1.194732e+02
  -3.616551e+02  -1.565697e+02
  -8.430197e+00  -3.787010e+02
   1.597677e+02  -1.726424e+02
   8.073742e+01   2.300776e+02
  -1.883625e+02   3.462372e+02
  -3.102885e+02  -1.769310e+02
  -4.527855e+01  -5.870542e+02
   2.663003e+02  -6.363260e+02
   5.136382e+02  -2.990680e+01
   2.070837e+02   4.073885e+02
  -2.642844e+02   1.882664e+02
  -2.983037e+02  -3.413499e+02
   1.171469e+02  -5.112993e+02
   4.556850e+02  -7.560186e+01
   6.014903e+02   3.524948e+02
   1.204487e+02   4.914648e+02
  -3.603846e+02   3.263315e+02
  -5.846194e+02  -1.312747e+02
  -2.558705e+02  -3.392833e+02
   8.888958e+01  -2.811513e+02
   3.763423e+02  -1.100419e+01
   1.766931e+02   1.515701e+02
  -1.227893e+02   6.565264e+01
  -8.381420e+01  -1.131156e+02
   1.871803e+02  -1.014791e+02
   2.944690e+02   7.937385e+01
   1.146026e+02   2.097535e+02
  -1.495797e+02   2.072440e+02
  -2.852877e+02   9.335663e+01
  -2.211623e+02  -6.903340e+01
   4.979091e-01  -2.782120e+02
   2.708217e+02  -3.017415e+02
   3.553861e+02  -1.697607e+02
   3.011053e+02   1.601443e+02
  -4.818041e+00   3.988668e+02
  -1.117094e+02   2.898475e+02
  -7.344980e+01   1.326750e+02
   2.814367e+01   5.962988e+01
  -5.249175e+01   1.046355e+02
  -1.975864e+02   9.138630e+01
  -2.524719e+02  -6.769354e+01
  -1.285452e+02  -2.744192e+02
   1.491885e+02  -2.386885e+02
   2.295903e+02   1.638615e+01
   1.510595e+02   2.593562e+02
  -2.585841e+01   2.555607e+02
  -2.750300e+02   6.019176e+01
  -3.461161e+02  -1.557635e+02
  -1.852095e+02  -3.290876e+02
   6.381249e+01  -2.752028e+02
   1.940367e+02  -1.490047e+02
   1.325202e+02  -2.756594e+01
   1.280634e+02  -2.295443e+01
   1.991237e+02  -5.724810e+01
   3.416759e+02   8.746008e+01
   3.286507e+02   2.583895e+02
   4.531369e+01   4.202660e+02
  -3.523572e+02   3.821076e+02
  -4.083632e+02   2.095702e+02
  -3.102833e+02  -9.470522e+01
  -1.380100e+01  -2.576995e+02
   1.112638e+02  -2.529638e+02
   7.138555e+01  -2.250692e+01
  -1.520485e+02   1.015340e+02
  -1.875321e+02  -4.975799e+01
  -2.693899e+01  -1.660046e+02
   1.514327e+02  -1.119456e+02
   1.534325e+02   7.912716e+01
  -3.797780e+01   1.122025e+02
  -1.793553e+02  -1.504609e+01
  -1.618363e+02  -2.067936e+02
   2.280010e+01  -3.407689e+02
   2.117886e+02  -1.839081e+02
   3.075633e+02   5.658715e+01
   2.471910e+02   2.000447e+02
   3.222160e+01   2.246167e+02
  -1.146244e+02   1.542975e+02
  -1.667590e+02   1.817410e+01
  -3.060227e+01  -4.265315e+01
   5.883231e+01   3.577071e+01
   2.131764e+01   1.374984e+02
  -1.420636e+02   9.923686e+01
  -1.874304e+02  -1.425549e+01
  -6.564702e+01  -7.042510e+01
   9.656556e+01  -1.155600e+01
   3.385728e+01   6.882320e+01
  -1.298910e+02   8.980615e+01
  -2.487848e+02  -2.800083e+01
  -2.190437e+02  -1.387252e+02
  -5.130582e+01  -2.674041e+02
   1.725771e+02  -1.903223e+02
   2.883371e+02  -8.956683e+01
   1.433053e+02   7.019477e+01
  -4.487259e+01   8.159154e+01
  -9.509707e+01  -3.033656e-01
   5.340978e+01  -8.479117e+01
   2.047255e+02  -2.543998e+01
   1.907889e+02   1.368840e+02
   3.283568e+01   1.633408e+02
  -5.293607e+01   1.276982e+02
  -1.123665e+02   1.415321e+01
  -5.868658e+01  -4.859941e+01
   3.848064e+01   1.430627e+01
   1.489261e+01   8.331776e+01
  -8.603762e+01   1.064459e+02
  -2.042947e+02   3.093734e+01
  -1.619247e+02  -1.546165e+02
   4.450384e+00  -2.304250e+02
   1.826018e+02  -1.643617e+02
   1.943665e+02   2.598299e+01
   1.043416e+02   1.375793e+02
  -6.353215e+01   1.020314e+02
  -7.363134e+01   5.509054e+00
  -3.294078e+01  -1.015693e+01
   3.130958e+01  -3.696644e+01
  -1.366337e+00  -4.027538e+01
  -4.649123e+01  -3.625012e+00
  -6.563248e+01  -8.942118e+01
   2.656290e+01  -1.587146e+02
   8.730028e+01  -1.283829e+02
   2.447168e+02  -3.785085e+01
   1.770248e+02   1.507879e+02
   1.287033e+01   2.175468e+02
  -1.098391e+02   1.968756e+02
  -1.268167e+02  -1.108239e+00
  -7.000660e+01  -5.683788e+01
  -3.140610e+01  -4.543825e+01
  -5.028123e+01   3.886918e+00
  -6.764831e+01   3.385601e-01
  -7.368626e+01  -5.788790e+01
   2.524375e+01  -9.788695e+01
   1.210075e+02  -8.346778e+01
   9.029695e+01   3.665127e+01
  -3.970168e+01   1.075811e+02
  -1.670268e+02   8.704178e+01
  -1.743974e+02  -8.425552e+01
  -8.878799e+01  -1.917895e+02
   1.681074e+02  -2.459560e+02
   2.603528e+02  -9.092984e+01
   2.489520e+02   7.780606e+01
   8.887549e+01   1.472560e+02
  -4.194109e+01   1.156862e+02
  -7.974454e+01   5.703686e+01
  -7.982700e+01   7.289660e+01
  -6.577568e+01   9.827500e+01
  -1.015325e+02   5.634656e+01
  -1.158363e+02  -2.034141e+01
  -1.238861e+02  -1.462964e+02
  -2.879543e+01  -2.260818e+02
   9.596032e+01  -1.730326e+02
   1.502452e+02   2.585861e+00
   1.256214e+02   1.253966e+02
  -1.982468e+00   1.524606e+02
  -6.735124e+01   8.797439e+01
  -8.283774e+01   6.402052e+00
  -1.370463e+01  -2.968925e+01
   1.665359e+01  -5.035621e+01
  -5.929872e+01  -1.205788e+01
  -8.021214e+01  -1.854838e+01
  -2.199185e+01  -2.765767e+01
   5.588209e+01  -4.961768e+01
   1.639451e+02   1.778623e-01
   1.142942e+02   4.312821e+01
  -2.839267e+01   1.115982e+02
  -1.363119e+02   9.461799e+01
  -1.486320e+02   2.424494e+01
  -2.637869e+01  -2.502119e+01
   8.027755e+01  -3.067802e+01
   9.408446e+01   2.853303e+01
   9.705247e+00   6.525794e+01
  -5.417966e+01   2.315551e+01
  -6.500112e+01  -2.173240e+01
  -4.447324e+01  -4.481889e+01
  -2.533776e+01  -3.811186e+01
  -5.396531e+01   1.275222e+01
  -5.729603e+01  -1.773730e+00
  -2.765493e+01  -9.275401e+01
   4.441359e+01  -1.777551e+02
   1.022801e+02  -1.317563e+02
   1.502188e+02  -1.780206e+01
   1.152190e+02   9.841576e+01
   2.139009e+00   1.277131e+02
  -8.216530e+01   5.490852e+01
  -7.155711e+01   5.838695e+00
   6.558615e+01  -1.615207e+01
   1.505426e+02   2.538571e+01
   7.158693e+01   1.185471e+02
  -6.461991e+01   1.191302e+02
  -1.907882e+02   2.846520e+01
  -1.284351e+02  -2.122615e+00
  -2.584242e+01  -9.993655e+01
   6.798540e+01  -6.522507e+01
   5.345655e+01  -5.003426e+01
  -3.937017e+01   2.398661e+01
  -1.194506e+02  -7.486082e+00
  -5.028938e+01  -1.141296e+02
   7.443677e+01  -1.423898e+02
   1.352822e+02  -4.813035e+01
   1.292542e+02   1.153413e+02
   1.533817e+01   1.614641e+02
  -9.172504e+01   1.308884e+02
  -8.960111e+01  -4.736583e+01
  -3.580194e+01  -1.085376e+02
   1.725849e+01  -1.175624e+02
   2.449535e+01  -2.409191e+01
   5.483706e+01   4.274612e+01
   4.233826e+00   2.824634e+01
   1.960293e+01  -2.561049e+01
   2.610592e+01   8.357349e+00
   7.907982e+01   9.384142e+01
   4.491073e+01   9.594698e+01
  -4.180714e+01   1.290457e+01
  -1.329217e+02  -5.673754e+01
  -1.011429e+02  -7.835503e+01
  -4.147189e+00  -2.888359e+01
   1.070856e+02  -3.047352e+01
   8.021402e+01  -1.075738e+01
  -8.963035e+00   2.812169e+01
  -4.948272e+01   6.206476e+01
  -1.302711e+01   1.310541e+01
   2.351017e+01   5.006166e+00
  -1.899090e+01   4.934683e-02
  -6.577968e+01  -1.078708e+01
  -8.906060e+01  -1.512758e+01
  -1.515704e+01  -6.746416e+01
   1.122015e+02  -1.025637e+02
   1.833931e+02  -3.175876e+01
   1.444031e+02   7.426608e+01
   1.852045e+01   1.828613e+02
  -7.728580e+01   1.211621e+02
  -1.156258e+02   7.254165e+01
  -9.330871e+01  -1.951934e+01
  -3.436470e+01  -1.919002e+01
   2.444728e+01  -3.089709e+01
   1.888878e+01  -2.792913e+01
  -1.016495e+01  -5.324681e+01
  -8.711096e+00  -1.224151e+02
   4.124948e+01  -6.122716e+01
   5.434886e+01   1.409572e+01
   8.853661e+01   1.057387e+02
   1.072741e+01   1.359812e+02
  -6.366915e+01   1.423038e+01
  -7.427784e+01  -5.574188e+01
  -2.837513e+01  -6.467760e+01
   5.864398e+01  -6.375022e+01
   8.911229e+01  -1.528250e+01
   4.094172e+01   7.947226e+01
  -3.470766e+01   6.168219e+01
  -1.296848e+01   4.010343e+01
   3.006601e+01  -2.103448e+01
   3.376385e+01  -7.866170e+00
   2.825725e+01   1.406518e+01
  -6.558625e+01   5.120250e+01
  -1.324036e+02   6.920288e+01
  -8.862641e+01   1.222360e+01
   3.395273e+01  -6.858980e+01
   3.874647e+01  -1.011108e+02
   5.526441e+01   2.040118e+00
   4.642445e+00   5.899439e+01
  -1.701476e+01   3.771740e+01
  -2.283893e+01   1.137013e+01
   6.592957e+00  -7.098882e+01
   1.764403e+01  -5.363658e+01
   4.462401e+01   1.098713e+01
   4.075089e+01   9.103101e+00
  -2.177395e+00   9.384190e+00
   2.186252e+01  -2.058866e+01
  -8.439650e+00  -2.937219e+01
  -1.428280e+01   2.046832e+01
   2.639818e+00   4.250938e+01
   9.903926e+00  -2.439559e+01
  -3.718250e+01  -9.847920e+00
   1.871072e+01  -7.291476e+01
   5.031237e+01  -2.367582e+01
   7.066965e+01   4.532914e+01
   1.587238e+01   1.038867e+02
  -4.134419e+01   3.637835e+01
  -9.814022e+01  -3.689969e+01
  -3.691311e+01  -1.406920e+01
   3.566135e+01  -6.562090e+01
   7.333141e+01  -2.531240e+01
   3.531826e+01   1.179812e+01
  -3.048286e+01   1.459055e+01
  -6.399004e+01  -9.216502e+00
   3.882605e+01  -2.447553e+01
   5.970109e+01  -9.102563e+00
