
 $NMID
 id='ANONYMOUS ', fmtdat='(2E16.6)'
 volume=1.0
 tramp=1.0
 $END
  -4.513575e+03   6.161494e+02
  -2.453089e+03  -2.803833e+03
   5.372841e+02  -2.898159e+03
   2.186998e+03  -6.087692e+02
   1.064735e+03   6.764872e+02
  -6.082909e+02   6.901746e+02
  -1.154265e+03  -3.836242e+02
   8.973025e+01  -1.037917e+03
   7.210864e+02  -8.651633e+02
   9.166205e+02   4.971465e+01
   5.417018e+02   8.907053e+02
  -1.558377e+02   8.903213e+02
  -6.631689e+02   1.369036e+02
  -4.576918e+02  -7.807549e+02
   2.936015e+02  -8.314025e+02
   6.250138e+02   5.670227e+01
   2.654745e+02   7.318159e+02
  -3.043303e+02   6.659438e+02
  -6.202787e+02   1.026627e+02
  -4.387896e+02  -3.158917e+02
  -5.288221e+01  -4.160964e+02
   2.942010e+02  -2.449374e+02
   2.091469e+02  -2.210557e+01
  -1.013885e+02   8.391149e+01
  -4.005604e+02  -1.201297e+02
  -2.655752e+02  -5.105696e+02
   4.548283e+02  -4.383738e+02
   9.459411e+02   1.687952e+01
   5.346264e+02   5.225055e+02
  -4.234607e+02   5.654598e+02
  -7.556746e+02  -5.787808e+01
  -4.072558e+02  -4.420207e+02
   2.640559e+02  -5.436547e+02
   5.650467e+02  -2.209033e+02
   4.859800e+02   2.196176e+02
   7.540351e+01   5.428156e+02
  -2.067231e+02   3.111600e+02
  -1.980550e+02  -2.096551e+02
   1.856202e+02  -5.160650e+02
   5.259230e+02   1.946840e+01
   2.610345e+02   7.116230e+02
  -3.681132e+02   8.555024e+02
  -6.448222e+02   3.126601e+00
  -3.301174e+02  -7.159756e+02
   2.771807e+02  -3.285843e+02
   3.978410e+02   3.732439e+02
  -6.299924e+01   5.684288e+02
  -5.962394e+02   1.700139e+02
  -6.135536e+02  -3.886858e+02
  -1.473927e+02  -5.791651e+02
   4.289991e+02  -3.831271e+02
   6.595640e+02   6.449572e+01
   3.774255e+02   3.870422e+02
  -1.189994e+02   4.122563e+02
  -4.503496e+02   6.051488e+00
  -2.328788e+02  -1.905673e+02
   1.147316e+02  -1.234999e+02
   1.328087e+02   1.676739e+02
  -1.891222e+02   1.948554e+02
  -4.030949e+02  -5.446315e+01
  -2.052284e+02  -3.079426e+02
   1.495114e+02  -3.051911e+02
   3.082472e+02  -1.476292e+01
   2.328227e+02   5.878149e+01
  -4.150056e+01   2.392858e+02
  -2.481106e+02   2.837067e+02
  -2.719214e+02   1.875067e+02
  -3.035813e+02  -1.340876e+02
  -6.006942e+01  -4.316883e+02
   1.817539e+02  -3.745663e+02
   1.303542e+02  -1.249680e+02
   2.021551e+01  -2.328334e+01
   1.585712e+01  -1.072935e+02
   1.722423e+02  -1.425998e+02
   2.708672e+02   3.178633e+01
   1.813804e+02   2.341210e+02
  -9.138303e+01   2.680598e+02
  -2.355194e+02   3.641161e+01
  -2.230388e+02  -2.463902e+02
  -2.188623e+01  -3.064991e+02
   2.817220e+02  -1.035428e+02
   3.793599e+02   1.521828e+02
   2.035875e+02   3.227091e+02
  -9.197575e+01   3.425806e+02
  -2.363819e+02   1.671440e+02
  -1.461469e+02   1.234503e+01
  -9.186444e+01   4.988131e+01
  -2.010303e+02   8.717883e+01
  -4.280688e+02  -5.274557e+01
  -2.889436e+02  -2.536048e+02
  -2.461882e+01  -4.929803e+02
   3.616879e+02  -4.003892e+02
   4.256734e+02  -2.473629e+02
   3.405835e+02   8.023707e+01
   6.099622e+01   2.923326e+02
  -1.566370e+02   2.625783e+02
  -6.705175e+01   4.837966e+01
   1.267621e+02  -1.373895e+02
   2.348080e+02   4.234290e+01
   6.611830e+01   1.959245e+02
  -1.497432e+02   1.839291e+02
  -1.757386e+02  -6.821414e+01
  -1.552115e+01  -2.162084e+02
   2.111699e+02  -5.300039e+01
   1.607187e+02   2.209154e+02
  -1.072716e+02   3.819285e+02
  -2.169675e+02   2.034940e+02
  -2.868970e+02  -3.263915e+01
  -2.597079e+02  -2.357455e+02
  -1.040743e+02  -2.861402e+02
   1.220632e+02  -1.521494e+02
   1.772117e+02  -2.604613e+01
   4.535552e+01   2.294242e+01
  -7.730579e+01  -8.541416e+00
  -5.186941e+01  -1.431008e+02
   1.220785e+02  -1.511663e+02
   1.873360e+02   2.620018e+01
   7.509516e+01   6.550198e+01
  -1.021802e+02   2.714744e+01
  -6.557895e+01  -5.222465e+01
   1.304850e+02  -1.043924e+02
   2.887424e+02  -1.292473e+01
   2.494566e+02   6.217364e+01
   7.006265e+01   2.518541e+02
  -1.752821e+02   2.745903e+02
  -2.831100e+02   1.205976e+02
  -1.746220e+02  -3.921052e+01
   3.742309e+00  -1.310433e+02
   9.544364e+01  -6.696251e+00
  -3.802716e+01   9.919996e+01
  -2.058731e+02   2.177082e-01
  -2.273096e+02  -1.338771e+02
  -9.924361e+01  -2.260857e+02
   7.391353e+01  -1.632893e+02
   1.110301e+02  -6.757434e+01
   5.047893e+01   2.985312e+01
  -1.984351e+01   1.308222e+01
  -3.821594e+01  -8.760660e+01
   7.570818e+01  -1.390278e+02
   1.539997e+02  -3.244614e+01
   1.625604e+02   1.380583e+02
   3.632416e+01   2.001813e+02
  -1.642051e+02   1.899293e+02
  -2.118676e+02  -2.305461e+01
  -6.849556e+01  -1.110210e+02
   7.648185e+01  -1.307578e+02
   8.190001e+01  -1.245133e+01
   2.707577e+01   2.779202e+01
  -5.593585e-01   1.635323e+01
   1.878375e+01  -2.280133e+01
   7.992535e+01  -1.282866e+00
   1.228902e+02   8.380987e+01
  -4.677499e+00   1.399459e+02
  -1.167863e+02   1.768366e+02
  -2.773204e+02   1.270216e+01
  -2.251439e+02  -1.196202e+02
  -1.371733e+01  -2.393965e+02
   1.395861e+02  -1.790699e+02
   1.081051e+02  -3.287906e+01
   9.403992e+01   4.016111e+01
   3.903598e+01   2.435453e+01
   6.293804e+01   6.303841e+00
   7.082433e+01  -1.262068e+01
   3.214135e+01   3.401863e+01
  -5.121765e+01   1.058089e+02
  -1.318384e+02   5.553789e+01
  -1.051873e+02  -2.127558e+01
  -4.154750e+00  -1.147138e+02
   1.245879e+02  -9.690608e+01
   1.824491e+02   6.321418e+01
   1.172979e+02   2.123400e+02
  -1.020455e+02   2.122634e+02
  -2.520427e+02   1.035017e+02
  -2.024874e+02  -8.674771e+01
  -1.101059e+02  -1.702299e+02
   2.061571e+01  -1.371453e+02
   1.135046e+02  -6.901884e+01
   1.098297e+02  -7.781085e+01
   3.227616e+01  -6.741829e+01
   6.959969e+01  -7.315083e+01
   1.084775e+02   2.246852e+01
   1.380732e+02   1.445281e+02
   1.911156e+01   2.425033e+02
  -7.805989e+01   1.692836e+02
  -1.722164e+02   2.501239e+01
  -1.342572e+02  -1.207909e+02
  -5.907204e+01  -1.311059e+02
   8.422183e+01  -9.284148e+01
   6.534960e+01  -8.484880e+00
   1.484445e+01   6.625401e+01
  -3.743664e+01   4.645686e+01
   3.389332e+01   2.144076e+01
   7.229734e+01   2.773360e+01
   9.079378e+01   5.822347e+01
  -6.640031e+01   3.970525e+01
  -1.206820e+02   2.148197e+01
  -1.420313e+02  -3.726780e+01
  -1.391723e+01  -7.381171e+01
   1.067041e+02  -3.263237e+01
   1.686559e+02  -3.418006e+01
   6.946092e+01   7.044785e+00
  -6.455713e+01   2.086660e+01
  -4.720382e+01  -5.309480e+01
  -1.511021e+01  -5.686156e+01
   7.460049e+01  -6.362459e+01
   1.077316e+02  -1.676690e+01
   5.138182e+01   5.061849e+01
  -3.831049e-01   6.847121e+01
   2.901279e+01   2.760730e+00
   9.985945e+01  -4.113842e+00
   4.048280e+01   4.999868e+01
  -3.467105e+01   1.782912e+02
  -1.211094e+02   1.488176e+02
  -1.588425e+02   2.398644e+01
  -1.277495e+02  -8.257258e+01
  -2.363240e+01  -1.058928e+02
   9.268394e+01  -5.678486e+01
   6.024818e+01  -1.110679e+01
  -6.921148e+01   3.988934e+00
  -1.156403e+02  -4.284600e+01
  -8.272747e+01  -1.236805e+02
   7.943483e+01  -1.126472e+02
   2.159669e+02  -5.859682e+01
   1.682681e+02   2.767083e+01
   2.762790e+01   1.027661e+02
  -4.396395e+01   6.099778e+01
  -5.385097e+01  -4.698017e+00
   4.127627e+01  -5.120606e+01
   8.288676e+01   2.385820e+01
   2.748769e+01   1.067958e+02
  -7.932210e+01   1.335969e+02
  -1.408054e+02   5.949424e+01
  -1.153999e+02  -8.695648e+01
  -1.372730e+00  -2.011036e+02
   1.176310e+02  -1.228554e+02
   1.309049e+02   2.993513e+01
   4.851759e+01   1.199641e+02
   3.348490e+01   1.070564e+02
  -5.637550e+01  -1.788665e+01
  -7.898985e+01  -4.456488e+01
  -1.745379e+01  -2.008306e+01
   6.233227e+00   3.690721e+01
  -1.666890e+01  -2.105254e+01
  -5.158538e+01  -9.682291e+01
  -6.587772e+01  -1.374452e+02
   3.048351e+01  -3.589936e+01
   1.610855e+02   2.637071e+01
   1.466324e+02   8.564325e+01
   1.093022e+00   3.732158e+01
  -1.068838e+02   1.215618e+01
  -1.165997e+02   2.207223e+01
   1.460498e+01  -2.676376e+01
   3.737875e+01  -2.908617e+01
   1.959251e+01  -2.489492e+01
  -1.850856e+01   1.915273e+01
   2.442475e+01   2.758877e+00
   7.447713e+01  -1.167024e+01
   9.900408e+01   3.563668e+01
   2.171502e+01   9.406967e+01
  -9.114372e+01   1.340332e+02
  -1.851045e+02   4.599104e+01
  -1.881251e+02  -7.423872e+01
  -4.278720e-01  -1.630218e+02
   6.669004e+01  -1.126382e+02
   1.244060e+02  -7.118557e+01
   6.355259e+01   2.360402e+01
   3.678240e+01   7.571224e+00
  -2.452781e+00   6.173638e+00
   2.817934e+01  -7.892194e+00
   4.793451e+01   3.827954e+01
   3.009926e+01   1.062285e+02
  -4.870664e+01   6.690085e+01
  -8.049127e+01  -1.895933e+01
  -6.900869e+01  -1.036749e+02
  -6.239635e+00  -1.176961e+02
   9.919262e+01  -3.911625e+01
   9.641204e+01   8.883103e+01
   3.733276e+01   8.717643e+01
  -7.029974e+01   5.308530e+01
  -1.044879e+02  -3.211213e+00
  -5.071543e+01  -4.912121e+01
   2.601054e+01  -3.960635e+01
   1.194948e+01  -4.867178e+01
  -6.927328e+00   2.170412e-01
  -9.419828e+01   1.054849e+01
  -1.238281e+01  -3.708443e+01
   8.048810e+01  -8.969871e+01
   1.236404e+02  -4.952245e+01
   6.291299e+01   1.856998e+01
  -1.624138e+01   1.096348e+02
  -2.050039e+01   4.993084e+01
  -5.642517e+01   3.366294e+00
   6.226434e+00  -7.209883e+01
   4.071238e+01  -6.775152e+01
   1.776085e+01   9.933917e+00
   3.193506e+01   4.468589e+01
  -2.001878e+00   3.335846e+01
  -2.865444e+01  -1.927066e+01
  -3.287084e+01  -9.128090e+00
  -1.965541e+01   3.409813e+01
  -1.792074e+01  -2.906555e+01
   1.373303e+01  -1.558893e+01
   8.875787e+00  -2.451886e+01
   1.245648e+01  -3.222125e+01
   3.756411e+01   2.887284e+00
   4.269645e+01   2.139619e+01
  -3.961518e+00   9.084811e+01
  -3.827454e+01   3.401474e+01
  -6.168503e+01  -3.520291e+01
  -3.778253e+00  -6.335811e+01
   7.164945e+01  -4.985875e+01
   7.656871e+01  -1.025148e+00
   6.870285e+01   2.317782e+01
  -2.356812e+01   6.893418e+01
  -7.073261e+01   5.138661e+01
   1.812609e-02  -1.226376e+01
   3.755474e+01  -1.013220e+01
   3.876118e+01   1.676585e+00
  -3.512320e+01   6.799663e+01
  -9.359815e+01   3.366340e+01
