
 $NMID
 id='ANONYMOUS ', fmtdat='(2E16.6)'
 volume=1.0
 tramp=1.0
 $END
  -3.001237e+03  -2.566604e+02
  -1.968206e+03  -1.789738e+03
   1.847367e+02  -1.589031e+03
   1.554779e+03  -1.025596e+03
   6.873929e+02   2.927381e+01
  -2.040591e+01   1.189209e+02
  -4.060560e+02  -2.311040e+02
  -1.576650e+01  -5.260322e+02
   4.460230e+02  -5.322835e+02
   5.940320e+02  -7.858588e+01
   3.634963e+02   5.469300e+02
  -1.109430e+02   6.577109e+02
  -2.614242e+02   6.837496e+01
  -2.102160e+02  -5.033375e+02
   1.641850e+02  -5.261461e+02
   4.730466e+02  -3.673969e+01
   3.145537e+02   4.300769e+02
  -1.555849e+02   6.659600e+02
  -3.863486e+02   2.514429e+02
  -3.826793e+02  -1.519099e+02
  -1.131116e+02  -3.594731e+02
   1.838279e+02  -2.217180e+02
   8.596062e+01  -7.997728e+01
  -1.685429e+02  -1.976146e+01
  -2.025469e+02  -1.854108e+02
  -3.997243e+01  -3.841740e+02
   5.023061e+02  -1.698884e+02
   5.451899e+02   1.466747e+02
   2.036215e+02   3.759091e+02
  -3.742613e+02   3.226344e+02
  -4.825079e+02  -7.677670e+01
  -1.612182e+02  -3.741600e+02
   2.481674e+02  -3.671352e+02
   4.177206e+02  -9.000541e+01
   3.590793e+02   1.629884e+02
   5.584816e+01   3.215814e+02
  -7.532806e+01   1.607494e+02
   6.260708e+00  -1.073772e+02
   9.029180e+01  -1.642860e+02
   1.346386e+02   8.956500e+01
   2.258972e+01   4.413302e+02
  -2.392284e+02   5.093702e+02
  -4.040142e+02  -4.540200e+01
  -1.005376e+02  -3.515701e+02
   1.707404e+02  -1.246631e+02
   1.820889e+02   2.333990e+02
  -1.321565e+02   3.578386e+02
  -4.101979e+02   1.044761e+02
  -5.392244e+02  -3.708133e+02
  -1.935307e+02  -4.574956e+02
   2.989312e+02  -3.018532e+02
   5.262805e+02   7.987046e+01
   3.062106e+02   1.968440e+02
  -1.074520e+02   2.017503e+02
  -3.116399e+02   1.156521e+02
  -1.184789e+02  -4.988556e+01
   9.718016e+00  -3.593105e+01
   6.765547e+01   7.336746e+01
  -4.774714e+01   1.120558e+02
  -2.125868e+02  -3.509712e+01
  -9.571201e+01  -2.100173e+02
   1.459927e+02  -2.354739e+02
   3.153850e+02  -1.551400e+02
   2.069808e+02   1.201088e+02
  -4.134201e+01   2.991622e+02
  -2.793058e+02   3.079221e+02
  -3.504677e+02   1.620612e+02
  -2.052782e+02  -1.616020e+02
   1.516473e+01  -3.143090e+02
   5.797795e+01  -2.918172e+02
  -1.314089e+01  -1.351440e+02
   1.699051e+00  -9.660973e+01
   1.306721e+02  -1.075739e+02
   2.403534e+02  -7.751025e+01
   2.436719e+02   9.100359e+01
   1.378785e+02   2.603761e+02
  -1.056484e+02   1.639909e+02
  -1.598866e+02  -1.023623e+01
  -1.337830e+02  -2.270847e+02
   2.697743e+01  -2.645052e+02
   2.366545e+02  -5.995513e+01
   2.567199e+02   1.341802e+02
   1.807273e+02   2.934584e+02
  -6.755361e+01   2.227699e+02
  -2.095111e+02   1.041302e+02
  -1.618299e+02   7.349837e+01
  -1.221998e+02   5.054390e+01
  -2.949861e+02   3.639880e+01
  -4.183432e+02  -8.888277e+01
  -3.391096e+02  -2.546931e+02
   2.321608e+01  -4.202694e+02
   3.764770e+02  -3.381079e+02
   4.664181e+02  -1.903865e+02
   2.774976e+02   8.988599e+01
   6.726864e+01   2.563154e+02
  -1.109702e+02   1.692429e+02
  -2.328822e+01   5.718691e+01
   9.240132e+01  -4.978452e+01
   1.656892e+02   2.895170e+01
   4.278264e+01   1.424686e+02
  -1.205022e+02   9.698740e+01
  -1.217473e+02  -5.411091e+01
   4.673333e+00  -1.351908e+02
   1.645106e+02   1.395385e+01
   1.503316e+02   2.169146e+02
  -1.796978e+01   2.783303e+02
  -1.885392e+02   1.868607e+02
  -3.206001e+02  -5.097317e+01
  -2.692615e+02  -1.779846e+02
  -5.792102e+01  -2.365318e+02
   1.299629e+02  -1.321359e+02
   1.291786e+02  -2.126350e+01
   5.046127e+01   2.840672e+01
  -2.946310e+01  -4.634052e+01
  -3.288347e-01  -1.212569e+02
   1.079313e+02  -8.441733e+01
   1.430800e+02   4.256671e+01
  -3.460064e+00   6.634998e+01
  -6.786759e+01   1.891581e+01
  -2.605139e+01  -9.559517e+01
   1.401104e+02  -4.113127e+01
   2.797788e+02  -3.983283e+01
   2.297971e+02   1.783153e+02
   4.787279e+01   2.477781e+02
  -2.051500e+02   1.914961e+02
  -2.535557e+02   4.690251e+01
  -1.346538e+02  -1.901687e+01
   7.377153e+01  -8.323272e+01
   6.046749e+01   2.010676e+01
  -8.182521e+01   4.648026e+01
  -1.827738e+02   3.284984e+01
  -1.380068e+02  -1.178465e+02
  -2.463574e+01  -2.042102e+02
   8.003146e+01  -1.433304e+02
   1.370999e+02  -1.984256e+01
   6.977795e+01   1.471829e+01
  -3.790270e+01  -3.591048e+01
  -3.375680e+01  -7.675920e+01
   1.023238e+02  -1.105356e+02
   2.188485e+02  -1.362017e+01
   1.565735e+02   1.250966e+02
   2.769981e+01   1.586017e+02
  -1.458214e+02   1.070448e+02
  -1.473523e+02   2.989368e+01
  -5.436758e+01  -1.116778e+02
   9.063989e+01  -1.121899e+02
   5.499252e+01  -2.317296e+01
   8.372649e+00   2.587897e+01
  -5.342534e+00   9.234069e+00
   1.358482e+01  -5.307757e+01
   7.801157e+01   2.037171e+01
   1.113608e+02   6.260855e+01
  -2.089478e+00   1.317953e+02
  -1.403347e+02   1.384781e+02
  -2.191344e+02   7.575553e+00
  -1.807195e+02  -1.515834e+02
  -2.766975e+01  -2.371992e+02
   1.013867e+02  -1.591480e+02
   1.099309e+02  -1.921364e+01
   6.768007e+01   3.590729e+01
   1.402618e+01  -6.254541e-01
   4.470167e+01  -9.003492e+00
   1.005613e+02  -4.388072e+00
   4.109527e+01   7.366232e+01
  -7.249939e+01   9.515516e+01
  -8.401960e+01   5.819263e+01
  -1.204695e+02  -6.005435e+01
   3.426524e+01  -1.310330e+02
   1.640548e+02  -6.790942e+01
   2.295167e+02   8.361600e+01
   9.434053e+01   1.802931e+02
  -1.295909e+02   1.931527e+02
  -2.374060e+02   7.595438e+01
  -2.209443e+02  -9.385030e+01
  -8.554183e+01  -1.601829e+02
   2.655362e+01  -1.422342e+02
   9.223271e+01  -9.944570e+01
   8.062327e+01  -6.903166e+01
   7.797345e+01  -1.001434e+02
   7.592763e+01  -3.237725e+01
   1.276014e+02  -7.776580e+00
   1.153547e+02   1.827094e+02
   2.307826e+00   2.116919e+02
  -1.073574e+02   2.036901e+02
  -1.381205e+02   2.445472e+00
  -1.359179e+02  -1.186952e+02
  -1.214631e+01  -1.607741e+02
   5.563442e+01  -6.801907e+01
   6.168654e+01  -5.513801e+00
  -9.140320e+00   7.427260e+01
  -2.469170e+01   4.323491e+01
   2.646593e+01   1.011026e+01
   6.322976e+01   2.386895e+01
   4.982862e+01   6.942450e+01
  -6.920618e+01   3.139954e+01
  -1.467425e+02  -9.581845e+00
  -1.029869e+02  -4.588367e+01
  -4.446800e-01  -7.541023e+01
   1.391315e+02  -1.119363e+02
   1.402363e+02   1.563732e+01
   3.766523e+01   4.658345e+01
  -1.740275e+01   2.307670e+01
  -7.014699e+01  -3.888701e+01
  -9.075472e-01  -5.044820e+01
   4.084429e+01  -4.714805e+01
   4.104360e+01   8.627929e+00
   4.714677e+01   6.632691e+01
   2.516301e+01   4.850521e+01
   4.434308e+01   2.294091e+01
   5.672469e+01  -4.659105e+00
   4.551603e+01   8.650421e+01
  -4.503823e+01   1.532903e+02
  -9.098382e+01   1.355030e+02
  -1.286853e+02   1.123073e+01
  -1.272410e+02  -1.076448e+02
   1.385826e+01  -1.134298e+02
   1.024871e+02  -6.630831e+01
   5.171404e+01   7.098418e+00
  -2.417191e+01   8.264835e+00
  -1.058239e+02  -3.945998e+01
  -5.147809e+01  -1.054959e+02
   9.817269e+01  -1.164719e+02
   1.832994e+02  -4.366514e+01
   1.370040e+02   4.852191e+01
   4.002208e+01   7.815292e+01
  -1.028647e+02   2.893197e+01
  -5.198253e+01  -4.102318e+00
   3.616978e+01  -4.054297e+01
   1.051543e+02   1.004279e+01
   2.533993e+01   1.296136e+02
  -6.129513e+01   1.748748e+02
  -1.164258e+02   6.845554e+01
  -1.373249e+02  -9.067509e+01
  -2.261616e+01  -1.991730e+02
   8.320007e+01  -1.214506e+02
   1.052861e+02   3.350969e+01
   3.438967e+01   1.228041e+02
  -4.840980e+01   7.540507e+01
  -3.840724e+01   2.946758e+01
  -4.287249e+01  -4.252070e+01
  -3.848124e+01  -2.029633e+01
  -1.678241e+01   3.652729e+00
  -2.506888e+01  -4.480077e+00
  -6.144537e+01  -6.475825e+01
  -3.420226e+01  -8.630806e+01
   4.653247e+01  -3.893675e+01
   1.180590e+02   2.108608e+01
   9.403529e+01   8.471107e+01
   3.247837e+01   4.487064e+01
  -6.255629e+01   1.072395e+01
  -8.861465e+01   1.273942e+00
  -5.220884e-01   2.050029e+01
   2.027853e+01  -5.020117e+01
  -5.981480e-02  -1.350726e+01
  -8.063992e+00  -1.034820e+01
   2.987905e+00   7.340521e+00
   4.774207e+01   1.210018e+00
   9.333323e+01   3.064973e+01
   2.357314e+01   5.761791e+01
  -1.188920e+02   1.000344e+02
  -1.451439e+02   3.684760e+01
  -1.559182e+02  -5.584419e+01
  -4.606116e+01  -1.655923e+02
   8.856772e+01  -1.212364e+02
   9.834096e+01  -3.212268e+01
   9.510407e+01   3.352848e+01
   3.352956e+01   5.975662e+01
   2.478244e+01   1.670528e+01
   1.674817e+01   4.273810e+00
   1.448454e+01   7.337984e+01
   3.972353e+01   9.457007e+01
  -2.059237e+01   6.778110e+01
  -6.573122e+01  -3.327550e+01
  -8.481932e+01  -5.461503e+01
  -3.327063e+01  -1.232163e+02
   9.070793e+01  -2.731661e+01
   8.994816e+01   3.980700e+01
   5.796802e+01   1.315618e+02
  -4.763344e+01   4.347572e+01
  -7.563857e+01  -3.639514e+01
  -2.803653e+01  -6.828042e+01
   5.455672e+01  -4.534523e+01
   5.561682e+01   1.042327e+01
  -4.240948e+01   1.268149e+01
  -7.537291e+01   6.814617e+00
   5.241128e-02  -3.281632e+01
   7.519730e+01  -5.191976e+01
   1.264678e+02  -3.292989e+01
   5.551529e+01   1.644434e+01
  -2.122442e+01   7.771990e+01
  -5.174783e+01   8.986418e+01
  -2.621934e+01   2.613254e+01
  -2.689572e+01  -2.046797e+01
   2.935319e+01  -6.692018e+01
   3.472963e+01   1.166938e+01
   4.288889e+00   4.240960e+01
  -2.752985e+00   4.927699e+01
  -5.630699e+01   7.547664e+00
  -1.859679e+01  -2.175949e+01
  -2.036397e+01  -2.033353e+01
   1.741851e+01   7.357973e+00
  -1.016257e+01   2.979245e+01
  -2.113945e+01  -3.129123e+01
   3.227312e+01  -5.895215e+01
   3.272732e+01  -3.495394e+01
   2.908453e+00   4.647796e+01
   8.179740e+00   4.745588e+01
  -3.914128e+01   2.473458e+01
  -4.574243e+01  -3.275069e+01
  -1.256357e+01  -7.773947e+01
   4.470414e+01  -2.215877e+01
   9.465758e+01   1.164187e+01
   6.325997e+01   7.084102e+01
   1.658164e+01   2.332566e+01
  -6.792380e+01   2.949970e+01
  -3.178540e+01   5.420685e+00
   1.522786e+01   1.353287e+01
   1.500987e+01  -8.381213e+00
  -5.128756e+01   2.212650e+01
  -7.218410e+01  -1.939540e+00
