
 $NMID
 id='ANONYMOUS ', fmtdat='(2E16.6)'
 volume=1.0
 tramp=1.0
 $END
  -3.945412e+03   2.074328e+02
  -2.603601e+03  -2.137020e+03
   1.412247e+02  -3.143032e+03
   1.508416e+03  -1.056597e+03
   1.192405e+03   3.682649e+02
  -4.191353e+02   5.810630e+02
  -7.557597e+02  -2.991366e+02
  -1.298393e+02  -9.870502e+02
   6.653843e+02  -8.189482e+02
   9.563297e+02  -6.084970e+01
   5.374915e+02   6.698994e+02
  -7.862275e+01   8.886084e+02
  -5.132959e+02   2.604582e+02
  -3.644752e+02  -6.846818e+02
   1.550303e+02  -6.860211e+02
   5.696965e+02  -1.320018e+02
   3.345512e+02   6.638475e+02
  -3.263942e+02   7.476417e+02
  -5.251482e+02   1.779908e+02
  -4.891070e+02  -3.231899e+02
  -1.031080e+02  -4.759351e+02
   1.738498e+02  -2.606478e+02
   1.960034e+02  -7.833932e+01
  -1.068951e+02   2.044810e+01
  -3.514510e+02  -1.649696e+02
  -1.238272e+02  -4.661163e+02
   5.113168e+02  -3.348492e+02
   9.121075e+02   8.275950e+01
   3.774774e+02   4.665845e+02
  -3.812225e+02   4.307957e+02
  -6.521434e+02  -5.843772e+01
  -3.384876e+02  -4.308368e+02
   3.065580e+02  -4.822866e+02
   6.165504e+02  -2.337989e+02
   4.407209e+02   2.529405e+02
   5.185534e+01   4.427294e+02
  -7.923032e+01   2.987607e+02
  -1.666218e+02  -1.182189e+02
   1.867117e+02  -3.815537e+02
   3.787675e+02   8.036527e+01
   1.769687e+02   5.412071e+02
  -3.857938e+02   6.420332e+02
  -6.159832e+02  -2.096993e+01
  -2.146427e+02  -4.940204e+02
   1.617817e+02  -2.899674e+02
   3.172613e+02   2.207562e+02
  -9.036008e+01   4.952525e+02
  -4.712027e+02   1.359619e+02
  -5.994405e+02  -4.217609e+02
  -1.701420e+02  -5.304613e+02
   3.914567e+02  -3.505714e+02
   6.868532e+02   5.836424e+01
   4.282180e+02   3.799292e+02
  -1.054048e+02   3.206803e+02
  -4.468028e+02   9.155747e+01
  -2.585721e+02  -1.457518e+02
   4.481562e+01  -1.159976e+02
   1.470120e+02   1.446387e+02
  -1.974645e+02   2.006184e+02
  -3.269603e+02  -7.911114e+01
  -1.341638e+02  -2.711720e+02
   1.778666e+02  -2.715903e+02
   3.517521e+02  -1.190841e+02
   2.546021e+02   7.132541e+01
   6.100019e+00   2.877006e+02
  -2.698453e+02   3.089026e+02
  -3.785192e+02   2.294002e+02
  -2.707302e+02  -1.370475e+02
  -8.598693e+01  -4.133518e+02
   9.137138e+01  -3.502900e+02
   8.594672e+01  -1.910971e+02
   2.537793e+01  -3.173576e+01
   8.431349e+01  -7.898902e+01
   2.306355e+02  -1.300414e+02
   2.685369e+02   8.822840e+01
   1.923933e+02   2.803792e+02
  -4.347442e+01   2.313791e+02
  -2.391666e+02   7.217215e+00
  -1.857386e+02  -2.774362e+02
   4.635180e+01  -3.395216e+02
   2.514086e+02  -1.065023e+02
   3.780908e+02   1.560653e+02
   2.495669e+02   2.880745e+02
  -8.919395e+01   3.376232e+02
  -2.103787e+02   1.251038e+02
  -1.488116e+02   2.469164e+01
  -1.471003e+02   6.900934e+01
  -2.568539e+02   7.352182e+01
  -4.389274e+02  -8.044401e+01
  -3.754943e+02  -3.054899e+02
   3.335267e+00  -4.351548e+02
   3.258058e+02  -3.844365e+02
   5.179986e+02  -2.173000e+02
   3.508889e+02   9.111787e+01
   4.826303e+01   2.896925e+02
  -1.198101e+02   2.268198e+02
  -7.093043e+01   4.438569e+01
   1.130655e+02  -9.886748e+01
   1.905027e+02   4.211879e+01
   6.417284e+01   2.110128e+02
  -1.721755e+02   1.803393e+02
  -1.598667e+02  -3.376602e+01
  -2.068009e+00  -1.889807e+02
   2.006700e+02  -3.625468e+01
   1.447946e+02   2.799485e+02
  -9.930071e+00   3.507426e+02
  -2.196129e+02   1.915769e+02
  -3.511798e+02  -7.334217e+01
  -2.714118e+02  -2.240690e+02
  -1.008668e+02  -2.769092e+02
   1.310264e+02  -1.651128e+02
   1.444858e+02  -3.085993e+01
   5.274358e+01   3.910887e+01
  -6.754690e+01  -1.394058e+00
  -2.471985e+01  -1.650438e+02
   1.547559e+02  -8.814124e+01
   1.772907e+02   7.719720e+01
   5.071588e+01   6.040406e+01
  -1.114854e+02   2.704625e+01
  -8.885380e+01  -9.927215e+01
   1.418757e+02  -9.479621e+01
   3.280967e+02  -1.778719e+00
   2.373958e+02   1.640722e+02
   7.380233e+01   2.649372e+02
  -1.681914e+02   2.844361e+02
  -2.978849e+02   1.440522e+02
  -1.721482e+02  -5.062087e+01
   4.283400e+01  -1.111132e+02
   1.054057e+02   2.239683e+01
  -5.490150e+01   6.957380e+01
  -1.676577e+02   7.095061e+01
  -2.324240e+02  -9.063608e+01
  -8.760411e+01  -1.962971e+02
   1.057049e+02  -1.605390e+02
   1.256293e+02  -6.264657e+00
   6.946941e+01   3.922281e+01
  -4.169540e+01   2.425364e+01
  -7.377991e+00  -8.601435e+01
   1.019681e+02  -1.081361e+02
   1.929063e+02  -2.634889e+00
   2.127129e+02   1.641251e+02
  -5.120522e+00   2.164812e+02
  -2.143563e+02   1.604443e+02
  -1.941911e+02   1.565629e+01
  -8.764438e+01  -1.412047e+02
   9.112042e+01  -1.296370e+02
   7.550818e+01  -3.339604e+01
   2.320383e+01  -1.058197e+01
  -2.310174e+01   6.016839e+00
   3.442775e+01  -1.647540e+01
   6.511842e+01   5.014420e+00
   1.111677e+02   9.479652e+01
  -6.040510e+00   1.654436e+02
  -1.442977e+02   1.676213e+02
  -2.691068e+02  -3.588556e+00
  -2.243005e+02  -1.498724e+02
  -8.108813e+01  -2.391509e+02
   1.689238e+02  -1.893329e+02
   1.239670e+02  -2.330390e+01
   8.255926e+01   3.276404e+01
   5.123716e+01   3.750117e+01
   6.159110e+01  -3.172713e+01
   9.493439e+01  -3.112297e+01
   4.438360e+01   6.965500e+01
  -4.175226e+01   1.055611e+02
  -1.072685e+02   5.709087e+01
  -6.550344e+01  -5.540390e+01
   2.025013e+01  -1.205604e+02
   1.207820e+02  -9.771299e+01
   2.201488e+02   5.504807e+01
   1.350037e+02   2.244925e+02
  -1.208866e+02   2.423884e+02
  -2.686499e+02   1.226210e+02
  -2.278926e+02  -1.093582e+02
  -1.306353e+02  -1.874045e+02
   3.563590e+01  -1.838306e+02
   1.170807e+02  -9.224769e+01
   1.119678e+02  -8.070291e+01
   6.540035e+01  -8.730896e+01
   9.662599e+01  -8.519924e+01
   1.457532e+02   3.761192e+01
   1.160544e+02   1.848322e+02
   1.966760e+01   2.269439e+02
  -1.125938e+02   1.940073e+02
  -1.559562e+02   1.893959e+01
  -1.217132e+02  -1.472765e+02
  -2.514982e+01  -1.670126e+02
   7.283567e+01  -8.481223e+01
   5.672234e+01  -5.437012e-01
   4.326535e+01   5.872527e+01
  -2.559833e+01   2.526317e+01
   3.420106e+01   1.135249e+01
   7.277095e+01   7.317928e+00
   1.960954e+01   5.039996e+01
  -8.793054e+01   5.048071e+01
  -1.572302e+02   2.727430e+00
  -1.664137e+02  -6.545037e+01
  -4.230558e+00  -1.091850e+02
   1.249975e+02  -7.094001e+01
   1.305219e+02  -4.428467e+01
   3.196519e+01   5.923880e+01
  -3.411131e+01   2.379188e+01
  -6.383568e+01  -1.751767e+01
  -2.066493e+01  -9.232578e+01
   5.927335e+01  -7.534800e+01
   5.215602e+01   6.693352e+00
   3.469841e+01   4.619523e+01
   1.690157e+01   6.192957e+01
   1.007215e+02   1.431168e+01
   8.124332e+01  -1.681196e+01
   3.322432e+01   6.856088e+01
  -3.887150e+01   1.618517e+02
  -1.606889e+02   1.351882e+02
  -1.694097e+02   5.871973e+01
  -1.311996e+02  -1.056686e+02
  -3.397257e+01  -1.265214e+02
   9.021492e+01  -5.700908e+01
   7.693574e+01   2.506729e+01
  -5.617233e+01   2.553064e+01
  -1.386671e+02  -5.966171e+01
  -5.982345e+01  -8.755691e+01
   1.272841e+02  -1.238401e+02
   2.308094e+02  -7.273031e+01
   1.672979e+02   3.947029e+01
   3.886799e+01   8.156884e+01
  -5.080603e+01   6.264720e+01
  -6.224006e+01   1.013923e+01
   5.966436e+01  -4.123973e+01
   1.112690e+02   2.569870e+01
   2.044018e+01   1.232240e+02
  -1.063833e+02   1.824845e+02
  -1.386382e+02   8.055372e+01
  -1.481676e+02  -5.435854e+01
  -1.195562e+01  -2.228075e+02
   8.864918e+01  -1.332394e+02
   1.117829e+02   1.520678e+01
   9.200475e+01   1.055376e+02
  -1.236397e+01   1.012358e+02
  -6.485794e+01   1.733652e+01
  -3.048173e+01  -1.364022e+01
  -3.430897e+01  -3.930815e+01
   2.016797e+01   2.542063e+01
  -4.906782e+01  -1.026778e+01
  -5.023005e+01  -8.141141e+01
  -4.793238e+01  -1.203840e+02
   4.181355e+01  -6.936024e+01
   1.206802e+02   4.035121e+01
   1.893834e+02   1.070161e+02
   3.507615e+00   5.268338e+01
  -6.144269e+01   4.454000e+01
  -8.602743e+01   3.022811e+01
   1.607387e+01  -5.319220e+00
   5.983399e+01  -2.341227e+01
   3.614947e+01  -1.194901e+00
  -9.524926e-01   9.435513e+00
  -4.314058e+00   1.174215e+01
   6.883120e+01  -4.805043e+00
   1.012713e+02   5.731724e+00
   3.252858e+01   6.356130e+01
  -1.530986e+02   1.219757e+02
  -1.838429e+02   5.296526e+01
  -1.809939e+02  -6.034639e+01
  -5.995505e+01  -1.553416e+02
   7.927652e+01  -1.729153e+02
   1.217018e+02  -7.148439e+01
   1.041754e+02   3.860732e+01
   3.428929e+01   4.172753e+01
   4.223790e+00  -3.059287e+00
   1.163544e+01   7.602252e+00
   1.642814e+01   8.074428e+01
   9.030883e+00   9.217329e+01
  -2.517574e+01   8.433331e+01
  -9.447590e+01  -6.379878e+01
  -9.892907e+01  -9.849918e+01
  -1.186272e+01  -1.151498e+02
   1.090720e+02  -1.708863e+01
   1.196781e+02   8.011021e+01
   6.238048e+01   1.139182e+02
  -5.430673e+01   6.605939e+01
  -9.506732e+01  -1.595853e+01
  -3.519908e+01  -6.750869e+01
   1.288010e+01  -5.646496e+01
   1.828469e+01  -3.268188e+01
  -3.936434e+01  -1.741272e+01
  -8.406517e+01   1.947049e+01
  -4.311193e+00  -3.535559e+01
   7.832474e+01  -7.778485e+01
   1.188411e+02  -7.628985e+01
   5.840822e+01   2.163682e+01
  -3.834060e+01   1.068398e+02
  -8.649407e+01   6.623343e+01
  -3.785034e+01   2.641991e+00
  -9.410574e+00  -5.691620e+01
   1.008685e+01  -4.005631e+01
   2.809346e+01   1.975226e+01
   5.503874e+01   7.130638e+01
   1.333128e+01   3.816263e+01
  -4.146503e+01  -1.577100e-01
  -4.964976e+01  -2.181382e+01
   2.234891e+00  -1.653540e+01
  -1.279859e+01  -1.598028e+00
  -8.254846e+00  -2.684420e+01
  -1.226514e+01  -6.175877e+00
  -1.158308e+01  -5.090906e+01
   2.592410e+01  -5.423196e+00
   1.977549e+01   1.701770e+01
   4.780348e+00   7.545976e+01
  -4.180923e+01   2.568385e+01
  -3.727450e+01  -4.426464e+01
  -7.590192e+00  -8.176424e+01
   6.113551e+01   2.709421e+00
   7.921546e+01  -1.067041e+01
   8.681133e+01   4.981013e+01
   8.996572e-02   4.467922e+01
  -1.005808e+02   1.091907e+01
   5.345156e+00   3.622648e+01
   4.282608e+01  -9.623553e+00
   7.234516e+00   2.251664e+01
  -3.697991e+01   2.539458e+01
  -9.800208e+01   4.063099e+01
