
 $NMID
 id='ANONYMOUS ', fmtdat='(2E16.6)'
 volume=1.0
 tramp=1.0
 $END
   4.470575e+03  -3.364149e+02
   2.630319e+03   2.798143e+03
  -2.995948e+02   3.122025e+03
  -2.025262e+03   8.591011e+02
  -1.299602e+03  -4.526602e+02
   3.998542e+02  -7.594536e+02
   7.881491e+02   4.077911e+02
   1.358690e+02   1.005478e+03
  -7.269694e+02   8.740378e+02
  -1.010082e+03  -1.484621e+01
  -5.755168e+02  -7.872447e+02
   1.586203e+02  -9.524391e+02
   5.865224e+02  -1.852175e+02
   4.878024e+02   7.265836e+02
  -1.275301e+02   7.491207e+02
  -5.683436e+02   7.954486e+01
  -2.804433e+02  -6.972186e+02
   4.295388e+02  -7.588293e+02
   6.714634e+02  -1.697685e+02
   5.247230e+02   3.939963e+02
   1.137900e+02   5.208685e+02
  -2.234961e+02   2.609674e+02
  -1.976546e+02   1.110498e+02
   6.670907e+01  -4.810047e+01
   3.151127e+02   1.396074e+02
   1.025028e+02   4.518649e+02
  -4.660198e+02   3.566536e+02
  -8.124691e+02  -4.776960e+01
  -4.534457e+02  -5.099323e+02
   3.922892e+02  -4.521905e+02
   7.166450e+02  -4.969236e+01
   4.015782e+02   4.378324e+02
  -2.730708e+02   4.652433e+02
  -6.474099e+02   2.061021e+02
  -4.651362e+02  -2.319412e+02
  -1.150206e+02  -5.116529e+02
   9.604041e+01  -3.259400e+02
   1.639982e+02   1.477418e+02
  -1.315055e+02   4.007148e+02
  -4.215577e+02  -3.096612e+01
  -2.466450e+02  -5.088280e+02
   3.075380e+02  -6.794851e+02
   6.219367e+02  -1.394111e+00
   2.264979e+02   6.265825e+02
  -2.012455e+02   3.296452e+02
  -2.994210e+02  -3.126332e+02
   3.982394e+01  -4.731049e+02
   5.125903e+02  -1.288725e+02
   5.886835e+02   4.823432e+02
   1.945597e+02   5.721260e+02
  -4.749783e+02   3.990291e+02
  -6.389756e+02  -8.722756e+01
  -4.270026e+02  -3.439697e+02
   1.124771e+02  -3.920626e+02
   4.740278e+02  -8.655105e+01
   2.697449e+02   1.516013e+02
  -5.530421e+00   1.139562e+02
  -1.314165e+02  -1.546855e+02
   1.342205e+02  -1.640086e+02
   3.768527e+02   4.866143e+01
   1.807188e+02   2.858492e+02
  -2.097390e+02   2.931961e+02
  -3.423398e+02   1.061476e+02
  -1.918758e+02  -8.657791e+01
   5.984250e+01  -2.618174e+02
   3.450440e+02  -3.054047e+02
   3.731376e+02  -2.217159e+02
   2.638662e+02   1.434642e+02
   1.038166e+02   3.845118e+02
  -9.505862e+01   3.420941e+02
  -1.031450e+02   1.270739e+02
  -8.484351e+01   9.978998e+00
  -9.084443e+01   6.968831e+01
  -2.392216e+02   1.130925e+02
  -3.090736e+02  -8.131664e+01
  -1.655139e+02  -2.500606e+02
   5.077813e+01  -2.441703e+02
   2.285344e+02  -2.186139e+01
   1.979995e+02   2.802549e+02
  -5.065991e+01   3.219205e+02
  -2.445687e+02   9.508184e+01
  -3.768152e+02  -1.596607e+02
  -2.420533e+02  -3.298720e+02
   1.327413e+02  -3.242206e+02
   2.514365e+02  -1.143810e+02
   1.696964e+02   2.819291e+01
   1.316537e+02  -5.647632e+01
   2.526912e+02  -8.446031e+01
   3.770484e+02   8.192876e+01
   4.048204e+02   3.177349e+02
  -4.621761e+01   4.867738e+02
  -3.098404e+02   3.585738e+02
  -5.727316e+02   1.989098e+02
  -3.511264e+02  -1.008024e+02
  -7.684624e+01  -3.084577e+02
   9.857276e+01  -2.550891e+02
   7.263166e+01  -5.979647e+01
  -1.147798e+02   1.117273e+02
  -1.863421e+02  -4.045716e+01
  -4.697283e+01  -2.059608e+02
   1.504549e+02  -2.086529e+02
   1.955188e+02   8.272742e+00
  -1.846176e+00   1.908383e+02
  -2.054377e+02   3.873062e+01
  -1.563881e+02  -2.877586e+02
   5.783970e-01  -3.690760e+02
   2.107562e+02  -1.819693e+02
   3.557224e+02   7.198712e+01
   2.681765e+02   2.347240e+02
   7.293820e+01   2.581059e+02
  -1.096996e+02   1.619860e+02
  -1.874194e+02   5.167662e+01
  -7.830377e+01  -4.173527e+01
   8.344058e+01   3.105158e+01
  -1.059666e+01   9.666491e+01
  -1.590633e+02   9.881229e+01
  -1.858532e+02  -5.533580e+01
  -6.112531e+01  -5.681069e+01
   7.868940e+01   1.111850e+01
   8.610528e+01   8.564841e+01
  -1.501045e+02   5.906036e+01
  -3.429309e+02  -3.084105e+01
  -2.605104e+02  -1.307945e+02
  -6.583625e+01  -2.315435e+02
   1.650339e+02  -3.194377e+02
   2.903255e+02  -1.322507e+02
   1.374327e+02   5.753484e+01
  -3.423072e+01   9.852723e+01
  -8.778845e+01  -1.901072e+01
   7.074849e+00  -9.451090e+01
   1.789545e+02  -6.277196e+01
   1.924998e+02   1.273167e+02
   6.213115e+01   2.433646e+02
  -8.995320e+01   1.537546e+02
  -1.294853e+02   3.308494e+01
  -7.824590e+01  -2.552006e+01
   2.471794e+01   1.553476e+01
  -2.615094e+00   1.049173e+02
  -8.826293e+01   1.021122e+02
  -2.033950e+02  -6.250748e+00
  -1.825062e+02  -1.175803e+02
  -2.158638e+01  -2.021119e+02
   1.862677e+02  -1.846072e+02
   1.755357e+02   7.377135e+00
   4.655768e+01   1.670013e+02
  -7.802071e+01   1.161495e+02
  -8.417615e+01   4.218369e+01
  -3.586984e+01  -3.390838e+00
   1.636382e+01  -2.680395e+01
  -7.466331e+00  -1.235095e+00
  -8.964766e+01  -3.536883e+01
  -9.047590e+01  -7.567827e+01
   8.362887e+00  -1.439501e+02
   1.655853e+02  -1.952971e+02
   2.404977e+02  -2.392013e+01
   2.418913e+02   1.570519e+02
   5.974712e+01   2.605897e+02
  -1.297580e+02   1.759098e+02
  -1.653813e+02   7.759130e+01
  -9.137447e+01  -4.364068e+01
  -4.276306e+01  -3.309123e+01
  -9.420067e+01   1.439347e+01
  -1.182549e+02   2.523454e+01
  -2.720108e+01  -7.339565e+01
   3.364036e+01  -9.346865e+01
   1.555787e+02  -5.218839e+01
   8.794258e+01   3.056232e+01
  -1.265982e+01   1.180406e+02
  -8.800726e+01   9.427596e+01
  -2.132512e+02  -5.594147e+01
  -1.088453e+02  -1.971008e+02
   6.395077e+01  -2.553358e+02
   3.133085e+02  -9.210920e+01
   2.830816e+02   1.004774e+02
   1.285057e+02   1.659094e+02
  -2.519696e+01   1.597031e+02
  -1.021653e+02   9.176350e+01
  -1.066469e+02   7.740641e+01
  -1.251254e+02   7.397432e+01
  -1.038289e+02   8.766982e+01
  -1.559053e+02  -3.209873e+01
  -1.339791e+02  -1.977533e+02
  -1.591947e+01  -2.323182e+02
   1.267309e+02  -1.867483e+02
   1.536710e+02   7.891066e+00
   1.474320e+02   1.389912e+02
   3.504921e+01   1.811156e+02
  -7.641167e+01   8.321538e+01
  -8.676064e+01   8.054764e+00
  -1.925881e+01  -3.116722e+01
   1.715342e+01  -1.646851e+01
  -4.305260e+01  -8.825897e+00
  -8.798904e+01  -2.263079e+01
  -3.995302e+01  -5.297417e+01
   6.199661e+01  -4.502242e+01
   1.692909e+02  -9.815533e+00
   1.639266e+02   9.079315e+01
   2.392431e+01   6.509220e+01
  -1.097701e+02   7.326785e+01
  -1.348053e+02   4.651695e+01
  -2.740886e+01  -4.788510e+01
   7.535239e+01  -3.496638e+01
   9.986179e+01   9.008077e+00
   7.611551e+00   5.683564e+01
  -6.805543e+01   5.115151e+01
  -5.450101e+01  -1.806617e+01
  -4.253009e+01  -8.422849e+01
  -3.583949e+01  -2.240136e+01
  -6.493670e+01  -1.758114e+00
  -9.006249e+01   1.073712e+01
  -3.039696e+01  -1.042150e+02
   8.667716e+01  -1.779072e+02
   1.454252e+02  -1.413787e+02
   1.569950e+02  -3.246699e+01
   1.453125e+02   7.462106e+01
   3.064238e+01   1.598959e+02
  -7.434684e+01   7.931415e+01
  -5.664767e+01  -2.430011e+01
   7.552721e+01  -1.022447e+01
   1.380097e+02   4.229329e+01
   8.999453e+01   1.154060e+02
  -1.165135e+02   1.402601e+02
  -2.076453e+02   4.993948e+01
  -1.740826e+02  -6.495035e+01
  -3.502962e+01  -1.311687e+02
   5.906865e+01  -7.494025e+01
   5.669729e+01   1.280391e+01
  -4.764543e+01   1.917653e+01
  -1.266861e+02  -2.376518e+01
  -3.121353e+01  -1.394603e+02
   9.202187e+01  -2.034622e+02
   1.546224e+02  -9.824994e+01
   1.218399e+02   1.138917e+02
   1.069119e+01   2.396449e+02
  -1.094877e+02   1.384666e+02
  -1.117427e+02   6.245839e+00
  -6.225510e+01  -1.024201e+02
   3.785825e+01  -9.609230e+01
   4.790812e+01   2.147348e+01
   6.967558e+01   3.048832e+00
   1.496558e+01  -8.115408e+00
  -1.645811e+01   2.581348e+00
   4.921319e+01   3.942250e+01
   3.404730e+01   8.870901e+01
   4.516781e+01   1.301784e+02
  -5.643008e+01   6.442957e+01
  -1.109101e+02  -5.370761e+01
  -1.243556e+02  -8.983309e+01
   1.406450e+00  -4.618780e+01
   1.009313e+02  -2.082543e+01
   1.042635e+02   1.176207e+01
   1.349686e+01  -3.401785e-01
  -4.776671e+01   2.052745e+01
  -3.517731e+01   1.067279e+01
   1.798882e+01  -3.835803e+00
   2.745445e+01   5.640796e+00
  -7.142414e+01  -1.036391e+00
  -9.138442e+01  -3.957828e+01
  -2.898492e+01  -6.981399e+01
   1.350883e+02  -1.472119e+02
   2.227504e+02  -1.991299e+01
   1.537016e+02   5.158711e+01
   5.544588e+01   1.859543e+02
  -7.191532e+01   1.482410e+02
  -1.455040e+02   6.855547e+01
  -9.949433e+01  -4.499742e+01
  -1.940194e+01  -6.012010e+01
   3.757356e-01  -1.205418e+01
   2.076125e+00   1.656971e+01
  -4.120666e+01  -5.403780e+01
  -2.754266e+01  -9.233263e+01
   3.279265e+01  -5.697559e+01
   8.354215e+01   4.931825e+01
   1.183280e+02   1.235151e+02
   2.230357e+01   1.327481e+02
  -7.967591e+01   5.525449e+00
  -1.131088e+02  -9.103972e+01
  -4.405872e+01  -1.363172e+02
   6.094792e+01  -7.498549e+01
   9.046451e+01  -3.147353e+01
   1.700720e+01   6.835424e+01
  -1.918611e+01   4.781998e+01
  -3.543914e+01   3.486097e+01
   3.089937e+01  -7.329781e+00
   5.927693e+01  -2.276628e+01
   3.261073e+01   4.966109e+01
  -8.546808e+01   6.514079e+01
  -1.152558e+02   4.407252e+01
  -5.624519e+01  -6.010943e+01
   1.834754e+01  -1.024447e+02
   7.680849e+01  -6.801875e+01
   7.432216e+01   2.637170e+01
  -2.090634e+01   2.691440e+01
   1.281923e+01   3.854926e+01
  -4.597780e+01  -3.448344e+01
  -2.197982e+01  -5.251751e+01
   1.240926e+01  -3.143946e+01
   5.022837e+01   3.368926e+01
   7.409882e+01   3.999427e+01
   1.644468e+01  -2.710053e+01
   6.684566e+00  -1.041233e+01
  -1.143744e+01   4.345952e+00
  -1.953536e+01   5.236219e+01
  -4.427820e+01   4.437393e+01
  -8.336859e+01   3.450893e+01
  -3.992905e+01  -4.045025e+01
   1.936175e+01  -6.950155e+01
   5.673934e+01  -7.135602e+01
   4.884600e+01   5.727694e+01
   6.963899e+00   7.413906e+01
  -6.252690e+01   4.097719e+01
  -1.042459e+02  -7.345080e+00
  -3.999163e+01  -3.805143e+01
   1.504752e+01  -6.839552e+01
   7.692799e+01  -2.996795e+01
   1.849358e+01  -4.329801e+01
  -3.903008e+01  -7.462325e+00
  -1.523657e+01  -4.942770e+01
   2.777669e+01  -4.042924e+01
   8.948035e+01  -5.513862e+01
