
 $NMID
 id='ANONYMOUS ', fmtdat='(2E16.6)'
 volume=1.0
 tramp=1.0
 $END
  -2.832676e+03   3.687863e+02
  -2.229960e+03  -1.347854e+03
  -5.457446e+01  -1.814416e+03
   9.929268e+02  -8.710001e+02
   7.591500e+02  -1.579447e+01
  -1.090603e+02   2.930978e+02
  -4.240321e+02  -1.887494e+01
  -9.623388e+01  -5.613563e+02
   3.589589e+02  -6.678402e+02
   5.402128e+02  -6.049071e+01
   3.699743e+02   4.450751e+02
  -8.213988e+01   5.718447e+02
  -2.866366e+02   1.578445e+02
  -2.718570e+02  -5.409156e+02
   1.833842e+01  -4.823130e+02
   3.705003e+02  -6.118525e+01
   3.508802e+02   4.222444e+02
  -1.561383e+02   5.587267e+02
  -3.729821e+02   3.190955e+02
  -3.569203e+02  -1.556791e+02
  -8.974575e+01  -2.952951e+02
   1.294545e+02  -2.088976e+02
   5.163384e+01  -4.134989e+01
  -1.212809e+02  -3.550105e+01
  -2.950042e+02  -9.249874e+01
  -5.042094e+01  -3.605848e+02
   3.551117e+02  -2.461443e+02
   6.003230e+02   4.492743e+01
   2.666035e+02   2.941364e+02
  -3.761980e+02   2.505131e+02
  -4.026309e+02   2.141720e+01
  -1.836031e+02  -3.340777e+02
   1.801418e+02  -3.525710e+02
   3.987904e+02  -1.662625e+02
   2.970392e+02   1.782474e+02
   7.098812e+01   2.959907e+02
  -7.308581e+01   2.147168e+02
  -7.267231e+01  -1.039319e+02
   7.822181e+01  -2.582784e+02
   2.218626e+02   3.169576e+01
   1.137800e+02   4.720030e+02
  -3.447193e+02   5.044040e+02
  -3.833253e+02   3.235004e+01
  -1.220239e+02  -3.520697e+02
   1.406544e+02  -1.507074e+02
   1.993382e+02   1.888631e+02
  -5.154009e+01   3.693149e+02
  -4.438974e+02   1.471521e+02
  -5.041250e+02  -3.507452e+02
  -2.112812e+02  -4.205567e+02
   3.677693e+02  -2.486131e+02
   5.156988e+02   3.804281e+01
   3.499801e+02   2.696187e+02
  -7.890853e+01   1.886549e+02
  -3.051800e+02   1.151420e+02
  -2.231544e+02  -2.863944e+01
   2.672610e+01  -5.971514e+01
   4.865948e+01   9.384102e+01
  -1.018252e+02   1.090490e+02
  -2.257035e+02  -3.654326e+01
  -1.293980e+02  -1.490665e+02
   8.452664e+01  -2.750076e+02
   3.030210e+02  -1.164487e+02
   1.935453e+02   5.854150e+01
  -1.616317e+01   2.916215e+02
  -2.119467e+02   3.170032e+02
  -2.598643e+02   1.953415e+02
  -2.110149e+02  -9.911984e+01
  -1.048501e+02  -2.790035e+02
   3.473955e+01  -2.485271e+02
  -1.146041e+01  -1.500065e+02
  -7.271943e+00  -6.624681e+01
   8.329971e+01  -1.070100e+02
   1.717470e+02  -6.108540e+01
   2.346129e+02   7.952964e+01
   1.167280e+02   1.987606e+02
  -5.455931e+01   1.620825e+02
  -1.786510e+02   8.136363e+00
  -1.554987e+02  -1.912778e+02
   6.363721e+01  -2.202295e+02
   2.098952e+02  -8.438717e+01
   3.092507e+02   1.002096e+02
   1.406992e+02   2.571069e+02
  -7.454622e+01   2.354262e+02
  -1.808879e+02   1.093472e+02
  -1.860356e+02   6.588210e+01
  -8.954497e+01   5.227046e+01
  -2.277543e+02   6.457070e+01
  -3.676373e+02  -5.095451e+01
  -3.306043e+02  -2.170746e+02
  -1.077832e+01  -4.151224e+02
   2.414326e+02  -3.201275e+02
   3.293531e+02  -1.941751e+02
   3.153096e+02   3.155779e+01
   6.313949e+01   2.343373e+02
  -7.795780e+01   1.597591e+02
  -2.153777e+01   3.071689e+01
   1.048286e+02  -9.147587e+01
   1.584945e+02   3.600791e+01
   3.051534e+01   1.547152e+02
  -1.172884e+02   1.107039e+02
  -1.104406e+02  -5.723816e+01
  -7.678261e-01  -1.031626e+02
   1.354981e+02  -2.806686e+01
   1.649403e+02   2.008604e+02
   1.403871e+01   2.797618e+02
  -1.325692e+02   2.168928e+02
  -2.877489e+02   1.403674e+01
  -2.534192e+02  -2.548430e+02
  -4.777236e+01  -2.505564e+02
   9.953973e+01  -1.093706e+02
   1.656550e+02  -5.125389e-01
   4.113301e+01   4.324708e+01
  -3.859655e+01  -3.302566e+01
  -2.261043e+01  -8.183726e+01
   1.503417e+02  -9.419991e+01
   1.779496e+02  -6.852941e+00
   2.326887e+01   7.096463e+01
  -8.857360e+01   5.336956e+00
  -5.041506e+01  -7.972676e+01
   1.151209e+02  -8.438626e+01
   2.590950e+02  -6.695492e+00
   2.234768e+02   1.324116e+02
   5.711806e+01   2.645827e+02
  -1.602592e+02   2.252543e+02
  -2.215549e+02   1.406074e+02
  -1.543547e+02   6.274817e+00
   2.788852e+01  -9.223482e+01
   6.366089e+01  -1.553454e+01
  -2.743124e+01   6.257156e+01
  -1.497764e+02   6.265238e+01
  -1.311360e+02  -5.137848e+01
  -6.679800e+01  -1.326807e+02
   8.007325e+01  -1.335581e+02
   1.059965e+02  -2.870390e+01
   7.272188e+01   1.898367e+01
  -2.972089e+01  -9.780678e+00
  -4.107619e+01  -5.385233e+01
   8.611740e+01  -1.340126e+02
   1.662175e+02  -2.468672e+01
   1.644330e+02   6.862197e+01
   4.453336e+01   1.836452e+02
  -1.359649e+02   1.414491e+02
  -1.643519e+02   2.579514e+01
  -5.411957e+01  -8.325232e+01
   5.268911e+01  -1.196149e+02
   5.026344e+01  -3.064690e+01
  -1.167493e+01   1.199693e+00
  -2.251601e+00   2.349927e+01
  -2.526967e+01  -3.058692e+01
   9.488618e+01  -8.142412e+00
   8.931388e+01   3.794311e+01
   2.914619e+01   1.467249e+02
  -1.351057e+02   1.240432e+02
  -1.995703e+02   3.973919e+01
  -1.990075e+02  -1.305209e+02
  -6.444150e+00  -1.495589e+02
   9.148514e+01  -1.487446e+02
   1.265909e+02  -4.493302e+01
   6.169187e+01   3.102944e+01
   3.745405e+01  -5.345192e+00
   3.157286e+01  -4.820731e+01
   5.122143e+01   2.665942e-01
   3.183336e+01   2.333307e+01
  -2.978185e+01   1.078555e+02
  -1.028479e+02   7.997362e+01
  -9.015588e+01  -2.613764e+01
   5.264706e+00  -1.392452e+02
   1.163454e+02  -7.886506e+01
   2.102082e+02   5.415999e+01
   1.341842e+02   1.693560e+02
  -1.002806e+02   1.855722e+02
  -2.045518e+02   1.286213e+02
  -2.378746e+02  -4.153164e+01
  -1.377676e+02  -1.116897e+02
   1.862986e+01  -1.237989e+02
   7.756536e+01  -1.007915e+02
   7.334381e+01  -6.863137e+01
   6.142483e+01  -1.159387e+02
   4.416194e+01  -8.931784e+01
   1.269896e+02   3.222352e+00
   1.205316e+02   1.425394e+02
   3.893153e+01   2.089382e+02
  -4.720600e+01   1.607551e+02
  -1.599566e+02   1.964453e-01
  -1.360014e+02  -1.141175e+02
  -2.952481e+01  -1.565481e+02
   5.646765e+01  -5.562003e+01
   4.696593e+01  -3.054474e+01
  -3.277418e+00   2.733144e+01
  -2.120120e+01   3.148849e+01
   2.280227e+01   1.863075e+01
   4.579482e+01  -1.598902e+01
   3.464808e+01   1.991363e+01
  -5.191507e+01   6.410739e+01
  -1.229978e+02  -5.305408e+00
  -9.124462e+01  -4.182726e+01
   6.338801e+00  -8.501752e+01
   1.149902e+02  -4.945774e+01
   1.521287e+02   8.392750e-02
   2.131348e+01   4.945708e+01
  -1.264648e+01   3.068721e+01
  -4.211539e+01  -3.793463e+01
  -2.924129e+01  -8.432941e+01
   3.765417e+01  -3.910799e+01
   5.362661e+01  -4.549511e+00
   5.767877e+01   2.040312e+01
   3.241872e+01   8.801920e+00
   3.482963e+01   6.187128e+00
   9.372118e+01   2.294716e+00
   4.186386e+01   4.969495e+01
  -3.244470e+01   1.247338e+02
  -9.310758e+01   1.490555e+02
  -1.337381e+02   4.598604e+01
  -9.380345e+01  -7.488110e+01
   1.449820e+01  -8.846920e+01
   8.522564e+01  -6.864708e+01
   6.766154e+01   2.398103e+01
  -3.102450e+01   2.794857e+00
  -7.392852e+01  -1.682173e+01
  -3.997879e+01  -5.961469e+01
   8.892049e+01  -1.108649e+02
   1.958278e+02  -3.560914e+01
   1.548165e+02   2.123273e+01
   1.804696e+01   8.254437e+01
  -7.043338e+01   4.277666e+01
  -5.760796e+01  -2.492885e+01
   2.081393e+01  -3.500286e+01
   9.835133e+01  -1.026465e-01
   3.298059e+01   1.023942e+02
  -5.028396e+01   1.371623e+02
  -1.312437e+02   6.609272e+01
  -1.427420e+02  -6.745419e+01
  -2.422348e+01  -1.508098e+02
   1.007240e+02  -1.116456e+02
   6.276662e+01   2.483280e+01
   3.712934e+01   1.023284e+02
   1.907385e+01   1.009674e+02
  -4.236902e+01   1.785589e+01
  -5.634935e+01  -2.459045e+01
  -4.155597e+01   1.788711e+01
  -8.611794e+00  -1.023438e+01
  -4.971954e+01   4.653088e+00
  -7.297447e+01  -7.167326e+01
  -5.188110e+01  -5.607718e+01
  -5.699604e-01  -6.010380e+01
   7.398482e+01   2.699358e+01
   1.008120e+02   8.913621e+01
   1.479627e+01   6.702355e+01
  -5.562859e+01   6.693188e+00
  -7.648789e+01  -2.180771e+00
  -3.563025e+01  -1.089600e+01
   1.482075e+01  -3.680726e+01
   4.243604e+00  -3.956714e+01
   1.229144e+01   2.268946e+01
  -2.040747e+01  -4.898556e+00
   3.248522e+01   2.617759e+00
   5.269155e+01   4.648377e+01
   2.305330e+01   7.331932e+01
  -1.055210e+02   9.642120e+01
  -1.270670e+02   6.847025e+01
  -1.551683e+02  -5.737890e+01
  -2.173879e+01  -1.321579e+02
   9.087936e+01  -1.465297e+02
   1.155906e+02  -5.023465e+01
   8.253191e+01   3.153820e+01
   4.549045e+01   8.759596e+00
  -2.244253e+01  -3.174887e+00
   4.574780e+00   1.560587e+01
   4.182209e+01   3.727403e+01
  -7.737090e+00   1.079540e+02
   1.948109e+00   5.951422e+01
  -7.747257e+01   5.725551e+00
  -7.108220e+01  -7.583804e+01
  -2.902789e+01  -1.151255e+02
   1.078816e+02  -2.965862e+01
   9.495089e+01   3.400424e+01
   5.628698e+01   1.014681e+02
  -6.090421e+01   4.423877e+01
  -1.117895e+02   4.448190e+00
  -4.626608e+01  -4.588574e+01
   3.614176e+01  -5.270126e+01
   4.101393e+01  -2.156147e+01
  -5.004952e+00   1.464449e+01
  -3.133874e+01   2.929330e+01
  -2.940830e+01  -1.640985e+01
   6.497465e+01  -7.246906e+01
   1.420854e+02  -5.873663e+01
   4.677023e+01   1.131548e+01
   2.217942e+00   6.128471e+01
  -3.045878e+01   1.051245e+02
  -7.646375e+01   3.105862e+01
  -5.065454e+01  -4.222782e+01
   2.902306e+01  -6.598315e+01
   1.363738e+01   8.780379e+00
   3.596634e+01   4.086104e+01
   1.844633e-01   3.299974e+01
  -4.699596e+01   1.099343e+01
  -2.618120e+01  -2.046246e+01
  -3.493952e+01  -2.746559e+01
  -1.499430e+01  -1.155306e+00
  -9.846393e+00   2.764954e+00
  -1.282311e+01   1.355092e+01
   1.730039e+01  -3.655538e+01
   1.424073e+01  -1.272032e+01
   6.431012e+01   1.312847e+01
   4.135340e-01   4.049250e+01
  -3.992243e+01  -3.452259e+00
  -7.410433e+01   4.897282e+00
  -3.182961e+01  -6.905257e+01
   3.595286e+01  -4.390849e+01
   9.216126e+01   1.645548e+01
   6.944411e+01   6.379470e+01
  -1.560764e+01   4.000695e+01
  -7.048055e+01   2.678803e+01
  -8.424953e+00  -9.721038e+00
   8.163434e+00  -1.831726e+01
   3.652583e+01   3.092733e+00
  -4.695060e+01   6.101632e+00
  -8.420674e+01  -8.482381e+00
