
 $NMID
 id='ANONYMOUS ', fmtdat='(2E16.6)'
 volume=1.0
 tramp=1.0
 $END
  -3.410287e+03   1.483005e+02
  -2.381575e+03  -1.606116e+03
  -4.606153e+01  -2.343499e+03
   1.411002e+03  -1.351320e+03
   9.890315e+02  -1.365058e+02
  -1.655305e+02   2.657119e+02
  -5.251373e+02  -1.414608e+02
  -1.239473e+02  -7.467880e+02
   3.153407e+02  -6.192866e+02
   6.671956e+02  -1.754397e+02
   5.530366e+02   5.608782e+02
  -3.537363e-01   7.215157e+02
  -3.600342e+02   2.356003e+02
  -3.173956e+02  -5.953382e+02
   1.772681e+01  -5.734980e+02
   4.936942e+02  -1.016052e+02
   4.140698e+02   5.030619e+02
  -1.616371e+02   6.867189e+02
  -4.229611e+02   3.715020e+02
  -4.510244e+02  -1.565421e+02
  -1.094660e+02  -3.970409e+02
   1.789918e+02  -2.549669e+02
   1.102273e+02  -8.978248e+01
  -1.836629e+02  -1.006037e+02
  -2.771668e+02  -1.932276e+02
  -4.586571e+01  -4.351876e+02
   4.401226e+02  -2.218940e+02
   6.504341e+02   9.270861e+01
   2.767908e+02   3.461054e+02
  -3.313962e+02   2.936111e+02
  -5.291165e+02  -7.369632e+01
  -2.667035e+02  -3.392893e+02
   2.110900e+02  -4.489192e+02
   4.770869e+02  -1.640741e+02
   3.467982e+02   1.711614e+02
   6.126936e+01   3.512559e+02
  -1.214715e+02   2.462222e+02
  -5.323468e+01  -9.493868e+01
   6.898423e+01  -2.923939e+02
   3.118453e+02   7.980464e+01
   1.794198e+02   4.695593e+02
  -3.274861e+02   5.789532e+02
  -4.310851e+02   6.368736e+01
  -1.373838e+02  -3.572790e+02
   1.563975e+02  -2.383930e+02
   2.111360e+02   1.937051e+02
  -9.598570e+01   4.156341e+02
  -4.929399e+02   1.385388e+02
  -5.521930e+02  -3.741338e+02
  -2.470019e+02  -5.057705e+02
   3.416084e+02  -3.448081e+02
   6.096427e+02   1.376709e+01
   3.558826e+02   2.940425e+02
  -9.220949e+01   2.826212e+02
  -3.422894e+02   1.216078e+02
  -2.280108e+02  -3.493039e+01
   2.226721e+01  -4.910434e+01
   9.970852e+01   8.714612e+01
  -1.153831e+02   1.544776e+02
  -2.947373e+02  -2.924231e+01
  -1.633112e+02  -1.822498e+02
   1.662077e+02  -2.449890e+02
   3.857148e+02  -1.521887e+02
   2.218553e+02   8.041395e+01
   2.876225e+00   2.971748e+02
  -2.379849e+02   3.322134e+02
  -3.474611e+02   2.057720e+02
  -2.373739e+02  -1.235368e+02
  -1.050214e+02  -3.505773e+02
   3.269023e+01  -2.940604e+02
   1.052732e+01  -1.489848e+02
   7.416005e-01  -7.877422e+01
   8.284610e+01  -1.247326e+02
   1.933373e+02  -1.332423e+02
   2.667724e+02   1.035590e+02
   1.052942e+02   2.554644e+02
  -6.115789e+01   1.963479e+02
  -2.576394e+02   2.103236e+01
  -2.151328e+02  -2.139993e+02
   5.990423e+01  -2.702364e+02
   2.385138e+02  -1.058716e+02
   3.228547e+02   1.285363e+02
   2.350922e+02   3.076878e+02
  -5.851561e+01   2.920316e+02
  -2.019767e+02   1.424363e+02
  -1.867216e+02   6.499824e+01
  -1.203713e+02   8.752018e+01
  -2.600795e+02   4.978105e+01
  -4.465125e+02  -4.182652e+01
  -3.340749e+02  -2.735870e+02
   1.739094e+01  -4.562048e+02
   3.914133e+02  -3.534370e+02
   4.479693e+02  -2.000360e+02
   3.349530e+02   4.828044e+01
   3.314187e+01   2.525016e+02
  -7.852931e+01   2.145453e+02
  -6.485343e+00   2.514963e+01
   1.259134e+02  -7.098870e+01
   1.719146e+02   5.347397e+01
   4.645929e+01   1.608146e+02
  -1.183224e+02   1.432723e+02
  -1.309005e+02  -4.358351e+01
   1.692197e+01  -1.463406e+02
   1.434718e+02  -3.818580e+01
   1.790867e+02   2.163265e+02
  -7.475646e+00   3.356497e+02
  -2.154889e+02   2.433783e+02
  -3.459595e+02   1.018361e+01
  -2.789760e+02  -2.126616e+02
  -9.245382e+01  -2.529912e+02
   1.172953e+02  -1.655676e+02
   1.683572e+02  -3.012627e+01
   2.820728e+01   2.696603e+01
  -7.626021e+01  -4.073447e+01
  -1.048022e+01  -1.152866e+02
   1.356778e+02  -9.545135e+01
   1.761470e+02   2.646966e+01
   5.695131e+01   7.325069e+01
  -9.155037e+01   2.144927e+01
  -4.832433e+01  -8.419438e+01
   1.394644e+02  -1.093643e+02
   3.073563e+02  -5.157985e+01
   2.427289e+02   1.598218e+02
   6.754713e+01   2.458119e+02
  -2.082008e+02   2.531939e+02
  -2.935413e+02   1.372852e+02
  -1.634887e+02  -3.791676e+01
   2.702859e+01  -7.254316e+01
   6.382980e+01  -1.304792e+00
  -1.841821e+01   1.042252e+02
  -1.982358e+02   7.244687e+01
  -1.787172e+02  -8.598837e+01
  -4.885719e+01  -1.547727e+02
   7.049580e+01  -1.490483e+02
   1.393658e+02  -2.242421e+01
   3.724204e+01   1.781760e+01
   3.435353e+00   8.970863e+00
  -3.382139e+01  -1.012046e+02
   1.015199e+02  -1.061131e+02
   2.238852e+02  -2.639806e+01
   1.966979e+02   1.088164e+02
   5.086270e+01   2.163062e+02
  -1.752750e+02   1.649876e+02
  -2.117366e+02   1.781878e+01
  -6.220833e+01  -1.171556e+02
   5.030387e+01  -1.091798e+02
   5.322517e+01  -5.744536e+01
   3.344338e+01   2.687460e+01
  -4.029860e+01   1.345538e+01
   3.261394e+01  -2.283881e+01
   8.147401e+01   1.086532e+01
   8.745200e+01   9.546496e+01
   2.515514e+01   1.788546e+02
  -1.145086e+02   1.455467e+02
  -2.330626e+02   3.839624e+01
  -2.280903e+02  -1.652017e+02
  -3.355091e+01  -1.994525e+02
   1.099176e+02  -1.623683e+02
   1.242850e+02  -4.312126e+01
   5.096933e+01   4.502000e+01
   4.502898e+01   1.473970e+01
   6.574456e+01  -2.732849e+01
   8.140631e+01   1.215363e+01
   5.815746e+01   5.494127e+01
  -4.937475e+01   1.006706e+02
  -1.009791e+02   4.813387e+01
  -1.010728e+02  -3.760410e+01
   8.181534e+00  -1.362587e+02
   1.460514e+02  -8.728946e+01
   2.650919e+02   4.265790e+01
   1.458968e+02   2.238839e+02
  -1.231603e+02   2.417738e+02
  -2.382033e+02   1.017632e+02
  -2.407588e+02  -6.650816e+01
  -1.114197e+02  -1.848394e+02
   4.303160e+01  -1.645635e+02
   7.625271e+01  -1.028652e+02
   7.316624e+01  -4.721710e+01
   5.652152e+01  -8.310347e+01
   1.066448e+02  -9.498350e+01
   1.430076e+02  -1.309177e+01
   1.183584e+02   1.772360e+02
   2.141866e+01   2.405853e+02
  -1.224878e+02   1.980152e+02
  -1.894256e+02   4.103515e+00
  -1.601573e+02  -1.180829e+02
  -2.074955e+01  -1.614156e+02
   7.084019e+01  -6.988128e+01
   5.162476e+01   4.620813e+00
   8.436724e+00   4.070354e+01
  -1.169064e+01   2.457689e+01
   1.579195e+01  -2.555380e+00
   7.699934e+01  -2.920387e+00
   3.481229e+01   6.157993e+01
  -6.586624e+01   9.012181e+01
  -2.104259e+02   7.632066e+00
  -1.193984e+02  -4.903502e+01
  -6.786642e+00  -9.444973e+01
   1.437408e+02  -1.161906e+02
   1.071686e+02  -1.476807e+01
   3.822404e+01   7.405453e+01
  -5.755406e+01   3.006530e+01
  -4.021325e+01  -9.283402e+00
  -1.387453e+01  -3.454274e+01
   3.445336e+01  -7.760385e+01
   6.270178e+01   7.393140e+00
   4.671531e+01   5.083234e+01
   5.107276e+01   3.290184e+01
   7.216495e+01   6.601020e+00
   8.323012e+01  -1.255195e+01
   7.077155e-01   7.399859e+01
  -4.583089e+01   1.755249e+02
  -1.196632e+02   1.406648e+02
  -1.419311e+02   4.516598e+01
  -1.058528e+02  -8.024428e+01
  -1.938571e+01  -1.323085e+02
   1.089610e+02  -7.597432e+01
   8.737329e+01   2.084821e+01
  -6.276324e+01   1.143993e+01
  -1.082107e+02  -1.544056e+01
  -7.466848e+01  -1.023335e+02
   9.079534e+01  -1.394928e+02
   2.216629e+02  -6.507353e+01
   1.637184e+02   2.625642e+01
   4.266007e+01   6.509143e+01
  -6.726468e+01   3.792567e+01
  -8.433389e+01   8.514128e+00
   3.579837e+01  -4.851154e+01
   9.325658e+01   3.037658e+01
   5.107425e+01   1.263370e+02
  -3.677884e+01   1.896517e+02
  -1.420792e+02   6.998268e+01
  -1.537514e+02  -8.766561e+01
  -3.577188e+01  -1.528008e+02
   8.084535e+01  -1.776704e+02
   1.040349e+02  -5.678144e+00
   7.185311e+01   8.161710e+01
  -1.156040e+01   9.952327e+01
  -4.399065e+01   2.892879e+01
  -4.842741e+01  -3.711326e+01
  -2.085143e+01   1.761305e+01
   2.115056e+01   2.180683e+01
  -5.309747e+01   1.599554e+01
  -6.425537e+01  -7.654613e+01
  -4.707521e+01  -1.162912e+02
   7.269263e+01  -7.508760e+01
   1.335798e+02   2.083002e+01
   1.069599e+02   9.845746e+01
   1.717315e+01   7.399955e+01
  -7.982557e+01   2.786173e+01
  -7.589221e+01   9.277413e+00
   5.289652e+00  -1.641748e+01
  -5.361002e+00  -3.463693e+01
   4.253927e+01  -1.917983e+00
  -3.974706e+01   3.188175e+01
  -1.071774e+01   8.333299e-01
   7.232759e+01   4.385036e+01
   6.674604e+01   1.158568e+00
   1.027796e+01   3.447099e+01
  -8.405638e+01   1.452942e+02
  -1.678154e+02   7.827229e+01
  -1.655871e+02  -4.976724e+01
  -6.228909e+01  -1.609467e+02
   7.990261e+01  -1.319404e+02
   1.221828e+02  -4.185204e+01
   9.275803e+01   2.446090e+01
   1.565473e+01   2.036791e+01
  -5.812974e+00   1.455105e+01
   2.119000e+01   1.565480e+01
   3.682087e+01   4.153276e+01
   3.195392e+01   1.013940e+02
  -2.893642e+01   8.238298e+01
  -8.454017e+01  -2.530269e+01
  -1.162186e+02  -7.016671e+01
  -5.592502e+01  -1.220062e+02
   7.377535e+01  -2.750938e+01
   8.337384e+01   3.023911e+01
   3.738345e+01   1.129510e+02
  -5.229896e+01   6.753778e+01
  -9.976824e+01  -2.024558e+01
  -4.084957e+01  -5.238291e+01
   3.036239e+01  -7.968163e+01
   5.342629e+01  -2.039878e+01
  -3.354354e+01   1.702031e+01
  -7.857696e+01   3.554227e+01
  -2.869154e+01  -4.732647e+01
   5.811277e+01  -4.928297e+01
   1.097854e+02  -6.386082e+01
   5.407615e+01   1.671195e+01
  -3.730446e+00   1.017649e+02
  -5.853838e+01   1.129510e+02
  -3.252379e+01   2.986980e+00
  -8.340924e+00  -4.149644e+01
   3.868331e+01  -6.864455e+01
   6.172319e+01  -1.114091e+01
   2.416625e+01   4.022825e+01
  -6.541079e+00   3.509465e+01
  -3.884300e+01  -7.134295e+00
  -4.639172e+01  -5.037442e+01
  -2.023067e+01  -3.296892e+01
   3.758514e+01   9.342825e+00
   6.915712e+00   1.145120e+01
  -1.291428e+01  -3.064760e+01
   2.619443e+01  -2.410955e+01
   4.618921e+01  -2.405127e+01
   8.389581e+01   4.350155e+01
  -5.719180e-01   5.463380e+01
  -4.775620e+01   1.485679e+01
  -3.455754e+01  -1.924832e+01
  -1.993251e+00  -7.293236e+01
   5.376709e+01  -3.645288e+01
   1.043026e+02  -2.832631e+00
   7.328169e+01   2.616327e+01
  -3.325831e+01   3.252765e+01
  -8.251020e+01   3.590431e+01
  -2.393826e+01   1.942085e+01
   2.295819e+01  -1.242906e+01
   3.298014e+00  -1.107840e+01
  -3.210140e+01   3.795854e+00
  -8.930437e+01   3.972034e+01
