
 $NMID
 id='ANONYMOUS ', fmtdat='(2E16.6)'
 volume=1.0
 tramp=1.0
 $END
   4.242760e+03  -1.659224e+02
   2.779463e+03   2.431553e+03
  -4.223393e+02   2.938605e+03
  -1.880385e+03   1.166923e+03
  -9.877506e+02  -5.837540e+02
   6.182668e+02  -5.375066e+02
   9.443237e+02   3.440295e+02
   1.135333e+02   9.580290e+02
  -7.046880e+02   9.064603e+02
  -9.977789e+02  -5.437912e+01
  -4.761316e+02  -8.815493e+02
   2.365885e+02  -9.766979e+02
   6.367773e+02  -1.330505e+02
   3.610067e+02   8.228717e+02
  -2.364189e+02   7.439082e+02
  -5.337751e+02   8.148346e+01
  -4.399236e+02  -6.413793e+02
   3.533352e+02  -7.768921e+02
   7.111039e+02  -1.142798e+02
   3.991166e+02   3.319107e+02
   7.264100e+01   4.568302e+02
  -2.172977e+02   3.303428e+02
  -1.624884e+02   7.873858e+01
   1.259759e+02  -7.264312e+01
   3.812483e+02   1.162176e+02
   1.617058e+02   4.614542e+02
  -5.389948e+02   3.242916e+02
  -7.985143e+02  -2.894651e+01
  -4.127385e+02  -5.291520e+02
   4.087628e+02  -4.969034e+02
   7.408366e+02  -3.166204e+00
   3.095663e+02   4.511324e+02
  -2.169734e+02   4.683724e+02
  -5.564836e+02   2.181233e+02
  -4.413075e+02  -2.759889e+02
  -7.379090e+01  -4.755925e+02
   1.415504e+02  -3.201446e+02
   8.045344e+01   1.638599e+02
  -1.453782e+02   4.199958e+02
  -4.228567e+02  -3.332504e+00
  -1.856145e+02  -6.477011e+02
   3.555495e+02  -7.148168e+02
   6.322798e+02   1.057236e+01
   3.105069e+02   6.125798e+02
  -2.424845e+02   3.180065e+02
  -3.773490e+02  -2.310356e+02
   6.925091e+01  -4.790673e+02
   5.008240e+02  -1.547474e+02
   6.080405e+02   3.907635e+02
   2.005917e+02   5.850206e+02
  -3.964635e+02   3.356474e+02
  -6.425336e+02  -6.907528e+00
  -3.857258e+02  -3.097449e+02
   1.593738e+02  -3.647609e+02
   3.752806e+02  -5.338370e+01
   2.248041e+02   1.460788e+02
  -5.917003e+01   7.853633e+01
  -1.406148e+02  -1.112656e+02
   1.291975e+02  -1.947496e+02
   3.596166e+02   5.635883e+01
   1.736785e+02   2.947184e+02
  -2.155816e+02   2.922495e+02
  -3.583909e+02   1.122984e+02
  -2.189794e+02  -9.668406e+01
   3.263964e+01  -2.704017e+02
   3.050973e+02  -3.303115e+02
   3.518092e+02  -2.815009e+02
   2.589771e+02   9.868180e+01
   7.604801e+01   4.642273e+02
  -1.284210e+02   3.562677e+02
  -1.370207e+02   1.634032e+02
  -5.801926e+01   9.480306e+00
  -8.020321e+01   1.072876e+02
  -2.309201e+02   1.301742e+02
  -2.444964e+02  -4.002330e+01
  -1.528746e+02  -2.870158e+02
   5.542588e+01  -2.386359e+02
   2.313533e+02  -2.654403e+01
   2.310251e+02   2.236180e+02
  -1.133732e+01   3.356007e+02
  -2.207551e+02   1.513384e+02
  -3.538004e+02  -1.677298e+02
  -1.800133e+02  -3.217789e+02
   1.071132e+02  -3.403418e+02
   2.636495e+02  -1.316016e+02
   1.911915e+02  -6.922719e+01
   1.204497e+02  -1.805659e+01
   2.372192e+02  -5.507641e+01
   4.537746e+02   5.283784e+01
   3.272241e+02   2.861224e+02
  -5.668369e+01   4.453315e+02
  -3.621097e+02   3.901193e+02
  -4.899601e+02   2.601235e+02
  -3.315905e+02  -8.805194e+01
  -6.795732e+01  -2.756532e+02
   1.305315e+02  -2.447392e+02
   4.375596e+01  -5.799846e+01
  -1.178511e+02   1.008165e+02
  -2.414224e+02  -3.839949e+01
  -4.310495e+01  -2.015926e+02
   1.536206e+02  -1.956486e+02
   1.448701e+02   7.229869e+01
  -2.091933e+00   1.808403e+02
  -2.041732e+02   4.085994e+01
  -1.934346e+02  -2.663732e+02
   6.168905e+01  -3.544660e+02
   2.511320e+02  -2.150268e+02
   3.808047e+02   9.316466e+01
   2.987431e+02   2.530148e+02
   1.044000e+02   2.650743e+02
  -1.434483e+02   2.141842e+02
  -1.873316e+02   3.535408e+01
  -3.710138e+01  -2.251693e+01
   7.087474e+01   2.069928e+01
   2.413804e+01   7.181273e+01
  -1.355827e+02   1.184556e+02
  -1.826729e+02   2.422081e+01
  -4.687492e+01  -6.898527e+01
   1.194080e+02  -2.365184e+01
   7.472186e+01   8.644082e+01
  -1.232948e+02   8.943215e+01
  -2.848398e+02   1.575671e+01
  -2.904250e+02  -1.870473e+02
  -5.953055e+01  -2.660481e+02
   2.006049e+02  -2.716806e+02
   2.466220e+02  -1.006113e+02
   1.546704e+02   4.746055e+01
  -6.834804e-01   1.119695e+02
  -7.997211e+01   1.314121e+01
   4.484751e+01  -9.299176e+01
   1.741509e+02  -5.177360e+01
   2.104220e+02   6.898506e+01
   1.013883e+02   1.967274e+02
  -9.351383e+01   1.745126e+02
  -1.669856e+02   4.231470e+01
  -4.824450e+01  -5.420157e+01
   6.508344e+01   2.010107e+01
   3.186672e+01   8.584825e+01
  -1.212340e+02   1.302197e+02
  -2.084384e+02   2.227649e+01
  -1.937843e+02  -1.068124e+02
  -2.635283e+01  -2.051197e+02
   1.964013e+02  -1.500040e+02
   1.687737e+02  -2.618247e+01
   3.960172e+01   1.070826e+02
  -4.757647e+01   1.060578e+02
  -6.197873e+01   3.217879e+01
  -2.133127e+01  -2.907738e+01
   1.414280e+01  -1.979879e+01
   7.539937e-01   3.689793e+00
  -9.970438e+01   1.253878e+00
  -9.556781e+01  -6.169950e+01
  -2.042557e+01  -1.539284e+02
   1.368635e+02  -1.821529e+02
   2.515560e+02  -2.544812e+01
   1.903200e+02   1.611342e+02
   4.985727e+01   2.507035e+02
  -1.124952e+02   1.859497e+02
  -1.455390e+02   5.509112e+01
  -9.112018e+01  -6.595690e+01
  -3.191901e+01  -4.878514e+01
  -3.973991e+01   2.760542e+00
  -8.164845e+01   1.426133e+01
  -3.814333e+01  -6.204197e+01
   6.955916e+01  -8.212178e+01
   9.757876e+01  -4.875696e+01
   9.536104e+01   3.627976e+01
  -1.897727e+01   9.106961e+01
  -1.638467e+02   1.209136e+02
  -1.886964e+02  -5.638084e+01
  -1.085396e+02  -1.871550e+02
   7.855650e+01  -2.304704e+02
   2.631018e+02  -1.018714e+02
   2.731981e+02   5.125410e+01
   1.137760e+02   1.492934e+02
  -3.222985e+01   1.838243e+02
  -1.059833e+02   1.235248e+02
  -6.997782e+01   5.269053e+01
  -2.859344e+01   8.121281e+01
  -8.109458e+01   8.915572e+01
  -1.376161e+02  -2.326393e+01
  -8.464288e+01  -1.601236e+02
  -2.340001e+01  -2.209600e+02
   6.489332e+01  -1.938356e+02
   1.470710e+02  -4.302272e+01
   1.555741e+02   1.204046e+02
   2.288605e+01   1.555856e+02
  -7.943546e+01   7.286386e+01
  -5.028715e+01  -5.346845e+00
   8.867483e+00  -2.265722e+01
   1.970895e+01  -3.425219e+01
  -5.891551e+01  -2.513516e+01
  -7.530526e+01  -2.582224e+01
  -6.283015e+01  -2.360060e+01
   8.754501e+01  -4.717560e+01
   1.455377e+02  -3.212139e+01
   1.509374e+02   3.610737e+01
   1.654537e+01   7.945324e+01
  -1.424844e+02   6.136269e+01
  -1.436728e+02   4.115345e+01
  -4.245844e+01  -3.031222e+01
   5.822642e+01  -4.240870e+01
   9.876266e+01   2.265126e+01
   2.457558e+01   7.322601e+01
  -5.715956e+01   4.396987e+01
  -4.389049e+01  -4.838565e+00
  -7.083074e+01  -2.568423e+01
  -2.965385e+01  -5.076297e+01
  -4.862230e+01   1.837092e+00
  -8.119091e+01   1.042742e+01
  -1.505903e+01  -6.714607e+01
   3.725750e+01  -1.913553e+02
   1.085507e+02  -1.766688e+02
   1.532944e+02  -4.081652e+01
   1.235198e+02   1.095644e+02
   1.313832e+01   1.118444e+02
  -7.840763e+01   5.939988e+01
  -6.148654e+01  -2.095506e+01
   7.216075e+01   1.453856e-01
   1.492870e+02   2.082499e+01
   6.041438e+01   7.216735e+01
  -7.661750e+01   1.164743e+02
  -2.167383e+02   4.848206e+01
  -1.780813e+02  -1.539564e+01
  -6.168247e+01  -6.475683e+01
   9.638187e+01  -5.576492e+01
   6.468600e+01   1.194520e+01
  -1.776458e+01   4.618983e+01
  -8.944779e+01  -1.616509e+01
  -3.308284e+01  -1.537359e+02
   6.938874e+01  -1.608000e+02
   1.850007e+02  -8.142860e+01
   1.319547e+02   1.065483e+02
  -2.056784e+01   2.298624e+02
  -1.328289e+02   1.594990e+02
  -1.114437e+02  -1.263431e+01
  -6.553144e+01  -1.338249e+02
  -6.178308e+00  -1.215503e+02
   6.223531e+01  -2.240438e+01
   2.399172e+01   5.143098e+01
   2.039666e+01   1.874726e+01
   1.282904e+01  -2.327549e+01
   2.748112e+01   4.860638e+01
   6.245434e+01   1.095165e+02
   2.949700e+01   1.198870e+02
  -5.144308e+01   1.262254e+01
  -1.517537e+02  -5.009553e+01
  -1.817627e+02  -7.529208e+01
  -9.574141e+00  -5.348716e+01
   6.478610e+01  -2.309985e+00
   6.469587e+01  -1.960770e+01
   2.130181e+01   1.233128e+01
  -4.796198e+01   2.810805e+01
  -4.302434e+01   2.708836e+01
   4.901925e+01  -9.049545e+00
   3.749250e+00  -2.436724e+01
  -7.540340e+01  -8.966602e+00
  -1.170585e+02  -9.451096e+00
  -2.383230e+01  -5.466710e+01
   1.170999e+02  -1.373834e+02
   2.119308e+02  -5.690812e+01
   1.490599e+02   6.602681e+01
   1.132339e+01   1.826170e+02
  -5.625210e+01   1.780372e+02
  -1.307903e+02   7.877338e+01
  -6.926144e+01  -1.747451e+01
  -2.524471e+01  -3.267764e+01
  -7.246720e-01  -1.358988e+01
  -2.463115e+01  -2.512844e+01
   6.600328e+00  -6.729076e+01
  -1.395318e+01  -1.034487e+02
   3.921839e+01  -5.404275e+01
   5.292391e+01   1.361605e+01
   7.809261e+01   9.376522e+01
   9.032185e+00   1.276085e+02
  -7.850036e+01   2.332791e+01
  -1.341056e+02  -9.557624e+01
  -5.231516e+01  -8.152816e+01
   5.430743e+01  -4.047760e+01
   1.088104e+02   4.161117e+00
   2.483830e+01   3.660342e+01
   1.066130e+00   5.161815e+01
  -3.439329e+00   3.556123e+01
   2.154275e+01  -4.400214e-02
   6.396718e+01  -6.410650e+00
  -3.719744e+00   1.579503e+01
  -4.979859e+01   7.846301e+01
  -1.082234e+02   8.568416e+01
  -7.833272e+01  -2.540169e+01
   1.250148e+01  -9.827381e+01
   4.284300e+01  -6.783753e+01
   5.243608e+01   6.024044e+00
  -1.468735e+01   8.220697e+01
  -1.405927e+01   4.709416e+01
  -4.948761e+01  -3.196600e+01
  -2.842584e+01  -6.066184e+01
  -4.257560e+00  -4.739381e+01
   4.097515e+01   8.692153e+00
   6.443365e+01   3.394765e+01
   9.594207e+00   4.712750e+00
   5.995258e+00   3.619710e+00
   4.399803e+00  -2.306510e+00
  -2.611727e+01   2.402850e+01
  -3.333709e+01   5.834633e+01
  -1.319095e+01   4.008642e+00
   1.078844e+01  -8.103038e+01
  -1.262646e+01  -7.200436e+01
   2.409169e+01   9.356927e-01
   3.331579e+01   1.969617e+01
  -8.935289e+00   6.306777e+01
  -6.817244e+01   1.724460e+01
  -9.353126e+01  -5.820314e+00
  -6.914646e+01  -6.653499e+01
   2.385421e+01  -6.737648e+01
   6.050239e+01  -3.041667e+01
   2.345468e+01  -1.107076e+00
  -3.209597e+01  -2.039490e+01
  -6.084099e+01  -8.346435e+00
   4.244689e+01  -4.641726e+01
   8.894827e+01  -3.669862e+01
