
 $NMID
 id='ANONYMOUS ', fmtdat='(2E16.6)'
 volume=1.0
 tramp=1.0
 $END
   4.621722e+03  -6.792157e+02
   2.965402e+03   2.485371e+03
  -6.024908e+02   2.904727e+03
  -1.877583e+03   1.265502e+03
  -1.162225e+03  -5.229022e+02
   5.759696e+02  -6.506956e+02
   1.007594e+03   3.667884e+02
   8.764460e+01   8.835834e+02
  -8.256431e+02   9.778158e+02
  -1.026118e+03  -3.006020e+01
  -6.249510e+02  -8.625867e+02
   2.075198e+02  -9.250564e+02
   7.346415e+02  -2.855141e+02
   4.994343e+02   8.658734e+02
  -1.240331e+02   8.288364e+02
  -5.505383e+02   6.756478e+01
  -3.336584e+02  -6.878150e+02
   3.320031e+02  -7.477138e+02
   7.136584e+02  -1.340542e+02
   4.812574e+02   3.711901e+02
   1.141066e+02   4.772414e+02
  -2.322856e+02   2.755784e+02
  -2.208911e+02   2.271744e+01
   8.981552e+01  -4.681827e+01
   3.829860e+02   1.049380e+02
   2.153606e+02   4.756596e+02
  -4.300172e+02   4.118770e+02
  -9.592257e+02   9.078711e+00
  -5.376510e+02  -4.980814e+02
   4.267864e+02  -5.647125e+02
   8.401676e+02  -2.181278e+01
   4.310892e+02   4.716533e+02
  -2.646939e+02   5.558652e+02
  -5.570126e+02   2.766152e+02
  -5.033956e+02  -2.201946e+02
  -1.596077e+02  -4.965706e+02
   1.830624e+02  -3.420595e+02
   1.578921e+02   2.094219e+02
  -1.513265e+02   4.295277e+02
  -5.225571e+02   5.136862e+01
  -2.998648e+02  -6.696313e+02
   3.845514e+02  -7.619385e+02
   6.570821e+02  -3.797362e+01
   3.400554e+02   6.320643e+02
  -2.463405e+02   2.923229e+02
  -4.507645e+02  -2.354755e+02
   3.693182e+01  -4.946405e+02
   5.829928e+02  -1.586551e+02
   6.916578e+02   4.509530e+02
   2.594002e+02   6.144898e+02
  -3.702100e+02   3.470662e+02
  -6.785362e+02   5.835681e+00
  -4.584747e+02  -2.905481e+02
   1.551079e+02  -4.519284e+02
   4.254668e+02  -1.480493e+02
   2.629836e+02   1.682035e+02
  -4.623409e+01   1.164277e+02
  -1.597196e+02  -1.573757e+02
   1.268577e+02  -1.858107e+02
   3.478140e+02   3.885321e+01
   1.750332e+02   3.171760e+02
  -2.334738e+02   3.077991e+02
  -3.685202e+02   7.512722e+01
  -2.377183e+02  -5.198093e+01
   1.355240e+01  -2.518865e+02
   2.480845e+02  -3.365868e+02
   3.214468e+02  -2.764852e+02
   2.857688e+02   1.102111e+02
   1.314464e+02   4.359652e+02
  -4.782269e+01   3.677272e+02
  -1.048261e+02   1.310051e+02
  -1.767273e+01  -2.080700e+01
  -5.440065e+01   1.018356e+02
  -2.042152e+02   1.505987e+02
  -2.617652e+02  -6.111451e+01
  -1.522146e+02  -2.851877e+02
   5.041279e+01  -2.383369e+02
   2.686957e+02  -4.481597e+01
   2.327728e+02   2.113296e+02
   4.638439e+00   3.273531e+02
  -2.363188e+02   1.440372e+02
  -3.901067e+02  -1.407923e+02
  -2.261047e+02  -3.551851e+02
   1.260272e+02  -3.236754e+02
   2.218889e+02  -1.577750e+02
   1.994037e+02  -3.156409e+01
   1.056075e+02  -6.271051e+01
   2.446989e+02  -9.314952e+01
   4.799296e+02   4.780174e+01
   3.682030e+02   2.658167e+02
  -1.805426e+00   5.215868e+02
  -3.443891e+02   4.604763e+02
  -4.696279e+02   2.428175e+02
  -3.621501e+02  -4.483854e+01
  -6.605735e+01  -2.971212e+02
   1.170103e+02  -2.602309e+02
   9.620761e+01  -7.946309e+01
  -1.316308e+02   1.305073e+02
  -2.701095e+02  -2.074302e+01
  -4.214152e+01  -2.119130e+02
   1.766309e+02  -1.783822e+02
   1.772117e+02   3.774448e+01
   2.746705e+01   2.207700e+02
  -2.010949e+02   5.894396e+01
  -2.116854e+02  -2.153720e+02
   5.778789e+01  -3.424319e+02
   2.601227e+02  -2.326005e+02
   3.824648e+02   1.000470e+02
   3.238523e+02   2.291701e+02
   1.193307e+02   2.562741e+02
  -1.081413e+02   1.801599e+02
  -1.671589e+02   4.126887e+01
  -4.717984e+01  -4.787827e+01
   5.719320e+01   5.662918e+01
   6.200427e+01   9.211082e+01
  -1.440054e+02   1.041996e+02
  -1.569957e+02  -3.124695e-01
  -3.207137e+01  -1.041695e+02
   9.735223e+01  -1.660584e+01
   5.340137e+01   6.849028e+01
  -1.558218e+02   1.351838e+02
  -2.690481e+02   2.093356e+01
  -3.222571e+02  -1.298638e+02
  -8.174989e+01  -2.818841e+02
   2.090547e+02  -3.103946e+02
   2.559548e+02  -1.476778e+02
   1.716611e+02   3.322524e+01
  -9.712360e+00   1.173668e+02
  -5.668716e+01   1.553909e+01
   1.408430e+01  -8.744991e+01
   2.007435e+02  -7.582737e+01
   2.273956e+02   1.212676e+02
   1.008873e+02   2.714384e+02
  -8.172132e+01   1.444839e+02
  -1.982975e+02   2.907233e+01
  -8.663535e+01  -4.377098e+01
   6.744384e+01   7.331174e+00
   4.104332e+01   6.720276e+01
  -5.764768e+01   1.021920e+02
  -2.188210e+02   4.756897e+01
  -2.134784e+02  -1.224097e+02
  -3.449976e+01  -1.933602e+02
   1.571566e+02  -1.867672e+02
   1.899174e+02  -3.867283e+01
   9.106067e+01   1.465451e+02
  -7.526192e+01   1.259151e+02
  -9.214243e+01   1.886073e+01
  -2.330245e+01  -3.688701e+01
  -1.648559e+00   1.165412e+01
  -4.125226e+01   1.127205e+01
  -9.005937e+01   4.774615e+00
  -8.266980e+01  -6.162117e+01
   1.421250e+01  -1.777577e+02
   1.057781e+02  -2.201982e+02
   2.677245e+02  -4.332806e+01
   2.251769e+02   1.434371e+02
   7.894015e+01   2.668735e+02
  -1.149738e+02   2.100248e+02
  -1.211663e+02   2.148583e+01
  -9.553448e+01  -5.503071e+01
  -2.560815e+01  -1.001227e+01
  -5.612516e+01   2.986120e+01
  -7.157142e+01   2.206552e+01
  -4.490353e+01  -7.055335e+01
   2.264157e+01  -8.566435e+01
   9.291939e+01  -9.353006e+01
   1.004884e+02   2.911283e+01
  -1.682707e+01   1.370173e+02
  -1.279953e+02   1.268579e+02
  -2.269047e+02  -6.343328e+01
  -1.100757e+02  -2.267812e+02
   7.830632e+01  -1.983472e+02
   2.484009e+02  -1.404045e+02
   2.758348e+02   4.712413e+01
   1.607622e+02   1.988344e+02
  -4.941097e+00   1.339290e+02
  -7.684414e+01   1.143366e+02
  -7.933439e+01   6.098008e+01
  -3.246774e+01   8.467554e+01
  -1.284788e+02   1.142223e+02
  -1.437638e+02   9.307177e+00
  -1.284680e+02  -1.903528e+02
  -5.135821e+01  -2.664650e+02
   1.308718e+02  -2.372298e+02
   2.008614e+02  -2.720757e+01
   1.697391e+02   1.239818e+02
   3.153700e+01   1.935893e+02
  -3.775291e+01   9.027653e+01
  -6.870848e+01   5.059419e+00
  -5.150899e+01  -5.554221e+01
   3.350626e+00  -3.263160e+01
  -3.727016e+01  -2.834214e+01
  -7.581155e+01  -1.882257e+01
  -4.410322e+01  -4.576859e+01
   7.160501e+01  -6.502386e+01
   1.504244e+02  -1.377954e+00
   1.537976e+02   5.786169e+01
   1.258512e+01   8.584816e+01
  -1.366295e+02   1.029127e+02
  -1.659146e+02   4.126408e+01
  -7.337314e+01  -4.849501e+01
   6.862940e+01  -1.851093e+01
   1.154830e+02   1.147925e+01
   2.566600e+01   6.854155e+01
  -6.806458e+01   4.613414e+01
  -6.262587e+01  -2.094953e+01
  -5.160959e+01  -5.600306e+01
  -3.879892e+01  -5.451965e+01
  -6.410882e+01   6.849100e-01
  -6.220711e+01   2.333498e+01
  -5.631567e+01  -7.258377e+01
   5.325865e+01  -1.563697e+02
   1.113699e+02  -1.473043e+02
   1.509724e+02  -1.835087e+01
   1.497482e+02   8.640090e+01
   2.851278e+01   1.154567e+02
  -1.024674e+02   8.342294e+01
  -3.550456e+01  -3.284024e+01
   4.432130e+01  -1.207494e+01
   1.524566e+02   8.446191e+00
   8.530933e+01   1.089919e+02
  -7.221052e+01   1.287925e+02
  -2.268390e+02   6.744674e+01
  -1.833616e+02  -1.859142e+01
  -4.160672e+01  -8.741836e+01
   7.031867e+01  -1.035748e+02
   5.852148e+01   1.388230e+01
  -3.110228e+01   4.142691e+01
  -1.223604e+02  -3.394205e+01
  -3.410528e+01  -1.332712e+02
   8.307993e+01  -1.842448e+02
   1.330964e+02  -5.936662e+01
   1.106020e+02   1.340458e+02
   8.326124e+00   2.285025e+02
  -9.755509e+01   1.514749e+02
  -7.156065e+01  -5.789451e+00
  -6.052338e+01  -1.472902e+02
  -2.019140e+01  -1.163943e+02
   2.943238e+01   1.574827e+00
   4.369088e+01   4.141402e+01
   1.125889e+01  -9.529518e+00
  -3.116617e+01  -2.396186e+01
   2.168758e+01   1.976689e+01
   7.725475e+01   8.285866e+01
   5.151250e+01   1.184576e+02
  -4.602732e+01   6.261079e+01
  -1.461952e+02   3.626451e+00
  -1.457196e+02  -7.718414e+01
  -2.208066e+01  -6.193410e+01
   7.931014e+01  -2.269217e+01
   1.032401e+02   4.805109e+00
  -1.019613e+01   8.649910e+00
  -5.302654e+01   2.478565e+01
  -1.465905e+01   4.699128e+01
  -3.126928e-01  -1.106885e+01
  -3.740540e+01  -2.713227e+01
  -5.863852e+01   4.807479e+00
  -8.366298e+01  -8.139629e+00
  -1.431657e+01  -6.742571e+01
   1.027488e+02  -1.323522e+02
   1.912261e+02  -7.447591e+01
   1.796551e+02   7.152634e+01
   4.749245e+01   1.905353e+02
  -6.180759e+01   1.749802e+02
  -1.341115e+02   9.078456e+01
  -9.321458e+01  -2.387053e+01
  -1.052271e+01  -3.879058e+01
   1.305888e+01  -1.336834e+01
  -8.075070e-01   3.453760e+01
  -5.038141e+01  -2.798416e+01
  -5.330177e+01  -1.159615e+02
   2.820534e+01  -7.171621e+01
   7.911964e+01  -8.386260e+00
   9.087238e+01   1.121726e+02
   5.822726e+00   1.493385e+02
  -8.960401e+01   1.938108e+01
  -1.022326e+02  -8.801295e+01
  -7.814099e+01  -9.283940e+01
   8.134277e+01  -6.337882e+01
   1.130803e+02  -3.436516e+00
   2.797713e+01   6.499425e+01
  -2.792963e+01   4.345034e+01
  -4.652610e+01   5.912146e+01
   5.029155e+01   1.354434e+01
   6.575964e+01   8.392963e+00
   4.199364e+01   2.876167e+01
  -1.249784e+02   9.942974e+01
  -1.070879e+02   6.193116e+01
  -5.622943e+01  -7.775708e+00
   9.613667e+00  -1.044477e+02
   4.755066e+01  -7.995383e+01
   4.847852e+01   1.224984e+01
  -2.292595e+00   5.986080e+01
  -4.457403e+01   6.414514e+01
  -1.933345e+01  -2.787270e+01
  -2.052056e+01  -8.063575e+01
  -9.499053e+00  -5.243366e+01
   1.636385e+01   5.305691e+00
   9.124051e+01   2.068980e+01
  -5.194613e+00   7.757318e+00
   1.629146e+01  -5.377600e+00
  -1.118946e+01   9.911366e-01
   6.722139e+00   2.118443e+01
  -3.731088e+00   5.015811e+01
  -3.164527e+01   6.173926e+00
  -4.540394e+01  -4.674439e+01
  -1.113655e+01  -5.429456e+01
   7.119068e+01  -2.654600e+01
   9.226000e+01   4.887138e+01
   1.398894e+01   7.029637e+01
  -6.177825e+01   5.775711e+01
  -7.551658e+01  -1.545447e+01
  -6.551525e+01  -4.000505e+01
   5.305556e+01  -3.440991e+01
   6.062812e+01  -3.730744e+01
   2.018451e+01  -2.383768e+01
  -5.215994e+01  -5.441253e+00
  -3.165209e+01  -2.639638e+01
   5.313157e+01  -4.422140e+01
   8.064740e+01  -2.545839e+01
