
 $NMID
 id='ANONYMOUS ', fmtdat='(2E16.6)'
 volume=1.0
 tramp=1.0
 $END
   4.417242e+03  -3.629537e+02
   2.981673e+03   2.255366e+03
  -1.659940e+02   2.930974e+03
  -2.228851e+03   1.678049e+03
  -1.286020e+03  -3.901384e+02
   2.396598e+02  -7.117375e+02
   7.996819e+02   3.087926e+02
   2.464471e+02   9.609374e+02
  -7.479877e+02   8.834090e+02
  -1.064044e+03   6.784452e+01
  -5.703019e+02  -8.779079e+02
   1.698848e+02  -1.071508e+03
   6.063485e+02  -2.510925e+02
   4.184743e+02   5.880127e+02
  -1.692497e+02   7.950855e+02
  -5.291433e+02   1.428885e+02
  -3.526868e+02  -6.654483e+02
   3.467198e+02  -7.678426e+02
   6.779804e+02  -2.021520e+02
   5.232254e+02   3.898499e+02
   1.276748e+02   4.879504e+02
  -1.543804e+02   3.177986e+02
  -1.556682e+02   9.622781e+01
   8.496874e+01   2.234033e+00
   3.266375e+02   1.159138e+02
   1.347745e+02   3.453457e+02
  -4.128502e+02   3.806812e+02
  -7.729663e+02  -3.515390e+01
  -4.631827e+02  -4.503467e+02
   3.529456e+02  -3.834427e+02
   5.848225e+02   7.867892e+01
   3.821591e+02   4.792697e+02
  -2.578838e+02   4.862779e+02
  -4.983556e+02   2.391264e+02
  -3.965343e+02  -2.454051e+02
  -1.432258e+02  -4.286151e+02
   1.200674e+02  -3.228672e+02
   1.827433e+02   1.297025e+02
  -1.227434e+02   3.527757e+02
  -3.279657e+02  -3.740607e+01
  -2.087534e+02  -4.759179e+02
   2.819246e+02  -5.911745e+02
   5.333007e+02  -9.340491e+01
   2.588129e+02   4.953772e+02
  -1.341861e+02   3.859869e+02
  -3.812545e+02  -2.345242e+02
  -6.446727e+00  -4.697211e+02
   5.506565e+02  -1.742376e+02
   5.849890e+02   4.949087e+02
   2.241143e+02   6.428403e+02
  -4.371416e+02   3.774295e+02
  -5.791802e+02  -3.443983e+01
  -4.366911e+02  -3.603909e+02
   1.162061e+02  -4.097265e+02
   4.706713e+02  -1.540765e+02
   3.018487e+02   1.197935e+02
  -4.459191e+01   1.268555e+02
  -1.865033e+02  -1.145270e+02
   1.060474e+02  -1.673182e+02
   2.869777e+02   4.260561e+01
   2.013068e+02   3.248799e+02
  -2.103550e+02   2.842274e+02
  -3.422340e+02   1.195655e+02
  -2.374153e+02  -1.043789e+02
   7.242305e+01  -2.482352e+02
   2.634029e+02  -3.064306e+02
   3.518222e+02  -1.911748e+02
   2.986802e+02   1.269291e+02
   1.115849e+02   3.627800e+02
  -3.002787e+01   4.019688e+02
  -9.588539e+01   2.041505e+02
  -1.029308e+02   4.287051e+01
  -1.008497e+02   1.099231e+02
  -2.120262e+02   7.657609e+01
  -2.378921e+02  -3.675189e+01
  -1.651829e+02  -2.325930e+02
   2.871497e+01  -2.277154e+02
   2.088685e+02  -3.858645e+00
   1.978871e+02   2.091418e+02
  -2.141340e+01   3.151188e+02
  -2.169209e+02   1.304134e+02
  -3.963266e+02  -1.638924e+02
  -1.957041e+02  -3.659173e+02
   1.061510e+02  -3.224362e+02
   2.773416e+02  -7.474214e+01
   1.751278e+02  -1.212187e+01
   1.045678e+02  -2.864173e+01
   2.415609e+02  -4.747546e+01
   3.830641e+02   6.648588e+01
   3.482713e+02   3.052805e+02
  -9.107982e+01   4.544487e+02
  -3.698857e+02   4.108607e+02
  -5.728152e+02   2.524415e+02
  -3.667767e+02  -6.143174e+01
  -6.699608e+01  -2.910502e+02
   8.170658e+01  -2.394446e+02
   2.712778e+01  -5.398721e+01
  -7.699377e+01   6.419816e+01
  -1.392818e+02  -1.895053e+01
  -5.687110e+01  -1.420214e+02
   1.543670e+02  -1.637279e+02
   1.722720e+02   2.931163e+01
   4.716559e+00   1.751532e+02
  -1.891489e+02   3.271673e+01
  -1.965411e+02  -2.567017e+02
  -1.560385e+01  -3.537571e+02
   2.351405e+02  -1.735988e+02
   3.930704e+02   1.045295e+02
   2.534880e+02   2.466569e+02
   1.028223e+02   2.687369e+02
  -9.058209e+01   1.523260e+02
  -1.833936e+02   3.875777e+01
  -4.503106e+01  -2.340389e+01
   4.795211e+01   3.605538e+01
   1.157422e+01   1.072759e+02
  -9.693702e+01   8.187617e+01
  -1.942817e+02  -1.072758e+01
  -2.879538e+01  -7.447137e+01
   6.741850e+01   2.215424e+01
   5.994269e+01   9.547969e+01
  -1.301884e+02   8.938533e+01
  -2.751316e+02  -5.316209e+00
  -2.347191e+02  -1.834483e+02
  -1.206633e+01  -2.633029e+02
   1.653976e+02  -2.876759e+02
   2.833413e+02  -1.132507e+02
   1.820817e+02   5.764107e+01
  -2.153924e-01   9.088594e+01
  -7.231405e+01  -2.339944e+00
   1.048328e+01  -1.181070e+02
   1.573688e+02  -7.847491e+01
   2.059550e+02   9.817062e+01
   7.606315e+01   2.147888e+02
  -9.748233e+01   1.241657e+02
  -1.407767e+02   5.043421e+01
  -4.493569e+01  -2.058430e+01
   4.825873e+00   3.282108e+01
   6.229451e+00   1.061891e+02
  -1.026857e+02   1.189654e+02
  -2.141868e+02   7.882620e+00
  -1.777647e+02  -1.079270e+02
  -8.944608e+00  -2.380934e+02
   1.630382e+02  -1.196691e+02
   1.564877e+02  -1.685647e+01
   7.698897e+01   1.351765e+02
  -1.024921e+02   1.175941e+02
  -7.852493e+01   7.477188e+01
  -3.651438e+01  -2.743567e+01
   1.867527e+01  -1.664577e+01
   7.103215e+00   1.019418e+01
  -9.176934e+01  -1.939171e+01
  -1.028716e+02  -1.178778e+02
   1.151551e+01  -1.511104e+02
   1.805537e+02  -1.353211e+02
   2.178119e+02   1.411293e+01
   1.956211e+02   1.443932e+02
   7.190514e+01   2.435761e+02
  -1.374434e+02   1.910757e+02
  -1.355485e+02   3.102473e+01
  -7.964152e+01  -5.547976e+01
  -4.030743e+01  -6.458749e+01
  -6.227337e+01   1.822000e+01
  -1.174957e+02  -1.251144e+01
  -3.202290e+01  -8.561437e+01
   3.869541e+01  -8.512076e+01
   1.020227e+02  -7.077474e+01
   1.143824e+02   6.166950e+01
  -8.701413e+00   1.220899e+02
  -1.398021e+02   9.100525e+01
  -1.627408e+02  -7.981034e+01
  -9.004803e+01  -1.872183e+02
   1.047188e+02  -2.051183e+02
   2.618654e+02  -1.026692e+02
   2.473278e+02   6.979960e+01
   1.077988e+02   2.122219e+02
  -1.169852e+01   1.496443e+02
  -7.145043e+01   6.767416e+01
  -1.182062e+02   7.980100e+01
  -6.113598e+01   8.167481e+01
  -5.518261e+01   6.490633e+01
  -1.338174e+02  -1.223415e+01
  -1.325899e+02  -1.684293e+02
  -3.783723e+01  -2.108912e+02
   1.261950e+02  -1.448700e+02
   1.526760e+02  -1.616838e+01
   1.672910e+02   1.333946e+02
   3.406576e+01   1.413561e+02
  -5.574971e+01   7.564981e+01
  -5.810802e+01  -2.039500e+00
  -3.185308e+00  -4.356320e+01
  -1.566191e+01  -1.774393e+01
  -4.465435e+01  -1.561693e+01
  -9.135855e+01  -4.560657e+01
  -2.649796e+01  -5.206841e+01
   1.126494e+02  -3.313298e+01
   1.750375e+02   3.385989e+01
   1.361365e+02   8.773170e+01
  -4.451542e+00   8.166348e+01
  -1.281134e+02   7.177490e+01
  -1.650322e+02  -1.300112e+01
  -5.122035e+01  -4.857349e+01
   3.803291e+01  -3.357836e+01
   4.909415e+01   3.533954e+01
   1.054871e+01   6.335943e+01
  -9.238220e+01   7.266701e+01
  -4.841622e+01  -3.060236e+01
  -5.647332e+01  -6.824742e+01
  -5.683505e+01  -1.611102e+01
  -5.574873e+01   1.050603e+01
  -8.046318e+01  -2.104932e+01
  -3.920024e+01  -8.311501e+01
   2.630111e+01  -1.646123e+02
   1.331193e+02  -1.363121e+02
   1.636059e+02  -5.414352e+01
   1.366539e+02   8.134599e+01
   4.868943e+00   1.379301e+02
  -9.078189e+01   5.523149e+01
  -6.203941e+01  -2.355584e+01
   5.550300e+01  -6.363476e+00
   1.150027e+02   5.269292e+01
   7.886182e+01   9.745156e+01
  -1.045431e+02   1.199464e+02
  -2.015620e+02   5.038101e+01
  -1.750697e+02  -5.631714e+01
  -4.025325e+01  -8.195173e+01
   9.184950e+01  -6.089350e+01
   7.680023e+01  -2.512695e+01
  -5.706487e+01   1.895349e+01
  -8.656349e+01  -2.004889e+01
  -4.688187e+00  -1.448975e+02
   1.001596e+02  -1.659335e+02
   1.643946e+02  -7.555696e+01
   1.461791e+02   8.910981e+01
  -1.079596e+01   2.169468e+02
  -7.738334e+01   1.528389e+02
  -8.491615e+01  -5.977152e+00
  -8.987675e+01  -1.153273e+02
   3.505841e+01  -7.990653e+01
   6.524437e+01  -1.215367e+01
   3.841069e+01   3.455397e+01
   3.557023e+01  -3.531604e+00
   6.632122e+00  -3.704714e+01
   3.285537e+01   1.480702e+01
   2.870397e+01   1.096436e+02
   2.925402e+01   9.773308e+01
  -7.243666e+01   5.622333e+00
  -1.218685e+02  -2.339236e+01
  -1.177808e+02  -1.001872e+02
  -2.023622e+01  -7.049500e+01
   1.111306e+02  -2.625918e+01
   7.339518e+01   7.343936e+00
   2.128324e+01   5.382290e+00
  -2.363345e+01   2.699322e+01
  -2.453103e+01   5.190421e+00
   2.556591e+01   6.089874e+00
   1.706266e+01   1.211868e+00
  -8.786511e+01  -5.955979e+00
  -1.051170e+02  -4.434848e+01
  -1.545757e+01  -9.826323e+01
   1.647398e+02  -1.256396e+02
   1.814988e+02  -6.993530e+01
   1.406728e+02   8.593200e+01
   3.900716e+01   1.699454e+02
  -9.200378e+01   1.651527e+02
  -1.453600e+02   5.665054e+01
  -1.007953e+02  -2.852208e+01
  -2.978324e+01  -7.151306e+01
  -4.379128e+00  -3.586881e+01
  -1.869506e+01  -1.473443e+01
  -3.707434e+01  -4.837625e+01
  -2.855411e+01  -1.108454e+02
   4.620758e+01  -1.052184e+02
   7.543863e+01   1.741200e+01
   1.075620e+02   1.349073e+02
  -1.486682e+01   1.134786e+02
  -7.932599e+01   2.019505e+01
  -1.007884e+02  -9.128231e+01
  -8.284266e+00  -1.207263e+02
   5.378988e+01  -7.318629e+01
   1.161837e+02   2.159911e+00
   3.102364e+01   7.614221e+01
  -6.193491e+00   4.570815e+01
  -2.644734e+01   7.130082e+00
   2.903876e+01   2.629699e+01
   7.037220e+01  -8.703517e+00
   1.213711e+01   2.679936e+01
  -9.729779e+01   8.207682e+01
  -1.098717e+02   9.229092e+01
  -8.341815e+01   2.992962e+00
  -1.039851e+01  -1.063854e+02
   6.490677e+01  -5.510907e+01
   5.729527e+01  -2.409033e+01
   1.796334e+01   3.963505e+01
  -1.734837e+01   6.861875e+01
   4.599646e+00  -2.664787e+01
  -3.328488e+01  -5.195861e+01
  -4.265398e+00  -6.088337e+01
   2.688177e+01   2.462871e+01
   4.245368e+01   3.295807e+01
   1.428820e+01  -3.436430e+00
   1.891092e+01  -5.207330e+00
   1.222107e+01  -5.608312e+00
   1.827052e+00   1.727725e+01
  -3.677652e+01   5.620430e+01
  -2.482115e+01   3.723414e+01
  -3.397364e+01  -6.578328e+01
  -3.621579e+00  -9.571658e+01
   3.903414e+01  -1.881684e+01
   7.348433e+01   4.095978e+01
   1.739110e+01   6.631177e+01
  -6.845085e+01   2.544191e+01
  -1.002882e+02  -2.090509e+01
  -5.638601e+01  -4.222166e+01
   5.810034e+01  -8.562105e+01
   8.581067e+01  -2.602531e+00
   1.504249e+01  -3.278553e+01
  -3.924052e+01  -4.371781e+00
  -3.004366e+01  -3.984288e+01
   2.244178e+01  -5.226218e+01
   1.032409e+02  -1.279021e+01
