
 $NMID
 id='ANONYMOUS ', fmtdat='(2E16.6)'
 volume=1.0
 tramp=1.0
 $END
  -4.203618e+03   3.280153e+02
  -3.060267e+03  -2.220988e+03
   3.066912e+02  -2.864250e+03
   1.990735e+03  -1.486311e+03
   1.189705e+03   3.769556e+02
  -3.406900e+02   6.305179e+02
  -8.313518e+02  -3.381177e+02
  -2.986034e+02  -1.052882e+03
   7.709887e+02  -8.968633e+02
   1.030963e+03  -7.798743e+01
   6.014090e+02   8.739782e+02
  -1.112267e+02   9.898476e+02
  -6.849006e+02   2.253712e+02
  -3.950506e+02  -6.518469e+02
   2.023682e+02  -7.925760e+02
   5.541848e+02  -1.820062e+02
   3.693755e+02   6.093941e+02
  -3.385170e+02   7.067910e+02
  -6.033614e+02   2.093642e+02
  -5.130435e+02  -3.728457e+02
  -1.044286e+02  -4.491410e+02
   1.432117e+02  -3.046419e+02
   2.158904e+02  -5.133806e+01
  -6.632579e+01   2.459502e+01
  -3.312571e+02  -8.613392e+01
  -1.513450e+02  -4.072232e+02
   4.420477e+02  -3.760522e+02
   7.736925e+02   4.333823e+01
   3.484345e+02   4.571549e+02
  -3.297228e+02   3.755499e+02
  -6.312021e+02   2.121161e+01
  -3.861671e+02  -5.070914e+02
   2.397927e+02  -4.942810e+02
   5.537013e+02  -2.552596e+02
   4.154533e+02   2.571854e+02
   1.464835e+02   4.364796e+02
  -1.191931e+02   3.570341e+02
  -1.509447e+02  -1.452667e+02
   6.051364e+01  -3.198729e+02
   3.284197e+02  -2.022346e+01
   2.553296e+02   5.108195e+02
  -2.781498e+02   6.344999e+02
  -5.580290e+02   8.344762e+01
  -3.006519e+02  -5.273405e+02
   1.778150e+02  -3.307650e+02
   3.473879e+02   2.198497e+02
  -1.301105e+01   4.956966e+02
  -4.921711e+02   1.523992e+02
  -5.840779e+02  -4.018759e+02
  -2.117392e+02  -5.714587e+02
   4.389102e+02  -3.728425e+02
   5.840062e+02  -3.146943e+01
   4.490697e+02   2.868759e+02
  -1.422434e+02   3.734050e+02
  -4.316936e+02   1.231304e+02
  -2.578498e+02  -1.075640e+02
   6.410851e+01  -1.305036e+02
   1.692155e+02   1.225781e+02
  -1.010790e+02   1.566930e+02
  -3.199292e+02  -3.905501e+01
  -2.172063e+02  -2.686191e+02
   1.479780e+02  -2.799862e+02
   3.463658e+02  -1.047247e+02
   2.227587e+02   1.321774e+02
  -7.149486e+01   2.373092e+02
  -2.498434e+02   2.734356e+02
  -3.349672e+02   2.262840e+02
  -2.980393e+02  -7.112138e+01
  -1.489148e+02  -3.711625e+02
   1.934455e+01  -4.235151e+02
   1.186375e+02  -1.773111e+02
   7.761290e+01  -4.286006e+01
   6.722141e+01  -9.422439e+01
   2.245197e+02  -9.344958e+01
   2.477618e+02   3.371169e+01
   1.813610e+02   2.700451e+02
  -1.028271e+01   2.570616e+02
  -1.579203e+02   2.487640e+01
  -1.981244e+02  -2.085988e+02
   3.140565e+01  -2.955388e+02
   2.292790e+02  -1.329378e+02
   3.185651e+02   1.743994e+02
   1.960082e+02   2.961969e+02
  -1.295450e+02   3.205483e+02
  -2.202290e+02   1.374291e+02
  -1.851558e+02   3.077509e+01
  -1.089049e+02   1.903201e+01
  -2.209722e+02   5.395380e+01
  -3.495185e+02  -7.082076e+01
  -3.405432e+02  -2.484453e+02
   3.492468e+00  -4.176892e+02
   3.107245e+02  -4.238544e+02
   5.029031e+02  -2.109041e+02
   3.405767e+02   5.660577e+01
   8.093819e+01   2.966946e+02
  -7.739060e+01   2.561022e+02
  -4.999238e+01   7.687613e+01
   4.539675e+01  -6.925091e+01
   1.835775e+02   1.891981e+00
   7.851317e+01   1.433428e+02
  -1.091041e+02   1.519441e+02
  -1.753048e+02  -2.958877e+01
  -2.166961e+01  -1.536334e+02
   1.735226e+02  -5.195132e+01
   2.032114e+02   2.112495e+02
  -1.511821e+01   3.739100e+02
  -2.412758e+02   2.093167e+02
  -3.312694e+02  -2.903058e+01
  -3.293381e+02  -2.111868e+02
  -8.476645e+01  -2.630515e+02
   9.873923e+01  -1.438455e+02
   1.735062e+02  -4.376480e+01
   3.986998e+01   4.929413e+01
  -5.125020e+01  -5.352961e+01
  -5.880934e+01  -9.466510e+01
   1.169525e+02  -8.597809e+01
   1.741173e+02  -1.306987e+01
   5.841156e+01   5.436182e+01
  -7.602086e+01  -2.669744e+01
  -9.006181e+01  -7.800054e+01
   1.257551e+02  -9.546047e+01
   3.200045e+02   1.453354e+01
   2.534573e+02   1.280217e+02
   3.654640e+01   2.833264e+02
  -1.114201e+02   2.678652e+02
  -2.889192e+02   1.367198e+02
  -1.929225e+02  -4.194942e+01
   1.115348e+01  -1.370968e+02
   7.610023e+01  -6.675040e+00
  -2.644407e+01   1.310264e+02
  -1.818407e+02   7.212665e+01
  -2.018738e+02  -1.023920e+02
  -9.552931e+01  -1.873031e+02
   9.621732e+01  -1.526779e+02
   1.338448e+02  -5.296244e+01
   6.855266e+01   9.827427e+00
  -1.257807e+01   7.284862e+00
  -2.011706e+01  -1.017084e+02
   1.564241e+02  -9.656763e+01
   2.298702e+02   2.901496e+00
   2.041042e+02   1.084784e+02
   2.477309e+01   2.192770e+02
  -1.653760e+02   1.969257e+02
  -1.818157e+02   1.414668e+01
  -6.552319e+01  -1.139507e+02
   7.111722e+01  -8.300308e+01
   8.162075e+01  -5.963565e+01
   2.286475e+01   6.709181e+01
   3.407791e+00  -9.325775e+00
   2.737308e+01   1.860147e+00
   1.002023e+02  -7.215844e+00
   1.163163e+02   1.366843e+02
  -2.887682e+00   1.364026e+02
  -1.701550e+02   1.408938e+02
  -2.357108e+02   1.826945e+01
  -2.244235e+02  -1.455421e+02
  -1.509186e+01  -2.424718e+02
   1.231739e+02  -1.768023e+02
   1.335827e+02  -3.813336e+01
   5.670057e+01   3.929236e+01
   4.677063e+01   4.176533e+01
   7.880586e+01  -1.809905e+01
   1.050477e+02   8.189022e+00
   3.418111e+01   7.542640e+01
  -6.239486e+00   9.117518e+01
  -1.039801e+02   5.149725e+01
  -1.138084e+02  -5.961589e+01
   2.530787e+01  -1.093973e+02
   1.443693e+02  -1.034502e+02
   1.931335e+02   4.280558e+01
   9.054005e+01   1.968227e+02
  -9.877280e+01   2.182383e+02
  -3.010037e+02   9.536814e+01
  -2.262918e+02  -8.225500e+01
  -1.101284e+02  -1.885041e+02
   1.848876e+01  -1.533914e+02
   5.437267e+01  -7.298576e+01
   1.133324e+02  -7.588246e+01
   3.147836e+01  -9.572990e+01
   7.148672e+01  -7.635551e+01
   1.417260e+02  -3.425657e+00
   1.296499e+02   1.768817e+02
   5.823600e+01   1.849159e+02
  -1.197065e+02   1.560807e+02
  -1.777231e+02  -2.724994e+01
  -1.809917e+02  -1.027700e+02
  -2.599385e+01  -1.297610e+02
   5.375198e+01  -6.772453e+01
   4.498264e+01  -4.398661e+00
   3.668422e+01   6.295972e+01
  -4.249651e+00   2.184031e+01
   3.088822e+01   4.242521e+01
   8.539252e+01   3.840306e+01
   4.750955e+01   5.103201e+01
  -5.358693e+01   2.398517e+01
  -1.436607e+02  -7.863283e+00
  -1.513130e+02  -5.849802e+01
  -2.524607e+01  -1.077888e+02
   1.096050e+02  -8.630378e+01
   1.447118e+02  -4.094746e+01
   4.413806e+01   7.152063e+01
  -7.171843e+01   3.903788e+01
  -6.673145e+01  -3.159103e+01
  -1.414905e+01  -4.190082e+01
   8.570814e+01  -7.312512e+01
   6.531257e+01   1.029224e+01
   5.334333e+01   6.574950e+01
   4.265390e+01   1.866848e+01
   3.990162e+01   6.333019e+00
   1.018311e+02   6.464297e+00
   6.147771e+01   4.876110e+01
   5.777549e-01   1.491676e+02
  -9.108454e+01   1.557785e+02
  -1.436462e+02   5.477005e+01
  -1.237947e+02  -6.191436e+01
   6.300450e+00  -1.483339e+02
   6.761427e+01  -3.489000e+01
   5.510744e+01  -1.320744e+01
  -4.084909e+01   1.394298e+01
  -1.268800e+02  -3.976206e+01
  -6.659627e+01  -9.120309e+01
   8.905171e+01  -1.389100e+02
   2.001138e+02  -2.310361e+01
   1.643367e+02   4.414949e+01
   5.921548e+01   8.696847e+01
  -6.989206e+01   9.569474e+01
  -6.110221e+01   1.171038e+01
   4.174677e+01  -4.499597e+01
   7.612494e+01  -1.539008e+01
   3.206496e+01   1.273993e+02
  -7.097481e+01   1.354029e+02
  -1.481625e+02   9.110719e+01
  -1.391749e+02  -1.105201e+02
  -1.092541e+01  -2.042567e+02
   9.208187e+01  -1.574730e+02
   9.747175e+01   1.998130e+01
   6.975520e+01   1.051308e+02
  -2.949998e+00   6.409359e+01
  -5.955609e+01  -2.757209e+00
  -1.928221e+01  -4.097762e+01
  -9.471716e+00  -3.652970e+01
   3.400903e+01   6.217254e+00
  -2.641212e+01  -1.264804e+01
  -3.389564e+01  -1.065106e+02
  -2.742537e+01  -1.133365e+02
   4.752837e+01  -4.644798e+01
   1.240180e+02   2.733758e+01
   1.318650e+02   6.229110e+01
   9.970271e+00   3.913292e+01
  -9.348518e+01   9.494194e+00
  -8.116333e+01  -9.391427e+00
  -3.390610e+00  -4.664134e+00
   4.682319e+01  -5.296159e+01
   3.402699e+01  -3.730104e+01
  -1.542939e+01   1.624150e+00
   8.389260e+00  -1.149397e+00
   7.641536e+01  -5.535139e+01
   1.127420e+02   3.048233e+01
   2.410806e+01   8.926216e+01
  -1.824680e+02   1.314363e+02
  -1.602688e+02   7.670640e+01
  -1.250095e+02  -8.470825e+01
  -7.425854e+01  -1.923675e+02
   7.449974e+01  -1.501031e+02
   1.649182e+02  -6.421455e+01
   8.346269e+01   2.120878e+01
   3.803932e+01   8.254098e+01
  -1.601497e+01   3.667109e+01
   1.331932e+01   1.956166e+01
   3.296348e+01   4.688886e+01
   2.234798e+01   8.082644e+01
  -2.479382e+01   8.723491e+01
  -8.389613e+01  -1.720534e+01
  -9.361173e+01  -1.200915e+02
   9.914309e+00  -1.173245e+02
   9.326816e+01  -3.354720e+01
   9.124563e+01   5.996580e+01
   4.861131e+01   1.004699e+02
  -6.655579e+01   6.891216e+01
  -1.070603e+02   2.440484e+01
  -4.738687e+01  -7.579007e+01
   4.551445e+00  -4.704837e+01
   2.607551e+01  -3.169911e+01
  -3.124012e+01   2.156659e+01
  -4.349275e+01  -9.029631e+00
  -1.063335e+01  -3.085835e+01
   4.166561e+01  -6.319447e+01
   1.077252e+02  -5.562227e+01
   4.791167e+01  -9.918992e+00
  -2.496607e+01   9.051927e+01
  -5.067130e+01   6.092466e+01
  -2.937267e+01   1.132367e+01
  -1.766256e+00  -3.508542e+01
   1.724142e+01  -3.439592e+01
   3.483000e+01   1.682078e+01
   5.235526e+01   5.704778e+01
   4.510855e+00   5.199482e+01
  -2.435572e+01   2.175153e+01
  -6.599884e+01  -3.671548e+01
  -2.478737e+01   1.230598e+01
  -2.235259e+01  -9.571586e+00
   3.747008e+01   5.727766e+00
  -4.641961e+01  -3.863479e+01
   4.940114e+01  -4.445992e+01
   2.247080e+01  -2.828461e+01
   3.263215e+01   1.798781e+01
  -1.031236e+01   7.703742e+01
  -4.440937e+01   5.698343e+01
  -8.310067e+01  -4.005619e+01
  -3.826883e+01  -5.775105e+01
   5.833014e+01  -4.443987e+01
   8.039878e+01  -2.887376e+01
   4.093264e+01   2.346660e+01
  -1.556505e+01   4.696421e+01
  -2.682256e+01  -1.616691e+01
  -4.467110e+01   4.564418e+00
   3.978161e+01   2.143717e+01
   4.312300e+01   1.998001e+01
  -2.680560e+01   5.886461e+01
  -9.314949e+01   2.974554e+01
