
 $NMID
 id='ANONYMOUS ', fmtdat='(2E16.6)'
 volume=1.0
 tramp=1.0
 $END
   4.186191e+03  -1.563136e+02
   2.807996e+03   2.217564e+03
  -4.788133e+02   2.590574e+03
  -1.647357e+03   1.210630e+03
  -9.942560e+02  -2.989957e+02
   5.512538e+02  -5.067738e+02
   7.848400e+02   3.125201e+02
   5.620953e+01   9.182822e+02
  -7.227289e+02   7.975804e+02
  -8.288636e+02   5.790811e+01
  -4.563606e+02  -7.301696e+02
   5.131272e+01  -9.213392e+02
   5.683591e+02  -8.683143e+01
   3.246789e+02   7.051420e+02
  -1.919736e+02   6.921451e+02
  -5.693077e+02   1.180081e+02
  -3.284735e+02  -6.510468e+02
   2.141099e+02  -6.290732e+02
   5.135072e+02  -1.564509e+02
   4.125685e+02   2.912521e+02
   9.701755e+01   4.139025e+02
  -1.643969e+02   3.559113e+02
  -1.978304e+02   9.969259e+00
   1.212322e+02  -5.038211e+01
   3.992287e+02   1.368721e+02
   1.573991e+02   4.411789e+02
  -4.787795e+02   3.707737e+02
  -8.463063e+02  -1.089134e+02
  -4.044813e+02  -5.245306e+02
   4.257536e+02  -4.155350e+02
   6.890285e+02   3.612411e+01
   3.421022e+02   4.115789e+02
  -2.382123e+02   5.498145e+02
  -5.997397e+02   2.588709e+02
  -4.359970e+02  -2.470315e+02
  -1.430932e+02  -4.710893e+02
   1.403374e+02  -2.343485e+02
   9.170998e+01   1.246414e+02
  -1.640368e+02   3.674476e+02
  -4.015060e+02   1.040435e+01
  -2.813457e+02  -6.307809e+02
   2.796324e+02  -6.820734e+02
   5.284257e+02   6.324276e+01
   1.997226e+02   5.738174e+02
  -2.171538e+02   2.808658e+02
  -4.209345e+02  -2.934056e+02
  -5.792990e+00  -4.981040e+02
   6.093302e+02  -1.804144e+02
   5.874433e+02   4.047302e+02
   2.353618e+02   5.335716e+02
  -3.827149e+02   3.357189e+02
  -6.425898e+02  -4.917138e+01
  -3.905289e+02  -3.797679e+02
   1.143519e+02  -2.855905e+02
   4.013360e+02  -1.202595e+02
   2.270268e+02   1.476011e+02
  -7.228929e+01   7.580344e+01
  -1.273297e+02  -1.251250e+02
   1.538516e+02  -1.771253e+02
   3.654196e+02   3.556659e+01
   1.379592e+02   2.984336e+02
  -1.510933e+02   2.605733e+02
  -3.090836e+02   1.235312e+02
  -2.584736e+02  -7.199866e+01
   2.641910e+01  -2.511910e+02
   1.768095e+02  -3.565949e+02
   3.414447e+02  -2.379572e+02
   3.000296e+02   1.250193e+02
   1.189060e+02   4.037433e+02
  -2.861904e+01   3.759407e+02
  -6.095315e+01   1.436848e+02
   1.416617e+00   2.663139e+01
  -1.123699e+02   1.160155e+02
  -2.260777e+02   1.397607e+02
  -3.018468e+02  -6.591523e+01
  -1.808467e+02  -2.673676e+02
   6.262765e+01  -2.294592e+02
   2.467252e+02  -1.939883e+01
   2.131618e+02   2.113982e+02
  -6.527196e+00   2.940144e+02
  -2.326832e+02   1.846667e+02
  -3.536436e+02  -1.472233e+02
  -2.029008e+02  -2.910095e+02
   7.201279e+01  -2.901996e+02
   2.351452e+02  -1.572088e+02
   1.518504e+02  -7.810105e-01
   1.073776e+02  -4.022667e+01
   2.374276e+02  -4.292461e+01
   4.430747e+02   3.101491e+01
   3.645896e+02   3.051443e+02
  -1.073539e+01   4.602915e+02
  -2.790971e+02   4.382989e+02
  -4.475643e+02   2.224021e+02
  -3.224303e+02  -8.954745e+01
  -7.219452e+01  -2.757277e+02
   9.530073e+01  -2.284788e+02
   6.676142e+01  -6.062437e+00
  -1.041346e+02   1.008403e+02
  -2.144661e+02   2.278605e+01
  -4.913005e+01  -2.192022e+02
   1.533487e+02  -1.968356e+02
   1.798347e+02   7.340003e+01
  -4.689327e+00   1.604033e+02
  -1.805830e+02   2.472172e+01
  -1.881102e+02  -2.543028e+02
   1.035505e+01  -4.008786e+02
   2.239234e+02  -2.022265e+02
   3.290015e+02   5.111356e+00
   3.066129e+02   2.779825e+02
   1.225203e+02   2.898680e+02
  -1.400384e+02   2.015293e+02
  -1.918017e+02   5.377111e+01
  -7.738307e+01  -3.654929e+01
   5.823127e+01   1.131580e+01
   1.000889e+00   1.267805e+02
  -1.388973e+02   1.174068e+02
  -1.758739e+02   9.704833e+00
  -3.829839e+01  -5.273674e+01
   9.559504e+01  -3.984126e+01
   3.745878e+01   8.913519e+01
  -1.300564e+02   9.461372e+01
  -3.152121e+02   2.169698e+01
  -2.583665e+02  -1.569157e+02
  -7.365278e+01  -2.666508e+02
   1.266304e+02  -2.654939e+02
   2.847803e+02  -1.986356e+02
   1.717368e+02   2.068649e+01
  -2.930006e+01   1.225983e+02
  -9.116439e+01   3.284719e+01
   2.689623e+00  -8.386282e+01
   1.715204e+02  -8.642797e+01
   2.526082e+02   5.749062e+01
   1.058168e+02   2.375070e+02
  -8.344530e+01   1.753715e+02
  -1.391386e+02   3.741681e+01
  -5.839972e+01  -4.102753e+01
   2.148048e+01   2.648295e+01
   8.259474e+01   8.364869e+01
  -8.113228e+01   8.659687e+01
  -1.978039e+02   5.501865e+01
  -2.171119e+02  -9.014170e+01
  -3.253403e+01  -2.412273e+02
   1.771519e+02  -1.631175e+02
   1.700091e+02  -2.549462e+01
   6.693813e+01   1.423958e+02
  -5.524201e+01   1.263837e+02
  -8.920060e+01   3.323790e+01
  -4.301987e+01  -4.049618e+01
  -1.192649e+00  -3.170869e+01
  -1.575065e+01   2.705860e+01
  -7.945982e+01   1.573734e+01
  -9.681527e+01  -5.499244e+01
  -3.848756e+01  -1.559658e+02
   1.336364e+02  -1.579943e+02
   2.365857e+02  -2.970522e+00
   2.599961e+02   1.360568e+02
   6.402363e+01   2.199926e+02
  -1.148553e+02   1.550039e+02
  -1.512171e+02   2.082380e+01
  -6.933587e+01  -3.633608e+01
  -6.248812e+01   7.595570e+00
  -8.228218e+01   2.612301e+01
  -1.092494e+02   2.373081e-01
  -6.188073e+01  -4.100619e+01
   2.972326e+01  -8.769343e+01
   9.553711e+01  -8.741192e+01
   1.152126e+02   3.751820e+01
  -2.494823e+01   1.337277e+02
  -1.554334e+02   1.021174e+02
  -2.040052e+02  -3.958683e+01
  -6.363602e+01  -1.672137e+02
   7.547279e+01  -2.899691e+02
   2.789641e+02  -1.260138e+02
   2.712807e+02   5.410314e+01
   1.496080e+02   1.783969e+02
   1.904012e+00   1.624338e+02
  -8.427071e+01   8.951638e+01
  -8.113855e+01   4.875492e+01
  -4.423664e+01   1.229548e+02
  -6.797243e+01   9.108202e+01
  -1.258481e+02  -2.662288e+01
  -1.093106e+02  -1.529807e+02
  -7.582287e+01  -2.146797e+02
   7.641834e+01  -1.667189e+02
   1.858423e+02  -4.266924e+01
   1.566442e+02   1.362384e+02
   2.247373e+01   1.432002e+02
  -5.174932e+01   9.213505e+01
  -7.150196e+01   1.408185e+01
  -3.314444e+01  -5.161939e+01
  -1.828631e+00  -4.661233e+01
  -2.617579e+01  -1.493097e+01
  -6.116266e+01  -3.899988e+01
  -4.947010e+01  -2.070460e+01
   6.582383e+01  -3.677953e+01
   1.295377e+02  -5.427342e+01
   1.528658e+02  -5.872494e+00
   1.759797e+01   8.645055e+01
  -1.184115e+02   1.215746e+02
  -1.143035e+02   3.114650e+01
  -4.787021e+01  -5.447048e+01
   4.128960e+01  -1.201025e+01
   6.414693e+01  -2.444451e+00
   2.525139e+01   8.176561e+01
  -2.638778e+00   4.995040e+01
  -4.141146e+01   1.521969e+01
  -4.874861e+01  -2.154808e+01
  -4.694666e+01  -2.946359e+01
  -6.263459e+01  -6.702500e+00
  -5.507908e+01   4.373507e+01
  -1.913887e+01  -7.726772e+01
   1.553936e+01  -1.380431e+02
   6.700584e+01  -1.526232e+02
   1.709007e+02  -7.425116e+01
   1.557772e+02   7.534094e+01
   4.539327e+01   1.164567e+02
  -6.988593e+01   8.187054e+01
  -7.381030e+01  -1.213948e+01
   2.950739e+01  -1.968385e+01
   1.258018e+02   1.758513e+01
   1.056740e+02   8.112755e+01
  -4.827072e+01   1.030173e+02
  -1.686618e+02   4.666627e+01
  -1.655297e+02  -3.621607e+01
  -5.888342e+01  -7.881952e+01
   4.981361e+01  -7.584331e+01
   3.578140e+01  -9.413447e+00
  -3.283488e+01   4.256890e+01
  -1.039379e+02  -4.085624e+01
  -4.972987e+01  -1.452010e+02
   8.320809e+01  -1.495755e+02
   1.750642e+02  -5.925327e+01
   1.273304e+02   7.779513e+01
   4.157337e+01   1.867661e+02
  -9.719314e+01   1.495708e+02
  -1.081433e+02   2.392086e+01
  -7.236682e+01  -1.021213e+02
   6.148164e+00  -1.314795e+02
   1.354230e+01  -2.003588e+01
   7.496725e+01   2.719423e+01
   1.041821e+01   2.203959e+01
   2.606142e+01  -1.292490e+00
   4.433198e+01   1.009408e+00
   8.246947e+01   8.024619e+01
   6.764074e+01   1.261732e+02
  -6.568957e+01   4.526813e+01
  -1.569192e+02  -1.585982e+00
  -1.225495e+02  -6.007163e+01
  -2.711618e+01  -5.735428e+01
   9.982386e+01  -1.229745e+01
   8.512861e+01   3.529893e+00
   2.567889e+00  -6.592495e+00
  -3.264454e+01   3.359226e+01
   2.122716e+00   1.803930e+01
   2.068245e+01   4.071559e+00
  -3.223765e+00   7.769740e+00
  -1.015317e+02  -1.441903e+01
  -1.278395e+02  -2.697478e+01
  -3.099678e+01  -7.399837e+01
   1.230811e+02  -1.030358e+02
   1.715008e+02  -8.659866e+01
   1.542827e+02   1.032318e+02
   2.198872e+01   1.757843e+02
  -4.676163e+01   1.739413e+02
  -1.384694e+02   5.242327e+01
  -7.234708e+01  -2.571498e+01
  -4.811100e+01  -2.416636e+01
  -1.153311e+01  -5.868262e+00
   1.311958e+01   2.318015e+01
  -2.140618e+01  -5.126084e+01
  -3.129749e+01  -9.696742e+01
   2.522579e+01  -6.190539e+01
   7.439863e+01   2.297463e+01
   1.135726e+02   9.970378e+01
   3.382788e+01   9.255764e+01
  -8.175640e+01   2.350115e+01
  -1.254626e+02  -6.031513e+01
  -3.804634e+01  -9.826080e+01
   7.097800e+01  -4.285111e+01
   1.189424e+02   7.638637e+00
   4.178673e+01   6.157061e+01
  -3.997589e+01   4.747722e+01
  -1.213549e+01   3.419320e+01
  -7.289492e+00   3.479991e+01
   7.831861e+01  -9.670449e+00
   5.067090e+00   2.051891e+01
  -6.139442e+01   5.610552e+01
  -8.838356e+01   6.258109e+01
  -3.855317e+01  -2.131280e+01
   3.492172e+01  -8.492899e+01
   3.885290e+01  -1.219796e+02
   2.926000e+01  -1.253139e+01
  -4.586761e+00   4.410848e+01
  -2.700869e+01   4.287119e+01
  -3.805375e+01  -3.184256e+00
  -4.174094e+01  -6.128144e+01
  -3.109973e+01  -5.219021e+01
   4.302923e+01   1.547497e+01
   4.476824e+01   1.303078e+01
   1.878989e+01   1.181816e-01
  -1.371111e+01  -2.186465e+01
   1.260876e+01   2.451509e+01
  -1.027526e+01   1.899122e+01
   2.105823e+00   4.805892e+01
  -4.216300e+01   2.483215e+01
  -3.570381e+01  -4.182109e+01
  -1.176575e+01  -3.457070e+01
   2.136556e+01  -1.011527e+01
   6.466979e+01   4.924064e+01
   2.660013e+01   4.905067e+01
  -6.488460e+01   2.846227e+01
  -8.123168e+01  -6.430247e+00
  -3.909201e+01  -3.827037e+01
   2.640652e+01  -3.056492e+01
   4.465512e+01  -3.376189e+01
   3.631099e+01   2.115848e+00
  -7.295300e+00   5.253225e+00
  -4.322883e+01   1.618865e+01
   2.410205e+01  -5.515738e+01
   1.000248e+02  -3.754199e+01
