
 $NMID
 id='ANONYMOUS ', fmtdat='(2E16.6)'
 volume=1.0
 tramp=1.0
 $END
   4.742198e+03  -4.705171e+02
   2.787455e+03   2.486969e+03
  -5.718721e+02   2.860213e+03
  -2.039410e+03   1.314308e+03
  -1.138277e+03  -4.890300e+02
   6.623045e+02  -6.607545e+02
   9.124624e+02   4.481457e+02
   1.994066e+02   1.137848e+03
  -7.930833e+02   8.971708e+02
  -9.762362e+02  -1.171606e+02
  -5.028921e+02  -8.716532e+02
   2.786714e+02  -8.201734e+02
   5.779855e+02  -1.640470e+02
   3.752504e+02   7.745259e+02
  -2.535909e+02   7.806399e+02
  -6.157979e+02   1.170432e+02
  -3.590332e+02  -7.395833e+02
   3.230381e+02  -6.721918e+02
   6.636557e+02  -1.238080e+02
   4.569714e+02   2.914592e+02
   4.750415e+01   4.819369e+02
  -1.787910e+02   3.435666e+02
  -2.692505e+02   8.506431e+00
   1.181018e+02  -1.049839e+02
   4.178368e+02   2.075753e+01
   2.385133e+02   4.471072e+02
  -4.569924e+02   3.839904e+02
  -8.754428e+02   3.324731e+01
  -4.915237e+02  -4.606970e+02
   4.957501e+02  -4.830625e+02
   7.530965e+02  -4.162460e+00
   4.155362e+02   4.762898e+02
  -2.689535e+02   6.002065e+02
  -5.686168e+02   2.998358e+02
  -4.227086e+02  -2.352963e+02
  -1.435745e+02  -4.642726e+02
   1.628716e+02  -2.778947e+02
   1.428897e+02   1.584281e+02
  -1.148987e+02   4.386550e+02
  -4.433505e+02   1.691817e+01
  -3.321394e+02  -6.681917e+02
   3.106159e+02  -7.971455e+02
   6.240393e+02  -4.159973e+01
   2.779953e+02   5.298893e+02
  -2.555076e+02   3.717625e+02
  -4.240073e+02  -3.157387e+02
  -5.019099e+01  -5.771419e+02
   5.925152e+02  -2.244469e+02
   5.930844e+02   4.568615e+02
   2.538322e+02   5.739018e+02
  -4.075685e+02   3.488731e+02
  -7.606793e+02   3.571458e+01
  -4.519404e+02  -3.397220e+02
   1.235282e+02  -3.418852e+02
   4.445901e+02  -1.138937e+02
   2.874775e+02   1.814864e+02
  -9.776092e+01   1.100407e+02
  -1.238554e+02  -1.523720e+02
   1.687846e+02  -2.333057e+02
   3.881784e+02   4.429290e+00
   2.001928e+02   3.092081e+02
  -2.030691e+02   3.124215e+02
  -3.667098e+02   1.722424e+02
  -2.679144e+02  -7.097221e+01
   3.861797e+01  -2.141795e+02
   1.840739e+02  -2.983330e+02
   3.873695e+02  -2.208538e+02
   3.337102e+02   1.108334e+02
   1.319687e+02   4.057621e+02
  -5.318883e+01   4.354474e+02
  -1.064696e+02   1.718070e+02
  -6.342774e+01   2.751966e+00
  -1.049521e+02   9.174088e+01
  -2.284675e+02   1.622775e+02
  -2.793792e+02  -4.041727e+01
  -2.061737e+02  -2.681053e+02
   3.352642e+01  -2.799576e+02
   2.674716e+02  -5.816024e+01
   2.535346e+02   2.582276e+02
   5.554283e+00   2.993955e+02
  -2.224659e+02   1.857636e+02
  -4.116858e+02  -1.871416e+02
  -1.922847e+02  -3.681919e+02
   7.236449e+01  -3.181393e+02
   1.978994e+02  -1.347872e+02
   1.844632e+02  -2.153024e+01
   7.613005e+01  -4.556391e+01
   2.212803e+02  -1.219176e+02
   4.495293e+02   5.469057e+00
   3.610653e+02   2.385890e+02
   9.629886e+00   4.342382e+02
  -2.871575e+02   5.031000e+02
  -4.786315e+02   2.606304e+02
  -3.524616e+02  -9.238661e+01
  -1.197791e+02  -2.982912e+02
   1.129596e+02  -3.280982e+02
   8.554285e+01  -7.331904e+01
  -1.357327e+02   1.646059e+02
  -2.341411e+02   2.804193e+00
  -7.408245e+01  -2.250791e+02
   1.778369e+02  -2.204568e+02
   2.018992e+02   5.716643e+01
   1.276572e+01   2.074988e+02
  -2.107124e+02   7.892182e+01
  -1.953667e+02  -2.579967e+02
  -4.126446e+01  -4.055239e+02
   2.525652e+02  -2.600047e+02
   3.302622e+02   7.490911e+01
   3.211821e+02   2.508294e+02
   1.435711e+02   2.813597e+02
  -1.299135e+02   1.578818e+02
  -2.015185e+02   5.234892e+01
  -4.430108e+01  -1.540657e+01
   6.454801e+01   1.896463e+01
   8.109848e+01   1.347857e+02
  -1.534186e+02   1.196633e+02
  -1.702316e+02   2.662169e+01
  -5.916176e+01  -8.910929e+01
   8.840902e+01  -2.424197e+01
   5.471666e+01   8.532749e+01
  -1.445700e+02   1.039093e+02
  -2.795443e+02   4.651797e+01
  -2.803726e+02  -1.367193e+02
  -6.030984e+01  -2.769795e+02
   1.609907e+02  -2.770410e+02
   2.371185e+02  -1.548952e+02
   1.459893e+02   4.400404e+01
  -1.455580e+01   1.406219e+02
  -7.875811e+01   1.865205e+01
   2.246127e+01  -1.265963e+02
   1.905276e+02  -1.030871e+02
   2.812764e+02   6.419993e+01
   1.039849e+02   1.793939e+02
  -9.808079e+01   1.773134e+02
  -1.862476e+02   6.378383e+01
  -6.131738e+01   2.476797e-01
   3.950347e+01  -3.517115e+00
   8.083498e+01   8.310635e+01
  -9.806413e+01   8.790268e+01
  -2.327380e+02   5.375688e+01
  -2.132928e+02  -5.388502e+01
  -3.858437e+01  -2.327684e+02
   1.861039e+02  -1.957961e+02
   1.652435e+02  -5.705478e+01
   4.872964e+01   1.324476e+02
  -5.870810e+01   1.263168e+02
  -7.975211e+01   5.650417e+01
  -2.237538e+01  -1.412473e+01
   1.878790e+01  -1.618723e+00
  -4.172141e+01   1.905924e+01
  -8.898335e+01  -1.526858e+01
  -9.754514e+01  -8.999590e+01
  -3.602298e+01  -1.428141e+02
   1.265487e+02  -1.908276e+02
   2.602253e+02  -5.238521e+01
   2.459688e+02   1.442780e+02
   1.123901e+02   2.495515e+02
  -1.036192e+02   1.724289e+02
  -1.373312e+02   2.045484e+01
  -7.334950e+01  -2.912404e+01
  -4.166137e+01  -6.573990e+00
  -6.821428e+01   1.155483e+01
  -7.967603e+01   1.239741e+00
  -4.674448e+01  -5.147309e+01
   6.815749e+01  -9.459336e+01
   1.230728e+02  -9.237413e+01
   1.101341e+02   2.058180e+01
  -7.647451e+00   1.334126e+02
  -1.541496e+02   1.047752e+02
  -1.976059e+02  -8.360634e+01
  -1.056018e+02  -1.569865e+02
   6.513011e+01  -2.458546e+02
   2.880082e+02  -1.251864e+02
   2.609194e+02   4.100325e+01
   1.301426e+02   1.680122e+02
  -2.082608e+00   1.298932e+02
  -5.608729e+01   9.720964e+01
  -9.923829e+01   5.887415e+01
  -5.879738e+01   1.124476e+02
  -9.607822e+01   1.275048e+02
  -1.406301e+02  -1.147422e+01
  -1.625286e+02  -1.390361e+02
  -7.200259e+01  -2.279285e+02
   1.075114e+02  -2.216224e+02
   1.900687e+02  -3.562681e+01
   1.673123e+02   1.106048e+02
   1.477641e+01   1.906777e+02
  -5.719666e+01   8.479371e+01
  -4.332591e+01  -1.731328e+01
   8.315538e+00  -4.600602e+01
  -2.083179e+01  -2.932871e+01
  -3.151002e+01  -1.016470e+01
  -9.976317e+01  -3.535363e+01
  -7.339697e+01   7.120759e+00
   6.718433e+01  -4.305918e+01
   1.532842e+02  -1.189343e+01
   1.608280e+02   3.064832e+01
   5.344312e+00   1.102470e+02
  -1.316501e+02   9.297321e+01
  -1.391118e+02   9.400387e+00
  -6.889197e+01  -6.053812e+01
   2.538371e+01  -1.717018e+01
   1.025944e+02  -3.120498e+00
   2.612474e+01   7.131213e+01
  -4.715808e+01   5.615939e+01
  -9.139002e+01  -7.595117e+00
  -6.947711e+01  -5.413901e+01
  -5.273562e+01  -4.121108e+01
  -4.724342e+01  -4.894410e+00
  -3.259909e+01   1.542179e+01
  -2.987010e+01  -8.759285e+01
   3.842175e+01  -1.685536e+02
   1.115176e+02  -1.641730e+02
   1.790271e+02  -5.825763e+01
   1.349928e+02   6.160484e+01
   1.188866e+01   1.474812e+02
  -8.113589e+01   6.750993e+01
  -6.102485e+01  -7.243003e+00
   7.430676e+01  -3.229647e+01
   1.380981e+02   4.915922e+00
   8.346972e+01   8.844679e+01
  -8.128766e+01   1.084940e+02
  -2.079005e+02   7.765834e+01
  -1.784965e+02  -3.108612e+01
  -5.325347e+01  -6.900792e+01
   8.149606e+01  -9.098996e+01
   4.096771e+01  -7.460235e+00
   5.416092e+00   3.406615e+01
  -1.338387e+02  -1.403644e+01
  -4.068506e-01  -1.264905e+02
   5.198568e+01  -1.528698e+02
   1.622208e+02  -6.467315e+01
   1.468559e+02   9.788991e+01
   3.595288e+01   2.094488e+02
  -8.474635e+01   1.585622e+02
  -1.117102e+02  -1.744763e+01
  -9.744365e+01  -1.291563e+02
  -5.035133e+00  -7.714123e+01
   3.105847e+01  -2.188102e+01
   4.295903e+01   2.110806e+01
   2.430171e+01   1.908411e+01
  -5.003287e+00   9.866088e+00
   2.754490e+01   2.664385e+01
   7.413419e+01   8.997852e+01
   6.924628e+01   1.336092e+02
  -6.354781e+01   5.293822e+01
  -1.363183e+02  -1.624256e+01
  -1.507403e+02  -8.867135e+01
  -3.532138e+01  -7.065831e+01
   7.785029e+01  -2.854278e+01
   9.251021e+01  -7.728632e+00
  -1.256716e+01  -1.074304e+01
  -3.385073e+01   4.241739e+01
   4.852265e+00   5.961393e+01
   2.212962e+01  -1.262331e+01
  -1.069651e+01   1.246044e+00
  -8.592175e+01  -4.179302e+01
  -1.024173e+02  -4.793998e+01
  -2.892747e+01  -8.878116e+01
   1.149873e+02  -9.420876e+01
   1.639833e+02  -1.145178e+02
   1.419589e+02   8.623409e+01
   5.707552e+01   1.536275e+02
  -7.212403e+01   1.917542e+02
  -9.703752e+01   7.784213e+01
  -5.119905e+01  -3.031548e+01
  -2.943060e+01  -6.011990e+00
  -2.325354e+01  -3.380637e+01
   3.836945e+00   4.294348e+00
  -5.768309e+01  -3.591453e+01
  -3.681128e+01  -9.587666e+01
  -7.761221e-01  -8.283707e+01
   5.033833e+01   1.065837e+01
   9.175136e+01   1.226147e+02
  -3.535713e+00   1.366213e+02
  -4.585006e+01   1.046260e+01
  -9.912299e+01  -6.803067e+01
  -9.207707e+01  -9.491105e+01
   5.574476e+01  -4.695111e+01
   1.127605e+02  -1.756923e+01
   4.515123e+01   5.368633e+01
   1.425809e+01   5.012929e+01
  -5.878969e+01   2.964467e+01
   3.277562e+01  -2.091946e-01
   7.412851e+01  -8.594453e+00
   6.355499e+00   1.844062e+01
  -6.416265e+01   9.229991e+01
  -8.803877e+01   7.898173e+01
  -5.478850e+01  -4.269627e+00
   5.016430e+00  -1.165912e+02
   2.378693e+01  -8.916702e+01
   1.492493e+01  -1.382084e+01
   2.591252e+01   4.908397e+01
  -3.124626e+01   3.735864e+01
  -2.459766e+01  -8.779644e+00
  -2.488788e+01  -7.065720e+01
   2.816745e+01  -5.033058e+01
   7.768491e+00   1.082660e+01
   3.527844e+01   1.896881e+01
   7.457602e+00  -7.956244e+00
  -1.141091e+01   1.846175e+01
  -2.874932e+01   7.737892e+00
  -1.044077e-01   3.610659e+01
  -2.661731e+00   3.590132e+01
  -2.731101e+01   2.918057e+01
  -2.681301e+01  -6.357904e+01
   5.282599e+00  -6.781943e+01
   1.373866e+01  -4.132371e+01
   8.598537e+01   1.893241e+01
   4.781071e+01   5.997923e+01
  -3.614015e+01   1.763631e+01
  -8.818485e+01  -1.345250e+00
  -7.355521e+01  -4.474752e+01
   2.057290e+01  -4.312831e+01
   4.479505e+01  -9.868087e+00
   3.812539e+01   3.146323e+00
  -5.728566e+01  -1.389574e+01
  -4.504575e+01  -2.399511e+01
   3.077896e+01  -4.652246e+01
   9.377662e+01  -2.219940e+01
