
 $NMID
 id='ANONYMOUS ', fmtdat='(2E16.6)'
 volume=1.0
 tramp=1.0
 $END
  -4.333800e+03   7.499129e+02
  -2.831419e+03  -2.318271e+03
   5.635768e+02  -3.188414e+03
   1.909539e+03  -1.470546e+03
   1.097598e+03   5.307338e+02
  -5.175370e+02   5.986387e+02
  -9.759794e+02  -3.779400e+02
  -3.044561e+02  -1.062485e+03
   7.954812e+02  -8.339448e+02
   1.046654e+03   4.316865e+01
   6.010299e+02   8.510537e+02
  -2.185312e+02   9.258209e+02
  -6.455158e+02   2.077895e+02
  -3.353819e+02  -7.057723e+02
   2.087122e+02  -8.260996e+02
   6.031242e+02  -7.799171e+01
   3.417496e+02   7.369523e+02
  -3.349994e+02   6.574284e+02
  -6.401316e+02   5.497426e+01
  -5.024939e+02  -2.807261e+02
  -9.647016e+01  -5.000670e+02
   1.817868e+02  -3.196442e+02
   2.461907e+02  -1.471004e+00
  -1.391748e+02   1.082393e+02
  -4.131175e+02  -1.335290e+01
  -2.511514e+02  -4.425307e+02
   5.129491e+02  -4.096553e+02
   8.605226e+02   3.623373e+01
   4.911996e+02   5.357934e+02
  -4.424479e+02   4.867206e+02
  -8.033674e+02   5.152982e+01
  -4.248572e+02  -5.190958e+02
   2.356727e+02  -5.646806e+02
   6.133166e+02  -2.282212e+02
   4.504177e+02   2.142116e+02
   1.495932e+02   4.988949e+02
  -2.066180e+02   3.139698e+02
  -1.212080e+02  -1.995295e+02
   1.059707e+02  -4.945598e+02
   3.758589e+02  -1.821803e+01
   3.870811e+02   6.027237e+02
  -2.905929e+02   7.229765e+02
  -5.958912e+02  -1.706424e+00
  -3.358485e+02  -5.895210e+02
   2.351389e+02  -3.615480e+02
   4.273737e+02   2.592074e+02
   3.407850e+01   5.508549e+02
  -5.298953e+02   2.453339e+02
  -5.865464e+02  -4.415356e+02
  -2.797248e+02  -5.577767e+02
   4.004335e+02  -3.808856e+02
   7.374499e+02   2.687610e+00
   4.572517e+02   3.459610e+02
  -1.011121e+02   3.537695e+02
  -4.626370e+02   1.480126e+02
  -2.386260e+02  -1.862521e+02
   1.122656e+02  -1.204364e+02
   1.520027e+02   1.604517e+02
  -1.250101e+02   1.902735e+02
  -4.050796e+02  -1.881306e+01
  -2.352489e+02  -3.003402e+02
   1.918070e+02  -3.109746e+02
   3.431284e+02  -1.704890e+02
   2.218278e+02   1.044639e+02
  -1.605400e+01   2.048812e+02
  -1.720593e+02   3.073397e+02
  -3.456591e+02   2.773112e+02
  -3.251523e+02  -8.666542e+01
  -8.980339e+01  -4.263760e+02
  -8.874878e+00  -4.079135e+02
   1.292181e+02  -1.300080e+02
   7.336555e+01   2.026861e+01
   4.284921e+01  -7.756982e+01
   2.242498e+02  -1.414986e+02
   2.681162e+02  -2.134967e+00
   2.127874e+02   2.446486e+02
  -6.309945e+01   2.509949e+02
  -2.640369e+02   4.836150e+01
  -2.482896e+02  -2.379347e+02
   9.157485e+00  -2.951329e+02
   2.191695e+02  -1.805090e+02
   3.900006e+02   1.547383e+02
   2.390037e+02   3.748957e+02
  -1.335818e+02   3.026111e+02
  -2.158648e+02   1.344203e+02
  -1.745191e+02   2.912284e+01
  -1.153851e+02   5.647187e+01
  -2.147138e+02   1.126008e+02
  -4.077286e+02  -3.810394e+01
  -3.778451e+02  -2.437700e+02
  -4.024424e+01  -4.732775e+02
   2.612421e+02  -4.938165e+02
   4.684015e+02  -2.443563e+02
   3.596329e+02   6.267399e+01
   1.474558e+02   2.828487e+02
  -7.178059e+01   3.048971e+02
  -8.395022e+01   4.552871e+01
   8.440757e+01  -1.340677e+02
   2.456871e+02  -3.627366e+01
   8.128925e+01   1.901154e+02
  -2.006628e+02   1.874327e+02
  -1.727315e+02  -1.694155e+01
  -3.161821e+01  -2.031557e+02
   2.144531e+02  -5.272602e+01
   2.100270e+02   2.459988e+02
   2.353011e+01   3.549369e+02
  -2.458076e+02   2.515887e+02
  -3.237692e+02  -5.424571e+01
  -3.104157e+02  -2.046430e+02
  -1.371640e+02  -2.782702e+02
   1.100297e+02  -1.578845e+02
   1.797071e+02  -2.744545e+01
   6.020873e+01   1.587557e+01
  -2.633038e+01  -4.735105e+01
  -4.706006e+01  -1.264079e+02
   1.736154e+02  -1.135588e+02
   1.493250e+02  -8.727442e+00
   4.195252e+01   1.056395e+02
  -8.655957e+01   2.703989e+00
  -9.219756e+01  -7.935998e+01
   1.116555e+02  -8.712161e+01
   2.816968e+02  -1.353439e+01
   3.211125e+02   1.183276e+02
   6.643462e+01   2.587356e+02
  -1.687969e+02   2.892140e+02
  -2.494198e+02   1.331323e+02
  -1.841406e+02  -6.791314e+01
   2.355960e+01  -1.220470e+02
   7.968137e+01  -4.331081e+00
  -2.705195e+01   1.437682e+02
  -1.722555e+02   1.145288e+02
  -2.354459e+02  -8.240034e+01
  -8.791044e+01  -1.804486e+02
   7.240495e+01  -1.679780e+02
   1.873994e+02  -6.325593e+01
   7.988934e+01   1.198249e+01
  -3.910970e+01  -2.652011e+01
  -2.633926e+01  -9.505651e+01
   6.206938e+01  -1.078512e+02
   2.176477e+02  -4.856940e+01
   2.094257e+02   5.072339e+01
   4.839471e+01   2.299480e+02
  -1.600807e+02   1.829145e+02
  -1.751586e+02   4.229944e+01
  -5.701981e+01  -1.386876e+02
   5.313557e+01  -1.077463e+02
   7.054311e+01  -5.254974e+01
   3.708933e+01   2.693687e+01
  -2.806838e+01   2.831968e+01
   8.500307e+00   5.562516e-01
   9.677439e+01   3.056285e+00
   1.180028e+02   6.698964e+01
   5.705351e+01   1.404022e+02
  -1.081910e+02   1.911695e+02
  -2.401891e+02   4.409134e+01
  -2.049976e+02  -1.816547e+02
  -6.707122e+01  -2.534388e+02
   9.171245e+01  -1.737614e+02
   1.641420e+02  -3.041814e+01
   5.540038e+01   3.472643e+01
   3.667921e+01   1.351974e+01
   7.925997e+01  -4.668041e+00
   9.869086e+01  -1.614921e+01
   3.228611e+01   8.521947e+01
  -2.601476e+01   1.025037e+02
  -1.023223e+02   5.923301e+01
  -1.022373e+02  -7.017723e+00
   2.062747e+01  -1.153642e+02
   1.794774e+02  -1.485560e+02
   2.076906e+02   4.964366e+01
   1.154183e+02   1.526335e+02
  -7.192757e+01   2.580259e+02
  -2.863133e+02   1.371744e+02
  -2.873741e+02  -8.337456e+01
  -1.453673e+02  -1.606731e+02
   1.040928e+01  -1.809883e+02
   5.029763e+01  -9.696529e+01
   9.918584e+01  -8.349251e+01
   4.472850e+01  -1.217468e+02
   7.189280e+01  -1.025265e+02
   1.504507e+02  -4.324238e+00
   1.157913e+02   1.431515e+02
   6.266225e+01   2.425099e+02
  -9.798952e+01   1.768658e+02
  -1.866304e+02   1.171662e+01
  -1.657542e+02  -1.360738e+02
  -1.963527e+01  -1.861603e+02
   5.646478e+01  -9.235030e+01
   5.831919e+01   4.207452e+00
   1.024338e+01   3.942154e+01
  -3.167332e+01   2.308417e+01
   9.475043e+00   2.135996e+01
   7.823674e+01   1.745915e+01
   6.305267e+01   1.853246e+01
  -6.377934e+01   2.667781e+01
  -1.698456e+02   1.874064e+00
  -1.619585e+02  -5.919162e+01
   4.204874e+00  -1.104983e+02
   1.382163e+02  -7.907978e+01
   1.638302e+02  -2.393366e+01
   7.418259e+01   4.344382e+01
  -6.128385e+01   4.907022e+01
  -6.312963e+01  -1.523401e+01
  -2.026142e+01  -6.350242e+01
   7.001915e+01  -7.386529e+01
   7.392722e+01   2.569816e+00
   4.227676e+01   6.830170e+01
   4.151664e+01   2.607897e+01
   7.250807e+01   1.230892e+01
   9.215479e+01  -9.401819e+00
   5.286639e+01   8.094727e+01
  -5.970292e+01   1.610079e+02
  -1.142024e+02   2.135646e+02
  -1.683855e+02   5.621483e+01
  -1.197067e+02  -6.896417e+01
  -2.358309e+01  -1.325316e+02
   1.086997e+02  -1.078534e+02
   8.577174e+01   3.102908e+01
  -4.501757e+01   2.276927e+01
  -1.703362e+02  -1.960997e+01
  -1.013998e+02  -9.957791e+01
   8.152622e+01  -9.769961e+01
   2.243695e+02  -5.282125e+01
   1.589777e+02   1.775462e+01
   3.793676e+01   7.225423e+01
  -6.075193e+01   9.109006e+01
  -3.861268e+01  -2.793616e+00
   1.892797e+01  -1.896077e+01
   1.404247e+02   1.603828e+01
   2.373318e+01   1.106910e+02
  -4.227390e+01   1.655091e+02
  -1.478980e+02   5.852429e+01
  -1.507224e+02  -8.486514e+01
  -1.259899e+01  -1.798665e+02
   8.837493e+01  -1.195425e+02
   8.964947e+01  -2.574232e+01
   6.361136e+01   7.592188e+01
   9.992392e+00   1.067813e+02
  -4.350169e+01   4.431722e+00
  -5.450006e+01  -3.139636e+01
  -1.895495e+01  -1.636163e+01
   1.194647e+01   1.056175e+01
  -9.955411e+00  -3.150175e+01
  -7.735158e+01  -8.077553e+01
  -6.984130e+01  -1.219063e+02
   8.931684e+01  -7.005813e+01
   1.343627e+02   1.073576e+01
   1.339533e+02   6.493283e+01
   1.568960e+01   3.971075e+01
  -7.878645e+01   3.430230e+00
  -1.191630e+02   6.846133e+00
  -3.486085e+00  -1.279780e+01
   4.900771e+01  -3.762912e+01
   2.968161e+01  -2.785276e+01
  -2.928507e+01   2.163212e+01
   2.173291e+01   1.667525e+01
   3.461613e+01   2.351027e+00
   1.392933e+02   4.053150e+01
   2.836233e+01   7.783521e+01
  -1.267965e+02   1.326613e+02
  -1.964274e+02   7.699185e+01
  -1.327720e+02  -7.435867e+01
  -1.654360e+01  -1.751080e+02
   9.667940e+01  -1.529358e+02
   1.170570e+02  -8.711929e+01
   1.071129e+02   2.070946e+01
  -5.511201e+00   1.380144e+01
   2.750676e+00   5.736763e+00
  -2.161821e+01  -8.579524e+00
   3.765321e+01   7.081356e+00
   4.202234e+01   9.125029e+01
  -4.475328e+00   9.919793e+01
  -7.364920e+01   8.279623e+00
  -1.138012e+02  -1.446314e+02
  -1.545979e+01  -1.697269e+02
   8.744074e+01  -2.882126e+01
   1.092568e+02   3.312565e+01
   8.359132e+01   9.130141e+01
  -5.613080e+01   7.732214e+01
  -1.205211e+02   2.427354e+01
  -5.884440e+01  -5.653026e+01
   4.202119e+01  -5.228348e+01
   5.519085e+01  -3.926219e+01
  -4.898542e+01   3.858263e+00
  -8.342772e+01   1.851285e+01
  -8.543794e+00  -1.759876e+01
   7.043698e+01  -8.351234e+01
   9.473252e+01  -7.560614e+01
   4.302885e+01   1.233633e+01
   4.555448e+00   1.208654e+02
  -5.532404e+01   6.046888e+01
  -5.400464e+01  -5.413523e+00
  -3.963465e+01  -4.989608e+01
   5.021682e+01  -6.554227e+01
   1.667333e+01   3.338457e+00
   3.552680e+01   7.789771e+01
   1.123842e+01   3.874506e+01
  -3.562158e+01  -4.052639e+00
  -5.773329e+01  -2.832113e+01
  -2.091613e+01   1.887353e+00
   2.246084e+00   7.251931e+00
   3.801005e+01   3.813515e+00
   2.953237e+00  -5.000835e+01
   9.539963e+00  -5.472293e+01
   1.497415e+01  -1.766651e+01
   3.866582e+01   2.002748e+01
   8.998940e+00   7.302335e+01
  -4.344178e+01   4.332107e+01
  -8.077850e+01  -5.458435e+01
  -3.326292e+01  -5.412902e+01
   5.812441e+01  -4.201687e+01
   9.322315e+01   4.065764e+00
   3.884351e+01   6.021087e+01
  -4.023428e+01   4.235736e+01
  -5.190910e+01   4.099822e+01
  -4.072757e+01  -2.763588e+00
   3.947755e+01   7.090390e+00
   2.091802e+01   1.526776e+01
  -3.361492e+01   4.060752e+01
  -8.873312e+01   1.987516e+01
