
 $NMID
 id='ANONYMOUS ', fmtdat='(2E16.6)'
 volume=1.0
 tramp=1.0
 $END
  -3.601901e+03   4.971756e+01
  -2.022020e+03  -2.388943e+03
   2.865513e+02  -2.139907e+03
   1.578826e+03  -8.708225e+02
   5.974971e+02   4.476015e+02
  -6.080622e+02   3.357410e+02
  -7.354789e+02  -3.671036e+02
  -8.773370e+01  -8.616130e+02
   6.896431e+02  -6.413292e+02
   7.484611e+02   1.684167e+01
   3.989823e+02   6.226679e+02
  -1.113137e+02   6.346446e+02
  -4.928062e+02   1.478966e+02
  -2.307725e+02  -5.229876e+02
   1.400355e+02  -6.664016e+02
   4.911057e+02  -4.565482e+01
   2.221717e+02   5.215589e+02
  -1.844492e+02   3.967105e+02
  -4.730029e+02   6.565937e+01
  -3.245679e+02  -2.085012e+02
  -2.366074e+01  -3.439852e+02
   1.637141e+02  -2.341284e+02
   1.583536e+02   7.359309e+00
  -7.643057e+01   9.317579e+01
  -4.053351e+02  -1.073067e+02
  -1.014686e+02  -4.494171e+02
   3.601464e+02  -3.768118e+02
   6.414255e+02   8.178637e+01
   3.941671e+02   4.370593e+02
  -3.261846e+02   3.549082e+02
  -6.210421e+02   7.922590e+00
  -2.850664e+02  -4.208943e+02
   1.862906e+02  -4.918144e+02
   4.338364e+02  -2.026474e+02
   3.015158e+02   2.058702e+02
   5.286696e+01   3.676974e+02
  -9.240431e+01   1.881602e+02
  -1.431161e+02  -1.623068e+02
   1.925932e+02  -3.512854e+02
   3.794890e+02   4.397691e+01
   2.554311e+02   5.993204e+02
  -3.132196e+02   4.878199e+02
  -4.393318e+02  -6.296099e+01
  -1.313315e+02  -4.632012e+02
   1.938017e+02  -2.598543e+02
   4.117040e+02   2.090851e+02
  -2.299741e+01   4.952839e+02
  -4.856752e+02   1.152166e+02
  -4.666132e+02  -3.707926e+02
  -1.339799e+02  -4.991542e+02
   2.927079e+02  -2.632032e+02
   5.292546e+02   3.016018e+01
   3.912130e+02   3.005420e+02
  -1.069972e+02   2.313850e+02
  -3.093979e+02   7.207857e+01
  -1.600286e+02  -1.707536e+02
   9.802876e+01  -4.234049e+01
   4.589689e+01   1.264906e+02
  -1.840708e+02   1.688500e+02
  -3.069052e+02  -7.244808e+01
  -1.319979e+02  -2.410282e+02
   1.503210e+02  -2.030487e+02
   2.496065e+02  -5.055879e+01
   1.487296e+02   6.256913e+01
  -3.007720e+01   2.232777e+02
  -1.331939e+02   3.436431e+02
  -2.728948e+02   1.708723e+02
  -2.566046e+02  -1.209333e+02
  -1.005281e+02  -3.106925e+02
   3.829415e+01  -3.051077e+02
   7.681676e+01  -7.829701e+01
  -4.228499e+01   1.217447e+01
   6.235486e+01  -1.024298e+02
   2.003304e+02  -1.415444e+02
   2.458961e+02   5.886147e+01
   1.405071e+02   2.077371e+02
  -5.119115e+01   2.487958e+02
  -1.797141e+02   3.843721e+00
  -1.750999e+02  -2.050341e+02
   1.774863e+01  -2.085520e+02
   2.135193e+02  -1.447399e+02
   3.087530e+02   1.266446e+02
   2.449813e+02   2.414642e+02
  -5.428835e+01   2.313981e+02
  -1.636742e+02   1.242531e+02
  -1.118726e+02  -1.561160e+01
  -7.613448e+01   3.252967e+01
  -1.394407e+02   4.303283e+01
  -2.791868e+02  -3.180107e+01
  -2.889478e+02  -2.322603e+02
   1.551369e+01  -3.508083e+02
   2.649561e+02  -4.508456e+02
   3.992916e+02  -2.540219e+02
   2.925906e+02   7.273593e+01
   7.602649e+01   2.749878e+02
  -1.061563e+02   2.261034e+02
  -7.443216e+01   2.280601e+01
   7.207738e+01  -6.661675e+01
   1.524179e+02   4.278426e+01
   4.664158e+01   1.527675e+02
  -1.207381e+02   1.421098e+02
  -1.482422e+02  -2.690492e+01
   2.416570e+01  -1.956537e+02
   1.758873e+02  -2.365293e+01
   1.257675e+02   1.656000e+02
   3.003014e+01   3.383978e+02
  -1.808229e+02   1.868278e+02
  -2.571904e+02  -3.471420e+01
  -2.301065e+02  -1.353574e+02
  -8.188446e+01  -2.017440e+02
   6.781400e+01  -1.198939e+02
   9.795557e+01  -3.979213e+01
   4.084543e+01   1.745292e+01
  -4.804233e+01   5.810896e-01
  -2.908887e+01  -8.518546e+01
   1.254287e+02  -9.185995e+01
   1.511716e+02   2.258152e+01
   5.516276e+01   4.803283e+01
  -4.317315e+01  -1.846366e+00
  -4.990264e+01  -5.967797e+01
   1.039726e+02  -1.003641e+02
   2.366638e+02  -4.185713e+01
   2.247270e+02   1.071376e+02
   2.154885e+01   2.034725e+02
  -1.249471e+02   2.087608e+02
  -1.949250e+02   1.396216e+02
  -1.235292e+02   8.136113e+00
   1.335391e+01  -9.905880e+01
   7.965188e+01   6.640252e+00
  -6.530357e+00   8.387908e+01
  -1.643861e+02   1.010497e+02
  -2.191348e+02  -6.381709e+01
  -6.247276e+01  -1.581908e+02
   5.073757e+01  -1.119721e+02
   1.550618e+02  -3.564875e+01
   4.965019e+01   4.125646e+01
  -3.912330e+01   2.149487e+01
  -4.005435e+01  -8.868509e+01
   5.589692e+01  -1.078699e+02
   1.957893e+02  -2.993673e+01
   1.756494e+02   1.007116e+02
   2.757826e+01   1.832748e+02
  -1.251716e+02   1.250664e+02
  -1.796026e+02  -1.145025e+01
  -2.808128e+01  -1.023044e+02
   4.623658e+01  -9.351753e+01
   7.291248e+01  -1.613240e+01
   2.927949e+01   1.082016e+01
  -3.518826e+01   3.044776e+01
   3.949001e+00  -1.602759e+01
   4.774934e+01   1.493041e+00
   6.036337e+01   3.889623e+01
   6.522403e+01   1.291008e+02
  -1.185786e+02   1.229249e+02
  -1.726078e+02   1.892644e+01
  -1.641844e+02  -1.463076e+02
  -2.041539e+01  -1.938687e+02
   1.181921e+02  -1.320019e+02
   9.942515e+01  -5.170919e+01
   4.783532e+01   4.611323e+01
   1.604638e+01   2.829740e+01
   4.626247e+01  -1.465505e+01
   5.779309e+01   1.840646e+01
   4.621796e+01   2.871889e+01
  -4.167719e+01   8.320641e+01
  -8.609276e+01   8.045263e+01
  -6.438032e+01  -1.781534e+01
   1.451246e+00  -1.076994e+02
   1.150510e+02  -9.477147e+01
   1.454352e+02   3.989120e+01
   9.186366e+01   1.387449e+02
  -8.521434e+01   2.251848e+02
  -2.309287e+02   1.183676e+02
  -2.201555e+02  -3.451431e+01
  -9.847113e+01  -1.656315e+02
   4.770109e+01  -9.375736e+01
   5.222981e+01  -8.743327e+01
   6.350768e+01  -4.688640e+01
   3.231125e+01  -1.094789e+02
   5.433076e+01  -4.838694e+01
   1.190901e+02   3.476788e+01
   7.268646e+01   8.174064e+01
   6.291378e+01   1.868131e+02
  -8.004115e+01   1.352027e+02
  -1.282781e+02   4.446336e+01
  -1.694175e+02  -1.149473e+02
  -6.658283e+00  -1.309898e+02
   4.365993e+01  -9.944023e+01
   5.001454e+01  -1.628564e+01
   2.085322e+01   3.718114e+01
   1.600387e+00   2.957999e+01
   1.661539e+01   2.390939e+01
   8.376418e+01   2.480357e+01
   1.985189e+01   3.924741e+01
  -3.800089e+01   3.838348e+01
  -1.310783e+02   3.834784e+01
  -1.527456e+02  -1.819919e+01
  -3.819606e+01  -4.587942e+01
   7.740861e+01  -5.532509e+01
   9.563798e+01  -1.718181e+01
   4.553565e+01   2.946690e+01
  -5.500807e+01   2.778407e+01
  -4.629137e+01  -4.260270e+00
   6.231670e+00  -5.712274e+01
   5.060003e+01  -5.026150e+01
   3.767786e+01  -1.536868e+01
   5.716388e+01   3.619023e+01
   4.524942e+01   2.002675e+01
   2.281140e+01   2.408279e+00
   1.870164e+01   1.001514e+01
   5.484223e+01   3.394810e+01
  -5.134412e+01   1.113964e+02
  -7.844515e+01   1.129741e+02
  -1.219788e+02   3.318542e+01
  -1.183437e+02  -7.368084e+01
  -3.408048e+01  -1.419320e+02
   7.118619e+01  -3.842045e+01
   1.154800e+01   3.012733e+01
  -5.054299e+01   2.466271e+01
  -1.349906e+02  -8.821731e-01
  -6.027524e+01  -9.435537e+01
   3.302012e+01  -1.032020e+02
   1.380851e+02  -2.957834e+01
   1.166979e+02   2.022082e+01
   2.705884e+01   6.985729e+01
  -5.610495e+01   8.821881e+01
  -6.014298e-01   3.312563e+00
   3.152449e+01  -3.193806e+01
   7.033313e+01   2.740875e+01
   1.756748e+01   9.795287e+01
  -3.389674e+01   1.463903e+02
  -1.510016e+02   6.080749e+01
  -1.015983e+02  -7.424638e+01
   1.159912e-01  -1.503602e+02
   7.584279e+01  -1.125591e+02
   8.262118e+01  -3.731867e+01
   5.929668e+01   9.018869e+01
  -1.043591e+00   5.023285e+01
  -2.165412e+01   3.719872e+01
  -4.068347e+01  -2.633011e+01
  -3.652208e+01  -1.758367e+00
  -2.366006e+01   1.763391e+01
  -3.858367e+01  -1.660239e+01
  -3.373772e+01  -9.031867e+01
  -3.135557e+01  -7.676972e+01
   3.431754e+01  -3.665974e+01
   1.293055e+02  -7.650198e+00
   8.813248e+01   2.717404e+01
   2.640696e+01   5.503570e+01
  -5.077774e+01  -1.437078e+01
  -4.574370e+01  -2.026961e+01
   4.985101e+00  -2.327838e+01
   8.428009e+00   6.030191e+00
  -1.375872e+01   2.252059e+01
  -1.849347e+01   7.234875e+00
  -1.132246e+00  -2.115306e+00
   3.788229e+01  -2.325571e+00
   6.106933e+01   4.296187e+00
   2.305813e+00   5.200232e+01
  -9.603096e+01   6.399215e+01
  -1.164314e+02   6.551192e+01
  -8.162150e+01  -3.678315e+01
  -3.086479e+01  -1.415780e+02
   5.190715e+01  -1.596601e+02
   9.343672e+01  -5.274029e+01
   6.799249e+01   5.412095e+01
   2.076663e+01   1.608471e+01
   4.050404e+00  -8.279385e+00
   3.647727e+01   8.422407e+00
   3.339144e+01   1.926388e+01
   2.665241e+01   3.534956e+01
  -2.453189e+01   5.691187e+01
  -6.018022e+01  -7.166379e+00
  -8.922258e+01  -5.670396e+01
   1.511197e+01  -5.681339e+01
   6.530344e+01  -2.876606e+01
   7.018424e+01   2.796988e+01
   2.645723e+01   7.687161e+01
  -4.444247e+01   7.397080e+01
  -7.726397e+01  -3.308653e+01
  -2.530083e+01  -2.902493e+01
   2.683269e+01  -3.054360e+01
   6.125122e+00  -7.384933e+00
  -1.539625e+00   7.279328e+00
  -6.401551e+01  -5.054563e+00
  -1.331675e+00  -3.597974e+01
   8.527475e+01  -8.629435e+01
   9.304523e+01  -6.510242e+01
   5.552215e+01   1.716447e+01
  -9.874247e+00   6.619914e+01
  -6.771555e+01   8.391415e+01
  -2.876907e+01  -1.091528e+01
  -4.072176e+00  -7.320317e+01
   2.464185e+01  -4.324777e+01
   5.404296e+00   2.142030e+01
  -6.214491e+00   3.672373e+01
   4.682178e+01   3.198566e+01
  -2.437539e+01  -4.395897e+00
  -7.400208e+00  -1.131919e+01
  -3.965488e+01  -4.385698e-01
  -1.506459e+01   1.720722e+01
  -1.060686e+01   8.800337e+00
   1.154203e+01   5.409681e+00
   1.772638e+01  -6.168058e+01
   9.370684e+00   4.277016e+01
   7.324588e+01   5.438046e+01
   2.766109e+01   6.275895e+01
  -3.263131e+01   1.809893e+01
  -3.451215e+01  -6.161050e+01
  -8.173404e+00  -2.860505e+01
   2.461020e+01  -2.773974e+01
   8.484847e+01  -2.745663e+00
   4.199699e+01   3.859475e+01
  -1.037995e+01   3.429480e+01
  -4.113604e+01   3.550372e+01
  -4.744237e+01   3.108387e+00
   2.566135e+01   7.851029e+00
   4.047982e+01   5.119065e+01
   6.713192e+00   2.297676e+01
  -4.799403e+01  -6.437201e+00
