
 $NMID
 id='ANONYMOUS ', fmtdat='(2E16.6)'
 volume=1.0
 tramp=1.0
 $END
  -4.416112e+03   3.624596e+02
  -2.780138e+03  -2.495042e+03
   5.554490e+02  -2.857157e+03
   2.142121e+03  -1.244735e+03
   1.037735e+03   4.161874e+02
  -7.451299e+02   6.724688e+02
  -9.131049e+02  -4.228593e+02
  -1.600907e+02  -1.219877e+03
   8.784647e+02  -8.317189e+02
   9.957717e+02   2.532196e+01
   5.641278e+02   7.686530e+02
  -2.680288e+02   9.416056e+02
  -5.761992e+02   1.533109e+02
  -4.151305e+02  -7.091801e+02
   2.403161e+02  -8.286465e+02
   6.317074e+02  -8.553120e+01
   2.941720e+02   7.418975e+02
  -2.734757e+02   6.063964e+02
  -5.473664e+02   1.061191e+02
  -4.331882e+02  -3.173675e+02
  -6.371439e+01  -4.589207e+02
   2.244599e+02  -3.114197e+02
   2.223021e+02  -1.249517e+01
  -1.268638e+02   1.100059e+02
  -4.581689e+02  -2.440441e+01
  -1.635598e+02  -4.518319e+02
   4.695975e+02  -4.554959e+02
   8.724615e+02   1.547205e+01
   4.801011e+02   5.181740e+02
  -4.118317e+02   4.733042e+02
  -7.613364e+02   6.151384e+01
  -4.184780e+02  -4.655575e+02
   2.989162e+02  -6.092223e+02
   5.966099e+02  -2.497553e+02
   3.894409e+02   1.800385e+02
   1.080384e+02   4.456179e+02
  -2.180629e+02   2.993454e+02
  -2.267068e+02  -2.170491e+02
   4.966819e+01  -4.539010e+02
   4.571610e+02   2.820097e+01
   3.884393e+02   6.500105e+02
  -2.750828e+02   6.937978e+02
  -5.425639e+02   6.940680e+01
  -1.919779e+02  -5.776195e+02
   2.847053e+02  -4.035300e+02
   4.529571e+02   3.318218e+02
   1.295956e+01   6.454199e+02
  -5.677048e+02   2.160971e+02
  -5.251627e+02  -3.424947e+02
  -2.244902e+02  -6.044729e+02
   3.788947e+02  -3.321246e+02
   6.991004e+02   6.676062e+01
   4.160409e+02   3.540300e+02
  -1.189275e+02   3.699352e+02
  -5.112280e+02   1.283978e+02
  -2.655222e+02  -2.044044e+02
   1.271193e+02  -1.298806e+02
   1.463139e+02   1.509325e+02
  -1.410071e+02   2.109498e+02
  -3.622114e+02  -3.298418e+01
  -1.678256e+02  -3.370438e+02
   1.806235e+02  -2.536047e+02
   3.286843e+02  -1.061466e+02
   2.454965e+02   9.264660e+01
   1.197985e+01   1.225459e+02
  -1.458549e+02   4.050287e+02
  -3.428925e+02   2.359832e+02
  -3.530279e+02  -5.870021e+01
  -1.368471e+02  -4.560821e+02
   1.038616e+02  -4.350978e+02
   1.199444e+02  -8.532728e+01
   1.836848e+01  -2.966569e+01
   5.695818e+01  -9.005705e+01
   2.203808e+02  -1.534048e+02
   3.018005e+02  -3.563256e+00
   2.049767e+02   2.943039e+02
  -3.000171e+01   3.139573e+02
  -2.215252e+02   4.290684e+01
  -2.066760e+02  -2.670276e+02
   3.522644e+01  -3.025472e+02
   2.553632e+02  -2.080091e+02
   3.700866e+02   1.154958e+02
   2.087125e+02   4.004732e+02
  -4.846910e+01   2.824887e+02
  -2.071410e+02   1.295947e+02
  -1.749670e+02   2.143397e+01
  -1.066617e+02   7.450461e+01
  -2.855522e+02   1.085509e+02
  -4.075239e+02  -5.913522e+01
  -3.937187e+02  -2.641503e+02
  -2.985646e+01  -4.575305e+02
   3.354159e+02  -5.218102e+02
   4.936531e+02  -2.657857e+02
   3.639181e+02   4.537215e+01
   6.416850e+01   3.029876e+02
  -6.817649e+01   3.131571e+02
  -7.276912e+01   6.417654e+01
   1.159276e+02  -1.368007e+02
   2.295118e+02  -2.944659e+01
   7.289617e+01   2.162823e+02
  -1.485826e+02   1.871712e+02
  -1.859377e+02  -6.438864e+01
   3.081881e+01  -1.838188e+02
   2.072361e+02  -5.923939e+01
   2.228023e+02   2.464585e+02
   5.270864e+01   3.387379e+02
  -2.185319e+02   1.860251e+02
  -2.913766e+02  -1.759901e+01
  -3.298383e+02  -1.584279e+02
  -1.390687e+02  -2.800386e+02
   1.248769e+02  -1.940211e+02
   2.250600e+02  -2.505611e+01
   6.089342e+01   4.672710e+01
  -8.050307e+01   1.160027e+00
  -6.541169e+01  -1.228270e+02
   1.225004e+02  -8.631513e+01
   2.206944e+02  -6.960336e+01
   6.171437e+01   5.558602e+01
  -6.425110e+01  -2.665704e-02
  -7.851588e+01  -7.299888e+01
   8.538062e+01  -8.424753e+01
   2.730406e+02  -3.469263e+01
   2.830898e+02   9.763193e+01
   5.764799e+01   2.558171e+02
  -1.418707e+02   3.290192e+02
  -2.944321e+02   1.716250e+02
  -1.716681e+02  -6.352224e+01
  -3.514236e+01  -1.262856e+02
   9.191370e+01  -1.648370e+01
  -1.064120e+01   1.318965e+02
  -1.715167e+02   7.245732e+01
  -2.049799e+02  -5.624195e+01
  -7.955958e+01  -1.901177e+02
   8.355689e+01  -1.709383e+02
   1.607661e+02  -3.940444e+01
   6.288854e+01   1.567372e+01
  -2.447505e+01  -5.057079e+00
  -4.429007e+01  -5.827998e+01
   6.360624e+01  -1.265988e+02
   2.390705e+02  -3.531663e+01
   2.570765e+02   1.123682e+02
   2.917908e+01   2.447092e+02
  -1.331760e+02   1.738450e+02
  -2.131724e+02   5.022539e+00
  -4.236969e+01  -1.462526e+02
   5.749505e+01  -9.813150e+01
   7.478398e+01  -5.091891e+01
   4.879656e+01   5.720485e+01
  -3.211217e+01   1.642196e+01
   2.667214e+01   6.336641e+00
   7.663622e+01   7.947866e+00
   9.538369e+01   9.617207e+01
   7.003186e+01   1.598632e+02
  -1.407883e+02   1.591243e+02
  -2.078229e+02   6.525043e+01
  -1.912441e+02  -1.362958e+02
  -5.104358e+01  -2.712197e+02
   1.042176e+02  -1.864282e+02
   1.151819e+02  -3.683626e+01
   7.509498e+01   3.501252e+01
   2.059632e+01   3.840872e+01
   8.635834e+01  -3.516344e+01
   1.092334e+02  -2.360526e+01
   3.035044e+01   5.006237e+01
  -4.110977e+01   7.615479e+01
  -8.177542e+01   9.084228e+01
  -1.010876e+02  -1.083840e+01
   6.387835e+00  -1.065028e+02
   1.368904e+02  -8.585207e+01
   1.665577e+02   7.069372e+00
   1.386388e+02   1.568131e+02
  -8.721698e+01   2.424197e+02
  -2.902140e+02   1.023159e+02
  -2.863317e+02  -7.230015e+01
  -1.568928e+02  -1.859472e+02
   3.152618e+01  -1.540206e+02
   6.830556e+01  -1.324927e+02
   6.047823e+01  -5.941426e+01
   3.167795e+01  -1.044889e+02
   9.806105e+01  -6.680563e+01
   1.369545e+02   7.247249e-01
   1.466669e+02   1.203934e+02
   4.005906e+01   2.404568e+02
  -9.148239e+01   1.830846e+02
  -2.119397e+02   4.506401e+01
  -1.734121e+02  -8.913885e+01
  -4.372646e+01  -1.470287e+02
   8.550371e+01  -8.217884e+01
   7.747374e+01   2.318707e+01
   2.356085e+01   5.590507e+01
   6.098581e+00   3.456770e+01
   4.570739e+01   4.461692e+01
   1.039870e+02  -1.281958e+01
   3.309557e+01   1.951518e+01
  -5.954209e+01   3.499339e+01
  -1.683866e+02   1.459155e+01
  -1.589927e+02  -2.856808e+01
  -1.205825e+01  -9.337274e+01
   8.925621e+01  -9.856091e+01
   1.216920e+02  -3.395092e+01
   5.146347e+01   5.802665e+01
  -1.806467e+01   6.414353e+01
  -1.049366e+02   3.778480e+00
  -1.158253e+01  -6.091140e+01
   2.497524e+01  -4.807931e+01
   4.311249e+01  -8.048162e+00
   5.009777e+01   3.687932e+01
   1.414054e+01   5.072272e+01
   4.811758e+01   6.741712e-01
   6.218631e+01   5.771461e+00
   4.233695e+01   4.504699e+01
  -3.269894e+01   1.364934e+02
  -8.234467e+01   1.324137e+02
  -1.772505e+02   5.170238e+01
  -1.375381e+02  -6.404967e+01
  -9.760625e+00  -1.417746e+02
   6.826268e+01  -9.713169e+01
   5.791421e+01   9.379953e+00
  -4.918736e+01   8.514821e+00
  -1.559373e+02   8.507877e+00
  -7.744454e+01  -9.087143e+01
   6.619168e+01  -1.073396e+02
   2.088514e+02  -7.162776e+01
   1.555851e+02   2.871020e+01
   5.856880e+01   5.551165e+01
  -7.260191e+01   7.608420e+01
  -3.161586e+01   1.677297e+01
   1.699772e+01  -3.586830e+01
   1.240227e+02   1.836254e+01
   5.744441e+01   1.305856e+02
  -3.496491e+01   1.421046e+02
  -1.718012e+02   5.780878e+01
  -1.530595e+02  -1.061500e+02
  -3.331126e+01  -1.649904e+02
   6.126906e+01  -1.256518e+02
   1.010462e+02  -1.782957e+01
   7.070855e+01   1.172279e+02
   1.565308e+01   8.185823e+01
  -1.109228e+01  -2.373289e+01
  -4.285106e+01  -1.106906e+01
  -6.113509e+01  -6.638539e+00
  -1.847982e+01   1.343329e+01
  -2.067177e+01  -2.560811e+01
  -6.197304e+01  -7.565882e+01
  -2.559348e+01  -1.176239e+02
   3.494130e+01  -8.098105e+01
   1.160811e+02  -4.121172e-01
   1.198562e+02   4.813922e+01
   7.937906e-01   2.108931e+01
  -6.626106e+01   3.016112e+01
  -5.695694e+01   3.428489e+01
  -3.039873e+00  -1.303529e+01
   2.971353e+01  -2.360910e+01
  -2.272156e+01  -3.400649e+01
  -4.250104e+01  -1.636292e+01
  -1.605805e+00   3.026052e+01
   8.938575e+01   1.033919e+01
   1.091742e+02  -1.651286e+01
   1.007404e+01   6.782368e+01
  -9.185946e+01   1.002164e+02
  -1.621561e+02   1.028188e+02
  -1.394950e+02  -5.585980e+01
  -2.951972e+01  -1.916242e+02
   7.265557e+01  -1.484485e+02
   1.120262e+02  -6.485698e+01
   6.765049e+01   2.198492e+01
   1.800959e+01   3.528422e+01
  -1.353601e+00   1.518291e+01
   1.147783e+01  -2.082663e+01
   4.734207e+01   3.820907e+01
   2.240227e+01   9.210955e+01
  -2.849505e+01   7.629045e+01
  -6.460571e+01  -1.269182e+01
  -1.171219e+02  -1.200933e+02
  -5.847063e+00  -8.484495e+01
   5.983951e+01  -1.350380e+01
   1.430246e+02   5.275071e+01
   6.473892e+01   1.194890e+02
  -5.169115e+01   4.672384e+01
  -9.994164e+01  -1.146114e+01
  -4.893259e+01  -4.688334e+01
   3.840018e+01  -5.353926e+01
   3.433240e+01  -4.082462e+01
  -3.516305e+01  -1.074840e+01
  -6.382796e+01   6.124869e+00
   1.201342e+01  -2.272412e+01
   7.076308e+01  -8.023319e+01
   1.061404e+02  -5.518670e+01
   7.601001e+01   2.928770e+01
  -1.659178e+01   8.405414e+01
  -1.750733e+01   9.360821e+01
  -4.040373e+01  -1.849074e+01
  -2.365404e+01  -5.773278e+01
   2.571668e+01  -4.413880e+01
   3.740002e+01  -1.649236e+00
   3.164530e+01   5.868849e+01
  -1.574753e+01   4.325690e+01
  -4.227252e+01   1.407956e+01
  -3.925592e+01  -1.653437e+01
  -2.241669e+01   1.450932e+01
  -3.057886e+00  -1.397477e+01
   2.414583e-01   1.279777e+01
  -5.797816e+00  -5.840004e+01
   1.611949e+01  -4.372170e+01
   4.532138e+01   6.713005e+00
   4.370050e+01   4.623077e+01
   1.422191e+00   6.344136e+01
  -5.358454e+01   3.159723e+01
  -6.973585e+01  -5.848528e+01
  -3.597891e+01  -6.597645e+01
   3.911071e+01  -4.997644e+01
   8.347185e+01   4.201408e+01
   4.068456e+01   6.032625e+01
  -5.109101e+01   3.960435e+01
  -4.931489e+01   3.562803e+01
  -3.413953e+01  -8.386283e+00
   5.055785e+01  -1.935752e+01
   4.243623e+01   2.294325e+01
  -2.993981e+01   3.382278e+01
  -9.892681e+01   2.929514e+01
