
 $NMID
 id='ANONYMOUS ', fmtdat='(2E16.6)'
 volume=1.0
 tramp=1.0
 $END
   3.327434e+03  -1.076032e+02
   1.793864e+03   1.616774e+03
  -2.484358e+02   2.007564e+03
  -1.378789e+03   9.370993e+02
  -6.689538e+02  -1.098036e+02
   3.531380e+02  -2.536023e+02
   6.400831e+02   3.692745e+02
  -3.346561e+01   6.408312e+02
  -5.535142e+02   4.745215e+02
  -7.794571e+02   7.217747e+00
  -3.165891e+02  -5.793480e+02
   1.774854e+02  -6.258207e+02
   4.344720e+02  -3.631387e+01
   1.723263e+02   4.521431e+02
  -1.804044e+02   5.699376e+02
  -3.997769e+02   1.872073e+01
  -2.496197e+02  -4.643796e+02
   1.487900e+02  -4.656716e+02
   4.796421e+02  -1.181837e+02
   3.671246e+02   2.596964e+02
   7.964241e+01   2.889397e+02
  -1.733323e+02   1.860202e+02
  -1.585251e+02   5.876199e+01
   1.107776e+02   9.698534e+00
   2.939049e+02   1.618828e+02
   3.345026e+01   3.107234e+02
  -4.449866e+02   1.977133e+02
  -6.255010e+02   2.924501e+01
  -2.661297e+02  -3.075246e+02
   2.712496e+02  -2.550335e+02
   5.643734e+02   6.951104e+01
   2.201980e+02   3.858197e+02
  -2.311062e+02   3.351239e+02
  -4.133507e+02   1.208164e+02
  -2.496076e+02  -1.186423e+02
  -4.913466e+01  -3.192632e+02
   7.483801e+01  -1.978281e+02
   5.854914e+01   1.736541e+02
  -1.298450e+02   2.532170e+02
  -3.449730e+02  -7.012556e+01
  -1.533948e+02  -5.103363e+02
   2.286441e+02  -3.519874e+02
   3.345958e+02  -5.178785e+01
   1.595784e+02   2.801834e+02
  -2.227805e+02   1.782102e+02
  -2.351538e+02  -2.942954e+02
   7.425511e+01  -3.808537e+02
   3.664232e+02  -1.130299e+02
   3.824610e+02   2.757618e+02
   1.232320e+02   4.485548e+02
  -2.534428e+02   2.668292e+02
  -4.633605e+02  -5.327228e+01
  -2.541416e+02  -2.825180e+02
   9.635975e+01  -2.444904e+02
   2.790337e+02  -5.556732e+01
   1.861121e+02   7.777994e+01
  -4.928765e+01   3.006772e+01
  -4.916178e+01  -7.891942e+01
   1.019875e+02  -9.779078e+01
   2.589339e+02   1.877479e+01
   1.190225e+02   1.996478e+02
  -1.628995e+02   2.287779e+02
  -2.924631e+02   3.126346e+01
  -2.069259e+02  -6.604870e+01
   6.084359e+01  -2.046301e+02
   1.950164e+02  -3.309764e+02
   3.091391e+02  -1.677422e+02
   1.965097e+02   1.327237e+02
   7.363793e+01   3.593711e+02
  -5.720265e+01   3.027025e+02
  -9.478988e+01   1.340137e+02
  -4.688524e+01   1.424681e+01
  -6.229203e+01   1.088139e+02
  -1.508094e+02   9.591471e+01
  -2.189494e+02  -1.116983e+02
  -9.804227e+01  -1.987624e+02
   8.935954e+01  -1.835698e+02
   1.340832e+02  -4.854353e+00
   1.582291e+02   2.394094e+02
  -2.338701e+01   1.948295e+02
  -1.962862e+02   1.142002e+02
  -3.104508e+02  -1.734878e+02
  -1.256747e+02  -2.682904e+02
  -8.248573e+00  -2.257190e+02
   1.424920e+02  -1.300719e+02
   1.025375e+02  -3.958048e+01
   1.159229e+02  -3.544278e+01
   1.836399e+02  -6.272605e+01
   3.136489e+02   5.731494e+01
   2.771534e+02   2.166945e+02
  -2.729555e+01   3.356890e+02
  -2.704247e+02   3.731927e+02
  -4.167975e+02   1.350902e+02
  -2.468751e+02  -7.652191e+01
  -2.436918e+01  -1.983474e+02
   1.121584e+02  -1.963599e+02
   2.979939e+01  -5.439287e+01
  -1.114246e+02   3.593604e+01
  -1.030244e+02  -1.404744e+01
  -3.434194e+01  -9.564694e+01
   1.137509e+02  -1.009193e+02
   1.195573e+02   6.650229e+01
  -4.014903e+01   1.352038e+02
  -1.962414e+02   2.082405e+01
  -1.433671e+02  -2.051679e+02
   1.602500e+01  -3.145249e+02
   2.011508e+02  -1.668160e+02
   3.001890e+02   6.187232e+01
   2.326109e+02   2.235049e+02
   8.605312e+01   2.732411e+02
  -1.017719e+02   1.161140e+02
  -1.469516e+02   9.600454e+00
  -3.411931e+01  -1.235121e+01
   4.286476e+01   4.462968e+01
   3.876618e+01   1.266124e+02
  -7.004241e+01   6.989987e+01
  -1.802318e+02  -2.635851e+01
  -2.102195e+01  -6.993562e+01
   7.298224e+01  -4.612406e-02
   4.774994e+01   8.737375e+01
  -1.180853e+02   6.069306e+01
  -2.491664e+02   2.296672e+01
  -2.137077e+02  -8.952120e+01
  -6.883615e+01  -1.884259e+02
   1.613601e+02  -1.826869e+02
   2.496105e+02  -1.200528e+02
   1.295453e+02   5.172287e+01
  -1.869564e+01   7.213826e+01
  -4.951680e+01   1.635494e+01
   7.142000e+01  -6.983573e+01
   1.698853e+02  -1.258186e+01
   1.865844e+02   7.318794e+01
   3.706206e+01   1.538330e+02
  -7.458028e+01   1.071768e+02
  -7.950950e+01   9.572431e+00
  -6.851961e+01  -5.660395e+01
   2.022170e+01   7.550103e+00
   4.551012e+01   9.927053e+01
  -6.303094e+01   9.822890e+01
  -2.025005e+02   6.365586e+00
  -1.770128e+02  -1.122081e+02
  -1.543968e+01  -1.668348e+02
   8.497790e+01  -1.103397e+02
   1.782812e+02  -1.920535e+01
   4.775454e+01   3.988149e+01
  -3.924812e+01   7.412896e+01
  -4.653515e+01   3.131870e+01
  -3.196731e+01  -2.242924e+01
   8.893806e+00   2.522868e+00
   7.877433e+00   1.127162e+01
  -7.499464e+01  -4.407828e+00
  -8.300343e+01  -8.816515e+01
  -2.288320e+01  -1.400742e+02
   1.054400e+02  -1.140119e+02
   1.499763e+02   7.942482e+00
   1.503498e+02   1.402663e+02
   4.899877e+01   2.145851e+02
  -6.201166e+01   1.173816e+02
  -7.038254e+01   4.980798e+01
  -5.449150e+01  -3.241948e+01
   1.531619e+01  -2.679825e+01
  -4.133902e+01   2.317101e+01
  -3.015506e+01   1.944132e+01
  -2.783433e+01  -3.959736e+01
   7.834063e+00  -6.478308e+01
   7.084766e+01  -6.572416e+01
   4.259483e+01   4.600004e+01
  -1.365564e+01   8.264668e+01
  -9.664091e+01   8.786967e+01
  -1.737550e+02  -2.228686e+01
  -7.368701e+01  -1.902410e+02
   1.043263e+02  -2.315088e+02
   2.442817e+02  -6.338475e+01
   2.192009e+02   5.100264e+01
   8.903719e+01   1.384359e+02
  -2.362979e+01   1.035363e+02
  -6.434605e+01   1.034001e+02
  -4.246207e+01   5.726636e+01
  -6.494253e+01   1.163268e+02
  -9.033085e+01   3.044765e+01
  -1.020553e+02  -1.821109e+01
  -1.037170e+02  -7.516295e+01
  -3.342790e+01  -2.090644e+02
   6.826188e+01  -8.655956e+01
   1.415299e+02   7.273645e-01
   1.302791e+02   1.262255e+02
   3.437105e+01   1.300007e+02
  -4.796161e+01   6.109334e+01
  -5.809267e+01   1.144027e+01
   2.149108e+00  -4.353165e+01
   2.036858e+01   2.096727e+00
  -1.251547e+01  -9.666861e+00
  -5.496092e+01  -1.225956e+01
  -3.397488e+01  -1.510924e+01
   4.638408e+01  -1.924214e+01
   1.415031e+02  -1.537949e+01
   1.062695e+02   5.561061e+01
   2.732062e-02   9.953341e+01
  -1.264885e+02   5.843241e+01
  -1.034976e+02   3.740423e+01
  -7.147382e+01  -4.693325e+01
   5.611264e+01  -3.982278e+01
   6.050891e+01   1.776498e+01
  -2.927974e+00   7.577773e+01
  -5.888881e+01   1.645583e+01
  -5.099314e+01  -1.673816e+01
  -3.212850e+01  -5.451416e+01
  -5.933283e+01  -5.127568e+01
  -2.180199e+01  -8.043603e-01
  -6.007832e+01   1.752942e+01
  -3.887804e+01  -4.769285e+01
   2.898250e+01  -8.934226e+01
   9.133204e+01  -1.183463e+02
   1.225388e+02  -6.046375e+01
   1.197628e+02   6.391523e+01
   1.312071e+01   1.185526e+02
  -1.061765e+02   4.496865e+01
  -4.157647e+01  -1.483587e+00
   7.547930e+01  -3.259186e+01
   1.263204e+02   3.942496e+01
   5.682025e+01   8.770012e+01
  -4.672861e+01   7.113232e+01
  -1.452745e+02   2.195921e+01
  -1.296478e+02  -2.642389e+01
  -1.498587e+01  -6.317905e+01
   8.213574e+01  -8.209523e+01
   3.355796e+01  -4.392964e+00
   6.792029e+00   2.598094e+01
  -7.062682e+01   1.685812e+00
  -2.511717e+01  -5.282374e+01
   3.804122e+01  -1.333835e+02
   1.539635e+02  -5.137239e+01
   9.824107e+01   4.941598e+01
   3.715790e+00   1.160680e+02
  -8.801543e+01   1.138365e+02
  -1.026690e+02  -1.143996e+01
  -3.794110e+01  -8.990482e+01
  -1.699843e+01  -6.974533e+01
   4.287105e+01  -3.265087e+01
   1.391477e+01   2.878721e+01
  -1.528275e+01   4.326923e+01
  -4.714367e+00   2.002329e+00
   1.365064e+01   2.409782e+00
   4.121478e+01   8.137383e+01
   3.138617e+01   8.907102e+01
  -4.157826e+01   8.455071e+00
  -8.817155e+01  -7.566781e+00
  -7.799194e+01  -2.827137e+01
  -4.447054e+01  -9.804677e+00
   5.300713e+01   7.909368e+00
   5.372350e+01  -1.135668e+01
   1.715187e+01   3.213622e+01
  -1.826592e+01   1.220654e+01
  -3.964692e+01   1.255731e+01
   2.535806e+01  -2.210842e+01
   6.070011e-02   1.139230e+01
  -7.349547e+01  -6.694954e+00
  -8.890327e+01  -2.637618e+01
  -2.073255e+01  -7.293346e+01
   9.195142e+01  -9.219057e+01
   2.099498e+02  -3.414409e+01
   1.250742e+02   3.646291e+01
   4.373639e+01   1.537499e+02
  -2.150744e+01   1.418186e+02
  -1.189309e+02   3.724550e+01
  -4.814405e+01  -2.426280e+01
  -1.359872e+01  -5.566240e+01
   8.458426e+00   2.342465e+00
   2.943970e+01   1.102146e+01
  -2.237000e+01  -3.638709e+01
  -2.113277e+01  -6.534437e+01
   2.641681e+01  -6.011451e+01
   4.830611e+01   1.204786e+01
   9.791903e+01   7.171775e+01
   2.779628e+01   4.718160e+01
  -3.665566e+01   4.328533e+01
  -1.297433e+02  -5.704498e+01
  -5.438776e+01  -1.190083e+02
   6.215233e+01  -3.708366e+01
   6.176619e+01  -5.751832e+00
   7.117711e+01   3.503775e+01
  -2.711671e+01   4.269285e+01
  -1.655221e+01   2.815854e+01
   2.005515e+01   1.874868e+01
   4.463495e+01  -9.497760e+00
   2.830905e+01   2.812521e+01
  -5.825238e+01   5.826294e+01
  -1.275111e+02   6.238483e+01
  -6.978170e+01  -1.783697e+01
   2.153174e+00  -9.171432e+01
   5.477403e+01  -4.598130e+01
   5.842408e+01  -7.670428e+00
   7.520843e+00   4.693222e+01
  -1.554657e+01   7.758056e+01
  -3.404632e+01  -1.572583e+01
  -4.215834e+01  -6.493938e+01
  -4.164405e+00  -1.795238e+01
   2.938117e+01  -2.049622e+01
   2.427657e+01   1.846802e+01
   2.049595e+01  -2.445532e+01
   1.934023e+01  -3.587349e+01
   1.132934e+01   5.289816e+00
   1.778302e+01   7.532810e+00
  -1.908122e+01   5.575545e+01
  -7.700372e+00   6.731786e+00
  -2.721671e+01  -5.087659e+01
   1.809210e+01  -4.855600e+01
   2.243234e+01  -7.104402e+00
   5.037295e+01   2.276820e+01
   2.121228e+00   7.479553e+01
  -3.509426e+01   3.381909e+01
  -7.513400e+01  -1.397891e+01
  -2.925141e+01  -8.135134e+00
   4.469412e+01  -7.960070e+01
   6.697629e+01  -5.456892e+00
  -3.850386e+00  -7.781782e-01
  -3.278643e+01   1.289425e+01
  -3.392519e+01   3.687549e+00
   1.833839e+01  -2.156848e+01
   4.748070e+01  -9.969459e+00
