
 $NMID
 id='ANONYMOUS ', fmtdat='(2E16.6)'
 volume=1.0
 tramp=1.0
 $END
  -3.133249e+03  -9.125488e+01
  -1.971379e+03  -1.730330e+03
   2.930127e+02  -2.098405e+03
   1.551747e+03  -1.021096e+03
   8.780306e+02   2.359585e+02
  -1.565894e+02   4.747787e+02
  -4.396370e+02  -6.734198e+01
   3.651282e+01  -7.394477e+02
   5.017883e+02  -6.769537e+02
   6.467164e+02  -8.117333e+01
   4.113189e+02   6.196978e+02
  -1.330041e+01   5.316882e+02
  -4.011880e+02   1.120536e+02
  -2.603413e+02  -4.016158e+02
   1.449843e+02  -5.913982e+02
   5.034887e+02  -6.132924e+01
   3.106667e+02   5.567814e+02
  -2.026440e+02   4.987053e+02
  -4.700086e+02   2.299334e+02
  -3.325201e+02  -2.017322e+02
  -7.535678e+01  -3.997333e+02
   1.899510e+02  -2.737989e+02
   1.100993e+02  -1.073398e+02
  -1.727871e+02   1.074933e+01
  -3.567813e+02  -2.027629e+02
  -2.339131e+01  -3.377825e+02
   4.000950e+02  -2.473017e+02
   6.389451e+02   1.571331e+02
   2.840852e+02   3.957808e+02
  -2.879389e+02   2.972748e+02
  -5.243619e+02  -1.283304e+02
  -2.669687e+02  -3.618612e+02
   2.194381e+02  -4.212014e+02
   4.717500e+02  -1.470293e+02
   2.738168e+02   1.195196e+02
   8.550182e+01   4.075650e+02
  -1.094043e+02   2.151480e+02
  -3.724650e+01  -1.045283e+02
   2.423938e+02  -2.196550e+02
   2.911960e+02   7.705714e+01
   1.233326e+02   6.171395e+02
  -2.854421e+02   5.584223e+02
  -2.673286e+02  -4.592693e+01
  -1.165439e+02  -3.015528e+02
   2.423311e+02  -1.750630e+02
   2.479892e+02   3.341196e+02
  -8.751256e+01   4.507714e+02
  -4.700223e+02   1.014485e+02
  -4.222488e+02  -3.142921e+02
  -1.664205e+02  -5.015643e+02
   2.327955e+02  -1.949718e+02
   5.511965e+02   8.440883e+01
   3.343005e+02   3.298015e+02
  -5.772699e+01   2.613084e+02
  -3.734072e+02   8.184201e+01
  -2.504030e+02  -5.180268e+01
   3.562063e+01  -6.671455e+01
   8.335772e+01   6.912423e+01
  -1.079268e+02   1.171230e+02
  -2.879086e+02  -3.719708e+01
  -1.319213e+02  -2.429886e+02
   1.603067e+02  -2.361165e+02
   3.656627e+02  -1.153081e+02
   2.192362e+02   7.973864e+01
  -7.180310e-01   3.144509e+02
  -2.944797e+02   3.619692e+02
  -3.396531e+02   1.445798e+02
  -3.092058e+02  -1.571844e+02
  -3.824006e+01  -3.422864e+02
   6.691419e+01  -3.398497e+02
   3.578967e+01  -1.147836e+02
   1.978018e+01  -6.688938e+01
   9.474460e+01  -9.940485e+01
   2.451507e+02  -8.423486e+01
   2.424411e+02   9.867247e+01
   9.490511e+01   2.766283e+02
  -1.032753e+02   2.460178e+02
  -1.879646e+02  -2.879829e+01
  -1.418456e+02  -2.403249e+02
   2.747037e+01  -1.781323e+02
   2.676676e+02  -7.285784e+01
   3.012083e+02   9.891603e+01
   1.471537e+02   3.226582e+02
  -5.364033e+01   2.394010e+02
  -1.582890e+02   1.083987e+02
  -1.256982e+02   4.655594e+01
  -1.664001e+02   5.960803e+01
  -2.761933e+02   7.663125e+01
  -3.155073e+02  -5.498479e+01
  -2.880544e+02  -2.484160e+02
   1.049297e+01  -3.800929e+02
   4.002606e+02  -3.724664e+02
   3.993199e+02  -1.503069e+02
   2.906850e+02   1.277291e+02
   4.172556e+01   2.483249e+02
  -1.149194e+02   2.591901e+02
  -6.417386e+01   2.157230e+01
   1.287056e+02  -7.438342e+01
   1.155376e+02   1.802322e+01
   6.670175e+01   1.781333e+02
  -1.118032e+02   1.548750e+02
  -1.065786e+02  -3.454647e+01
   4.258097e+01  -1.854535e+02
   1.478553e+02   2.422797e+00
   1.760586e+02   2.131500e+02
  -2.741434e+01   4.056245e+02
  -2.155697e+02   1.762868e+02
  -3.394300e+02  -5.907673e+01
  -2.621583e+02  -2.772747e+02
  -9.066474e+01  -2.864844e+02
   1.312734e+02  -1.450701e+02
   1.863330e+02   2.060269e+00
   5.066566e+01  -7.663699e+00
  -4.114538e+01  -4.561212e+01
  -2.385626e+01  -9.966195e+01
   1.005484e+02  -7.719171e+01
   1.348110e+02   2.931710e+01
  -2.309306e+00   3.257239e+01
  -7.041158e+01   1.664169e+01
  -2.910069e+01  -6.434848e+01
   1.034805e+02  -7.568823e+01
   2.254345e+02   3.041190e+00
   2.793097e+02   1.922196e+02
   3.535937e+01   2.049039e+02
  -2.027891e+02   2.526401e+02
  -2.567640e+02   6.098128e+01
  -1.448908e+02  -2.679250e+01
  -1.274319e+00  -8.976668e+01
   4.051373e+01   2.691231e+01
  -5.286983e+01   9.968978e+01
  -2.188829e+02   5.726786e+01
  -2.062546e+02  -1.217117e+02
  -3.505320e+01  -1.669587e+02
   1.001293e+02  -1.218419e+02
   1.081709e+02  -1.048662e+01
   6.709335e+01   2.952244e+01
  -2.403024e+01  -1.104885e+01
  -1.736009e+01  -8.983924e+01
   4.818657e+01  -1.065698e+02
   1.992548e+02  -1.440801e+01
   1.904660e+02   1.561538e+02
   4.091825e+01   1.842988e+02
  -1.211892e+02   1.459764e+02
  -1.606577e+02   1.751862e+01
  -4.158057e+01  -6.672698e+01
   6.665957e+01  -8.665511e+01
   5.335273e+01  -3.761906e+01
   3.330245e+00   4.560736e+01
  -1.423563e+01   9.457299e+00
  -8.822701e+00  -2.787783e+01
   8.969822e+01  -1.906037e+01
   9.106597e+01   3.850083e+01
  -5.065689e+00   1.743360e+02
  -7.968553e+01   1.505498e+02
  -2.461822e+02   2.047952e+01
  -1.896659e+02  -1.485543e+02
  -5.876384e+01  -1.843120e+02
   9.349916e+01  -1.563260e+02
   9.381988e+01  -1.852573e+01
   4.992155e+01   6.104715e+01
   3.463880e+01   8.142251e+00
   6.918719e+01  -1.108939e+01
   7.508789e+01   2.280891e+01
   4.371628e+01   8.255532e+01
  -3.656524e+01   8.382635e+01
  -1.223346e+02   7.696757e+01
  -1.126862e+02  -7.505264e+01
   3.711848e+01  -1.493483e+02
   1.254848e+02  -5.413200e+01
   1.941962e+02   6.080036e+01
   4.457543e+01   2.099263e+02
  -1.553320e+02   1.985522e+02
  -2.428657e+02   6.468366e+01
  -2.136197e+02  -1.288005e+02
  -8.051243e+01  -2.010181e+02
   4.665311e+01  -1.501646e+02
   7.129426e+01  -7.006391e+01
   6.193863e+01  -6.187091e+01
   6.115623e+01  -8.024380e+01
   1.116617e+02  -7.315634e+01
   1.187515e+02   1.944108e+01
   8.672783e+01   1.206718e+02
   1.792355e+01   1.986594e+02
  -9.959666e+01   1.448412e+02
  -1.537363e+02   3.928202e+01
  -8.486719e+01  -9.991051e+01
  -1.162415e+01  -1.727818e+02
   7.231473e+01  -7.513476e+01
   6.741134e+01  -8.348780e+00
   1.166922e+01   5.868000e+01
  -2.682680e+01   3.914279e+01
   2.266552e+01   3.420271e+01
   5.758054e+01   2.916894e+01
   4.692821e+01   5.822260e+01
  -9.952022e+01   2.120633e+01
  -1.280747e+02  -1.170650e+00
  -1.622125e+02  -6.264753e+01
  -2.565079e+01  -7.016616e+01
   7.068527e+01  -4.117033e+01
   1.227007e+02   1.827918e+01
   3.901015e+01   2.943930e+01
  -2.891686e+01   2.537553e+01
  -8.642139e+01  -2.482769e+01
   4.933091e+00  -7.544718e+01
   6.964409e+01  -7.652154e+01
   6.586685e+01   1.612096e+01
   4.462993e+01   1.666912e+01
   3.982813e+01   5.307769e+01
   2.105002e+01  -6.351549e+00
   5.236787e+01   1.047390e+01
   3.139931e+01   5.829084e+01
  -3.149503e+01   1.475271e+02
  -9.902663e+01   1.670461e+02
  -1.732720e+02   5.335318e+01
  -1.147131e+02  -9.851161e+01
   3.525315e-01  -1.148309e+02
   1.303757e+02  -6.826259e+01
   9.387482e+00   1.292166e+01
  -8.776083e+01   5.986530e+00
  -1.308035e+02  -5.901387e+01
  -4.782065e+01  -1.361559e+02
   8.556592e+01  -1.080701e+02
   1.718478e+02  -7.005206e+01
   1.341083e+02   5.848982e+01
   3.226502e+01   6.729315e+01
  -6.784492e+01   9.544987e+01
  -5.798560e+01  -1.062647e+01
   3.708771e+01  -2.294928e+01
   9.445413e+01  -2.446960e+01
   2.266165e+00   1.306749e+02
  -3.672265e+01   1.254967e+02
  -1.575252e+02   5.640124e+01
  -1.189770e+02  -9.788130e+01
  -2.283194e+01  -1.560620e+02
   6.342698e+01  -1.407346e+02
   1.146977e+02   8.505525e-01
   5.087777e+01   1.162253e+02
  -2.137063e+01   8.554642e+01
  -3.749254e+01   3.454125e+01
  -3.435125e+01  -2.971528e+01
  -1.574394e+01  -2.312283e+01
  -9.595688e+00   1.656131e+00
  -1.842286e+01  -2.510833e+01
  -5.675287e+01  -6.760709e+01
  -2.318793e+01  -9.141014e+01
   7.199623e+01  -3.645112e+01
   1.633170e+02   3.584148e+01
   1.185203e+02   2.960847e+01
   1.388715e+01   4.997988e+01
  -5.699822e+01   3.393406e+01
  -4.682373e+01  -6.003109e+00
  -3.652795e+00  -3.793666e+01
   2.869012e+01  -8.716411e+00
   2.755281e+01  -3.650692e+00
  -1.664920e+01   2.214932e+01
   5.398828e+00   1.759680e+00
   5.419570e+01  -4.028326e+00
   8.074473e+01   2.321243e+01
  -6.399558e-01   5.297643e+01
  -7.779859e+01   9.166914e+01
  -2.097616e+02   6.972353e+01
  -1.845612e+02  -4.710901e+01
  -3.882369e+01  -1.693200e+02
   1.115982e+02  -1.302663e+02
   1.218451e+02  -6.559401e+01
   9.836021e+01   2.365794e+01
   5.888959e+01   5.380670e+01
  -2.672932e+01  -2.813879e+01
   1.067504e+01   3.607600e+00
   3.034044e+01   4.604011e+01
   3.244157e+01   7.834151e+01
  -3.779763e+01   8.743986e+01
  -7.713884e+01   1.820865e+01
  -7.642950e+01  -9.127841e+01
  -4.975673e+01  -7.403306e+01
   8.191644e+01   1.106627e+01
   8.400841e+01   3.989272e+01
   4.026587e+01   1.239307e+02
  -8.995754e+01   8.308305e+01
  -9.094311e+01  -1.540268e+01
  -4.634101e+01  -4.739081e+01
   4.702775e+01  -2.418861e+01
   3.664820e+01  -3.365789e+01
  -1.195739e+01   5.368578e+00
  -7.928260e+01   1.821969e+01
  -1.927582e+01  -1.295941e+01
   5.576722e+01  -1.740433e+01
   1.274005e+02  -3.562713e+01
   1.011142e+02   4.435942e+01
  -9.454386e+00   1.166347e+02
  -6.089978e+01   5.657851e+01
  -5.050160e+01   4.562874e+01
   2.172818e+01  -3.337956e+01
   1.242717e+01  -4.901017e+01
   2.184990e+01   1.159986e+01
   4.141132e+01   3.759069e+01
   1.634475e+00   5.428322e+01
  -3.877772e+01  -1.425765e+01
  -5.737145e+01  -2.215341e+01
  -3.819509e+00   3.713570e+00
  -1.427486e+01  -1.516645e+01
   4.390267e+01   1.562155e+01
  -6.281688e+00  -1.466751e+01
   4.140581e+01  -7.228170e+01
   1.966479e+01  -3.701020e+01
   4.103965e+01   3.519168e+01
   5.090198e+00   1.045307e+02
  -5.464954e+01   2.928241e+01
  -8.433341e+01  -4.265447e+01
  -1.876518e+01  -7.388458e+01
   1.415541e+01   1.196367e-01
   8.237228e+01   1.375808e+01
   5.412217e+01   7.391854e+00
  -3.205393e+01   4.339094e+01
  -7.287384e+01   1.901375e+01
  -3.170826e+01  -1.293051e+00
   3.153365e+01  -1.237713e+01
   4.005578e+01   3.258400e+01
  -4.332473e+01   3.325887e+01
  -4.872076e+01   8.058034e+00
