
 $NMID
 id='ANONYMOUS ', fmtdat='(2E16.6)'
 volume=1.0
 tramp=1.0
 $END
  -3.350943e+03   4.413882e+01
  -2.088872e+03  -1.805542e+03
   2.968002e+02  -2.020822e+03
   1.405928e+03  -1.237807e+03
   7.752508e+02  -9.561925e+01
  -5.020372e+01   1.526690e+02
  -4.073286e+02  -1.714534e+02
  -5.343679e+01  -6.149115e+02
   4.168193e+02  -5.298746e+02
   6.213864e+02  -1.343992e+02
   3.751106e+02   5.492045e+02
  -8.246531e+01   7.676403e+02
  -3.836673e+02   1.536658e+02
  -2.491053e+02  -2.834442e+02
   1.966356e+02  -5.647312e+02
   4.502424e+02  -6.876993e+01
   3.315148e+02   4.812528e+02
  -6.770381e+01   5.124706e+02
  -5.461999e+02   2.607546e+02
  -4.214080e+02  -2.106425e+02
  -1.049060e+02  -3.548034e+02
   1.406360e+02  -2.747036e+02
   5.939407e+01  -6.925446e+01
  -1.333667e+02  -4.559368e+01
  -3.763790e+02  -2.739479e+02
  -9.266289e+00  -2.533950e+02
   4.910305e+02  -1.966054e+02
   6.028228e+02   1.328508e+02
   2.774597e+02   3.939239e+02
  -2.551204e+02   2.366287e+02
  -5.459617e+02  -8.463187e+01
  -1.927772e+02  -3.680185e+02
   3.025817e+02  -3.367127e+02
   4.855827e+02  -1.776993e+02
   3.217392e+02   1.589882e+02
   9.839927e+01   3.443867e+02
  -9.501535e+01   1.966019e+02
   4.038710e+01  -1.661462e+02
   2.190783e+02  -1.834830e+02
   2.506985e+02   9.996010e+01
   4.046227e+00   5.706122e+02
  -2.243681e+02   3.451520e+02
  -3.020173e+02   1.677295e+01
  -1.994708e+02  -2.920003e+02
   2.859556e+02  -2.154188e+02
   2.276720e+02   2.492148e+02
  -1.350962e+02   4.304289e+02
  -4.335067e+02   1.130268e+02
  -3.832035e+02  -3.893706e+02
  -1.480359e+02  -4.332929e+02
   2.876623e+02  -2.297814e+02
   4.759694e+02   2.089148e+01
   2.874632e+02   2.571084e+02
  -5.632721e+01   1.925006e+02
  -2.980862e+02   5.776645e+01
  -2.397423e+02  -2.309493e+01
   2.471441e+01  -5.962852e+00
   5.213848e+01   1.801244e+01
  -1.059744e+02   8.128154e+01
  -2.295612e+02  -4.450651e+01
  -9.320320e+01  -2.324107e+02
   1.480567e+02  -2.286594e+02
   3.540418e+02  -1.147151e+02
   2.446783e+02   7.449938e+01
  -7.222185e+00   2.545785e+02
  -2.953899e+02   4.172881e+02
  -3.707868e+02   1.355772e+02
  -2.885748e+02  -1.836436e+02
  -8.431214e+01  -4.264898e+02
   3.161797e+01  -3.419542e+02
   6.847364e+01  -1.611193e+02
   5.829700e+01  -8.722507e+01
   1.143592e+02  -1.146847e+02
   1.992041e+02  -8.845087e+01
   2.033885e+02   1.424790e+02
   1.039869e+02   2.672280e+02
  -8.554658e+01   2.415798e+02
  -1.787050e+02  -3.194850e+01
  -1.608904e+02  -2.161443e+02
   3.631744e+01  -2.172491e+02
   2.701478e+02  -9.086521e+01
   3.063564e+02   1.873446e+02
   1.518023e+02   2.956666e+02
  -3.766135e+01   2.190990e+02
  -1.218943e+02   1.412988e+02
  -1.186426e+02   6.599454e+01
  -1.565280e+02   5.109818e+01
  -2.858694e+02  -2.991170e+00
  -3.932599e+02  -6.778570e+01
  -3.273965e+02  -2.945450e+02
   5.874736e+01  -3.891719e+02
   4.155032e+02  -4.277666e+02
   5.072362e+02  -1.528488e+02
   2.771208e+02   1.161405e+02
   1.771622e+01   2.367199e+02
  -1.000270e+02   2.173990e+02
  -3.575265e+01   3.903443e+01
   1.124071e+02  -5.228254e+01
   1.470683e+02   3.129773e+01
   9.138022e+00   1.075106e+02
  -1.249410e+02   1.366202e+02
  -1.038782e+02  -6.903910e+01
   3.123002e+01  -1.353816e+02
   1.696418e+02   1.213396e+00
   1.536155e+02   2.368468e+02
  -1.377486e+01   3.134322e+02
  -2.285974e+02   1.706744e+02
  -3.341625e+02  -6.051836e+01
  -2.778428e+02  -2.725518e+02
  -7.538618e+01  -2.558841e+02
   1.127128e+02  -1.566542e+02
   1.396422e+02  -1.517857e+01
   1.287596e+01   2.484983e+01
  -8.158836e+01  -6.415218e+01
  -3.737624e+00  -1.777131e+02
   8.560870e+01  -3.977288e+01
   1.613026e+02   4.522615e+01
  -5.672997e+00   9.758077e+01
  -7.350929e+01   8.192803e+00
  -6.079198e+01  -1.094052e+02
   1.331418e+02  -8.760795e+01
   2.918183e+02   2.808610e+01
   2.719043e+02   1.450784e+02
   1.380435e+01   2.163394e+02
  -1.950709e+02   2.531599e+02
  -2.644346e+02   1.380005e+02
  -1.390636e+02  -6.853763e+01
  -2.894992e+00  -9.289068e+01
   6.239537e+01   2.756477e+00
  -4.094376e+01   9.035559e+01
  -1.596963e+02   7.175686e+01
  -1.958466e+02  -1.168241e+02
  -5.446262e+01  -2.057406e+02
   6.291523e+01  -1.204603e+02
   1.553874e+02  -2.860461e+01
   5.713532e+01   3.327574e+01
  -5.300833e+01  -1.922631e+01
  -4.413383e+01  -9.128470e+01
   6.681595e+01  -9.932953e+01
   2.195551e+02  -2.813208e+01
   2.365162e+02   1.595653e+02
   3.856048e+01   2.249639e+02
  -1.169249e+02   1.351886e+02
  -1.606573e+02   1.384313e+01
  -5.959015e+01  -7.440117e+01
   6.218976e+01  -9.852325e+01
   1.123752e+02  -1.790453e+01
   5.837741e+00   2.375552e+01
  -1.905576e+01   1.070557e+01
   1.170218e+00  -1.076707e+01
   9.076790e+01  -2.389030e+01
   1.115106e+02   6.700203e+01
   9.491193e+00   1.994097e+02
  -7.882569e+01   1.163911e+02
  -2.137203e+02  -8.634725e+00
  -1.964304e+02  -1.536874e+02
  -3.845396e+01  -2.427581e+02
   9.847786e+01  -1.250508e+02
   1.230416e+02  -4.188455e+01
   5.691030e+01   3.470829e+01
   3.507762e+01   5.852090e+01
   4.659909e+01  -3.288172e+01
   6.395235e+01  -3.124651e+01
   1.730274e+01   4.077316e+01
  -2.816381e+01   9.218205e+01
  -1.091883e+02   8.626776e+01
  -1.272725e+02  -3.843145e+01
   1.190014e+01  -1.063847e+02
   1.557250e+02  -7.733929e+01
   1.913211e+02   2.962225e+01
   9.788276e+01   2.567656e+02
  -9.058394e+01   2.487379e+02
  -2.390448e+02   5.748889e+01
  -2.332669e+02  -6.890490e+01
  -1.254163e+02  -1.612580e+02
   6.355979e+01  -1.471463e+02
   1.079902e+02  -8.162242e+01
   7.098919e+01  -6.545864e+01
   6.678548e+01  -6.893421e+01
   9.257106e+01  -7.628022e+01
   1.564355e+02   4.867272e+01
   1.220826e+02   1.064751e+02
   3.972839e+01   2.555200e+02
  -9.015680e+01   1.419878e+02
  -1.443816e+02  -2.394688e+00
  -1.550529e+02  -1.049678e+02
  -1.973404e+01  -1.660853e+02
   6.184633e+01  -7.671765e+01
   5.202819e+01   1.931004e+01
  -3.819787e+00   7.134499e+01
  -7.109937e+00   2.915415e+01
   2.900077e+01   1.982038e+01
   7.713135e+01   2.197363e+01
   5.300507e+01  -1.236568e+01
  -5.060716e+01   2.006534e+01
  -1.469589e+02  -2.792907e+01
  -1.433582e+02  -4.812077e+01
   2.480302e+01  -9.491019e+01
   1.146740e+02  -4.488073e+01
   1.502850e+02  -1.051565e+01
   5.347229e+01   4.309285e+01
  -4.219898e+01   5.275821e+01
  -1.062171e+02  -2.862101e+01
  -1.449575e+01  -9.055724e+01
   5.618060e+01  -3.467788e+01
   6.250354e+01  -1.212215e+01
   8.027064e+01   4.001476e+01
   2.622380e+01   9.556254e+00
   5.952795e+01   9.853036e+00
   7.305684e+01   1.070092e+01
   5.981025e+01   7.226689e+01
  -1.242902e+01   1.547291e+02
  -1.470819e+02   9.482903e+01
  -1.928802e+02   3.266495e+01
  -1.109918e+02  -9.832125e+01
   6.129452e-01  -1.409526e+02
   1.057809e+02  -8.126164e+01
   5.578541e+01   1.394484e+01
  -4.428447e+01   2.453963e+01
  -1.397598e+02  -5.942155e+01
  -6.635183e+01  -1.272626e+02
   7.392471e+01  -8.120315e+01
   1.601056e+02  -3.650451e+01
   1.155241e+02   3.450340e+01
   3.309797e+01   8.697094e+01
  -8.984450e+01   7.210478e+01
  -5.615192e+01  -1.056992e+00
   3.832752e+01  -2.188254e+01
   9.466567e+01   3.693400e+01
   4.674056e+01   1.066966e+02
  -4.221954e+01   1.511686e+02
  -1.365274e+02   7.092176e+01
  -1.024021e+02  -9.435531e+01
  -1.337511e+01  -1.756671e+02
   7.395330e+01  -1.452460e+02
   7.322567e+01   7.808612e+00
   4.765586e+01   1.285683e+02
  -1.253541e+01   8.581968e+01
  -5.109113e+01   1.828125e+01
  -5.336873e+01  -3.670525e+01
  -1.112767e+01   5.159070e+00
  -2.788770e+01   1.480520e+01
  -9.393241e+00  -3.126218e+00
  -4.246822e+01  -1.058487e+02
  -1.495199e+01  -8.085859e+01
   7.020474e+01  -6.623876e+01
   1.362266e+02   1.503394e+01
   1.162694e+02   6.710801e+01
   4.189124e+01   2.064510e+01
  -5.342759e+01   3.962203e+01
  -6.711797e+01   9.448005e+00
  -3.681095e+01   2.818210e+00
   4.439171e+01  -3.113709e+01
   8.689146e+00  -3.502279e+01
   2.250614e+00   2.916637e+00
   2.219150e+01   2.474397e+00
   7.912769e+01   1.731675e+01
   8.516342e+01   1.922571e+01
   1.930635e+01   8.266515e+01
  -1.207960e+02   7.821438e+01
  -1.644233e+02   9.362267e+01
  -1.488418e+02  -1.231505e+01
  -2.215352e+01  -1.436666e+02
   6.533089e+01  -1.568593e+02
   1.215203e+02  -5.175115e+01
   7.945733e+01   2.210360e+01
   2.285390e+01   3.738363e+01
  -1.593867e+01   6.955648e-01
   1.313972e+01   2.699409e+00
   1.921123e+01   6.247127e+01
   2.086974e+01   1.008285e+02
   9.190836e+00   5.545121e+01
  -6.453205e+01  -8.818929e+00
  -1.023452e+02  -6.974117e+01
   7.714688e+00  -9.773206e+01
   6.654004e+01  -4.707522e+01
   8.281826e+01   9.402967e+01
   6.543170e+01   1.051765e+02
  -7.255973e+01   6.824308e+01
  -8.892616e+01  -2.018435e+01
  -5.828564e+01  -5.743014e+01
   3.375178e+01  -3.800230e+01
   3.196037e+01  -3.063730e+01
  -3.207818e+01   1.015442e+01
  -6.821778e+01   2.127006e+01
  -2.681738e+01  -3.717536e+01
   8.294974e+01  -4.534655e+01
   1.278637e+02  -7.579296e+01
   6.446012e+01   2.098009e+01
  -3.299112e+01   9.249721e+01
  -3.933675e+01   1.138476e+02
  -3.418245e+01   1.384991e+00
  -8.981030e+00  -6.231913e+01
   7.673356e+00  -4.720241e+01
   5.775622e+01   1.451679e+01
   1.032053e+01   6.101762e+01
   1.288603e+01   2.496320e+01
  -1.588164e+00   6.382965e+00
  -2.433882e+01  -2.802586e+01
  -4.205756e+01  -3.291799e+01
  -2.132186e+00   1.669761e+01
   2.578905e+01   1.173471e+01
   1.792504e+01  -1.838890e+01
  -2.554457e+00  -7.075777e+01
   2.372446e+01  -1.976135e+01
   1.558670e+01   3.757564e+01
   1.992695e+01   6.647738e+01
  -5.539253e+01   1.207391e+01
  -3.643782e+01  -3.550252e+01
  -1.824980e+01  -6.801373e+01
   4.336292e+01  -4.918587e+01
   9.545707e+01  -1.639412e+01
   5.606663e+01   1.754207e+01
  -5.096837e+01   1.562594e+01
  -4.295621e+01   1.177913e+01
  -2.505029e+00   3.047248e+01
   5.874908e+00  -1.765650e+01
   1.707357e+01   2.324313e+01
  -2.501138e+01   4.221936e+00
  -1.044555e+02   1.993599e+01
