
 $NMID
 id='ANONYMOUS ', fmtdat='(2E16.6)'
 volume=1.0
 tramp=1.0
 $END
  -3.664779e+03  -1.374224e+02
  -1.865607e+03  -1.967817e+03
   4.774972e+02  -2.340008e+03
   1.657413e+03  -6.717639e+02
   7.311190e+02   5.259032e+02
  -5.521765e+02   3.149314e+02
  -8.185204e+02  -4.536805e+02
   2.555174e+01  -9.061676e+02
   7.175597e+02  -6.227450e+02
   8.899999e+02   8.635610e+01
   4.065654e+02   7.489059e+02
  -1.575539e+02   7.074353e+02
  -5.391460e+02   1.215983e+02
  -2.394253e+02  -4.759870e+02
   2.141769e+02  -7.053625e+02
   4.892530e+02   5.036057e+01
   2.467962e+02   5.341493e+02
  -2.254245e+02   4.379881e+02
  -5.230493e+02   2.596569e+01
  -3.248653e+02  -2.917549e+02
  -5.283422e+00  -3.260622e+02
   2.161146e+02  -2.196868e+02
   1.856326e+02  -5.320191e+01
  -6.117692e+01   5.861781e+01
  -3.024369e+02  -1.347506e+02
  -1.084464e+02  -3.091084e+02
   3.360094e+02  -3.398069e+02
   7.537871e+02   2.720503e+01
   3.197502e+02   4.396663e+02
  -3.321442e+02   3.214236e+02
  -6.608287e+02  -1.089320e+02
  -2.662787e+02  -4.409728e+02
   2.601208e+02  -3.945153e+02
   4.767854e+02  -1.662786e+02
   3.216009e+02   1.330241e+02
   1.067709e+01   3.614846e+02
  -1.124577e+02   2.723770e+02
  -1.203508e+02  -2.392344e+02
   1.419341e+02  -3.795638e+02
   3.951944e+02  -8.260064e+00
   1.620968e+02   6.090363e+02
  -2.513156e+02   4.669882e+02
  -4.239246e+02  -3.251401e-01
  -2.397486e+02  -3.944740e+02
   2.396360e+02  -2.642076e+02
   3.138587e+02   2.810563e+02
  -4.784239e+01   4.712218e+02
  -4.329000e+02   8.902050e+01
  -4.574069e+02  -2.659606e+02
  -1.495297e+02  -5.216695e+02
   2.966292e+02  -2.509637e+02
   5.192378e+02   1.043726e+02
   2.855210e+02   3.165989e+02
  -1.465177e+02   2.290416e+02
  -3.704809e+02   2.949412e+01
  -1.706062e+02  -1.758693e+02
   8.910104e+01  -5.664658e+01
   1.009301e+02   9.021806e+01
  -1.462461e+02   1.555487e+02
  -2.742916e+02  -6.718059e+01
  -1.273444e+02  -2.738404e+02
   1.235932e+02  -2.273706e+02
   2.898364e+02  -5.466832e+01
   1.756630e+02   5.741312e+01
  -7.419908e+01   1.630954e+02
  -2.158225e+02   2.852702e+02
  -2.985556e+02   1.950586e+02
  -2.614472e+02  -9.742321e+01
  -6.282563e+01  -3.794423e+02
   1.079805e+02  -2.932870e+02
   1.153011e+02  -1.291711e+02
   2.881140e+01   2.241882e+01
   4.182958e+01  -6.649424e+01
   1.378473e+02  -1.166211e+02
   2.129791e+02   7.769581e+01
   1.279804e+02   2.139934e+02
  -6.720043e+01   2.192338e+02
  -1.746322e+02   2.121178e+01
  -1.599031e+02  -2.363174e+02
   2.251418e+01  -2.287213e+02
   2.304427e+02  -8.669646e+01
   3.125057e+02   1.141134e+02
   1.562711e+02   2.964863e+02
  -4.838367e+01   2.499105e+02
  -1.610670e+02   8.571097e+01
  -8.143614e+01   2.607427e+01
  -1.004302e+02   5.361351e+01
  -1.940022e+02   5.558622e+01
  -3.140698e+02  -4.519859e+01
  -2.791401e+02  -2.612964e+02
  -4.179258e+00  -3.179526e+02
   3.282986e+02  -3.742248e+02
   4.509761e+02  -1.890438e+02
   2.625502e+02   9.291634e+01
   4.283088e+01   2.323379e+02
  -1.029259e+02   2.121385e+02
  -7.681687e+01   5.605890e+01
   1.215490e+02  -6.407167e+01
   1.335192e+02   3.746363e+01
   8.820080e+00   1.585446e+02
  -1.188863e+02   1.602872e+02
  -1.533759e+02  -3.754314e+01
   3.305340e+01  -1.960289e+02
   1.834956e+02  -1.476833e+01
   1.737769e+02   1.687706e+02
  -1.925485e+01   3.147159e+02
  -1.996453e+02   1.537455e+02
  -2.678981e+02  -7.328769e+01
  -2.521866e+02  -1.919898e+02
  -7.703591e+01  -2.501383e+02
   1.153523e+02  -1.663155e+02
   1.430461e+02  -1.685515e+01
   5.153439e+01   1.471519e+01
  -4.912456e+01  -3.292477e+01
  -4.463260e+01  -1.328972e+02
   1.069549e+02  -8.860305e+01
   1.754318e+02   3.158096e+01
   6.108851e+01   9.677308e+01
  -4.370361e+01  -1.231349e+01
  -6.077721e+01  -6.713967e+01
   8.734445e+01  -7.309722e+01
   2.597715e+02  -2.575393e+01
   2.206085e+02   1.225091e+02
   1.082915e+01   1.901969e+02
  -1.433390e+02   2.011476e+02
  -2.604768e+02   1.575285e+02
  -1.574668e+02  -4.620147e+01
   1.039080e+01  -8.351056e+01
   7.958818e+01   1.026014e+01
  -3.372136e+01   9.075972e+01
  -1.630629e+02   7.076131e+01
  -1.839186e+02  -8.691995e+01
  -3.222237e+01  -1.612000e+02
   9.026707e+01  -1.201659e+02
   1.129301e+02  -4.684744e+01
   6.359001e+01   4.322667e+01
  -2.826619e+01  -1.200888e+01
  -2.457496e+01  -6.320850e+01
   4.606457e+01  -1.339834e+02
   1.802653e+02  -2.603740e+01
   1.859524e+02   1.140634e+02
   3.283437e+01   1.990271e+02
  -1.069192e+02   1.068098e+02
  -1.664997e+02  -6.676101e+00
  -2.854888e+01  -6.512065e+01
   5.289409e+01  -6.886615e+01
   6.895965e+01  -2.150982e+01
   4.646631e+01   4.961030e+00
   8.891187e+00   1.350972e+01
   1.419872e+00  -2.599377e+01
   5.526129e+01  -1.410024e+01
   1.231192e+02   6.366865e+01
   2.708237e+01   1.448534e+02
  -1.180687e+02   1.238555e+02
  -1.367599e+02  -1.662689e+01
  -1.669517e+02  -1.597241e+02
  -2.308129e+01  -2.150957e+02
   5.374940e+01  -1.461620e+02
   6.330014e+01  -3.342305e+01
   5.881209e+01   5.558885e+01
   1.499726e+00   2.019068e+01
   2.652215e+01  -2.200267e+01
   6.804931e+01   1.721206e+01
   4.466304e+01   3.203475e+01
  -1.640584e+01   4.320898e+01
  -8.382688e+01   4.631976e+01
  -7.787267e+01  -3.118504e+01
   2.555541e+00  -1.023607e+02
   9.267759e+01  -8.483170e+01
   1.758015e+02   5.140585e+01
   9.055708e+01   1.799087e+02
  -1.364638e+02   1.984389e+02
  -2.036320e+02   8.188794e+01
  -2.426770e+02  -7.051326e+01
  -1.083697e+02  -1.481423e+02
   5.417311e+01  -1.032003e+02
   8.304441e+01  -4.243135e+01
   9.570127e+01  -4.507562e+01
   5.099916e+01  -9.832913e+01
   8.416514e+01  -4.523620e+01
   8.535139e+01   1.975115e+01
   7.161787e+01   8.831796e+01
   3.504168e+01   1.943325e+02
  -4.351228e+01   9.378822e+01
  -1.568716e+02   4.001033e+01
  -1.748994e+02  -8.642009e+01
  -3.546638e+01  -1.339330e+02
   5.969706e+01  -6.971208e+01
   6.206340e+01  -1.392172e+01
   4.674984e+00   2.728069e+01
   3.588551e+00   3.173313e+01
   4.730803e+01   3.740421e+01
   9.121832e+01   3.405073e+01
   2.987245e+01   3.872917e+01
  -4.613133e+01   3.572564e+01
  -1.296488e+02  -1.513420e+00
  -9.215142e+01  -4.539826e+01
  -3.288290e+01  -6.359702e+01
   9.483596e+01  -5.002932e+01
   1.293090e+02  -2.575059e+01
   3.146050e+01   4.025065e+01
  -4.591622e+01   6.223101e+01
  -4.980705e+01  -2.317386e+01
  -9.558317e+00  -5.752317e+01
   7.396610e+01  -6.892734e+01
   3.688217e+01   4.015066e+00
   1.810560e+01   1.294861e+01
   6.188475e+01   6.156635e+01
   3.406131e+01  -2.020833e+01
   6.321639e+01   1.088247e+01
   9.152906e-03   5.201995e+01
  -2.686426e+01   1.265651e+02
  -1.065004e+02   1.253346e+02
  -1.117346e+02   6.163527e+01
  -1.297283e+02  -8.553090e+01
   6.581099e+00  -1.355785e+02
   9.016855e+01  -4.670014e+01
   1.746907e+01   3.978865e+00
  -3.917474e+01   2.390403e+01
  -1.341646e+02  -4.699999e+01
  -4.779716e+01  -6.762819e+01
   4.406634e+01  -1.132782e+02
   1.189050e+02  -4.640529e+01
   9.130523e+01   4.681854e+00
   5.053563e-01   8.129434e+01
  -8.791267e+01   4.968469e+01
  -5.619888e+01  -9.363949e+00
   1.883342e+01  -2.542431e+01
   3.636029e+01  -4.492185e+00
  -1.373575e+01   7.331900e+01
  -7.514075e+01   1.258198e+02
  -1.566272e+02   5.468088e+01
  -6.493247e+01  -6.850635e+01
  -3.375747e+00  -1.418028e+02
   6.115724e+01  -1.262738e+02
   1.030740e+02  -8.366949e-01
   6.361599e+01   9.619877e+01
  -6.756155e+00   9.207191e+01
  -5.573851e+01   2.541905e+01
  -2.588582e+01  -3.255997e+01
  -3.084349e+01   1.147469e+01
  -4.701694e+00   4.032619e+00
  -2.280621e+01  -5.062308e+00
  -7.458373e+00  -1.148124e+02
  -3.663073e+01  -9.474579e+01
   1.675547e+01  -5.402096e+01
   9.343585e+01   6.407329e+01
   8.934140e+01   6.177732e+00
   1.055065e+01   2.707936e+01
  -8.288617e+01   2.458767e+00
  -5.045039e+01   3.098075e+01
  -1.943458e+01  -2.971852e+01
   3.256477e+01  -4.984513e+01
   1.955795e+01   3.671654e+00
  -1.255541e+01   1.119637e+01
   1.360694e+01  -3.782223e+00
   5.241446e+01   1.033252e+01
   7.221036e+01   5.818243e+00
   1.265647e+01   6.089247e+01
  -8.438357e+01   9.822523e+01
  -2.052861e+02   2.379615e+01
  -1.232267e+02  -4.972097e+01
  -6.785683e+00  -1.537809e+02
   4.859493e+01  -1.679827e+02
   1.183087e+02  -3.868874e+01
   3.881851e+01   2.411832e+01
   1.901701e+01   6.259872e+01
  -1.239077e+01  -1.941481e+01
   3.349729e-01   2.065729e+01
   7.783575e+01   2.174924e+01
   5.868407e-01   4.643372e+01
  -4.239283e+01   8.531695e+01
  -7.509613e+01   6.058989e+00
  -4.927481e+01  -8.645551e+01
  -7.329125e+00  -7.866053e+01
   5.596963e+01  -5.426717e+01
   1.028887e+02   8.657359e+01
   3.669767e+01   1.065789e+02
  -8.392375e+01   4.263782e+01
  -5.937563e+01  -4.714561e+00
  -3.604598e+01  -3.387331e+01
   1.675269e+01  -5.206799e+01
  -1.058500e+00  -1.660628e+01
  -4.743898e+00  -3.938172e+00
  -5.633250e+01   1.589008e+01
  -1.277521e+01  -1.336266e+01
   8.169970e+01  -5.425707e+01
   9.587257e+01  -9.381152e+01
   7.569020e+01   4.156891e+01
   1.023049e+00   8.259932e+01
  -5.196343e+01   7.547290e+01
  -2.729642e+01   3.701797e+00
   1.061427e+01  -4.797583e+01
   2.829078e+01  -6.546798e+01
   2.215684e+01   2.278664e+01
   6.481295e-01   4.801877e+01
  -4.370739e+00   2.307162e+01
  -1.420341e+01  -5.127053e-01
  -3.633247e+01  -2.723904e+01
  -2.195764e+01   2.008880e+00
  -2.052894e+01   1.329700e+01
   4.958414e+00   9.592966e+00
   1.562925e+01  -1.604255e-02
   1.948780e+01  -4.594877e+01
   2.688985e+01   1.313705e+01
   7.441719e+01   3.689176e+01
  -1.970089e+00   1.198123e+01
  -3.044376e+01   5.950003e+00
  -4.786300e+01  -5.372100e+01
  -3.229441e+01  -5.015506e+01
   3.449157e+01  -1.623265e+00
   7.576134e+01   2.870647e+01
   3.661996e+01  -1.504782e+00
  -3.146872e+01   4.113600e+01
  -6.600104e+01   1.398793e+01
  -1.987241e+01  -5.380360e+00
   6.391636e+00   1.881353e+01
   4.176927e+01   1.079020e+01
  -4.242373e+01  -1.792501e+01
  -6.776432e+01   5.827341e+00
