
 $NMID
 id='ANONYMOUS ', fmtdat='(2E16.6)'
 volume=1.0
 tramp=1.0
 $END
   4.185294e+03   2.282333e+02
   2.444490e+03   2.878063e+03
  -7.417728e+02   2.895414e+03
  -2.368294e+03   8.262814e+02
  -8.284968e+02  -9.205620e+02
   7.130768e+02  -6.024463e+02
   1.006608e+03   5.951586e+02
  -2.923967e+01   1.230684e+03
  -9.065268e+02   7.559097e+02
  -1.076606e+03  -1.380741e+02
  -4.515035e+02  -8.894261e+02
   2.031090e+02  -9.456944e+02
   6.393622e+02  -1.078051e+02
   3.755860e+02   6.771799e+02
  -3.169601e+02   8.003084e+02
  -6.722074e+02  -5.374901e+01
  -2.728110e+02  -7.226720e+02
   3.396829e+02  -5.854742e+02
   6.181019e+02  -3.530795e+01
   3.568364e+02   3.267026e+02
  -7.520705e+01   4.045471e+02
  -3.095301e+02   3.065533e+02
  -2.175273e+02   3.414123e+00
   7.642662e+01  -1.853966e+02
   4.120161e+02   6.519067e+01
   1.363329e+02   3.859292e+02
  -4.106578e+02   4.775906e+02
  -9.049387e+02  -3.966213e+01
  -4.093849e+02  -5.845104e+02
   3.396500e+02  -4.091227e+02
   8.076527e+02   3.878514e+01
   3.569200e+02   5.385218e+02
  -2.329394e+02   4.924066e+02
  -5.347075e+02   1.833052e+02
  -3.089056e+02  -1.801707e+02
  -4.393680e+01  -4.441037e+02
   1.947322e+02  -3.336882e+02
   2.136375e+02   2.701930e+02
  -1.641081e+02   4.676825e+02
  -4.339032e+02   2.657527e+01
  -2.282995e+02  -7.583791e+02
   3.147144e+02  -6.214644e+02
   5.839140e+02  -5.056300e+01
   2.087091e+02   5.528307e+02
  -3.588628e+02   3.888081e+02
  -4.605757e+02  -3.545259e+02
   9.892049e+01  -6.354525e+02
   5.579388e+02  -1.481078e+02
   5.311113e+02   3.948482e+02
   1.688290e+02   5.843799e+02
  -3.438828e+02   3.315124e+02
  -6.635681e+02  -9.063241e+01
  -3.615438e+02  -4.153153e+02
   9.903044e+01  -3.570155e+02
   5.047675e+02  -1.489151e+01
   2.163625e+02   2.569791e+02
  -1.611885e+02   1.464927e+02
  -1.526607e+02  -1.832829e+02
   1.890791e+02  -2.175525e+02
   3.484881e+02   9.556107e+01
   1.678069e+02   2.978852e+02
  -2.124762e+02   2.444347e+02
  -3.045207e+02   6.048277e+01
  -1.552909e+02  -9.392792e+01
  -3.782996e+01  -2.176894e+02
   2.325837e+02  -3.575250e+02
   3.249506e+02  -2.372097e+02
   3.146462e+02   1.386214e+02
   7.351764e+01   4.712735e+02
  -8.837523e+01   3.714323e+02
  -1.653597e+02   6.660754e+01
  -2.993750e+01  -1.782718e+01
  -1.077733e+01   6.103129e+01
  -1.526153e+02   1.439849e+02
  -2.635787e+02  -3.611055e+01
  -1.735453e+02  -2.464124e+02
   9.002121e+01  -2.637526e+02
   2.276643e+02  -3.700083e+01
   1.724462e+02   2.691263e+02
  -3.874961e+01   2.857689e+02
  -2.791476e+02   1.030841e+02
  -3.811759e+02  -1.612259e+02
  -2.010046e+02  -3.473350e+02
   1.357890e+02  -2.637503e+02
   2.288836e+02  -1.070807e+02
   1.622287e+02   7.265481e+00
   9.474135e+01  -3.118407e+01
   1.815628e+02  -1.016407e+02
   2.764186e+02   5.090535e+01
   3.271556e+02   2.885053e+02
   1.645289e+01   3.228053e+02
  -3.728901e+02   4.130906e+02
  -4.499294e+02   2.157322e+02
  -3.248409e+02  -1.141609e+02
  -6.997589e+01  -2.685090e+02
   1.425604e+02  -2.625867e+02
   1.228801e+02  -2.308182e+01
  -1.193605e+02   1.303532e+02
  -2.208890e+02   4.989907e+00
  -5.865834e+01  -2.118153e+02
   1.899104e+02  -1.429924e+02
   1.841625e+02   2.307779e+01
  -2.448926e+00   1.819642e+02
  -1.767145e+02   1.297379e+01
  -1.530557e+02  -2.373578e+02
   3.588013e+01  -2.893459e+02
   2.128362e+02  -2.318147e+02
   3.506045e+02   2.367362e+01
   2.659460e+02   1.858082e+02
   7.872067e+01   2.310544e+02
  -9.910561e+01   1.673991e+02
  -1.796397e+02   1.087071e+01
  -6.161819e+01  -1.447633e+01
   4.871673e+01   1.317252e+01
   4.058140e+01   1.553215e+02
  -9.311824e+01   9.839742e+01
  -2.204074e+02   2.731229e+01
  -5.293052e+01  -4.769899e+01
   5.613867e+01  -3.694920e+01
   5.099426e+01   7.015272e+01
  -1.181303e+02   6.156575e+01
  -2.983774e+02   1.670466e+01
  -2.413320e+02  -1.129937e+02
  -8.808592e+01  -1.814456e+02
   1.513443e+02  -2.735215e+02
   2.949084e+02  -1.229116e+02
   1.637044e+02   6.854252e+01
  -7.073434e+01   9.876341e+01
  -8.467815e+01   3.076877e+00
   1.134639e+01  -1.026667e+02
   2.049407e+02  -5.855643e+01
   2.586133e+02   8.944920e+01
   8.624042e+01   2.374147e+02
  -9.293275e+01   1.394091e+02
  -1.322761e+02   2.345372e+01
  -4.565506e+01  -1.793264e+01
  -2.259837e+00  -2.552284e+01
   6.135815e+01   7.357161e+01
  -9.170175e+01   8.920702e+01
  -2.038887e+02   3.631671e+01
  -2.041299e+02  -1.142327e+02
  -1.927764e+01  -1.744592e+02
   1.480546e+02  -1.461706e+02
   2.527512e+02   1.598705e+01
   5.355275e+01   1.144550e+02
  -5.260327e+01   9.356384e+01
  -1.019853e+02   1.134336e+01
  -3.414467e+01  -1.964327e+01
   1.192587e+01  -1.944408e+01
  -9.987939e+00   1.977230e+01
  -5.010464e+01  -3.210966e+01
  -8.352076e+01  -7.869738e+01
  -3.654801e+01  -1.515054e+02
   9.182470e+01  -1.255759e+02
   1.741274e+02  -3.691950e+01
   2.355623e+02   1.300648e+02
   3.238198e+01   2.252694e+02
  -7.508119e+01   1.478367e+02
  -1.506884e+02  -1.047688e+01
  -5.898678e+01  -5.586038e+01
  -2.533916e+01  -5.635584e+01
  -5.102877e+01   1.080414e+01
  -5.553128e+01  -2.247319e+01
  -2.987471e+01   7.118332e+00
   4.422202e+01  -7.276662e+01
   1.007387e+02  -3.721388e+01
   8.015592e+01   9.133217e+00
   5.654775e+00   9.456073e+01
  -1.229917e+02   8.392534e+01
  -1.675715e+02  -4.873863e+01
  -1.014724e+02  -1.579291e+02
   1.469325e+02  -2.524224e+02
   2.380619e+02  -9.619153e+01
   2.219555e+02   7.880155e+01
   1.379296e+02   1.806186e+02
  -3.418090e+01   1.528890e+02
  -1.190938e+02   1.028454e+02
  -6.612245e+01   6.995777e+01
  -2.922309e+01   1.037617e+02
  -6.842743e+01   1.070760e+02
  -1.019382e+02  -3.697052e+00
  -1.151375e+02  -9.815648e+01
  -3.789975e+01  -2.259061e+02
   4.757691e+01  -1.656911e+02
   1.700077e+02  -3.379268e+01
   1.315323e+02   1.393683e+02
   1.350934e+00   1.629098e+02
  -5.149815e+01   8.328619e+01
  -5.432207e+01   9.510530e+00
   7.574414e-01  -2.358485e+00
   2.246118e+01  -4.319248e+01
  -3.594415e+01  -2.554149e+01
  -8.222515e+01  -4.972315e+01
  -2.855231e+01  -3.301168e+01
   6.226164e+01  -6.152133e+01
   1.072765e+02   1.547638e+01
   1.480356e+02   3.364658e+01
  -5.954335e-01   9.230060e+01
  -9.429319e+01   9.074127e+01
  -1.397034e+02   2.162702e+01
  -1.464549e+01  -3.287525e+01
   3.730984e+01  -3.362799e+01
   6.606275e+01   1.619486e+01
   4.908648e+00   7.184531e+01
  -5.607334e+01   7.455952e+01
  -6.788566e+01  -2.056174e+01
  -4.696804e+01  -4.041303e+01
  -3.923101e+01  -2.798850e+01
  -5.359458e+01  -7.147479e-01
  -4.653328e+01   1.578713e+00
  -2.055361e+01  -8.877905e+01
   2.190359e+01  -1.157274e+02
   9.905691e+01  -1.164997e+02
   1.218182e+02  -3.558624e+01
   1.077755e+02   8.937878e+01
  -1.478224e+01   9.938634e+01
  -9.011479e+01   9.750646e+01
  -4.825865e+01  -2.490682e+01
   7.837483e+01  -6.181230e-02
   1.266979e+02   3.828881e+01
   8.051195e+01   9.396933e+01
  -6.290841e+01   9.605710e+01
  -1.735969e+02   3.737121e+01
  -1.637008e+02  -4.652823e+00
  -3.512988e+01  -8.109983e+01
   6.607461e+01  -7.374080e+01
   3.034193e+01  -2.986572e+00
  -2.294820e+01   1.572916e+01
  -1.015740e+02  -2.679297e+01
  -4.403335e+00  -1.087380e+02
   1.128814e+02  -1.445790e+02
   1.698303e+02  -5.270741e+01
   9.444671e+01   8.576291e+01
   4.200444e+01   1.555127e+02
  -7.000815e+01   1.123343e+02
  -1.146012e+02   1.781849e+01
  -3.756936e+01  -1.015745e+02
  -1.529727e+01  -9.034959e+01
   3.539415e+01  -1.120533e+01
   4.872470e+01   4.235517e+00
   2.973972e+01   1.867720e+01
   5.830652e+01  -1.577942e+01
   1.859307e+01   3.995477e+01
   3.071958e+01   7.318329e+01
   5.293875e+01   1.093103e+02
  -5.464444e+01   4.896049e+01
  -1.028138e+02  -3.633691e+01
  -8.464101e+01  -5.354942e+01
  -2.826907e+01  -4.145054e+01
   7.804982e+01   3.188185e+00
   5.770207e+01   9.660266e+00
  -5.043003e+00  -1.121674e+01
  -4.130031e+01  -1.436277e+00
   1.136923e+01  -3.027467e+00
   3.948814e+01  -1.573598e+01
   1.206978e+01  -3.404824e+00
  -5.578693e+01  -3.565090e+00
  -1.037534e+02  -2.248184e+00
   1.706633e+00  -7.634936e+01
   6.102723e+01  -9.766900e+01
   1.802226e+02  -7.294868e+01
   1.306961e+02   8.497080e+01
   1.774085e+01   1.524482e+02
  -7.976366e+01   1.436525e+02
  -9.450681e+01   5.967039e+01
  -7.722590e+01  -1.246374e+01
  -2.155391e+01  -5.752675e+01
   9.288174e+00   4.821433e+00
  -1.037679e+01   9.622335e+00
  -3.479365e+01  -2.668056e+01
  -6.668402e+00  -5.034150e+01
   3.702240e+01  -5.942004e+01
   1.013949e+02  -6.230082e+00
   5.032940e+01   7.241010e+01
  -9.945080e+00   1.010368e+02
  -8.630797e+01   3.201676e+01
  -1.005136e+02  -6.794102e+01
  -5.873628e+00  -8.133223e+01
   2.435910e+01  -4.245960e+01
   9.526408e+01   2.574183e+01
   2.730266e+01   6.872940e+01
  -2.595194e+01   6.784135e+01
  -3.902901e+01   8.572036e+00
   3.345290e+00   2.897692e+01
   4.393177e+01  -2.037283e+01
   1.630474e+01   3.491425e-01
  -5.121871e+01   9.017957e+01
  -8.502795e+01   3.656375e+01
  -9.013571e+01  -3.858423e+00
   4.439057e+01  -9.792910e+01
   4.209174e+01  -7.334544e+01
   8.773717e+00   1.082166e+01
  -3.816764e+00   7.118327e+01
  -4.229025e+01   2.025439e+01
  -3.653553e+01  -2.878196e+00
  -3.581972e+01  -5.746593e+01
  -1.193709e+01  -3.460585e+01
   1.267432e+01   2.839296e+01
   4.826852e+01   2.285207e+01
   2.749586e+01   4.744924e+00
   9.248313e+00  -5.400251e+00
  -1.391721e+01   1.122855e+00
   1.036050e+01   3.115656e+01
  -2.811821e+01   4.425913e+01
  -6.627239e+01   1.759553e+01
  -4.077267e+01  -1.165649e+01
   4.086422e+00  -5.155332e+01
   1.876528e+01  -2.967774e+01
   4.915958e+01   4.669016e+01
  -2.485095e+00   5.217635e+01
  -5.635127e+01   4.999100e+01
  -1.079651e+02  -4.851053e+01
  -6.728295e+01  -4.391686e+01
  -5.357049e-02  -4.305785e+01
   5.963737e+01  -1.919570e+01
   3.273835e+01  -1.933363e+01
  -4.017125e+01  -1.771360e+00
  -1.423075e+01  -3.681289e+00
   5.804548e+01  -6.296596e-01
   1.031571e+02  -9.395178e+00
