
 $NMID
 id='ANONYMOUS ', fmtdat='(2E16.6)'
 volume=1.0
 tramp=1.0
 $END
   4.461121e+03  -3.254526e+02
   2.707793e+03   3.003694e+03
  -5.928886e+02   2.870457e+03
  -2.480450e+03   9.330872e+02
  -1.045175e+03  -7.116525e+02
   7.781051e+02  -7.462750e+02
   9.161324e+02   4.362452e+02
  -8.200136e+01   1.170249e+03
  -9.432589e+02   8.955515e+02
  -9.358960e+02  -1.361327e+02
  -5.867653e+02  -8.493004e+02
   2.411664e+02  -9.697486e+02
   6.212050e+02  -1.550192e+02
   3.954691e+02   6.896301e+02
  -2.933099e+02   8.635957e+02
  -6.821217e+02   1.600560e+01
  -2.805911e+02  -7.179124e+02
   3.257448e+02  -5.725663e+02
   6.073679e+02  -1.118515e+02
   4.046894e+02   3.573294e+02
  -1.457360e+01   4.419651e+02
  -2.579846e+02   2.885913e+02
  -2.271572e+02  -8.935857e+00
   1.644953e+02  -1.076376e+02
   4.781758e+02   1.078312e+02
   1.623217e+02   3.746945e+02
  -4.871363e+02   4.364251e+02
  -9.076447e+02  -1.077300e+02
  -4.499668e+02  -5.919920e+02
   3.305619e+02  -3.850877e+02
   6.966789e+02  -2.855313e+01
   4.585888e+02   4.688094e+02
  -2.471617e+02   5.755003e+02
  -5.949464e+02   1.912953e+02
  -3.786970e+02  -1.615576e+02
  -5.072640e+01  -5.189539e+02
   2.117745e+02  -3.018261e+02
   2.798901e+02   2.308366e+02
  -1.430372e+02   4.662387e+02
  -4.181895e+02   9.508566e+00
  -3.561576e+02  -7.556701e+02
   2.348364e+02  -6.532325e+02
   5.177137e+02  -9.804297e+01
   2.008580e+02   5.318329e+02
  -3.443480e+02   3.369457e+02
  -4.008155e+02  -3.524331e+02
   1.015043e+02  -5.888911e+02
   5.377977e+02  -1.756938e+02
   6.257162e+02   3.066005e+02
   1.844028e+02   6.223658e+02
  -4.056972e+02   3.259665e+02
  -5.919637e+02  -8.184675e+01
  -4.050418e+02  -4.258964e+02
   1.273937e+02  -3.788927e+02
   5.138325e+02  -6.801535e+01
   2.429265e+02   2.058364e+02
  -1.551738e+02   1.354981e+02
  -1.601926e+02  -1.445172e+02
   1.341863e+02  -2.198605e+02
   3.412173e+02   4.579876e+01
   2.058157e+02   2.996643e+02
  -1.813188e+02   2.492632e+02
  -3.424433e+02   6.894125e+01
  -1.934475e+02  -1.072066e+02
  -7.129099e+00  -1.745198e+02
   2.462997e+02  -3.746304e+02
   3.422974e+02  -2.799158e+02
   3.420172e+02   1.315279e+02
   9.760908e+01   4.855555e+02
  -1.122108e+02   4.002504e+02
  -9.551414e+01   7.967118e+01
  -3.439724e+01  -5.007040e+01
  -3.328614e+01   6.095100e+01
  -1.549916e+02   1.526790e+02
  -2.930717e+02  -1.955619e+01
  -2.210966e+02  -2.748299e+02
   7.519123e+01  -2.917861e+02
   2.427836e+02  -6.151089e+00
   1.890777e+02   2.097527e+02
  -3.456042e+01   2.902243e+02
  -2.884301e+02   1.394490e+02
  -3.840739e+02  -1.441937e+02
  -2.221905e+02  -3.639341e+02
   7.988958e+01  -3.005625e+02
   2.051374e+02  -1.404424e+02
   1.691505e+02   1.892418e+01
   8.726035e+01  -3.490562e+01
   2.384154e+02  -7.447419e+01
   3.893687e+02   5.970674e+01
   3.659565e+02   2.635323e+02
   7.538943e+01   4.223859e+02
  -4.490096e+02   4.452908e+02
  -5.037759e+02   2.127111e+02
  -3.741976e+02  -1.241254e+02
  -5.635941e+01  -3.211449e+02
   1.453500e+02  -2.864778e+02
   1.143883e+02  -2.520555e+01
  -1.113166e+02   8.606360e+01
  -2.214864e+02   1.747095e+01
  -7.022095e+01  -2.011608e+02
   1.189643e+02  -2.012540e+02
   1.923285e+02   8.044587e+01
  -1.615006e+01   1.971456e+02
  -1.870791e+02   3.501474e+01
  -1.937733e+02  -2.120516e+02
   1.415853e+01  -3.554908e+02
   2.034770e+02  -2.047277e+02
   3.256067e+02   3.631810e+01
   3.045038e+02   2.215684e+02
   1.134360e+02   2.804710e+02
  -1.090098e+02   1.860610e+02
  -1.956908e+02   5.588756e+01
  -2.618010e+01  -1.350000e+01
   8.141396e+01   3.539322e+01
   4.789344e+01   1.090694e+02
  -9.795243e+01   8.661043e+01
  -2.085260e+02  -1.796666e+01
  -6.137765e+01  -7.517068e+01
   5.755162e+01  -3.129542e+01
   7.156796e+01   7.384672e+01
  -1.151938e+02   7.070392e+01
  -2.575753e+02   2.883782e+01
  -2.962982e+02  -9.444927e+01
  -7.419309e+01  -1.956380e+02
   2.004148e+02  -2.989892e+02
   3.368107e+02  -1.487651e+02
   1.916588e+02   5.702468e+01
   7.882784e+00   1.256304e+02
  -6.935524e+01   7.920040e+00
   1.307762e+01  -1.232136e+02
   2.380330e+02  -4.850947e+01
   2.447730e+02   7.126276e+01
   8.275865e+01   2.300489e+02
  -1.196102e+02   1.333918e+02
  -1.341816e+02   4.169571e+01
  -5.434925e+01  -3.372021e+01
   2.744954e+01   3.105282e+00
   2.607219e+01   5.682058e+01
  -5.687170e+01   1.020763e+02
  -2.188446e+02   2.346807e+00
  -2.185700e+02  -1.034894e+02
  -5.133861e+01  -2.152033e+02
   1.354977e+02  -1.309243e+02
   2.447742e+02  -1.990812e+00
   6.937447e+01   1.123317e+02
  -6.448560e+01   1.010457e+02
  -7.979137e+01   1.546004e+01
  -4.926122e+01  -1.888420e+01
   3.502286e+00  -2.608227e+01
  -1.973050e+00   2.396584e+01
  -7.688033e+01  -1.964552e+01
  -8.931448e+01  -9.259822e+01
  -1.594481e+01  -1.404347e+02
   8.386219e+01  -1.564761e+02
   1.888210e+02  -5.730426e+01
   2.156230e+02   1.515602e+02
   5.339431e+01   2.784839e+02
  -9.687030e+01   1.959894e+02
  -1.060822e+02   2.827427e+01
  -9.134543e+01  -3.465703e+01
  -7.914714e+00  -2.509677e+01
  -5.580021e+01   3.489929e-01
  -6.027183e+01  -1.806129e+01
  -6.344547e+01  -4.429501e+01
   4.418817e+01  -7.676024e+01
   1.103546e+02  -6.227442e+01
   7.691840e+01   2.941463e+01
  -2.529968e+01   1.234216e+02
  -1.530363e+02   8.370394e+01
  -1.811997e+02  -6.569441e+01
  -1.204950e+02  -2.096904e+02
   1.174937e+02  -2.248352e+02
   2.426124e+02  -1.205841e+02
   2.747422e+02   8.609354e+01
   1.404048e+02   1.970142e+02
  -1.879234e+01   1.498596e+02
  -6.037273e+01   1.167545e+02
  -5.408663e+01   4.881843e+01
  -7.560278e+01   1.014907e+02
  -9.337210e+01   9.690581e+01
  -1.312021e+02  -1.342286e+01
  -9.620664e+01  -1.170424e+02
  -9.482475e+00  -2.294189e+02
   8.147022e+01  -1.742315e+02
   1.839168e+02  -4.157963e+01
   1.577776e+02   1.497831e+02
   3.663846e+01   1.462219e+02
  -5.329038e+01   9.191430e+01
  -7.794703e+01  -2.198219e+01
  -4.277307e+01  -1.945732e+01
  -1.397126e+01  -5.213620e+01
  -1.625469e+01  -3.870106e+01
  -8.808616e+01  -4.289086e+01
  -1.452429e+01  -2.738726e+01
   5.380961e+01  -3.620535e+01
   1.802265e+02  -4.911492e+00
   1.689180e+02   4.321213e+01
   4.462011e+00   7.285064e+01
  -1.084731e+02   9.523128e+01
  -1.002972e+02  -2.952183e+00
  -2.983405e+01  -6.348525e+01
   6.761477e+01  -2.527247e+01
   6.512044e+01  -7.906653e-01
   4.046041e-01   8.798809e+01
  -1.459651e+01   7.842900e+01
  -3.509936e+01  -9.606247e-01
  -5.363463e+01  -5.263975e+01
  -3.981878e+01  -3.019428e+01
  -3.242072e+01   1.202779e+01
  -3.849464e+01  -1.524532e+00
  -3.058005e+01  -5.016993e+01
   1.617614e+01  -1.362390e+02
   6.573259e+01  -1.570066e+02
   1.624623e+02  -5.182638e+01
   1.252947e+02   7.622814e+01
  -7.268488e+00   1.464800e+02
  -9.218221e+01   7.614187e+01
  -6.310714e+01  -4.404718e+00
   4.782279e+01  -1.904408e+01
   1.323423e+02   4.852219e+01
   7.171571e+01   1.213338e+02
  -7.016339e+01   9.005575e+01
  -1.638693e+02   4.657070e+01
  -1.361902e+02  -1.919289e+00
  -4.211671e+01  -7.665090e+01
   5.160061e+01  -6.579811e+01
   4.065093e+01  -2.257493e+01
  -1.861591e+01   1.086165e+01
  -9.756381e+01  -9.834364e+00
  -4.013139e+01  -1.430113e+02
   8.913293e+01  -1.443166e+02
   1.824613e+02  -5.367165e+01
   1.608133e+02   1.457740e+02
   4.409965e+01   1.792365e+02
  -7.159709e+01   1.569455e+02
  -1.184144e+02  -3.312637e+01
  -5.427106e+01  -1.052870e+02
  -8.555435e+00  -9.783293e+01
   2.502329e+01  -3.131026e+01
   4.934456e+01   3.594453e+01
   3.872796e+01  -1.870236e+01
   1.325186e+01  -3.871031e+01
   1.435811e+01   2.785544e+01
   7.286775e+01   9.405601e+01
   4.081548e+01   1.191259e+02
  -3.120041e+01   6.750270e+01
  -1.476256e+02  -4.696698e+01
  -1.243866e+02  -6.287354e+01
  -8.090607e+00  -4.924597e+01
   7.912467e+01  -1.042700e+01
   9.304963e+01  -3.560779e-01
  -6.324574e+00   1.835105e+01
  -7.386429e+01   1.851224e+01
   1.742042e+01   2.640475e+01
   4.488954e+01   2.017666e+01
   2.290719e+01  -1.799359e+01
  -7.318427e+01   1.247234e+00
  -6.395830e+01  -1.760877e+01
  -1.527780e+00  -6.148628e+01
   7.612928e+01  -1.326827e+02
   1.963887e+02  -4.027390e+01
   1.462778e+02   5.646637e+01
   5.302243e+01   1.568238e+02
  -9.925266e+01   1.411580e+02
  -1.222748e+02   6.052969e+01
  -6.797123e+01  -3.024225e+01
  -1.748839e+01  -2.015204e+01
   1.372718e+01   3.263363e+01
   5.375791e+00  -3.461502e+00
  -3.321708e+01  -7.235139e+01
  -1.314360e+01  -7.069438e+01
   2.125817e+01  -5.209518e+01
   9.096503e+01   2.150978e+00
   6.409539e+01   9.031636e+01
   2.327569e+01   1.056032e+02
  -9.362284e+01  -6.769757e+00
  -1.103694e+02  -8.836897e+01
  -2.920782e+01  -1.276665e+02
   4.590922e+01  -8.553672e+01
   8.705649e+01   6.176889e+01
   3.381702e+01   5.600779e+01
  -5.874025e+01   5.639572e+01
  -4.713891e+01   2.803432e+01
   2.936423e+01   2.885572e+01
   4.625554e+01   1.444653e+01
   1.896057e+00   1.978985e+00
  -9.747816e+01   4.729223e+01
  -1.245245e+02   2.269035e+01
  -7.318137e+01   9.027167e-01
   1.198202e+01  -9.122407e+01
   5.684238e+01  -8.569441e+01
   4.008724e+01  -1.799721e+01
  -1.630716e+01   3.044687e+01
  -4.556328e+01   5.866698e+01
  -3.869395e+01  -1.076851e+01
  -1.052620e+01  -4.568396e+01
   3.510246e+01  -2.849331e+01
   2.098443e+01  -1.369686e+01
   3.881169e+01   4.214230e+01
   2.837907e+01   8.172379e+00
  -9.651209e+00  -7.989855e+00
  -6.691843e+00   1.350583e+01
   1.230645e+01   4.903290e+01
  -3.336833e+01   6.964903e+01
  -6.039379e+01  -4.776461e+00
  -6.960933e+01  -8.886597e+01
  -2.478254e+01  -7.669720e+01
   4.140144e+01  -2.441233e+01
   5.997699e+01   4.858178e+01
   4.139593e+00   7.792779e+01
  -4.239337e+01   4.958968e+01
  -1.073027e+02  -1.769602e+01
  -5.888842e+01  -2.797588e+01
   1.502714e+01  -1.628838e+01
   6.936729e+01  -4.567323e+01
   2.685994e+01   6.170575e+00
  -3.898724e+01   1.042539e+01
  -5.473612e+01  -1.640731e+01
   3.930063e+01  -1.604701e+01
   1.043879e+02  -9.119817e+00
