
 $NMID
 id='ANONYMOUS ', fmtdat='(2E16.6)'
 volume=1.0
 tramp=1.0
 $END
  -4.052741e+03   2.193689e+02
  -2.529602e+03  -2.162671e+03
   5.164814e+02  -2.324339e+03
   2.120338e+03  -9.663596e+02
   1.119028e+03   2.990362e+02
  -4.083444e+02   5.765141e+02
  -7.415985e+02  -3.167327e+02
   2.317189e+01  -1.029880e+03
   6.822161e+02  -7.905414e+02
   7.804378e+02  -5.372142e+01
   4.701907e+02   7.064937e+02
  -1.413396e+02   8.776233e+02
  -5.574188e+02   1.800366e+02
  -4.294443e+02  -5.988452e+02
   1.981467e+02  -7.125096e+02
   6.410056e+02  -6.712104e+01
   2.816576e+02   5.990471e+02
  -2.417438e+02   6.540728e+02
  -5.061930e+02   1.733746e+02
  -4.306790e+02  -2.441671e+02
  -6.934027e+01  -3.952878e+02
   2.466711e+02  -2.558829e+02
   1.498794e+02   2.470502e+00
  -1.575780e+02   4.846455e+01
  -4.609910e+02  -1.672563e+02
  -1.093626e+02  -3.566842e+02
   3.936538e+02  -3.189466e+02
   7.606431e+02   1.463015e+02
   4.204420e+02   4.828269e+02
  -2.874418e+02   3.203419e+02
  -6.327813e+02  -6.864339e+01
  -3.437003e+02  -3.813834e+02
   2.626014e+02  -4.759154e+02
   5.450995e+02  -1.725493e+02
   3.738411e+02   1.205428e+02
   7.026220e+01   3.972677e+02
  -1.223765e+02   2.274877e+02
  -1.851596e+02  -1.752517e+02
   1.367928e+02  -3.619227e+02
   3.440289e+02  -8.793444e+00
   2.359371e+02   7.177809e+02
  -2.151893e+02   5.581693e+02
  -4.742016e+02   3.880218e+01
  -1.149620e+02  -3.694021e+02
   2.465154e+02  -2.931195e+02
   3.943558e+02   3.040282e+02
  -8.616060e+01   5.722119e+02
  -5.326815e+02   1.702186e+02
  -5.584922e+02  -3.117391e+02
  -1.834406e+02  -5.256026e+02
   2.507110e+02  -2.921792e+02
   5.452560e+02   6.335638e+01
   3.619770e+02   3.646727e+02
  -1.146232e+02   3.366585e+02
  -3.944286e+02   9.817714e+01
  -2.185468e+02  -1.494006e+02
   8.053514e+01  -5.945121e+01
   1.059656e+02   9.627961e+01
  -1.327035e+02   1.716234e+02
  -3.417087e+02  -4.836701e+01
  -1.717690e+02  -2.458315e+02
   1.846271e+02  -2.711967e+02
   3.020156e+02  -1.247664e+02
   2.508990e+02   1.014328e+02
   1.325568e+01   2.296658e+02
  -2.778916e+02   3.677328e+02
  -3.394829e+02   2.238286e+02
  -3.377281e+02  -1.209215e+02
  -9.545904e+01  -4.729989e+02
   6.241634e+01  -4.097181e+02
   6.306838e+01  -1.453824e+02
   3.420391e+01   1.258793e+01
   4.224224e+01  -7.740851e+01
   1.803865e+02  -1.183967e+02
   2.597424e+02   6.278473e+01
   1.747377e+02   2.947176e+02
  -4.650983e+01   2.284370e+02
  -1.972224e+02   2.336369e+01
  -1.737560e+02  -2.527238e+02
  -1.597357e+01  -2.575569e+02
   2.889563e+02  -1.589662e+02
   3.527830e+02   1.194769e+02
   1.761214e+02   2.920372e+02
  -6.942146e+01   2.803591e+02
  -2.062428e+02   1.294699e+02
  -1.347432e+02   3.689673e+01
  -1.133643e+02   4.395703e+01
  -2.444060e+02   5.342919e+01
  -3.739651e+02  -8.719336e+01
  -3.328024e+02  -2.756651e+02
  -1.278870e+01  -3.871384e+02
   4.650604e+02  -4.010869e+02
   4.682302e+02  -2.387817e+02
   3.231299e+02   6.364739e+01
   6.551750e+01   3.130998e+02
  -1.252570e+02   2.665289e+02
  -7.910002e+01   2.369583e+01
   1.219860e+02  -7.024316e+01
   2.047021e+02  -3.412704e+00
   5.296453e+01   1.846971e+02
  -9.680130e+01   1.600691e+02
  -1.725653e+02  -8.152608e+01
   4.489515e-01  -1.834180e+02
   1.603166e+02   3.758926e+00
   1.784026e+02   2.379174e+02
   1.880592e+01   3.614503e+02
  -2.233979e+02   2.084441e+02
  -3.351159e+02  -1.816520e+01
  -3.016715e+02  -2.471005e+02
  -1.059901e+02  -2.693954e+02
   1.340409e+02  -1.654426e+02
   1.710115e+02  -2.450295e+01
   6.182097e+01   1.491776e+01
  -6.094103e+01  -2.467363e+01
  -1.188210e+01  -1.332998e+02
   9.515630e+01  -5.634002e+01
   1.960619e+02  -1.566788e+01
   4.297781e+01   6.348799e+01
  -7.436744e+01   4.186060e+00
  -4.115759e+01  -5.064418e+01
   1.552575e+02  -9.150550e+01
   2.379616e+02  -3.800998e+01
   2.906189e+02   1.375069e+02
   3.861329e+01   2.455854e+02
  -2.123511e+02   2.668108e+02
  -3.141023e+02   1.062921e+02
  -1.343139e+02  -4.769550e+01
  -1.997791e+01  -1.236400e+02
   3.216755e+01  -1.944458e+01
  -6.445256e+01   9.535829e+01
  -2.281779e+02   4.167667e+01
  -2.269759e+02  -1.062106e+02
  -6.814669e+01  -2.000597e+02
   1.178931e+02  -1.477984e+02
   1.303648e+02  -1.022138e+01
   6.076301e+01   5.031660e+01
  -1.747468e+01   1.427719e+00
  -4.924949e+01  -7.544222e+01
   6.772990e+01  -1.175312e+02
   2.132925e+02  -1.793737e+01
   2.384153e+02   1.299350e+02
   1.500422e+01   2.060820e+02
  -1.247377e+02   1.269793e+02
  -2.198850e+02  -1.358900e+01
  -3.754096e+01  -1.061967e+02
   6.865843e+01  -7.138410e+01
   8.454708e+01  -4.368522e+00
   2.115294e+01   2.680664e+01
  -1.636677e+01  -1.304196e+01
   8.133996e-01   1.436994e+01
   6.588919e+01   3.217362e+00
   1.251221e+02   6.894388e+01
   2.527701e+01   1.769028e+02
  -1.493289e+02   1.703114e+02
  -2.018422e+02   1.205931e+01
  -1.857689e+02  -1.361098e+02
  -5.283191e+01  -2.127233e+02
   1.009467e+02  -1.691705e+02
   1.445239e+02  -2.063895e+01
   5.644755e+01   4.567608e+01
   2.713626e+01   1.802668e+01
   4.645344e+01  -4.534856e+00
   9.683638e+01  -1.218881e+01
   4.975875e+01   4.386746e+01
  -3.759663e+01   9.868488e+01
  -1.037437e+02   5.508855e+01
  -7.941675e+01  -1.275961e+01
   3.488536e+01  -1.349022e+02
   1.294860e+02  -8.797456e+01
   1.979127e+02   3.443384e+01
   1.026115e+02   2.103459e+02
  -1.472516e+02   2.487948e+02
  -3.020876e+02   1.175199e+02
  -2.597278e+02  -8.904352e+01
  -1.399004e+02  -1.768792e+02
   8.631705e+00  -1.266148e+02
   1.017656e+02  -9.215846e+01
   6.165997e+01  -6.662144e+01
   6.173246e+01  -1.147757e+02
   8.344847e+01  -9.731622e+01
   1.139088e+02   1.309837e+01
   1.307110e+02   1.095024e+02
   2.367242e+00   2.289252e+02
  -8.400730e+01   1.437450e+02
  -1.987502e+02   2.668893e+01
  -1.531871e+02  -1.080785e+02
  -9.713782e+00  -1.418351e+02
   8.379412e+01  -7.406748e+01
   6.319323e+01   7.932251e+00
  -1.868761e+01   4.520774e+01
  -2.854197e+01   7.145059e+01
   1.930295e+01   3.136021e+01
   5.207914e+01   6.297917e+00
   1.323589e+01   2.753354e+01
  -8.419236e+01   4.868711e+01
  -1.633896e+02   2.277491e+01
  -1.524021e+02  -3.455339e+01
  -1.501119e+01  -8.772082e+01
   9.302198e+01  -5.762294e+01
   1.338155e+02  -1.343151e+01
   5.114383e+01   5.049142e+01
  -3.385866e+01   4.123528e+00
  -5.802875e+01  -4.448582e+01
  -2.741477e+00  -6.991617e+01
   3.961616e+01  -5.712713e+01
   5.053121e+01   1.116691e+01
   5.305512e+01   4.861011e+01
   3.516406e+01   4.558883e+01
   4.216842e+01  -2.484138e+01
   4.062589e+01   8.685469e+00
   4.655266e+01   7.616224e+01
  -3.908268e+01   1.223306e+02
  -5.620262e+01   1.643223e+02
  -1.650159e+02   5.356277e+01
  -1.360701e+02  -6.314636e+01
   5.767910e-01  -1.208225e+02
   1.012024e+02  -7.294048e+01
   6.335720e+01  -1.258805e+01
  -3.335933e+01  -6.728605e-01
  -1.459084e+02  -3.809521e+01
  -6.153818e+01  -1.196325e+02
   1.005119e+02  -1.053527e+02
   1.911303e+02  -2.793035e+01
   1.177915e+02   9.264954e+00
   6.138262e+01   5.818419e+01
  -4.733196e+01   5.526933e+01
  -3.886605e+01   7.105328e+00
   3.926808e+01  -2.939607e+01
   1.404095e+02  -7.150995e+00
   2.867637e+01   1.139190e+02
  -8.821169e+01   1.515220e+02
  -1.621721e+02   4.752691e+01
  -1.327079e+02  -1.073292e+02
  -4.638931e+01  -1.687444e+02
   6.426971e+01  -1.191700e+02
   1.014112e+02  -1.557386e+01
   9.883577e+01   1.123181e+02
  -1.185731e+01   9.628718e+01
  -3.329940e+01   3.343813e+01
  -2.277236e+01  -3.355858e+01
  -1.586204e+01  -3.551556e+00
  -2.044566e+01   3.405770e+01
  -9.842624e+00  -3.427154e+01
  -7.790291e+01  -1.071020e+02
  -2.865430e+00  -1.029097e+02
   6.772611e+01  -3.780843e+01
   1.856103e+02   4.158664e+01
   8.957794e+01   4.556695e+01
   2.632609e+00   4.373761e+01
  -4.129445e+01   5.641973e+01
  -4.755373e+01   2.657480e+01
   9.368091e+00   1.102156e+00
   2.864340e+01  -7.744379e+00
   1.881814e+01  -8.899394e+00
  -3.108594e+01  -2.492759e+00
   4.495889e+00  -9.503052e+00
   7.285629e+01   2.630316e+01
   9.278878e+01   1.748925e+01
   2.474583e+01   9.317304e+01
  -6.613721e+01   1.297575e+02
  -1.714815e+02   3.121204e+01
  -1.653082e+02  -4.836498e+00
  -3.088130e+01  -1.762829e+02
   9.298058e+01  -1.245219e+02
   1.052365e+02  -7.953950e+01
   8.395904e+01   3.712994e+01
   2.098977e+01   5.914516e+01
   1.003065e+01  -5.776266e+00
  -1.000855e+01  -1.306000e+01
   3.084745e+01   5.855293e+01
   1.997147e+01   8.238573e+01
  -1.675579e+01   6.056185e+01
  -6.080925e+01   5.356632e+00
  -9.636965e+01  -9.039306e+01
  -4.836320e+01  -1.001889e+02
   8.869085e+01  -2.049977e+01
   1.183196e+02   5.045541e+01
   1.188666e+01   1.341892e+02
  -3.841153e+01   6.465900e+01
  -1.107288e+02  -3.245064e+01
  -4.577547e+01  -6.779847e+01
   2.012582e+01  -7.879376e+01
   5.913647e+01  -4.386278e+01
  -6.699031e+01   5.397078e+00
  -5.104081e+01  -1.352122e+01
  -1.483427e+01  -1.857700e+00
   7.524117e+01  -6.592561e+01
   1.262261e+02  -4.184257e+01
   7.880880e+01  -2.186040e+01
  -7.972044e+00   8.366138e+01
  -5.447974e+01   6.065344e+01
  -4.310828e+01   4.877213e+01
  -1.338734e+01  -3.418648e+01
   3.330848e+01  -3.705709e+01
   6.730642e+00  -9.022559e+00
   4.050144e+01   4.596963e+01
  -1.677896e+01   3.840448e+01
  -4.806505e+01  -1.652356e+01
  -3.985989e+01  -4.504232e+01
  -1.920370e+01  -7.545889e+00
   3.682786e+01   1.556963e+00
   3.911260e+00  -7.936843e+00
  -1.473786e+01  -6.172839e+01
   3.779977e+01  -4.067513e+01
   2.735672e+01  -1.667943e+01
   5.104298e+01   6.795057e+01
   2.125453e+01   7.686773e+01
  -4.104353e+01   3.387323e+01
  -9.274895e+01  -4.788978e+01
  -2.156516e+01  -4.422182e+01
   6.229633e+01  -3.684995e+01
   7.821726e+01  -3.229958e+01
   5.002872e+01   4.172991e+01
  -2.349974e+01   5.264161e+01
  -6.558432e+01   5.549144e+01
  -2.803693e+01  -8.100578e+00
   2.659179e+01  -3.696862e+00
   4.218856e+01   3.037377e+01
  -3.865842e+01   4.078667e+01
  -8.445952e+01   3.744923e+01
