
 $NMID
 id='ANONYMOUS ', fmtdat='(2E16.6)'
 volume=1.0
 tramp=1.0
 $END
  -3.663718e+03  -4.695974e+02
  -2.101721e+03  -2.261711e+03
   4.478304e+02  -2.112257e+03
   1.617325e+03  -6.102065e+02
   8.408550e+02   5.998682e+01
  -3.022254e+02   1.502648e+02
  -4.337355e+02  -3.982940e+02
   2.295503e+02  -8.154537e+02
   6.734731e+02  -5.872031e+02
   6.899451e+02   1.228419e+02
   3.015008e+02   6.108649e+02
  -2.432029e+02   6.733632e+02
  -4.039171e+02   1.223706e+02
  -2.345618e+02  -4.502011e+02
   3.252383e+02  -5.469084e+02
   4.768397e+02   2.927881e+01
   1.859450e+02   5.983670e+02
  -1.814604e+02   5.219367e+02
  -4.538553e+02   1.534581e+02
  -3.354610e+02  -2.172106e+02
  -7.013342e+01  -3.916256e+02
   1.920586e+02  -2.079503e+02
   1.069267e+02   8.488822e+00
  -1.606134e+02  -5.485146e+01
  -3.794327e+02  -3.315861e+02
   1.744649e+01  -4.084898e+02
   5.543880e+02  -1.302405e+02
   6.763390e+02   3.313719e+02
   2.480853e+02   4.971797e+02
  -4.125681e+02   2.405727e+02
  -6.093891e+02  -1.819852e+02
  -2.282760e+02  -5.084774e+02
   3.862616e+02  -4.044647e+02
   5.326598e+02  -6.972919e+01
   3.129828e+02   2.093744e+02
   3.786440e+01   4.008584e+02
  -1.546201e+02   1.843256e+02
   6.698781e+01  -1.646904e+02
   3.017296e+02  -2.359275e+02
   2.506975e+02   2.200702e+02
  -8.711750e+00   5.751354e+02
  -2.864090e+02   4.661183e+02
  -3.802743e+02  -9.298989e+01
  -1.195042e+02  -3.978794e+02
   2.936788e+02  -8.076489e+01
   1.897884e+02   3.684909e+02
  -2.157856e+02   4.653391e+02
  -5.304839e+02   3.400946e+01
  -4.683673e+02  -3.255488e+02
  -1.250117e+02  -5.053947e+02
   2.964292e+02  -2.854718e+02
   5.925549e+02   1.538335e+02
   3.577064e+02   3.101703e+02
  -1.123416e+02   1.987848e+02
  -3.447903e+02   6.648589e+01
  -2.136084e+02  -1.324147e+02
   5.311751e+01   4.125046e+00
   8.159345e+01   9.210093e+01
  -1.806820e+02   9.883269e+01
  -2.399649e+02  -9.397353e+01
  -5.881854e+01  -2.049085e+02
   1.758788e+02  -2.228290e+02
   3.310398e+02  -1.250391e+02
   2.714501e+02   8.757147e+01
   1.215624e+01   2.650323e+02
  -3.096695e+02   3.327620e+02
  -3.681695e+02   2.042054e+02
  -2.683476e+02  -2.228908e+02
   1.133414e+01  -4.196099e+02
   1.156212e+02  -3.084048e+02
   3.418254e+01  -1.313861e+02
  -1.741928e+01  -9.736534e+01
   1.171097e+02  -1.781421e+02
   3.236362e+02  -1.001976e+02
   2.480773e+02   1.219830e+02
   1.213372e+02   3.015552e+02
  -1.598017e+02   2.174516e+02
  -2.407710e+02  -5.229385e+01
  -1.507308e+02  -2.581334e+02
   6.617269e+01  -2.567962e+02
   2.893653e+02   4.746513e+00
   3.453340e+02   1.927997e+02
   1.251149e+02   3.431446e+02
  -6.389187e+01   2.857718e+02
  -1.726013e+02   1.307549e+02
  -1.547443e+02   8.600137e+01
  -1.695894e+02   6.151181e+01
  -2.976682e+02   4.611457e+01
  -4.360364e+02  -1.170922e+02
  -2.798897e+02  -3.434404e+02
   3.622655e+01  -4.067418e+02
   4.895708e+02  -3.843983e+02
   4.909741e+02  -1.318583e+02
   3.043557e+02   1.440233e+02
   1.542940e+01   2.674996e+02
  -1.425385e+02   1.877513e+02
  -5.858919e+01   1.593760e+01
   1.277609e+02  -1.963746e+01
   1.452149e+02   4.754795e+01
  -3.104860e-01   2.055391e+02
  -1.531400e+02   1.378243e+02
  -1.140212e+02  -9.947017e+01
   3.756659e+01  -1.505781e+02
   1.854226e+02  -1.639035e+01
   1.238479e+02   2.682943e+02
  -9.102010e+01   3.184284e+02
  -2.659844e+02   1.688511e+02
  -3.260881e+02  -8.641722e+01
  -2.213617e+02  -2.924562e+02
  -2.075851e+01  -2.890922e+02
   1.573899e+02  -1.692824e+02
   1.904930e+02  -1.594945e-01
   2.999358e+01   2.270362e+01
  -5.921208e+01  -7.882001e+01
   7.509348e+00  -1.842980e+02
   1.008255e+02  -1.150862e+02
   1.624502e+02   6.301687e+01
   2.791314e+01   8.522771e+01
  -6.940872e+01   2.697266e+00
  -4.983875e+01  -7.467995e+01
   1.442932e+02  -7.671226e+01
   2.917122e+02   4.383047e+01
   2.509011e+02   1.693898e+02
   3.488587e+01   2.889842e+02
  -2.090627e+02   1.955815e+02
  -2.840562e+02   9.611637e+01
  -1.616448e+02  -5.052012e+01
   2.059928e+01  -9.219627e+01
   6.693211e+01  -3.140511e+00
  -3.948930e+01   1.232783e+02
  -2.057844e+02   1.817602e+01
  -1.990416e+02  -1.744433e+02
  -7.223343e+01  -2.014911e+02
   1.170971e+02  -1.314166e+02
   1.414552e+02  -1.068768e+01
   5.970170e+01   4.320234e+01
  -8.223930e+01   1.634774e+00
  -7.764446e+01  -1.120752e+02
   5.967048e+01  -1.132279e+02
   2.291256e+02  -2.591388e+01
   1.768127e+02   1.544254e+02
  -5.342347e+00   2.267371e+02
  -1.860478e+02   1.530333e+02
  -1.760561e+02  -6.515661e+00
  -7.031970e+01  -1.086003e+02
   4.900602e+01  -1.167339e+02
   8.611633e+01  -1.591896e+01
  -2.120381e+01   2.095778e+01
  -3.768196e+01   1.155630e+01
   3.804051e+01  -4.665639e+00
   1.048939e+02   1.629377e+01
   1.238890e+02   9.780747e+01
  -4.598225e+01   1.981949e+02
  -1.122067e+02   1.531417e+02
  -2.707171e+02  -8.202610e+00
  -1.997541e+02  -1.816767e+02
  -4.198481e+01  -2.571535e+02
   1.360735e+02  -1.514180e+02
   1.458317e+02  -2.159137e+01
   7.451045e+01   5.639638e+01
   4.783439e+01   3.684274e+01
   5.720088e+01  -1.271612e+01
   7.156004e+01  -1.899424e+01
   2.879312e+01   4.568202e+01
  -4.013717e+01   1.168767e+02
  -1.228316e+02   2.499436e+01
  -9.567261e+01  -3.757141e+01
   7.975709e+00  -1.097564e+02
   1.737701e+02  -7.832370e+01
   1.894581e+02   7.039289e+01
   5.849586e+01   2.197799e+02
  -1.693870e+02   2.305470e+02
  -2.890475e+02   5.734082e+01
  -2.341664e+02  -9.656257e+01
  -5.597913e+01  -1.844437e+02
   4.662832e+01  -1.171416e+02
   1.182699e+02  -7.077157e+01
   6.655047e+01  -6.956432e+01
   5.627680e+01  -8.873397e+01
   8.195126e+01  -6.698005e+01
   1.291622e+02   4.621002e+00
   1.198314e+02   1.209767e+02
  -2.902393e+01   2.384781e+02
  -1.137214e+02   1.623461e+02
  -2.105672e+02  -1.266075e+01
  -1.469014e+02  -1.294407e+02
   2.457083e+00  -1.440852e+02
   1.028531e+02  -7.560920e+01
   5.883654e+01   3.121235e+00
   1.078736e+01   6.030156e+01
  -5.088502e+01   2.903805e+01
   2.435210e+01   3.516267e+01
   9.414712e+01   1.937207e+01
   5.657840e+01   4.042248e+01
  -6.068704e+01   4.272093e+01
  -1.528279e+02   1.528604e+00
  -1.151631e+02  -6.989005e+01
   1.739032e+01  -1.141024e+02
   1.442380e+02  -8.110801e+01
   1.182204e+02   3.942856e+01
   4.815108e+01   4.161480e+01
  -5.050892e+01   2.384611e+01
  -9.485392e+01  -5.836510e+01
  -1.942790e+01  -8.170060e+01
   2.207177e+01  -4.804282e+01
   5.897091e+01   2.274407e+00
   4.750525e+01   6.428128e+01
   3.377603e+01   3.382175e+01
   5.905430e+01  -4.234389e+00
   8.311847e+01  -3.639544e+00
   4.228118e+01   7.870237e+01
  -2.705983e+01   1.668167e+02
  -1.657385e+02   1.743488e+02
  -1.936308e+02   1.289746e+01
  -1.228628e+02  -1.590832e+02
   1.379526e+01  -1.388037e+02
   1.368774e+02  -5.539587e+01
   5.571247e+01   2.361157e+01
  -4.738585e+01   6.645391e+00
  -1.337741e+02  -7.299870e+01
  -7.541095e+01  -1.039008e+02
   8.620129e+01  -9.105129e+01
   2.072670e+02  -2.598140e+01
   1.409549e+02   3.858651e+01
   8.967764e+00   9.947159e+01
  -8.065596e+01   5.884337e+01
  -5.365409e+01   2.626150e+00
   4.971533e+01  -5.329467e+01
   7.092711e+01   1.994328e+01
   5.972101e+01   9.933436e+01
  -8.783912e+01   1.251257e+02
  -1.413638e+02   5.144423e+01
  -1.421650e+02  -9.273469e+01
  -2.891456e+01  -1.787319e+02
   9.545805e+01  -1.272000e+02
   1.192918e+02   1.977150e+01
   6.117581e+01   1.029044e+02
   1.623932e+01   1.165614e+02
  -5.184805e+01   2.999647e+01
  -4.718472e+01  -5.312360e+01
  -2.492668e+01  -2.456233e+01
   2.264847e+01   2.067517e+01
  -5.075069e+01  -2.654828e+01
  -6.894819e+01  -7.293715e+01
  -2.150713e+01  -1.189865e+02
   4.255961e+01  -2.654746e+01
   1.334031e+02   5.444299e+01
   1.512653e+02   6.960432e+01
   2.048032e+01   4.788948e+01
  -7.567704e+01   2.267805e+01
  -1.028933e+02  -1.470656e+01
  -2.284297e+01   7.517892e+00
   3.529121e+01  -1.500591e+01
   1.863793e+00   4.970165e+00
   1.214943e+01   3.542664e+01
   2.674617e+00  -7.686170e+00
   5.745573e+01  -2.871042e+00
   1.042115e+02   3.062826e+01
   2.222445e+01   6.792421e+01
  -1.162473e+02   8.824937e+01
  -2.063954e+02   6.233541e+01
  -1.337354e+02  -3.774059e+01
  -1.416624e+01  -1.788772e+02
   8.475368e+01  -1.608504e+02
   1.085320e+02  -6.887207e+01
   6.494563e+01   1.124447e+01
   3.850469e+01   2.915345e+01
  -3.118110e+01   4.138787e+01
   6.004951e+00   2.081221e+00
   3.033658e+01   7.043471e+01
   2.063744e+01   1.061857e+02
  -4.549093e+01   8.907079e+01
  -5.543009e+01   3.227733e-01
  -6.811046e+01  -9.561534e+01
  -5.645366e+00  -1.074725e+02
   6.097077e+01  -2.641949e+01
   9.152958e+01   8.525918e+01
   5.162007e+01   1.393208e+02
  -5.316572e+01   7.673879e+01
  -1.031280e+02  -8.702738e+00
  -4.270780e+01  -5.125424e+01
   3.061849e+01  -2.166860e+01
   5.895246e+01  -3.693891e+01
  -2.606243e+01  -1.351433e+01
  -6.092433e+01   1.049832e+01
  -1.911728e+01  -1.628934e+01
   7.524876e+01  -5.564830e+01
   1.289750e+02  -5.072920e+01
   3.590065e+01   1.318030e+00
  -3.446638e+01   8.489787e+01
  -8.985830e+01   1.084028e+02
  -3.579244e+01  -1.799824e+01
   1.174808e+01  -6.693447e+01
   1.589883e+01  -5.651975e+01
   3.183910e+01   3.566910e+01
   3.052514e+01   4.061367e+01
   1.890879e+00   2.438378e+01
  -4.651511e+01  -1.523758e+01
  -3.985865e+01  -2.413421e+01
  -1.079919e+01  -3.238376e+00
  -1.239723e+01   2.470934e+01
   1.602743e+01  -2.499218e+01
   9.124671e-01  -1.159050e+01
   3.753390e+00  -5.708963e+01
   5.323614e+00  -5.736678e-01
   1.901667e+01   4.922281e+01
   1.621637e+01   7.700044e+01
  -4.964706e+01  -8.514943e+00
  -5.253115e+01  -9.800083e+00
  -2.804522e+01  -6.759839e+01
   3.923251e+01  -4.454530e+01
   6.629034e+01  -7.019852e+00
   3.571418e+01   2.967777e+01
  -4.310348e+01   3.911506e+01
  -4.527208e+01   3.539612e+01
   4.354470e+00   2.602139e+01
   5.457349e+01   1.837326e+01
   3.903819e+01   3.235234e+01
  -3.134129e+01   9.569930e+00
  -8.500776e+01   2.630200e+01
