
 $NMID
 id='ANONYMOUS ', fmtdat='(2E16.6)'
 volume=1.0
 tramp=1.0
 $END
   3.554946e+03   8.753358e+02
   1.923778e+03   2.089490e+03
  -2.831736e+02   2.173874e+03
  -1.571949e+03   6.653494e+02
  -8.250831e+02  -9.939461e+01
   3.016355e+02  -9.344240e+01
   4.099254e+02   3.303317e+02
  -1.995478e+02   7.449499e+02
  -5.658107e+02   5.672353e+02
  -7.274730e+02  -5.506286e+01
  -3.043325e+02  -5.603602e+02
   1.819975e+02  -6.916517e+02
   4.008585e+02  -8.961994e+01
   2.489295e+02   4.165713e+02
  -3.110727e+02   5.593338e+02
  -4.352229e+02  -2.404918e+01
  -3.234234e+02  -5.346859e+02
   1.612016e+02  -5.244248e+02
   4.823251e+02  -1.477660e+02
   3.259310e+02   2.070034e+02
   9.859729e+01   3.576015e+02
  -1.899430e+02   2.411227e+02
  -6.380524e+01   1.255332e+01
   1.370162e+02   7.392904e+01
   3.935509e+02   2.815089e+02
   2.099336e+01   3.741154e+02
  -5.030526e+02   1.885870e+02
  -6.724846e+02  -2.794708e+02
  -2.579893e+02  -4.400140e+02
   3.798983e+02  -1.915641e+02
   5.838023e+02   2.147183e+02
   1.775715e+02   4.177797e+02
  -3.778529e+02   3.885371e+02
  -5.360588e+02   8.723475e+01
  -3.220366e+02  -2.119518e+02
   5.470732e+00  -3.457636e+02
   1.141551e+02  -1.839886e+02
  -7.810829e+01   1.641355e+02
  -2.209568e+02   2.076798e+02
  -3.158861e+02  -1.827875e+02
   4.121101e+01  -5.269514e+02
   2.767244e+02  -4.501809e+02
   3.794955e+02   7.685434e+01
   1.368686e+02   3.963876e+02
  -2.600646e+02   1.593950e+02
  -2.011739e+02  -3.582725e+02
   1.933713e+02  -4.730107e+02
   5.154548e+02  -4.263139e+01
   4.786147e+02   3.130943e+02
   1.205583e+02   4.918474e+02
  -2.889016e+02   2.712412e+02
  -5.952989e+02  -1.013812e+02
  -3.499217e+02  -3.212666e+02
   9.564826e+01  -1.893150e+02
   3.144335e+02  -1.004743e+01
   2.052478e+02   1.146353e+02
  -6.560702e+01   6.471940e+00
  -5.133614e+01  -1.632005e+01
   1.559406e+02  -8.093883e+01
   2.282591e+02   8.689035e+01
   9.022489e+01   2.314936e+02
  -1.592723e+02   2.431726e+02
  -3.433019e+02   1.166766e+02
  -2.380499e+02  -6.966747e+01
   1.098381e+01  -2.147162e+02
   3.346803e+02  -3.297899e+02
   3.294438e+02  -1.690428e+02
   2.911500e+02   1.715046e+02
  -3.968401e+01   4.501127e+02
  -1.071685e+02   3.367732e+02
  -3.664170e+01   1.413301e+02
   4.168332e-01   8.180226e+01
  -1.291820e+02   1.846242e+02
  -2.764315e+02   1.002369e+02
  -2.459976e+02  -1.476988e+02
  -1.039333e+02  -3.032585e+02
   1.291456e+02  -2.180433e+02
   1.948956e+02   9.270338e+00
   1.453845e+02   2.501697e+02
  -5.761680e+01   2.400153e+02
  -2.780687e+02   2.395019e+01
  -3.445091e+02  -2.096907e+02
  -1.288726e+02  -3.232178e+02
   4.207573e+01  -2.233409e+02
   1.604023e+02  -1.392002e+02
   1.504378e+02  -6.946749e+01
   1.483304e+02  -4.241429e+01
   2.868146e+02  -3.546300e+01
   4.345603e+02   7.561766e+01
   2.789968e+02   3.353265e+02
  -3.241905e+01   4.343674e+02
  -4.826683e+02   3.864752e+02
  -5.471876e+02   1.620977e+02
  -3.286147e+02  -1.287563e+02
   1.249592e+01  -2.633146e+02
   1.631454e+02  -1.821795e+02
   5.027245e+01  -4.043992e+01
  -1.220326e+02   5.666990e+01
  -1.741943e+02  -3.456279e+01
   9.667897e+00  -1.858827e+02
   1.349508e+02  -1.020199e+02
   1.244838e+02   9.043643e+01
  -6.686651e+01   1.723594e+02
  -2.076997e+02   6.098199e+00
  -1.416907e+02  -2.462053e+02
   8.407607e+01  -3.622669e+02
   2.958921e+02  -1.860620e+02
   3.147452e+02   5.890250e+01
   2.117192e+02   3.108152e+02
   2.584989e+01   2.970233e+02
  -1.371626e+02   1.657955e+02
  -1.446446e+02  -2.502512e+01
  -4.521879e+01  -1.506730e+01
   7.748692e+01   7.414217e+01
  -2.624149e+01   1.406393e+02
  -1.194705e+02   6.374292e+01
  -1.488411e+02  -7.106833e+01
  -5.268765e+01  -5.056578e+01
   9.686898e+01  -1.465016e+01
   8.451707e+01   8.304905e+01
  -1.432095e+02   4.822162e+01
  -2.941400e+02  -6.347689e+00
  -2.669885e+02  -1.929496e+02
  -2.165952e+01  -2.748679e+02
   2.242253e+02  -2.181967e+02
   3.076573e+02  -9.609188e+01
   1.375467e+02   9.875420e+01
  -4.464008e+01   1.055946e+02
  -9.775549e+01   6.944020e+00
   5.735059e+01  -8.362049e+01
   2.227374e+02  -1.491475e+01
   1.954929e+02   1.387438e+02
   4.142318e+01   2.087875e+02
  -1.201699e+02   1.379257e+02
  -1.259435e+02  -5.644971e+00
  -3.902584e+01  -4.342354e+01
   5.257497e+01   2.208045e+01
   2.257524e+01   1.185257e+02
  -9.145201e+01   1.413516e+02
  -2.108440e+02   1.150470e+01
  -1.707969e+02  -1.458211e+02
  -1.671682e+01  -2.111229e+02
   1.414555e+02  -1.299952e+02
   1.870724e+02   1.275428e+01
   7.073169e+01   1.086271e+02
  -6.026428e+01   9.797669e+01
  -7.656455e+01   2.027806e+01
   1.792534e+01  -1.753133e+01
   3.637025e+01   1.304653e+01
  -3.919594e+01   8.241939e+00
  -7.480923e+01   1.390728e+01
  -1.195654e+02  -6.283745e+01
  -4.798617e-01  -1.677083e+02
   1.266879e+02  -1.375078e+02
   2.216604e+02  -8.858742e+00
   1.912746e+02   1.900332e+02
   3.068135e+01   2.152034e+02
  -1.210865e+02   1.546649e+02
  -1.414116e+02   3.370049e+01
  -5.880728e+01  -5.265003e+01
  -3.397868e+01  -5.046184e+01
  -4.249030e+01   2.397711e+01
  -8.306500e+01   1.400158e+01
  -5.292996e+01  -3.802954e+01
   1.849960e+01  -1.072137e+02
   1.342408e+02  -5.962978e+01
   1.222691e+02   2.937944e+01
  -3.121606e+01   9.109251e+01
  -1.754615e+02   6.343104e+01
  -1.987660e+02  -8.215207e+01
  -8.946768e+01  -2.297397e+02
   1.370815e+02  -2.282804e+02
   2.756398e+02  -1.035966e+02
   2.749108e+02   9.106749e+01
   7.962244e+01   1.909128e+02
  -4.003303e+01   1.465120e+02
  -1.149749e+02   7.972752e+01
  -6.726875e+01   6.360117e+01
  -7.080524e+01   7.341472e+01
  -1.073931e+02   7.778558e+01
  -1.329480e+02  -4.557826e+01
  -1.533516e+02  -1.514311e+02
   3.345318e+01  -2.396072e+02
   1.103425e+02  -1.989940e+02
   1.713096e+02  -2.076585e+01
   1.603471e+02   1.433113e+02
  -1.218307e+01   1.815320e+02
  -1.098324e+02   8.415861e+01
  -5.478606e+01  -3.413636e+01
  -3.138092e+00  -8.790848e+01
   3.554378e+01  -3.974182e+01
  -5.033873e+01  -2.835150e+01
  -9.708145e+01  -4.429167e+01
  -5.385652e+01  -3.315801e+01
   5.747388e+01  -6.387480e+01
   1.803617e+02   1.942651e+01
   1.461147e+02   6.980277e+01
  -2.150135e+01   9.479559e+01
  -1.443614e+02   4.588522e+01
  -1.772379e+02   1.422922e+01
  -5.568635e+01  -5.070760e+01
   5.621057e+01  -3.826243e+01
   1.236620e+02   1.889503e+01
   2.057051e+01   6.603131e+01
  -8.146108e+01   2.148261e+01
  -6.932967e+01   9.429228e+00
  -6.909002e+01  -5.614959e+01
  -4.433273e+01  -3.326134e+00
  -4.642552e+01  -2.786413e+00
  -5.698823e+01  -7.003551e+00
  -7.405246e+00  -7.506491e+01
   8.971961e+00  -1.532801e+02
   1.631095e+02  -1.584389e+02
   1.866656e+02  -2.279187e+01
   9.655034e+01   1.262549e+02
  -6.036976e+00   1.134753e+02
  -1.136771e+02   7.559661e+01
  -7.792268e+01  -1.842137e+01
   8.053063e+01  -4.018813e+01
   1.232887e+02   8.677796e+01
   6.747440e+01   1.316644e+02
  -9.423495e+01   1.039151e+02
  -1.851079e+02   7.258451e+01
  -1.220994e+02  -3.792725e+01
  -2.834921e+01  -8.685458e+01
   6.650617e+01  -7.778678e+01
   6.621927e+01  -3.616534e+01
  -4.142839e+01   4.193822e+01
  -8.709614e+01  -1.515016e+01
  -5.364906e+01  -7.588330e+01
   9.527543e+01  -1.141923e+02
   1.675632e+02  -6.937757e+01
   1.137632e+02   1.031961e+02
   3.849961e+01   1.699697e+02
  -8.066712e+01   1.565800e+02
  -8.820633e+01  -4.516698e+01
  -3.969786e+01  -1.079002e+02
   2.809726e+01  -8.454846e+01
   5.878882e+01  -1.456482e+01
   4.362431e+01   3.959578e+01
   1.135064e+01   4.298326e+00
  -1.934308e+01   1.945420e-01
   3.737171e+01   5.414987e+00
   2.423257e+01   7.697238e+01
   1.112939e+01   8.002025e+01
  -4.098482e+01   5.480661e+01
  -1.499212e+02  -7.464033e+01
  -1.317418e+02  -8.576305e+01
  -3.152679e+01  -7.682666e+01
   8.436271e+01  -7.646238e+00
   8.578208e+01  -3.551142e+01
   2.529642e+01   2.528596e+01
  -5.268539e+01   2.133480e+01
  -1.438336e+01   2.920102e+01
   1.229431e+01  -2.727957e+01
  -2.889277e+01  -8.100115e+00
  -4.359290e+01  -8.444023e+00
  -9.885324e+01  -5.198400e+01
  -2.540292e+01  -7.904217e+01
   1.117542e+02  -8.839984e+01
   1.933848e+02  -2.848205e+01
   1.349918e+02   3.393322e+01
   3.479638e+01   1.902966e+02
  -6.189713e+01   1.579379e+02
  -1.063558e+02   7.877125e+01
  -6.207758e+01  -5.504822e+00
  -8.768617e+00  -4.420098e+01
  -6.673248e+00  -5.454159e+00
   6.017122e+00  -2.434574e+00
  -4.212558e+01  -6.025557e+01
  -1.446336e+01  -7.689129e+01
   1.623728e+01  -6.153049e+01
   8.521043e+01   4.680278e-01
   7.117790e+01   8.455739e+01
   1.351224e+01   9.953590e+01
  -6.231329e+01   8.615489e-01
  -1.175864e+02  -9.279796e+01
  -5.404361e+01  -1.058505e+02
   7.705452e+01  -3.810631e+01
   1.032333e+02  -6.411940e+00
   4.155208e+01   5.952680e+01
  -5.724934e+01   5.524483e+01
  -5.712587e+01   3.573688e+01
   1.798709e+01   2.036027e+01
   5.622316e+01  -9.980920e+00
   1.673691e+01   3.194241e+01
  -6.793457e+01   5.648986e+01
  -1.545829e+02   4.246975e+01
  -4.594653e+01  -4.333521e+01
   2.275956e+01  -9.817170e+01
   5.078458e+01  -8.872381e+01
   2.571699e+01   5.043332e-01
   1.290038e+01   4.910636e+01
  -1.847639e+00   5.772416e+01
  -2.949632e+01  -2.945239e+00
  -1.541157e+01  -4.956918e+01
   2.491417e+00  -4.774068e+01
   2.603929e+01   6.266111e+00
   3.065599e+00   2.688545e+01
   1.724726e+01   5.500220e+00
   1.337755e+01  -6.209852e+00
  -1.094740e+01   2.361167e+01
   2.585119e+00   5.950504e+01
  -1.545666e+01   8.347156e+01
  -3.446021e+01   4.075157e+01
   1.505320e+01  -5.982351e+01
   6.323538e+00  -5.792952e+01
   5.361956e+01  -1.656071e+01
   3.562473e+01   6.012373e+01
   3.224039e+01   1.056682e+02
  -5.584241e+01   2.889999e+01
  -9.658846e+01  -1.457211e+01
  -5.166448e+01  -1.488297e+01
   4.372742e+01  -3.669917e+01
   7.092000e+01  -9.909067e-01
   9.755086e+00  -2.827774e+01
  -3.565466e+01  -2.690150e+01
  -2.884605e+01  -1.504894e+01
   8.532889e+00  -1.734751e+01
   1.033601e+02  -1.989265e+01
