
 $NMID
 id='ANONYMOUS ', fmtdat='(2E16.6)'
 volume=1.0
 tramp=1.0
 $END
  -3.337491e+03  -5.086268e+02
  -1.995625e+03  -2.153517e+03
   4.212082e+02  -2.012413e+03
   1.314745e+03  -1.010876e+03
   9.270864e+02   1.352794e+02
  -2.672536e+02   2.005749e+02
  -4.545731e+02  -3.816968e+02
   9.709628e+01  -7.152514e+02
   5.547783e+02  -6.707074e+02
   6.782581e+02   4.808838e+01
   3.358043e+02   6.022359e+02
  -1.247402e+02   6.811828e+02
  -4.091065e+02   3.504985e+01
  -2.862689e+02  -3.920556e+02
   2.476800e+02  -5.995192e+02
   4.242393e+02  -8.754724e+00
   3.372568e+02   5.273482e+02
  -7.166900e+01   5.863834e+02
  -4.683905e+02   1.984419e+02
  -4.077215e+02  -2.409680e+02
  -9.445674e+01  -3.921498e+02
   1.517046e+02  -2.200190e+02
   1.062164e+02  -3.949258e+01
  -1.360465e+02  -5.674912e+01
  -3.020501e+02  -2.443618e+02
  -6.821749e+01  -3.296631e+02
   4.186696e+02  -1.564266e+02
   6.208270e+02   1.986982e+02
   2.983629e+02   4.084293e+02
  -2.916321e+02   1.898837e+02
  -5.275321e+02  -2.107177e+02
  -2.300430e+02  -4.216009e+02
   3.200308e+02  -4.114098e+02
   5.432928e+02  -1.053190e+02
   3.058107e+02   1.720577e+02
   5.261361e+01   3.487722e+02
  -1.360234e+02   1.537072e+02
   2.612030e+01  -1.114750e+02
   2.008001e+02  -1.761975e+02
   2.822232e+02   1.732048e+02
   5.477924e+01   5.390711e+02
  -2.130023e+02   4.608324e+02
  -3.191152e+02  -1.605743e+01
  -8.025153e+01  -3.379449e+02
   2.446320e+02  -1.693075e+02
   2.129419e+02   3.380877e+02
  -1.873595e+02   4.420513e+02
  -4.820748e+02   1.223928e+02
  -4.637418e+02  -3.113871e+02
  -1.260284e+02  -5.248957e+02
   2.545425e+02  -2.805620e+02
   5.706228e+02   8.134270e+01
   3.592854e+02   2.845278e+02
  -5.997775e+01   1.990046e+02
  -2.947073e+02   1.025321e+02
  -2.040736e+02  -8.275323e+01
   2.954147e+01  -2.454014e+01
   6.644298e+01   1.819876e+01
  -1.431791e+02   3.670362e+01
  -2.193884e+02  -7.195447e+01
  -8.021160e+01  -2.173575e+02
   1.547440e+02  -2.673063e+02
   3.711552e+02  -8.400274e+01
   2.088893e+02   9.222324e+01
  -1.150492e+01   2.680250e+02
  -3.345225e+02   3.362107e+02
  -3.636420e+02   1.715498e+02
  -2.435336e+02  -1.806723e+02
  -2.432626e+01  -3.824055e+02
   8.331173e+01  -3.273846e+02
   6.068337e+01  -1.632902e+02
  -4.296270e-02  -5.677752e+01
   1.061570e+02  -1.471652e+02
   2.308818e+02  -7.720237e+01
   2.460154e+02   1.176779e+02
   9.045494e+01   2.903174e+02
  -8.974232e+01   2.111610e+02
  -2.282001e+02  -3.133451e+01
  -1.429180e+02  -2.199485e+02
   5.079603e+01  -2.214702e+02
   2.336671e+02  -3.294218e+01
   3.135791e+02   1.895539e+02
   1.885975e+02   3.013917e+02
   4.773142e-01   2.291396e+02
  -1.275705e+02   1.453198e+02
  -1.429222e+02   6.789848e+01
  -1.168287e+02   5.234346e+01
  -2.541189e+02   2.498643e+01
  -3.760765e+02  -5.440792e+01
  -2.748500e+02  -2.955107e+02
   2.662541e+00  -3.615607e+02
   4.356765e+02  -3.215500e+02
   4.895241e+02  -1.810537e+02
   2.746062e+02   9.593088e+01
  -3.533430e+00   2.905928e+02
  -1.358337e+02   1.628437e+02
  -3.658272e+01   1.270799e+01
   1.268636e+02  -4.247946e+01
   1.248742e+02   3.312994e+01
   8.374067e+00   1.566075e+02
  -1.658838e+02   1.112399e+02
  -1.213371e+02  -1.200539e+02
   3.010658e+01  -1.508174e+02
   1.980620e+02   2.499736e+00
   1.768316e+02   2.344227e+02
  -6.971769e+01   3.572401e+02
  -2.427940e+02   1.389541e+02
  -3.059172e+02  -5.360919e+01
  -2.217123e+02  -2.848135e+02
  -6.415683e+01  -2.699156e+02
   1.498740e+02  -1.083758e+02
   1.772257e+02   1.044083e+01
   4.811449e+01   5.527737e+01
  -4.011137e+01  -6.548022e+01
   1.168297e+01  -1.025363e+02
   8.983088e+01  -1.285159e+01
   1.698238e+02   2.110354e+01
   6.840740e+01   7.241389e+01
  -7.921942e+01   3.305457e+01
  -5.288994e+01  -6.687832e+01
   1.229454e+02  -8.988845e+01
   2.770805e+02  -1.676096e+01
   2.652161e+02   1.890115e+02
   3.399638e+01   2.373771e+02
  -1.728351e+02   2.148239e+02
  -2.919005e+02   6.470098e+01
  -1.565631e+02  -9.442387e+01
   3.216461e+01  -9.912885e+01
   8.012493e+01  -1.495462e+00
  -6.255489e+01   9.946505e+01
  -2.072646e+02   1.544112e+01
  -1.923372e+02  -1.188821e+02
  -3.877087e+01  -2.055499e+02
   1.071516e+02  -1.059459e+02
   1.207480e+02   4.264923e+00
   4.626578e+01   4.438130e+01
  -3.168097e+01  -6.566568e+00
  -2.785527e+01  -9.458632e+01
   6.042123e+01  -9.625218e+01
   1.885651e+02   1.321790e+01
   1.617400e+02   1.466161e+02
   5.701648e+00   2.065261e+02
  -1.165173e+02   1.242375e+02
  -2.023780e+02   2.326089e+01
  -2.958804e+01  -9.850893e+01
   6.673254e+01  -5.440342e+01
   5.846816e+01  -2.746448e+01
   8.001175e-02   3.442879e+01
  -2.178909e+01  -3.472572e+00
   9.269850e+00  -3.317507e+01
   7.761341e+01  -2.425759e+00
   9.065112e+01   8.352416e+01
  -1.046039e+01   1.746335e+02
  -1.105768e+02   1.681941e+02
  -1.891753e+02   1.419958e+01
  -1.803372e+02  -2.024216e+02
  -6.292663e+01  -2.456054e+02
   9.645498e+01  -1.372493e+02
   8.606676e+01  -1.013703e+01
   6.523367e+01   4.431403e+01
  -5.904854e-02   5.126478e+01
   4.832934e+01  -2.232176e+01
   8.417474e+01  -2.805201e+01
   3.032543e+01   4.533962e+01
  -3.342080e+01   1.095781e+02
  -1.169680e+02   7.279954e+01
  -1.086291e+02  -4.635683e+01
   2.469163e+01  -1.000135e+02
   1.376331e+02  -4.747298e+01
   1.846636e+02   6.388400e+01
   6.231351e+01   2.341274e+02
  -1.240896e+02   2.201515e+02
  -2.448533e+02   7.827529e+01
  -2.443007e+02  -8.898254e+01
  -8.119491e+01  -1.477940e+02
   3.290130e+01  -1.120335e+02
   8.210149e+01  -6.371284e+01
   5.093970e+01  -6.272304e+01
   6.190727e+01  -8.995298e+01
   1.128279e+02  -7.780845e+01
   1.425680e+02   1.958427e+01
   9.852369e+01   1.059593e+02
  -3.512791e+01   2.114015e+02
  -6.949029e+01   1.603387e+02
  -1.857594e+02  -2.999105e+01
  -1.409513e+02  -1.158708e+02
   6.355560e+00  -1.478748e+02
   7.531175e+01  -7.726711e+01
   6.406522e+01   3.395525e+01
   1.032439e+01   5.467937e+01
  -2.399376e+01   3.265000e+01
   1.702474e+01   2.722016e+01
   9.320323e+01   2.176777e+01
   5.507066e+01   5.033442e+01
  -3.138047e+01   3.278708e+01
  -1.541135e+02  -1.971302e+01
  -1.239005e+02  -6.849172e+01
  -1.682693e+01  -1.093214e+02
   1.483102e+02  -8.790676e+01
   1.812620e+02   6.468615e+00
   3.227393e+01   4.708038e+01
  -6.451682e+01   2.876303e+01
  -8.564552e+01  -3.360066e+01
  -3.765313e+01  -8.454583e+01
   6.487635e+01  -7.570723e+00
   4.367227e+01  -6.929415e+00
   5.459069e+01   4.664584e+01
   3.474915e+01   3.537077e+01
   3.209013e+01  -7.760355e+00
   6.442621e+01  -1.547402e+01
   4.600324e+01   9.182671e+01
  -1.499689e+00   1.220745e+02
  -1.453146e+02   1.113260e+02
  -1.789819e+02   1.881279e+01
  -1.140066e+02  -1.171540e+02
   2.191216e+01  -1.292496e+02
   9.988283e+01  -6.919685e+01
   6.581514e+01   1.788751e+00
  -6.725526e+01   3.106256e+01
  -1.349675e+02  -8.282624e+01
  -6.607437e+01  -1.125640e+02
   7.271876e+01  -8.003628e+01
   1.744093e+02  -1.729479e+01
   1.292194e+02   2.847103e+01
   4.244214e+01   9.750614e+01
  -7.512184e+01   7.124225e+01
  -3.944299e+01   2.321001e+01
   5.874169e+01  -3.519656e+01
   8.953525e+01   2.013320e+01
   3.367327e+01   9.152670e+01
  -6.829399e+01   1.308915e+02
  -1.672667e+02   7.654092e+01
  -1.113951e+02  -9.864960e+01
   1.455569e+00  -1.808483e+02
   5.709545e+01  -1.228018e+02
   8.482398e+01   9.805855e+00
   2.549366e+01   5.774574e+01
  -1.455613e+01   5.683829e+01
  -5.222755e+01   1.641758e+01
  -2.776308e+01  -4.194599e+00
  -1.911936e+01  -2.956285e+01
  -4.705131e+00   1.074293e+01
  -3.273593e+01  -1.903213e+01
  -4.281369e+01  -9.686923e+01
  -3.110749e+01  -1.119107e+02
   5.817816e+01  -3.351808e+01
   1.104977e+02   1.541910e+01
   9.684132e+01   3.312185e+01
   4.051654e+01   3.632307e+01
  -6.272023e+01   2.222203e+01
  -1.069623e+02   1.707806e+01
  -9.289395e+00   1.438314e+01
   4.861495e+01  -8.519534e+00
   3.893787e+01  -3.075744e+01
  -2.037612e+01   3.788963e+01
   1.446901e+01   1.231454e+01
   8.860899e+01   6.487971e+00
   1.135086e+02   1.978197e+01
   4.378569e+01   5.407429e+01
  -9.181180e+01   1.207045e+02
  -1.915204e+02   3.178672e+01
  -1.514430e+02  -4.120689e+01
  -2.791001e+01  -1.759977e+02
   7.110256e+01  -1.806486e+02
   1.135682e+02  -5.814364e+01
   7.153430e+01   2.726090e+01
   2.176047e+01   3.987330e+01
  -3.672943e+01   5.651660e+00
  -4.409816e+00  -2.682098e+00
   4.555603e+01   6.155533e+01
   3.639917e+01   9.294095e+01
  -9.784899e+00   6.956961e+01
  -5.362082e+01  -1.973769e+01
  -4.942768e+01  -9.375246e+01
  -5.549287e+00  -1.229250e+02
   7.233056e+01  -1.123424e+01
   8.625299e+01   6.802646e+01
   6.211300e+01   8.854251e+01
  -4.653999e+01   7.742695e+01
  -8.791761e+01   8.103177e+00
  -5.621516e+01  -6.350332e+01
   6.767243e+01  -7.720858e+01
   3.096890e+01  -3.437690e+01
  -3.693470e+01  -4.255889e+00
  -8.309117e+01   1.247161e+01
  -3.715322e+01  -4.142550e+00
   1.292242e+02  -5.231224e+01
   1.237342e+02  -3.889759e+01
   8.189346e+01   1.920681e+01
  -3.413068e+01   8.799581e+01
  -5.565575e+01   8.660318e+01
  -5.133041e+01  -1.711805e+01
  -5.196821e-01  -4.229134e+01
   3.154234e+01  -7.011020e+01
   4.087459e+01   1.425115e+00
   4.951305e+01   1.641387e+01
   7.485981e+00   3.873860e+01
  -3.321508e+01  -7.201964e+00
  -5.301233e+01  -4.404777e+01
  -3.579283e+01  -3.258499e+01
   2.586765e+00  -2.718643e+00
   1.655746e+00   8.151142e-02
   6.924001e+00  -4.319077e+01
   6.184068e+00  -3.397900e+01
   3.568818e+01  -4.642373e+01
   6.206235e+01   5.343140e+01
   7.359677e+00   6.089987e+01
  -4.702456e+01   6.190671e+00
  -4.068812e+01  -3.967758e+01
  -3.408897e+01  -8.198206e+01
   2.496229e+01  -7.080566e+00
   9.875801e+01  -3.207314e+00
   4.515440e+01   3.213342e+01
  -7.900644e+01   1.903083e+01
  -2.991172e+01   2.307234e+01
  -4.641029e+01   1.257595e+01
   2.339443e+01   1.170774e+01
   3.824324e+01  -1.886220e+00
  -5.565510e+00   2.164447e+01
  -1.112588e+02   1.254414e+01
