
 $NMID
 id='ANONYMOUS ', fmtdat='(2E16.6)'
 volume=1.0
 tramp=1.0
 $END
   2.931748e+03   5.421855e+02
   1.559841e+03   1.658877e+03
  -6.263506e+02   1.956915e+03
  -1.525768e+03   6.706813e+02
  -8.478668e+02  -2.216615e+02
   3.105242e+02  -3.894956e+02
   6.135672e+02   3.953814e+02
  -5.772415e+01   6.649838e+02
  -6.074445e+02   5.011918e+02
  -6.598919e+02  -1.555661e+02
  -3.026225e+02  -6.597940e+02
   1.681415e+02  -5.800001e+02
   4.158204e+02  -8.858774e+01
   2.534103e+02   3.325265e+02
  -2.886104e+02   5.470892e+02
  -3.987313e+02  -5.655417e+01
  -1.409934e+02  -4.136124e+02
   1.848142e+02  -4.959571e+02
   4.326950e+02  -2.615270e+01
   2.797139e+02   3.462151e+02
   1.130386e+01   3.009571e+02
  -1.844569e+02   1.293721e+02
  -1.342194e+02   6.019039e-01
   6.820311e+01   6.707740e+00
   2.601165e+02   1.788020e+02
   4.730865e+01   2.551094e+02
  -3.095431e+02   1.590395e+02
  -6.189164e+02  -9.217081e+01
  -1.910373e+02  -3.774086e+02
   2.567970e+02  -2.251359e+02
   5.281256e+02   1.601022e+02
   1.686213e+02   3.833514e+02
  -2.618333e+02   3.025092e+02
  -3.846814e+02   9.676076e+01
  -2.399785e+02  -1.142262e+02
   3.385374e+01  -3.072258e+02
   1.141782e+02  -2.162348e+02
   4.642046e+01   1.384212e+02
  -1.762279e+02   2.368057e+02
  -2.581346e+02  -7.507656e+01
  -6.724010e+00  -4.931067e+02
   1.632155e+02  -4.491268e+02
   3.423644e+02  -6.094685e+00
   1.605718e+02   2.906367e+02
  -2.205412e+02   2.029546e+02
  -2.368349e+02  -2.772236e+02
   9.376821e+01  -3.822378e+02
   3.872314e+02  -3.999231e+01
   3.552716e+02   2.300834e+02
   6.426792e+01   4.161585e+02
  -2.678148e+02   1.904835e+02
  -4.601213e+02  -1.487187e+02
  -2.545045e+02  -2.716511e+02
   9.899785e+01  -2.000504e+02
   3.282847e+02  -1.347973e+01
   1.582408e+02   1.614111e+02
  -7.230131e+01   2.859719e+01
  -9.030440e+01  -3.492172e+01
   1.275586e+02  -1.040838e+02
   2.435773e+02   7.335753e+01
   6.857440e+01   2.222916e+02
  -1.516529e+02   2.051195e+02
  -2.690539e+02   2.196284e+00
  -1.775127e+02  -8.243849e+01
   3.616633e+01  -1.745423e+02
   2.663370e+02  -1.918012e+02
   2.542215e+02  -1.068615e+02
   2.181038e+02   1.480554e+02
  -1.996790e+01   3.079021e+02
  -1.310331e+02   2.761738e+02
  -9.177283e+01   6.975381e+01
  -1.883684e+01   2.433640e+01
  -3.846701e+01   8.476099e+01
  -1.486041e+02   8.276177e+01
  -1.889397e+02  -8.346448e+01
  -7.825879e+01  -1.851591e+02
   8.033363e+01  -1.719059e+02
   1.542406e+02  -2.321678e+01
   1.254745e+02   2.458624e+02
  -3.829335e+01   1.673765e+02
  -1.644426e+02   1.677955e+01
  -2.183818e+02  -1.378592e+02
  -1.197773e+02  -2.898640e+02
   4.915771e+01  -1.790538e+02
   1.321237e+02  -9.108939e+01
   8.355733e+01  -3.795181e+01
   1.167525e+02  -2.788852e+01
   1.796879e+02  -3.486494e+01
   2.287775e+02   3.724316e+01
   1.899639e+02   2.313026e+02
  -4.449147e+00   3.337401e+02
  -3.477261e+02   2.528043e+02
  -3.849809e+02   9.951669e+01
  -2.149415e+02  -9.780461e+01
  -1.863999e+00  -2.173830e+02
   1.174977e+02  -1.543307e+02
   4.827892e+01  -5.896694e+01
  -9.183320e+01   7.051265e+01
  -1.187465e+02   1.216739e+01
  -6.078167e+00  -1.318925e+02
   1.003730e+02  -1.131656e+02
   1.171027e+02   5.721347e+01
  -4.791200e+01   1.397618e+02
  -1.580765e+02   8.317068e+00
  -7.163363e+01  -1.896087e+02
   7.701240e+01  -2.628070e+02
   1.915463e+02  -1.052834e+02
   2.032442e+02   6.227662e+01
   1.811805e+02   1.947905e+02
   5.452659e+01   2.062735e+02
  -1.136434e+02   8.543845e+01
  -1.338283e+02  -1.205548e+01
  -5.323020e+01  -1.658282e+01
   2.273169e+01   1.719226e+01
  -1.519048e+01   9.797326e+01
  -7.838161e+01   5.913242e+01
  -1.334955e+02  -6.661820e+01
  -3.137625e+01  -3.306958e+01
   5.443430e+01  -5.475952e+00
   2.890438e+01   6.738519e+01
  -9.994523e+01   1.272438e+01
  -2.291100e+02  -6.961141e+01
  -1.850718e+02  -1.613492e+02
  -5.911599e+01  -1.743259e+02
   1.546540e+02  -1.596720e+02
   2.141920e+02  -5.097213e+01
   1.114649e+02   4.212709e+01
  -4.848307e+01   7.445060e+01
  -7.514413e+01  -1.151681e+01
   5.059707e+01  -5.101083e+01
   1.208724e+02  -3.221232e+01
   1.133436e+02   1.411620e+02
   2.280599e+01   1.602002e+02
  -8.294234e+01   1.180955e+02
  -9.857993e+01  -4.289357e+00
  -2.641085e+01  -5.396372e+01
  -6.472765e+00  -6.244552e+00
   5.274920e+01   5.026253e+01
  -4.242378e+01   7.230686e+01
  -1.667961e+02  -2.636393e+01
  -1.137113e+02  -1.026246e+02
   3.661187e+00  -1.270552e+02
   9.815932e+01  -1.067616e+02
   1.233810e+02   5.319968e+01
   7.067162e+01   8.466069e+01
  -6.676909e+01   9.568504e+01
  -7.200265e+01   5.136571e+00
  -9.094601e+00  -8.191953e+00
   1.770485e+01   1.320052e+01
  -2.915499e+01   5.721172e-01
  -5.707860e+01   1.556713e+00
  -8.390299e+01  -9.485404e+01
   4.588042e+01  -1.053287e+02
   6.978081e+01  -1.121103e+02
   1.464160e+02  -1.645326e+01
   1.133496e+02   1.233504e+02
  -9.240586e+00   1.547914e+02
  -6.123057e+01   1.001828e+02
  -1.095209e+02   4.142469e+00
  -4.812688e+01  -4.218284e+01
  -3.974030e+00  -2.172689e+01
  -1.121433e+01  -2.282525e+01
  -5.897625e+01  -7.530128e+00
  -3.961752e+01  -6.175995e+01
   2.889958e+01  -8.182829e+01
   1.140143e+02  -3.857250e+01
   5.066956e+01   1.348408e+01
  -2.759700e+01   9.861126e+01
  -1.192454e+02   4.918842e+01
  -1.536658e+02  -6.265980e+01
  -4.260012e+01  -1.563550e+02
   1.286130e+02  -1.523152e+02
   1.851343e+02  -3.022741e+01
   1.728079e+02   7.766723e+01
   7.002572e+01   1.403844e+02
  -1.935662e+01   9.354626e+01
  -4.251960e+01   3.240965e+01
  -9.113391e+01   4.910216e+01
  -4.885726e+01   7.022382e+01
  -5.908296e+01   5.095906e+01
  -7.913107e+01  -2.249039e+01
  -4.880200e+01  -1.186542e+02
   1.100536e+01  -1.330268e+02
   5.728291e+01  -9.786003e+01
   1.260078e+02   1.659166e+00
   9.402821e+01   1.042059e+02
  -1.070820e+01   1.236211e+02
  -9.172703e+01   5.300566e+01
  -3.700590e+01   1.769419e+01
   5.416861e+00  -4.732058e+01
   2.562714e+01  -2.762455e+01
  -1.920451e+01  -1.553392e+01
  -8.642165e+01   1.391834e-01
  -2.236032e+01   2.233104e-02
   3.175235e+01  -1.502033e+01
   1.320764e+02  -1.200471e+01
   9.099933e+01   3.482611e+01
   1.711523e+01   6.183133e+01
  -8.110611e+01   3.085587e+01
  -9.951885e+01   4.414355e+01
  -3.533234e+01  -3.173942e+01
   6.894226e+01  -2.144006e+01
   1.152645e+01   9.146271e+00
   7.225218e+00   4.347847e+01
  -9.415491e+01   2.823690e+01
  -7.325027e+01   1.172436e+01
  -1.523151e+01  -3.543813e+01
  -1.167439e+01  -4.541500e+01
  -4.270416e+01   4.748747e+00
  -3.655547e+01  -2.900085e+01
   1.719661e+01  -7.570885e+01
   4.332858e+01  -9.677606e+01
   6.630241e+01  -7.811871e+01
   9.065189e+01  -1.183426e+01
   6.441902e+01   1.111172e+02
  -4.331266e+01   1.129182e+02
  -7.220672e+01   4.745903e+01
  -7.691773e+01  -3.841035e+01
   3.689574e+01  -5.037944e+01
   9.391258e+01   6.765589e+01
   2.804453e+01   8.661473e+01
  -4.857740e+01   7.983390e+01
  -1.160754e+02   4.917102e+00
  -1.301286e+02   4.971200e+00
  -3.749903e+01  -6.950820e+01
   8.216249e+01  -4.205590e+01
   2.970324e+01   7.099835e-01
  -4.579652e+01   3.323794e+01
  -3.820894e+01  -4.128718e+01
   1.247982e+01  -5.239310e+01
   7.172152e+01  -1.059679e+02
   1.358972e+02  -3.836000e+01
   8.598106e+01   7.814863e+01
   2.470525e+01   1.090884e+02
  -4.715170e+01   1.026537e+02
  -6.762077e+01   1.853980e+01
  -2.353437e+01  -9.292201e+01
   2.611492e+01  -9.493124e+01
   1.804025e+01  -5.407951e+00
   1.474497e+01   3.354069e+01
   2.124983e+01   2.465118e+00
  -1.280514e+01   6.421932e+00
   1.800710e+01   1.320132e+01
   4.992713e+01   6.855640e+01
   2.565397e+01   1.025306e+02
  -3.662708e+01   4.417362e+01
  -9.084048e+01  -5.930357e+01
  -7.436916e+01  -5.851630e+01
  -5.021849e+01  -3.092421e+01
   6.728311e+01   1.894709e+00
   3.872568e+01  -3.171066e+00
   1.369463e+00  -8.961270e-02
  -4.732812e+01   1.151689e+01
  -7.761893e+00   3.162186e+01
   3.594205e+01   1.056656e+01
  -2.159163e+01  -5.359845e+00
  -2.276075e+01  -2.765948e+01
  -7.802474e+01  -1.008567e+01
   4.685123e+00  -2.912720e+01
   7.826002e+01  -9.462267e+01
   1.683570e+02  -3.252280e+01
   9.266840e+01   2.617671e+01
  -8.251804e+00   1.418865e+02
  -5.612433e+01   1.280579e+02
  -7.414036e+01   3.631600e+01
  -5.636353e+01   1.231234e+01
  -3.271680e+00  -3.942613e+01
   2.711518e+01   1.848363e+01
   4.086145e+00   1.495139e+01
  -4.706731e+01  -3.523265e+01
  -1.235476e+01  -4.832209e+01
   3.415775e+01  -6.895775e+01
   5.220956e+01   1.720122e+01
   3.793118e+01   7.654423e+01
  -9.456344e+00   5.831836e+01
  -5.109355e+01   1.493918e+01
  -8.523247e+01  -9.080384e+01
  -2.227063e+01  -8.269543e+01
   7.594813e+01  -5.913316e+01
   7.919287e+01   2.274083e+01
   1.329062e+01   4.121707e+01
  -5.276090e+01   3.090356e+01
  -1.254478e+01   1.612962e+01
   1.213422e+01   1.558312e+01
   5.726213e+01   3.314705e-01
   4.019578e+00   8.807540e+00
  -6.038103e+01   3.583903e+01
  -1.089055e+02   4.130815e+01
  -7.166725e+01  -3.766002e+01
   2.391298e+01  -4.641014e+01
   4.551130e+01  -8.201440e+01
   2.647321e+01   3.272833e+00
   9.794488e+00   3.340745e+01
  -1.676529e+01   4.431423e+01
   1.170578e+01  -2.121333e+01
  -2.396384e+01  -2.223647e+01
   1.953416e+01  -3.101835e+01
   3.788496e+01  -2.354428e+00
   5.510987e+00   2.804472e+01
   7.707109e+00   1.119622e+01
   3.195196e+01  -2.662450e+01
   6.478555e+00  -4.757025e+00
   5.521465e+00   1.275538e+01
  -7.226880e+00   3.259862e+01
  -2.242583e+01   1.329134e+01
  -3.416688e+01  -2.941510e+01
  -9.289099e+00  -3.964959e+01
   3.070806e+01   2.804290e+01
   4.538641e+01   6.299519e+01
   2.834538e+01   7.055404e+01
  -3.637793e+01   9.934760e-01
  -4.842061e+01  -1.719151e+01
  -4.487425e+01  -1.571146e+01
   9.102536e+00  -3.941561e+01
   5.228656e+01  -3.780652e+01
  -8.562669e+00  -3.350331e+00
  -1.580755e+01  -1.930564e+01
  -1.903492e+01  -2.962300e+01
  -1.360249e+01  -2.808704e+01
   6.193869e+01  -4.312459e+01
