
 $NMID
 id='ANONYMOUS ', fmtdat='(2E16.6)'
 volume=1.0
 tramp=1.0
 $END
  -4.289737e+03  -5.188047e+02
  -2.579983e+03  -2.531957e+03
   9.589647e+02  -3.118224e+03
   2.497639e+03  -8.096021e+02
   9.898119e+02   8.159008e+02
  -6.991931e+02   7.011785e+02
  -9.590742e+02  -4.316235e+02
   1.177149e+02  -1.151640e+03
   9.992575e+02  -7.074632e+02
   9.882346e+02   1.299095e+02
   3.834375e+02   9.293014e+02
  -2.302922e+02   9.532341e+02
  -7.072700e+02   9.242121e+01
  -3.876695e+02  -7.042197e+02
   4.082415e+02  -7.637182e+02
   6.517749e+02   1.015650e+02
   1.659998e+02   7.520693e+02
  -3.098584e+02   6.150369e+02
  -6.234604e+02   3.004282e+01
  -3.552338e+02  -4.668288e+02
   2.456119e+01  -4.670867e+02
   3.021286e+02  -2.391489e+02
   2.413501e+02   1.768257e+01
  -1.245088e+02   9.748808e+01
  -4.192079e+02  -1.729797e+02
  -1.797108e+02  -3.456978e+02
   4.012459e+02  -3.381855e+02
   8.893496e+02   1.119842e+02
   3.193907e+02   6.033894e+02
  -3.346743e+02   4.593852e+02
  -7.239087e+02  -6.952061e+01
  -2.692216e+02  -5.092613e+02
   3.112104e+02  -4.879466e+02
   5.631455e+02  -2.190721e+02
   4.082359e+02   2.283754e+02
   3.213945e+01   4.987027e+02
  -2.097050e+02   3.251274e+02
  -2.042964e+02  -2.691430e+02
   1.678472e+02  -4.929246e+02
   4.287567e+02  -2.092691e+00
   1.356134e+02   7.031861e+02
  -2.431671e+02   6.686493e+02
  -5.962352e+02   2.741019e+01
  -2.583428e+02  -5.306599e+02
   3.614839e+02  -3.427496e+02
   3.580039e+02   4.144016e+02
  -1.181365e+02   5.637335e+02
  -5.268241e+02   5.710308e+01
  -5.889235e+02  -3.553919e+02
  -7.446434e+01  -6.098795e+02
   3.822001e+02  -2.717968e+02
   5.826580e+02   1.503883e+02
   3.446898e+02   4.499890e+02
  -1.870048e+02   3.751228e+02
  -4.884027e+02   1.227752e+01
  -2.528714e+02  -2.267497e+02
   1.312824e+02  -1.126187e+02
   1.606015e+02   1.206017e+02
  -1.989101e+02   2.333942e+02
  -3.514841e+02  -8.165677e+01
  -1.120520e+02  -3.255098e+02
   2.129748e+02  -2.458092e+02
   2.906247e+02  -3.451462e+01
   1.318559e+02   1.315569e+02
  -1.747191e+01   2.145439e+02
  -2.939589e+02   2.655665e+02
  -3.182813e+02   2.269401e+02
  -2.801160e+02  -2.179618e+02
   7.590037e+00  -4.439500e+02
   1.623154e+02  -3.776174e+02
   1.242850e+02  -1.159174e+02
   5.721394e+01   5.300230e+01
   3.714583e+01  -2.020151e+01
   1.679498e+02  -9.693385e+01
   2.166383e+02   6.290105e+01
   1.207003e+02   2.525804e+02
  -9.604991e+01   2.284994e+02
  -2.316333e+02   5.484510e+01
  -1.599302e+02  -2.367432e+02
   4.681235e+01  -2.509908e+02
   2.894386e+02  -1.131228e+02
   3.558320e+02   1.908557e+02
   1.854412e+02   3.634043e+02
  -1.073410e+02   2.976820e+02
  -1.945801e+02   1.159790e+02
  -1.606875e+02  -1.395869e+00
  -1.018782e+02   4.002883e+01
  -1.957992e+02   4.418079e+01
  -3.141355e+02   6.713069e+00
  -2.938805e+02  -2.612750e+02
   6.567782e+01  -3.701787e+02
   3.990784e+02  -2.981299e+02
   4.420556e+02  -1.663538e+02
   3.268985e+02   1.388738e+02
   4.235087e+01   2.803858e+02
  -1.902094e+02   2.343924e+02
  -1.019215e+02   4.286970e+01
   1.163835e+02  -1.021534e+02
   2.285288e+02   3.168602e+01
   3.720896e+01   2.071056e+02
  -1.332810e+02   1.819322e+02
  -1.676989e+02  -5.443733e+01
   6.525483e+01  -1.766230e+02
   1.679829e+02  -2.422893e+01
   1.469607e+02   2.413985e+02
  -7.942820e+01   3.234565e+02
  -2.793114e+02   1.731822e+02
  -3.147026e+02  -1.048575e+02
  -2.191961e+02  -2.085451e+02
  -9.186167e+01  -2.537850e+02
   1.313455e+02  -1.711766e+02
   1.579735e+02  -9.196198e+00
   8.900639e+01   1.618840e+01
  -5.595589e+01  -1.895240e+01
  -2.589171e+01  -1.177223e+02
   1.199153e+02  -8.623995e+01
   1.891036e+02   1.424185e+01
   3.844901e+01   6.259245e+01
  -4.417497e+01  -5.611344e+00
  -4.913445e+01  -7.095889e+01
   1.147490e+02  -6.534396e+01
   2.723459e+02   5.180490e+00
   1.853027e+02   1.571422e+02
   6.419654e+01   2.157238e+02
  -1.799296e+02   2.253166e+02
  -2.704710e+02   8.363939e+01
  -1.587115e+02  -4.763180e+01
   3.975586e+01  -9.980305e+01
   8.303137e+01   1.566760e-01
  -4.718465e+01   1.014921e+02
  -1.847924e+02   6.434701e+01
  -1.822781e+02  -1.330432e+02
  -5.898523e+01  -1.995134e+02
   1.110151e+02  -1.421741e+02
   1.243405e+02  -8.406346e+00
   3.626190e+01   5.531660e+01
  -1.921642e+01  -1.282892e+01
  -2.224074e+01  -6.567823e+01
   8.138374e+01  -9.581238e+01
   1.985379e+02   2.702544e+01
   1.744534e+02   1.335218e+02
   1.397812e+01   1.725957e+02
  -1.572868e+02   1.423663e+02
  -2.076432e+02  -2.328062e+01
  -6.774083e+01  -1.222065e+02
   5.031867e+01  -6.815657e+01
   1.003701e+02   5.852313e+00
   4.111210e+01   3.102818e+01
  -2.507049e+01   4.165635e+01
   3.486749e+01   1.647209e+01
   2.915559e+01   2.746652e+01
   8.395191e+01   6.551163e+01
  -3.608123e+01   1.564419e+02
  -9.156175e+01   1.156442e+02
  -2.129161e+02   1.632360e+01
  -2.008100e+02  -1.341440e+02
  -8.227686e+00  -1.998655e+02
   9.058912e+01  -1.405486e+02
   1.429597e+02  -3.018902e+01
   4.701215e+01   7.372404e+01
   1.394172e+01   3.849861e+01
   2.538582e+01  -9.579862e+00
   6.604581e+01   1.581060e+01
   4.949621e+01   1.005802e+01
  -5.183433e+01   7.854633e+01
  -1.132556e+02   4.308256e+01
  -5.673542e+01  -2.802354e+01
   9.065622e+00  -8.619735e+01
   1.356528e+02  -7.480255e+01
   1.925900e+02   5.357689e+01
   6.017347e+01   1.720577e+02
  -1.246194e+02   2.112658e+02
  -2.686527e+02   7.335006e+01
  -2.593671e+02  -1.118373e+02
  -1.124143e+02  -2.021315e+02
   4.536719e+01  -1.555653e+02
   1.026307e+02  -9.938533e+01
   5.392693e+01  -7.823380e+01
   6.215088e+01  -8.938019e+01
   6.358655e+01  -8.175039e+01
   1.114971e+02   4.359353e+01
   1.385837e+02   1.617806e+02
  -7.299123e+00   2.152972e+02
  -7.583584e+01   1.499170e+02
  -1.592694e+02   1.034905e+01
  -1.233776e+02  -1.333638e+02
  -3.774878e+00  -1.235101e+02
   8.856027e+01  -8.144285e+01
   6.186097e+01   1.227236e+01
   8.185101e+00   1.306785e+01
   1.408190e+01   5.453015e+01
   4.256151e+01   3.926328e+01
   1.002596e+02   2.973086e+01
   2.541686e+01   4.311537e+01
  -6.475683e+01   5.722373e+01
  -1.344105e+02  -3.024064e+01
  -1.136614e+02  -8.072302e+01
  -4.550085e+00  -8.217962e+01
   9.392630e+01  -7.313170e+01
   1.539135e+02  -6.553136e+00
   5.975152e+01   5.423860e+01
  -3.188389e+01   2.165260e+01
  -7.668076e+01  -7.358332e+01
   2.274483e+01  -4.489851e+01
   4.836100e+01  -4.205674e+01
   1.008556e+02   1.933135e+01
   3.564161e+01   6.006909e+01
   4.922730e+01   4.893281e+01
   5.238983e+01  -1.124073e+01
   5.269045e+01   1.709109e+01
   2.230983e+01   7.768105e+01
  -6.509672e+01   1.207948e+02
  -1.242579e+02   1.398841e+02
  -1.441316e+02   3.559567e+01
  -1.024622e+02  -1.143103e+02
   3.309007e+01  -1.409626e+02
   9.351867e+01  -7.360357e+01
   6.398593e+01   5.500204e+01
  -5.939538e+01   3.516144e+00
  -1.563414e+02  -7.045685e+01
  -5.133688e+01  -7.381699e+01
   5.937000e+01  -7.137905e+01
   1.755691e+02  -7.724304e+01
   1.324767e+02   2.317421e+01
   3.409369e+01   8.040868e+01
  -5.384812e+01   6.493868e+01
  -3.847831e+01   2.919443e+01
   5.710056e+01  -1.976217e+01
   7.222162e+01   2.538110e+01
   3.467616e+00   1.276566e+02
  -1.131245e+02   1.534160e+02
  -1.568257e+02   4.709934e+01
  -1.345809e+02  -1.209358e+02
  -3.834242e+01  -1.386565e+02
   8.168645e+01  -1.054390e+02
   1.277661e+02   3.595146e+01
   4.039855e+01   7.253453e+01
   1.242120e+01   7.132454e+01
  -3.064227e+01   2.957184e+01
  -2.367484e+01  -4.589442e+01
  -2.996352e+01  -5.252875e+00
  -6.049726e-01   3.077219e+01
  -5.678582e+00  -7.659523e+00
  -4.646934e+01  -1.092449e+02
  -3.087637e+01  -8.440573e+01
   7.407637e+01  -3.625494e+01
   1.415490e+02   5.036628e+01
   1.383190e+02   7.054330e+01
   1.917215e+01   3.882707e+01
  -8.131765e+01   4.242954e+01
  -8.502822e+01   7.244330e+00
  -3.385296e+00  -1.620847e+01
   6.709920e+01   1.247724e+01
  -1.431158e+01  -3.497564e+01
  -1.858843e+01   1.501247e+00
  -6.070175e+00  -2.902153e+00
   8.600397e+01   1.984981e+01
   8.323750e+01   3.193011e+01
  -2.892307e+01   1.058461e+02
  -9.108091e+01   1.047551e+02
  -1.745751e+02   1.724107e+01
  -1.213343e+02  -5.881495e+01
  -3.143948e-01  -1.816012e+02
   8.831679e+01  -1.446101e+02
   1.047857e+02  -3.104470e+01
   8.501216e+01   8.763069e-01
   2.254300e+01   6.832514e+01
   9.979427e+00   1.139666e+01
  -6.795768e+00   7.810349e+00
   4.513896e+01   6.474041e+01
  -2.301341e+00   4.566699e+01
  -5.631536e+01   6.972569e+01
  -6.552999e+01   7.588269e+00
  -7.116399e+01  -1.160343e+02
   3.451066e+01  -1.230569e+02
   9.326414e+01  -3.808953e+01
   8.490294e+01   8.854168e+01
   2.122828e+01   1.151075e+02
  -7.830268e+01   5.896782e+01
  -8.433993e+01  -2.817838e+01
  -9.166109e+00  -3.971460e+01
   6.129118e+01  -3.818119e+01
   3.495140e+01   2.767119e+00
  -2.317030e+01   1.553488e+00
  -6.415199e+01  -1.421131e+01
  -9.466444e+00  -1.753575e+01
   5.994592e+01  -4.668180e+01
   1.039894e+02  -4.519933e+01
   6.763242e+01   1.823113e+01
  -3.996717e+01   7.268177e+01
  -5.765287e+01   9.127369e+01
   3.177539e+00  -1.227141e+01
  -2.246407e+01  -5.063503e+01
   9.004854e+00  -3.790614e+01
   3.135495e+01   2.975889e+01
   3.319896e+01   4.687533e+01
  -1.245923e+01   1.958306e+01
  -5.113072e+01  -3.547389e+01
  -2.668314e+01  -1.509272e+01
  -1.333401e+01  -3.124027e+01
  -4.575080e+00   3.056728e+01
   2.850017e+01   1.344644e+01
   1.393212e+01  -4.618539e+01
   6.399967e+01  -1.878622e+01
   4.852340e+01  -1.080771e+01
   3.050515e+01   2.258803e+01
  -2.126662e+01   4.500202e+01
  -5.753702e+01   9.302622e+00
  -3.708962e+01  -4.797594e+01
   5.158802e+00  -7.765855e+01
   5.275174e+01  -4.275511e+01
   5.521391e+01   3.316814e+01
   3.152536e+01   3.455159e+01
  -3.204170e+01   1.869050e+01
  -5.404754e+01  -1.882821e-01
  -1.988106e+01  -3.105083e+00
   1.223502e+01   9.602535e+00
   4.371834e+01   8.768041e+00
  -3.328767e+01   1.554030e+01
  -1.017307e+02   2.094530e+01
