
 $NMID
 id='ANONYMOUS ', fmtdat='(2E16.6)'
 volume=1.0
 tramp=1.0
 $END
   4.360619e+03  -1.010923e+02
   2.340574e+03   2.368468e+03
  -6.799411e+02   2.565299e+03
  -1.997192e+03   8.520144e+02
  -9.949123e+02  -5.427065e+02
   6.032884e+02  -3.520318e+02
   8.447824e+02   3.843307e+02
  -7.122484e+01   9.082027e+02
  -7.877224e+02   7.014369e+02
  -8.577619e+02  -7.772958e+01
  -4.589669e+02  -8.867028e+02
   2.022288e+02  -8.213059e+02
   6.382336e+02  -1.140246e+02
   3.925536e+02   6.710153e+02
  -2.396479e+02   6.530567e+02
  -6.377299e+02  -3.845971e+01
  -2.471705e+02  -6.972127e+02
   2.830771e+02  -6.905077e+02
   6.088053e+02  -1.383707e+02
   3.931199e+02   3.105056e+02
   2.011491e+01   4.218529e+02
  -3.097551e+02   2.612401e+02
  -1.828422e+02  -5.111692e+00
   1.983218e+02  -1.843258e+01
   4.218221e+02   2.161466e+02
   1.715036e+02   4.198473e+02
  -4.845024e+02   2.902399e+02
  -8.618105e+02  -1.623019e+02
  -3.807613e+02  -5.977344e+02
   3.873365e+02  -4.425355e+02
   8.190045e+02   3.139302e+00
   3.828282e+02   4.677754e+02
  -3.569250e+02   4.741390e+02
  -5.503458e+02   1.805635e+02
  -4.127082e+02  -1.816774e+02
  -8.428633e+01  -4.432661e+02
   1.928401e+02  -2.523781e+02
   1.308705e+02   2.295359e+02
  -2.567181e+02   3.853390e+02
  -4.364680e+02  -1.949817e+01
  -1.594520e+02  -7.740253e+02
   3.196264e+02  -6.506039e+02
   5.098206e+02  -3.879967e+01
   2.474425e+02   4.646246e+02
  -3.362266e+02   2.761632e+02
  -3.445221e+02  -3.459067e+02
   1.978116e+02  -4.541293e+02
   6.087093e+02  -1.124441e+02
   5.969825e+02   3.788107e+02
   1.687187e+02   5.949007e+02
  -3.326468e+02   3.256094e+02
  -6.185244e+02  -8.596462e+01
  -3.753554e+02  -4.211067e+02
   1.510828e+02  -3.140378e+02
   4.386786e+02  -2.852965e+01
   2.361698e+02   1.517593e+02
  -1.245994e+02   5.508637e+01
  -1.196304e+02  -1.273054e+02
   1.614095e+02  -2.066313e+02
   3.453789e+02   1.327719e+02
   1.708495e+02   2.969436e+02
  -2.350385e+02   2.528094e+02
  -3.613476e+02   3.452965e+01
  -2.231129e+02  -1.246243e+02
  -2.528470e+01  -2.360891e+02
   2.606265e+02  -3.463269e+02
   4.010642e+02  -2.597611e+02
   3.085702e+02   1.748838e+02
   1.047868e+02   4.292086e+02
  -1.154343e+02   4.172635e+02
  -1.066221e+02   1.437112e+02
  -8.633644e+00   3.064176e+00
  -3.296368e+01   1.179997e+02
  -1.905818e+02   1.100955e+02
  -2.453156e+02  -9.318726e+01
  -1.334231e+02  -2.859946e+02
   8.723248e+01  -2.547156e+02
   2.486688e+02  -3.652758e+01
   1.990175e+02   2.363152e+02
   7.650059e+00   2.896759e+02
  -3.210569e+02   1.016093e+02
  -3.612497e+02  -1.961246e+02
  -1.669989e+02  -3.336556e+02
   9.789899e+01  -2.896424e+02
   1.999926e+02  -1.383456e+02
   1.421061e+02   2.541563e+01
   8.294503e+01  -4.959901e+01
   2.165765e+02  -7.104860e+01
   4.269292e+02   1.165061e+01
   3.505909e+02   2.798532e+02
  -8.672282e+00   4.155631e+02
  -4.439751e+02   3.593762e+02
  -4.992436e+02   2.231563e+02
  -3.324463e+02  -1.336074e+02
  -5.489734e+01  -2.991322e+02
   1.848253e+02  -2.148490e+02
   6.470840e+01  -3.065896e+01
  -1.358988e+02   1.140764e+02
  -2.057365e+02   6.398093e+00
  -1.658667e+01  -1.727082e+02
   1.765957e+02  -1.892321e+02
   1.538604e+02   6.462572e+01
  -7.083344e+00   2.021905e+02
  -1.723000e+02   2.039229e+01
  -1.769878e+02  -2.268600e+02
   5.991902e+01  -3.797514e+02
   2.443127e+02  -2.287136e+02
   3.476864e+02   2.904431e+01
   2.786940e+02   2.963142e+02
   1.156130e+02   2.796300e+02
  -1.274416e+02   1.734045e+02
  -1.883971e+02   4.975567e+01
  -4.501004e+01  -7.143415e+00
   6.218037e+01   2.718087e+01
   1.241881e+01   1.334074e+02
  -1.320035e+02   9.302673e+01
  -1.695396e+02  -2.909561e+01
  -9.099734e+01  -8.076668e+01
   7.666038e+01  -2.067568e+01
   4.431344e+01   7.293639e+01
  -1.553222e+02   1.004027e+02
  -3.085800e+02   2.213180e+01
  -2.783508e+02  -1.507444e+02
  -3.102299e+01  -2.399180e+02
   2.274438e+02  -3.269796e+02
   2.969158e+02  -8.654594e+01
   1.847352e+02   3.961799e+01
   7.764021e+00   8.760818e+01
  -6.717199e+01  -1.080548e+01
   6.033094e+01  -1.307182e+02
   1.976093e+02  -3.666674e+01
   2.264500e+02   1.303192e+02
   8.982087e+01   2.290579e+02
  -9.968751e+01   1.394827e+02
  -1.688145e+02   3.306650e+01
  -7.801283e+01  -5.483322e+01
   4.347857e+01  -6.696681e-01
   1.653694e+01   6.977792e+01
  -9.109551e+01   1.429649e+02
  -2.248018e+02   4.911291e+01
  -1.570752e+02  -1.410479e+02
  -1.509110e+01  -2.135574e+02
   1.111738e+02  -1.522205e+02
   1.948981e+02   1.539285e+01
   9.282827e+01   1.132085e+02
  -6.902814e+01   1.069245e+02
  -8.455472e+01   3.874375e+01
  -6.316249e+00  -5.739497e+01
   1.523099e+01  -9.321585e+00
   3.290850e+00   1.430604e+00
  -6.303145e+01  -1.743454e+01
  -6.374126e+01  -1.004739e+02
   1.424472e+01  -1.885515e+02
   1.400999e+02  -1.027042e+02
   2.189784e+02  -5.504708e+01
   2.320601e+02   1.454557e+02
   4.404129e+01   2.525318e+02
  -9.849485e+01   1.518926e+02
  -1.229351e+02  -8.618171e+00
  -6.417898e+01  -4.411735e+01
  -2.726572e+01  -3.932986e+01
  -8.034873e+01   3.195340e+00
  -8.134346e+01  -1.434218e+01
  -5.690764e+01  -6.674188e+01
   7.172219e+01  -7.006692e+01
   9.989809e+01  -3.370671e+01
   1.106081e+02   3.320737e+01
  -2.428236e+01   1.416800e+02
  -1.463863e+02   6.049176e+01
  -1.954596e+02  -1.172360e+01
  -8.531273e+01  -2.188583e+02
   1.458115e+02  -2.450860e+02
   2.761695e+02  -1.302828e+02
   2.472033e+02   1.482320e+02
   1.224076e+02   1.916489e+02
  -1.642646e+01   1.411384e+02
  -7.244736e+01   8.378382e+01
  -6.346043e+01   5.634870e+01
  -5.217520e+01   9.485855e+01
  -9.753590e+01   8.670704e+01
  -1.515041e+02  -5.507499e+00
  -1.147752e+02  -1.214495e+02
  -1.392416e+01  -2.488156e+02
   6.497526e+01  -1.690908e+02
   1.942155e+02  -1.168304e+01
   1.469046e+02   1.441459e+02
   2.206175e+00   1.490751e+02
  -5.449119e+01   9.739846e+01
  -5.002872e+01  -7.175292e+00
   2.248399e+01  -2.892474e+01
   1.058596e+01  -3.939805e+01
  -3.032928e+01  -7.588315e+00
  -7.219755e+01  -1.555323e+01
  -7.579770e+01  -6.876219e+01
   6.960210e+01  -5.150485e+01
   1.532705e+02   7.698988e+00
   1.541928e+02   3.085088e+01
   1.677905e+01   1.009623e+02
  -1.319050e+02   6.648573e+01
  -1.367431e+02   3.765653e+01
  -6.531790e+01  -5.535751e+01
   6.117508e+01  -2.803019e+01
   7.548493e+01   4.467093e+01
  -2.145700e+01   7.045321e+01
  -4.549003e+01   8.161731e+01
  -7.662181e+01   1.450535e+01
  -5.506864e+01  -3.564251e+01
  -3.830039e+01  -5.793510e+01
  -7.063138e+01  -2.107307e+01
  -7.044808e+01   3.003368e+01
  -2.838237e+01  -8.915546e+01
   1.838796e+00  -1.112090e+02
   1.546140e+02  -1.309594e+02
   2.032888e+02  -9.779629e+00
   1.387692e+02   6.952745e+01
  -1.345626e+01   1.624297e+02
  -8.006580e+01   3.785359e+01
  -6.257008e+01  -1.904373e+01
   6.971619e+01  -2.092263e+01
   1.394579e+02   6.090411e+01
   8.302203e+01   1.178622e+02
  -5.707766e+01   1.076780e+02
  -1.966375e+02   2.062224e+01
  -1.358650e+02   8.392437e+00
  -4.230684e+01  -7.425987e+01
   7.378951e+01  -5.541847e+01
   4.948198e+01  -1.743179e+01
  -4.755806e+01   4.139076e+01
  -9.346195e+01  -9.556356e+00
  -4.183790e+01  -1.284705e+02
   1.194600e+02  -1.739866e+02
   1.904680e+02  -7.430946e+01
   1.621586e+02   1.016368e+02
   2.816982e+01   1.904598e+02
  -8.322985e+01   1.561359e+02
  -8.941899e+01  -1.857434e+01
  -8.004510e+01  -1.259815e+02
   1.949405e+01  -9.830331e+01
   3.743975e+01  -9.024477e+00
   5.251510e+01   4.148844e+01
   3.257964e+01   3.703000e+00
   1.016422e+01  -3.391750e+01
   1.466267e+01   3.414790e+01
   6.997207e+01   1.059214e+02
   3.018967e+01   1.197265e+02
  -5.585419e+01   6.072327e+01
  -1.382826e+02  -6.329703e+01
  -1.286871e+02  -7.044660e+01
  -4.769607e+01  -5.076438e+01
   8.677572e+01  -2.509690e+01
   8.672859e+01   8.410178e+00
   2.059464e+01   1.368088e+01
  -1.987396e+01   6.142666e-01
  -1.624455e+01   1.040568e+01
  -1.217667e+00  -2.857801e+01
  -5.826798e+00  -2.190308e+01
  -9.184936e+01   1.970678e+01
  -1.290169e+02   6.728851e+00
   5.732460e+00  -9.488722e+01
   8.438511e+01  -1.092753e+02
   2.012699e+02  -2.856163e+01
   1.473190e+02   2.924459e+01
   2.483671e+01   1.831910e+02
  -1.033117e+02   1.221042e+02
  -1.029527e+02   6.865126e+01
  -1.081101e+02  -5.290059e+00
  -1.576092e+00  -4.891818e+01
  -2.236325e+01  -2.004796e+01
   3.207635e+01   2.346503e+01
  -4.816443e+01  -6.518184e+01
  -3.243438e+01  -6.137978e+01
   3.413841e+01  -5.048401e+01
   6.407976e+01  -4.093483e+00
   8.376294e+01   1.235669e+02
   4.249243e+00   1.163157e+02
  -6.537037e+01   1.934505e+01
  -9.574966e+01  -8.879635e+01
  -2.562706e+01  -6.744084e+01
   4.886106e+01  -6.408638e+01
   8.813400e+01  -6.916899e+00
   4.831633e+01   3.907965e+01
  -6.742986e+01   5.372705e+01
  -2.653481e+01   1.923509e+01
   6.630518e+01   1.709901e+00
   5.251286e+01  -1.698152e+01
   2.001644e+01   1.131593e+01
  -1.035853e+02   8.046582e+01
  -1.213048e+02   1.265291e+01
  -6.401841e+01  -4.125101e+01
   1.672745e+01  -8.650225e+01
   3.685203e+01  -6.412455e+01
   3.999892e+01  -2.686375e+01
   1.107233e-01   4.974634e+01
  -1.319877e+01   1.126222e+01
   1.769212e+00   2.875403e+00
  -3.089961e+01  -3.977628e+01
   6.860394e+00  -1.819650e+01
   3.856586e+01   2.111849e+01
   2.290815e+01   2.410997e+01
   8.022291e+00  -8.399924e+00
  -9.716011e+00  -2.833473e+00
  -3.737542e+01  -1.720939e+01
   8.389327e+00   2.965332e+01
  -3.749712e+01   2.108686e+01
  -4.406033e+01  -2.227853e+01
  -3.649585e+01  -2.089324e+01
   5.415033e+00  -3.773845e+01
   3.994225e+01  -1.775448e+01
   4.902501e+01   3.457890e+01
  -6.456845e+00   7.393551e+01
  -5.883496e+01   2.232192e+01
  -5.285869e+01  -2.335941e+01
  -2.797873e+01  -1.581154e+01
   2.263221e+01  -5.977176e+01
   9.378662e+01  -3.984577e+01
   2.870202e+01   1.514687e+01
  -2.681980e+01   7.201448e+00
  -5.784687e+01  -4.145225e+01
   3.862887e+01  -3.132113e+01
   1.007927e+02  -1.697793e+01
