
 $NMID
 id='ANONYMOUS ', fmtdat='(2E16.6)'
 volume=1.0
 tramp=1.0
 $END
   2.628751e+03   2.937964e+02
   1.562736e+03   1.773267e+03
  -2.540962e+02   1.846747e+03
  -1.326421e+03   7.396364e+02
  -8.847419e+02  -1.286912e+02
   7.614447e+01  -2.921738e+02
   4.361043e+02   2.067969e+02
   1.693109e+01   5.421378e+02
  -4.724339e+02   5.270623e+02
  -5.390933e+02  -9.912766e+01
  -2.945088e+02  -5.307773e+02
   1.476572e+02  -5.628254e+02
   3.260312e+02  -1.394846e+02
   3.081268e+02   3.514430e+02
  -2.822840e+02   4.405744e+02
  -3.602073e+02   1.144501e+01
  -1.383481e+02  -4.486544e+02
   1.514833e+02  -5.603496e+02
   3.613403e+02  -5.354164e+01
   3.153163e+02   2.021933e+02
   3.457233e+01   3.398514e+02
  -1.386786e+02   2.196396e+02
  -1.167788e+02  -2.187245e+01
   1.349790e+02   5.955296e+01
   1.729321e+02   1.555339e+02
   6.254940e+01   3.074742e+02
  -3.620574e+02   2.193381e+02
  -5.731684e+02  -2.472359e+02
  -2.390562e+02  -3.697612e+02
   2.498981e+02  -2.168131e+02
   4.632599e+02   8.769281e+01
   1.460739e+02   2.837599e+02
  -2.370371e+02   2.601976e+02
  -3.900676e+02   1.129936e+02
  -2.598113e+02  -1.465110e+02
  -2.448929e+00  -3.111521e+02
   8.274041e+01  -1.742019e+02
  -2.389922e+01   4.428171e+01
  -1.805176e+02   1.719461e+02
  -1.880071e+02  -1.081036e+02
  -2.561165e+01  -3.929495e+02
   1.940201e+02  -4.839688e+02
   3.383058e+02  -5.915815e+01
   1.175999e+02   3.077250e+02
  -1.655338e+02   1.071706e+02
  -1.336600e+02  -2.595453e+02
   1.132004e+02  -3.424773e+02
   4.164984e+02  -1.310578e+01
   4.105667e+02   2.990590e+02
   5.160999e+01   4.030250e+02
  -2.590637e+02   2.292754e+02
  -3.936961e+02  -7.937176e+01
  -2.713400e+02  -2.290776e+02
   4.563523e+01  -1.756823e+02
   3.079224e+02   1.807779e+01
   1.784477e+02   1.128563e+02
  -2.590975e+01   5.328747e+01
  -6.792022e+01  -6.352332e+01
   9.204790e+01  -7.442902e+01
   2.104145e+02   8.841972e+01
   8.643987e+01   1.535920e+02
  -1.184129e+02   1.988846e+02
  -2.883710e+02   5.228936e+01
  -1.866946e+02  -5.479706e+01
   2.886082e+01  -2.300174e+02
   2.321144e+02  -2.174849e+02
   2.861202e+02  -7.513396e+01
   1.661473e+02   1.332173e+02
  -1.024492e+01   2.981905e+02
  -7.059805e+01   2.804361e+02
  -7.155460e+01   1.239735e+02
  -1.223229e+01   2.783677e+01
  -8.535895e+01   8.124226e+01
  -2.173192e+02  -7.378532e+00
  -1.652368e+02  -8.669351e+01
  -7.190812e+01  -1.739412e+02
   9.041223e+01  -1.396629e+02
   1.789166e+02   3.690078e+01
   9.354674e+01   1.680690e+02
  -1.554725e+01   1.968557e+02
  -1.877885e+02   7.042908e+00
  -2.243451e+02  -1.891597e+02
  -1.111010e+02  -2.743590e+02
   2.649314e+01  -2.515429e+02
   1.429596e+02  -1.361099e+02
   1.169317e+02  -5.395855e+01
   1.296585e+02  -5.999930e+00
   2.097283e+02  -4.953156e+01
   3.296482e+02   7.310737e+01
   2.316797e+02   2.485221e+02
  -2.084753e+01   3.109863e+02
  -2.678062e+02   2.108323e+02
  -3.392465e+02   6.793935e+01
  -2.581250e+02  -1.268383e+02
   2.197416e+01  -1.976813e+02
   1.213596e+02  -1.361689e+02
  -3.004874e+00  -6.723713e+01
  -1.110020e+02   3.526159e+01
  -1.211424e+02  -1.985665e+01
  -1.760098e+01  -1.119016e+02
   1.044340e+02  -5.859317e+01
   7.207613e+01   5.560276e+01
  -1.719577e+01   1.037397e+02
  -1.377550e+02  -1.837686e+01
  -1.249394e+02  -1.957164e+02
   7.884102e+01  -2.268594e+02
   2.253989e+02  -1.082127e+02
   2.234999e+02   8.987718e+01
   2.436454e+02   1.654401e+02
   4.816048e+01   2.293880e+02
  -1.227993e+02   1.108046e+02
  -1.238538e+02  -1.050574e+00
  -3.707833e+01  -2.346406e+01
   7.266889e+01   5.298413e+01
  -3.587412e+01   8.276392e+01
  -1.067792e+02   4.684537e+01
  -1.046190e+02  -6.025344e+01
  -4.268393e+01  -1.814501e+01
   5.540210e+01   2.047901e+01
   3.493753e+01   8.108044e+01
  -1.205482e+02   5.629195e+01
  -2.289150e+02  -7.981550e+01
  -1.787703e+02  -1.237152e+02
  -3.584923e+01  -2.284842e+02
   1.542052e+02  -1.415042e+02
   1.988367e+02  -4.687377e+01
   1.130459e+02   4.283557e+01
  -3.946780e+01   6.761305e+01
  -3.459013e+01  -2.238584e+01
   3.491201e+01  -6.272121e+01
   1.496143e+02  -5.526416e+00
   1.169512e+02   1.344879e+02
   1.542278e+01   1.473225e+02
  -9.502046e+01   1.208342e+02
  -7.925598e+01   8.072165e+00
  -3.145257e+01  -5.138174e+01
   3.262215e+00   3.087203e+01
   3.554648e+01   7.876376e+01
  -7.425036e+01   8.402889e+01
  -1.414432e+02  -6.896040e+00
  -1.283282e+02  -1.113018e+02
   5.731997e+00  -1.411917e+02
   1.325363e+02  -1.142031e+02
   1.662205e+02   2.983625e+01
   5.846852e+01   4.917552e+01
  -6.700618e+01   9.812935e+01
  -4.522771e+01   1.000451e+01
  -1.404903e+00  -1.507418e+01
   3.526087e+01   8.805593e+00
  -2.541555e+01   1.428432e+01
  -5.740506e+01  -3.612734e+00
  -8.588835e+01  -8.711685e+01
   5.639362e+00  -1.438610e+02
   1.144777e+02  -7.675102e+01
   2.057060e+02   1.603934e+00
   1.402938e+02   1.205078e+02
  -9.759615e+00   1.832515e+02
  -1.029355e+02   1.193562e+02
  -1.327224e+02   2.648396e+01
  -6.585223e+01  -2.361366e+01
  -1.405985e+01  -2.544085e+01
  -5.543779e+01   4.808409e+00
  -5.326425e+01   2.120220e+00
  -4.034025e+01  -5.544932e+01
   4.944729e+01  -8.915759e+01
   9.867895e+01  -1.400156e+01
   4.694649e+01   6.132409e+01
  -3.324254e+01   6.759159e+01
  -1.413589e+02   4.570235e+01
  -1.451949e+02  -7.315112e+01
  -7.639924e+01  -1.293340e+02
   1.419454e+02  -1.588850e+02
   2.249636e+02  -3.330311e+01
   2.013074e+02   8.023250e+01
   6.909023e+01   1.394786e+02
  -4.157155e+01   1.005568e+02
  -8.867289e+01   3.371783e+01
  -6.904379e+01   6.748853e+01
  -6.259118e+01   8.584152e+01
  -7.853431e+01   1.997255e+01
  -1.301004e+02  -4.500278e+01
  -9.239547e+01  -1.382864e+02
  -8.748397e-01  -1.647900e+02
   9.857382e+01  -1.102209e+02
   1.129782e+02   1.985124e+01
   6.870177e+01   1.032220e+02
   9.075707e-02   1.335481e+02
  -5.912083e+01   4.474541e+01
  -4.833898e+01  -1.107513e+01
   6.677564e+00  -1.837266e+01
   3.701389e+01  -2.720193e+01
  -3.589299e+01   3.487253e+00
  -7.693084e+01  -2.407771e+01
  -8.602444e+00  -4.121527e+01
   3.168432e+01  -8.334483e+00
   1.270660e+02  -3.692193e+00
   9.082863e+01   4.231400e+01
   5.431470e+01   8.258836e+01
  -1.153607e+02   7.068496e+01
  -1.082084e+02  -9.427415e+00
  -3.008436e+01  -2.954162e+01
   6.804214e+01  -2.018160e+01
   7.969590e+01   4.411183e-01
   1.896590e+01   5.201584e+01
  -8.324669e+01   5.128043e+01
  -4.487468e+01  -1.264111e+01
  -5.469925e+01  -2.472379e+01
  -3.612824e+01  -2.573149e+01
  -4.374566e+01   1.195786e+01
  -3.220608e+01  -1.421895e+01
  -2.823406e+01  -7.719469e+01
   4.614035e+01  -1.157054e+02
   1.245358e+02  -1.374968e+02
   1.219941e+02  -1.577121e+01
   9.047669e+01   9.150355e+01
  -2.460931e+01   7.347421e+01
  -7.158005e+01   1.776117e+01
  -6.951255e+01   1.117914e+01
   8.974497e+01  -4.465248e+01
   1.054765e+02   9.913458e+00
   3.484846e+01   1.154525e+02
  -6.128838e+01   4.597823e+01
  -1.346846e+02   4.334894e+01
  -1.304035e+02  -4.725607e+01
  -1.117712e+00  -7.066640e+01
   6.669393e+01  -5.181986e+00
   1.516319e+01  -2.549493e+00
  -3.023786e+01  -5.001247e+00
  -1.008550e+02  -3.773051e+01
  -1.831095e+01  -1.037382e+02
   8.905232e+01  -1.051829e+02
   1.382526e+02  -5.532431e+01
   6.864571e+01   5.212325e+01
   6.044679e+00   1.703324e+02
  -7.124465e+01   1.111040e+02
  -6.077442e+01  -3.064869e+01
  -6.230732e+01  -9.840895e+01
  -1.192033e+01  -9.964100e+01
   3.399866e+01   4.126641e+00
   1.306600e+01   2.799339e+01
  -4.310400e+00  -1.120377e+01
   1.540848e+01   6.342405e+00
   2.569549e+01   3.899304e+01
  -7.177286e+00   5.742579e+01
  -2.281948e+01   1.009093e+02
  -3.897937e+01   2.987711e+01
  -9.665416e+01  -5.149322e+01
  -1.088272e+02  -2.026212e+01
  -2.537827e+01  -2.382000e+01
   4.452578e+01  -1.385971e+01
   5.542734e+01  -2.152200e+01
   9.306909e+00   2.693035e+01
  -1.816894e+01   1.131011e+01
  -2.777028e+01   7.166747e+00
  -9.905200e+00  -1.518211e+01
  -1.453539e+01   2.607271e+01
  -3.372524e+01  -3.670564e+01
  -3.521664e+01  -9.959350e+00
  -1.302693e+01  -7.023969e+01
   1.007011e+02  -1.301342e+02
   1.463064e+02  -5.684537e+01
   1.388839e+02   5.370572e+01
   6.444916e+00   1.298415e+02
  -6.268524e+01   1.025711e+02
  -9.799856e+01   3.241672e+01
  -5.507753e+01   6.000344e+00
  -6.701403e-01  -5.539524e+01
  -2.244786e+00   2.388483e+01
  -6.916674e-01  -1.391686e+01
  -4.080228e+01  -4.911967e+01
  -5.705848e+00  -6.877258e+01
   3.989087e+01  -6.595632e+01
   5.923577e+01   1.504061e+01
   5.675727e+01   8.524141e+01
   1.459590e+01   8.503935e+01
  -7.710939e+01   1.797300e+01
  -6.134388e+01  -8.298227e+01
  -5.295088e+01  -8.693348e+01
   5.503304e+01  -1.294652e+01
   9.667932e+01   4.064981e+00
   3.119658e+01   3.965461e+01
  -2.215879e+01   3.727607e+01
  -1.290652e+01  -1.615918e+01
   1.838564e+01  -5.841042e+00
   4.114645e+01  -1.281400e+01
   7.736340e+00   1.766541e+01
  -5.014569e+01   2.449452e+01
  -6.314970e+01   3.982557e+01
  -4.747269e+01  -4.836412e+01
   4.120789e+01  -7.098908e+01
   7.842436e+01  -4.153620e+01
   4.024223e+01  -8.084066e+00
  -2.265097e+01   4.280274e+01
  -3.504367e+01   1.587890e+01
   1.793357e+00  -3.657275e+01
  -2.756032e+01  -4.762103e+01
   5.245105e+00  -3.098766e+01
   4.975329e+00  -1.002664e+01
   4.712652e+01   1.700435e+01
   1.530602e+01   2.516615e+01
   6.924786e+00  -4.117470e+01
   3.079125e+01  -4.956521e+00
  -7.493230e+00   2.025777e+01
   4.070838e+00   6.478831e+01
  -4.235614e+01   3.502220e+01
  -3.649403e+01  -1.753895e+00
  -4.145980e-01  -5.839981e+01
   7.314954e+01  -1.922367e+01
   8.880703e+01   2.093697e+01
  -2.582480e+00   6.432051e+01
  -4.203589e+01   3.529835e+01
  -7.705798e+01  -3.079353e+01
  -3.717697e+01   2.509863e+00
   4.483394e+01  -2.723621e+01
   5.954928e+01  -3.360464e+01
   2.753238e+01  -1.249430e+01
  -3.218681e+01  -1.843678e+00
  -9.487537e-02  -4.450829e+01
  -1.131447e+01  -5.667925e+01
   5.743941e+01  -1.667236e+01
