
 $NMID
 id='ANONYMOUS ', fmtdat='(2E16.6)'
 volume=1.0
 tramp=1.0
 $END
  -4.351845e+03  -2.692966e+02
  -2.143857e+03  -2.743081e+03
   1.026985e+03  -2.072787e+03
   1.820866e+03  -6.809504e+02
   4.834490e+02   5.578834e+02
  -6.966571e+02   1.650757e+02
  -7.564475e+02  -4.774423e+02
   2.638770e+02  -9.488809e+02
   9.523813e+02  -6.387877e+02
   9.302494e+02   1.627686e+02
   3.552112e+02   8.476005e+02
  -2.591812e+02   8.070609e+02
  -5.667453e+02   3.924593e+01
  -3.168423e+02  -6.574375e+02
   3.475949e+02  -6.623561e+02
   5.314740e+02   5.836038e+01
   2.111722e+02   6.894928e+02
  -3.209677e+02   6.590755e+02
  -5.538492e+02   1.477587e+02
  -4.333554e+02  -2.984450e+02
   2.275604e+01  -3.838103e+02
   2.134710e+02  -1.899145e+02
   1.682364e+02   8.779894e+00
  -1.940499e+02   6.086454e+00
  -3.693956e+02  -2.943641e+02
  -1.194829e+02  -4.838945e+02
   4.979112e+02  -3.019718e+02
   8.471249e+02   1.616908e+02
   2.607263e+02   6.132437e+02
  -4.618528e+02   4.240588e+02
  -7.228461e+02  -1.151038e+02
  -2.943540e+02  -5.871117e+02
   3.664481e+02  -5.115892e+02
   5.719588e+02  -1.543014e+02
   4.135618e+02   2.295062e+02
   3.276180e+01   4.543821e+02
  -2.080803e+02   1.518059e+02
  -5.159612e+01  -2.804061e+02
   1.974263e+02  -4.015696e+02
   4.403462e+02   8.306784e+01
   1.896578e+01   7.024950e+02
  -3.302635e+02   6.167329e+02
  -5.012702e+02  -6.256202e+01
  -2.723117e+02  -5.154283e+02
   3.531495e+02  -2.372970e+02
   2.465945e+02   3.367934e+02
  -1.964039e+02   5.086832e+02
  -5.926284e+02   3.767572e+01
  -6.002353e+02  -3.321792e+02
  -1.304157e+02  -6.084526e+02
   4.370852e+02  -4.036895e+02
   6.088970e+02   1.325918e+02
   3.813359e+02   4.002246e+02
  -1.533960e+02   3.082998e+02
  -4.297417e+02   2.374112e+01
  -2.118363e+02  -1.560774e+02
   1.457579e+02  -2.857998e+01
   1.114706e+02   1.566005e+02
  -1.940901e+02   1.588721e+02
  -2.743007e+02  -1.162179e+02
  -1.288996e+02  -3.158285e+02
   2.025437e+02  -2.206275e+02
   3.192871e+02  -9.226935e+01
   1.946912e+02   1.035791e+02
   2.890265e+01   2.736663e+02
  -2.439851e+02   3.186828e+02
  -4.083739e+02   1.674185e+02
  -2.842095e+02  -1.440655e+02
  -4.995675e+01  -4.327543e+02
   1.129692e+02  -3.118628e+02
   7.935349e+01  -1.290554e+02
  -3.279350e+01  -6.415879e+01
   7.925713e+01  -1.141057e+02
   2.516502e+02  -1.564760e+02
   2.658059e+02   9.701767e+01
   1.541225e+02   3.336770e+02
  -1.063027e+02   2.203808e+02
  -2.102492e+02  -2.653740e+01
  -1.677511e+02  -2.899902e+02
  -5.284640e+01  -3.396639e+02
   2.752619e+02  -8.612586e+01
   4.076211e+02   2.156218e+02
   1.873269e+02   3.375086e+02
  -8.705895e+01   3.116526e+02
  -2.461379e+02   1.272900e+02
  -1.396828e+02   2.607315e+01
  -1.072032e+02   4.090519e+01
  -2.342500e+02   8.496146e+01
  -4.026337e+02  -7.321114e+01
  -3.668428e+02  -3.315623e+02
   1.544220e+01  -4.207697e+02
   3.488370e+02  -3.796788e+02
   5.388475e+02  -2.234179e+02
   3.466095e+02   1.200578e+02
   4.058356e+01   3.436272e+02
  -1.293086e+02   1.983082e+02
  -5.191695e+01  -1.461490e+01
   1.716936e+02  -1.141492e+02
   1.655541e+02  -1.656207e+00
   9.430463e+00   2.396774e+02
  -1.835893e+02   1.484473e+02
  -1.719042e+02  -1.016832e+02
   4.135178e+01  -1.584554e+02
   2.159077e+02  -4.698041e+00
   1.303308e+02   2.897998e+02
  -6.322102e+01   3.409863e+02
  -2.228993e+02   1.887912e+02
  -3.544773e+02  -5.247200e+01
  -2.718786e+02  -2.475030e+02
  -1.237687e+02  -2.837261e+02
   7.972962e+01  -1.461495e+02
   2.040025e+02   1.240384e+01
   5.637496e+01   8.940131e+00
  -7.159440e+01  -2.770367e+01
  -1.467563e+01  -1.588677e+02
   1.314485e+02  -8.116068e+01
   1.482675e+02   6.008173e+01
   5.525949e+01   6.494164e+01
  -1.176537e+02  -1.630351e+01
  -5.713735e+01  -9.514960e+01
   1.250051e+02  -1.035378e+02
   2.992865e+02   5.484421e+00
   2.824871e+02   1.718543e+02
   5.013273e+01   2.742047e+02
  -1.964510e+02   2.179166e+02
  -2.689033e+02   9.433457e+01
  -1.531681e+02  -7.281316e+01
   3.133234e+01  -1.433325e+02
   8.793623e+01   3.607188e+01
  -4.589792e-01   9.986258e+01
  -1.810353e+02   4.078902e+01
  -1.898792e+02  -1.451763e+02
  -3.312736e+01  -1.842194e+02
   1.229256e+02  -1.812337e+02
   1.225756e+02  -2.895606e+01
   7.452049e+01   4.752875e+01
  -7.254028e+01  -1.401079e+01
  -3.827943e+01  -9.485025e+01
   7.068927e+01  -1.312842e+02
   2.420622e+02  -6.105709e+01
   1.718714e+02   1.662452e+02
   1.424694e+01   2.298336e+02
  -1.627505e+02   1.812527e+02
  -1.672010e+02   2.359995e+00
  -5.970468e+01  -1.251739e+02
   7.554941e+01  -1.274025e+02
   9.079268e+01  -5.821416e+01
   5.766065e+01   2.522717e+01
  -1.943665e+01   1.978615e+01
   1.650104e+00  -9.152573e+00
   9.776385e+01  -6.080218e+00
   1.270893e+02   7.005502e+01
  -8.340668e+00   1.356935e+02
  -1.361352e+02   1.706205e+02
  -2.678754e+02   4.343823e+01
  -1.968603e+02  -1.580196e+02
  -3.198001e+01  -2.213258e+02
   1.218190e+02  -2.149843e+02
   1.332808e+02   7.879600e+00
   7.794042e+01   5.803821e+01
   2.935081e+01   3.892688e+01
   4.943377e+01  -5.972891e+01
   7.241010e+01  -1.330075e+01
   3.823076e+01   5.852633e+01
  -1.128305e+01   7.537843e+01
  -8.679815e+01   3.729711e+01
  -8.317604e+01  -5.079118e+01
   2.772649e+01  -1.187872e+02
   1.502134e+02  -8.270052e+01
   2.171413e+02   4.072898e+01
   1.212760e+02   2.045973e+02
  -1.584487e+02   2.214421e+02
  -2.659388e+02   7.561536e+01
  -2.438293e+02  -1.168075e+02
  -1.000462e+02  -2.047091e+02
   3.448448e+01  -1.495095e+02
   1.126194e+02  -4.913954e+01
   8.521544e+01  -7.370174e+01
   3.803906e+01  -1.075702e+02
   9.132682e+01  -5.203985e+01
   1.151392e+02   3.656868e+01
   1.418461e+02   1.250215e+02
  -3.221705e+01   1.998575e+02
  -9.767667e+01   2.112856e+02
  -1.756162e+02   3.441833e+01
  -1.323882e+02  -1.253040e+02
   3.810582e+00  -1.643819e+02
   7.222166e+01  -6.914538e+01
   9.850008e+01   2.616092e+01
   1.869487e+01   5.056679e+01
  -1.491303e+01   2.856077e+01
   1.621175e+00   3.561090e+01
   5.933602e+01   9.628596e-01
   5.437166e+01   4.314670e+01
  -7.603342e+01   4.307394e+01
  -1.615158e+02   4.502661e+01
  -1.812107e+02  -6.153240e+01
   5.417635e+00  -7.984346e+01
   1.210070e+02  -1.008126e+02
   1.266772e+02  -1.344929e+01
   4.950251e+01   6.005394e+01
  -7.641614e+01   2.081872e+01
  -8.094341e+01  -3.430900e+01
  -4.881689e-01  -4.937039e+01
   6.046058e+01  -6.824899e+01
   5.697360e+01   1.833350e+01
   4.341450e+01   4.749775e+01
  -1.145721e+00   3.849407e+01
   6.010576e+01   8.534151e+00
   5.815818e+01   2.070374e+01
   1.693882e+01   5.858611e+01
  -2.038820e+01   1.431322e+02
  -1.097037e+02   1.703610e+02
  -1.620439e+02  -1.352952e+00
  -1.124105e+02  -7.198220e+01
   1.846712e+01  -8.742806e+01
   8.460867e+01  -2.229448e+01
   5.300360e+01   8.143278e+00
  -6.222692e+01   2.547455e+01
  -1.352356e+02  -6.925276e+01
  -6.708113e+01  -1.115322e+02
   1.065145e+02  -1.452211e+02
   1.850241e+02  -3.870842e+01
   1.785743e+02   1.288344e+01
   2.754028e+01   8.919484e+01
  -8.314561e+01   6.064029e+01
  -6.461065e+01   8.310203e+00
   5.000740e+01  -4.873554e+01
   7.751611e+01   3.611603e+01
   3.850883e+01   1.107413e+02
  -8.100977e+01   1.592331e+02
  -1.700184e+02   4.938403e+01
  -1.125460e+02  -1.139176e+02
  -5.546515e+01  -2.453401e+02
   1.067343e+02  -1.345854e+02
   1.134404e+02   6.939811e+00
   5.308492e+01   1.224546e+02
  -3.807210e+00   1.313091e+02
  -3.486860e+01   1.954031e+01
  -5.614269e+01  -3.972739e+01
  -3.231202e+01  -2.253023e-01
  -6.290414e+00   2.431273e+01
  -1.671030e+01   2.354053e+00
  -4.728308e+01  -1.045210e+02
  -5.065788e+01  -1.364579e+02
   5.147714e+01  -3.957845e+01
   1.503015e+02   3.703759e+01
   1.589096e+02   7.352012e+01
   2.010654e+01   6.066817e+01
  -8.020844e+01   1.070199e+01
  -8.087408e+01   1.161985e+01
  -6.398574e-01   1.080740e+01
   5.153677e+01  -1.951015e+01
   5.264981e+01  -3.331852e+01
  -2.144107e+01   1.172208e+00
   3.355514e+01  -2.961752e+00
   8.107808e+01  -8.601661e+00
   8.468905e+01   5.106213e+01
  -7.309272e+00   8.364351e+01
  -8.314786e+01   1.398621e+02
  -1.626986e+02   7.132548e+01
  -1.568858e+02  -4.899862e+01
  -4.295123e+00  -1.868853e+02
   9.727754e+01  -1.560082e+02
   9.454212e+01  -8.890270e+01
   8.358767e+01   6.324816e-01
   2.706802e+01   3.490722e+01
  -2.238913e-02   2.097907e+01
   3.892905e+01   1.653403e+01
   1.667468e-01   1.201790e+01
   6.446870e+00   9.405952e+01
  -2.754423e+01   3.100844e+01
  -7.634164e+01   7.221796e+00
  -9.030947e+01  -1.012629e+02
   2.158078e+00  -8.561694e+01
   9.290466e+01  -2.613683e+01
   6.923472e+01   9.453968e+01
   3.760176e+01   9.973498e+01
  -6.981428e+01   5.254579e+01
  -1.015095e+02  -4.063221e+01
  -2.299650e+01  -2.209547e+01
   3.841681e+01  -5.305200e+01
   4.947195e+01  -4.530757e+00
  -2.899275e+01   7.398157e-01
  -6.648075e+01  -2.519152e+01
  -3.568847e+01  -2.017589e+01
   8.538633e+01  -4.213294e+01
   1.392568e+02  -7.757193e+01
   4.695123e+01  -4.166489e+00
  -2.850465e+01   7.023442e+01
  -5.768715e+01   8.612288e+01
  -3.546251e+01   8.044738e+00
   6.332249e-01  -4.935426e+01
   2.603796e+01  -4.545130e+01
   4.478315e+01   1.249768e+01
   4.764625e+01   4.490777e+01
   1.761355e+01   3.778876e+01
  -1.790708e+01   1.589829e+01
  -3.984748e+01  -4.435490e+01
  -2.531745e+01  -2.890319e+01
  -2.898633e+01  -8.208935e+00
   1.821470e+01   2.325070e+01
   2.608283e+01  -4.320000e+01
   1.279357e+01  -6.079568e+01
   2.815875e+01  -2.118432e+01
   5.112373e+01   4.052711e+01
   9.432018e+00   5.838482e+01
  -4.506856e+01   3.323437e+01
  -6.118669e+01  -3.783782e+01
  -1.298044e+01  -7.794202e+01
   2.621008e+01  -5.876300e+01
   7.156081e+01   3.310276e+01
   4.292769e+01   4.662094e+01
  -1.171696e+01   4.205003e+01
  -7.891622e+01   2.082095e+01
  -4.719166e+01   1.519665e+01
   1.689888e+01   3.441077e+00
   5.143372e+01   2.002129e+01
  -2.024065e+01   2.239279e+01
  -8.761341e+01   9.556569e+00
