
 $NMID
 id='ANONYMOUS ', fmtdat='(2E16.6)'
 volume=1.0
 tramp=1.0
 $END
  -3.861973e+03  -6.265410e+02
  -2.393850e+03  -2.529815e+03
   4.139801e+02  -2.286677e+03
   1.735234e+03  -6.610847e+02
   1.056222e+03   2.050273e+02
  -3.411135e+02   2.790657e+02
  -4.356338e+02  -2.281127e+02
   1.812306e+02  -7.450780e+02
   6.758293e+02  -6.315264e+02
   7.544713e+02   5.398078e+01
   3.180211e+02   6.228365e+02
  -1.462404e+02   7.060525e+02
  -3.931155e+02   1.021687e+02
  -2.745976e+02  -5.736409e+02
   2.397826e+02  -5.960241e+02
   4.349874e+02  -2.892417e+01
   2.107831e+02   6.204909e+02
  -2.016804e+02   6.856951e+02
  -5.084374e+02   1.270512e+02
  -3.811235e+02  -2.174569e+02
  -1.116561e+02  -3.991455e+02
   2.021258e+02  -2.305833e+02
   1.083068e+02  -1.460266e+01
  -1.676622e+02  -1.790861e+01
  -3.426594e+02  -2.946830e+02
  -2.187844e+01  -4.469116e+02
   4.610429e+02  -1.785080e+02
   7.394737e+02   2.629395e+02
   2.378476e+02   5.330931e+02
  -3.483346e+02   2.249999e+02
  -6.010265e+02  -1.864193e+02
  -1.878285e+02  -4.649126e+02
   3.705237e+02  -3.756585e+02
   5.324382e+02  -9.244175e+01
   3.232969e+02   1.767289e+02
   2.209168e+00   3.263047e+02
  -1.393363e+02   2.121580e+02
   1.308281e+01  -1.652980e+02
   2.106326e+02  -2.365041e+02
   3.151905e+02   1.927974e+02
  -4.489620e+00   6.576724e+02
  -2.807719e+02   5.425805e+02
  -4.234321e+02   5.026070e+01
  -6.696757e+01  -4.816315e+02
   2.130740e+02  -1.433994e+02
   1.997356e+02   3.416052e+02
  -1.563914e+02   4.562180e+02
  -5.878545e+02  -1.210541e+00
  -6.018310e+02  -3.846053e+02
  -9.647485e+01  -6.031147e+02
   3.375373e+02  -3.170771e+02
   5.930088e+02   2.161486e+02
   3.767706e+02   3.554620e+02
  -4.501190e+01   2.059830e+02
  -3.547865e+02   4.292333e+01
  -2.321187e+02  -1.008721e+02
   4.264109e+01  -3.466504e+01
   9.024979e+01   7.967772e+01
  -1.351321e+02   7.578470e+01
  -2.935342e+02  -1.150899e+02
  -1.210807e+02  -2.254199e+02
   2.278841e+02  -2.746893e+02
   3.660172e+02  -9.761185e+01
   2.722741e+02   1.082240e+02
  -1.553070e+01   2.527284e+02
  -2.765191e+02   3.393257e+02
  -3.751834e+02   2.086086e+02
  -2.389087e+02  -2.019046e+02
   8.031104e+00  -3.903796e+02
   1.049980e+02  -3.179135e+02
   9.628454e+01  -1.380613e+02
  -2.049342e+01  -5.899108e+01
   1.252224e+02  -1.159536e+02
   2.610997e+02  -5.701589e+01
   2.649871e+02   9.596138e+01
   7.548287e+01   2.805223e+02
  -1.125640e+02   2.257874e+02
  -2.392291e+02  -4.674061e+01
  -1.326379e+02  -2.607988e+02
   4.084142e+01  -2.803078e+02
   2.705362e+02  -3.876595e+01
   3.873545e+02   1.368864e+02
   1.650436e+02   3.555271e+02
  -3.420589e+01   2.896249e+02
  -2.075843e+02   1.400514e+02
  -1.322810e+02   8.325439e+01
  -1.353851e+02   7.313903e+01
  -2.741090e+02   4.199015e+01
  -4.284723e+02  -1.364062e+02
  -3.032135e+02  -3.003938e+02
   3.017296e+01  -4.836260e+02
   4.980524e+02  -3.820887e+02
   5.070517e+02  -1.175782e+02
   3.191146e+02   1.399933e+02
  -7.121389e+00   3.070087e+02
  -1.388256e+02   2.184067e+02
  -3.224556e+01   3.562748e+01
   1.311657e+02  -3.050734e+01
   1.754168e+02   3.590389e+01
  -7.963567e+00   1.940546e+02
  -1.436395e+02   9.174851e+01
  -1.373817e+02  -9.406478e+01
   5.304266e+01  -1.638294e+02
   1.878830e+02   3.069685e-01
   1.607414e+02   2.386135e+02
  -6.236891e+01   3.891865e+02
  -2.827997e+02   1.652097e+02
  -3.234356e+02  -6.693696e+01
  -2.706923e+02  -2.743810e+02
  -4.214987e+01  -3.119691e+02
   1.579622e+02  -1.365014e+02
   1.831085e+02  -2.873727e+00
   7.649191e+01   2.499039e+01
  -6.344770e+01  -6.327960e+01
  -3.362700e+01  -1.115377e+02
   1.353243e+02  -6.987944e+01
   1.625106e+02   3.939706e+01
   5.175429e+01   4.377227e+01
  -1.062026e+02   2.794041e+01
  -5.789892e+01  -8.896464e+01
   1.721235e+02  -9.284598e+01
   3.167547e+02   1.425489e+01
   2.383148e+02   1.744525e+02
   6.331832e+00   3.053265e+02
  -2.375243e+02   2.076053e+02
  -3.007463e+02   4.866888e+01
  -1.919215e+02  -6.674959e+01
   4.676454e+01  -9.043931e+01
   8.602818e+01  -1.702836e+01
  -5.639662e+01   8.217304e+01
  -1.830510e+02   4.282880e+01
  -1.855571e+02  -1.403376e+02
  -4.007973e+01  -2.300626e+02
   1.420331e+02  -1.224030e+02
   1.624384e+02   3.117063e+01
   5.107607e+01   3.624599e+01
  -3.866561e+01  -1.084775e+01
  -7.193871e+01  -6.249926e+01
   7.635134e+01  -1.334133e+02
   2.411240e+02  -4.547947e+01
   1.496445e+02   1.211202e+02
   6.188192e+00   2.296755e+02
  -1.664828e+02   1.966675e+02
  -2.012347e+02   1.998532e+01
  -7.093677e+01  -8.687755e+01
   6.273796e+01  -8.878943e+01
   7.065265e+01  -3.031739e+01
  -3.398140e+00   5.149541e+01
  -1.828193e+01   3.305833e+01
  -4.587768e-01  -5.331715e+01
   8.914069e+01  -1.542984e-01
   7.422364e+01   9.961343e+01
   2.503288e+01   1.454445e+02
  -1.173791e+02   1.855074e+02
  -2.786278e+02   2.067367e+01
  -1.854202e+02  -2.058839e+02
  -7.369932e+01  -2.583041e+02
   9.194794e+01  -1.762428e+02
   1.499380e+02  -2.282327e+01
   6.378728e+01   5.309948e+01
   4.841046e+01   5.614309e+01
   5.246652e+01  -2.872541e+01
   1.024468e+02   9.753142e+00
   4.474869e+01   5.846557e+01
  -5.601908e+01   1.108780e+02
  -1.016024e+02   6.939991e+01
  -8.560263e+01  -4.218824e+01
   1.133561e+01  -1.068370e+02
   1.758034e+02  -8.577639e+01
   2.129658e+02   1.123912e+02
   1.012064e+02   2.244525e+02
  -1.802128e+02   2.295362e+02
  -2.943281e+02   6.353198e+01
  -2.697806e+02  -9.348209e+01
  -8.937671e+01  -1.780132e+02
   3.452622e+01  -8.400838e+01
   1.024367e+02  -4.425273e+01
   7.583723e+01  -8.292102e+01
   7.593326e+01  -6.243174e+01
   1.255672e+02  -8.420127e+01
   1.178569e+02   5.170846e+01
   1.487956e+02   1.738603e+02
  -8.703824e+00   2.427270e+02
  -1.117566e+02   2.059221e+02
  -1.973736e+02  -1.486170e+00
  -9.933396e+01  -1.540152e+02
   2.042935e+01  -1.410345e+02
   9.655620e+01  -7.838847e+01
   6.427318e+01  -7.651186e+00
  -1.623392e+01   7.288113e+01
  -3.012809e+01   5.085897e+01
   5.320413e+01   4.352888e+01
   9.007873e+01   3.799796e+01
   4.015659e+01   6.934242e+01
  -8.047118e+01   2.700672e+01
  -2.049618e+02  -9.976796e+00
  -1.644079e+02  -8.348275e+01
  -4.704739e+00  -1.211061e+02
   1.427242e+02  -8.076937e+01
   1.351742e+02   8.721465e-01
   6.659454e+01   6.624256e+01
  -1.009617e+02   1.072159e+01
  -9.772764e+01  -9.361259e-01
  -1.108916e+01  -8.170757e+01
   6.174064e+01  -7.352913e+01
   7.494403e+01   5.646985e+00
   4.016009e+01   8.217376e+01
   5.751086e+01   3.670860e+01
   7.270364e+01  -1.932047e+01
   1.074236e+02  -8.323932e+00
   6.147416e+01   6.648770e+01
   5.273402e+00   1.455520e+02
  -1.224474e+02   1.534806e+02
  -1.662637e+02   2.075195e+01
  -1.371815e+02  -1.020242e+02
   2.268619e+01  -1.237333e+02
   1.081479e+02  -5.558589e+01
   7.176804e+01   1.904026e+01
  -7.136480e+01   2.831425e+01
  -1.272786e+02  -6.806384e+01
  -4.781338e+01  -1.217747e+02
   1.011738e+02  -8.394999e+01
   1.909601e+02  -8.560540e+01
   1.837291e+02   5.105531e+01
   2.573484e+01   1.034143e+02
  -9.964677e+01   8.377207e+01
  -4.988807e+01   1.446448e+01
   4.428002e+01  -5.781147e+01
   9.581649e+01   4.744091e+00
   7.839575e+01   1.219260e+02
  -5.208771e+01   1.259176e+02
  -1.976946e+02   8.459117e+01
  -1.377509e+02  -1.227552e+02
  -4.662552e+01  -1.890185e+02
   7.444052e+01  -1.464963e+02
   9.989555e+01   4.580527e+01
   6.239301e+01   9.634134e+01
  -7.730364e+00   7.150025e+01
  -6.596441e+01   2.436381e+01
  -6.465665e+01  -6.577529e+01
  -2.810118e+01  -2.773608e+00
  -3.055816e+01   1.710751e+01
  -2.143512e+01  -2.718245e+01
  -3.736582e+01  -1.059520e+02
  -1.034302e+01  -1.220543e+02
   4.582124e+01  -4.466173e+01
   1.545965e+02   6.716741e+01
   1.279095e+02   5.840220e+01
   2.333915e+01   6.444019e+01
  -7.035858e+01   2.804820e+01
  -1.010757e+02   3.900671e+01
   7.387021e+00   3.124095e+00
   5.464637e+01  -3.655022e+00
   1.923252e+01  -1.363164e+01
   4.713507e+00  -2.974468e+00
   7.119083e+00  -1.076739e+01
   5.945558e+01  -7.787809e+00
   8.978300e+01   2.959235e+01
   4.772032e+01   7.955190e+01
  -1.059816e+02   1.034136e+02
  -1.852672e+02   6.622151e+01
  -1.731955e+02  -5.150617e+01
  -2.411293e+01  -1.528476e+02
   1.123732e+02  -1.648107e+02
   1.355171e+02  -5.474975e+01
   7.883891e+01   3.538810e+00
   4.695851e+01   1.981691e+01
  -1.868577e+01   1.946645e+01
   1.696304e+01  -2.175985e+01
   3.623892e+01   6.070303e+01
   4.120536e+01   1.184323e+02
  -1.311051e+01   6.569729e+01
  -5.177464e+01  -2.763412e+01
  -5.086193e+01  -1.177166e+02
  -1.449402e+01  -9.089445e+01
   1.253835e+02  -2.572659e+01
   1.066543e+02   1.147712e+02
   3.804552e+01   1.019361e+02
  -3.124463e+01   3.141848e+01
  -1.324145e+02  -1.702843e+01
  -3.613430e+01  -7.549375e+01
   5.644751e+01  -5.109058e+01
   4.745603e+01  -2.619796e+01
  -2.946222e+01  -1.893182e+01
  -8.173762e+01   4.726837e+00
  -2.286283e+01  -4.005973e+01
   8.348771e+01  -6.981927e+01
   1.298950e+02  -4.331713e+01
   5.546843e+01   3.626942e+01
  -2.405684e+01   1.177314e+02
  -7.159091e+01   1.118252e+02
  -5.789689e+01  -1.136938e+01
   8.524733e+00  -6.521768e+01
   2.973910e+01  -4.606812e+01
   3.149365e+01  -1.576473e+01
   2.931304e+01   5.567996e+01
   2.474054e+01   4.865361e+01
  -3.890791e+01  -4.083922e+01
  -3.907524e+01  -2.800994e+01
  -2.075680e+01  -2.683287e+01
  -5.371349e-01   2.809402e+01
   3.790512e+01  -8.168807e+00
   1.952967e+01  -3.403341e+01
  -2.192059e+01  -6.659716e+01
   2.651767e+01   6.683913e+00
   1.930234e+01   2.413265e+01
   1.731772e+01   6.892500e+01
  -4.117643e+01   5.815653e+00
  -2.344096e+01  -5.544422e+01
  -2.414818e+01  -4.697004e+01
   4.010791e+01  -5.694547e+01
   1.335292e+02   1.820846e+01
   6.489736e+01   3.320545e+01
  -7.272791e+01   1.324046e+01
  -7.114519e+01   3.433913e+01
  -7.720015e+00  -2.491146e+01
   4.113655e+01   1.421548e+01
   4.672045e+01   1.739644e+01
  -4.254460e+01   2.328734e+01
  -1.219323e+02   3.417726e+01
