
 $NMID
 id='ANONYMOUS ', fmtdat='(2E16.6)'
 volume=1.0
 tramp=1.0
 $END
   3.607440e+03   5.701790e-01
   2.124875e+03   2.305995e+03
  -3.483651e+02   2.243657e+03
  -1.510031e+03   7.325971e+02
  -9.516955e+02  -5.906847e+01
   1.321264e+02  -3.147641e+02
   3.795305e+02   2.199514e+02
  -1.500859e+02   6.825717e+02
  -6.083784e+02   6.973343e+02
  -7.016104e+02  -5.297481e+01
  -3.948817e+02  -5.276009e+02
   1.205091e+02  -6.210402e+02
   3.700095e+02  -9.571182e+01
   3.769677e+02   4.654292e+02
  -1.442323e+02   4.918684e+02
  -4.129475e+02   2.341274e+01
  -2.546331e+02  -5.827043e+02
   1.356024e+02  -6.528621e+02
   4.931911e+02  -1.768616e+02
   4.833098e+02   2.159432e+02
   1.013343e+02   3.711475e+02
  -1.280440e+02   2.322786e+02
  -1.063681e+02   3.357228e+01
   1.613301e+02  -1.253593e+01
   2.645343e+02   2.927853e+02
   3.873012e+01   3.884913e+02
  -4.297879e+02   1.421770e+02
  -7.237436e+02  -2.416186e+02
  -2.657752e+02  -4.091407e+02
   3.135995e+02  -2.615554e+02
   5.686113e+02   1.657724e+02
   2.075283e+02   3.659135e+02
  -3.437936e+02   3.595992e+02
  -5.013380e+02   8.090457e+01
  -3.311588e+02  -1.466874e+02
  -1.338633e+01  -3.466624e+02
   8.247261e+01  -1.757873e+02
  -1.703269e+01   8.824985e+01
  -1.970950e+02   1.427741e+02
  -2.764540e+02  -2.145087e+02
  -5.257532e+01  -5.016553e+02
   2.390050e+02  -5.459763e+02
   3.632715e+02  -2.096157e+01
   1.036208e+02   4.046277e+02
  -2.135300e+02   1.083135e+02
  -1.937142e+02  -3.613919e+02
   1.689671e+02  -3.778394e+02
   5.040401e+02  -5.852095e+01
   5.178984e+02   3.759374e+02
   1.068592e+02   5.302190e+02
  -3.214758e+02   2.865562e+02
  -5.537704e+02  -1.203165e+02
  -3.511530e+02  -2.887557e+02
   2.901907e-01  -2.143875e+02
   3.117448e+02  -9.918988e+01
   1.822227e+02   1.290974e+02
  -8.081234e+00   5.433185e+01
  -6.680906e+01  -6.071220e+01
   1.038637e+02  -1.037809e+02
   2.671529e+02   6.538994e+01
   1.543646e+02   2.252556e+02
  -2.163495e+02   2.414170e+02
  -3.783913e+02   1.043898e+02
  -2.450227e+02  -8.604444e+01
  -4.135134e+00  -2.975625e+02
   2.611528e+02  -3.298367e+02
   3.695155e+02  -1.990725e+02
   2.248913e+02   1.782305e+02
   2.572485e+00   3.766267e+02
  -7.974420e+01   2.970656e+02
  -8.659107e+01   1.607123e+02
  -1.325454e+01   8.894546e+01
  -1.341763e+02   9.439166e+01
  -2.489116e+02   1.759207e+01
  -2.469142e+02  -8.136300e+01
  -8.794956e+01  -3.159783e+02
   9.452195e+01  -1.892403e+02
   2.123355e+02   6.668787e+01
   1.284590e+02   2.322865e+02
  -4.383648e+01   2.615490e+02
  -2.508267e+02   2.981219e+01
  -3.476575e+02  -1.718172e+02
  -1.485753e+02  -3.200506e+02
   5.517554e+01  -2.572033e+02
   1.562700e+02  -1.438078e+02
   1.633929e+02  -5.591609e+01
   1.619804e+02  -4.544665e+01
   2.393429e+02  -6.041890e+01
   4.434386e+02   9.398272e+01
   2.704904e+02   3.201194e+02
  -2.130716e+01   4.813348e+02
  -4.340827e+02   3.124645e+02
  -4.995168e+02   1.125403e+02
  -2.904730e+02  -1.557470e+02
   6.056089e+00  -2.671873e+02
   1.059977e+02  -1.903005e+02
   8.550624e+00  -3.824007e+01
  -1.287873e+02   3.059216e+01
  -1.513238e+02  -2.384907e+00
   1.606991e+01  -1.444385e+02
   1.160092e+02  -8.202662e+01
   1.269663e+02   1.234261e+02
  -1.611251e+01   1.757914e+02
  -1.913194e+02  -1.702392e+00
  -1.579259e+02  -2.311400e+02
   5.068448e+01  -3.497411e+02
   2.383110e+02  -1.719158e+02
   3.200750e+02   5.149490e+01
   2.816601e+02   2.683103e+02
   3.975034e+01   3.261408e+02
  -1.598044e+02   1.529421e+02
  -1.663041e+02  -4.283961e+01
  -5.034408e+01  -2.474951e+01
   5.976767e+01   4.752041e+01
  -2.256620e+01   1.073769e+02
  -1.475015e+02   6.269608e+01
  -1.421835e+02  -3.347258e+01
  -8.316485e+01  -4.263231e+01
   7.336028e+01   5.815334e+00
   5.517802e+01   7.393124e+01
  -1.568251e+02   8.487952e+01
  -3.080794e+02  -1.356830e+01
  -2.655919e+02  -1.784518e+02
  -2.369531e+01  -2.477642e+02
   2.185619e+02  -2.336706e+02
   2.798167e+02  -7.761413e+01
   1.648976e+02   6.838811e+01
  -7.783158e+00   6.354957e+01
  -5.335115e+01   1.164103e+01
   4.373085e+01  -6.562845e+01
   1.838638e+02  -8.659769e+00
   1.629634e+02   1.332469e+02
   9.838262e+01   2.256769e+02
  -1.145056e+02   1.224053e+02
  -1.455676e+02   6.094040e+00
  -4.542763e+01  -5.109471e+01
   3.525793e+01   1.086159e+01
   2.653677e+01   1.230055e+02
  -8.436870e+01   1.247887e+02
  -1.865938e+02   1.483937e+00
  -1.681585e+02  -1.200157e+02
  -2.946960e+00  -2.182026e+02
   1.541843e+02  -1.586960e+02
   1.770186e+02   1.353940e+00
   9.433828e+01   9.513500e+01
  -5.925828e+01   9.713438e+01
  -1.011284e+02   2.880326e+00
  -2.194097e+00  -4.047854e+01
   5.356902e+01   1.710138e+01
   2.274367e-01   2.382416e+01
  -9.969428e+01   1.501701e+01
  -6.082097e+01  -9.121173e+01
  -4.328203e+00  -1.795563e+02
   1.148050e+02  -1.683335e+02
   2.116783e+02  -7.492337e+00
   1.751828e+02   1.844524e+02
   3.696225e+01   2.556504e+02
  -9.920499e+01   1.570102e+02
  -1.376191e+02   4.599198e+01
  -7.231694e+01  -3.411391e+01
  -3.452127e+01  -5.631743e+01
  -5.428842e+01   1.474502e+01
  -7.488866e+01  -5.608179e-01
  -6.412619e+01  -8.880280e+01
   5.843718e+01  -1.351237e+02
   1.206087e+02  -7.459960e+01
   9.940406e+01   6.139980e+01
  -2.095047e+01   1.273233e+02
  -1.702419e+02   9.578830e+01
  -1.981559e+02  -8.016987e+01
  -7.664264e+01  -2.188896e+02
   1.415872e+02  -2.034884e+02
   2.926906e+02  -9.206211e+01
   2.717701e+02   8.135480e+01
   9.729516e+01   1.664671e+02
  -7.679851e+01   1.198021e+02
  -8.391907e+01   4.720960e+01
  -7.949593e+01   7.210875e+01
  -5.173440e+01   6.487824e+01
  -1.154211e+02   7.130550e+01
  -1.249547e+02  -5.905008e+01
  -1.176005e+02  -1.103767e+02
  -6.893059e+00  -2.012935e+02
   1.014134e+02  -1.703529e+02
   1.790559e+02   3.101059e+00
   8.597375e+01   1.371852e+02
   1.576618e+01   1.339024e+02
  -7.052880e+01   8.481206e+01
  -6.346820e+01  -1.398632e+01
  -7.684403e-01  -6.818873e+01
   4.285043e+01  -3.645221e+01
  -2.283814e+01   7.242674e-01
  -8.712927e+01  -5.178958e+01
  -4.916444e+01  -8.324842e+01
   5.420809e+01  -2.249049e+01
   2.108473e+02   2.234728e+01
   1.474943e+02   7.084655e+01
  -1.431987e+01   9.654711e+01
  -1.316313e+02   6.232603e+01
  -1.601772e+02   2.617242e+01
  -5.989108e+01  -4.749889e+01
   9.824737e+01  -4.407818e+01
   7.631470e+01   1.295496e+01
   3.178276e+01   6.876381e+01
  -6.628059e+01   4.880545e+01
  -7.459315e+01   1.605169e+01
  -6.058864e+01  -3.990796e+01
  -4.165303e+01  -3.732997e+01
  -4.996812e+01   1.080582e+01
  -8.027816e+01  -1.019764e+01
  -5.466339e+01  -8.525877e+01
  -1.789251e+00  -1.220545e+02
   1.674278e+02  -1.337401e+02
   2.029209e+02   4.117413e+00
   1.577903e+02   1.225747e+02
  -8.223919e+00   9.544011e+01
  -7.656531e+01   2.974243e+01
  -6.905675e+01  -2.851210e+01
   7.093310e+01  -3.862832e+01
   1.032599e+02   5.415722e+01
   4.299234e+01   1.222263e+02
  -8.784556e+01   8.650163e+01
  -1.876491e+02   8.046923e+01
  -1.795516e+02  -3.969694e+01
  -7.120634e+01  -8.217655e+01
   6.677385e+01  -5.185278e+01
   4.986374e+01  -2.059865e+01
  -3.834367e+01   4.347894e+01
  -1.258802e+02  -4.103500e+01
  -4.017828e+01  -1.193563e+02
   8.421297e+01  -1.460927e+02
   1.659984e+02  -8.999444e+01
   1.386103e+02   9.601822e+01
   5.841702e+00   1.671138e+02
  -9.380813e+01   1.559309e+02
  -9.012306e+01  -2.778776e+01
  -3.299149e+01  -1.175389e+02
   9.038326e+00  -1.271521e+02
   6.599596e+01  -3.229910e+01
   3.141923e+01   3.364736e+01
   3.548991e+00  -5.886950e+00
   1.078854e+01  -2.477247e+01
   3.005350e+01  -9.653023e+00
   4.737188e+01   1.195749e+02
   3.500802e+01   1.179379e+02
  -7.329885e+00   5.502129e+01
  -1.339200e+02  -2.603149e+01
  -1.439536e+02  -6.243749e+01
  -1.728518e+01  -2.802329e+01
   5.031452e+01  -3.884118e+01
   9.900098e+01  -2.401984e+01
   6.785586e+00  -2.180990e+00
  -5.404344e+01   3.470353e+01
   8.122975e+00  -1.165879e+01
  -8.162427e+00   6.456659e+00
  -4.073418e+00  -1.420221e-01
  -7.043203e+01  -1.474016e+01
  -1.104042e+02   9.842429e+00
  -3.165493e+01  -8.373371e+01
   6.277464e+01  -1.274936e+02
   2.257941e+02  -7.826630e+01
   1.707685e+02   4.794642e+01
  -5.818122e+00   1.465316e+02
  -6.674726e+01   1.519889e+02
  -1.448256e+02   6.844249e+01
  -8.103316e+01  -2.240113e+01
  -4.488156e+01  -1.903260e+01
   2.561046e+00  -1.467322e+01
  -1.261784e+01  -8.071491e+00
  -4.765155e+01  -5.246447e+01
  -3.989669e+01  -9.797877e+01
   2.749533e+01  -3.981337e+01
   7.177181e+01   2.438861e+01
   4.648447e+01   1.281712e+02
   2.395775e+01   1.083419e+02
  -9.920927e+01   1.319418e+01
  -5.860651e+01  -9.325821e+01
  -3.832427e+01  -1.463337e+02
   2.987021e+01  -7.111201e+01
   1.227227e+02   1.522727e+01
   3.565080e+01   6.872562e+01
  -3.180525e+01   7.004038e+01
  -3.403296e+01   3.891370e+01
   2.429377e+01  -7.051063e+00
   7.718987e+01  -3.253456e+01
   2.426181e+01   1.139666e+01
  -8.135720e+01   4.506062e+01
  -1.009099e+02   4.559075e+01
  -4.928976e+01   4.039378e+00
   2.367158e+01  -1.054498e+02
   7.199530e+01  -9.017520e+01
   5.185997e+01   1.481391e+01
  -4.857982e+00   3.009261e+01
  -3.122410e+01   3.035674e+01
  -1.921920e+01  -9.422696e+00
  -3.794007e+01  -6.105492e+01
  -2.517751e+01  -4.777401e+01
   8.446820e+01   3.151598e+00
   5.300436e+01   4.218064e+01
   2.494317e+01   2.041899e+01
   8.823101e+00  -1.905212e+01
  -1.387125e+01  -3.089657e+01
  -8.651572e+00   3.790041e+01
  -4.359783e+00   5.549848e+01
  -4.040124e+01   6.617267e+00
  -3.632371e+01  -6.261369e+01
  -1.218883e+01  -6.239771e+01
   4.780937e+01  -2.508417e+00
   5.666282e+01   4.149297e+01
   2.091947e+01   4.781221e+01
  -2.836860e+01   2.245464e+01
  -1.236929e+02  -3.242737e+01
  -3.734405e+01  -4.141650e+01
   3.210718e+01  -3.183925e+01
   4.232898e+01  -3.161503e+01
   3.525848e+01  -1.637041e+01
  -3.568685e+01  -3.320971e-01
  -1.901244e+01   1.517578e+01
  -5.024897e+00  -4.989320e+01
   9.479156e+01  -1.863947e+01
