
 $NMID
 id='ANONYMOUS ', fmtdat='(2E16.6)'
 volume=1.0
 tramp=1.0
 $END
  -3.283736e+03   5.425054e+01
  -1.865028e+03  -2.053650e+03
   1.212742e+02  -2.330704e+03
   1.445201e+03  -1.219935e+03
   9.277351e+02  -6.558840e+01
  -5.442917e+01   3.000207e+02
  -3.638301e+02  -1.274138e+02
  -7.284876e+01  -5.997477e+02
   5.817254e+02  -6.276479e+02
   7.112937e+02   6.581328e+00
   4.212124e+02   5.519004e+02
  -1.232592e+01   6.979682e+02
  -3.877623e+02   1.717661e+02
  -3.780039e+02  -5.465353e+02
   6.982254e+01  -5.620853e+02
   4.360600e+02  -7.825259e+01
   2.455264e+02   6.167791e+02
  -2.317059e+02   7.659068e+02
  -5.690753e+02   1.745721e+02
  -4.424298e+02  -2.214825e+02
  -8.508179e+01  -4.045198e+02
   1.348848e+02  -2.336677e+02
   1.202788e+02  -5.242227e+01
  -2.122024e+02   4.750738e+01
  -2.910915e+02  -2.729840e+02
  -9.408102e+01  -3.970708e+02
   4.602062e+02  -2.489689e+02
   6.655983e+02   2.200556e+02
   3.035362e+02   5.406265e+02
  -3.336904e+02   3.073014e+02
  -5.124281e+02  -1.405727e+02
  -1.862064e+02  -3.801734e+02
   2.451665e+02  -3.352845e+02
   4.414540e+02  -6.768169e+01
   3.608443e+02   1.501471e+02
   6.605887e+01   3.355367e+02
  -8.438602e+01   2.298555e+02
  -3.305443e+01  -8.700455e+01
   2.118321e+02  -2.041772e+02
   2.632913e+02   1.310416e+02
   3.714130e+01   5.302914e+02
  -2.706703e+02   6.053257e+02
  -3.816327e+02   7.560714e+01
  -1.727036e+02  -4.800393e+02
   1.820296e+02  -2.144169e+02
   2.049601e+02   2.478295e+02
  -1.355550e+02   4.039756e+02
  -4.964123e+02   6.411344e+01
  -5.355522e+02  -4.206773e+02
  -1.542207e+02  -5.817823e+02
   3.280036e+02  -3.093089e+02
   4.946182e+02   1.397356e+02
   3.683866e+02   2.772751e+02
  -4.486718e+01   2.844600e+02
  -3.116499e+02   1.099400e+02
  -2.054042e+02  -1.002853e+02
   2.114348e+01  -6.058989e+01
   8.677133e+01   9.277638e+01
  -9.510459e+01   8.253388e+01
  -2.449926e+02  -5.641626e+01
  -1.463031e+02  -2.572334e+02
   2.008117e+02  -2.453320e+02
   3.756838e+02  -1.323282e+02
   2.708557e+02   1.263478e+02
  -2.587680e+01   2.888567e+02
  -2.933540e+02   3.563780e+02
  -3.990102e+02   1.597921e+02
  -2.144896e+02  -1.653514e+02
  -5.280025e+01  -3.565786e+02
   4.666276e+01  -2.724650e+02
   9.769010e+01  -1.272792e+02
   6.264589e+01  -6.291001e+01
   1.599022e+02  -7.677014e+01
   2.381759e+02  -4.466999e+01
   2.555021e+02   9.951217e+01
   1.015904e+02   2.781416e+02
  -8.981767e+01   2.147026e+02
  -1.933026e+02  -3.842665e+01
  -1.292758e+02  -2.573275e+02
   6.353142e+01  -2.913735e+02
   2.324136e+02  -6.029324e+01
   3.111692e+02   1.882177e+02
   1.729409e+02   3.124242e+02
  -7.904746e+01   2.775011e+02
  -1.846068e+02   1.573628e+02
  -2.024778e+02   8.105634e+01
  -1.269699e+02   4.490177e+01
  -2.523724e+02   1.407979e+01
  -4.650185e+02  -1.097300e+02
  -3.080178e+02  -2.859993e+02
  -6.584825e+01  -5.126912e+02
   4.270215e+02  -3.966345e+02
   5.036063e+02  -1.526708e+02
   2.759105e+02   1.351359e+02
   4.142010e+01   2.524074e+02
  -9.999058e+01   1.783512e+02
  -2.012719e+01   2.878589e+01
   1.316506e+02   8.334789e+00
   1.341357e+02  -4.910420e+00
   1.806439e+00   1.431639e+02
  -9.907480e+01   1.005486e+02
  -1.328187e+02  -5.511782e+01
   4.115073e+01  -1.490981e+02
   1.868652e+02   3.722629e-01
   9.094896e+01   2.460656e+02
  -2.826867e+00   2.956291e+02
  -2.526684e+02   2.076521e+02
  -3.498356e+02  -8.587517e+01
  -2.842902e+02  -2.513959e+02
  -8.761673e+01  -2.854160e+02
   1.511793e+02  -1.240224e+02
   1.705405e+02   3.322194e+01
   3.735361e+01   6.562386e+00
  -6.630065e+01  -2.749686e+01
   3.087318e+01  -1.267045e+02
   1.299666e+02  -7.251900e+01
   9.610448e+01   5.535420e+01
   7.674543e+01   2.332551e+01
  -9.154335e+01   1.064776e+00
  -2.953668e+01  -8.195852e+01
   1.454128e+02  -9.737070e+01
   2.765723e+02   3.724058e+01
   2.960123e+02   1.830695e+02
   3.223513e+01   3.147272e+02
  -2.253118e+02   2.612560e+02
  -2.511830e+02   8.884677e+01
  -1.502674e+02  -5.970655e+01
   2.905667e+01  -5.836115e+01
   6.882768e+01  -2.856501e+01
  -5.452149e+01   9.926076e+01
  -1.828290e+02   2.466248e+01
  -2.041787e+02  -7.146013e+01
  -6.622160e+01  -2.184655e+02
   1.175107e+02  -1.463426e+02
   1.432542e+02   2.976875e+00
   6.281495e+01   3.049506e+01
  -2.103988e+01  -1.921733e+01
   9.119117e+00  -9.155187e+01
   9.763809e+01  -1.354298e+02
   2.117822e+02  -1.717246e+01
   1.771449e+02   1.045254e+02
   9.748100e+00   2.068833e+02
  -1.581710e+02   1.618200e+02
  -1.871785e+02   1.842609e+01
  -7.294045e+01  -7.888126e+01
   8.082517e+01  -9.738399e+01
   6.298343e+01  -3.851556e+01
  -2.521708e+01   3.311983e+01
  -7.997905e-01   6.228504e-01
   7.593675e+00  -1.571375e+01
   8.413454e+01   8.661448e+00
   6.780218e+01   9.005389e+01
  -2.205018e+00   1.505266e+02
  -1.717054e+02   2.151138e+02
  -2.340062e+02   3.659866e+01
  -2.063297e+02  -1.253948e+02
  -6.521987e+00  -2.504536e+02
   1.190949e+02  -1.793340e+02
   1.089374e+02  -3.184628e+01
   6.491985e+01   5.821542e+01
   3.878217e+01   3.053252e+01
   4.401620e+01   4.121739e-01
   7.108803e+01   3.559831e+01
   6.980863e+01   8.911921e+01
  -5.194091e+01   8.478091e+01
  -1.017622e+02   5.481077e+01
  -8.075117e+01  -8.190397e+01
   3.249813e+00  -1.052198e+02
   1.559174e+02  -9.419580e+01
   1.869481e+02   5.148952e+01
   1.149705e+02   2.261014e+02
  -1.469426e+02   2.581487e+02
  -2.534401e+02   6.654324e+01
  -2.694146e+02  -9.321474e+01
  -9.910421e+01  -1.825708e+02
   7.110622e+01  -1.242428e+02
   9.220652e+01  -5.682623e+01
   7.625762e+01  -7.962188e+01
   6.519404e+01  -9.290532e+01
   1.233283e+02  -7.316481e+01
   1.438072e+02   6.850827e+00
   1.599274e+02   1.489521e+02
   1.051446e+00   1.886422e+02
  -1.196451e+02   1.715872e+02
  -1.722734e+02   1.186794e+01
  -9.500813e+01  -1.633348e+02
  -5.376018e+00  -1.601422e+02
   9.473510e+01  -7.029983e+01
   7.077180e+01  -7.712228e+00
  -1.924367e+01   5.427738e+01
  -4.742229e+01   1.911939e+01
   4.017701e+01  -3.937047e+00
   1.064395e+02   3.967175e+01
   5.608188e+01   3.683199e+01
  -7.601252e+01   2.892723e+01
  -2.022353e+02  -2.193594e+00
  -1.397242e+02  -4.424016e+01
   6.594193e+00  -1.089951e+02
   1.605476e+02  -7.013707e+01
   1.622774e+02   8.195571e+00
   4.411641e+01   6.131901e+00
  -6.192125e+01   4.229262e+01
  -7.892877e+01  -9.491432e+00
  -2.021313e+01  -6.001197e+01
   6.403714e+01  -5.340465e+01
   7.910883e+01  -1.616056e+01
   5.637160e+01   5.964377e+01
   4.494984e+01   4.290465e+01
   5.844348e+01  -5.440624e-02
   5.668219e+01   2.373512e+01
   1.813486e+01   7.665993e+01
  -5.220932e+01   1.428106e+02
  -1.418455e+02   1.511762e+02
  -1.807843e+02   5.277350e+01
  -1.339575e+02  -7.940732e+01
   1.787968e+00  -1.236875e+02
   7.575462e+01  -8.934591e+01
   1.098974e+02  -5.616020e+00
  -3.494850e+01   2.032016e+01
  -1.263154e+02  -2.893164e+01
  -6.575989e+01  -9.353081e+01
   1.154586e+02  -1.048393e+02
   2.063964e+02  -9.091238e+01
   1.503881e+02   5.398383e+01
   3.247764e+01   9.691177e+01
  -6.814278e+01   8.154023e+01
  -4.210094e+01  -2.719131e+00
   4.651946e+01  -2.704918e+01
   1.195857e+02  -1.701062e+00
   3.969788e+01   1.332928e+02
  -7.075697e+01   1.694751e+02
  -1.498320e+02   8.932088e+01
  -1.437653e+02  -9.444054e+01
  -3.026278e+01  -2.292210e+02
   1.128833e+02  -1.572939e+02
   1.106696e+02   1.123458e+01
   7.857619e+01   1.204020e+02
  -4.031544e+00   1.466254e+02
  -5.578621e+01  -4.163256e+00
  -5.277570e+01  -3.767802e+01
   4.322407e+00   1.471402e+01
  -1.466691e+01   2.260733e+01
  -3.731310e+01  -2.630216e+01
  -7.813376e+01  -8.622220e+01
  -1.726522e+01  -1.135119e+02
   7.128926e+01  -6.404349e+01
   1.180667e+02   4.863560e+01
   1.279024e+02   5.915367e+01
   2.398774e+01   4.410724e+01
  -7.897177e+01   7.834985e+01
  -8.396516e+01   3.252847e+01
  -1.306945e+01  -2.142802e+01
   3.968749e+01  -3.046847e+01
  -1.225174e+01  -2.563505e+00
  -2.130238e+01  -1.938972e+01
   5.713421e+01   1.066430e+00
   7.552895e+01   1.688737e+00
   9.592920e+01   9.556868e+00
   3.766232e+00   8.817102e+01
  -1.210062e+02   1.084554e+02
  -1.642591e+02   8.453865e+01
  -1.746407e+02  -4.726049e+01
  -5.521130e+00  -1.697691e+02
   9.914005e+01  -1.331255e+02
   1.295563e+02  -6.500868e+01
   8.827187e+01   5.256142e+01
   8.838455e+00   4.204776e+01
   1.069308e+01   3.657593e+01
  -1.684633e+01  -2.786424e+01
   4.164988e+01   4.839264e+01
   4.750618e+01   1.001874e+02
  -2.354033e+01   6.968038e+01
  -7.147638e+01  -4.963065e+01
  -8.775985e+01  -1.012956e+02
  -1.384897e+01  -1.156956e+02
   1.213639e+02  -3.477792e+01
   5.974833e+01   6.269916e+01
   6.521899e+01   1.188434e+02
  -4.661474e+01   4.365718e+01
  -1.002552e+02   1.647239e+00
  -4.794454e+01  -3.461880e+01
   3.222446e+01  -5.975466e+01
   4.738214e+01  -5.560120e+01
  -4.470122e+01  -1.190500e+01
  -5.950936e+01   2.348630e+01
  -3.241574e+01  -2.010778e+01
   9.285747e+01  -6.917709e+01
   9.276271e+01  -4.335014e+01
   5.830952e+01   5.330929e+01
  -5.071514e+00   7.763803e+01
  -5.436736e+01   5.981489e+01
  -3.091518e+01   2.550886e+01
  -2.286445e+01  -4.775188e+01
   4.338677e+01  -3.242271e+01
   1.633121e+01  -1.483593e+00
   2.308423e+01   5.075683e+01
   7.473645e+00   4.318249e+01
  -2.822137e+01  -9.097125e+00
  -4.367507e+01  -3.637582e+01
  -4.139432e+01  -6.041957e+00
  -6.443901e+00   1.975316e+01
  -1.540006e+01  -1.201678e+01
  -1.176190e+01  -1.903326e+01
   1.244334e+01  -7.419485e+01
   5.648995e+01  -1.836201e+01
   1.839604e+01   3.732039e+01
   1.410871e+01   1.010308e+02
  -7.627889e+00   2.862934e+01
  -6.979109e+01  -3.754624e+01
  -2.656465e+01  -2.611769e+01
   5.612861e+01  -2.923185e+01
   1.110078e+02   3.366226e+01
   6.359719e+01   2.594046e+01
  -5.713169e+01   3.831948e+01
  -4.015218e+01   3.643301e+01
  -2.136884e+01  -1.968245e+01
   1.491671e+01   1.483368e+01
   4.880957e+01   3.128473e+01
  -2.722918e+01   2.800992e+01
  -8.928154e+01   2.765095e+01
