
 $NMID
 id='ANONYMOUS ', fmtdat='(2E16.6)'
 volume=1.0
 tramp=1.0
 $END
   3.078503e+03   1.403563e+02
   2.146555e+03   1.840281e+03
   1.170951e+02   2.034536e+03
  -1.292989e+03   1.251949e+03
  -9.314355e+02   2.439221e+02
   4.812260e+01  -2.015712e+02
   2.877317e+02  -1.398682e+01
   1.285154e+02   5.461881e+02
  -4.840196e+02   5.866124e+02
  -6.636687e+02   7.284261e+01
  -5.067260e+02  -4.960676e+02
   1.624414e+01  -6.474691e+02
   3.257159e+02  -1.454633e+02
   2.885192e+02   5.001515e+02
  -4.949562e+01   5.254983e+02
  -4.080130e+02   1.091727e+02
  -2.777064e+02  -5.343432e+02
   2.082652e+02  -7.054074e+02
   4.678682e+02  -2.263515e+02
   3.879937e+02   2.020305e+02
   8.452583e+01   3.550807e+02
  -1.010053e+02   2.490522e+02
  -1.101303e+02   8.806896e+01
   2.200168e+02   6.318731e+01
   2.186251e+02   2.578882e+02
   6.184437e+01   3.436561e+02
  -3.869351e+02   1.954582e+02
  -5.691430e+02  -2.318176e+02
  -2.388338e+02  -4.801885e+02
   2.905346e+02  -2.464725e+02
   4.751088e+02   1.299749e+02
   1.674552e+02   3.297213e+02
  -2.452582e+02   2.733203e+02
  -4.312980e+02   1.085234e+02
  -3.535473e+02  -9.647465e+01
  -1.025055e+02  -3.538564e+02
   6.719791e+01  -1.770496e+02
  -3.591809e+01   9.872051e+01
  -1.941291e+02   1.528784e+02
  -1.585802e+02  -1.535792e+02
  -2.076556e+01  -4.107034e+02
   2.019753e+02  -5.672218e+02
   4.345627e+02  -7.886027e+01
   1.863463e+02   3.963708e+02
  -1.095661e+02   1.838366e+02
  -1.479194e+02  -2.428971e+02
   1.142577e+02  -3.775953e+02
   4.254670e+02  -4.338396e+01
   5.458506e+02   3.742487e+02
   1.298518e+02   5.280150e+02
  -2.720725e+02   2.677569e+02
  -4.375910e+02  -1.116532e+02
  -3.259651e+02  -2.504999e+02
   3.823858e+01  -2.743780e+02
   2.923737e+02  -1.350907e+02
   2.125362e+02   9.612538e+01
  -2.142232e+01   2.506685e+01
  -1.068505e+02  -9.870014e+01
   9.337578e+01  -3.009770e+01
   2.068066e+02   4.749784e+01
   1.533999e+02   2.362619e+02
  -1.757475e+02   2.170223e+02
  -3.593180e+02   1.758360e+02
  -2.663040e+02  -1.379757e+02
  -1.172312e+01  -3.231840e+02
   3.117328e+02  -3.509791e+02
   3.591776e+02  -1.332699e+02
   2.073665e+02   1.543985e+02
   5.828172e+01   3.469176e+02
  -2.950543e+01   2.880422e+02
  -6.855344e+01   1.777510e+02
  -7.108041e+01   7.173037e+01
  -1.324116e+02   9.264231e+01
  -2.695057e+02   3.746557e+00
  -2.344040e+02  -1.259180e+02
  -6.157514e+01  -2.573473e+02
   9.498434e+01  -1.533113e+02
   1.846365e+02   5.425751e+01
   9.811005e+01   2.478043e+02
  -6.918244e+01   2.811449e+02
  -1.835383e+02   6.933169e+01
  -3.247523e+02  -1.641188e+02
  -1.314440e+02  -2.933565e+02
   6.629732e+01  -3.064011e+02
   1.775852e+02  -1.534217e+02
   1.678333e+02  -8.679169e+01
   1.210407e+02  -2.152062e+01
   2.952301e+02  -3.426622e+01
   4.272615e+02   1.086215e+02
   2.768027e+02   3.204276e+02
   3.318506e+01   4.639466e+02
  -3.859347e+02   3.580967e+02
  -4.761342e+02   1.603792e+02
  -2.700960e+02  -1.219773e+02
  -2.653397e+01  -2.534266e+02
   8.585838e+01  -1.888353e+02
   5.986044e+00  -2.417574e+01
  -1.149513e+02   1.140891e+01
  -9.941288e+01   5.479788e+00
   1.623957e+01  -1.520898e+02
   9.588213e+01  -9.099361e+01
   1.012355e+02   9.547406e+01
  -2.337630e+01   1.261815e+02
  -1.452312e+02  -9.862124e+00
  -8.356816e+01  -2.396504e+02
   1.376577e+01  -2.738780e+02
   2.389159e+02  -1.639056e+02
   3.417638e+02   1.072640e+02
   2.393135e+02   2.299524e+02
   5.457648e+01   2.811869e+02
  -1.199729e+02   1.013099e+02
  -1.579723e+02  -2.098053e+01
  -5.287535e+01  -1.991422e+01
   2.839950e+01   7.331115e+01
  -4.287869e+01   1.147149e+02
  -1.277623e+02   8.663501e+01
  -1.309447e+02  -5.198700e+00
  -4.902774e+00  -2.311797e+01
   8.822525e+01   3.115931e+00
   3.953597e+01   6.517452e+01
  -1.470828e+02   9.686392e+01
  -2.395468e+02  -5.567692e+01
  -2.718286e+02  -1.824775e+02
   1.902714e+01  -2.708392e+02
   2.595842e+02  -1.897748e+02
   2.691493e+02  -7.673248e+01
   1.404442e+02   5.595527e+01
  -1.921210e+01   6.870805e+01
  -5.777716e+01   5.594463e+00
   7.490219e+01  -1.017768e+02
   2.260175e+02   1.677263e+00
   1.522301e+02   9.341386e+01
   6.967833e+01   2.063075e+02
  -1.141492e+02   1.152029e+02
  -1.343359e+02  -1.193343e+01
  -5.789257e+01  -5.958386e+01
   5.158846e+01   1.384812e+01
  -1.651130e+01   1.199160e+02
  -8.610140e+01   1.273575e+02
  -1.921510e+02   1.860480e+01
  -1.493160e+02  -1.195873e+02
   4.111999e+00  -2.045305e+02
   1.513478e+02  -1.503010e+02
   1.779957e+02  -3.258339e+01
   7.591818e+01   8.284533e+01
  -6.901017e+01   9.871198e+01
  -7.917462e+01   5.313813e+01
  -1.157294e+01  -1.441239e+01
   3.516503e+01   1.147286e+01
  -3.689894e+01   3.173933e+00
  -8.556511e+01   7.256938e+00
  -8.147233e+01  -1.074261e+02
  -3.376259e+01  -1.606439e+02
   1.722272e+02  -1.629482e+02
   2.434049e+02  -4.129019e+01
   2.109967e+02   1.186444e+02
   2.308203e+01   2.619012e+02
  -8.833201e+01   1.932824e+02
  -1.265572e+02   2.722546e+01
  -5.597859e+01  -3.284572e+01
  -2.550794e+01  -1.411076e+01
  -6.710270e+01   9.824846e+00
  -1.022643e+02   2.471772e+00
  -4.694026e+01  -9.560626e+01
   5.221299e+01  -1.058616e+02
   9.705073e+01  -2.214051e+01
   7.770546e+01   7.222626e+01
  -3.705882e+00   1.376994e+02
  -1.723988e+02   6.253554e+01
  -2.341972e+02  -5.383305e+01
  -1.043303e+02  -2.232579e+02
   1.191411e+02  -2.191097e+02
   2.529857e+02  -5.888435e+01
   2.359386e+02   1.013260e+02
   8.934643e+01   1.508969e+02
  -6.654496e+01   1.169781e+02
  -7.726218e+01   7.485569e+01
  -6.140184e+01   5.734523e+01
  -4.151440e+01   7.617687e+01
  -1.136458e+02   6.826139e+01
  -1.197847e+02  -4.334364e+01
  -1.760820e+02  -1.605203e+02
   2.562212e+00  -1.854327e+02
   1.070783e+02  -1.806240e+02
   1.548255e+02  -2.979652e-01
   1.140431e+02   1.430942e+02
   5.421760e+00   1.540404e+02
  -8.120496e+01   9.690807e+01
  -5.019171e+01  -2.078461e+00
   1.438203e+00  -7.845745e+01
   5.259680e+01  -4.682370e+00
  -1.079019e+01  -1.342173e+01
  -1.115990e+02  -3.682672e+01
  -4.753899e+01  -2.482981e+01
   6.597184e+01  -5.487878e+01
   1.752973e+02   1.692458e+01
   1.160961e+02   7.311869e+01
  -2.108338e+01   9.816415e+01
  -1.320082e+02   4.670551e+01
  -1.276316e+02   2.221491e+01
  -5.595163e+01  -2.773180e+01
   4.300147e+01  -3.929376e+01
   4.864411e+01  -6.264808e+00
   4.693642e+01   6.574010e+01
  -3.945863e+01   4.544312e+01
  -6.606903e+01   1.193733e+00
  -5.751578e+01  -7.645548e+01
  -2.030204e+01  -2.550314e+01
  -5.533006e+01   1.319476e+00
  -7.929660e+01  -3.224086e+01
  -2.891879e+01  -7.363548e+01
   3.767160e+01  -1.401213e+02
   8.601021e+01  -1.330036e+02
   1.633615e+02  -3.442148e+01
   1.168486e+02   7.073715e+01
   1.934966e+00   1.077779e+02
  -6.019665e+01   6.134482e+01
  -9.139059e+01   5.086933e+00
   5.429916e+01  -4.184229e+01
   1.278323e+02   4.248935e+01
   6.276860e+01   7.864691e+01
  -1.103255e+02   9.665923e+01
  -1.868356e+02   8.474707e+01
  -1.975416e+02  -6.027596e+01
  -4.060524e+01  -9.586367e+01
   8.341673e+01  -3.500109e+01
   4.192300e+01  -1.010621e+01
  -4.133740e+01   5.709344e+00
  -9.310584e+01  -3.270504e+01
  -6.370206e+01  -1.182700e+02
   1.066508e+02  -1.592836e+02
   1.682267e+02  -8.012713e+01
   9.372728e+01   8.587660e+01
   2.018744e+01   2.257150e+02
  -1.009891e+02   1.324287e+02
  -1.008540e+02  -2.554307e+00
  -4.726438e+01  -1.009611e+02
   2.482339e+01  -1.254633e+02
   6.233495e+01  -1.205270e+01
   2.211587e+01   4.319279e+01
   3.473189e+01   5.337338e+01
   2.269041e+01  -1.846043e+01
   3.375828e+01  -1.131168e+01
   5.745052e+01   6.462718e+01
   8.461827e+00   1.311112e+02
  -5.372742e+01   3.638383e+01
  -1.513602e+02  -5.567473e+01
  -1.186266e+02  -6.041506e+01
   9.769590e+00  -3.638040e+01
   6.470823e+01  -4.242629e+01
   6.523677e+01  -3.164840e+01
   2.489365e+01  -8.985134e+00
  -3.474648e+01  -1.717814e+00
  -8.274651e+00  -6.067000e+00
   1.572562e+01  -5.320002e+00
  -1.561989e+01   6.126663e+00
  -7.046295e+01  -7.897708e+00
  -1.125166e+02  -1.771568e+01
  -2.304812e+00  -9.198422e+01
   1.057164e+02  -1.352341e+02
   1.743692e+02  -6.840374e+01
   1.773707e+02   5.640003e+01
   5.595971e+00   1.500137e+02
  -5.992717e+01   1.680197e+02
  -1.556640e+02   7.542747e+01
  -7.415649e+01  -5.097593e+01
  -1.879263e+01  -4.377582e+01
  -3.715751e+00   1.981793e+00
   2.640342e+01  -1.274043e+01
  -4.138823e+01  -5.439908e+01
  -1.520560e+01  -7.928221e+01
   3.084374e+00  -4.124186e+01
   6.547978e+01  -3.103901e+00
   8.772107e+01   1.115334e+02
   4.485292e+00   1.180503e+02
  -1.041800e+02   2.548986e+01
  -1.062478e+02  -5.223838e+01
  -5.207168e+01  -1.450817e+02
   3.456101e+01  -4.770310e+01
   8.292330e+01   1.707586e+01
   4.222091e+01   4.078211e+01
  -3.496338e+01   5.457844e+01
  -3.504816e+01   3.183629e+01
   1.863842e+01  -2.231858e+01
   4.779054e+01  -2.113672e+01
   7.705267e+00   3.655007e+01
  -7.825643e+01   5.563681e+01
  -1.083829e+02   5.045572e+01
  -4.786966e+01  -1.229032e+01
   2.324325e+01  -9.728771e+01
   4.879711e+01  -8.396977e+01
   4.612358e+01   2.445555e+01
   9.389745e+00   3.280385e+01
  -2.287972e+01   4.905875e+01
  -8.229815e+00  -7.053006e+00
  -2.274501e+01  -5.574610e+01
   2.914194e+00  -3.834718e+01
   5.039473e+01  -7.453759e+00
   7.072182e+01   4.204289e+01
   2.183932e+01   1.875231e+01
   1.307244e+01  -3.640264e+01
   2.184495e+01  -1.918575e+00
   5.292809e+00   2.479808e+01
   1.127349e+01   5.111680e+01
  -3.746166e+01   6.042846e+01
  -4.935325e+01  -5.926730e+01
  -1.245596e+01  -8.205389e+01
   7.288897e+01  -3.698476e+01
   7.383448e+01   3.509988e+00
   2.659409e+01   6.072585e+01
  -4.694635e+01   3.847046e+01
  -9.461594e+01   6.556904e+00
  -6.730509e+01  -4.756914e+00
   1.869171e+01  -3.160938e+01
   4.489966e+01  -4.703206e+01
   2.685364e+01   9.174400e+00
  -4.989924e+01  -1.618379e+01
  -6.691916e+01  -4.987491e+01
   3.651524e+01  -4.260816e+01
   6.505251e+01  -2.827777e+01
