
 $NMID
 id='ANONYMOUS ', fmtdat='(2E16.6)'
 volume=1.0
 tramp=1.0
 $END
  -2.896785e+03  -3.242385e+02
  -1.652348e+03  -1.995145e+03
   5.312190e+02  -1.726042e+03
   1.502504e+03  -7.358223e+02
   1.021926e+03   2.912215e+02
  -2.125997e+02   4.552588e+02
  -3.573565e+02  -3.421636e+02
   1.482749e+01  -5.968448e+02
   6.138662e+02  -5.396962e+02
   6.089571e+02   5.322076e+01
   3.061957e+02   6.255886e+02
  -1.728396e+02   6.163282e+02
  -3.783133e+02   1.582021e+02
  -3.620760e+02  -5.016703e+02
   2.311144e+02  -4.682144e+02
   3.759816e+02   1.570397e+01
   2.138258e+02   4.138321e+02
  -2.275451e+02   6.230751e+02
  -4.560354e+02   1.191850e+02
  -3.543273e+02  -2.429696e+02
  -2.311592e+01  -3.272968e+02
   1.551706e+02  -1.818296e+02
   6.243356e+01  -3.303501e+01
  -1.195257e+02  -5.484054e+01
  -2.226238e+02  -2.143040e+02
  -8.254829e+01  -3.944383e+02
   4.114959e+02  -2.487177e+02
   5.846052e+02   2.554061e+02
   2.140210e+02   4.133951e+02
  -3.167197e+02   3.419110e+02
  -5.716930e+02  -1.291953e+02
  -2.124761e+02  -3.188338e+02
   2.290221e+02  -3.453886e+02
   4.569656e+02  -1.262902e+02
   3.380610e+02   1.966448e+02
   2.628671e+01   3.355040e+02
  -8.905822e+01   1.493854e+02
   7.316806e-01  -1.208239e+02
   1.928348e+02  -2.764724e+02
   2.544584e+02   1.120278e+02
   1.201429e+02   4.228190e+02
  -2.837727e+02   5.731975e+02
  -4.573382e+02  -2.657239e+01
  -2.105403e+02  -3.908768e+02
   2.002350e+02  -1.372804e+02
   2.211934e+02   2.749943e+02
  -1.206069e+02   3.223646e+02
  -4.214368e+02   2.697164e+01
  -5.119688e+02  -4.017401e+02
  -7.662284e+01  -4.644418e+02
   3.042030e+02  -3.104469e+02
   5.043245e+02   6.458903e+01
   2.822819e+02   2.531785e+02
  -5.896657e+01   2.648724e+02
  -2.977305e+02   3.463589e+01
  -1.856984e+02  -1.151864e+02
   2.752159e+01  -6.891364e+01
   9.599334e+01   1.161719e+02
  -1.449006e+02   1.099049e+02
  -2.194246e+02  -7.940808e+01
  -1.284793e+02  -2.502254e+02
   1.808038e+02  -2.123941e+02
   2.949038e+02  -4.841509e+01
   1.970199e+02   9.731701e+01
  -5.977423e+01   2.370378e+02
  -2.530633e+02   2.649243e+02
  -3.175095e+02   9.335583e+01
  -2.172235e+02  -1.604408e+02
  -3.383154e+01  -3.245783e+02
   9.101001e+01  -2.897970e+02
   7.522958e+01  -1.267535e+02
   2.923392e+01  -3.136687e+01
   1.045535e+02  -9.038362e+01
   2.262583e+02  -4.996642e+01
   1.660710e+02   1.379653e+02
   6.780374e+01   2.547527e+02
  -8.678906e+01   1.436111e+02
  -1.647140e+02  -3.912995e+01
  -1.023458e+02  -2.149052e+02
   2.165381e+01  -2.277558e+02
   2.347161e+02  -4.896192e+01
   2.143866e+02   1.943953e+02
   1.373306e+02   2.679175e+02
  -1.199431e+02   2.957649e+02
  -2.011840e+02   1.300001e+02
  -1.302922e+02   5.697193e+01
  -1.042119e+02   5.253025e+01
  -2.657602e+02   1.108661e+01
  -3.919923e+02  -8.692185e+01
  -1.960342e+02  -2.938288e+02
   5.743953e+01  -3.803627e+02
   3.305750e+02  -2.810014e+02
   3.969375e+02  -9.851781e+01
   2.751205e+02   1.272788e+02
  -2.159555e+01   2.459186e+02
  -1.385634e+02   1.577860e+02
  -3.052698e+01   5.511820e+00
   1.538912e+02  -5.582801e+01
   1.399130e+02   6.112883e+01
  -1.042465e+01   1.388281e+02
  -1.327110e+02   7.914614e+01
  -1.043031e+02  -5.889329e+01
   4.902540e+00  -1.286008e+02
   1.635197e+02   1.700625e+01
   8.516794e+01   2.500987e+02
  -6.549121e+01   2.873089e+02
  -2.663210e+02   1.220071e+02
  -2.580202e+02  -5.355871e+01
  -2.301674e+02  -2.277426e+02
  -4.092231e+01  -2.542091e+02
   9.516776e+01  -1.324865e+02
   1.405061e+02  -1.737020e+01
   3.104089e+01   1.505476e+01
  -1.945688e+01  -7.704526e+01
   9.884052e+00  -1.114380e+02
   1.144779e+02  -1.027190e+02
   1.397227e+02   5.095511e+01
   2.476201e+01   7.168030e+01
  -5.782159e+01  -1.454490e+01
  -1.549740e+01  -7.701963e+01
   1.147336e+02  -5.960556e+01
   2.594509e+02   1.868661e+01
   2.558204e+02   1.473155e+02
   5.844612e+01   2.447763e+02
  -2.141491e+02   1.900071e+02
  -2.001891e+02   9.089892e+01
  -7.693453e+01  -1.266850e+01
   4.714140e+01  -8.855418e+01
   4.925219e+01   4.680835e+01
  -3.244422e+01   8.889289e+01
  -1.677848e+02   5.624016e+01
  -1.381369e+02  -1.266711e+02
  -2.056009e+01  -1.588397e+02
   5.992294e+01  -1.121335e+02
   1.068208e+02  -1.224981e+01
   3.211080e+01   3.315561e+01
  -7.397193e+01  -1.900538e+01
  -3.946723e+01  -1.032553e+02
   5.579464e+01  -8.552185e+01
   1.659534e+02   1.222880e+01
   1.326481e+02   1.097998e+02
  -3.577920e+01   1.907373e+02
  -1.234333e+02   1.307827e+02
  -1.537915e+02  -1.492916e+01
  -7.270189e+01  -8.693311e+01
   7.204735e+01  -1.096588e+02
   7.241749e+01  -8.420947e+00
   3.323006e+01   1.535494e+01
  -1.458437e+01   2.065039e+01
   2.635697e+01  -3.327167e+01
   6.134875e+01   1.429730e+01
   8.409394e+01   1.140230e+02
  -6.454253e+00   1.632194e+02
  -1.334589e+02   1.664276e+02
  -2.331518e+02   3.406177e+01
  -1.583969e+02  -1.489465e+02
  -1.431931e+00  -1.726625e+02
   9.915972e+01  -1.473571e+02
   1.244167e+02  -9.746028e+00
   6.559247e+01   5.796679e+01
   3.105925e+01   4.065673e+01
   2.982743e+01  -3.619350e+01
   9.911348e+01   1.252840e+01
   5.238656e+01   6.282204e+01
  -4.322439e+01   9.494806e+01
  -8.448437e+01   1.385352e+01
  -1.019100e+02  -6.665860e+01
   2.450898e+01  -1.386517e+02
   1.677535e+02  -6.994881e+01
   1.931623e+02   4.963662e+01
   4.406880e+01   1.768088e+02
  -1.221659e+02   1.843211e+02
  -2.129483e+02   3.085262e+01
  -2.067483e+02  -8.273147e+01
  -8.252523e+01  -1.734105e+02
   5.294480e+01  -1.415755e+02
   8.196357e+01  -5.808916e+01
   8.049880e+01  -8.829946e+01
   4.658934e+01  -9.251582e+01
   1.082006e+02  -6.792691e+01
   6.862900e+01   2.860566e+01
   1.190084e+02   1.653124e+02
   1.148924e+01   1.983735e+02
  -1.054998e+02   1.124267e+02
  -1.495614e+02   1.730728e+00
  -8.952195e+01  -1.247370e+02
   3.192537e+01  -1.568753e+02
   7.800131e+01  -7.259233e+01
   2.354576e+01  -1.720811e+01
  -3.359999e+01   1.501772e+01
   7.673923e+00   2.003168e+01
  -2.769907e+00   3.034059e+01
   8.906594e+01   6.411497e+01
   4.983286e+01   3.477060e+01
  -5.866581e+01   3.270431e+01
  -1.383864e+02  -1.322393e+01
  -1.066638e+02  -2.159070e+01
   2.003385e+01  -7.900211e+01
   1.059920e+02  -9.981419e+01
   1.635954e+02  -2.282254e+01
   4.467525e+01   3.520241e+01
  -6.713268e+01   4.084405e+01
  -8.573658e+01  -1.949084e+01
  -9.373654e+00  -4.949264e+01
   7.164620e+01  -4.994697e+01
   6.268131e+01  -2.096281e+01
   5.248147e+01   3.582320e+01
   5.180453e+01   2.096238e+01
   3.234860e+01   2.764663e+00
   6.071078e+01   8.838198e+00
   3.383040e+01   6.832805e+01
  -3.683538e+01   1.267238e+02
  -1.390440e+02   1.268298e+02
  -1.236982e+02   6.372459e+00
  -1.026589e+02  -8.193638e+01
   1.440744e+01  -8.846060e+01
   5.987597e+01  -5.846259e+01
   6.913227e+01   2.963299e+01
  -6.912278e+01   3.410894e+01
  -7.579173e+01  -1.346508e+01
  -2.813392e+01  -9.648468e+01
   8.657497e+01  -1.015691e+02
   1.496080e+02  -4.066574e+01
   1.481387e+02   1.684725e+01
   9.954636e+00   6.584110e+01
  -5.248069e+01   6.303432e+01
  -7.052309e+01  -1.541594e+01
   3.149552e+01  -2.309153e+01
   1.020791e+02   1.261841e+01
   2.981553e+01   1.198513e+02
  -8.287218e+01   1.123650e+02
  -1.501438e+02   5.801871e+01
  -9.345527e+01  -1.625045e+02
  -2.408617e+01  -1.948117e+02
   6.040140e+01  -1.272511e+02
   8.025739e+01   5.187753e+00
   7.147762e+00   8.813404e+01
  -2.114300e+01   1.076603e+02
  -5.842773e+01  -1.037560e+01
  -2.262180e+01  -4.757894e+01
   1.059465e+01  -1.887728e+00
  -6.093880e-01   1.104333e+01
  -5.174703e+01  -5.455316e+00
  -3.885666e+01  -8.334312e+01
  -9.853635e+00  -8.473983e+01
   5.150958e+01  -2.688725e+01
   1.033435e+02   5.144071e+01
   1.197377e+02   7.575171e+01
   2.112550e+01   4.957556e+01
  -7.868416e+01   5.614509e+01
  -6.276191e+01  -1.317637e+01
  -3.190513e+01  -5.102181e+01
   2.870644e+01  -2.155558e+01
   2.648059e+01  -1.909822e+01
  -4.261774e+00  -7.410522e+00
  -6.338344e-01  -2.221948e+00
   1.504552e+01   2.068625e+01
   7.813399e+01   3.357525e+01
   2.080508e+01   8.724683e+01
  -1.187943e+02   9.009663e+01
  -1.470782e+02   3.197925e+01
  -1.469838e+02  -6.267535e+01
  -3.579548e+01  -1.480386e+02
   6.970605e+01  -1.392168e+02
   1.117403e+02  -1.885242e+01
   8.436327e+01   5.794966e+01
   5.077236e+00   4.675887e+01
  -2.052043e+00  -1.596193e+01
   5.952470e+00   7.176843e+00
  -5.435478e+00   4.464935e+01
   2.671493e+00   6.945019e+01
  -2.818829e+01   8.384620e+01
  -8.968030e+01   6.670308e+00
  -6.704545e+01  -1.042379e+02
  -2.975109e+01  -7.512453e+01
   1.106598e+02  -2.997674e+01
   3.268630e+01   8.414538e+01
   3.309899e+01   8.551584e+01
  -6.159883e+01   4.930896e+01
  -8.637458e+01  -4.413707e+01
  -6.812670e+01  -4.846408e+01
   2.683786e+01  -7.731687e+01
   3.910687e+01  -5.983492e+00
  -7.377135e+00   2.818189e+01
  -7.157831e+01  -1.293683e+01
  -1.280250e+01  -3.157327e+01
   9.810114e+01  -4.357565e+01
   9.134911e+01  -5.202645e+01
   4.880838e+01   2.976906e+00
   1.696243e+01   6.905773e+01
  -5.933117e+01   5.785924e+01
  -3.521505e+01   2.468652e+01
  -1.966427e+01  -4.967288e+01
   3.125790e+01  -5.143803e+01
   3.111821e+01   2.716203e+01
   7.390901e+00   4.230998e+01
  -1.577015e+01   2.132904e+01
  -4.756271e+01  -3.237985e+01
  -2.840905e+01  -7.361590e+00
  -2.350208e+01   3.878420e-01
   5.903626e+00   5.562082e+01
   1.263447e+01   5.906821e+00
   4.963132e+00  -2.807677e+01
  -1.059006e+01  -3.362205e+01
   3.292471e+01  -4.469783e+01
   4.240726e+01   3.531342e+01
   3.919362e+01   4.410655e+01
  -3.999729e+01  -2.348949e+00
  -4.769633e+01  -4.494999e+01
   7.628229e+00  -6.998012e+01
   5.069360e+01  -4.871555e+01
   9.280606e+01  -3.226664e+01
   5.004852e+01   4.028244e+01
  -2.938637e+01   7.082631e+01
  -4.778412e+01   7.951369e+00
  -1.621339e+01   2.782548e+01
   2.859965e+01  -2.348225e+01
   2.597615e+01  -1.413623e+01
  -3.412471e+01   2.997747e+01
  -6.424591e+01   7.240178e+00
