
 $NMID
 id='ANONYMOUS ', fmtdat='(2E16.6)'
 volume=1.0
 tramp=1.0
 $END
  -4.441422e+03  -4.413275e+02
  -2.488335e+03  -2.691111e+03
   1.240412e+03  -2.744494e+03
   1.873644e+03  -7.304403e+02
   7.347981e+02   5.683513e+02
  -7.498287e+02   2.927328e+02
  -9.471762e+02  -6.533828e+02
   1.258070e+02  -1.113184e+03
   8.753466e+02  -7.760469e+02
   9.669189e+02   1.694108e+02
   2.647876e+02   8.386780e+02
  -3.693978e+02   9.015591e+02
  -6.250270e+02   6.174152e+01
  -3.304607e+02  -7.248348e+02
   3.198580e+02  -7.583387e+02
   5.605001e+02   5.918574e+01
   3.202910e+02   7.262434e+02
  -2.901820e+02   6.392268e+02
  -4.752641e+02   8.698245e+01
  -3.426308e+02  -3.131993e+02
   5.580474e-02  -4.414083e+02
   2.320381e+02  -2.423617e+02
   2.301376e+02  -3.618538e+01
  -1.466871e+02   4.891721e+01
  -4.160134e+02  -1.773305e+02
  -2.419029e+02  -4.851965e+02
   4.728271e+02  -5.039747e+02
   8.525346e+02   1.082236e+02
   4.069682e+02   5.799388e+02
  -4.777595e+02   5.328267e+02
  -8.425651e+02  -1.680787e+02
  -3.106868e+02  -6.022533e+02
   3.062473e+02  -5.333468e+02
   6.326165e+02  -2.142243e+02
   4.736739e+02   2.995737e+02
   8.445623e+01   5.136657e+02
  -2.523970e+02   2.739891e+02
  -1.850277e+02  -2.471118e+02
   2.237855e+02  -4.874008e+02
   5.367769e+02   5.798042e+01
   1.310735e+02   7.187123e+02
  -2.971516e+02   7.385986e+02
  -7.135198e+02  -1.477975e+01
  -3.222441e+02  -6.489356e+02
   3.411857e+02  -3.125288e+02
   3.438010e+02   3.597687e+02
  -4.229079e+01   5.819696e+02
  -5.706377e+02   1.288677e+02
  -6.346550e+02  -3.846940e+02
  -1.370969e+02  -6.027052e+02
   4.769645e+02  -3.989202e+02
   6.987353e+02   9.898642e+01
   3.414960e+02   4.632469e+02
  -1.699887e+02   3.475864e+02
  -4.693687e+02   5.529759e+01
  -2.667089e+02  -2.232501e+02
   1.168604e+02  -5.854529e+01
   1.478544e+02   1.411915e+02
  -2.062144e+02   1.920601e+02
  -3.689335e+02  -6.987005e+01
  -1.038860e+02  -3.292826e+02
   1.671096e+02  -2.179989e+02
   3.389335e+02  -8.115143e+01
   1.866514e+02   8.343624e+01
  -6.032784e+01   2.294107e+02
  -2.025497e+02   3.563547e+02
  -3.747899e+02   1.977206e+02
  -3.225723e+02  -1.289020e+02
  -8.655624e+01  -4.387097e+02
   1.016050e+02  -3.647576e+02
   1.250986e+02  -1.184031e+02
   7.884957e+00   6.162404e+00
   2.322717e+01  -1.254201e+02
   1.822478e+02  -1.975689e+02
   2.706042e+02   8.876817e+01
   1.825604e+02   3.481539e+02
  -7.395867e+01   2.431016e+02
  -2.612921e+02   8.080676e+00
  -2.067479e+02  -2.788196e+02
  -2.363168e+01  -3.325518e+02
   2.491907e+02  -1.240158e+02
   3.608467e+02   1.868257e+02
   1.558866e+02   4.103277e+02
  -8.591324e+01   3.295067e+02
  -2.456244e+02   1.182648e+02
  -1.376474e+02   1.205006e+01
  -9.982580e+01   1.791572e+01
  -2.313735e+02   9.834849e+01
  -4.161656e+02  -2.235575e+01
  -3.537191e+02  -3.610621e+02
  -3.209143e+01  -4.785984e+02
   3.388759e+02  -4.305475e+02
   5.672288e+02  -1.782059e+02
   3.628582e+02   1.017401e+02
   2.211154e+01   2.838216e+02
  -1.793738e+02   2.423563e+02
  -7.565756e+01   1.544231e+01
   1.359900e+02  -8.979285e+01
   2.143662e+02   2.812970e+01
   3.729373e+01   2.076675e+02
  -2.061856e+02   1.885080e+02
  -1.902429e+02  -7.992051e+01
   5.140257e+01  -2.271074e+02
   2.216948e+02  -2.340229e+01
   2.165860e+02   2.590127e+02
  -5.898273e+01   3.109812e+02
  -2.291684e+02   1.682675e+02
  -3.498505e+02  -6.114015e+01
  -2.847906e+02  -2.529023e+02
  -9.469696e+01  -2.527828e+02
   1.179547e+02  -1.685460e+02
   2.118482e+02  -2.742230e+01
   4.558638e+01   2.035362e+01
  -9.499008e+01  -3.078764e+01
  -3.991101e+01  -1.332557e+02
   1.094853e+02  -1.247207e+02
   1.673457e+02   1.664699e+00
   5.888403e+01   1.008325e+02
  -1.032092e+02   2.748840e-01
  -1.355983e+01  -8.906327e+01
   1.138558e+02  -1.349756e+02
   2.730241e+02  -1.332833e+01
   2.529711e+02   1.338945e+02
   1.155440e+02   2.874445e+02
  -1.951621e+02   2.241001e+02
  -2.830461e+02   1.571383e+02
  -1.681029e+02  -9.687225e+01
   4.631260e+01  -8.570007e+01
   1.247973e+02   8.209440e+00
  -5.316930e+01   1.207662e+02
  -2.183659e+02   4.232229e+01
  -2.146081e+02  -1.088174e+02
  -3.683315e+01  -2.360272e+02
   1.258746e+02  -1.590186e+02
   1.488943e+02  -1.474842e+01
   7.975984e+01   3.393425e+01
   1.216785e+01   9.243699e+00
  -4.696872e+01  -1.069223e+02
   8.672172e+01  -1.015993e+02
   1.538347e+02  -2.863830e+01
   2.219295e+02   1.210919e+02
  -9.942408e+00   2.373375e+02
  -1.469990e+02   1.801227e+02
  -1.756089e+02   1.083837e+00
  -5.572058e+01  -1.342266e+02
   7.690572e+01  -1.561678e+02
   8.073981e+01  -4.514762e+01
   2.177027e+01   2.657902e+01
  -3.825729e+01   2.554692e+01
   3.151843e+01   6.655484e+00
   5.178891e+01   3.985991e+00
   6.385016e+01   7.944606e+01
   6.229739e+00   1.489552e+02
  -1.260523e+02   1.562010e+02
  -2.662701e+02   5.184063e+01
  -2.029172e+02  -2.097721e+02
  -6.600017e+01  -2.260685e+02
   8.749960e+01  -2.039451e+02
   1.532119e+02  -2.434471e+01
   9.922380e+01   3.603550e+01
   4.641616e+01   3.061380e+01
   4.879272e+01  -2.493545e+01
   9.998684e+01  -3.236984e+00
   6.643582e+01   5.459165e+01
  -6.180092e+01   8.600831e+01
  -5.824177e+01   5.996808e+01
  -7.596991e+01  -3.064579e+01
   8.761007e+00  -9.543695e+01
   1.089022e+02  -1.187184e+02
   1.943389e+02   4.240916e+01
   1.263636e+02   2.228172e+02
  -1.207841e+02   2.437145e+02
  -2.934073e+02   1.099683e+02
  -2.894992e+02  -6.460273e+01
  -1.028873e+02  -1.959685e+02
   2.866910e+01  -1.661249e+02
   9.124711e+01  -8.958516e+01
   9.256720e+01  -4.000534e+01
   5.673380e+01  -8.666985e+01
   9.066053e+01  -7.732102e+01
   1.294193e+02   2.987195e+01
   1.388796e+02   1.726214e+02
   1.148192e+01   1.996379e+02
  -8.083174e+01   2.106172e+02
  -1.901718e+02   2.814469e+01
  -1.353163e+02  -1.001367e+02
  -3.943623e+01  -1.753788e+02
   6.250985e+01  -1.061219e+02
   6.300242e+01  -1.577035e+01
   4.934685e+00   2.497494e+01
  -2.423341e+01   4.918694e+01
   1.793082e+01   1.286070e+01
   6.657313e+01   2.925537e+01
   5.767649e+01   5.227228e+01
  -7.695242e+01   3.871695e+01
  -1.281575e+02   2.960445e+01
  -1.680258e+02  -4.997863e+01
   6.584334e+00  -8.069830e+01
   1.126858e+02  -1.021416e+02
   1.401922e+02   2.291918e+00
   5.882812e+01   3.824827e+01
  -9.896553e+01   2.292716e+00
  -8.628468e+01  -2.823251e+01
  -1.602164e+01  -6.868260e+01
   5.724839e+01  -5.501155e+01
   6.345110e+01   7.608766e+00
   4.106000e+01   4.832682e+01
   2.740880e+01   2.639484e+01
   6.662402e+01  -1.099592e+01
   5.107308e+01   8.167548e+00
   6.012698e+01   5.749400e+01
  -5.157013e+01   1.482992e+02
  -1.245070e+02   1.412237e+02
  -1.396457e+02   5.857424e+01
  -1.387129e+02  -6.958911e+01
   4.905042e+00  -1.346589e+02
   6.874304e+01  -6.528068e+01
   3.419586e+01  -1.349521e+01
  -5.855646e+01   2.037717e+01
  -1.442424e+02  -2.646026e+01
  -1.067008e+02  -1.118890e+02
   9.139807e+01  -1.362279e+02
   1.873938e+02  -4.146362e+01
   1.769942e+02   6.987724e+00
   5.475970e+01   1.038470e+02
  -8.551342e+01   6.630111e+01
  -3.981932e+01  -1.607466e+01
   5.700688e+01  -4.925472e+01
   9.554932e+01   1.444482e+01
   1.272327e+01   1.188856e+02
  -1.154405e+02   1.621219e+02
  -1.578905e+02   6.287369e+01
  -1.309080e+02  -1.236515e+02
  -3.598702e+01  -2.429571e+02
   9.811151e+01  -1.348250e+02
   1.300314e+02  -5.384381e+00
   7.379211e+01   1.157418e+02
   2.277806e+01   1.565817e+02
  -4.753464e+01  -6.634700e+00
  -7.346069e+01  -2.988989e+01
  -1.362353e+01   1.483364e+01
  -1.101312e+01   3.147622e+01
  -3.020976e+01  -2.726662e+01
  -9.253575e+01  -8.736188e+01
  -2.510903e+01  -1.350489e+02
   7.553494e+01  -3.555217e+01
   1.568650e+02   3.838098e+01
   1.630996e+02   4.707845e+01
   3.065032e+01   7.225825e+01
  -9.520256e+01   2.030043e+01
  -9.290529e+01   3.326580e+01
  -7.238380e+00   1.492181e+01
   5.350727e+01  -7.177410e+00
   3.132194e+01  -5.591923e-01
  -3.223325e+01   5.404438e+00
   3.063894e+01   1.364921e+01
   8.956814e+01   2.885321e+01
   8.802691e+01   2.064551e+01
  -8.930075e+00   1.049371e+02
  -1.233787e+02   1.201007e+02
  -2.028368e+02   7.400208e+01
  -1.858816e+02  -6.294812e+01
  -3.058582e+01  -1.565685e+02
   7.080264e+01  -1.163321e+02
   1.030030e+02  -4.987819e+01
   8.371215e+01   2.146807e+01
   2.277005e+01   4.341950e+01
  -2.121129e+01   7.743758e+00
   2.065802e+01  -1.231574e+01
   3.473357e+01   5.998157e+01
   2.268599e+01   1.108170e+02
  -2.166834e+01   4.921723e+01
  -7.610643e+01   6.587526e+00
  -7.514546e+01  -1.270873e+02
  -3.241100e+01  -1.052814e+02
   6.762869e+01  -5.184701e+01
   9.338968e+01   6.715725e+01
   3.992588e+01   1.241130e+02
  -8.622178e+01   6.924090e+01
  -1.091341e+02  -4.394359e+01
  -4.963923e+01  -3.677520e+01
   3.974088e+00  -2.933828e+01
   4.135358e+01  -4.212807e+01
  -7.739149e+00  -1.850803e-01
  -6.121607e+01   2.287893e+01
  -2.512205e+01  -1.698716e+01
   8.197536e+01  -8.650675e+01
   1.020802e+02  -5.465637e+01
   7.985239e+01   7.658678e+00
  -3.218318e+01   9.891778e+01
  -4.401265e+01   7.555827e+01
  -3.442532e+01   1.943591e+01
   2.636275e+01  -3.190124e+01
   2.246531e+01  -5.145722e+01
   1.906498e+01   2.825796e+01
   3.306758e+01   3.151687e+01
   1.571841e+00   3.165389e+01
  -1.539243e+00  -1.466930e+00
  -5.480710e+01  -4.646502e+00
  -3.365793e+01  -1.369022e+01
   1.185927e+01   2.345642e+01
   9.624834e+00  -1.134183e+01
  -1.248195e+01  -4.779541e+01
  -3.043881e+00  -6.603995e+00
   4.138467e+01   1.055607e+01
   3.811618e+01   7.737025e+00
   1.428696e+01   5.423996e+01
  -5.489992e+01   1.094287e-01
  -4.659556e+01  -7.132079e+01
  -1.338837e+01  -6.327936e+01
   3.611279e+01  -4.235024e+01
   7.960009e+01   1.455974e+01
   6.114326e+01   4.716091e+01
  -1.568211e+01   3.093524e+01
  -8.704410e+01   5.320844e+01
  -2.205041e+01   1.020227e+01
   3.126854e+01  -6.937731e+00
   4.248648e+01   1.260537e+01
  -3.025603e+01   2.516808e+01
  -8.933524e+01  -1.217425e+00
