
 $NMID
 id='ANONYMOUS ', fmtdat='(2E16.6)'
 volume=1.0
 tramp=1.0
 $END
   3.095036e+03  -5.072883e+02
   1.807418e+03   1.446840e+03
  -2.697117e+02   1.714317e+03
  -1.229725e+03   1.112296e+03
  -6.900715e+02  -5.494754e+01
   1.033562e+02  -2.021272e+02
   2.750150e+02   2.779093e+01
   8.331553e+01   5.480377e+02
  -4.930582e+02   4.754058e+02
  -5.873401e+02   9.311115e+01
  -4.408198e+02  -4.891912e+02
   4.459990e+01  -5.909870e+02
   3.400194e+02  -1.440480e+02
   2.245302e+02   4.879791e+02
  -1.882606e+00   4.797977e+02
  -3.275254e+02   1.183658e+02
  -2.445572e+02  -4.469388e+02
   1.593815e+02  -5.256341e+02
   3.664972e+02  -2.464351e+02
   3.376959e+02   1.078502e+02
   1.008337e+02   2.777429e+02
  -7.622810e+01   2.525416e+02
  -8.078866e+01   4.669134e+01
   1.800360e+02   7.511043e+01
   3.014316e+02   1.461452e+02
   9.441835e+01   3.312857e+02
  -4.138244e+02   2.385843e+02
  -5.184011e+02  -6.401168e+01
  -1.845319e+02  -3.341143e+02
   2.933321e+02  -3.096970e+02
   4.743664e+02   7.110312e+01
   2.749981e+02   3.142653e+02
  -1.716324e+02   3.026157e+02
  -4.007188e+02   1.353540e+02
  -3.176614e+02  -1.438264e+02
  -8.178888e+01  -2.339221e+02
   2.988530e+01  -1.729328e+02
  -9.925059e+00   8.812074e+01
  -9.776856e+01   1.665208e+02
  -2.136161e+02  -6.705511e+00
  -1.307593e+02  -4.973355e+02
   2.896979e+02  -4.900571e+02
   3.549719e+02  -2.249900e+00
   1.848563e+02   3.796099e+02
  -1.797205e+02   1.311570e+02
  -1.479708e+02  -2.502102e+02
   5.905780e+01  -3.836881e+02
   3.739145e+02  -9.768104e+01
   5.226933e+02   3.653149e+02
   1.542757e+02   4.169217e+02
  -2.882026e+02   3.143047e+02
  -4.582751e+02  -9.539360e+00
  -2.621715e+02  -2.660050e+02
   4.440169e+01  -2.774915e+02
   2.395744e+02  -7.892960e+01
   1.376169e+02   1.794787e+01
  -7.553571e+01  -6.842106e-02
  -5.386309e+01  -8.392344e+01
   7.558550e+01  -7.229701e+01
   1.928338e+02   3.878519e+01
   1.121487e+02   1.567472e+02
  -1.303707e+02   1.984310e+02
  -2.974870e+02   1.250571e+02
  -2.423877e+02  -8.689946e+01
   1.950545e+01  -2.691763e+02
   1.695496e+02  -2.905395e+02
   2.856033e+02  -1.702769e+02
   2.465022e+02   1.025478e+02
   4.971835e+01   2.939140e+02
  -2.667163e+01   2.800389e+02
  -1.749586e+01   1.353076e+02
  -3.025456e+01   5.551261e+01
  -1.188419e+02   1.141091e+02
  -1.734353e+02   4.839656e+01
  -2.464093e+02  -1.389120e+02
  -9.230506e+01  -2.029457e+02
   8.506188e+01  -1.597826e+02
   1.400173e+02   3.571805e+01
   1.562774e+02   1.728889e+02
  -9.986522e+00   2.588214e+02
  -1.700784e+02   8.210861e+01
  -2.648919e+02  -1.397104e+02
  -1.699095e+02  -2.418430e+02
   8.686378e+01  -2.438193e+02
   1.308423e+02  -1.250058e+02
   1.607613e+02  -7.044707e+01
   1.204342e+02  -7.469529e+01
   2.295924e+02  -8.276672e+01
   3.727297e+02   8.698125e+01
   2.762097e+02   2.568811e+02
   9.174055e+00   3.919873e+02
  -2.978765e+02   3.711449e+02
  -4.004095e+02   2.000633e+02
  -2.535225e+02  -9.181857e+01
  -4.117992e+00  -2.443422e+02
   6.410766e+01  -1.785947e+02
   3.064527e+01  -5.109844e+01
  -1.295085e+02   3.433001e+01
  -1.506991e+02  -1.993529e+01
  -2.263692e+01  -1.420622e+02
   9.146401e+01  -8.572072e+01
   7.879557e+01   4.725324e+01
  -3.863342e+01   1.257778e+02
  -1.557535e+02   1.169134e+01
  -1.137402e+02  -2.114911e+02
  -2.364854e+01  -2.692161e+02
   2.030524e+02  -2.069629e+02
   3.259794e+02   3.303674e+01
   2.453933e+02   2.100691e+02
   6.623203e+01   2.517665e+02
  -8.317743e+01   1.137579e+02
  -1.414000e+02  -1.988670e+01
  -2.491401e+01  -3.074463e+01
   1.223765e+01   5.691479e+01
  -1.540117e+01   1.212648e+02
  -9.783675e+01   6.626633e+01
  -1.315012e+02  -3.761924e+00
  -2.746805e+01  -6.922909e+01
   8.821151e+01  -1.435564e+01
   7.486025e+01   7.274014e+01
  -1.434819e+02   5.638350e+01
  -2.313419e+02   7.067164e+00
  -2.046311e+02  -1.656416e+02
  -7.008987e+00  -2.560136e+02
   1.876530e+02  -1.864583e+02
   2.157151e+02  -1.081156e+02
   1.476478e+02   2.860963e+01
  -1.119735e+01   5.167373e+01
  -6.287395e+01  -1.395784e+01
   1.714285e+00  -1.072571e+02
   1.634732e+02  -3.583452e+01
   1.532460e+02   8.197680e+01
   7.835957e+01   1.692027e+02
  -9.366492e+01   1.460929e+02
  -1.046476e+02   2.114833e-02
  -6.130086e+01  -3.422914e+01
   4.965247e+01   1.907497e+01
   6.200253e+01   1.130824e+02
  -1.088527e+02   1.047444e+02
  -1.845490e+02   2.947760e+01
  -1.726105e+02  -8.243113e+01
  -2.304276e+01  -1.493778e+02
   1.614735e+02  -1.384715e+02
   1.872975e+02  -3.156865e+01
   6.959089e+01   7.669849e+01
  -6.346886e+01   1.138844e+02
  -3.247272e+01   1.070893e+01
   5.816732e+00  -3.312598e+01
   2.193210e+01  -2.130654e+01
   1.139544e+01   1.682109e+01
  -7.333211e+01   3.129584e+01
  -9.229085e+01  -8.147369e+01
  -8.618740e-01  -1.375323e+02
   1.134099e+02  -1.744045e+02
   2.159202e+02  -1.264144e+01
   1.698038e+02   1.303067e+02
   3.552214e+01   1.868240e+02
  -6.903106e+01   1.559745e+02
  -8.051911e+01   2.455555e+01
  -4.663224e+01  -4.276819e+01
  -4.893168e+01  -5.123696e+01
  -4.186763e+01   2.175327e+01
  -7.010812e+01   1.185372e+01
  -6.362935e+01  -3.219362e+01
   6.735307e+01  -9.593571e+01
   6.748056e+01  -5.933626e+01
   8.055708e+01   4.699030e+01
  -2.580178e+01   1.019528e+02
  -1.444456e+02   6.421970e+01
  -1.833214e+02  -2.801997e+01
  -6.792734e+01  -1.677289e+02
   1.020274e+02  -1.956740e+02
   1.756951e+02  -8.463894e+01
   2.102320e+02   6.323760e+01
   1.050735e+02   1.573031e+02
  -2.915544e+01   9.493481e+01
  -7.359093e+01   5.146442e+01
  -4.574666e+01   6.347522e+01
  -2.775011e+01   6.260317e+01
  -9.136187e+01   5.222384e+01
  -9.011254e+01  -2.372470e+00
  -1.236422e+02  -1.460306e+02
  -2.771377e+01  -1.768052e+02
   1.215626e+02  -1.395200e+02
   1.194587e+02  -1.147266e+01
   9.414679e+01   1.442440e+02
   3.102734e+01   1.560100e+02
  -7.301785e+01   7.837103e+01
  -5.574456e+01  -3.749570e+01
   3.315947e+01  -4.926471e+01
   2.521442e+01  -1.739046e+01
   2.761163e+00  -1.486461e+01
  -1.020203e+02  -2.773800e+01
  -4.166936e+01  -1.820718e+01
   8.071555e+01  -4.571930e+01
   1.525292e+02  -2.199228e+01
   1.166152e+02   4.804654e+01
   1.179739e+01   7.963444e+01
  -1.040648e+02   7.664133e+01
  -1.337907e+02  -9.342640e+00
  -3.154992e+01  -2.063993e+01
   6.730116e+01  -4.329275e+01
   1.069137e+02  -1.998969e+01
   2.343658e+01   8.490650e+01
  -4.928306e+01   6.350092e+01
  -5.362660e+01   3.246096e-01
  -6.079041e+01  -3.032726e+01
  -1.240164e+01  -1.627432e+01
  -4.389495e+01   9.596423e+00
  -3.240608e+01   3.425284e+00
  -6.111799e+01  -6.070379e+01
   5.389733e+01  -1.316980e+02
   4.344049e+01  -1.181670e+02
   1.761879e+02  -6.992534e+01
   1.279269e+02   1.059479e+02
   2.240299e+01   1.126402e+02
  -5.838102e+01   8.801935e+01
  -5.049696e+01   2.284766e+00
   5.521422e+01  -4.299842e+01
   1.033660e+02   1.723272e+01
   7.012800e+01   8.844153e+01
  -8.680098e+01   1.107583e+02
  -1.639238e+02   5.795031e+01
  -1.561870e+02  -4.175255e+01
  -3.314791e+01  -6.712459e+01
   6.332180e+01  -1.391089e+01
   7.442127e+01   9.167976e+00
  -3.498802e+01   1.647751e+01
  -5.404178e+01  -1.600250e+01
  -2.631510e+01  -1.051273e+02
   8.798628e+01  -1.451522e+02
   1.384659e+02  -2.434526e+01
   7.075719e+01   1.078971e+02
   6.402361e+01   2.168621e+02
  -7.231284e+01   1.217205e+02
  -6.107790e+01   9.404673e+00
  -4.142859e+01  -1.023867e+02
   1.958650e+01  -1.244387e+02
   5.428097e+01  -1.904147e+01
   2.828119e+01   2.018326e+01
   4.525581e+01   1.195571e+00
   3.177090e+01  -3.417164e+00
   3.642639e+01   5.252683e+00
   4.628360e+01   5.612527e+01
   2.628006e+01   9.811198e+01
  -5.067527e+01   1.758474e+01
  -1.099912e+02  -8.830910e+01
  -1.110187e+02  -6.642611e+01
  -2.256915e+00  -1.399883e+01
   7.959216e+01  -4.931319e+01
   6.897118e+01  -3.426702e+00
   7.351300e-01   1.364866e+01
  -1.594329e+01   2.575757e+01
   1.081925e+01   2.371457e+01
   1.705229e+01  -1.072429e+01
   3.150435e+00   1.943899e+00
  -3.822761e+01   2.047024e+01
  -1.010759e+02  -2.217748e+01
  -1.102716e+01  -5.469991e+01
   9.494329e+01  -1.106566e+02
   1.764638e+02  -5.838681e+01
   1.222960e+02   5.817889e+01
   3.774146e+01   1.479537e+02
  -8.125764e+01   1.451948e+02
  -1.293024e+02   8.432267e+01
  -6.794419e+01   1.989532e+01
   2.433666e+00  -5.242990e+01
  -4.145193e+00  -1.799936e+01
   2.987737e+01  -2.522656e+01
  -3.177312e+01  -5.140631e+01
  -2.834739e+01  -1.011459e+02
   2.494405e+01  -5.819766e+01
   7.819360e+01   4.093459e+01
   5.577732e+01   6.928007e+01
  -1.058114e+01   9.469103e+01
  -5.262496e+01   4.118168e+01
  -9.289119e+01  -4.766782e+01
  -5.549087e+01  -1.080756e+02
   4.826411e+01  -6.627111e+01
   4.857152e+01  -5.389084e+00
   3.373176e+01   3.575833e+01
  -1.282944e+01   5.509387e+01
  -3.248500e+01  -7.695793e+00
  -1.789252e+01  -2.291467e+01
   5.811412e+01  -3.366467e-01
   2.115189e+01   6.313127e+01
  -5.518951e+01   6.447475e+01
  -1.090075e+02   6.027873e+01
  -3.843086e+01   5.181139e-01
  -7.152222e+00  -7.516904e+01
   6.570277e+01  -5.826007e+01
   6.143082e+01  -9.541053e+00
   2.071137e+01   7.365214e+01
  -2.662276e+01   4.542249e+01
  -5.078628e+01  -2.839937e+00
  -2.536867e+01  -5.954589e+01
   5.764565e+00  -2.492021e+01
   7.958933e+00   5.810558e+00
   4.324652e+01   4.868721e+01
   2.777425e+01   1.662937e+01
  -9.741723e+00  -9.986223e+00
   3.518079e+01  -9.225263e+00
   2.954385e+01  -6.584960e+00
   5.318685e+01   5.742081e+01
  -1.774873e+01   1.879854e+01
  -7.510898e+01  -4.907048e+01
  -2.822517e+00  -8.078911e+01
   2.985838e+01  -5.075034e+01
   4.504613e+01   1.506998e+01
   3.223923e+01   4.094777e+01
  -4.214966e+01   4.650727e+01
  -5.889387e+01  -4.762168e+00
  -4.274005e+01  -4.925790e+01
   2.280530e+01  -4.139515e+01
   5.083332e+01  -4.441059e+00
  -4.896108e-01   1.219659e+01
  -4.598763e+01   2.511894e+01
  -1.420148e+01   2.124356e+01
   3.876350e+01  -4.505336e+01
   6.045821e+01  -1.985377e+01
