
 $NMID
 id='ANONYMOUS ', fmtdat='(2E16.6)'
 volume=1.0
 tramp=1.0
 $END
  -4.513580e+03  -4.041525e+02
  -2.348854e+03  -2.589005e+03
   6.781796e+02  -2.711331e+03
   1.791817e+03  -9.733835e+02
   1.041968e+03   6.282827e+02
  -5.547139e+02   6.252140e+02
  -9.827181e+02  -5.238526e+02
  -6.202708e+01  -1.041828e+03
   9.036435e+02  -7.781286e+02
   8.825459e+02   6.684810e+01
   4.150939e+02   8.431477e+02
  -1.819483e+02   8.361377e+02
  -6.743904e+02   1.032045e+02
  -4.605055e+02  -8.111478e+02
   2.613891e+02  -7.874011e+02
   6.229853e+02  -1.946184e+01
   2.389260e+02   7.409568e+02
  -3.024946e+02   6.802695e+02
  -6.297463e+02   6.223630e+01
  -3.697550e+02  -4.062707e+02
  -3.237485e+01  -4.526912e+02
   2.193789e+02  -2.680373e+02
   2.423493e+02   7.907164e+00
  -7.190486e+01   9.413169e+01
  -4.346138e+02  -6.716064e+01
  -1.761624e+02  -4.508066e+02
   4.460399e+02  -4.916343e+02
   8.730928e+02   1.080872e+02
   5.189383e+02   5.461954e+02
  -4.612380e+02   5.587238e+02
  -7.340710e+02  -8.054822e+01
  -3.067281e+02  -4.328628e+02
   2.789409e+02  -5.555167e+02
   5.864167e+02  -2.061372e+02
   4.666067e+02   2.968994e+02
   6.728103e+01   4.729874e+02
  -1.974689e+02   3.030761e+02
  -2.266913e+02  -2.116105e+02
   2.225138e+02  -4.582677e+02
   4.664626e+02   2.211378e+01
   3.127269e+02   6.665680e+02
  -3.781788e+02   8.513618e+02
  -6.604541e+02   1.021557e-01
  -2.311775e+02  -6.601845e+02
   2.838103e+02  -3.543930e+02
   4.545648e+02   2.353394e+02
  -2.764942e+01   5.453144e+02
  -5.568909e+02   1.151248e+02
  -6.663976e+02  -4.272514e+02
  -1.435047e+02  -5.225441e+02
   4.302356e+02  -3.479534e+02
   6.625254e+02   1.198593e+02
   3.578223e+02   4.245882e+02
  -1.563699e+02   4.097988e+02
  -4.572216e+02   1.152178e+01
  -2.612265e+02  -1.909283e+02
   8.741857e+01  -1.600142e+02
   1.597139e+02   1.385992e+02
  -2.174077e+02   1.901657e+02
  -3.864900e+02  -8.785320e+01
  -1.329907e+02  -3.132939e+02
   2.006894e+02  -2.659129e+02
   2.915613e+02  -1.455955e+01
   1.623461e+02   1.217967e+02
  -2.521253e+01   2.191901e+02
  -1.641022e+02   3.024890e+02
  -2.857772e+02   1.810957e+02
  -2.824387e+02  -1.201124e+02
  -6.459860e+01  -4.195778e+02
   7.591079e+01  -3.679779e+02
   1.162896e+02  -1.268962e+02
   4.753149e+01   1.838408e+01
  -1.207306e+00  -6.096970e+01
   2.116620e+02  -1.315756e+02
   2.744986e+02   4.240069e+01
   1.387474e+02   2.383993e+02
  -3.457210e+01   2.708661e+02
  -2.197387e+02   5.430999e+00
  -2.000548e+02  -2.684021e+02
   1.273269e+01  -3.029908e+02
   2.873271e+02  -1.551750e+02
   3.496706e+02   1.592514e+02
   1.604680e+02   3.218204e+02
  -1.127806e+02   3.652868e+02
  -2.323543e+02   1.140723e+02
  -1.544890e+02   2.762424e+00
  -1.246469e+02   7.458064e+00
  -2.292959e+02   3.393478e+01
  -4.385313e+02  -3.664551e+01
  -2.771262e+02  -2.601370e+02
   1.954340e+01  -4.653094e+02
   3.521630e+02  -4.145384e+02
   4.152724e+02  -1.699637e+02
   3.137774e+02   9.711210e+01
   1.353083e+01   2.860472e+02
  -9.045549e+01   2.743709e+02
  -8.689699e+01   4.677762e+00
   1.237989e+02  -1.555120e+02
   2.258565e+02   2.437212e+01
   7.598953e+01   2.064516e+02
  -1.637304e+02   1.639168e+02
  -1.674040e+02  -9.675000e+01
   9.063106e+00  -2.192329e+02
   2.112804e+02  -3.544995e+01
   1.519330e+02   2.394344e+02
  -2.202880e+01   3.866322e+02
  -2.371915e+02   1.759067e+02
  -3.301207e+02  -1.043267e+02
  -2.596669e+02  -2.372048e+02
  -1.089301e+02  -2.402152e+02
   1.046304e+02  -1.689248e+02
   2.019022e+02  -5.077393e+01
   3.071604e+01   2.198755e+01
  -7.088500e+01  -3.985273e+01
  -2.809681e+01  -1.106462e+02
   1.186161e+02  -1.126918e+02
   1.431940e+02  -3.165253e+00
   5.562065e+01   8.639301e+01
  -9.720273e+01   3.619338e+00
  -3.277942e+01  -8.952291e+01
   1.570626e+02  -1.122077e+02
   2.618588e+02   4.406039e+01
   2.570397e+02   1.657760e+02
   7.144985e+01   2.916376e+02
  -1.457961e+02   2.445585e+02
  -2.581248e+02   1.698068e+02
  -1.427820e+02  -5.221818e+01
   6.305184e+01  -1.021497e+02
   9.955765e+01  -1.180341e+01
  -3.863831e+01   8.129656e+01
  -2.276989e+02   8.448369e+01
  -2.173557e+02  -8.491097e+01
  -6.898122e+01  -2.256439e+02
   1.142520e+02  -1.785369e+02
   1.384722e+02  -2.215894e+01
   7.512752e+01   1.153611e+01
  -5.678669e+01   5.361203e+00
  -5.068100e+01  -7.969736e+01
   7.614343e+01  -1.104872e+02
   1.703569e+02  -4.019220e+00
   2.119962e+02   1.179402e+02
   3.009437e+00   1.732829e+02
  -1.728178e+02   2.093845e+02
  -1.815771e+02   7.543599e+00
  -5.453073e+01  -1.185071e+02
   3.182096e+01  -1.031675e+02
   7.069915e+01  -5.175861e+01
   3.668842e+01  -3.012353e+01
   1.436815e+00   1.661225e+01
   2.470953e+01  -3.951508e+01
   4.630714e+01   2.975417e+01
   8.635680e+01   1.012786e+02
   1.974510e+01   1.499275e+02
  -1.566280e+02   1.319269e+02
  -2.798445e+02   3.262979e+00
  -1.959193e+02  -1.634990e+02
  -4.013521e+01  -2.296540e+02
   1.429988e+02  -1.866286e+02
   1.281395e+02  -2.332845e+01
   6.412164e+01   6.343752e+01
   4.157307e+01   2.055535e+01
   7.051392e+01  -1.683602e+01
   6.873654e+01  -2.780557e+01
   6.245175e+01   6.076149e+01
  -5.798146e+01   9.321488e+01
  -1.062250e+02   7.261542e+01
  -8.496602e+01  -2.766361e+01
  -3.749118e+00  -1.033718e+02
   1.386673e+02  -7.052544e+01
   2.230754e+02   4.551975e+01
   6.414795e+01   2.077608e+02
  -1.217328e+02   2.353120e+02
  -2.464951e+02   6.787797e+01
  -2.137768e+02  -9.623211e+01
  -1.145933e+02  -1.864940e+02
   5.976983e+01  -1.399518e+02
   7.932147e+01  -7.882642e+01
   8.237186e+01  -5.438200e+01
   5.481844e+01  -6.447699e+01
   1.037589e+02  -8.349645e+01
   1.367402e+02   2.845370e+01
   1.511142e+02   1.489232e+02
   4.604907e+01   2.579928e+02
  -9.225363e+01   1.935370e+02
  -1.843398e+02   4.356467e+01
  -7.861672e+01  -1.127009e+02
  -2.187429e+01  -1.668152e+02
   6.814200e+01  -9.277915e+01
   5.418074e+01   1.030993e+01
   2.580853e+01   3.930585e+01
  -1.665550e+01   1.905084e+01
   1.296928e+01   9.820267e+00
   5.719113e+01   2.663480e+01
   6.721313e+01   4.881076e+01
  -8.343175e+01   2.718672e+01
  -1.335819e+02   1.725904e+01
  -1.532351e+02  -6.080518e+01
   3.718141e+00  -4.732784e+01
   1.274946e+02  -6.615808e+01
   1.535913e+02  -2.327007e+01
   4.300498e+01   4.101523e+01
  -6.086203e+01   3.198405e+01
  -8.905988e+01   4.345604e+00
  -2.639002e+00  -6.596968e+01
   6.455066e+01  -4.871240e+01
   6.772594e+01   9.934701e+00
   3.391956e+01   2.929419e+01
   6.511257e+01   3.245313e+01
   7.030862e+01   1.095845e+01
   7.770915e+01  -9.645469e+00
   2.145961e+01   5.902135e+01
  -2.974376e+01   1.674737e+02
  -1.299719e+02   1.277770e+02
  -1.379866e+02   5.942903e+01
  -1.258803e+02  -7.556251e+01
  -1.405998e+00  -1.212412e+02
   8.493408e+01  -6.678930e+01
   4.497477e+01   4.820385e+01
  -5.960916e+01   1.006789e+01
  -1.646430e+02  -4.313275e+01
  -1.112330e+02  -5.900637e+01
   6.138042e+01  -1.063236e+02
   1.817744e+02  -4.582452e+01
   1.791305e+02   2.361952e+01
   2.246860e+01   8.383465e+01
  -5.410003e+01   7.448018e+01
  -2.377061e+01   2.809193e+01
   3.393197e+01  -1.345718e+01
   7.128792e+01   3.190551e+01
   2.338821e+01   1.084347e+02
  -8.042398e+01   1.339476e+02
  -1.712631e+02   5.178619e+01
  -1.169138e+02  -1.216059e+02
  -1.213754e+01  -2.432993e+02
   8.186414e+01  -1.377939e+02
   1.081909e+02  -2.395141e+01
   7.634100e+01   1.346897e+02
  -1.256491e+01   1.330485e+02
  -4.803855e+01   5.645946e-02
  -3.530338e+01  -1.464804e+01
  -3.974825e+00  -2.831989e+00
   2.517168e+01   2.198731e+01
  -2.806400e+01  -1.919228e+01
  -2.797059e+00  -8.602370e+01
  -3.849602e+01  -8.468835e+01
   7.295633e+01  -4.848141e+01
   1.460431e+02   1.201803e+01
   1.505843e+02   7.989552e+01
   2.752611e+01   6.514441e+01
  -1.198359e+02   1.276538e+01
  -9.787077e+01   3.963415e+01
  -3.107427e+00  -1.741377e+01
   3.416203e+01  -5.499198e+00
   1.986092e+01  -2.432386e+01
  -6.089024e+00   3.543282e+00
   2.573110e+01  -1.543873e+01
   6.951501e+01   1.680368e+01
   6.985588e+01   1.405665e+01
   7.178940e-01   6.067280e+01
  -1.342429e+02   1.095367e+02
  -2.373063e+02   4.651593e+01
  -1.675149e+02  -1.248903e+02
  -3.745279e+01  -1.625840e+02
   6.701498e+01  -1.609705e+02
   1.217277e+02  -4.580215e+01
   9.904850e+01   6.284308e+00
   1.181154e+01   3.973395e+01
   8.999766e+00  -3.459098e+01
   1.284597e+01   7.367892e+00
   4.257385e+01   3.626515e+01
   2.959495e+01   9.594437e+01
  -8.014529e+01   5.915441e+01
  -6.297339e+01  -4.698425e+01
  -5.980788e+01  -1.173469e+02
   2.947125e-01  -1.530047e+02
   9.738844e+01  -5.428897e+00
   8.000507e+01   6.424013e+01
   4.220469e+01   1.004243e+02
  -7.620628e+01   5.260123e+01
  -1.017583e+02  -2.741602e+01
  -2.742222e+01  -2.852951e+01
   3.710576e+01  -3.589895e+01
   3.849778e+01  -5.485990e+00
  -2.914908e+01  -1.014096e+01
  -8.316067e+01  -1.899432e+00
  -3.860453e+01  -1.221634e+01
   9.289819e+01  -3.898690e+01
   1.069694e+02  -7.777804e+01
   5.740260e+01  -1.444370e+01
   1.115883e+01   7.022160e+01
  -5.998135e+01   7.745311e+01
  -3.516295e+01  -2.137367e+01
  -1.424412e+01  -7.047219e+01
   2.601781e+01  -2.820844e+01
   4.518797e+01   4.142057e+01
   2.049164e+01   4.387261e+01
   1.643426e+01   2.598606e+01
  -2.186541e+01  -1.070043e+01
  -5.689038e+01  -2.658649e+00
  -2.256133e+01  -5.840783e+00
   6.373464e+00   2.051044e+01
   1.262543e+01  -2.563173e+01
   2.447528e+01  -2.256673e+01
   1.317098e+01  -1.365404e+01
   3.722142e+01   3.401957e+00
   5.206643e+01   4.334490e+01
  -5.636074e-01   6.680417e+01
  -1.332363e+01   7.841607e+00
  -2.724018e+01  -3.308709e+01
  -4.670100e+01  -6.644886e+01
   6.369157e+01  -6.066261e+01
   9.150042e+01   1.543446e+01
   4.842994e+01   3.604809e+01
  -4.335522e+01   5.280928e+01
  -6.647677e+01   2.754436e+01
  -2.122926e+01   1.700909e+01
   4.036333e+01  -2.262596e+01
   3.098350e+01   6.397413e+01
  -5.821383e+01   3.602696e+01
  -6.357909e+01   4.355043e+00
