
 $NMID
 id='ANONYMOUS ', fmtdat='(2E16.6)'
 volume=1.0
 tramp=1.0
 $END
   4.410651e+03   1.729097e+02
   2.729834e+03   2.511650e+03
  -7.718248e+02   2.838678e+03
  -1.877832e+03   1.199258e+03
  -1.090902e+03  -6.201472e+02
   4.747199e+02  -6.137659e+02
   9.036909e+02   4.093814e+02
  -7.325859e+00   1.086433e+03
  -8.878215e+02   7.324237e+02
  -8.810640e+02  -5.361469e+01
  -4.640632e+02  -8.770519e+02
   1.929457e+02  -8.083054e+02
   6.523036e+02  -8.441392e+01
   3.864065e+02   8.083709e+02
  -2.798384e+02   7.806259e+02
  -6.330365e+02   1.783128e+01
  -2.358409e+02  -6.557313e+02
   3.071733e+02  -6.938275e+02
   5.808466e+02  -7.980275e+01
   3.387566e+02   3.953661e+02
  -1.256762e+00   4.462592e+02
  -2.684413e+02   3.132807e+02
  -2.528979e+02  -1.132618e+01
   5.428134e+01  -1.153992e+02
   4.017956e+02   9.693558e+01
   1.626609e+02   4.609118e+02
  -5.049705e+02   4.193810e+02
  -8.171349e+02  -8.306894e+01
  -4.221506e+02  -5.688970e+02
   4.329233e+02  -5.148915e+02
   7.650852e+02   4.461817e+01
   3.276609e+02   5.071105e+02
  -2.643661e+02   4.860630e+02
  -5.557445e+02   1.983174e+02
  -4.709152e+02  -2.657449e+02
  -8.084830e+01  -4.128654e+02
   2.077288e+02  -3.166197e+02
   2.044767e+02   2.117848e+02
  -1.328125e+02   4.344420e+02
  -4.604937e+02  -6.115914e+01
  -2.776166e+02  -6.872446e+02
   3.947299e+02  -8.062476e+02
   6.384327e+02  -2.169587e+00
   2.841923e+02   6.076413e+02
  -2.675066e+02   3.493331e+02
  -4.020552e+02  -3.292088e+02
   2.582615e+01  -5.359646e+02
   5.637965e+02  -1.124745e+02
   6.065543e+02   3.964562e+02
   1.401837e+02   6.031376e+02
  -4.079730e+02   3.484832e+02
  -6.359736e+02  -1.116936e+02
  -3.660508e+02  -4.088198e+02
   1.441035e+02  -4.297816e+02
   4.251756e+02  -1.105918e+01
   2.250342e+02   1.786139e+02
  -1.132607e+02   1.406755e+02
  -1.761879e+02  -1.292519e+02
   1.662552e+02  -1.632839e+02
   3.420212e+02   9.522828e+01
   1.063048e+02   2.528803e+02
  -1.662074e+02   2.690671e+02
  -3.050550e+02   2.275828e+01
  -1.812375e+02  -1.164747e+02
   1.516932e+01  -2.357640e+02
   1.880935e+02  -2.753107e+02
   3.166420e+02  -1.944848e+02
   2.952641e+02   1.236905e+02
   5.131721e+01   4.728783e+02
  -7.673223e+01   3.985264e+02
  -1.387342e+02   1.440446e+02
  -5.307648e+01   5.290190e-01
  -4.398254e+01   6.564686e+01
  -1.910401e+02   9.525790e+01
  -2.757338e+02  -5.641989e+01
  -1.787852e+02  -2.657642e+02
   1.193046e+01  -2.909816e+02
   2.335924e+02  -3.916846e+01
   1.896271e+02   2.417313e+02
  -1.396463e+01   2.967733e+02
  -2.822834e+02   1.300863e+02
  -3.402791e+02  -1.927703e+02
  -1.771169e+02  -3.068493e+02
   1.336534e+02  -3.532511e+02
   2.797271e+02  -1.307954e+02
   1.485766e+02   2.702174e+00
   8.330457e+01  -4.059964e+01
   2.229661e+02  -1.601310e+01
   4.237600e+02   5.782024e+01
   3.033444e+02   2.511045e+02
   2.019905e+01   5.303786e+02
  -4.079299e+02   3.973907e+02
  -4.639820e+02   1.503987e+02
  -3.247207e+02  -1.036872e+02
  -4.898466e+01  -2.892824e+02
   9.127072e+01  -2.967376e+02
   9.866057e+01  -3.168387e+01
  -1.084622e+02   1.657536e+02
  -2.088556e+02  -2.755017e+01
  -4.631180e+01  -2.307905e+02
   1.600656e+02  -1.895083e+02
   1.936610e+02   1.052296e+02
  -1.434377e+01   1.891831e+02
  -1.851171e+02   2.928969e+01
  -1.680418e+02  -2.135289e+02
   1.600922e+01  -3.870808e+02
   2.461475e+02  -1.896219e+02
   2.890020e+02   5.410974e+01
   2.787088e+02   2.492523e+02
   6.325585e+01   2.579477e+02
  -1.300758e+02   1.503487e+02
  -1.436700e+02   3.018004e+01
  -5.400680e+01  -3.282523e+01
   6.607700e+01   5.122843e+01
   3.288803e+01   8.171066e+01
  -1.461419e+02   1.124958e+02
  -1.431258e+02  -1.286616e+00
  -6.761184e+01  -9.072080e+01
   1.028774e+02  -2.667924e+01
   6.493442e+01   7.534864e+01
  -1.161174e+02   1.025092e+02
  -2.669713e+02  -3.694527e+01
  -2.477734e+02  -1.448688e+02
  -5.961210e+01  -2.670545e+02
   1.630532e+02  -2.684782e+02
   2.706197e+02  -1.102546e+02
   1.350713e+02   4.372220e+01
  -2.743816e+01   1.088852e+02
  -1.134381e+02   1.351788e+01
   5.483617e+01  -1.259217e+02
   2.222238e+02  -8.699409e+01
   2.469896e+02   9.762296e+01
   9.271222e+01   1.919370e+02
  -1.038551e+02   1.431388e+02
  -1.423387e+02   1.127148e+01
  -8.326638e+01  -4.841734e+01
   2.629331e+01   7.707506e+00
   6.555552e+00   3.202564e+01
  -5.426435e+01   9.342480e+01
  -2.017151e+02   1.012190e+01
  -2.005249e+02  -9.594610e+01
  -3.416086e+01  -1.883290e+02
   1.941613e+02  -1.997510e+02
   1.643808e+02  -1.414195e+01
   8.398819e+01   1.284542e+02
  -1.317851e+01   1.164444e+02
  -8.920716e+01   3.020691e+01
  -3.169786e+01   5.405726e+00
  -5.537120e+00  -2.765389e+01
   6.378766e+00   2.183889e+01
  -6.379729e+01  -1.278598e+01
  -8.500123e+01  -8.318590e+01
  -2.405286e+01  -1.402319e+02
   1.118406e+02  -1.735410e+02
   2.346535e+02  -2.645000e+01
   2.066102e+02   1.546376e+02
   3.154039e+01   2.166580e+02
  -1.216925e+02   1.641160e+02
  -1.488451e+02   1.619089e+01
  -6.097560e+01  -5.119415e+01
  -4.404305e+01  -4.945831e+01
  -7.913201e+01  -2.388585e+01
  -7.594472e+01  -1.113906e+01
  -3.541545e+01  -4.228331e+01
   5.613414e+01  -9.067554e+01
   8.348728e+01  -2.802949e+01
   6.863250e+01   2.876797e+01
  -2.901861e+01   1.200135e+02
  -1.684048e+02   9.088853e+01
  -2.223401e+02  -3.202726e+01
  -1.006785e+02  -2.108259e+02
   7.401704e+01  -2.619562e+02
   2.603150e+02  -8.306276e+01
   2.622189e+02   4.298648e+01
   8.619373e+01   1.916186e+02
  -4.046445e+01   1.367282e+02
  -1.071892e+02   7.895133e+01
  -1.057873e+02   4.644652e+01
  -7.897699e+01   1.073516e+02
  -7.476227e+01   9.320185e+01
  -1.265008e+02  -4.080995e+01
  -1.442076e+02  -1.811073e+02
  -6.925645e+01  -2.598638e+02
   8.821778e+01  -1.808726e+02
   2.042052e+02  -1.170342e+01
   9.228884e+01   1.318601e+02
   1.883038e+01   1.638754e+02
  -4.927968e+01   8.809282e+01
  -1.010408e+02   1.542979e+00
   7.984535e+00  -3.413301e+01
  -3.775311e+00  -1.115151e+01
  -7.342358e-01  -9.629394e+00
  -7.732616e+01   3.568615e+00
  -5.959795e+01  -3.076923e+01
   5.736887e+01  -2.168370e+01
   1.786917e+02   1.910911e+01
   1.361571e+02   4.881730e+01
   1.152164e+01   7.194277e+01
  -1.308400e+02   5.470354e+01
  -1.527952e+02   3.286692e+01
  -6.551020e+01  -3.833830e+01
   8.309907e+01  -2.563385e+01
   9.216267e+01   3.806003e+01
  -6.053754e-01   3.141234e+01
  -7.135805e+01   5.184690e+01
  -7.181561e+01   2.311800e+01
  -5.911453e+01  -5.761072e+01
  -5.499989e+01  -3.684439e+01
  -8.910413e+01  -2.266943e+01
  -8.430178e+01  -3.341476e+00
  -3.608222e+01  -6.593315e+01
   3.012956e+01  -1.770360e+02
   1.163810e+02  -1.319982e+02
   1.311942e+02  -1.694549e+01
   1.185148e+02   8.650388e+01
   4.054269e+00   1.190909e+02
  -9.943955e+01   7.877515e+01
  -5.027989e+01  -5.679100e+00
   8.583619e+01  -2.613229e+01
   1.444878e+02   4.974960e+01
   9.590826e+01   9.831753e+01
  -9.043516e+01   6.522953e+01
  -1.691239e+02   7.233515e+01
  -1.683118e+02  -5.202137e+01
  -2.552940e+01  -8.699513e+01
   4.670089e+01  -6.730072e+01
   2.870751e+01  -2.673042e+00
  -4.074032e+01   1.391663e+01
  -8.917066e+01  -3.545827e+01
  -4.706243e+00  -1.421031e+02
   5.884630e+01  -1.113699e+02
   1.857580e+02  -7.124987e+01
   1.603745e+02   1.383144e+02
   3.507110e+01   2.313994e+02
  -5.319027e+01   1.419905e+02
  -8.456121e+01   4.464163e+00
  -4.962882e+01  -1.456391e+02
  -1.272675e+01  -9.985110e+01
   3.512732e+01  -1.486925e+01
   5.795261e+01   2.760105e+01
   4.618597e+01   1.566581e+01
  -9.214002e+00  -2.791925e+01
   3.310895e+01   2.338819e+01
   5.775171e+01   8.363408e+01
   3.808681e+01   1.204073e+02
  -1.746433e+01   6.858204e+01
  -1.500945e+02   2.273375e+00
  -1.241100e+02  -1.020499e+02
  -6.273027e+00  -6.895418e+01
   9.359609e+01  -1.067515e+01
   1.084572e+02  -9.995397e+00
   1.523112e+01   1.090403e+01
  -4.690833e+01   1.577618e+01
  -2.676758e+01  -5.089581e+00
   1.012200e+01  -4.344299e+00
   9.005072e+00   1.424675e+01
  -5.371527e+01  -1.313221e+01
  -8.282832e+01  -2.468035e+01
   2.269771e+01  -5.807803e+01
   1.234931e+02  -7.915550e+01
   2.173224e+02  -5.159042e+01
   1.715263e+02   8.969034e+01
   3.891215e+01   1.745349e+02
  -1.008077e+02   1.504793e+02
  -1.117386e+02   5.929609e+01
  -1.135320e+02  -1.916368e+01
  -3.646942e+01  -4.280766e+01
   7.814258e+00  -1.534926e+01
   3.003866e+00   1.370018e+01
  -2.611618e+01  -4.678201e+01
  -3.598851e+01  -9.191557e+01
   3.597298e+01  -6.446262e+01
   7.673404e+01   4.641775e+01
   8.337797e+01   1.203332e+02
   2.312542e+01   1.243926e+02
  -1.031760e+02   3.121947e+01
  -1.046270e+02  -8.473897e+01
  -3.033844e+01  -9.165569e+01
   6.613718e+01  -5.058323e+01
   1.075943e+02   2.078647e+01
   6.577739e+01   5.483745e+01
  -4.183619e+01   8.364223e+01
  -6.169854e+01   1.103827e+01
   3.687690e+01  -5.988056e+00
   7.811484e+01  -2.468512e+01
   4.212863e+01   2.120899e+01
  -7.164100e+01   4.432578e+01
  -1.386022e+02   1.566982e+01
  -6.598064e+01  -3.644084e+00
   8.095355e+00  -7.001110e+01
   3.773287e+01  -7.599653e+01
   1.521366e+01   3.997434e+00
   4.552918e+00   6.474029e+01
  -3.580805e+01   2.587789e+01
  -5.557182e+01  -2.799219e+01
  -2.581054e+01  -4.309747e+01
   1.942959e+01  -4.613122e+01
   6.542813e+01   1.947061e+01
   3.051514e+01   4.953143e+01
  -1.509397e+01   1.448434e+01
   9.273424e+00   5.037542e+00
  -8.655805e+00   6.228931e-01
  -1.439692e+00   6.009462e+01
   7.245586e+00   3.425629e+01
  -3.633009e+01   2.409578e+01
  -3.526603e+01  -5.073075e+01
   1.625551e+01  -4.710740e+01
   5.027624e+01  -3.951601e+01
   5.106088e+01   5.226634e+01
   4.029158e+01   6.718611e+01
  -8.966692e+01   5.388917e+01
  -8.414485e+01  -6.581364e-01
  -7.001206e+01  -4.535280e+01
   3.601063e+01  -4.052272e+01
   5.675257e+01  -1.819909e+01
   3.091353e+01  -2.376987e+01
  -2.200925e+01   2.001339e+01
  -3.980757e+01  -2.760961e+01
   4.433327e+01  -1.245017e+01
   7.084155e+01  -3.976313e+00
