
 $NMID
 id='ANONYMOUS ', fmtdat='(2E16.6)'
 volume=1.0
 tramp=1.0
 $END
   4.092284e+03  -1.890840e+02
   2.372485e+03   2.357236e+03
  -6.436182e+02   2.768748e+03
  -1.859238e+03   1.159245e+03
  -8.466436e+02  -3.756238e+02
   3.794041e+02  -4.852384e+02
   9.801678e+02   4.210912e+02
   3.004818e+00   9.352146e+02
  -7.118314e+02   5.948464e+02
  -7.932123e+02  -9.232343e+01
  -4.290953e+02  -8.407177e+02
   2.086075e+02  -9.430161e+02
   5.709111e+02  -1.337730e+02
   3.734391e+02   6.858221e+02
  -2.272146e+02   7.467588e+02
  -6.529462e+02   5.912618e+01
  -3.007910e+02  -6.513126e+02
   2.801277e+02  -6.252769e+02
   5.605661e+02  -1.247548e+02
   4.350679e+02   2.695481e+02
   4.096097e+01   4.412738e+02
  -2.554510e+02   2.643031e+02
  -2.075719e+02  -3.669251e+00
   1.681145e+02  -6.039923e+01
   3.940620e+02   9.360345e+01
   1.550980e+02   4.374118e+02
  -4.593960e+02   4.167612e+02
  -7.727522e+02   1.566981e+01
  -3.498302e+02  -5.061370e+02
   4.138050e+02  -4.768783e+02
   6.378655e+02   3.777509e+01
   2.856453e+02   4.364996e+02
  -2.656132e+02   4.209985e+02
  -5.369479e+02   1.679684e+02
  -4.504868e+02  -2.353322e+02
  -1.128345e+02  -3.970081e+02
   1.977100e+02  -2.746555e+02
   1.361430e+02   1.237144e+02
  -1.622867e+02   3.620473e+02
  -3.377572e+02  -1.724830e+01
  -2.189326e+02  -6.282821e+02
   3.602257e+02  -6.928240e+02
   6.669034e+02   5.175125e+01
   2.590000e+02   5.323358e+02
  -2.814400e+02   2.930674e+02
  -3.996687e+02  -2.918254e+02
   1.025217e+02  -4.917181e+02
   5.125626e+02  -1.350092e+02
   5.857416e+02   4.680351e+02
   1.462354e+02   5.031253e+02
  -4.161747e+02   3.496891e+02
  -6.055052e+02  -6.159141e+01
  -3.746320e+02  -3.148020e+02
   1.295217e+02  -4.072529e+02
   3.969038e+02  -7.347477e+01
   2.168275e+02   1.335243e+02
  -5.285580e+01   9.065739e+01
  -1.396758e+02  -1.400045e+02
   1.634226e+02  -1.951722e+02
   3.532935e+02   9.431058e+01
   1.365058e+02   2.422205e+02
  -1.501182e+02   2.869189e+02
  -2.567154e+02   1.440303e+02
  -1.694131e+02  -9.371888e+01
  -4.500956e+00  -2.159297e+02
   1.957860e+02  -3.490820e+02
   3.316408e+02  -1.989677e+02
   2.686319e+02   1.819423e+02
   9.419376e+01   4.714642e+02
  -9.844272e+01   3.658375e+02
  -9.592495e+01   1.056173e+02
  -3.438293e+01   2.719378e+01
  -7.617000e+01   9.201467e+01
  -1.791518e+02   8.177563e+01
  -2.851906e+02  -8.024222e+01
  -1.484416e+02  -2.724022e+02
   5.170960e+01  -2.536459e+02
   2.270766e+02  -6.576613e+00
   1.468244e+02   2.483446e+02
  -1.340617e+01   2.754763e+02
  -2.672224e+02   8.886050e+01
  -3.558089e+02  -2.048790e+02
  -1.754914e+02  -3.946564e+02
   1.150636e+02  -2.831286e+02
   2.631544e+02  -9.001634e+01
   1.789967e+02  -3.051406e+01
   1.344029e+02  -5.436307e+01
   2.572574e+02  -4.804892e+01
   4.369306e+02   4.783359e+01
   3.703051e+02   2.809790e+02
  -2.681598e+01   4.740702e+02
  -3.021396e+02   3.789751e+02
  -4.508434e+02   1.883135e+02
  -3.353814e+02  -1.173899e+02
  -5.947614e+01  -2.798812e+02
   1.123430e+02  -2.445119e+02
   2.880211e+01  -4.195072e+01
  -1.304936e+02   1.213230e+02
  -2.189793e+02   5.581211e+00
  -6.191196e+01  -1.839326e+02
   1.529342e+02  -1.732934e+02
   1.810100e+02   6.314499e+01
   3.232689e-03   1.552634e+02
  -1.588962e+02   4.384435e+01
  -1.595411e+02  -2.404353e+02
  -7.167626e+00  -3.046356e+02
   2.126763e+02  -2.092851e+02
   3.381464e+02   7.522030e+01
   2.278764e+02   2.204119e+02
   9.258184e+01   2.716193e+02
  -1.140869e+02   1.572525e+02
  -1.436987e+02   4.349916e+01
  -5.316154e+01  -3.607940e+01
   5.616830e+01  -5.823912e+00
  -5.326385e-01   1.090935e+02
  -1.242958e+02   9.162787e+01
  -1.702993e+02  -3.447884e+01
  -4.032735e+01  -5.579427e+01
   8.119396e+01  -3.195694e+01
   5.700403e+01   8.617245e+01
  -1.180547e+02   9.396708e+01
  -2.623842e+02   1.252701e+01
  -2.683602e+02  -1.423055e+02
  -6.371848e+01  -2.835609e+02
   1.554887e+02  -2.514528e+02
   2.880294e+02  -1.096130e+02
   1.770794e+02   5.316459e+01
  -5.463281e-02   9.891414e+01
  -9.786950e+01   1.021727e+01
   1.652759e+01  -1.164656e+02
   1.719700e+02  -9.181012e+01
   2.033853e+02   9.470598e+01
   6.996951e+01   1.876632e+02
  -6.582690e+01   1.504316e+02
  -1.262355e+02   2.401438e+01
  -8.792214e+01  -5.832664e+01
   3.811539e+01   1.166045e+01
   1.050065e+01   1.005536e+02
  -8.034578e+01   1.012802e+02
  -2.019288e+02   3.246334e+01
  -1.690006e+02  -9.276334e+01
  -1.777018e+01  -2.040824e+02
   1.797842e+02  -1.591583e+02
   1.994197e+02  -2.804150e+01
   6.221221e+01   9.255745e+01
  -6.426936e+01   1.089527e+02
  -6.217684e+01   3.458552e+00
  -1.517322e+01  -6.658523e+00
   6.790974e+00  -2.302202e+01
  -1.983678e+01  -3.377386e+00
  -8.433784e+01   4.874535e+00
  -7.417699e+01  -7.443785e+01
  -7.956251e+00  -1.406337e+02
   1.582686e+02  -1.743698e+02
   2.691186e+02  -2.673591e+01
   2.267372e+02   1.405989e+02
   5.841175e+01   2.361973e+02
  -1.390332e+02   1.654127e+02
  -1.340127e+02   1.586918e+01
  -8.382264e+01  -4.502847e+01
  -2.933272e+01  -4.601045e+01
  -6.500612e+01  -1.378550e+01
  -3.349638e+01   1.414883e+01
  -3.425103e+01  -6.043648e+01
   5.650523e+01  -1.177195e+02
   1.060584e+02  -6.349473e+01
   8.947232e+01   4.441118e+01
  -2.690142e+01   9.913667e+01
  -1.695821e+02   6.157216e+01
  -2.107667e+02  -3.447561e+01
  -1.040007e+02  -2.111859e+02
   1.068377e+02  -2.674462e+02
   2.449706e+02  -1.230176e+02
   2.999682e+02   4.138696e+01
   1.167319e+02   1.824354e+02
  -2.027723e+01   1.327024e+02
  -9.533286e+01   5.291051e+01
  -8.462543e+01   6.318677e+01
  -5.428581e+01   9.526115e+01
  -7.157207e+01   7.591509e+01
  -1.452222e+02  -2.884695e+01
  -1.184583e+02  -1.505329e+02
  -3.168993e+01  -2.366793e+02
   1.066575e+02  -1.938603e+02
   1.495664e+02  -2.626601e+01
   1.111834e+02   1.274963e+02
   1.540028e+01   1.627030e+02
  -7.002481e+01   9.185578e+01
  -5.255270e+01   2.562614e+00
  -4.282459e+01  -5.794933e+01
   3.103391e+01  -4.421279e+01
  -1.908311e+01  -1.482601e+01
  -9.872511e+01  -2.207742e+01
  -4.602675e+01  -3.678287e+01
   5.863701e+01  -7.204387e+01
   1.787179e+02  -1.038192e-01
   1.479888e+02   3.782676e+01
  -1.438944e+01   8.759232e+01
  -1.440348e+02   8.407318e+01
  -1.333137e+02   4.027977e+01
  -2.841563e+01  -1.718928e+01
   8.722741e+01  -1.877201e+01
   1.103367e+02   1.375461e+01
   7.667599e+00   6.800362e+01
  -5.203558e+01   6.520620e+01
  -4.858824e+01  -4.512185e+00
  -2.103867e+01  -6.176764e+01
  -9.151115e+00  -4.870665e+01
  -7.228236e+01   4.130351e+00
  -8.518178e+01  -1.860256e+01
  -3.010086e+01  -6.803306e+01
   4.706512e+01  -1.493328e+02
   1.311916e+02  -1.223070e+02
   1.525160e+02   6.866154e-01
   1.330745e+02   8.414158e+01
   2.401532e+01   1.213002e+02
  -1.008737e+02   7.236269e+01
  -3.891021e+01  -2.794442e+01
   7.936346e+01  -1.050188e+01
   1.376491e+02   3.791504e+01
   9.714543e+01   8.937294e+01
  -8.470548e+01   1.173888e+02
  -2.075868e+02   8.549813e+01
  -1.514968e+02  -6.805847e+01
  -3.342225e+01  -1.295508e+02
   3.368885e+01  -4.394783e+01
   6.101575e+01  -6.082191e+00
  -4.886795e+01   2.166724e+01
  -1.118635e+02  -4.448141e+01
  -4.789903e+01  -1.343866e+02
   9.759008e+01  -1.687888e+02
   1.665819e+02  -4.518413e+01
   1.410115e+02   8.654820e+01
   2.881561e+01   2.241254e+02
  -1.148400e+02   1.418292e+02
  -9.944448e+01  -1.576411e+01
  -4.636131e+01  -1.140840e+02
   1.534809e+01  -9.766568e+01
   3.571879e+01  -5.332898e+01
   6.312090e+01   4.677156e+01
   2.891337e+01   5.511230e+01
   2.422357e+01  -1.982685e+01
   2.394339e+01   2.510763e+01
   6.041321e+01   7.332339e+01
   4.299641e+01   6.777563e+01
  -6.665727e+01   5.079868e+01
  -1.341686e+02  -3.862061e+01
  -1.166322e+02  -7.507093e+01
  -1.707111e+01  -4.115656e+01
   1.208751e+02   4.137828e+00
   1.131040e+02  -1.968117e+01
   7.747794e+00  -1.305260e+01
   1.181654e+01   1.965203e+01
  -1.984972e+01  -1.377293e+01
  -3.739995e+00  -2.659319e+01
  -4.282278e+00   3.621407e+00
  -8.341854e+01  -1.693627e+01
  -6.157910e+01  -2.907895e+01
   2.073717e+01  -4.860012e+01
   1.158231e+02  -1.241592e+02
   1.767786e+02  -7.004870e+01
   1.479625e+02   7.501752e+01
   1.583683e+01   1.558275e+02
  -1.033442e+02   1.368329e+02
  -1.316713e+02   5.115563e+01
  -8.814514e+01  -1.828781e+01
  -1.766148e+01  -2.488495e+01
   9.042406e+00  -1.016343e+01
   9.821458e+00   1.105551e+01
  -5.064620e+01  -2.562701e+01
  -2.652547e+01  -8.023177e+01
   1.997760e+01  -6.949283e+01
   7.557422e+01   3.940053e+01
   8.827860e+01   9.745446e+01
  -7.512861e+00   1.094242e+02
  -9.790120e+01   3.513635e+01
  -9.558504e+01  -6.079435e+01
  -2.511193e+01  -9.951431e+01
   7.186488e+01  -4.888673e+01
   8.843065e+01  -5.997416e+00
   6.794951e+01   5.376737e+01
  -3.600924e+01   4.431627e+01
  -5.866990e+01  -1.256843e+01
   1.817452e+01  -5.595944e+00
   8.997924e+01  -4.465185e+01
  -9.794988e+00   4.154209e+01
  -7.199076e+01   8.313194e+01
  -1.007195e+02   2.095961e+01
  -3.561729e+01  -4.946934e+00
   1.624564e+01  -7.242569e+01
   4.958885e+01  -5.983938e+01
   4.032308e+01   5.230637e+00
  -2.041338e+01   4.187570e+01
  -9.201317e+00   4.725837e+01
  -3.102732e+01  -5.566393e+00
  -9.669918e+00  -3.781089e+01
   6.648411e+00  -3.235802e+01
   3.693676e+01   2.527267e+01
   4.434508e+01   1.676245e+01
   1.034410e+01   3.630489e+01
   6.141168e+00  -1.125524e+01
   1.419557e+01   2.066853e+01
   1.601733e+01   5.792573e+01
  -4.211548e+00   3.431305e+01
  -1.450321e+01   6.346989e+00
  -5.601065e+01  -2.781979e+01
   1.314258e+01  -7.603464e+01
   4.763850e+01  -2.430942e+01
   5.804581e+01   3.454185e+01
   1.152056e+01   4.097824e+01
  -3.930658e+01   4.368715e+01
  -9.148022e+01  -1.296467e+01
  -4.333784e+01  -1.778541e+01
   1.919722e+01  -7.095494e+01
   6.950396e+01  -3.191689e-01
   3.696151e+01   1.340444e+00
  -5.800482e+01   3.327221e+00
  -5.605143e+01   2.485309e+00
   6.187074e+01  -4.426708e+01
   1.065381e+02  -1.088959e+01
