
 $NMID
 id='ANONYMOUS ', fmtdat='(2E16.6)'
 volume=1.0
 tramp=1.0
 $END
   3.816951e+03  -3.839772e+02
   2.513868e+03   2.004152e+03
  -6.452468e+02   2.764634e+03
  -2.224327e+03   1.302080e+03
  -1.177691e+03  -4.071592e+02
   2.004140e+02  -6.700852e+02
   8.027360e+02   4.027536e+02
   2.557310e+02   9.875387e+02
  -6.901066e+02   7.913944e+02
  -8.735126e+02  -1.756166e+01
  -6.106320e+02  -7.348975e+02
   9.190482e+01  -8.823515e+02
   4.996844e+02  -2.378627e+02
   4.898285e+02   6.242860e+02
  -2.075764e+02   8.270730e+02
  -6.268095e+02   7.505672e+01
  -2.554646e+02  -6.781549e+02
   3.319315e+02  -6.984458e+02
   5.544187e+02  -1.571151e+02
   4.348355e+02   2.884224e+02
   6.418446e+01   4.661760e+02
  -2.245429e+02   3.422072e+02
  -1.911087e+02   1.561945e+01
   7.263296e+01  -6.184414e+01
   3.674778e+02   1.145504e+02
   1.927626e+02   4.137555e+02
  -5.025576e+02   3.927796e+02
  -8.143002e+02  -1.632452e+01
  -4.911350e+02  -4.268258e+02
   3.581515e+02  -4.171441e+02
   6.678809e+02  -4.128426e+01
   3.488668e+02   3.835412e+02
  -2.444036e+02   4.950297e+02
  -4.926625e+02   2.130487e+02
  -4.031800e+02  -2.101977e+02
  -1.775188e+02  -4.138918e+02
   1.659713e+02  -3.228804e+02
   2.069504e+02   1.256831e+02
  -9.337059e+01   3.617501e+02
  -3.720551e+02  -8.107725e+00
  -2.755766e+02  -6.060111e+02
   2.418114e+02  -6.510583e+02
   6.185315e+02  -8.923509e+00
   2.345805e+02   5.712122e+02
  -2.742227e+02   3.224529e+02
  -3.371085e+02  -3.121619e+02
   3.477747e+01  -5.612991e+02
   4.824792e+02  -1.670102e+02
   5.582924e+02   4.829596e+02
   2.157500e+02   5.389769e+02
  -3.917549e+02   3.477332e+02
  -6.073526e+02  -1.793007e+00
  -3.744313e+02  -3.059709e+02
   1.142442e+02  -3.645879e+02
   4.362049e+02  -1.046729e+02
   2.586489e+02   1.334071e+02
  -4.757220e+01   1.163328e+02
  -1.310423e+02  -1.266791e+02
   1.465240e+02  -1.742780e+02
   3.510642e+02   1.843768e+01
   1.545544e+02   2.628416e+02
  -1.418879e+02   2.852777e+02
  -3.290611e+02   8.730893e+01
  -2.027435e+02  -9.609698e+01
   4.514958e+01  -1.916905e+02
   1.807797e+02  -3.316813e+02
   3.067252e+02  -1.779185e+02
   2.929035e+02   1.228485e+02
   9.728832e+01   4.551894e+02
  -7.696678e+01   3.847123e+02
  -1.212563e+02   1.211185e+02
  -5.559899e+01  -6.669955e-01
  -5.606510e+01   1.130471e+02
  -2.047156e+02   1.424456e+02
  -2.391314e+02  -5.087084e+01
  -1.827478e+02  -2.479086e+02
   8.100419e+01  -2.418317e+02
   1.987872e+02  -4.975521e+01
   1.644326e+02   1.947265e+02
   7.435885e+00   3.183201e+02
  -3.001068e+02   1.295050e+02
  -3.647681e+02  -1.637241e+02
  -2.105693e+02  -3.198224e+02
   7.623321e+01  -3.352946e+02
   2.816687e+02  -1.419715e+02
   1.547813e+02  -1.366984e-01
   1.022297e+02  -4.716818e+01
   2.006058e+02  -4.761742e+01
   3.544944e+02   7.284734e+01
   2.925949e+02   2.883138e+02
  -1.682112e+01   4.421073e+02
  -3.312699e+02   3.672254e+02
  -4.336459e+02   1.902301e+02
  -3.569808e+02  -7.774088e+01
  -3.907302e+01  -2.924338e+02
   8.386316e+01  -2.456113e+02
   5.206593e+01  -5.036154e+01
  -9.514038e+01   9.470076e+01
  -2.004490e+02   2.589859e+01
  -3.677644e+01  -1.809792e+02
   1.281174e+02  -1.891527e+02
   1.677178e+02   6.595621e+01
   3.643745e+01   1.644077e+02
  -1.986292e+02   1.846643e+01
  -1.779620e+02  -2.211110e+02
   8.547173e+00  -3.446309e+02
   2.150635e+02  -1.915992e+02
   2.982608e+02   6.421062e+01
   2.488899e+02   1.796912e+02
   1.141551e+02   2.250747e+02
  -9.578462e+01   1.338223e+02
  -1.433598e+02   5.140225e+01
  -6.014896e+01  -4.015834e+01
   7.291454e+01   3.855378e+01
   2.269416e+01   9.283178e+01
  -1.211143e+02   1.038179e+02
  -1.644966e+02  -2.228556e+01
  -6.177928e+01  -7.039635e+01
   8.122378e+01  -2.114262e+01
   3.869833e+01   6.895558e+01
  -1.372098e+02   8.280924e+01
  -2.789063e+02   1.809181e+01
  -2.424357e+02  -1.193998e+02
  -4.565420e+01  -2.676358e+02
   1.503394e+02  -1.931835e+02
   2.570847e+02  -1.591385e+02
   1.614490e+02   4.848909e+01
  -2.609547e+00   1.096057e+02
  -1.217353e+02  -1.050129e+01
   4.823127e+01  -9.861903e+01
   1.734156e+02  -4.939433e+01
   1.958116e+02   8.512035e+01
   7.244439e+01   1.905918e+02
  -8.839194e+01   1.480721e+02
  -9.735157e+01   7.245684e+01
  -8.556856e+01  -3.423762e+01
  -3.907387e+00  -1.671031e+01
   1.187274e+01   5.627236e+01
  -9.377362e+01   1.197426e+02
  -1.734351e+02   1.747231e+01
  -1.988350e+02  -9.774884e+01
  -3.878666e+01  -2.063061e+02
   1.496394e+02  -1.681509e+02
   1.972313e+02  -2.947394e+01
   4.075520e+01   1.569896e+02
  -3.945505e+01   8.666294e+01
  -8.162478e+01   7.798706e+00
  -1.332969e+01  -3.558557e+00
   4.942872e+00  -2.131186e+01
  -1.925162e+01  -7.201162e+00
  -7.618428e+01  -3.003561e+01
  -8.845286e+01  -6.172998e+01
  -1.722635e+01  -1.333502e+02
   1.484069e+02  -1.436239e+02
   2.199544e+02  -3.925239e+01
   1.854838e+02   9.479737e+01
   9.744155e+01   2.154233e+02
  -1.143340e+02   1.717189e+02
  -1.192596e+02   4.889858e+01
  -1.020603e+02  -5.385863e+01
  -5.939254e+01  -3.445898e+01
  -7.206657e+01  -5.167892e+00
  -5.148359e+01   2.279723e+01
  -8.302789e+01  -5.064769e+01
   5.118516e+01  -4.370512e+01
   1.235382e+02  -7.123406e+01
   6.686580e+01   4.430190e+01
  -1.265599e+01   7.465104e+01
  -1.383346e+02   9.055062e+01
  -2.187710e+02  -2.163863e+01
  -1.048831e+02  -1.971736e+02
   5.717311e+01  -2.632769e+02
   2.420103e+02  -8.774023e+01
   2.632743e+02   5.959756e+01
   1.023063e+02   1.664504e+02
  -6.376057e-01   1.284699e+02
  -8.355564e+01   1.044992e+02
  -1.019013e+02   5.207504e+01
  -6.473812e+01   8.572100e+01
  -6.495662e+01   6.920473e+01
  -1.332843e+02  -3.271125e+01
  -1.372485e+02  -1.596967e+02
  -2.529222e+01  -2.480623e+02
   1.135557e+02  -1.916176e+02
   1.699881e+02  -1.415363e+01
   1.523853e+02   1.018785e+02
   5.167698e+01   1.494453e+02
  -8.982125e+01   1.027167e+02
  -4.578248e+01  -3.563982e+00
  -9.402876e+00  -2.595418e+01
   5.489520e+00  -4.125217e+01
  -1.667043e+01  -1.086002e+01
  -8.635052e+01   1.375812e+00
  -2.497245e+01  -5.322216e+01
   7.381281e+01  -1.705903e+01
   1.598443e+02   3.219875e+00
   1.267752e+02   2.729951e+01
   8.923247e+00   1.095239e+02
  -1.190462e+02   6.017248e+01
  -1.478146e+02   7.758233e+00
  -4.443931e+01  -3.435717e+01
   8.384402e+01  -4.055829e+01
   8.675912e+01   4.025650e+01
   1.888047e+01   5.504379e+01
  -4.087144e+01   4.523489e+01
  -5.664809e+01   6.231790e-01
  -5.376550e+01  -4.445348e+01
  -2.472523e+01  -4.959770e+01
  -5.862271e+01  -1.042818e+01
  -7.534802e+01  -1.212064e+01
  -2.368851e+01  -5.552785e+01
   4.431599e+01  -1.748838e+02
   1.225384e+02  -1.238151e+02
   1.597712e+02  -5.092491e+01
   1.111590e+02   8.014353e+01
   1.224142e+01   1.103985e+02
  -7.737899e+01   6.837842e+01
  -6.449172e+01  -7.058383e+00
   5.381318e+01  -3.363963e+01
   1.240254e+02   5.645323e+01
   1.160282e+02   6.682455e+01
  -9.657827e+01   1.087919e+02
  -2.085698e+02   8.780872e+01
  -1.722182e+02  -6.595247e+01
  -2.371056e+01  -7.789035e+01
   5.278744e+01  -5.556439e+01
   8.238398e+01   4.202513e+01
  -2.857349e+01   2.743799e+01
  -9.051878e+01  -1.691441e+01
  -2.737339e+01  -1.187342e+02
   7.003861e+01  -1.546451e+02
   1.614090e+02  -8.166561e+01
   1.362739e+02   9.888377e+01
   2.806413e-01   1.991893e+02
  -7.467389e+01   1.296243e+02
  -1.285506e+02   4.595960e+00
  -5.949870e+01  -8.947787e+01
   8.680295e+00  -1.017806e+02
   4.239115e+01  -5.432822e+01
   3.933635e+01   2.954638e+01
   3.838956e+01   3.103092e+01
   3.849618e+00  -3.939484e+00
   2.273477e+01   1.548143e+01
   5.342363e+01   8.870820e+01
   4.426457e+01   7.228558e+01
  -5.333861e+01   5.507961e+01
  -1.591319e+02  -5.620694e+01
  -1.091609e+02  -1.131448e+02
  -4.146260e+01  -3.701693e+01
   6.985267e+01  -1.861270e+01
   1.051017e+02  -1.186454e+01
   1.866666e+01  -1.098038e+01
  -4.286451e+01   4.079086e+01
  -3.458341e+01   2.275412e+01
   1.858652e+01  -2.456376e+00
  -5.761574e+00  -2.102981e+01
  -5.734522e+01  -2.974513e+01
  -8.464437e+01  -3.077020e+01
  -1.028185e+01  -7.471622e+01
   1.215608e+02  -1.105592e+02
   1.978069e+02  -4.741402e+01
   1.478742e+02   8.563313e+01
   2.456138e+01   1.711122e+02
  -8.219617e+01   1.589029e+02
  -1.193709e+02   5.793398e+01
  -9.473351e+01  -9.661620e+00
  -9.526464e+00  -1.576553e+01
  -6.838229e+00  -3.807420e+01
   1.383132e+01   1.082184e+01
  -5.380419e+01  -3.860266e+01
  -1.868489e+01  -1.042642e+02
   3.100842e+01  -8.084218e+01
   5.816892e+01   3.965432e+01
   9.379152e+01   1.451233e+02
   2.443660e+01   1.164528e+02
  -6.334664e+01   1.993544e+01
  -1.073691e+02  -6.939987e+01
  -4.179164e+00  -5.784803e+01
   4.898102e+01  -4.388164e+01
   8.998872e+01  -1.864342e+01
   5.653437e+01   5.337266e+01
  -3.844531e+01   7.922953e+01
  -2.619651e+01   1.158543e+01
   3.853198e+01  -4.030058e-02
   6.289862e+01   6.288913e+00
   5.248478e+01   3.781798e+01
  -7.607761e+01   4.979940e+01
  -1.250893e+02   6.971950e+01
  -5.925210e+01  -2.392808e+01
   8.748279e-01  -7.693590e+01
   2.939258e+01  -7.316120e+01
   1.316611e+01  -9.286530e+00
  -2.355491e+00   6.561904e+01
  -3.168643e+01   3.751758e+01
   7.017146e+00  -1.638252e+01
  -3.671813e+01  -5.459300e+01
   1.135061e+00  -1.804138e+01
   2.832857e+01   1.099412e+01
   2.034898e+01   1.386653e+01
   3.645566e+00   1.768896e+01
  -5.564954e+00  -2.026328e+01
   9.856314e+00   1.451184e+01
   8.540427e+00   4.140153e+01
  -1.247634e+01   5.130726e+01
  -5.839814e+01  -4.192353e+00
  -4.414764e+01  -2.149539e+01
  -1.895505e+01  -6.140442e+01
   4.273150e+01  -3.981170e+01
   2.093509e+01   3.024375e+01
   3.121448e+01   6.148288e+01
  -5.825650e+01   3.771416e+01
  -7.488179e+01   8.199680e-01
  -1.297886e+01  -4.577312e+01
   2.996190e+01  -9.119739e+01
   3.280290e+01  -1.395866e+01
   4.202202e+01   1.537235e+01
  -3.173808e+01   9.444101e+00
  -4.073945e+01   3.929272e+00
   3.366774e+01  -4.700389e+01
   9.357779e+01  -4.484596e+01
