
 $NMID
 id='ANONYMOUS ', fmtdat='(2E16.6)'
 volume=1.0
 tramp=1.0
 $END
  -3.916675e+03   3.947595e+02
  -2.362359e+03  -2.033266e+03
   5.239979e+02  -2.801548e+03
   2.010412e+03  -1.090173e+03
   1.044763e+03   3.249404e+02
  -4.074944e+02   5.687462e+02
  -8.616633e+02  -3.403157e+02
  -2.314381e+02  -9.996517e+02
   6.337142e+02  -7.485755e+02
   8.949220e+02   4.340954e+01
   5.377918e+02   7.419833e+02
  -6.978596e+01   9.406395e+02
  -5.600474e+02   1.787629e+02
  -4.363301e+02  -5.906319e+02
   3.395172e+02  -7.269276e+02
   5.927230e+02  -4.854525e+01
   2.565282e+02   5.987638e+02
  -2.597011e+02   6.668112e+02
  -5.566540e+02   1.283214e+02
  -4.038089e+02  -2.881123e+02
  -1.087753e+02  -4.430212e+02
   2.263248e+02  -3.066207e+02
   1.459332e+02   6.995982e+00
  -9.814925e+01   4.466117e+01
  -4.160012e+02  -6.950062e+01
  -1.838511e+02  -3.608360e+02
   4.575666e+02  -4.136763e+02
   7.612289e+02   5.390594e+01
   3.991870e+02   4.268740e+02
  -3.829039e+02   4.407735e+02
  -6.048490e+02   2.899273e+01
  -3.849494e+02  -3.493023e+02
   2.225109e+02  -4.898800e+02
   4.874061e+02  -2.178125e+02
   3.596521e+02   1.800263e+02
   1.429755e+02   3.785397e+02
  -1.513510e+02   2.657029e+02
  -1.539107e+02  -1.260801e+02
   7.932133e+01  -3.734179e+02
   3.228578e+02  -3.176053e+01
   2.651394e+02   4.707935e+02
  -3.150446e+02   6.304434e+02
  -6.083264e+02  -3.335715e+01
  -2.168783e+02  -5.372993e+02
   2.778293e+02  -3.279310e+02
   3.699572e+02   2.348359e+02
  -2.713982e+01   5.631951e+02
  -4.706247e+02   1.558827e+02
  -4.912993e+02  -4.044907e+02
  -1.500991e+02  -4.957273e+02
   4.082464e+02  -3.332868e+02
   6.153016e+02   5.119821e+01
   3.706419e+02   3.160673e+02
  -1.494111e+02   4.036931e+02
  -4.136237e+02   7.470150e+01
  -2.456241e+02  -9.450276e+01
   8.768756e+01  -1.309600e+02
   1.096756e+02   1.335613e+02
  -1.633022e+02   2.052397e+02
  -3.096177e+02  -3.900942e+01
  -1.398558e+02  -2.612128e+02
   1.547130e+02  -2.814199e+02
   2.932055e+02  -8.652116e+01
   1.723471e+02   9.577707e+01
  -1.192274e+01   2.134760e+02
  -1.929283e+02   2.997659e+02
  -3.250842e+02   2.025019e+02
  -2.861253e+02  -1.491329e+02
  -9.008976e+01  -4.107103e+02
   3.922701e+01  -4.133807e+02
   5.187044e+01  -1.057082e+02
  -9.620868e+00  -1.988421e+01
   2.852651e+01  -7.514106e+01
   2.065499e+02  -1.472808e+02
   2.678058e+02   5.127463e+01
   1.625222e+02   2.564482e+02
  -5.426402e+01   2.583535e+02
  -2.210021e+02   4.445810e+01
  -2.325852e+02  -1.866690e+02
  -1.619107e+01  -2.511523e+02
   2.563353e+02  -1.099830e+02
   3.497094e+02   1.554502e+02
   1.531354e+02   3.146651e+02
  -9.306969e+01   2.998320e+02
  -2.451005e+02   1.334850e+02
  -1.498558e+02   2.015621e+01
  -9.157804e+01   6.732626e+01
  -2.229646e+02   6.546304e+01
  -3.494979e+02  -2.983097e+01
  -3.178826e+02  -2.906353e+02
   4.911974e+01  -4.382437e+02
   3.103188e+02  -3.966664e+02
   4.091888e+02  -2.067840e+02
   3.204465e+02   6.895805e+01
   3.750299e+01   2.427746e+02
  -9.626803e+01   2.605017e+02
  -5.914221e+01   5.409848e+01
   1.119523e+02  -1.152640e+02
   1.749754e+02   1.061094e+01
   6.150945e+01   1.805467e+02
  -1.184640e+02   2.015769e+02
  -2.008560e+02  -7.392262e+01
  -2.315423e+01  -1.876292e+02
   1.545530e+02  -4.277495e+01
   1.517939e+02   2.130060e+02
  -4.549830e+00   3.157047e+02
  -1.964920e+02   1.949449e+02
  -2.948147e+02  -4.311318e+01
  -2.555615e+02  -2.107608e+02
  -8.575587e+01  -2.210979e+02
   8.959374e+01  -1.655045e+02
   1.310343e+02  -3.530556e+01
   3.440746e+01   2.388659e+01
  -3.598862e+01  -1.424297e+01
  -2.286416e+01  -9.197966e+01
   1.043677e+02  -7.375730e+01
   1.678243e+02   1.416990e-01
   3.652630e+01   4.699303e+01
  -8.205919e+01   1.471205e+01
  -5.382165e+01  -4.481408e+01
   1.127515e+02  -8.668939e+01
   2.773158e+02  -2.421128e+01
   2.369739e+02   9.529930e+01
   4.055291e+01   2.906311e+02
  -1.223952e+02   2.059342e+02
  -2.691359e+02   1.176775e+02
  -1.649201e+02  -1.328929e-01
   2.728185e+01  -1.073437e+02
   9.678348e+01  -1.731005e+01
  -1.174984e+01   7.385813e+01
  -1.815492e+02   5.199776e+01
  -2.094043e+02  -9.119282e+01
  -8.651081e+01  -1.975303e+02
   7.399129e+01  -1.503791e+02
   1.146474e+02  -2.627347e+01
   8.028045e+01   3.316178e+01
  -1.925431e+00   8.925689e-01
  -3.673538e+01  -7.725443e+01
   8.587558e+01  -1.498410e+02
   1.458268e+02  -3.508542e+01
   1.537729e+02   9.413944e+01
   4.835640e+01   2.231747e+02
  -1.736419e+02   1.528341e+02
  -1.926617e+02   3.270781e+01
  -6.009134e+01  -1.214389e+02
   3.084617e+01  -9.027816e+01
   6.337575e+01  -3.518429e+01
  -1.346776e+01  -2.416590e+01
  -1.011488e+01   2.857005e+01
   4.858417e+00  -1.095436e+01
   6.441645e+01   1.817081e+01
   8.727737e+01   8.890630e+01
   1.690282e+01   1.696958e+02
  -1.473875e+02   1.167893e+02
  -2.581272e+02  -1.054462e+01
  -2.020139e+02  -9.930847e+01
  -6.145906e+01  -2.014033e+02
   1.052363e+02  -1.821046e+02
   1.116978e+02  -5.531373e+01
   7.219793e+01   4.571166e+01
   4.665723e+01   4.028245e+01
   5.421776e+01  -2.817345e+01
   9.189714e+01  -1.308015e+01
   4.016865e+01   4.459189e+01
  -5.217598e+01   7.296275e+01
  -8.936376e+01   6.652640e+01
  -8.123139e+01  -1.911561e+01
  -1.501932e+00  -7.642071e+01
   1.293663e+02  -7.726057e+01
   1.985775e+02   4.305862e+01
   1.116919e+02   1.737707e+02
  -1.058225e+02   2.515534e+02
  -2.574162e+02   1.287916e+02
  -2.436291e+02  -5.416231e+01
  -7.883792e+01  -1.597766e+02
   5.013294e-02  -1.169423e+02
   7.849704e+01  -1.094046e+02
   1.019710e+02  -6.380421e+01
   4.242708e+01  -7.129369e+01
   5.275512e+01  -8.085696e+01
   1.053108e+02   1.341175e+01
   9.703906e+01   1.680009e+02
   1.883079e+01   2.324158e+02
  -8.038703e+01   1.960268e+02
  -1.520542e+02   2.846053e+00
  -1.441127e+02  -1.037350e+02
  -3.828494e+01  -1.500900e+02
   6.355484e+01  -8.543620e+01
   6.064840e+01   3.088721e+00
   2.480643e+01   5.237757e+01
  -3.949816e+01   4.605857e+01
   3.155552e+01  -7.701350e+00
   7.463125e+01   1.153306e+00
   9.916495e+00   4.529383e+01
  -5.847602e+01   6.977745e+00
  -1.516372e+02  -3.040156e+01
  -1.272915e+02  -3.348262e+01
  -2.357921e+01  -9.704148e+01
   1.309134e+02  -6.314527e+01
   1.129366e+02  -2.265364e+01
   3.644449e+01   1.609155e+01
  -8.530716e+01   5.839808e+01
  -9.019771e+01   2.022601e+00
  -1.750046e+01  -8.208789e+01
   6.158970e+01  -5.182669e+01
   5.888912e+01  -4.847504e+00
   4.512688e+01   5.063669e+01
   3.039673e+01   2.443889e+01
   7.366541e+01  -1.033470e+01
   7.502706e+01   9.448024e+00
   3.156172e+01   8.539756e+01
  -3.318130e+01   1.271572e+02
  -1.407776e+02   1.214940e+02
  -1.541790e+02   4.446632e+01
  -1.458262e+02  -1.018769e+02
  -1.789928e+01  -1.232136e+02
   1.049368e+02  -5.577327e+01
   6.504248e+01  -6.194525e+00
  -7.957718e+01  -1.446604e+01
  -1.258605e+02  -6.111396e+01
  -7.143071e+01  -9.409248e+01
   8.524804e+01  -9.142439e+01
   1.666355e+02  -7.551485e+01
   1.533104e+02   8.969226e+01
   4.955955e+01   9.652019e+01
  -3.969547e+01   5.761925e+01
  -8.370577e+01   4.783012e-01
   3.432249e+01  -3.727279e+01
   8.830819e+01   8.576452e+00
   4.655880e+01   1.220332e+02
  -7.575316e+01   1.393119e+02
  -1.346240e+02   5.665277e+01
  -1.520365e+02  -8.719467e+01
   1.361268e+01  -2.020001e+02
   8.193977e+01  -7.535841e+01
   1.191796e+02   1.887766e+01
   7.356184e+01   7.977763e+01
  -3.075981e+00   1.147031e+02
  -4.045077e+01   2.192314e+01
  -4.863515e+01  -6.575951e+00
   1.296158e+01  -9.335517e+00
  -3.741053e+01   4.388593e+01
   5.035873e-01  -2.398646e+01
  -3.861737e+01  -6.109922e+01
  -2.867863e+01  -7.140593e+01
   3.333130e+01  -4.968429e+01
   1.438604e+02   4.623365e+01
   1.286307e+02   8.831094e+01
   2.644165e+01   4.477175e+01
  -7.812520e+01   2.114935e+01
  -1.029160e+02  -1.139825e+01
  -4.104940e-01  -7.081643e+00
   1.546956e+01  -1.950477e+01
   2.145282e+01   1.657169e+01
  -1.080955e+01  -5.364595e-01
   2.761750e+01   9.156047e+00
   6.878310e+01  -1.129711e+01
   8.144602e+01  -6.938324e+00
   3.011491e+01   5.895384e+01
  -1.173314e+02   1.320486e+02
  -1.888733e+02   8.459164e+01
  -1.449542e+02  -6.012649e+01
  -4.431856e+01  -1.653506e+02
   7.280311e+01  -1.216544e+02
   1.349887e+02  -6.033279e+01
   9.776515e+01   1.069264e+01
   3.876852e+01   4.498140e+01
  -1.839520e+00   2.213410e+01
   7.576699e-01   1.982426e+00
   2.908162e+01   2.997236e+01
   4.410022e+01   1.101300e+02
  -1.436347e+01   9.592205e+01
  -6.117110e+01  -5.797965e+01
  -9.772822e+01  -1.149018e+02
  -9.515686e+00  -1.085217e+02
   8.361348e+01  -7.863002e+00
   1.002163e+02   5.985674e+01
   2.021518e+01   9.570729e+01
  -8.088008e+01   6.635288e+01
  -1.001042e+02   5.101623e+00
  -2.388376e+01  -8.139438e+01
   4.552032e+01  -6.252404e+01
   1.803825e+01  -5.976917e+00
  -7.712881e+00  -1.072550e+01
  -6.784083e+01   7.452108e+00
  -9.929749e+00  -7.362611e+00
   4.351339e+01  -3.239161e+01
   1.057161e+02  -6.142000e+01
   4.124939e+01  -6.056635e+00
  -8.624104e+00   8.948588e+01
  -6.806542e+01   9.424101e+01
  -2.093896e+01  -1.917839e+01
  -1.610295e+01  -5.082399e+01
   2.043592e+01  -3.767562e+01
   3.595733e+01   6.391286e+00
   1.597713e+01   2.911415e+01
   1.202557e+01   2.922658e+01
  -4.209382e+01  -6.482714e+00
  -2.059925e+01  -7.452472e+00
  -8.998631e+00  -1.927676e+01
   8.626611e+00   1.311651e+01
  -5.786527e+00   3.064265e-01
  -1.750629e+01  -3.109917e+01
  -6.985761e+00  -3.000159e+01
   1.300516e+01  -2.108208e+01
   1.644176e+01   4.844659e+01
   3.952798e+00   6.850887e+01
  -4.883725e+01   4.775010e+01
  -5.376429e+01  -4.832447e+01
  -2.254920e+01  -6.362594e+01
   7.740916e+01  -3.802837e+01
   9.554160e+01   5.202674e+00
   4.636175e+01   5.649513e+01
  -5.052256e+01   4.806298e+01
  -4.445083e+01  -3.091736e+01
  -1.899345e+01  -2.590749e-01
   4.305547e+01  -1.208942e+01
   5.865437e+01  -1.834578e-01
  -5.274003e+01   3.076025e+01
  -8.230001e+01   3.286220e+01
