
 $NMID
 id='ANONYMOUS ', fmtdat='(2E16.6)'
 volume=1.0
 tramp=1.0
 $END
   3.352709e+03  -1.928046e+02
   2.054664e+03   1.200426e+03
  -3.651943e+02   1.927392e+03
  -1.073071e+03   1.197798e+03
  -8.612206e+02  -1.113591e+02
   1.554819e+02  -3.242129e+02
   6.955728e+02   1.214713e+02
   6.697412e+01   7.322369e+02
  -3.500717e+02   6.224663e+02
  -5.290637e+02   6.054619e+01
  -3.985958e+02  -4.904287e+02
   6.403155e+01  -7.015469e+02
   3.918854e+02  -2.103321e+02
   1.905533e+02   5.631631e+02
  -4.755501e+01   5.844233e+02
  -4.624054e+02   1.106585e+02
  -2.103098e+02  -4.088169e+02
   1.612985e+02  -5.398951e+02
   4.019131e+02  -2.207929e+02
   3.880596e+02   2.247428e+02
   7.125261e+01   2.834463e+02
  -1.539457e+02   2.554390e+02
  -9.034930e+01   4.434774e+01
   1.424640e+02   2.507154e+01
   2.882704e+02   1.808785e+02
   1.053883e+02   3.577665e+02
  -4.508290e+02   3.381202e+02
  -5.572164e+02  -5.770550e+00
  -2.643008e+02  -2.919165e+02
   2.789091e+02  -3.642271e+02
   4.663484e+02  -2.105728e+01
   2.932733e+02   3.364463e+02
  -1.604892e+02   4.273743e+02
  -3.783948e+02   2.304723e+02
  -3.376873e+02  -1.949340e+02
  -1.108376e+02  -3.274392e+02
   8.230080e+01  -2.329798e+02
   1.275152e+02   6.912211e+01
  -1.292422e+02   2.414373e+02
  -3.052443e+02  -2.655809e+01
  -1.656715e+02  -4.962513e+02
   2.856811e+02  -4.568119e+02
   4.473475e+02  -1.932983e+01
   1.490280e+02   3.739005e+02
  -1.874409e+02   2.429341e+02
  -3.188092e+02  -2.127488e+02
   4.984182e+01  -4.112476e+02
   4.403458e+02  -1.155383e+02
   4.835290e+02   3.106672e+02
   1.442458e+02   4.181677e+02
  -3.213471e+02   3.393164e+02
  -4.955166e+02   5.275445e+01
  -3.309179e+02  -2.042799e+02
   7.485962e+01  -2.775931e+02
   3.330668e+02  -6.974623e+01
   2.084963e+02   7.428307e+01
  -4.905519e+01   5.931611e+01
  -9.510454e+01  -9.862294e+01
   9.105180e+01  -1.395663e+02
   2.284546e+02   1.900870e+01
   1.269024e+02   1.756418e+02
  -1.033966e+02   2.255062e+02
  -2.902039e+02   8.204450e+01
  -1.990837e+02  -4.708217e+01
  -4.507013e+00  -2.807644e+02
   1.660053e+02  -3.024731e+02
   2.888510e+02  -1.622169e+02
   2.630861e+02   1.255008e+02
   8.731700e+01   3.393913e+02
  -2.123026e+01   3.454818e+02
  -5.069978e+01   1.309341e+02
  -3.375214e+01   2.389172e+01
  -5.457428e+01   6.099024e+01
  -1.685886e+02   9.734250e+01
  -2.407702e+02  -2.041783e+01
  -1.115446e+02  -1.886642e+02
   5.315358e+01  -1.897311e+02
   1.884125e+02  -3.423108e+00
   1.972840e+02   1.825601e+02
   2.425600e+01   2.392252e+02
  -2.070798e+02   1.000425e+02
  -2.919834e+02  -1.293386e+02
  -2.027987e+02  -2.681264e+02
   6.407907e+01  -2.424818e+02
   1.914975e+02  -1.171235e+02
   1.222403e+02  -4.033098e+01
   1.012617e+02  -6.308731e+01
   2.178330e+02  -1.148056e+02
   3.549326e+02   9.790295e+01
   2.637169e+02   1.991232e+02
   8.606968e+00   3.822056e+02
  -2.883523e+02   3.626283e+02
  -3.824592e+02   2.324883e+02
  -2.739196e+02  -5.669538e+01
  -5.607600e+01  -2.181548e+02
   9.769090e+01  -2.159694e+02
   2.558051e+01  -4.818969e+01
  -8.611644e+01   6.602413e+01
  -1.045778e+02   1.286939e+01
  -1.392685e+01  -1.273957e+02
   1.146085e+02  -1.139829e+02
   1.314768e+02   3.346713e+01
   4.550915e+01   1.402594e+02
  -1.490296e+02   7.070607e+01
  -1.305969e+02  -2.079707e+02
   1.334193e+01  -2.921257e+02
   1.996608e+02  -1.842216e+02
   2.861301e+02   5.542030e+00
   2.231281e+02   2.291341e+02
   8.367625e+01   1.551949e+02
  -7.872269e+01   1.223993e+02
  -1.276572e+02  -1.477636e+00
  -4.587968e+01  -3.204168e+01
   6.246580e+00   3.607246e+01
   3.778560e+00   1.174482e+02
  -1.052487e+02   8.728823e+01
  -1.553010e+02   4.080867e+01
  -4.273700e+01  -7.466937e+01
   8.865011e+01  -2.756504e+01
   4.119455e+01   6.905569e+01
  -1.291109e+02   9.021573e+01
  -2.677420e+02   5.237244e+01
  -1.781929e+02  -9.173428e+01
  -4.779317e+01  -2.211240e+02
   1.890858e+02  -2.262854e+02
   2.140268e+02  -1.703267e+02
   1.334649e+02   2.580698e+01
  -1.656724e+01   7.795665e+01
  -5.827696e+01   1.318509e+00
   1.697848e+01  -9.842285e+01
   1.679352e+02  -8.610583e+01
   1.789879e+02   7.704655e+01
   6.891687e+01   1.236899e+02
  -5.023441e+01   1.161052e+02
  -9.873387e+01   4.209889e+01
  -3.898924e+01  -3.636376e+01
   9.798595e+00  -6.934015e+00
   1.951227e+01   6.027169e+01
  -9.390472e+01   8.470110e+01
  -1.801320e+02   7.428250e+01
  -1.983815e+02  -1.003814e+02
  -3.582767e+01  -1.741746e+02
   1.568729e+02  -1.356244e+02
   1.617793e+02  -2.684190e+01
   5.893287e+01   1.234055e+02
  -6.540507e+01   6.987681e+01
  -6.111995e+01   5.997335e+01
   3.788228e+01  -1.041491e+01
   4.308449e+01  -2.143025e+01
  -1.972448e+01   2.181735e+01
  -5.896696e+01  -2.835157e+01
  -1.141860e+02  -8.548161e+01
  -2.325297e+01  -1.432133e+02
   9.183394e+01  -1.340933e+02
   2.167466e+02  -2.497189e+01
   1.797000e+02   1.281249e+02
   3.060011e+01   1.766306e+02
  -7.542456e+01   1.160736e+02
  -1.048311e+02   3.685983e+01
  -4.799086e+01  -3.614450e+01
  -2.991394e+01  -5.418107e+01
  -5.866544e+01   1.713164e+01
  -6.014410e+01  -9.986000e+00
  -3.752337e+01  -7.729278e+01
   7.540584e+01  -8.530957e+01
   1.059842e+02  -6.095141e+01
   5.661455e+01   2.819377e+01
  -2.441165e+01   1.174105e+02
  -1.146722e+02   8.684703e+01
  -2.311153e+02  -2.470801e+01
  -8.415692e+01  -1.357937e+02
   1.164509e+02  -2.023511e+02
   1.895568e+02  -7.511164e+01
   1.996038e+02   6.097497e+01
   1.263671e+02   1.171319e+02
  -4.603022e+01   1.062189e+02
  -7.877173e+01   9.165836e+01
  -5.587215e+01   5.491134e+01
  -1.307758e+01   8.218572e+01
  -8.375101e+01   5.132996e+01
  -1.159704e+02   1.541616e+01
  -1.148729e+02  -1.720603e+02
  -5.965218e+01  -1.760875e+02
   8.823207e+01  -1.516053e+02
   1.433445e+02  -2.264351e+01
   1.219701e+02   1.267697e+02
   2.412432e+01   1.212417e+02
  -8.185974e+01   9.778796e+01
  -4.613887e+01   8.743169e+00
  -4.021812e+00  -3.644250e+01
   4.654952e+00  -6.352344e+01
  -9.827100e+00   1.654687e+01
  -1.091944e+02   7.619109e+00
  -4.532439e+01  -2.519109e+01
   5.452537e+01  -4.455760e+01
   1.552516e+02  -1.148558e+01
   1.136151e+02   1.086101e+01
   2.946765e+01   7.366294e+01
  -1.222013e+02   5.866096e+01
  -1.421369e+02   1.724889e+01
  -3.606794e+01  -1.004581e+01
   7.153296e+01  -7.552315e+01
   5.224792e+01   2.768554e+01
   8.719922e+00   5.196057e+01
  -2.698849e+01   4.615187e+01
  -7.581988e+01   2.094183e+01
  -6.448865e+01  -2.992808e+01
  -3.249043e+01  -3.073151e+01
  -4.306451e+01  -1.518111e+01
  -4.911778e+01   3.573743e+00
  -1.324511e+01  -4.150027e+01
   2.318112e+01  -1.271943e+02
   7.122492e+01  -1.213086e+02
   1.602318e+02  -6.416451e+01
   1.262764e+02   7.934965e+01
   9.052357e+00   9.627959e+01
  -5.809392e+01   6.742698e+01
  -7.476779e+01  -1.390597e+01
   5.557157e+01  -3.834596e+01
   1.164943e+02   1.429440e+01
   6.105689e+01   8.913348e+01
  -8.965312e+01   1.165637e+02
  -2.015329e+02   4.994831e+01
  -1.327695e+02  -4.820356e+01
  -4.894747e+01  -7.441787e+01
   3.306757e+01  -6.795849e+01
   2.961451e+01  -1.800106e+01
  -3.912737e+01   2.302467e+01
  -6.442546e+01  -6.640687e+00
  -3.062186e+01  -1.211687e+02
   7.138841e+01  -1.386896e+02
   1.314480e+02  -5.979866e+01
   1.082877e+02   1.100273e+02
   1.870271e+01   1.953829e+02
  -5.829829e+01   1.077345e+02
  -8.380602e+01   7.375117e+00
  -4.334215e+01  -8.822501e+01
   6.924838e+00  -1.226734e+02
   4.635579e+01  -1.816601e+01
   5.561175e+01   1.929381e+01
   2.719236e+01  -1.196055e+01
  -2.081809e+01  -2.394286e+01
   4.109326e+01  -2.325543e+01
   6.351828e+01   3.714241e+01
   6.012751e+01   1.009890e+02
  -3.317304e+01   6.049110e+01
  -1.163648e+02  -2.013019e+01
  -1.151500e+02  -7.447095e+01
  -1.554593e+01  -2.438470e+01
   6.391919e+01  -5.068403e+01
   4.794274e+01  -2.584518e+01
   1.429722e+01   1.501368e+01
  -3.036289e+01   7.117939e+00
  -2.224221e+00   6.329123e+00
   1.833145e+01   1.676935e+00
  -2.596428e+01  -1.213511e+01
  -7.226148e+01  -3.414370e+00
  -8.304786e+01   1.225649e+01
   1.382327e+01  -7.745710e+01
   9.949120e+01  -1.236872e+02
   1.528395e+02  -1.029993e+02
   1.273354e+02   6.325841e+01
   6.319279e+01   1.222735e+02
  -5.358042e+01   1.094936e+02
  -1.318471e+02   4.241123e+01
  -7.976353e+01   3.395485e+00
  -1.050891e+01  -2.722734e+01
   2.316322e+01  -3.539975e+01
  -1.322763e+00   8.512386e+00
  -4.005052e+01  -1.575090e+01
  -3.842461e-01  -7.406084e+01
   3.110719e+01  -5.106970e+01
   7.028332e+01  -1.150166e+01
   6.864568e+01   8.355229e+01
   9.459072e+00   8.095639e+01
  -7.671348e+01   2.847409e+01
  -8.604720e+01  -1.970129e+01
  -1.128255e+01  -7.425646e+01
   5.575077e+01  -7.747821e+01
   7.902959e+01  -1.460185e+01
   6.700357e+01   3.950309e+01
   1.312899e+01   8.540438e+01
  -1.245571e+01   4.170497e+01
   5.214958e+00  -2.972487e+01
   8.548627e+01  -6.197886e+00
  -7.476447e+00   2.022987e+01
  -8.019366e+01   6.394833e+01
  -9.357756e+01   7.968331e+01
  -6.925673e+01  -3.585470e+00
  -1.204582e+01  -4.734801e+01
   4.327733e+01  -7.605772e+01
   2.988292e+01  -3.139158e+01
   1.629208e+01   3.112993e+01
  -1.998993e+01   4.375589e+01
  -3.723389e+01  -1.830571e+01
  -1.635045e+01  -4.494009e+01
  -1.822007e+01  -2.907881e+01
   3.780382e+01   3.119319e+00
   4.300005e+01   2.295504e+01
   2.186648e+01   2.964677e+00
  -8.403262e+00  -1.555971e+01
   2.510328e+01  -1.144214e+00
   1.337061e+01   3.456883e+01
   6.096060e-01   5.874735e+01
  -3.521002e+01   1.241852e+01
  -6.296658e+01  -2.400476e+01
  -2.429139e+01  -8.473252e+01
   4.059039e+01  -9.491230e+00
   7.630141e+01   9.910401e+00
   8.504473e+00   4.452875e+01
  -3.652102e+01   4.331540e+01
  -8.715687e+01  -2.205138e+00
  -3.301366e+01  -2.970764e+01
   4.547071e+00  -1.546579e+01
   4.493568e+01  -2.265625e+01
   6.307212e+01  -2.085647e+01
  -3.849636e+01   2.416701e+01
   2.204554e+00   6.732394e+00
   2.618958e+01  -3.745403e+01
   7.977490e+01  -3.855876e+01
