
 $NMID
 id='ANONYMOUS ', fmtdat='(2E16.6)'
 volume=1.0
 tramp=1.0
 $END
  -2.138218e+03   8.656314e+01
  -1.810690e+03  -6.742798e+02
  -1.149486e+02  -1.632405e+03
   7.341395e+02  -1.162643e+03
   6.270962e+02  -2.665054e+02
  -1.160591e+01   6.375551e+01
  -1.994215e+02   6.899453e+01
   2.011684e+01  -4.355438e+02
   2.796871e+02  -5.045270e+02
   5.471663e+02  -1.291657e+02
   2.240234e+02   3.189373e+02
   6.823905e+01   4.631865e+02
  -3.017845e+02   1.224544e+02
  -1.514004e+02  -4.400246e+02
  -2.738244e+00  -4.391647e+02
   3.029893e+02  -5.112964e+01
   2.605456e+02   3.595867e+02
  -2.058108e+02   4.696192e+02
  -3.501499e+02   2.281495e+02
  -3.420616e+02  -8.272632e+01
  -1.353609e+02  -2.841235e+02
   8.818117e+01  -1.877229e+02
   2.935406e+01  -2.446573e+01
  -1.390147e+02  -4.670865e+01
  -2.661037e+02  -1.966734e+02
  -1.141420e+01  -3.705471e+02
   4.773461e+02  -1.742792e+02
   3.787523e+02   7.088740e+01
   1.816489e+02   2.705539e+02
  -3.334228e+02   1.869041e+02
  -4.261558e+02  -9.930114e+01
  -1.340903e+02  -2.457133e+02
   1.970878e+02  -2.678580e+02
   3.543515e+02  -1.012536e+02
   2.627338e+02   1.174403e+02
   7.106445e+01   2.056462e+02
   1.167050e+01   1.346339e+02
   2.630619e+01  -5.095344e+01
   1.503125e+02  -1.239263e+02
   1.232211e+02   1.284349e+02
   7.605349e-01   4.176579e+02
  -2.337698e+02   3.442988e+02
  -3.218788e+02  -5.996351e+01
  -1.536107e+02  -2.424736e+02
   1.078347e+02  -1.671959e+02
   1.487207e+02   2.226913e+02
  -8.448929e-01   2.884444e+02
  -2.817405e+02   5.176210e+01
  -4.021214e+02  -2.712700e+02
  -1.145289e+02  -3.568720e+02
   2.689554e+02  -2.012122e+02
   3.584155e+02   8.561517e+01
   2.341149e+02   1.922074e+02
  -7.597829e+01   2.030249e+02
  -1.633119e+02   6.746001e+01
  -1.762356e+02  -5.065342e+01
  -1.448172e+01  -2.558750e+01
   4.056017e+01   8.846145e+01
  -1.976741e+01   3.628885e+01
  -1.586186e+02  -1.171360e+01
  -1.363789e+02  -1.614527e+02
   1.088048e+02  -2.281357e+02
   2.581728e+02  -8.369068e+01
   2.126069e+02   2.409425e+00
  -1.892997e+01   2.284581e+02
  -1.762371e+02   2.877279e+02
  -2.581501e+02   1.726901e+02
  -2.101752e+02  -1.386752e+02
  -1.023795e+02  -3.119084e+02
   8.284279e+00  -2.618485e+02
   8.944042e+00  -1.533591e+02
   1.651248e+01  -7.882149e+01
   1.089403e+02  -1.016519e+02
   1.978095e+02  -5.602873e+01
   1.695973e+02   5.479048e+01
   5.207581e+01   1.723883e+02
  -5.868973e+01   1.544431e+02
  -1.233302e+02   4.423787e+00
  -1.316653e+02  -1.435263e+02
   3.669908e+01  -2.153635e+02
   1.921282e+02  -8.475079e+01
   2.093617e+02   9.688555e+01
   1.461655e+02   1.788116e+02
  -4.973102e+01   2.180183e+02
  -1.494195e+02   1.098670e+02
  -1.023815e+02   3.202916e+01
  -7.949226e+01   9.469195e+01
  -2.201859e+02   4.656349e+01
  -3.093495e+02  -4.442495e+01
  -2.298985e+02  -1.858301e+02
  -3.459805e+00  -3.554171e+02
   2.687842e+02  -3.579363e+02
   3.144365e+02  -1.531627e+02
   2.227367e+02   4.211553e+01
   1.449804e+00   1.599364e+02
  -8.101438e+01   1.661792e+02
   2.476538e+01   1.803175e+01
   7.852654e+01  -4.469478e+01
   1.031151e+02   4.677856e+01
  -2.808263e+00   1.066948e+02
  -8.829707e+01   9.741968e+01
  -6.595536e+01  -8.080171e+00
   3.997733e+01  -1.216096e+02
   1.235255e+02  -1.259276e+01
   9.098397e+01   1.485087e+02
  -9.303463e+00   2.973977e+02
  -1.767274e+02   1.771797e+02
  -2.384540e+02  -3.200579e+01
  -2.123191e+02  -1.811291e+02
  -1.068151e+02  -2.058216e+02
   1.127656e+02  -1.158729e+02
   8.521247e+01   2.350523e+01
   9.532637e+00   1.911449e+01
  -5.925197e+01  -5.018118e+01
   1.129306e+01  -6.973445e+01
   9.272028e+01  -6.857829e+01
   1.338231e+02   1.154184e+01
   2.143906e+01   4.726932e+01
  -6.277323e+01  -4.445551e+01
  -6.628359e+00  -5.670262e+01
   9.990338e+01  -1.087651e+02
   2.174200e+02  -1.191035e+00
   2.114425e+02   1.048547e+02
   5.002577e+01   2.283614e+02
  -9.983242e+01   1.617761e+02
  -2.120391e+02   9.874848e+01
  -9.546786e+01  -1.513121e+01
   2.910309e+01  -4.946999e+01
   6.568703e+01  -1.310594e+01
  -1.115584e+01   8.217077e+01
  -1.444364e+02   4.029269e+01
  -1.784425e+02  -6.011409e+01
  -3.837606e+01  -1.355301e+02
   4.669182e+01  -1.006958e+02
   1.055100e+02  -3.599833e+01
   4.500727e+00   5.324260e+01
  -4.026610e+01  -4.567396e+01
  -7.069826e+01  -9.493097e+01
   9.726886e+01  -9.342458e+01
   1.528887e+02  -3.555538e+01
   1.639819e+02   1.022215e+02
   2.542041e+01   1.428124e+02
  -1.149004e+02   1.347559e+02
  -1.283418e+02   4.570830e+00
  -8.574398e+01  -5.768577e+01
   5.410906e+01  -8.401774e+01
   5.665964e+01  -3.206400e+00
  -1.565469e+01   9.837017e+00
  -3.809698e+01   3.208577e+01
  -1.455966e+01   8.387181e-01
   6.772248e+01   2.714324e+00
   9.869941e+01   7.799490e+01
   3.255661e+01   1.356905e+02
  -8.970752e+01   1.055396e+02
  -2.026067e+02  -1.768467e+01
  -1.569898e+02  -1.380810e+02
  -6.149235e+01  -1.682892e+02
   6.968274e+01  -8.504523e+01
   8.246444e+01  -4.162173e+01
   3.017674e+01   2.664831e+01
   2.642258e+01  -1.726175e+00
   6.834869e+01  -1.291477e+01
   7.378744e+01  -1.726315e+01
   4.503228e+01   5.937398e+01
  -8.883383e+00   7.237285e+01
  -7.723862e+01   5.978902e+01
  -6.140967e+01  -2.107491e+01
   2.266035e+01  -9.229155e+01
   1.341041e+02  -6.874253e+01
   1.680688e+02   5.579172e+01
   4.179686e+01   1.229594e+02
  -6.130013e+01   1.623644e+02
  -1.988284e+02   7.825342e+01
  -2.037539e+02  -6.071208e+01
  -1.033221e+02  -1.215108e+02
   6.980364e+00  -9.207568e+01
   5.506614e+01  -4.451443e+01
   8.081224e+01  -4.468910e+01
   5.307382e+01  -4.487795e+01
   4.859013e+01  -6.755511e+01
   1.084086e+02   2.060588e+01
   5.337915e+01   1.510803e+02
   4.193689e+01   1.495618e+02
  -7.269037e+01   1.182223e+02
  -9.493823e+01   1.783321e+01
  -8.929343e+01  -6.805331e+01
  -1.396722e+01  -1.328455e+02
   7.206956e+01  -8.783985e+01
   3.172893e+01   6.606651e+00
   2.978993e+01   3.960406e+01
  -2.517625e+01   4.360450e+01
   2.196892e+01   3.263706e+01
   5.587540e+01  -7.945663e+00
   4.395833e+01   2.440670e+01
  -5.686913e+01   6.481976e+01
  -1.340918e+02   5.422762e+00
  -1.289413e+02  -5.293334e+01
  -2.591817e+01  -5.316920e+01
   1.423625e+02  -7.219188e+01
   1.070875e+02  -4.009342e+00
   3.744898e+01   2.406872e+01
  -4.551430e+01   5.748946e+01
  -7.867912e+01  -5.520196e+00
  -2.773078e+01  -4.840591e+01
   3.690903e+01  -4.770277e+01
   5.137479e+01   3.503018e+01
   6.517605e+01   4.290161e+01
   2.021888e+01   4.018274e+01
   3.487244e+01  -1.062683e+01
   3.870148e+01  -1.324737e+00
   3.718600e+01   8.039574e+01
  -3.892787e+01   1.077415e+02
  -1.004770e+02   1.373183e+02
  -1.637247e+02   4.972132e+01
  -1.496394e+02  -5.504106e+01
  -3.386694e+01  -1.003376e+02
   6.190405e+01  -4.125413e+01
   7.664148e+01   5.143924e+00
  -8.084772e+01   2.172098e+01
  -1.028180e+02  -1.103600e+01
  -8.627369e+01  -1.015505e+02
   5.345554e+01  -1.112680e+02
   1.488743e+02  -7.609526e+00
   1.275579e+02   7.465616e+01
   4.295651e+01   5.645807e+01
  -6.592986e+01   5.641650e+01
  -1.671292e+01   3.437923e+00
   3.291913e+01  -9.699347e+00
   7.145018e+01  -9.725885e+00
   2.258044e+01   8.052659e+01
  -1.530779e+01   1.205313e+02
  -1.164234e+02   5.492630e+01
  -1.120708e+02  -5.009237e+01
  -2.816949e+01  -1.313573e+02
   7.982355e+01  -8.476792e+01
   6.896990e+01  -2.127662e+01
   3.494834e+01   8.146742e+01
  -6.725521e+00   7.296014e+01
  -5.017999e+01  -7.637587e+00
  -3.398028e+01  -2.151522e+01
  -9.313936e+00   3.752004e+01
   2.667088e+00   3.314392e+01
  -1.973240e+01  -1.571122e+01
  -6.124714e+01  -8.535597e+01
  -4.872327e+01  -7.986831e+01
   2.259135e+01  -4.769097e+01
   1.238214e+02   1.785446e+01
   1.151700e+02   5.255642e+01
   1.265377e+01   4.210932e+01
  -5.946607e+01   5.167583e+01
  -7.799014e+01   1.527940e+01
  -2.103329e+01  -2.786370e+01
  -1.588147e+01  -3.190787e+01
   2.865932e+00  -1.091241e+01
  -1.182656e+00  -1.494469e+00
  -1.356097e+01   2.378929e+01
   1.443506e+01  -2.483237e+01
   8.910468e+01  -4.719734e+00
   2.501077e+01   3.610064e+01
  -6.907988e+01   1.015417e+02
  -1.542848e+02   6.403919e+01
  -1.059112e+02  -1.968996e+01
  -4.250062e+01  -1.160588e+02
   3.223186e+01  -1.437095e+02
   7.934978e+01  -4.876479e+01
   7.590341e+01   2.135792e+01
   4.476596e+01   3.249717e+01
   6.533401e+00  -1.117489e+00
   2.882606e+01   3.335072e+01
   1.519419e+01   2.853970e+01
   2.526654e+01   6.802111e+01
  -2.938650e+01   9.357908e+01
  -3.991297e+01  -3.619658e+01
  -9.072061e+01  -6.327258e+01
  -7.303975e+00  -5.517775e+01
   4.147121e+01  -1.841078e+01
   8.916577e+01   3.066286e+01
   3.863114e+01   5.996474e+01
  -5.470157e+01   7.348713e+01
  -7.720326e+01   3.563906e-02
  -3.358476e+01  -5.794074e+01
   5.948362e+01  -6.601707e+01
   4.977833e+01  -4.883702e+00
   6.835080e+00   5.327789e+00
  -5.108382e+01   6.061259e+00
  -3.753471e+01  -1.676080e+01
   6.200342e+01  -2.985003e+01
   1.504621e+02  -5.421033e+01
   4.473388e+01   5.696174e+00
  -2.383935e+00   7.654150e+01
  -6.722563e+01   6.188223e+01
  -4.395068e+01   1.512667e+01
  -1.175830e+01  -4.580192e+01
   1.077213e+01  -4.340587e+01
   5.341471e+01   6.298096e+00
   3.317615e+01   5.089946e+01
   9.415513e-01   2.197802e+01
  -2.309752e+01  -2.395612e+01
  -2.077493e+01  -4.291513e+01
  -1.645228e+01  -6.006746e+00
   1.710766e+00  -9.187132e+00
   2.114721e+01  -1.199542e+01
  -1.236208e+01  -2.488732e+01
  -2.999142e+01  -2.624245e+01
   5.044814e+01  -1.356407e+01
   1.843539e+01  -3.015921e+01
   2.403444e+01   3.301652e+01
  -3.417515e+01   4.903326e+01
  -4.331430e+01  -2.286927e+01
  -2.757297e+00  -3.791079e+01
   5.823269e+01  -4.357832e+01
   6.554518e+01  -8.780058e+00
   4.719186e+01   4.029804e+01
  -1.100339e+01   2.645615e+01
  -7.698422e+01   1.702619e+01
  -3.382362e+00  -2.724011e+01
   2.551341e+01  -2.724394e+01
   1.549230e+01   1.560370e+01
   6.931876e+00   3.973898e+01
  -6.342430e+01   2.589848e+01
