
 $NMID
 id='ANONYMOUS ', fmtdat='(2E16.6)'
 volume=1.0
 tramp=1.0
 $END
   3.539721e+03  -4.238244e+02
   2.689061e+03   2.065113e+03
  -8.414935e+00   2.288743e+03
  -1.645206e+03   1.327733e+03
  -1.117296e+03  -2.040756e+02
   2.781692e+02  -4.200189e+02
   6.021187e+02   1.460397e+02
   1.673593e+02   7.911683e+02
  -5.336249e+02   7.048127e+02
  -8.081173e+02   1.296625e+02
  -5.168344e+02  -6.651320e+02
  -1.513569e+00  -7.985092e+02
   4.339679e+02  -2.320924e+02
   3.795181e+02   6.163583e+02
  -1.316044e+02   6.529426e+02
  -4.602991e+02   9.110510e+01
  -2.570286e+02  -4.921184e+02
   2.021589e+02  -6.409080e+02
   5.329478e+02  -2.308556e+02
   4.293982e+02   2.004669e+02
   7.608889e+01   3.951382e+02
  -1.742006e+02   3.005940e+02
  -1.343272e+02   6.380832e+01
   9.641524e+01  -3.106697e+01
   3.775626e+02   1.531479e+02
   1.371776e+02   3.505521e+02
  -5.295180e+02   3.417283e+02
  -7.415117e+02   3.416435e+01
  -4.371579e+02  -4.289333e+02
   2.722511e+02  -3.265675e+02
   5.753435e+02  -5.429114e+00
   2.760866e+02   2.905202e+02
  -2.174757e+02   3.898011e+02
  -3.967888e+02   1.717877e+02
  -3.274378e+02  -1.863483e+02
  -1.300740e+02  -3.918183e+02
   4.366867e+01  -2.473014e+02
   9.295976e+01   1.701098e+02
  -1.540311e+02   3.538277e+02
  -3.437306e+02  -8.000336e+00
  -2.937873e+02  -6.210494e+02
   3.175783e+02  -6.072170e+02
   4.069061e+02  -6.803025e+01
   2.399578e+02   4.349890e+02
  -1.598116e+02   2.316237e+02
  -3.519807e+02  -2.376747e+02
   3.867749e+01  -4.630493e+02
   5.174639e+02  -1.750144e+02
   5.705112e+02   4.014934e+02
   2.325991e+02   5.592201e+02
  -3.231925e+02   3.297243e+02
  -5.410514e+02   6.289017e+01
  -4.136477e+02  -2.481537e+02
   1.285419e+02  -3.854096e+02
   3.276813e+02  -8.515834e+01
   2.600597e+02   7.156190e+01
  -3.376755e+01   1.071333e+02
  -1.117540e+02  -1.293729e+02
   7.353080e+01  -1.497961e+02
   3.226830e+02   5.433314e+01
   1.838370e+02   1.947699e+02
  -1.765767e+02   2.934925e+02
  -3.266688e+02   1.006861e+02
  -2.317639e+02  -6.272922e+01
   3.420848e+01  -2.295813e+02
   2.378070e+02  -3.307810e+02
   2.916541e+02  -2.150196e+02
   2.637022e+02   1.238688e+02
   9.940242e+01   3.722022e+02
  -2.795910e+00   4.177502e+02
  -1.060170e+02   1.491915e+02
  -4.586362e+01   3.011252e+01
  -9.256610e+01   1.211017e+02
  -1.800397e+02   8.639723e+01
  -2.099936e+02  -3.106341e+01
  -1.585845e+02  -2.096497e+02
   4.112346e+00  -1.858179e+02
   2.079058e+02   5.921398e+00
   1.658522e+02   1.712213e+02
  -1.166035e+01   2.936642e+02
  -2.259791e+02   1.360811e+02
  -3.198250e+02  -1.178574e+02
  -1.884355e+02  -2.947656e+02
   1.062875e+02  -3.092160e+02
   1.907986e+02  -1.086278e+02
   1.607333e+02  -3.284376e+01
   1.359833e+02  -3.866901e+01
   2.157636e+02  -8.926552e+01
   4.081177e+02   5.418544e+01
   3.076348e+02   2.402895e+02
  -1.737979e+01   4.392782e+02
  -3.251028e+02   4.915282e+02
  -4.288893e+02   2.050309e+02
  -2.785672e+02  -4.274130e+01
  -6.764195e+01  -2.305724e+02
   8.526838e+01  -2.500583e+02
   6.222684e+01  -2.702247e+01
  -1.046498e+02   1.016241e+02
  -1.809952e+02  -9.411108e+00
  -6.951687e+01  -1.700199e+02
   1.152860e+02  -1.439564e+02
   1.068181e+02   8.031279e+01
   2.460229e+00   1.632743e+02
  -1.288504e+02   3.321405e+01
  -1.782176e+02  -1.861917e+02
   1.506415e+01  -3.725097e+02
   1.832790e+02  -1.613451e+02
   2.903106e+02   2.556178e+01
   3.036063e+02   1.981099e+02
   1.207099e+02   2.305185e+02
  -6.356634e+01   1.586338e+02
  -1.474556e+02   2.023851e+01
  -6.646638e+01  -7.465574e+00
   6.438967e+01   5.760681e+01
   2.666391e+01   1.123475e+02
  -7.763227e+01   8.067522e+01
  -1.367983e+02   1.830475e+01
  -5.748869e+01  -5.367160e+01
   1.057947e+02   1.407118e+01
   2.159960e+01   8.617455e+01
  -1.223691e+02   1.149441e+02
  -2.675639e+02   1.522783e+01
  -2.611840e+02  -1.137566e+02
  -3.285373e+01  -2.508876e+02
   1.901741e+02  -2.169223e+02
   2.858695e+02  -1.001623e+02
   1.492268e+02   2.881559e+01
  -5.011699e+01   9.162960e+01
  -5.631863e+01   1.795732e+01
   1.537652e+01  -1.053138e+02
   1.500118e+02  -7.918517e+01
   2.269836e+02   8.536411e+01
   9.161518e+01   1.621810e+02
  -6.649955e+01   1.662862e+02
  -1.175496e+02  -1.190238e+01
  -7.254185e+01  -4.194517e+01
   3.769287e+01   1.867822e+01
   5.722621e+01   6.959527e+01
  -9.361528e+01   1.217626e+02
  -1.746396e+02   1.886031e+00
  -1.769513e+02  -1.244301e+02
  -1.945331e+01  -1.841270e+02
   2.005347e+02  -1.668539e+02
   1.937630e+02  -3.642112e+01
   6.916017e+01   7.873564e+01
  -4.692285e+01   1.038736e+02
  -5.780726e+01   5.547316e+01
   1.353744e+01  -1.700199e+01
   3.865999e+01  -4.314840e+00
  -1.062856e+01   1.691400e+01
  -7.184830e+01   1.374584e+01
  -1.151718e+02  -8.687526e+01
  -9.516927e+00  -1.681931e+02
   1.647201e+02  -1.234064e+02
   2.147730e+02  -1.753338e+01
   1.641210e+02   1.255289e+02
   7.785399e+01   2.108320e+02
  -1.113173e+02   1.558601e+02
  -1.056787e+02   2.604914e+01
  -9.710818e+01  -5.223911e+01
  -4.801625e+01  -3.146370e+01
  -3.333000e+01   4.970463e+01
  -9.024418e+01   3.047770e+01
  -4.518547e+01  -9.578231e+01
   4.537059e+01  -1.114560e+02
   1.304069e+02  -4.522388e+01
   8.253397e+01   1.314573e+01
   1.413367e-01   1.156530e+02
  -1.428276e+02   9.841951e+01
  -1.973002e+02  -8.040946e+01
  -1.190851e+02  -1.775585e+02
   1.080071e+02  -2.338726e+02
   2.123469e+02  -7.732141e+01
   1.982219e+02   8.348291e+01
   9.758189e+01   1.723349e+02
  -3.192681e+00   8.701309e+01
  -7.939545e+01   1.012642e+02
  -8.245069e+01   6.573522e+01
  -4.667809e+01   9.673291e+01
  -5.947427e+01   8.032753e+01
  -1.439460e+02  -2.522055e+00
  -7.236667e+01  -1.643403e+02
  -7.593260e+01  -2.215456e+02
   1.230852e+02  -1.667447e+02
   1.407748e+02  -4.923024e+01
   1.220645e+02   1.162113e+02
  -1.301831e+01   1.485318e+02
  -6.198999e+01   7.901312e+01
  -5.805435e+01   2.525165e+01
   9.007628e+00  -5.481726e+01
   1.843879e+01  -4.397195e+01
  -3.251392e+00  -3.087819e+01
  -6.879211e+01  -1.364290e+01
  -3.751445e+01  -6.332409e+01
   6.200250e+01  -4.002017e+01
   1.095040e+02   2.842872e+01
   1.460289e+02   4.967169e+01
  -1.420909e+01   6.690039e+01
  -1.171909e+02   4.795703e+01
  -1.302179e+02   1.580643e+01
  -4.398818e+01  -5.179679e+01
   6.576266e+01  -2.069737e+01
   5.557817e+01   1.301514e+01
   3.175931e+01   6.623666e+01
  -5.531995e+01   6.357802e+01
  -7.087745e+01   4.602962e+00
  -5.791497e+01  -5.707900e+01
  -7.716756e+01  -5.186235e+01
  -7.447953e+01   6.422763e+00
  -3.773033e+01   4.118154e-01
  -8.414667e+01  -7.755554e+01
   4.503889e+01  -1.257956e+02
   1.266023e+02  -1.521071e+02
   1.934712e+02  -6.307993e+01
   1.178083e+02   9.135475e+01
   2.604950e+01   9.931477e+01
  -9.962380e+01   7.785860e+01
  -5.411003e+01   1.658151e+01
   4.798115e+01  -1.642939e+01
   1.566362e+02   6.496504e+01
   7.891335e+01   9.979262e+01
  -7.957911e+01   8.792249e+01
  -2.013520e+02   4.397008e+01
  -1.800194e+02  -6.839714e+01
  -2.850146e+01  -9.518922e+01
   5.658731e+01  -6.138216e+01
   1.336224e+00   1.545240e+01
  -3.222716e+01   1.842785e+01
  -8.847977e+01  -3.666531e+01
  -5.294254e+01  -1.147247e+02
   4.725497e+01  -1.623531e+02
   1.272073e+02  -7.036796e+01
   1.153730e+02   7.976206e+01
   2.838538e+01   1.980133e+02
  -1.120650e+02   1.015986e+02
  -9.421202e+01  -3.854756e+00
  -4.578386e+01  -1.163851e+02
  -9.889068e-01  -1.102889e+02
   4.612721e+01  -3.051721e+01
   5.772106e+01   1.081783e+01
   2.219751e+01   7.173031e+00
  -4.050520e+01  -3.144473e+00
  -4.981243e+00   1.796199e+01
   6.516317e+01   7.646366e+01
   5.030997e+01   1.354980e+02
  -3.190573e+01   2.271908e+01
  -1.262874e+02  -1.419874e+01
  -1.557671e+02  -6.856550e+01
  -2.970377e+01  -5.239793e+01
   5.349535e+01  -3.143353e+01
   9.120646e+01  -2.848720e+00
  -8.310342e+00   1.184547e+01
  -2.800043e+01   2.770033e+01
  -2.680292e+01   2.677476e+01
  -7.557997e-01   2.617257e+01
  -2.740836e+01   1.232250e+01
  -6.468668e+01   3.027835e+01
  -1.228701e+02   3.148735e+00
   1.167418e-01  -6.600266e+01
   1.098291e+02  -7.549133e+01
   1.689078e+02  -7.762720e+01
   1.369510e+02   8.590283e+01
   4.349119e+01   1.772494e+02
  -5.990763e+01   1.695413e+02
  -1.092721e+02   6.398029e+01
  -7.316702e+01  -2.416503e+01
  -8.798109e+00  -6.147889e+01
  -4.581077e+00  -2.871419e+01
   1.011809e+01  -1.672837e+01
  -2.686763e+01  -4.177543e+01
  -4.607131e+00  -8.328861e+01
   4.426687e+01  -7.047652e+01
   7.648644e+01   2.939275e+01
   8.562347e+01   9.536655e+01
   3.155076e+01   1.326445e+02
  -6.680948e+01   4.028496e+01
  -1.312663e+02  -4.775483e+01
  -2.605397e+01  -7.017425e+01
   6.384589e+01  -4.038542e+01
   8.698037e+01   8.181848e+00
   4.641848e+01   5.503324e+01
  -1.878026e+01   6.330249e+01
  -3.181471e+01   2.881414e+01
   5.470258e+01  -1.286684e+01
   6.042388e+01   2.694513e+01
   3.048479e+01   2.485725e+01
  -9.601952e+01   8.468930e+01
  -1.185391e+02   4.792026e+01
  -4.651249e+01  -5.954510e+00
   1.240514e+01  -7.030954e+01
   4.558129e+01  -7.980830e+01
   2.108582e+01  -3.832142e-01
  -1.378211e+01   3.568179e+01
  -5.769032e+01   1.713719e+01
  -1.541533e+01   4.018543e+00
  -2.623410e+01  -3.785934e+01
  -3.016380e+01  -4.394553e+01
   2.775769e+01   1.672746e+01
   1.865242e+01   1.004840e+01
   1.575205e+01  -5.591296e+00
  -1.202337e+01  -1.303293e+01
   7.414501e+00  -1.058265e+01
   2.341209e+01   3.215569e+01
   2.108722e+01   3.501352e+01
  -2.173326e+01  -4.671494e+00
  -4.197711e+01  -4.970651e+01
  -1.727388e-01  -2.324012e+01
   5.001772e+01  -3.571010e+01
   5.946644e+01   1.370835e+01
   2.672500e+01   7.499320e+01
  -7.043373e+01   5.608833e+01
  -8.061398e+01  -1.947049e+01
  -4.713040e+01  -3.449083e+01
   4.884208e+01  -3.138256e+01
   5.210708e+01  -3.183089e+01
   4.419383e+01   1.032910e+01
  -3.136719e+01   1.902000e+01
  -5.892359e+01  -1.901205e+01
   2.780693e+01  -2.996072e+00
   8.328006e+01  -5.694178e+01
