
 $NMID
 id='ANONYMOUS ', fmtdat='(2E16.6)'
 volume=1.0
 tramp=1.0
 $END
   2.122391e+03  -1.538848e+02
   1.365636e+03   5.670262e+02
   2.990964e+02   1.345865e+03
  -5.510147e+02   8.705742e+02
  -5.684271e+02   1.983088e+02
  -4.891316e+01  -8.331208e+01
   4.449436e+02  -6.991903e+01
   1.067665e+02   4.015116e+02
  -9.069950e+01   5.168759e+02
  -3.762792e+02   1.395798e+02
  -3.302495e+02  -2.754473e+02
   6.009053e+00  -3.461845e+02
   2.031072e+02  -2.029333e+02
   1.160989e+02   2.034616e+02
  -4.192400e+01   3.466363e+02
  -2.892879e+02   8.700469e+01
  -2.556654e+02  -2.253504e+02
   3.329987e+01  -3.517384e+02
   1.589199e+02  -2.342674e+02
   2.375540e+02   4.199496e+01
   1.007537e+02   2.286957e+02
  -2.622897e+01   1.667105e+02
  -4.860669e+01   5.715426e+01
   8.980875e+01   4.497714e+01
   2.397456e+02   1.595767e+02
  -2.331288e+00   2.459039e+02
  -2.724006e+02   1.015960e+02
  -4.093648e+02  -2.208084e+01
  -2.690757e+02  -1.847540e+02
   2.757692e+02  -1.537824e+02
   3.795267e+02   1.884869e+01
   1.839732e+02   1.930210e+02
  -1.246175e+02   2.302458e+02
  -2.702794e+02   1.327195e+02
  -1.838372e+02  -1.525793e+02
  -9.971394e+01  -2.046445e+02
  -4.092031e+01  -1.534545e+02
   2.690143e+00   2.835450e+01
  -8.778055e+01   1.497046e+02
  -1.770429e+02  -5.555728e+01
  -4.554126e+01  -2.718865e+02
   1.599066e+02  -2.686504e+02
   2.210090e+02  -4.127771e+01
   7.002155e+01   2.058981e+02
  -1.035987e+02   1.313591e+02
  -1.194545e+02  -1.637219e+02
   2.787092e+01  -2.454458e+02
   2.581988e+02  -8.542716e+01
   2.326712e+02   1.896615e+02
   1.936949e+02   1.997031e+02
  -1.757133e+02   1.496124e+02
  -2.784465e+02   5.081133e+01
  -2.358967e+02  -1.285748e+02
   3.122922e+01  -1.265618e+02
   1.532507e+02  -1.076168e+02
   1.428297e+02  -1.358871e+01
   6.458373e-01   2.829493e+01
  -1.142900e+01  -2.342799e+01
   2.884581e+01  -5.013111e+01
   1.482549e+02  -3.052088e+00
   1.118405e+02   8.820092e+01
  -4.963366e+01   1.097852e+02
  -1.976493e+02   1.157140e+02
  -1.636543e+02  -1.375321e+01
   3.443584e+01  -1.849812e+02
   2.083672e+02  -3.157201e+02
   1.725926e+02  -1.380831e+02
   1.548005e+02   8.714076e+01
   9.144814e+01   1.866259e+02
   1.435492e+01   1.899873e+02
  -2.314301e+01   1.259260e+02
  -2.010094e+01   3.598772e+01
  -6.057181e+01   6.083306e+01
  -1.338417e+02   5.785784e+01
  -1.444668e+02  -2.742276e+01
  -8.187060e+01  -1.269752e+02
   4.091960e+01  -9.618871e+01
   9.818706e+01   2.967997e+01
   1.179107e+02   1.421994e+02
  -3.765888e+01   1.672745e+02
  -1.698473e+02   2.847062e+01
  -1.746897e+02  -3.493508e+01
  -1.088654e+02  -1.531534e+02
   7.321000e+00  -1.455773e+02
   1.012125e+02  -7.089465e+01
   6.623413e+01  -6.987664e+01
   1.128164e+02  -6.693080e+01
   1.308031e+02  -7.765866e+01
   1.907940e+02   4.274685e+01
   1.660098e+02   1.169619e+02
   1.630890e+01   2.578371e+02
  -1.773509e+02   2.915443e+02
  -2.348713e+02   8.399787e+01
  -1.568328e+02  -9.054265e+00
  -3.041125e+01  -1.233065e+02
   4.818578e+01  -1.156405e+02
  -7.008031e+00  -4.957887e-01
  -8.387747e+01   2.164296e+01
  -8.276307e+01  -2.221216e+01
  -3.316463e+01  -8.263291e+01
   5.367174e+01  -5.275619e+01
   7.948964e+01   3.306567e+01
   3.690575e+01   4.836934e+01
  -7.148955e+01   5.085541e+01
  -1.129707e+02  -1.299675e+02
  -3.212464e+01  -2.002316e+02
   1.370242e+02  -1.390220e+02
   1.913727e+02   3.300663e+01
   1.886625e+02   7.936318e+01
   3.374208e+01   1.212653e+02
  -6.442888e+01   1.128660e+02
  -9.561750e+01   4.976890e+01
  -4.499540e+00  -7.941130e+00
  -2.572688e+00   5.622257e+01
  -4.810655e+00   8.344867e+01
  -7.927420e+01   3.339429e+01
  -8.026887e+01   1.522258e+01
   2.143226e+01  -4.974444e+01
   5.723716e+01  -1.432243e+00
   4.586710e+01   5.324888e+01
  -7.613122e+01   8.364274e+01
  -1.923871e+02   6.363744e+00
  -1.854166e+02  -4.028841e+01
  -6.875331e+00  -1.610886e+02
   1.281188e+02  -1.628661e+02
   1.755687e+02  -9.065967e+01
   5.902047e+01  -9.274526e+00
  -2.047195e+01   3.979538e+01
  -2.303303e+00   1.575605e+01
   3.064136e+01  -7.735695e+01
   1.302564e+02  -5.173556e+01
   1.271561e+02   5.523004e+01
   5.563188e+01   6.583722e+01
  -3.620747e+01   8.455779e+01
  -8.560071e+01   2.366396e+01
  -3.841610e+01  -1.752705e+01
   5.116910e+01   1.791829e+01
   3.639255e+01   8.783096e+01
  -3.479174e+01   5.892542e+01
  -8.642960e+01   3.763251e+01
  -1.255036e+02  -6.539613e+01
  -7.882516e+00  -1.268583e+02
   9.369122e+01  -9.942975e+01
   1.056897e+02  -1.924034e+01
   5.318497e+01   6.261807e+01
  -3.095986e+01   4.481805e+01
  -3.133145e+01   1.339397e+01
  -7.851220e+00  -3.250272e+01
   4.251589e+01  -4.468021e+00
  -9.194434e+00  -4.242457e+00
  -2.005669e+01   1.510867e+01
  -7.693190e+01  -5.985165e+01
  -2.979710e+01  -1.058625e+02
   9.026261e+01  -1.046971e+02
   1.199994e+02  -2.564097e+00
   1.061251e+02   6.172795e+01
   4.152216e+01   1.312549e+02
  -5.895923e+01   8.608510e+01
  -7.215150e+01   3.251822e+01
  -2.220304e+01  -2.073065e+01
  -1.044847e+01  -1.618431e+01
  -4.849114e+01   8.214507e-01
  -3.144853e+01  -1.794193e+00
  -1.358911e+01  -1.398158e+01
   1.823868e+01  -4.962386e+01
   6.673945e+01  -3.260500e+01
   4.166605e+01   1.887049e+01
   1.418112e+01   8.977010e+01
  -4.927689e+01   6.416206e+01
  -1.822988e+02  -3.466184e+01
  -6.506348e+01  -9.075114e+01
   6.296604e+01  -1.251506e+02
   1.362586e+02  -8.657957e+01
   1.487885e+02   7.840020e+00
   8.700729e+01   8.869327e+01
  -1.321491e+01   7.162186e+01
  -4.448208e+01   4.720167e+01
  -2.797702e+01   4.640724e+01
  -3.361527e+01   4.602689e+01
  -6.108812e+01   7.410410e+01
  -4.668284e+01   1.534879e+01
  -1.166326e+02  -1.206667e+02
  -4.468107e+01  -1.431777e+02
   6.580283e+01  -8.585948e+01
   1.083972e+02  -1.286374e+01
   6.342837e+01   7.447540e+01
   4.414065e+01   1.018494e+02
  -5.579405e+01   7.743296e+01
  -4.450498e+01  -4.760508e+00
   2.706073e+01  -4.691367e+00
   1.003476e+01   5.399678e+00
  -6.817248e+00   1.299205e+01
  -6.343097e+01   1.151508e+01
  -3.205767e+01  -2.604023e+01
   1.419649e+01  -3.383026e+01
   1.177080e+02  -8.383597e+00
   1.179815e+02   2.202734e+01
  -3.977235e+00   6.259122e+01
  -9.498331e+01   2.579850e+01
  -9.272267e+01   1.560602e+01
  -5.205693e+01  -4.207045e+01
   3.471191e+01  -6.085946e+01
   3.078909e+01  -6.149816e+00
   1.302339e+01   6.679349e+01
  -1.347796e+01   3.708779e+01
  -3.062560e+01   2.293892e+01
  -4.547915e+01  -2.357245e+01
  -4.243803e+01  -2.955792e+01
  -1.581137e+01   1.053628e+01
  -2.172749e+01  -5.722700e+00
  -4.811410e+01  -1.511713e+01
   1.973817e+01  -7.949605e+01
   5.993971e+01  -1.099698e+02
   1.128094e+02  -2.747319e+01
   1.038489e+02   4.596810e+01
   8.523252e+00   8.571057e+01
  -4.960683e+01   4.649520e+01
  -3.080047e+01  -4.178986e+00
   4.130330e+01  -2.615663e+01
   8.131782e+01  -9.194116e+00
   4.850971e+01   8.478141e+01
  -2.445279e+01   7.692579e+01
  -8.888992e+01   2.856133e+01
  -6.149583e+01  -3.418623e+01
  -4.188100e+01  -3.242258e+01
   4.517316e+01  -5.100148e+00
   2.818202e+01   1.022551e+01
  -2.879458e+01   1.357623e+01
  -6.412193e+01  -2.428770e+01
  -3.096165e+01  -4.100498e+01
   5.264921e+01  -8.092508e+01
   8.651636e+01  -6.876946e+01
   9.665595e+01   4.649599e+01
  -3.709337e+00   1.113304e+02
  -3.216961e+01   8.568010e+01
  -5.022521e+01  -2.725181e+01
  -1.616896e+01  -4.893025e+01
   1.352415e+01  -4.444810e+01
   4.853973e+01  -2.909084e+00
   3.500404e+01  -1.728900e+00
   1.801130e+01  -2.083797e+00
   3.254704e+01  -3.254610e+01
   2.189245e+01  -1.068613e+01
   4.350232e+01   3.071652e+01
   2.687350e+01   6.524486e+01
   1.626329e+00   1.302650e+01
  -1.023706e+02  -1.411992e+01
  -6.316855e+01  -2.541462e+01
  -2.213895e+01  -1.441227e+01
   7.272955e+01  -2.862725e+01
   5.072010e+01   1.903669e+01
   2.463115e+01   5.160357e+00
  -3.229566e+01   1.656132e+01
   1.575126e+00   7.216888e+00
   7.905193e+00   6.516688e+00
  -1.886404e+01  -2.689096e+01
  -2.153343e+01   2.239965e+01
  -4.177615e+01  -6.491346e+00
  -1.124262e+01  -6.056285e+01
   8.154981e+01  -7.110116e+01
   1.052449e+02  -4.166255e+01
   7.846105e+01  -1.564484e+01
   2.038492e+01   6.884611e+01
  -4.646822e+01   9.751143e+01
  -4.886852e+01   5.297585e+01
  -4.760079e+01   1.821947e+00
  -4.361422e+01  -3.167741e+01
  -3.589500e+01   9.918710e+00
  -2.165958e+01  -1.625446e+01
   5.342905e+00  -1.024689e+01
   1.237994e+00  -5.545492e+01
   5.135058e+00  -2.777713e+01
   3.444363e+01   2.701999e+01
   4.306686e+01   6.975288e+01
   1.403403e+01   8.218960e+01
  -3.989548e+01   2.656785e+01
  -3.925339e+01  -2.498611e+01
  -4.102753e+01  -3.003294e+01
   6.441327e+01  -3.144694e+01
   6.118432e+01  -3.034612e+01
   4.311056e+01   3.137259e+01
  -6.821494e+00   2.998846e+01
  -8.746972e+00   3.270003e+01
   2.201723e+00  -1.006694e+00
   5.234948e+01   2.497499e+00
   2.880812e+01   4.015921e+01
  -2.957933e+01   5.895960e+01
  -8.905622e+01   4.125291e+01
  -4.677928e+01   7.057117e+00
   1.799504e+01  -4.043175e+01
   1.246519e+01  -4.767090e+01
   4.542027e+01  -5.107999e+00
  -9.180992e+00   2.645898e+01
  -7.305148e+00   5.308068e+01
  -8.742760e+00  -6.290839e+00
  -5.948156e+00  -2.576852e+01
  -2.898898e+00  -2.182565e+01
   4.693337e+00   1.233130e+00
   4.910829e+01   3.615269e+01
   2.223116e+00   1.438627e+01
  -2.768426e+01   1.117102e+01
   1.791548e+01   3.363653e+00
   1.347538e+01   2.999752e+01
  -1.018591e+01   3.503253e+01
  -6.602323e+00   3.098088e+00
  -2.958571e+01   3.554248e+00
  -2.444492e+00  -3.493167e+01
   2.894286e+01  -2.382927e+01
   4.052211e+01   7.842155e+00
  -3.965661e-01   5.237943e+01
  -3.607837e+01   2.236209e+01
  -5.474408e+01   2.090782e+01
  -4.286957e+00  -1.036132e+01
  -2.521865e+01  -8.559729e+00
   5.461399e+01   1.693856e+01
   2.731566e+01  -1.802907e+01
  -7.850525e+00   3.071827e+01
  -3.946188e+00  -1.813490e+01
   2.996261e+01  -1.641598e+01
   3.992324e+01  -4.604574e+01
