
 $NMID
 id='ANONYMOUS ', fmtdat='(2E16.6)'
 volume=1.0
 tramp=1.0
 $END
  -3.200455e+03   8.363768e+02
  -2.464435e+03  -1.558243e+03
  -1.807982e+02  -2.231066e+03
   1.645196e+03  -1.375582e+03
   1.311933e+03   2.038307e+02
  -6.195974e+01   4.766722e+02
  -4.878584e+02   2.117514e+01
  -1.532142e+02  -7.358825e+02
   5.212853e+02  -7.204945e+02
   7.300354e+02  -4.098985e+01
   5.492030e+02   5.232530e+02
   3.515210e+01   7.220240e+02
  -3.457483e+02   3.643999e+02
  -2.454273e+02  -4.278305e+02
   1.103874e+02  -6.030270e+02
   5.008231e+02  -1.311565e+02
   3.896679e+02   5.132553e+02
  -2.163808e+02   6.867254e+02
  -4.836016e+02   2.546639e+02
  -4.800296e+02  -1.629631e+02
  -9.409368e+01  -4.224575e+02
   1.176176e+02  -2.872908e+02
   8.479060e+01  -1.429610e+02
  -1.274412e+02  -4.607508e+01
  -2.292586e+02  -2.755085e+02
  -5.894881e+01  -3.639727e+02
   5.623305e+02  -2.511023e+02
   6.183990e+02   7.202486e+01
   3.035061e+02   3.862141e+02
  -2.174651e+02   2.237357e+02
  -5.069215e+02   1.095588e+01
  -2.511368e+02  -3.674383e+02
   2.017527e+02  -3.911857e+02
   4.717233e+02  -2.177378e+02
   3.294623e+02   1.463217e+02
   1.719992e+02   3.010933e+02
   4.796401e+00   2.809941e+02
  -1.015907e+01  -1.249234e+02
   3.409621e+01  -2.979606e+02
   2.121852e+02  -3.391879e+01
   9.897425e+01   4.672506e+02
  -2.454499e+02   4.414548e+02
  -3.420094e+02   4.574500e+01
  -2.131683e+02  -3.900591e+02
   1.181988e+02  -2.223615e+02
   2.177260e+02   2.659583e+02
  -8.851632e+01   4.846592e+02
  -4.170708e+02   1.266337e+02
  -5.273637e+02  -3.714826e+02
  -1.892740e+02  -5.092124e+02
   3.228636e+02  -3.226091e+02
   5.741384e+02  -3.275114e+01
   4.076271e+02   2.669673e+02
  -8.064925e+01   2.555620e+02
  -3.496655e+02   1.497676e+02
  -2.211915e+02  -5.414067e+01
  -1.215276e+01  -6.864990e+01
   1.055924e+02   6.420360e+01
  -6.996711e+01   1.177995e+02
  -2.429542e+02  -4.327702e+01
  -1.477044e+02  -1.815082e+02
   1.103516e+02  -2.544565e+02
   3.401162e+02  -1.243754e+02
   2.337809e+02   5.954281e+01
   4.565603e+00   2.761924e+02
  -3.039914e+02   3.528738e+02
  -3.760394e+02   1.610337e+02
  -2.555419e+02  -1.686478e+02
  -6.731219e+01  -3.398246e+02
   1.946455e+01  -3.653129e+02
   7.270606e+01  -1.632626e+02
   2.332149e+01  -9.590524e+01
   9.836281e+01  -1.013989e+02
   1.931956e+02  -8.326947e+01
   2.367663e+02   8.342626e+01
   1.059933e+02   2.598278e+02
  -3.627727e+01   1.902740e+02
  -2.122048e+02  -6.763750e+00
  -1.770127e+02  -1.981855e+02
   2.156132e+01  -2.639895e+02
   2.352707e+02  -8.877242e+01
   3.447489e+02   1.471893e+02
   2.121767e+02   2.748990e+02
  -5.218739e+01   2.433374e+02
  -1.953884e+02   1.574250e+02
  -1.903318e+02   1.523340e+01
  -1.247118e+02   9.129810e+01
  -2.536556e+02   7.037533e+01
  -3.577257e+02  -8.560158e+01
  -3.385972e+02  -2.776852e+02
   2.482191e+01  -3.783444e+02
   3.374341e+02  -4.015038e+02
   4.463785e+02  -2.116058e+02
   2.893892e+02   7.097166e+01
   6.156297e+01   2.384116e+02
  -6.966567e+01   2.294084e+02
  -2.022732e+01   5.150702e+01
   1.073495e+02  -7.819299e+01
   1.126770e+02   3.921894e+01
   3.998856e+01   1.433280e+02
  -9.105544e+01   1.492525e+02
  -1.262751e+02  -9.433369e+00
  -9.527524e+00  -8.969956e+01
   1.483470e+02  -3.980071e+01
   1.740061e+02   2.390875e+02
  -3.917192e+01   3.483768e+02
  -2.342187e+02   1.942979e+02
  -3.664935e+02  -5.881459e+01
  -2.826288e+02  -2.301206e+02
  -9.436055e+01  -2.876645e+02
   1.016037e+02  -1.451405e+02
   1.430238e+02  -2.918721e+01
   5.198987e+01   2.094019e+01
  -4.671769e+00  -2.949090e+01
  -1.530157e+01  -8.429156e+01
   1.492345e+02  -7.448135e+01
   1.493897e+02   8.095572e+00
   5.322158e+01   2.325823e+01
  -8.461602e+01  -4.448595e+01
  -5.515800e+01  -6.270971e+01
   1.516958e+02  -5.070559e+01
   2.806239e+02   9.553811e+00
   2.768935e+02   1.551344e+02
   2.630487e+01   2.769887e+02
  -1.842206e+02   2.377552e+02
  -2.843470e+02   8.236379e+01
  -1.513644e+02  -6.409908e+01
   4.503263e+00  -1.128300e+02
   6.112520e+01  -4.313003e+01
  -4.588516e+01   1.080865e+02
  -1.722156e+02   7.096383e+01
  -1.915174e+02  -8.507475e+01
  -6.484670e+01  -1.702730e+02
   1.028149e+02  -1.407192e+02
   1.067416e+02  -8.142867e+00
   5.166192e+01   8.936773e+00
  -3.991312e+01  -5.258344e+01
  -4.127996e+01  -1.059270e+02
   8.969971e+01  -9.268170e+01
   1.704906e+02  -1.219986e+01
   1.778203e+02   1.418319e+02
   3.700575e+01   2.159605e+02
  -1.610265e+02   1.384505e+02
  -2.070048e+02   4.364866e+01
  -4.397310e+01  -1.353870e+02
   3.633477e+01  -8.434620e+01
   4.886047e+01  -1.483493e+01
  -7.135786e+00   4.295995e+01
  -3.354110e+01  -3.148920e+01
   1.479490e+01  -3.674363e+01
   8.195048e+01  -3.395162e+01
   1.031147e+02   7.534086e+01
  -3.058420e+00   1.711789e+02
  -1.451553e+02   1.473876e+02
  -2.415548e+02  -2.421530e+00
  -2.076119e+02  -9.886585e+01
  -2.975364e+01  -2.336894e+02
   1.071040e+02  -1.642564e+02
   1.176075e+02  -6.330216e+01
   9.374796e+01   5.959464e+01
   5.593082e+01   4.408617e+01
   5.812697e+01  -2.534179e+01
   9.268056e+01  -3.730630e+01
   2.380873e+01   5.862882e+01
  -6.282996e+01   8.048130e+01
  -1.419317e+02   7.067217e+01
  -9.303087e+01  -4.454886e+01
   7.491746e+00  -1.180696e+02
   1.769238e+02  -9.421521e+01
   2.026854e+02   8.246834e+01
   1.185419e+02   1.977106e+02
  -1.477476e+02   2.067178e+02
  -2.552411e+02   1.193061e+02
  -2.269103e+02  -5.752532e+01
  -1.008104e+02  -1.556638e+02
   1.790679e+01  -1.165786e+02
   9.627714e+01  -8.402558e+01
   7.320211e+01  -8.824094e+01
   6.295152e+01  -7.674767e+01
   1.004733e+02  -9.907262e+01
   1.228942e+02   2.342586e+01
   1.535849e+02   1.648233e+02
   5.088727e+01   2.582900e+02
  -8.781614e+01   1.468523e+02
  -1.426667e+02   4.265609e+01
  -1.418537e+02  -1.329692e+02
  -3.717612e+00  -1.427673e+02
   9.447114e+01  -5.860320e+01
   4.918682e+01   5.496235e+00
  -1.751557e+01   6.156656e+01
  -5.187084e+01   1.907080e+01
   1.387423e+01   2.559913e+01
   1.315941e+02   3.159839e+01
   5.520460e+01   2.022507e+01
  -6.131690e+01   1.482220e+01
  -1.195991e+02   1.669611e+01
  -1.466952e+02  -3.821837e+01
  -4.530072e+00  -1.068670e+02
   1.359080e+02  -7.452462e+01
   1.375658e+02  -2.039009e+01
   3.134746e+01   6.981162e+01
  -7.741500e+01   2.579685e+01
  -6.486199e+01  -1.716774e+01
  -3.728548e+01  -7.355901e+01
   4.763510e+01  -6.147591e+01
   2.168395e+01   1.177530e+01
   5.040473e+01   3.138815e+01
   5.759982e+01   5.002312e+01
   6.032975e+01  -5.463230e+00
   5.148613e+01   7.335947e+00
   6.575750e+01   5.792483e+01
  -3.599103e+01   1.690675e+02
  -1.319685e+02   1.404949e+02
  -1.664425e+02   4.035429e+01
  -1.113492e+02  -1.017762e+02
  -3.461651e+01  -1.172564e+02
   7.015663e+01  -5.379347e+01
   6.949225e+01   3.907887e+01
  -6.790011e+01   1.194568e+01
  -1.134649e+02  -5.250065e+01
  -6.550788e+01  -8.912064e+01
   9.801779e+01  -1.069334e+02
   1.663041e+02  -6.933343e+01
   1.637518e+02   2.600108e+01
   2.595234e+01   1.048373e+02
  -7.399314e+01   1.064997e+02
  -6.794264e+01  -1.965183e+01
   4.105494e+01  -2.296220e+01
   9.571695e+01   1.178599e+01
   3.218999e+01   1.095052e+02
  -5.562000e+01   1.872677e+02
  -1.449532e+02   5.970814e+01
  -1.630907e+02  -8.898885e+01
  -1.854706e+01  -2.137512e+02
   9.824074e+01  -1.237321e+02
   9.544292e+01  -9.693644e+00
   7.273211e+01   1.281380e+02
  -4.877267e+00   1.153452e+02
  -5.073033e+01   1.534470e+01
  -3.484003e+01  -7.574225e+00
  -2.072069e+01  -1.014021e+00
   1.050191e+01   3.372955e+01
  -3.929648e+01  -2.969239e+00
  -3.098882e+01  -8.447252e+01
  -5.192396e+01  -5.124899e+01
   4.698837e+01  -2.900822e+01
   1.210320e+02  -7.281091e-01
   1.206283e+02   8.099864e+01
   4.442917e+01   5.685496e+01
  -8.803035e+01   5.473221e+01
  -8.688781e+01  -8.871286e+00
  -3.909124e+00  -2.097151e+00
   2.853127e+01  -2.547044e+01
   1.660653e+01  -4.590575e+00
   3.714894e+00   5.440405e+00
   1.030236e+01  -1.876467e+01
   9.253834e+01  -5.203640e+00
   1.347170e+02   7.817982e+00
   3.564373e+00   7.778980e+01
  -1.198513e+02   1.369465e+02
  -2.225325e+02   9.036763e+01
  -1.146912e+02  -6.436322e+01
  -4.058602e+01  -1.280568e+02
   7.113176e+01  -1.562542e+02
   9.888162e+01  -4.982252e+01
   8.531589e+01   5.301429e+01
   4.440554e+01   3.249081e+01
   2.985870e+01   3.985548e+01
   1.456754e+01   2.488673e+01
   4.362235e+01   5.440227e+01
  -5.125946e+00   8.062472e+01
  -5.822001e+01   3.841268e+01
  -8.008260e+01  -1.284671e+01
  -8.381221e+01  -1.316383e+02
  -4.406838e+01  -1.493464e+02
   6.129464e+01  -8.607852e+00
   1.178160e+02   9.282508e+01
   6.195350e+00   9.550028e+01
  -4.420847e+01   7.349173e+01
  -1.306924e+02   1.027166e+01
  -3.651892e+01  -6.066181e+01
   1.426457e+01  -5.927337e+01
   1.135830e+01  -5.243821e+01
  -1.042222e+01   2.219567e+01
  -5.456534e+01   1.005826e+01
  -1.585497e+01  -1.496797e+01
   5.046145e+01  -6.973324e+01
   1.052632e+02  -6.857759e+01
   6.684104e+01   6.852545e+00
  -8.499972e+00   4.646292e+01
  -4.054625e+01   3.649089e+01
  -2.868197e+01   2.816004e+01
  -2.056102e+01  -4.347633e+01
   1.911364e+01  -4.400315e+01
   4.800791e+01  -2.041754e+00
   4.754718e+01   2.405741e+01
  -2.627219e+01   4.156505e+01
  -2.995953e+01   3.383476e+00
  -4.529136e+01  -4.003252e+01
  -7.622067e+00  -2.136710e+01
  -1.447457e+01   3.703447e+01
  -1.789430e+01   2.335763e+01
  -1.046407e+01  -3.897372e+01
   1.867798e+00  -5.792041e+01
   3.270872e+01   7.849202e+00
   4.462706e+01   3.971938e+01
   1.594961e+01   6.902300e+01
  -3.548214e+01   3.016988e+01
  -6.234368e+01  -1.506832e+01
  -5.445583e+01  -4.867772e+01
   6.894578e+01  -1.882146e+01
   1.006467e+02   1.324465e+01
   4.494341e+01   4.826990e+01
  -3.175459e+01   4.700827e+01
  -7.621812e+01   8.905722e+00
  -4.090982e+01   1.825644e+01
   6.531198e+01   3.353129e+01
   2.828345e+01   1.037482e+01
  -4.644179e+01   5.303796e+01
  -8.122497e+01   3.393355e+00
