
 $NMID
 id='ANONYMOUS ', fmtdat='(2E16.6)'
 volume=1.0
 tramp=1.0
 $END
   3.338412e+03  -7.501987e+02
   2.761444e+03   1.698285e+03
   1.815716e+02   2.397819e+03
  -1.881384e+03   1.538068e+03
  -1.318023e+03  -2.097169e+02
   2.154951e+02  -6.206702e+02
   5.926284e+02   1.019687e+02
   2.585501e+02   8.683435e+02
  -5.004861e+02   8.701000e+02
  -7.658841e+02   3.168137e+00
  -5.336037e+02  -5.840996e+02
  -7.023382e+01  -8.151206e+02
   4.401816e+02  -2.611452e+02
   3.032518e+02   4.692916e+02
  -1.105480e+02   6.839050e+02
  -5.716908e+02   5.517480e+01
  -3.826987e+02  -5.172467e+02
   2.480608e+02  -6.496519e+02
   5.209175e+02  -2.071218e+02
   4.454823e+02   2.118673e+02
   1.302831e+02   4.481639e+02
  -1.226144e+02   3.137301e+02
  -9.598144e+01   1.202188e+02
   8.536849e+01   2.666522e+01
   2.700954e+02   2.119078e+02
   1.012591e+02   3.339370e+02
  -4.898913e+02   3.390542e+02
  -6.724514e+02  -1.886081e+01
  -3.425766e+02  -3.871663e+02
   2.767722e+02  -2.906558e+02
   5.665245e+02  -7.899658e+00
   3.361367e+02   3.632970e+02
  -2.260704e+02   4.280694e+02
  -4.756379e+02   1.903856e+02
  -3.925373e+02  -1.642133e+02
  -1.799409e+02  -3.871585e+02
   8.783623e+01  -2.399126e+02
   5.146209e+01   1.196517e+02
  -7.238284e+01   3.151857e+02
  -2.636877e+02   2.028128e+01
  -1.422469e+02  -5.150512e+02
   2.884997e+02  -4.885629e+02
   4.046184e+02  -6.920722e+01
   1.788569e+02   3.869514e+02
  -1.782453e+02   2.635772e+02
  -2.499126e+02  -2.316768e+02
   6.205365e+01  -5.106190e+02
   4.195458e+02  -1.460311e+02
   6.241945e+02   4.447711e+02
   1.484260e+02   5.265882e+02
  -3.360351e+02   3.327713e+02
  -5.601635e+02   3.215411e+01
  -3.613449e+02  -2.942098e+02
   1.426736e+02  -2.434929e+02
   3.741448e+02  -1.313657e+02
   2.367445e+02   5.928820e+01
  -7.551671e+00   9.081067e+01
  -1.246158e+02  -7.398208e+01
   7.344086e+01  -1.652731e+02
   2.651389e+02   1.779190e+01
   1.801378e+02   1.971507e+02
  -1.430951e+02   2.568375e+02
  -3.242334e+02   1.149830e+02
  -2.316832e+02  -5.706812e+01
   2.367916e+01  -2.790756e+02
   3.216893e+02  -3.228317e+02
   3.460117e+02  -1.734319e+02
   2.756105e+02   1.658398e+02
   1.171716e+02   3.541180e+02
  -1.497003e+01   4.177683e+02
  -7.622834e+01   1.615419e+02
  -5.998633e+01   7.355784e+01
  -7.971180e+01   9.108598e+01
  -1.556408e+02   1.148522e+02
  -2.693993e+02  -6.179731e+01
  -1.417552e+02  -2.236303e+02
   4.276962e+01  -2.167290e+02
   1.953481e+02   3.285271e+00
   1.835783e+02   1.956122e+02
  -5.050474e+01   2.637875e+02
  -2.663611e+02   7.857995e+01
  -3.167110e+02  -1.196376e+02
  -2.196707e+02  -2.763038e+02
   6.876600e+01  -3.046012e+02
   1.886572e+02  -1.426702e+02
   1.780294e+02  -4.390346e+01
   1.487879e+02  -6.317462e+01
   2.556650e+02  -6.910930e+01
   3.892065e+02   7.672215e+01
   3.701598e+02   2.888557e+02
  -1.962332e+01   3.782616e+02
  -3.459428e+02   3.516458e+02
  -4.711892e+02   2.411653e+02
  -3.573491e+02  -9.552420e+01
  -9.727347e+01  -2.338800e+02
   7.500523e+01  -2.415966e+02
   2.856597e+01  -5.522384e+01
  -9.864231e+01   7.192875e+01
  -1.410141e+02  -9.336875e+00
  -5.647527e+01  -1.221483e+02
   1.001599e+02  -1.455131e+02
   1.463791e+02   3.803941e+01
  -6.795054e+00   1.227193e+02
  -1.513505e+02   5.091168e+01
  -2.039725e+02  -2.257512e+02
   2.815832e+01  -3.105200e+02
   2.240905e+02  -1.628976e+02
   3.606471e+02   3.686640e+01
   2.858937e+02   2.251244e+02
   8.655442e+01   2.849300e+02
  -6.365083e+01   1.732773e+02
  -1.452803e+02   1.162657e+01
  -3.967370e+01  -3.536753e+01
   4.911187e+01   7.334282e+01
   2.634982e+01   8.579291e+01
  -8.684502e+01   9.628982e+01
  -1.686566e+02  -1.154482e+01
  -5.220203e+01  -5.232410e+01
   7.853794e+01   2.636218e+01
   2.428987e+01   7.771031e+01
  -1.335824e+02   3.667539e+01
  -3.184869e+02   1.398169e+01
  -2.708342e+02  -1.323187e+02
  -4.275551e+01  -2.815028e+02
   1.662263e+02  -2.366067e+02
   2.418207e+02  -1.043718e+02
   1.990646e+02   4.344169e+01
  -2.211014e+01   1.053500e+02
  -8.608618e+01   1.258967e+01
   2.435818e+01  -6.127563e+01
   1.549020e+02  -5.315975e+01
   1.646032e+02   1.079182e+02
   6.545987e+01   1.975702e+02
  -5.797956e+01   1.384600e+02
  -9.521430e+01   7.582433e+01
  -5.591989e+01  -3.593886e+01
   4.113110e+01   2.699965e+01
   1.820314e+01   8.856405e+01
  -1.221301e+02   1.058836e+02
  -1.711469e+02   1.081483e+01
  -1.834112e+02  -1.133492e+02
  -5.392483e+00  -2.160529e+02
   1.446178e+02  -1.361579e+02
   1.710553e+02  -1.438133e+01
   3.343441e+01   1.313954e+02
  -4.525172e+01   6.356689e+01
  -9.792102e+01   4.425938e+01
  -1.900438e+01   5.951612e+00
   6.675914e+00   1.364669e+01
  -3.470917e+01   9.572261e+00
  -1.104125e+02   8.171053e+00
  -6.952652e+01  -9.565387e+01
   1.121929e+01  -1.478723e+02
   1.682410e+02  -1.443934e+02
   1.820583e+02   6.797059e+00
   2.116808e+02   1.331435e+02
   4.945887e+01   2.402954e+02
  -1.121904e+02   1.699007e+02
  -1.377511e+02   4.101137e+01
  -7.872028e+01  -4.375966e+01
  -5.036357e+01  -3.506749e+01
  -5.406769e+01   2.945432e+00
  -7.666734e+01   3.867732e+01
  -3.002342e+01  -6.146240e+01
   4.156900e+01  -8.244308e+01
   1.225722e+02  -4.320325e+01
   9.532409e+01   4.932734e+01
   9.253557e-01   1.090259e+02
  -1.802039e+02   9.402051e+01
  -2.411246e+02  -7.787308e+01
  -1.156031e+02  -1.616058e+02
   1.413355e+02  -1.999590e+02
   2.583593e+02  -1.154490e+02
   2.635589e+02   7.035126e+01
   1.235105e+02   1.550905e+02
  -8.592952e+00   1.461154e+02
  -6.421454e+01   9.913402e+01
  -1.045931e+02   6.625349e+01
  -7.694123e+01   9.953692e+01
  -8.821209e+01   1.007767e+02
  -1.066767e+02  -3.258982e+01
  -1.033650e+02  -1.542164e+02
  -3.758222e+01  -2.681374e+02
   1.005696e+02  -1.859474e+02
   1.725914e+02  -4.008357e+01
   1.515873e+02   9.730734e+01
   5.477338e+01   1.447443e+02
  -8.217205e+01   7.660484e+01
  -1.024671e+00   2.044864e+01
  -1.375579e+01  -5.010790e+01
   1.593587e+01  -6.322390e+01
  -3.812484e+01   2.182083e+01
  -7.320204e+01   3.491888e+00
  -1.867166e+01  -3.184410e+01
   5.879962e+01  -1.495971e+00
   1.481200e+02  -2.101832e+01
   1.422963e+02   6.051159e+01
   6.922850e+00   1.052159e+02
  -1.368379e+02   8.213709e+01
  -1.319719e+02   4.989329e+01
  -4.801570e+01  -2.182929e+01
   7.897160e+01  -4.286541e+01
   1.099961e+02   2.026609e+00
   4.475621e+01   5.839638e+01
  -5.014673e+01   7.580946e+01
  -6.657349e+01   1.452862e+01
  -7.503402e+01  -6.405201e+01
  -3.986479e+01  -7.231223e+01
  -7.152397e+01  -2.552645e+01
  -3.418619e+01  -5.420902e+00
  -2.376810e+01  -7.238182e+01
   6.862536e+01  -1.466934e+02
   1.399683e+02  -1.268569e+02
   1.728814e+02  -1.941078e+01
   1.500980e+02   1.292143e+02
   9.194145e+00   1.067242e+02
  -1.156278e+02   5.518181e+01
  -3.609995e+01  -1.465790e+01
   5.786927e+01  -2.019116e+01
   1.579420e+02   4.597994e+01
   9.282221e+01   9.090042e+01
  -8.706802e+01   9.405549e+01
  -1.825506e+02   6.588844e+01
  -1.517648e+02  -2.917718e+00
  -6.365853e+01  -1.114567e+02
   8.080238e+01  -8.610415e+01
   6.469066e+01   2.531811e+01
  -2.672662e+01   2.638795e+01
  -1.196644e+02  -1.207536e+01
  -7.279543e+01  -1.365283e+02
   7.093073e+01  -1.933741e+02
   1.762460e+02  -3.734450e+01
   1.643965e+02   7.979135e+01
   3.162251e+01   1.852270e+02
  -8.423898e+01   1.251290e+02
  -1.102243e+02  -1.015694e+01
  -1.104517e+02  -1.124463e+02
   1.680582e+00  -9.853387e+01
   3.918208e+01   2.667332e-01
   2.266653e+01   4.991049e+01
   1.552494e+01   2.787766e+00
  -2.001524e+01  -3.500830e+01
   3.490762e+01   3.535357e+01
   3.345782e+01   7.932727e+01
   4.958035e+01   6.771022e+01
  -4.302377e+01   3.668495e+01
  -1.348433e+02  -4.722931e+01
  -9.365875e+01  -6.983954e+01
  -3.221780e+01  -7.381112e+01
   6.974887e+01  -3.700577e+00
   9.118061e+01   6.136153e+00
   2.096040e+01  -8.991836e-01
  -4.142676e+01   6.123949e+01
  -2.200778e+01  -1.252685e+01
   2.785198e+01  -2.367981e+01
  -1.136461e+01  -1.018040e+01
  -4.164449e+01  -1.176005e+01
  -9.654900e+01  -3.480893e+01
  -2.878970e+01  -7.179037e+01
   9.996324e+01  -1.066169e+02
   2.264151e+02  -7.182170e+01
   1.313951e+02   5.169811e+01
   3.946169e+01   1.611261e+02
  -4.877550e+01   1.792257e+02
  -1.330307e+02   7.663107e+01
  -7.943509e+01  -6.486904e+01
  -2.976306e+01  -3.855004e+01
   1.646466e+00  -1.051032e+01
   1.756445e+00  -1.619838e+01
  -4.632609e+01  -5.196957e+01
  -1.822770e+01  -5.784213e+01
   5.233025e+01  -6.209428e+01
   6.881843e+01   2.758462e+01
   1.005318e+02   1.247558e+02
   3.808120e+01   1.211951e+02
  -5.932367e+01   4.476630e+01
  -1.044808e+02  -5.768443e+01
  -4.967921e+01  -1.109687e+02
   4.854469e+01  -8.279359e+01
   1.314292e+02   9.235168e-01
   2.597058e+01   5.651929e+01
  -4.963998e+01   8.666853e+01
  -4.301202e+01   4.257126e+01
   4.157475e+01  -1.695962e+01
   4.676540e+01   9.226549e+00
   1.360703e+00   2.173742e+01
  -7.661683e+01   7.808249e+01
  -1.017890e+02   5.959880e+01
  -5.242596e+01  -1.709403e+01
   1.594511e+01  -7.291744e+01
   5.143036e+01  -6.561189e+01
   1.508958e+01   8.068282e+00
   2.999180e+01   5.750828e+01
  -4.413054e+01   4.047339e+01
  -6.450515e+01  -8.949429e+00
  -4.534980e+01  -3.797754e+01
  -1.677222e+01  -5.749011e+01
   5.728931e+01   2.678116e+01
   2.441707e+01   5.286425e+01
   1.171719e+01   1.416403e+01
  -1.179543e+00  -2.080109e+01
   1.030380e+00  -1.609219e+01
   6.369194e+00   2.425329e+01
   2.285942e+01   6.052997e+01
  -2.342459e+01  -1.449415e+01
  -4.668638e+01  -3.992165e+01
  -6.254625e+00  -6.351729e+01
   3.689073e+01  -3.219437e+01
   5.032691e+01   4.365993e+01
   3.075779e+01   3.581251e+01
  -3.953899e+01   5.033305e+01
  -8.241553e+01   1.996530e+01
  -4.939816e+01  -5.702761e+01
   4.057849e+01  -4.776870e+01
   7.117401e+01  -1.404691e+01
   1.101159e+01  -8.750470e+00
  -5.024700e+01   3.329725e+00
  -4.543062e+01   8.798608e-01
   5.751819e+01  -3.564514e+01
   7.166197e+01   5.905546e-01
