
 $NMID
 id='ANONYMOUS ', fmtdat='(2E16.6)'
 volume=1.0
 tramp=1.0
 $END
  -2.556983e+03   4.094116e+02
  -1.608356e+03  -8.602030e+02
  -1.099323e+02  -1.919631e+03
   1.057121e+03  -8.514156e+02
   7.864931e+02  -1.506453e+02
  -1.794765e+02   3.266624e+02
  -5.341611e+02  -6.884210e+01
  -2.735750e+01  -5.405648e+02
   2.290002e+02  -6.060244e+02
   4.718309e+02  -6.092680e+01
   3.806608e+02   3.751586e+02
  -4.648113e+01   4.718123e+02
  -3.162158e+02   1.935545e+02
  -1.545847e+02  -3.659244e+02
   7.303429e+01  -4.343740e+02
   3.619410e+02  -1.094085e+02
   2.898219e+02   3.694124e+02
  -1.319398e+02   3.776354e+02
  -3.658373e+02   2.153827e+02
  -2.919935e+02  -9.804853e+01
  -1.071937e+02  -2.950646e+02
   1.214397e+02  -1.948107e+02
   6.556806e+01  -8.052601e+01
  -7.907147e+01  -2.705524e+01
  -2.185097e+02  -1.527914e+02
  -5.732277e+01  -3.236814e+02
   2.280826e+02  -2.096243e+02
   4.973920e+02  -6.546038e+01
   3.133610e+02   2.229903e+02
  -3.368787e+02   2.361631e+02
  -4.595748e+02   8.723145e+01
  -2.190609e+02  -2.783477e+02
   9.929685e+01  -3.583544e+02
   3.179888e+02  -2.272329e+02
   2.458701e+02   1.749999e+02
   7.275537e+01   2.416293e+02
   1.332452e+01   1.753309e+02
  -8.697766e+01  -3.692105e+01
   9.793541e+01  -2.805923e+02
   3.114943e+02   1.336161e+01
   1.546912e+02   3.428413e+02
  -2.292512e+02   3.671149e+02
  -3.374548e+02   3.812313e+01
  -1.052755e+02  -3.216993e+02
   8.912717e+01  -1.540543e+02
   2.018971e+02   2.020505e+02
  -2.999496e+01   3.367200e+02
  -3.584663e+02   1.136608e+02
  -3.991563e+02  -2.524615e+02
  -1.858079e+02  -2.874887e+02
   1.956257e+02  -1.782027e+02
   3.643121e+02  -3.117931e+01
   2.734107e+02   2.066321e+02
  -1.007948e+02   1.889849e+02
  -2.286953e+02   6.737111e+01
  -1.920780e+02  -8.471496e+00
   1.650259e+01  -4.279410e+01
   8.324114e+01   6.839462e+01
  -1.149513e+02   1.426960e+02
  -1.577886e+02   2.918756e+01
  -1.197704e+02  -1.269960e+02
   8.579130e+01  -1.700003e+02
   2.352371e+02  -1.115514e+02
   1.311918e+02   3.416115e+01
  -2.992035e+01   2.530288e+02
  -2.189696e+02   3.001923e+02
  -2.649937e+02   1.428070e+02
  -1.769533e+02  -8.083449e+01
  -4.519786e+01  -2.855785e+02
   3.773201e+01  -2.747996e+02
   3.727717e+00  -1.514804e+02
   7.106729e+00  -5.245036e+01
   6.831026e+01  -4.574127e+01
   1.500173e+02  -8.258829e+01
   1.842696e+02   1.542998e+01
   1.161208e+02   1.586809e+02
  -9.847757e+01   1.671778e+02
  -1.737630e+02  -1.065482e+01
  -1.560686e+02  -1.401928e+02
   6.985894e+00  -1.777755e+02
   1.701111e+02  -7.208952e+01
   2.403503e+02   1.159831e+02
   1.425263e+02   2.243890e+02
  -2.750798e+01   2.039788e+02
  -1.397849e+02   9.657233e+01
  -8.951868e+01   3.905326e+01
  -1.145370e+02   5.624043e+01
  -1.516806e+02   7.069618e+01
  -2.794029e+02  -8.029141e+01
  -2.272873e+02  -1.624089e+02
   3.805417e+00  -3.112713e+02
   2.249855e+02  -3.155893e+02
   2.963876e+02  -1.581912e+02
   2.195431e+02   2.250455e+01
   2.758494e+01   1.528245e+02
  -7.446800e+01   1.730939e+02
   3.220427e+00   1.560949e+01
   5.809350e+01  -5.919558e+01
   8.433752e+01   3.136757e+01
   4.742161e+01   1.239073e+02
  -9.006931e+01   1.231428e+02
  -7.849739e+01  -3.443891e+01
  -3.679727e+01  -1.009279e+02
   1.079757e+02  -5.706408e+01
   1.286454e+02   1.367232e+02
   1.636614e+01   2.509882e+02
  -1.758902e+02   1.833318e+02
  -2.521739e+02  -5.893084e+01
  -2.117576e+02  -1.358792e+02
  -9.288895e+01  -1.442034e+02
   6.477662e+01  -1.244654e+02
   1.048931e+02  -5.685102e+01
   3.502914e+01  -1.362507e+01
  -3.780961e+01  -3.050662e+01
  -1.693980e+00  -8.184557e+01
   9.195946e+01  -2.679670e+01
   1.241584e+02  -1.663420e+01
   4.271569e+00   4.393151e+01
  -6.102959e+01  -3.128295e+00
  -3.823748e+01  -4.096600e+01
   1.063092e+02  -6.189948e+01
   2.316136e+02  -2.826690e+01
   1.880457e+02   4.021571e+01
   4.739857e+01   1.658298e+02
  -1.505406e+02   1.749782e+02
  -1.862655e+02   1.115235e+02
  -1.219637e+02  -3.398749e+01
   2.146068e+01  -6.862095e+01
   2.804535e+01  -2.769220e+00
  -3.491278e+01   8.067269e+01
  -1.472578e+02   9.283523e+01
  -1.539086e+02  -9.569148e+01
  -6.444739e+01  -1.008644e+02
   3.912643e+01  -1.072098e+02
   9.786778e+01  -4.510059e+00
   3.953824e+01   3.875986e+01
   1.101358e+01   2.024377e+01
  -2.820280e+01  -4.267824e+01
   5.366995e+01  -1.179213e+02
   1.368364e+02  -2.623083e+01
   1.278354e+02   4.957533e+01
   2.645007e+01   1.487502e+02
  -9.931054e+01   1.242191e+02
  -1.167591e+02  -1.438300e+00
  -6.304528e+01  -7.631210e+01
   2.955445e+01  -4.589079e+01
   4.123241e+01  -1.241608e+01
   1.272571e+01   1.962754e+01
  -9.127657e+00   2.258438e+01
   3.984458e+01  -2.112362e+01
   3.978214e+01   2.472562e+01
   1.138758e+02   5.334287e+01
   1.673753e+01   1.271020e+02
  -9.382768e+01   1.168539e+02
  -1.938473e+02  -1.405281e+01
  -1.493068e+02  -8.521087e+01
  -1.090252e+01  -1.249275e+02
   9.968198e+01  -9.893300e+01
   1.073764e+02  -3.091601e+01
   3.509013e+01   8.749887e+00
   2.212730e+01   5.402043e+00
   4.095761e+01  -1.671258e+01
   3.856699e+01   1.801924e+01
   6.394535e+01   2.791539e+01
  -2.102223e+01   7.510098e+01
  -7.694344e+01   4.716423e+01
  -5.293656e+01  -2.021215e+01
  -9.349973e+00  -8.570006e+01
   8.801427e+01  -6.524059e+01
   1.760808e+02   7.368597e+01
   1.071521e+02   1.419672e+02
  -6.825357e+01   1.591091e+02
  -1.835498e+02   9.000004e+01
  -1.952008e+02  -5.411400e+01
  -1.077796e+02  -1.221484e+02
   2.859590e+01  -1.006395e+02
   6.855039e+01  -6.485798e+01
   3.289179e+01  -2.249801e+01
   1.303845e+01  -7.014658e+01
   6.768804e+01  -5.789025e+01
   9.224785e+01  -1.170674e+01
   8.772391e+01   1.097622e+02
   3.166452e+01   1.617467e+02
  -1.080897e+02   1.112991e+02
  -1.364714e+02   2.364058e+01
  -5.259262e+01  -8.580314e+01
  -4.735742e+01  -1.257644e+02
   7.768482e+01  -5.798529e+01
   6.818822e+01  -5.740680e+00
  -5.000454e+00   4.674090e+00
   3.038457e+00   3.971766e+01
   2.061228e+01   2.264375e+01
   7.296720e+01  -2.098520e+01
   3.387902e+01   2.160545e+01
  -2.173787e+01   2.056946e+01
  -1.295513e+02   2.636478e+01
  -1.146975e+02  -1.082517e+01
  -1.342018e+01  -7.807155e+01
   9.178717e+01  -4.572309e+01
   1.035072e+02   1.640946e+01
   3.923341e+01   1.230513e+01
  -2.802134e+01   5.239361e+01
  -6.616756e+01  -4.024826e+00
   4.638384e-01  -4.014720e+01
   2.215532e+01  -4.264596e+01
   5.474051e+01  -2.190525e+01
   2.124831e+01   3.544183e+01
   1.728124e+01   3.659749e+01
   3.941921e+01   3.656847e+00
   3.493288e+01   1.210047e+01
   3.433265e+01   2.826312e+01
  -1.543767e+01   9.279023e+01
  -6.512006e+01   1.078893e+02
  -1.354672e+02   2.132827e+01
  -9.158797e+01  -7.295221e+01
   1.158007e+00  -8.895134e+01
   3.560731e+01  -6.456216e+01
   1.877581e+01  -2.390458e+01
  -4.848427e+01   3.146426e+01
  -8.080907e+01  -3.586913e+01
  -3.913850e+01  -5.183932e+01
   6.733415e+01  -8.486090e+01
   1.456941e+02  -2.296723e+01
   1.224648e+02   3.809450e+01
   4.781435e+01   6.494113e+01
  -5.481952e+01   1.983964e+01
  -1.545541e+01  -1.670093e+01
   1.952740e+01  -2.153641e+01
   7.464926e+01   1.560812e+01
   1.936409e+01   4.520123e+01
  -5.965501e+01   9.072635e+01
  -9.361131e+01   3.816472e+01
  -1.179628e+02  -2.929208e+01
  -1.880970e+01  -1.360045e+02
   5.861203e+01  -8.883891e+01
   1.021220e+02   4.184535e+01
   2.286449e+01   9.328950e+01
  -1.072957e+01   7.048278e+01
  -5.162772e+01  -1.197828e+01
  -4.424884e+01   3.611605e+00
  -2.623602e+01   1.174527e+01
   1.509849e+01   2.090037e+01
  -1.742611e+01  -3.618828e+00
  -5.968585e+01  -4.345689e+01
  -6.240716e+01  -6.953087e+01
   3.800215e+01  -3.787691e+01
   1.380771e+02   2.055410e+01
   1.032105e+02   5.627643e+01
   3.510158e+01   3.595677e+01
  -7.848897e+01   5.352901e+01
  -7.507270e+01   3.949822e+00
  -1.684445e+01  -2.286782e+01
   1.674262e+01  -2.546989e+01
  -9.456742e+00   1.991371e+01
   7.106597e+00  -7.923944e+00
   5.159523e+00   2.557542e+01
   7.479653e+01  -1.176743e+01
   6.114493e+01  -2.384827e+01
   1.490430e+01   1.153085e+02
  -6.402870e+01   9.796887e+01
  -1.170428e+02   9.583185e+01
  -1.075327e+02  -5.697438e+01
  -9.510486e+00  -1.079733e+02
   5.280563e+01  -1.237751e+02
   6.502332e+01  -6.337425e+01
   1.595321e+01  -2.734245e+00
  -2.012140e+01   1.340255e+01
   2.572191e+01   1.502622e+01
  -1.063109e+01   8.803109e+00
   6.128023e+00   9.666003e+00
   1.970517e+01   9.193306e+01
  -1.771207e+01   5.681800e+01
  -6.109842e+01  -5.625252e-01
  -5.959413e+01  -5.868113e+01
  -2.938621e+01  -7.569807e+01
   5.583279e+01  -4.097127e+01
   7.095705e+01   2.728567e+01
   3.220067e+01   4.444813e+01
  -5.187405e+01   7.678829e+01
  -7.041376e+01   2.353718e+01
  -1.560679e+01  -4.666676e+01
   1.670076e+00  -5.809756e+01
   1.760781e+01  -1.253895e+01
  -2.099629e+01   6.457215e+00
  -6.988184e+01   2.324887e+01
   1.609528e+00  -1.798372e+01
   3.161493e+01  -4.601437e+01
   6.795011e+01  -8.186649e+01
   4.250685e+01  -1.123288e+01
   7.605715e+00   5.819062e+01
  -1.036187e+01   5.200473e+01
  -2.420752e+01   2.243727e+01
   6.564440e+00  -4.491898e+01
   6.342910e-01  -1.730316e+01
   1.768650e+01   1.066051e+01
   6.499152e+00   2.271814e+01
   2.955950e+01   2.736941e+00
  -1.325027e+01  -1.370398e+01
  -3.192379e+01  -7.427327e+00
  -1.887332e+01   1.979029e+01
   2.568225e+01   1.540259e+01
   8.327736e+00   1.250181e+01
  -6.761489e+00  -2.106392e+01
  -3.182539e+00  -4.046622e+01
   3.911835e+01  -1.386979e+01
   1.303222e+01   4.931079e+01
  -2.377014e+01   3.299839e+01
  -9.813734e+00  -9.279829e-01
  -7.382627e+01   1.264919e+00
  -6.261762e+00  -4.210139e+01
   4.095879e+01  -3.277500e+01
   3.413229e+01   7.621303e+00
   5.387148e+01   5.366573e+01
  -1.673487e+00   4.691569e+01
  -3.028919e+01   2.401438e+01
  -2.109044e+01   5.445341e+01
  -1.347765e+00  -2.676877e+01
   2.560174e+01   9.000502e+00
  -1.837208e+01   4.405394e+00
  -7.590562e+01   3.173714e+01
