
 $NMID
 id='ANONYMOUS ', fmtdat='(2E16.6)'
 volume=1.0
 tramp=1.0
 $END
  -1.944531e+03  -8.028506e+01
  -1.299768e+03  -4.191143e+02
  -2.412117e+02  -9.724322e+02
   3.797301e+02  -7.896235e+02
   5.406370e+02  -2.318800e+02
   1.820373e+02  -6.121578e+00
  -2.636855e+02   6.551982e+01
  -6.077986e+01  -2.129180e+02
   8.100828e+01  -4.367289e+02
   2.680260e+02  -2.058984e+02
   2.408594e+02   2.026667e+02
   9.939983e+01   3.585319e+02
  -1.393882e+02   1.567313e+02
  -9.874204e+01  -1.441396e+02
   7.055145e+01  -3.362743e+02
   2.235742e+02  -7.585546e+01
   2.438597e+02   1.315895e+02
  -1.686748e+01   2.971545e+02
  -1.430222e+02   2.399941e+02
  -2.497391e+02  -3.780318e+01
  -1.359133e+02  -1.955899e+02
   4.822919e+01  -1.416249e+02
  -4.134895e+01  -8.430586e+01
  -8.470606e+01  -7.602455e+01
  -2.274781e+02  -1.945352e+02
   6.246508e+01  -2.750814e+02
   2.478322e+02  -4.002490e+01
   3.359151e+02   1.596669e+00
   1.521780e+02   1.290886e+02
  -2.643210e+02   1.085412e+02
  -2.373905e+02  -1.769387e+01
  -1.199237e+02  -1.650533e+02
   1.043820e+02  -2.288176e+02
   2.697868e+02  -1.317474e+02
   1.482014e+02   1.287861e+02
   1.001379e+02   1.387673e+02
   2.173458e+00   1.258964e+02
   1.707361e+00  -8.461657e+00
   3.883209e+01  -5.060984e+01
   4.273593e+01   9.594175e+01
   3.077810e+01   2.423858e+02
  -1.228309e+02   1.336447e+02
  -1.608006e+02  -1.983778e+01
  -5.109751e+01  -1.734703e+02
   1.040638e+02  -8.073192e+01
   9.023225e+01   1.281794e+02
  -6.874295e+01   1.892796e+02
  -2.335624e+02   6.745979e+01
  -2.017406e+02  -1.817109e+02
  -1.952193e+02  -1.564522e+02
   1.732887e+02  -1.202438e+02
   1.957592e+02  -2.228354e+01
   1.939658e+02   7.050685e+01
  -4.432781e+01   1.005611e+02
  -1.403358e+02   1.136705e+02
  -1.140633e+02  -1.166811e+01
  -4.650160e+01   3.960978e+00
   6.776023e+00   2.029961e+01
  -2.234737e+01   3.334005e+01
  -1.160935e+02  -2.512893e+01
  -6.398497e+01  -7.167756e+01
   3.248575e+01  -1.045043e+02
   1.285098e+02  -8.986632e+01
   1.547002e+02   3.445789e+01
   4.504206e+00   1.707299e+02
  -2.048350e+02   2.781560e+02
  -1.358529e+02   8.098003e+01
  -1.636404e+02  -1.027917e+02
   3.946638e+00  -2.215759e+02
   1.534630e+01  -1.622237e+02
   5.685702e+00  -1.431352e+02
   1.354149e+00  -2.117586e+01
   6.305987e+01  -8.815610e+01
   1.028436e+02  -5.324642e+01
   1.332545e+02   4.090218e+01
   4.522548e+01   1.086893e+02
  -3.571287e+01   1.042533e+02
  -9.967592e+01   3.585721e+00
  -1.195542e+02  -1.113567e+02
   3.718394e+01  -1.522737e+02
   1.412902e+02  -4.804860e+01
   1.858809e+02   7.238829e+01
   1.010120e+02   1.127493e+02
   2.344255e+01   1.038909e+02
  -5.089607e+01   7.512590e+01
  -7.521860e+01   4.466948e+01
  -9.232344e+01   6.058448e+01
  -1.251486e+02   4.398768e+01
  -2.106234e+02  -5.296867e+01
  -1.758720e+02  -1.195471e+02
  -1.870550e+01  -2.518407e+02
   2.255474e+02  -2.598944e+02
   2.300235e+02  -1.163264e+02
   1.716041e+02   1.969792e+01
   1.249059e+01   1.005923e+02
  -2.995777e+01   9.958890e+01
   6.168613e+00   3.058323e+01
   6.208849e+01  -6.212860e+00
   6.052643e+01   4.750070e+01
   5.036598e+00   8.465044e+01
  -5.509634e+01   5.368644e+01
  -3.067388e+01  -3.306301e+01
  -1.666988e+01  -2.673970e+01
   9.998227e+01  -2.221823e+01
   8.989796e+01   1.265013e+02
  -6.020986e+00   2.001625e+02
  -1.223145e+02   1.276526e+02
  -2.109085e+02  -4.008989e+01
  -1.840279e+02  -1.039004e+02
  -3.551306e+01  -1.014525e+02
   3.037174e+01  -1.081915e+02
   5.794104e+01  -5.287304e+01
   4.231298e+00  -3.447464e+00
  -1.814043e+01  -4.458392e+01
   1.407274e+01  -8.397096e+01
   8.294991e+01  -2.710900e+01
   4.781749e+01   1.229940e+01
  -1.685498e+00   1.304757e+01
  -7.410294e+01   9.667937e+00
  -4.307668e+01  -6.737199e+01
   7.674606e+01  -3.352381e+01
   1.887041e+02   2.409308e+01
   1.881631e+02   5.136116e+01
   2.746077e+01   1.314045e+02
  -1.014039e+02   1.137756e+02
  -1.191367e+02   8.944472e+01
  -5.540015e+01  -2.510136e+01
   1.063886e+01  -4.934939e+01
   8.060152e+00   9.757096e+00
  -3.321009e+01   7.071845e+01
  -1.061955e+02   3.896587e+01
  -1.133099e+02  -5.829676e+01
  -2.024840e+01  -1.034266e+02
   1.205462e+01  -8.233843e+01
   4.737572e+01  -2.033114e+01
   1.222621e+01   2.819901e+01
  -3.086109e+01  -2.007548e+01
  -4.131269e+01  -6.174278e+01
   5.681790e+01  -8.052761e+01
   1.079627e+02  -1.554486e+01
   1.298333e+02   6.937716e+01
   2.004998e+01   1.142387e+02
  -6.574898e+01   7.148545e+01
  -6.234216e+01   1.451748e+01
  -4.416326e+01  -4.658501e+01
   4.458310e+01  -5.571188e+01
   1.463588e+01   2.214556e+00
   2.170687e+01   2.516223e+00
  -3.734131e+01   7.114279e+00
   3.088863e+00  -2.520359e+01
   5.067443e+01   1.563707e+01
   8.371771e+01   7.017027e+01
   2.360442e+01   1.128904e+02
  -9.834570e+01   7.449522e+01
  -1.164002e+02   1.886225e+01
  -9.021436e+01  -6.248655e+01
  -3.912974e+01  -9.606252e+01
   6.961704e+01  -6.110196e+01
   7.240264e+01  -1.453344e+01
   1.690761e+01   1.917037e+01
   2.336293e+01   2.698296e+01
   4.161619e+01  -4.909114e+00
   3.734060e+01  -1.042989e+01
   4.026960e+00   4.712878e+01
  -2.796539e+01   5.374483e+01
  -3.015504e+01   3.870678e+01
  -6.081537e+01  -2.998346e+01
  -3.653997e+00  -6.936789e+01
   8.329485e+01  -5.538443e+01
   1.531156e+02   5.894742e+01
   7.717008e+01   1.089019e+02
  -4.533990e+01   1.039926e+02
  -1.122707e+02   3.599039e+01
  -1.373431e+02  -3.247958e+01
  -6.868889e+01  -8.479110e+01
   2.725103e+01  -1.033270e+02
   4.035486e+01  -5.013363e+01
   2.538515e+01  -4.138752e+01
   1.859894e+01  -6.674353e+01
   4.830755e+01  -5.162411e+01
   6.634047e+01   8.064019e+00
   8.960385e+01   1.012908e+02
   1.568073e+01   1.080361e+02
  -3.128853e+01   6.040306e+01
  -1.182646e+02   2.567830e+01
  -2.975861e+01  -6.715087e+01
  -3.072567e+01  -7.800892e+01
   5.826733e+01  -5.711511e+01
   5.478222e+01   3.783151e+00
  -1.814246e+01   1.481116e+01
  -2.506873e+01   8.232635e+00
   2.377381e+01  -1.165105e+01
   5.478449e+01   4.468464e-01
   3.341324e+01  -1.206364e+00
  -2.296426e+01   3.532297e+01
  -1.323228e+02   5.854953e+01
  -1.134323e+02  -2.172555e+01
   4.346237e+00  -6.303899e+01
   1.168678e+02  -3.920634e+01
   1.017262e+02  -7.435359e+00
   4.300293e+01   2.209554e+01
  -2.289217e+01   3.035592e+01
  -2.657839e+01  -2.298256e+01
  -2.112174e+00  -3.894072e+01
   1.537054e+01  -4.246702e+01
   5.393076e+01  -2.089455e+01
   2.362157e+01   9.337570e+00
   1.379310e+01   2.632188e+01
   7.710211e+00   1.384196e+01
   1.009625e+01  -1.816546e+00
   1.995778e+01   1.471211e+01
   5.289038e+00   8.442938e+01
  -2.263188e+01   7.223692e+01
  -1.005852e+02   2.196908e+01
  -8.552090e+01  -4.448837e+01
  -5.773972e+00  -9.742036e+01
   4.772989e+01  -3.567367e+01
   3.888632e+01   1.310980e+01
  -2.124734e+01   1.534467e+01
  -8.704422e+01  -2.191519e+01
  -5.560196e+01  -7.525768e+01
   3.652109e+01  -5.905736e+01
   9.563116e+01   1.935778e+01
   6.030300e+01   3.861132e+01
   4.977098e+01   5.541614e+01
  -4.749009e+01   1.158746e+01
   3.928757e+00   5.800120e+00
   1.151855e+01  -8.919822e+00
   2.952322e+01  -5.195595e+00
   3.090214e+01   6.562202e+01
  -4.070101e+01   9.458448e+01
  -6.332389e+01   4.808839e+01
  -8.126279e+01  -4.802060e+01
  -1.455165e+01  -7.626902e+01
   3.642337e+01  -1.020826e+02
   1.360639e+01  -2.875773e+01
   6.248348e+00   4.426869e+01
   4.993487e-01   5.857910e+01
  -5.110057e+01  -2.293679e+00
  -1.112559e+01   4.282533e+01
   7.043543e+00   1.078004e+01
   8.785076e+00   3.585092e+01
  -4.932677e+00   1.763718e+01
  -2.989561e+01  -3.662563e+01
  -2.143546e+01  -5.678834e+01
   3.199893e+01  -2.198382e+01
   8.171359e+01   3.019485e+01
   6.452125e+01   2.905676e+01
   1.297677e+01   3.606064e+00
  -6.309711e+01   3.912095e+01
  -4.747174e+01  -1.007720e+01
  -6.391892e+00  -1.710974e+01
   2.882033e+01  -8.744926e+00
   1.738618e+01  -2.085932e-01
  -2.182216e+01   5.576275e-01
  -1.383138e+01   1.998958e+00
   4.418013e+00  -3.164080e+00
   6.451317e+01   5.168585e+00
   4.135375e+01   5.027175e+01
  -4.212992e+01   1.062601e+02
  -1.212018e+02   6.498172e+01
  -9.398142e+01  -2.654352e-01
  -3.391935e+01  -6.767661e+01
   4.148815e+01  -1.200011e+02
   7.714553e+01  -3.099065e+01
   2.964862e+01   3.791329e+01
   5.874565e+01  -5.929311e+00
   9.539100e+00  -1.373670e+01
   1.212372e+01   9.802035e-01
   2.584135e+01   2.620284e+01
   2.376782e+01   6.324954e+01
  -2.261424e+01   1.790030e+01
  -4.498282e+01   6.037489e+00
  -4.661900e+01  -2.909328e+01
  -2.546225e+01  -5.006929e+01
   2.715624e+01  -2.611147e+01
   4.042649e+01   3.065115e+01
   2.026911e+01   5.696464e+01
  -1.723537e+01   4.723912e+01
  -5.362521e+01  -3.782454e+00
  -3.285354e+01  -1.805610e+01
   5.167485e+01  -5.244095e+01
   2.807687e+01  -1.530917e+01
   2.643456e+01   8.652279e-01
  -1.446178e+01  -7.443736e+00
  -1.148656e+01  -2.218350e+01
   3.700854e+01  -2.247670e+01
   7.539455e+01  -1.983409e+01
   6.008983e+01   7.366589e+00
  -7.243398e-01   4.560192e+01
  -7.470022e+00   4.675695e+01
  -3.711170e+01   3.152070e+01
   1.450909e+00  -3.732708e+01
   9.500526e+00  -3.194856e+01
   2.883970e+01   2.025220e+01
   1.808891e+00   1.984253e+01
   1.436119e+01   2.971483e+01
  -6.848959e+00   1.115889e+01
  -2.967735e+01  -1.288539e+01
  -1.617125e+01   1.862194e+01
  -8.658171e+00   2.142171e+00
  -9.904932e+00  -3.698151e+00
  -4.328689e+00  -2.987787e+01
  -8.565040e+00  -5.599610e+01
   1.490674e+00   1.301068e+01
   3.843291e+01   1.940139e+01
  -3.606469e+00   2.313714e+01
  -1.474940e+01   2.002716e+01
  -1.711726e+01   2.658384e+01
  -6.796309e+00  -1.483830e+01
   2.489587e+01  -1.389085e+01
   6.503332e+01   6.080475e-01
   1.827642e+01   3.354547e+01
  -7.171688e-01   2.605145e+00
  -1.338190e+01   7.997635e+00
  -2.583557e+01   3.611500e-01
   5.779723e+00  -3.280678e+01
   4.839849e+01   2.499121e+01
  -2.583401e+01   1.265022e+01
  -3.700856e+01   4.367542e+01
