
 $NMID
 id='ANONYMOUS ', fmtdat='(2E16.6)'
 volume=1.0
 tramp=1.0
 $END
  -1.600984e+03   3.035723e+02
  -1.083679e+03  -2.781604e+02
  -2.558162e+02  -9.176367e+02
   4.567103e+02  -6.789915e+02
   2.305824e+02  -5.671524e+02
   1.318143e+02  -7.168435e+01
  -1.915983e+02  -3.503860e+01
   5.707779e+01  -8.969128e+01
   1.357403e+02  -2.649950e+02
   2.129045e+02  -1.119695e+02
   1.984967e+02   1.629089e+02
   2.166085e+01   2.402278e+02
  -4.892287e+01   1.168090e+02
  -6.883692e+01  -1.429249e+02
   2.107491e+00  -2.708351e+02
   2.058558e+02  -8.496821e+01
   2.416580e+02   1.791873e+02
   3.853422e+01   2.627676e+02
  -2.135271e+02   2.093922e+02
  -2.426814e+02  -2.635633e+00
  -1.037348e+02  -1.532387e+02
   2.960055e+01  -1.181336e+02
  -1.363918e+01  -6.364783e+01
  -8.543710e+01  -1.054762e+01
  -2.282592e+02  -2.236337e+02
   5.514597e+01  -1.841327e+02
   3.098992e+02   4.336595e+01
   3.286981e+02   7.059304e+01
   1.101271e+02   9.701662e+01
  -2.230113e+02   8.815289e+01
  -1.846083e+02  -1.050793e+02
  -8.374840e+01  -1.570199e+02
   8.803135e+01  -1.265155e+02
   1.774477e+02  -5.929847e+01
   1.314897e+02   7.016685e+01
   4.443686e+01   1.249576e+02
   4.251755e+01   7.490577e+01
   7.115572e+01  -1.210003e+01
   4.242143e+01  -8.818989e+01
   2.455997e+01   1.097081e+02
  -2.456459e+01   2.524241e+02
  -1.533287e+02   1.516789e+02
  -1.122058e+02  -5.266868e+01
   3.468673e+01  -1.337016e+02
   5.793394e+01  -8.204736e+01
   1.131677e+02   1.172400e+02
  -7.044071e+01   1.688688e+02
  -2.086310e+02   5.603350e+01
  -2.156488e+02  -1.726877e+02
  -1.165864e+02  -2.182039e+02
   1.737343e+02  -1.007773e+02
   1.900654e+02  -2.174809e+01
   1.572836e+02   5.109536e+01
  -6.616357e+01   8.487832e+01
  -1.441630e+02   3.388675e+01
  -9.722499e+01   2.036901e-01
  -2.419186e+01  -1.686287e+01
  -4.781370e+01   3.838967e+01
  -4.340723e+01  -3.244515e+01
  -8.986835e+01  -1.228578e+01
  -4.353474e+01  -5.877589e+01
   1.611216e+01  -1.460777e+02
   1.852635e+02  -1.405141e+02
   1.430011e+02   4.634284e+01
  -3.278587e+01   1.372948e+02
  -1.794067e+02   2.556161e+02
  -2.257597e+02   1.346773e+02
  -1.662126e+02  -7.555888e+01
  -4.732455e+01  -1.988849e+02
  -2.564910e+00  -1.653889e+02
  -7.921147e+01  -9.968949e+01
  -2.295732e+01  -9.260129e+01
   8.512850e+01  -8.086646e+01
   1.639918e+02   1.245980e+00
   1.094726e+02   4.327676e+01
   7.745168e+01   1.064436e+02
  -1.101631e+02   1.018450e+02
  -8.532732e+01  -4.317150e+00
  -2.658770e+01  -1.036350e+02
   3.157089e+01  -1.303220e+02
   1.098539e+02  -4.725292e+01
   1.852941e+02   5.865825e+01
   1.160139e+02   1.435562e+02
  -1.910621e+01   9.891630e+01
  -5.917930e+01   6.009163e+01
  -4.350277e+01   7.092092e+01
  -6.919992e+01   6.631335e+01
  -1.319314e+02   2.293021e+01
  -2.046782e+02  -2.936269e+01
  -2.010994e+02  -6.747878e+01
   2.059984e+01  -2.337880e+02
   2.310542e+02  -2.157280e+02
   2.347815e+02  -1.081994e+02
   1.647376e+02   2.826934e+01
   6.277782e+01   1.070347e+02
  -5.006117e+01   9.692148e+01
  -1.171471e+01   1.199169e+00
   7.420758e+01  -2.942074e+01
   2.821378e+01   4.663948e+01
   3.283224e+01   5.375958e+01
  -7.415903e+01   5.128083e+01
  -6.107965e+01  -2.466411e+01
   3.646738e+01  -8.617553e+01
   5.942985e+01   2.522041e+01
   8.051823e+01   7.235300e+01
   8.038434e+00   1.693497e+02
  -1.071495e+02   1.493704e+02
  -1.743627e+02   7.729847e+00
  -1.866732e+02  -9.311170e+01
  -6.454218e+01  -1.383269e+02
   6.052763e+01  -1.035416e+02
   8.480528e+01  -3.013623e+01
   1.468644e+01   2.938144e+01
  -3.016973e+01  -3.103952e+01
   1.133721e+01  -3.601355e+01
   8.411603e+01  -1.872222e+01
   9.035471e+01   3.006259e+01
  -7.185118e+00   4.414819e+01
  -6.322823e+01  -1.803149e+01
  -1.890255e+01  -5.998615e+01
   4.528737e+01  -5.730336e+01
   1.630721e+02   1.377014e+01
   1.727072e+02   8.193441e+01
  -2.115167e+01   1.349758e+02
  -8.833844e+01   9.902369e+01
  -1.474457e+02   3.888111e+00
  -3.426439e+01  -6.377901e+00
   2.917270e+01  -4.098483e+01
   3.317611e+01   1.568904e+01
  -4.963093e+01   6.244208e+01
  -1.146080e+02   2.255268e+01
  -1.060155e+02  -4.956773e+01
  -3.572462e+01  -9.690936e+01
   3.177531e+01  -8.423869e+01
   5.533100e+01  -1.689070e+01
  -7.347022e+00   1.928879e+01
  -2.182137e+01  -4.895787e+00
  -4.703634e+01  -6.123726e+01
   3.516983e+01  -6.532452e+01
   1.069995e+02  -2.712466e+01
   9.372592e+01   7.007114e+01
   2.904848e+01   1.193321e+02
  -7.355326e+01   5.268784e+01
  -8.136061e+01   3.190285e+01
  -3.110105e+01  -4.682053e+01
   7.897490e+00  -4.273023e+01
   2.755574e+01  -1.173457e+00
   2.369447e+01  -5.759805e+00
  -1.644213e+01   8.557425e+00
  -1.865523e+01  -3.719578e+01
   3.791302e+01  -9.913111e+00
   8.698456e+01   5.591323e+01
   4.648054e+00   9.268444e+01
  -7.894311e+01   1.022062e+02
  -1.300984e+02   9.060259e+00
  -9.379172e+01  -7.630077e+01
  -4.338924e+01  -5.811222e+01
   6.690217e+01  -8.891691e+01
   6.106249e+01  -3.038257e+01
   2.123304e+01   9.479164e+00
   4.047133e+01   2.908534e+01
   2.754990e+01  -2.250533e+01
   3.401977e+01  -2.846957e+01
   2.784062e+01   7.071038e+01
  -1.766275e+01   6.357754e+01
  -4.796415e+01   3.632685e+01
  -3.992741e+01   1.322526e+00
   7.364636e+00  -9.223664e+01
   8.136501e+01  -6.407777e+01
   1.389216e+02   6.004151e+01
   5.062748e+01   7.816666e+01
  -4.098740e+01   1.062352e+02
  -1.359324e+02   4.055964e+01
  -1.317535e+02  -1.193072e+01
  -5.887064e+01  -8.497664e+01
   2.416230e+01  -7.202790e+01
   4.629600e+00  -3.181445e+01
   4.781016e+01  -4.744102e+01
   4.091987e+01  -2.017527e+01
   2.856770e+01  -5.968168e+01
   9.775567e+01   2.356255e+01
   5.964914e+01   9.939135e+01
   1.663164e+01   1.287989e+02
  -7.241348e+01   6.242792e+01
  -9.106667e+01  -1.833109e+01
  -5.683894e+01  -3.765334e+01
  -2.499349e+01  -7.717188e+01
   4.023619e+01  -6.603020e+01
   2.736167e+01   2.456059e+01
  -1.265455e+01   8.699026e+00
  -2.466259e-02  -4.753492e+00
   8.081287e+00   1.404449e+01
   1.128014e+01  -5.044866e+01
   4.210172e+01   2.561702e+01
  -6.031647e+01   3.398833e+01
  -1.053272e+02   1.587424e+01
  -9.496633e+01  -2.543397e+01
   3.261829e+00  -2.921834e+01
   6.049883e+01  -5.797155e+01
   5.059337e+01  -3.663948e+01
   3.335692e+01   2.129397e+01
  -2.090337e+01   5.559461e+01
  -3.026189e+01   3.838490e+00
  -4.412492e+01  -2.899487e+01
   9.146756e+00  -5.759320e+01
   4.046986e+01   3.105036e+00
   5.223721e+01   2.055803e+01
   5.681521e+01  -6.543235e+00
   3.736724e+01  -1.459515e+00
  -1.171545e+00  -3.517412e+01
   1.917071e+01   7.714228e+01
  -2.368015e+01   7.864296e+01
  -6.901884e+01   9.109658e+01
  -9.675082e+01   1.457707e+01
  -7.808531e+01  -7.968971e+01
  -2.494789e+01  -6.900539e+01
   8.580767e+01  -4.371094e+01
   4.122324e+01  -9.939319e+00
   4.439874e+00  -2.096674e+01
  -6.215691e+01  -2.005496e+01
  -5.920240e+01  -7.100751e+01
   3.737922e+01  -5.208962e+01
   7.190429e+01  -5.146453e+01
   5.404148e+01   3.896529e+01
   2.661380e+01   2.306868e+01
  -2.976459e+01   2.496497e+01
  -4.542963e+01  -1.626505e+01
   2.741703e+00  -1.133069e+01
   4.702352e+01   1.602158e+01
   3.391183e+01   6.677406e+01
  -5.672566e+00   7.744729e+01
  -6.666625e+01   7.124883e+01
  -8.046331e+01  -1.563404e+01
  -5.632336e+00  -7.956195e+01
   4.451138e+01  -3.693899e+01
   5.588542e+01  -1.250499e+01
   3.766522e+01   4.932349e+01
  -2.147176e+01   5.522155e+01
  -2.424659e+01  -8.439796e+00
  -2.042446e+01  -2.710423e+01
   6.193337e+00   1.695893e+00
   2.104158e+01  -1.326613e+01
  -2.768962e+01   7.080567e+00
  -2.149950e+01  -1.576573e+01
  -2.842037e+01  -6.258395e+01
   5.428661e+01  -2.284314e+01
   7.509920e+01   1.216487e+01
   2.386117e+01   4.715009e+01
   3.028431e+01   2.995072e+01
  -4.076321e+01   2.264785e+00
  -3.037621e+01   6.554293e-01
  -3.139303e+01   2.629628e+00
  -4.831576e+00  -2.562803e+01
   2.480666e+01  -4.595304e+00
  -4.829893e+00   7.700245e+00
  -3.323681e+01   1.454228e+01
   2.050378e+01   2.272696e+01
   7.219046e+01   2.078441e+01
   1.210798e+01   1.513828e+01
  -5.425118e+01   7.082947e+01
  -4.998252e+01   5.504585e+01
  -8.625540e+01   1.262070e+01
  -1.704172e+01  -9.524657e+01
   9.050500e+00  -1.044589e+02
   5.743729e+01  -3.498812e+01
   5.748262e+01   1.773129e+01
   2.383281e+01   1.998379e+01
  -1.459800e+00   1.938209e+01
  -1.302449e+01   2.109056e+01
   6.709607e+00   3.979917e+01
   9.618524e+00   1.904434e+01
  -6.310640e+00   4.232378e+01
  -3.493352e+01  -3.065646e+01
  -7.536307e+01  -5.546053e+00
  -2.519365e+01  -3.012050e+01
  -1.425041e+00   2.263786e+00
   4.241684e+01  -1.498376e+01
   3.900031e+01   4.806661e+01
  -3.450767e+01   6.018475e+01
  -6.622974e+01   1.524765e+01
  -4.234011e+01  -2.341476e+01
   1.341033e+00  -4.078347e+01
   3.477814e+01   2.828228e+01
  -2.702719e+01   1.707040e+01
  -3.951995e+01  -2.135587e+00
  -2.575277e+01  -2.622798e+01
   4.298598e+01  -5.125268e+01
   8.045478e+01  -2.786216e+01
   1.336583e+01  -7.573811e+00
   3.458462e+01   4.897400e+01
  -3.265946e+01   3.393712e+01
  -3.313063e+01  -1.715601e+01
   6.373211e+00   6.240652e+00
   1.399587e+01  -4.167749e+01
   3.261292e+01   4.846543e+00
  -1.011180e+01   3.025467e+01
   2.465919e+01  -1.757634e+00
  -1.506168e+01  -8.058265e+00
  -2.256937e+01  -2.867089e+01
  -1.494576e+01  -6.033290e+00
  -5.091742e+00   1.627161e+01
   6.518601e+00  -1.603066e+01
  -4.633940e+01  -1.485715e+01
  -1.891441e+01  -4.785441e+01
   1.982195e+01  -4.109820e+00
   1.770554e+01   3.452468e+01
   3.349586e+01   2.387191e+01
  -3.269795e+01   5.672076e+01
  -5.353468e+00  -3.055177e+01
  -2.623529e+01  -5.294618e+01
  -5.263078e+00  -2.841095e+01
   5.095692e+01  -4.709893e+01
   6.944508e+01   3.089754e+01
  -2.630585e+01   3.198942e+01
  -2.842709e+01   1.319159e+00
  -2.418553e+00   6.414452e+00
   1.838594e+01   2.536937e+00
  -2.144512e+01   8.869213e+00
  -1.040818e+01   3.390339e+01
  -2.359772e+01   3.193722e+01
