
 $NMID
 id='ANONYMOUS ', fmtdat='(2E16.6)'
 volume=1.0
 tramp=1.0
 $END
   1.573223e+03  -6.012382e+02
   9.596470e+02   9.261030e+02
   1.446210e+02   9.998695e+02
  -2.684330e+02   4.059893e+02
  -4.787679e+02   1.549084e+02
  -1.933089e+02  -8.864966e+01
   2.687833e+02  -2.294390e+01
   9.077384e+01   2.697421e+02
  -1.530078e+02   2.879215e+02
  -2.545131e+02   1.207870e+02
  -3.664973e+02  -1.618353e+02
  -2.132861e+02  -3.056031e+02
   1.314714e+02  -2.091173e+02
   1.339217e+02   5.449757e+01
  -7.084944e+01   1.743023e+02
  -1.267305e+02   1.176477e+02
  -1.868232e+02  -1.811199e+02
  -1.006944e+02  -1.559318e+02
   1.790669e+02  -1.725790e+02
   2.330527e+02   1.679679e+01
   1.403318e+02   1.268014e+02
  -7.516388e+00   1.151101e+02
  -2.462927e+01   4.901024e+01
   1.118142e+02   5.699891e+01
   9.243463e+01   1.115316e+02
  -1.068727e+02   6.882397e+01
  -1.227333e+02  -9.141062e+01
  -2.156722e+02   1.229415e+01
  -1.624495e+02  -8.319658e+01
   8.090279e+01  -9.681494e+00
   1.165419e+02  -4.458122e+01
   1.722874e+02   1.395135e+02
  -3.619789e+01   1.464682e+02
  -1.155181e+02   7.357107e+01
  -1.043538e+02   1.351912e+01
  -1.025892e+02  -8.407590e+01
   2.582049e+01  -1.125092e+02
  -4.383877e+01  -8.144042e+00
  -8.125680e+01  -3.013197e+01
  -2.669530e+01  -2.868810e+01
   6.973322e+00  -1.977369e+02
   8.856767e+01  -1.034572e+02
   6.390185e+01   4.108390e+01
   5.638452e+00   4.825024e+01
  -8.638938e+01   3.762321e+01
  -4.385042e+01  -1.085187e+02
   3.803336e+01  -1.568746e+02
   1.579069e+02  -6.398071e+01
   1.621431e+02   1.568202e+02
   1.234474e+02   2.341868e+02
  -8.740648e+01   9.374515e+01
  -2.470246e+02   4.599837e+01
  -2.294581e+02  -2.603102e+01
   2.771879e-01  -7.394408e+01
   1.039503e+02  -1.076726e+02
   7.554705e+01   2.308028e+01
  -3.738160e+00  -2.336415e+01
   4.345955e+00   2.478913e+01
  -1.161303e+01  -3.971459e+01
   9.832148e+01   1.290753e+01
   9.238692e+01   3.054458e+01
  -2.727353e+01   1.282372e+02
  -1.311046e+02   1.423562e+02
  -1.421078e+02  -5.257028e+01
   7.111782e+00  -1.179777e+02
   1.660116e+02  -1.773519e+02
   1.612634e+02  -9.022134e+01
   1.271389e+02   8.730902e+01
   2.683793e+01   1.643819e+02
   5.044326e+01   1.241287e+02
   2.192625e+01   7.603046e+01
  -2.400087e+01   8.974316e+01
  -6.916374e+01   6.075801e+01
  -8.615415e+01   3.121732e+01
  -1.372461e+02  -5.056824e+01
  -5.401681e+01  -1.110081e+02
   6.454763e+01  -8.372844e+01
   1.077538e+02  -8.813906e+00
   7.583661e+01   1.143086e+02
  -5.672609e-01   4.816227e+01
  -6.579053e+01  -1.686145e+01
  -1.469616e+02  -6.477572e+01
  -1.460782e+02  -1.580824e+02
  -1.777267e+01  -1.241731e+02
   2.035483e+01  -7.458692e+01
   4.909517e+01  -3.812046e+01
   8.198467e+01  -5.653107e+01
   9.819137e+01  -2.108805e+01
   1.823083e+02   6.614678e+01
   1.735707e+02   1.071907e+02
  -1.302741e+01   1.495164e+02
  -1.506585e+02   1.311739e+02
  -2.048060e+02   9.245954e+01
  -1.504362e+02  -3.116800e+01
  -4.303961e+01  -1.340616e+02
   1.678250e+01  -7.457166e+01
  -8.308087e+00  -2.165521e+01
  -1.040158e+01  -1.017660e+01
  -3.334028e+01  -3.337850e+01
   1.290994e+01  -3.289292e+01
   1.813098e+01  -7.506813e+01
   5.688965e+01   1.020220e+01
   6.028681e+00   6.788060e+01
  -7.195428e+01  -1.188673e+01
  -6.758040e+01  -1.107086e+02
   9.786621e+00  -1.493907e+02
   9.959429e+01  -1.341003e+02
   1.528902e+02  -5.570432e+01
   1.498847e+02   1.162960e+02
   2.711935e+01   1.150706e+02
  -4.150102e+01   4.437372e+01
  -8.876812e+01   1.480580e+01
   4.873414e+00  -2.208019e+01
   2.413664e-03   1.761660e+01
  -8.006940e+00   6.121451e+01
  -4.204621e+01   1.353940e+01
  -7.137109e+01  -3.928330e+01
   1.036906e+01  -3.458967e+01
   2.963145e+01   3.311609e+01
   6.340830e+00   5.817618e+01
  -4.479587e+01   2.767226e+01
  -1.561533e+02   1.981475e+00
  -1.198250e+02  -7.364637e+01
   1.253103e+01  -1.378226e+02
   6.894334e+01  -1.036754e+02
   9.761107e+01  -3.359399e+01
   6.545912e+01  -1.106497e+01
  -4.054902e+00   3.109070e+01
  -1.521556e+01  -2.486139e+00
   3.495794e+01  -4.934885e+01
   1.221410e+02   1.443160e+00
   8.773771e+01   4.218058e+01
   2.228752e+01   8.751702e+01
  -2.588864e+01   6.274671e+01
  -4.195601e+01   1.321653e+01
  -2.423637e+01  -1.452192e+01
   2.548565e+01   6.447101e-02
   6.756664e+01   5.537813e+01
  -6.018683e+01   3.241431e+01
  -1.186104e+02   4.158985e+00
  -7.019479e+01  -4.673846e+01
  -3.912526e+01  -1.007153e+02
   7.131177e+01  -4.599532e+01
   6.129101e+01  -1.435294e-02
   2.301484e+00   1.360246e+01
   1.330890e+00   1.142896e+01
  -3.447054e+01  -5.261475e+00
  -6.397553e+00  -1.112457e+01
  -7.017764e+00  -3.652405e+01
  -2.361916e+01   1.811930e+01
  -4.635070e+01  -5.395261e+00
  -6.479424e+01  -4.455273e+01
  -1.831104e+01  -9.487544e+01
   7.871423e+01  -4.388390e+01
   9.287049e+01   4.189182e+01
   1.268344e+02   4.406501e+01
   3.999578e+01   5.491144e+01
  -4.284443e+01   3.766935e+01
  -7.412959e+01   5.403286e+00
  -3.434824e+01  -2.845838e+01
  -1.996325e+01   2.231151e+01
  -5.078968e+01   6.610725e+00
  -2.737628e+01   4.486087e+01
  -2.787702e+01  -3.912674e+01
   1.855823e+01  -3.895007e+01
   6.197128e+01  -2.183325e+01
   4.897651e+01   7.582500e-01
  -1.663819e+01   6.182681e+01
  -7.027691e+01   6.624995e+01
  -6.423877e+01  -1.890023e+01
  -6.901765e+01  -1.314877e+02
   3.362404e+01  -1.135266e+02
   1.506496e+02  -5.525259e+01
   8.227213e+01   2.786526e+01
   3.901379e+01   6.804064e+01
  -7.712755e+00   2.174604e+01
  -3.423060e+01   6.622266e+00
  -8.601410e-01   3.213043e+01
  -4.382004e+01   4.195129e+01
  -4.358708e+01   3.818067e+01
  -7.709118e+01   2.733632e+01
  -2.946611e+01  -7.139177e+01
  -1.866652e+01  -1.080713e+02
   3.960600e+01  -8.224402e+01
   8.634257e+01  -5.772758e+00
   3.509864e+01   3.857869e+01
   1.151195e+01   7.259276e+01
  -1.890219e+01   5.814227e+00
  -5.087679e+01   2.095681e+01
  -1.222428e+01  -2.652642e+01
   2.181923e+01   6.780344e+00
  -1.915838e+01   1.506593e+01
  -5.796146e+01  -2.119223e+01
  -1.738784e+01  -2.933848e+01
   5.315981e+01  -1.161832e+01
   4.518848e+01  -2.138812e+01
   6.696211e+01   3.972402e+01
  -1.136808e+01   5.968921e+01
  -5.326949e+01   2.293511e+01
  -6.566080e+01   8.627533e+00
  -9.553046e+00   1.261194e+00
   1.697559e+01  -3.880995e+01
   2.426554e+01   1.020570e+01
   7.011627e+00   1.206465e+01
  -1.006595e+01   2.597528e+01
  -3.429882e+01  -8.261567e+00
  -5.598449e+01  -1.567273e+01
  -4.297314e+01   9.256015e+00
  -2.818793e+01   1.181764e+01
   6.728593e+00  -1.828565e-01
  -4.739156e+01  -4.903517e+01
   1.430378e+01  -6.163876e+01
   3.404771e+01  -9.086587e+01
   8.444305e+01  -7.458522e+00
   4.393195e+01   2.284428e+01
   1.625583e+01   3.870749e+01
  -4.867808e+01   3.640843e+01
  -4.743618e+01  -2.691022e+01
   9.507888e+00  -6.426592e+00
   4.870193e+01   1.692768e+01
   3.451430e+01   4.937973e+01
  -5.053582e+01   6.719983e+01
  -1.031524e+02   1.205341e+01
  -7.706414e+01  -5.605308e+01
   2.048208e+00  -6.166126e+01
   2.148514e+01  -1.659244e+01
   2.013596e+01   6.946969e+00
  -4.575077e+00   5.753268e+00
  -2.061926e+01   3.078730e-01
   3.078729e+01  -4.376097e+01
   1.418721e+01  -4.065743e+01
   6.804533e+01  -5.698484e+01
   7.208648e+01  -1.050353e+01
   1.878469e+01   8.573871e+01
  -3.032372e+00   5.821793e+01
  -2.317984e+01  -2.005392e+01
  -7.725306e+00  -8.598621e+01
   1.124598e+01  -4.887832e+01
   3.399695e+01  -1.011220e+01
   5.693431e+01   1.296593e+01
   2.023568e+01  -2.072757e+00
  -2.624976e+01  -3.755194e+00
   8.942453e+00  -1.179471e+01
   3.008025e+01   3.018759e+01
   2.326913e+01   5.017804e+01
  -8.509952e-01   3.202758e+01
  -6.828520e+01   5.453810e+00
  -5.093000e+01  -7.300798e+00
  -1.171406e+01  -2.713824e+01
   3.167581e+01  -3.734944e+00
   2.239963e+01   2.335639e+00
   1.401335e+01   9.246510e+00
   1.391424e+00   2.081674e+01
   7.307760e+00   3.007451e-01
  -2.753530e+00  -2.104923e-01
  -2.351976e+01   8.982035e+00
  -3.697195e+01   1.958822e+01
  -3.594743e+01  -1.813030e+01
  -1.804096e+01  -2.334123e+01
   8.337792e+01  -7.016364e+01
   8.018861e+01  -6.341065e+01
   8.852549e+01   4.697279e+00
   5.381623e+00   4.974503e+01
  -3.568745e+00   5.914870e+01
  -4.658877e+01   4.241189e+01
  -3.046870e+01  -1.789966e+01
  -5.305300e+00   9.369462e+00
   4.953637e+00  -6.157570e+00
  -2.899500e+01  -2.207836e+01
  -6.338523e+00  -1.687146e+01
  -9.814436e+00  -1.466314e+01
   2.883528e+01  -2.471039e+01
   6.156889e+01  -2.832172e+00
   6.973403e+01   3.422737e+01
   1.468390e+00   3.400006e+01
  -1.610863e+01   2.718783e+01
  -7.926239e+01  -1.585548e+01
  -1.670656e+01  -4.254425e+01
   1.711173e+01  -5.697270e+01
   5.550215e+01   4.118860e+00
   1.579625e+01   9.384604e+00
  -4.917787e+01   5.555657e+01
  -3.937761e+01   6.873755e+00
  -1.159878e+01  -5.176499e+00
   2.935043e+01   1.592314e+01
   1.307201e-01  -2.498722e+01
  -2.609688e+01   6.382136e+01
  -7.062659e+01   1.176318e+01
  -3.738296e+01  -3.637504e+01
  -1.868863e+01  -1.081339e+01
   3.886004e+01  -4.166025e+01
   5.885885e+00  -1.163379e+01
  -5.928060e+00   1.474652e+01
  -1.699585e+01   1.951657e+01
  -3.490141e+01   2.227090e+00
  -1.436786e+01  -2.739625e+01
  -3.100278e+01   6.591606e+00
  -3.947989e-01   8.217456e+00
  -4.440644e+00   1.365022e+01
   1.050341e+01   7.466850e+00
   9.389136e+00  -2.697109e+01
  -1.123516e+01  -3.612652e+01
   3.803065e+01   8.778466e+00
  -3.794174e+00   8.270629e+00
  -8.632931e+00   2.171015e+01
  -3.583928e+01  -3.526181e+01
   1.441259e+00  -4.729706e+01
  -6.075853e+00  -3.287459e+01
   5.530764e+01   2.986221e+00
   3.393284e+01   4.452165e+01
  -2.293162e+01   2.186947e+01
  -4.664895e+01   4.536072e+00
  -2.563617e+01  -3.018622e+01
   7.716057e+00  -2.145396e+00
   4.258087e+01   8.589226e+00
   2.334825e+01   1.068112e+00
  -1.235754e+00  -8.698672e+00
  -5.650904e+00  -6.839237e+00
   2.700580e+01  -1.183176e+01
   2.482718e+01  -3.081274e+01
