
 $NMID
 id='ANONYMOUS ', fmtdat='(2E16.6)'
 volume=1.0
 tramp=1.0
 $END
  -1.881731e+03   8.230002e+02
  -1.357062e+03  -8.571353e+02
  -1.773875e+02  -1.388668e+03
   4.441007e+02  -8.102427e+02
   7.440008e+02  -2.190580e+02
   3.343638e+02   2.954494e+02
  -3.573876e+02   2.436301e+01
  -1.511989e+02  -3.604428e+02
   1.710006e+02  -4.279704e+02
   3.871073e+02  -2.215225e+02
   4.861580e+02   2.572049e+02
   1.904335e+02   4.737760e+02
  -1.740772e+02   2.552819e+02
  -1.388865e+02  -1.149468e+02
  -1.201889e+01  -3.711294e+02
   2.201084e+02  -1.069892e+02
   2.437157e+02   2.686616e+02
   9.824118e+00   3.459643e+02
  -2.589003e+02   2.555781e+02
  -3.721619e+02  -5.191465e+01
  -1.528628e+02  -2.385016e+02
   2.678107e+01  -1.801148e+02
   3.914119e+01  -9.403775e+01
  -1.430243e+02  -6.088076e+01
  -1.476920e+02  -1.646746e+02
   6.698491e+01  -1.093040e+02
   2.585207e+02   3.487481e+01
   2.967460e+02  -1.605808e+01
   1.433153e+02   1.481780e+02
  -1.001368e+02   9.908461e+01
  -2.055389e+02   3.395410e+01
  -1.824571e+02  -1.569293e+02
   8.500548e+01  -2.126907e+02
   2.242940e+02  -1.217185e+02
   1.767983e+02   1.571002e+01
   1.260006e+02   9.760968e+01
   2.427037e+01   1.819636e+02
   8.295274e+01   2.308888e+01
   5.856952e+01   1.931906e+00
  -1.236382e+01   7.482122e+01
  -4.199886e+01   1.852155e+02
  -6.536051e+01   1.939849e+02
  -1.738527e+02   2.675655e+01
  -6.078737e+01  -1.433681e+02
   8.909568e+01  -1.065658e+02
   2.771367e+01   1.059607e+02
   5.944333e+00   2.217280e+02
  -1.911381e+02   6.562854e+01
  -2.447999e+02  -1.485792e+02
  -1.437683e+02  -2.642888e+02
   1.357879e+02  -1.896409e+02
   3.525891e+02  -3.293716e+01
   2.631573e+02   7.993192e+01
   2.085567e+01   7.017753e+01
  -1.483869e+02   1.166620e+02
  -1.658602e+02   3.706802e+01
  -3.610574e+01   3.903337e+01
   6.072609e+00  -3.093166e+01
  -2.400831e+01   4.164003e-01
  -9.360726e+01   2.389099e+01
  -1.689277e+02  -8.543791e+01
   1.756258e+01  -1.530205e+02
   2.159868e+02  -1.182759e+02
   1.919894e+02   5.531128e+01
  -1.797489e+01   1.740071e+02
  -2.240956e+02   2.078303e+02
  -2.652565e+02   9.317825e+01
  -1.613582e+02  -1.164587e+02
  -2.326903e+00  -1.629658e+02
   2.679666e+01  -1.749752e+02
  -7.171535e+00  -8.598699e+01
   2.059158e+01  -1.125425e+02
   1.477296e+02  -4.039555e+01
   1.456489e+02   4.786296e+00
   1.369542e+02   3.196530e+01
   3.197553e+01   1.768060e+02
  -8.814023e+01   9.873405e+01
  -1.205724e+02   1.331098e+01
  -6.660482e+01  -1.284883e+02
   1.469661e+01  -7.774149e+01
   1.202948e+02  -1.579806e+01
   1.987919e+02   8.545932e+01
   1.923331e+02   2.433584e+02
  -3.210080e+01   1.708368e+02
  -8.549681e+01   1.256654e+02
  -8.457006e+01   7.895543e+01
  -6.566639e+01   1.887435e+01
  -1.890437e+02   5.469963e+01
  -2.687077e+02  -9.982176e+01
  -1.996426e+02  -1.813913e+02
  -2.501986e+00  -2.590391e+02
   1.814088e+02  -1.706237e+02
   2.741583e+02  -1.630810e+02
   1.766497e+02   4.759555e+01
  -2.413017e+00   1.540662e+02
  -2.407513e+01   1.328421e+02
  -9.542254e+00   3.641433e+00
   3.786534e+01  -1.093717e+00
   1.691356e+01   1.144740e+01
   1.141787e+01   7.122197e+01
  -3.390762e+01   1.121016e+02
  -7.307882e+01  -2.996705e+01
  -2.406761e+01  -6.299214e+01
   7.245610e+01  -2.015095e+00
   1.178376e+02   1.333771e+02
  -9.633202e+00   2.127615e+02
  -1.351043e+02   1.298923e+02
  -2.331222e+02   1.053969e+01
  -1.517341e+02  -1.717100e+02
  -5.763917e+01  -1.713704e+02
   9.932130e+01  -7.638753e+01
   1.178003e+02  -1.447880e+01
   2.343222e+01   9.379713e+00
  -3.521241e+01  -1.031758e+01
  -6.881817e+00  -4.693547e+01
   3.594602e+01  -2.932463e+01
   1.076832e+02  -5.637548e+00
   4.589539e+01   4.940243e+01
  -3.532474e+01  -2.535332e+01
  -3.375090e+01  -4.754807e+01
   7.604737e+01  -5.114823e+01
   2.317480e+02  -1.667969e+01
   1.524730e+02   1.215272e+02
  -7.190136e+00   1.894522e+02
  -1.149402e+02   1.579980e+02
  -1.534445e+02   6.613709e+01
  -7.843377e+01  -1.632052e+01
   2.035078e+01  -4.115159e+01
   3.261213e+01  -1.855032e+01
  -4.138185e+01   6.725997e+01
  -1.415187e+02   1.308894e+01
  -9.159462e+01  -7.130720e+01
  -3.841667e+01  -1.221578e+02
   1.811382e+01  -8.803080e+01
   8.935340e+01  -3.742567e+01
   1.669023e+01   2.838325e+01
  -9.359604e+00   2.227776e+01
  -2.761810e+01  -5.792979e+01
   7.301537e+01  -4.613886e+01
   1.241709e+02   8.575105e+00
   1.063474e+02   6.022790e+01
   2.043542e+01   1.535584e+02
  -5.847805e+01   7.246193e+01
  -1.222042e+02  -2.136313e+01
  -2.487334e+01  -6.217946e+01
   6.756304e+00  -2.253813e+01
   2.315603e+01   3.055461e+01
  -1.772715e+00   1.238957e+01
  -1.469178e+01   6.985652e+00
   2.388959e+01  -5.870443e+00
   8.384119e+01  -1.820478e+00
   9.054623e+01   4.558064e+01
  -2.527298e+01   1.221433e+02
  -8.333736e+01   6.389288e+01
  -1.503318e+02  -2.862585e+00
  -1.546822e+02  -7.458249e+01
  -7.118370e+01  -1.396635e+02
   4.352473e+01  -9.854749e+01
   6.951597e+01  -1.716943e+01
   2.979108e+01   4.084535e+01
   4.468960e+01   1.978940e+00
   3.642318e+01  -2.751255e+01
   1.524781e+01  -3.713520e+01
   5.389648e+01   5.832134e+01
  -2.013290e+01   7.522031e+01
  -7.419139e+01   4.308221e+01
  -6.104243e+01  -2.824054e+01
   3.490240e+00  -9.767725e+01
   1.280892e+02  -6.134827e+01
   9.321153e+01   4.222747e+01
   4.298256e+01   1.502735e+02
  -6.052794e+01   1.130895e+02
  -1.758598e+02   4.570974e+01
  -1.526887e+02  -5.890976e+01
  -1.004477e+02  -9.388783e+01
  -2.728260e+01  -7.594403e+01
   5.246019e+01  -4.688050e+01
   1.447358e+01  -3.489649e+01
   5.322754e+01  -5.213270e+01
   8.538963e+01  -9.520778e+01
   8.204496e+01  -2.199848e+00
   8.582129e+01   1.077939e+02
   3.259668e+01   1.266076e+02
  -7.758466e+01   9.434279e+01
  -1.475031e+02   2.462525e+01
  -7.822468e+01  -7.482750e+01
  -1.105342e+01  -1.145490e+02
   4.078450e+01  -3.456056e+01
   3.994908e+01  -1.388734e+00
   2.206145e+00   1.223481e+01
  -1.028391e+01   3.621337e+01
   3.116356e+01   1.242978e+01
   6.164391e+01   9.135075e+00
   6.271953e+00   1.143257e+01
  -1.564150e+01   1.352634e+01
  -8.455431e+01   9.445723e+00
  -6.084344e+01  -3.008209e+01
   1.452875e+01  -6.049303e+01
   7.245555e+01  -2.138178e+01
   5.681353e+01   1.233460e+01
   7.033866e+00   4.018127e+00
  -3.248519e+01   4.441855e+01
  -2.986501e+01   2.173572e+01
  -2.803080e+01  -4.200455e+01
   1.798143e+01  -2.840498e+01
   1.644515e+01  -2.464989e+00
   5.103124e+01   2.895572e+01
   5.911273e+01   6.316325e+00
   5.899674e+01   6.767498e+00
   2.283291e+01  -1.503744e+01
   7.248230e+01   8.150343e+01
  -2.034701e+01   9.194647e+01
  -4.878757e+01   8.418839e+01
  -1.231282e+02   6.154257e+01
  -6.722233e+01  -5.831880e+01
   1.906515e+01  -5.270677e+01
   7.114214e+01  -3.415355e+01
   2.680370e+01  -1.271604e+01
  -1.802135e+01   3.560332e+00
  -8.321144e+01  -2.470317e+01
  -1.219099e+01  -6.126188e+01
   5.727474e+01  -6.953509e+01
   1.280905e+02  -4.510906e+01
   8.769528e+01   3.079697e+01
   7.175843e+00   7.037273e+01
  -5.500558e+01   3.624065e+01
  -5.698609e+01   8.139379e+00
   2.110802e+01   6.346284e+00
   7.328926e+01  -2.737309e+01
  -5.297646e+00   6.249778e+01
  -1.262364e+01   9.686743e+01
  -1.052951e+02   5.301990e+01
  -9.954615e+01  -5.784331e+01
  -1.636905e+01  -1.271632e+02
   1.052763e+01  -9.286358e+01
   5.300893e+01   3.802099e+01
   1.728719e+00   8.752178e+01
   2.314955e+01   5.208551e+01
  -5.790739e+01   3.055023e+01
  -6.160688e+01  -5.506014e+00
  -1.872513e+01   4.924969e+00
  -1.756037e+01   2.087294e+00
  -1.647513e+01  -3.276232e+01
  -1.699930e+01  -4.293199e+01
  -1.463141e+01  -5.347450e+01
   8.206135e+01  -2.552483e+01
   9.251592e+01   2.251635e+01
   8.863682e+01   1.232326e+01
   3.353167e+01   2.634217e+01
  -4.950300e+01   1.175791e+01
  -4.453472e+01  -3.684297e+00
  -2.190421e+01  -4.112787e+00
   3.707180e+01  -2.776568e+01
   1.124339e+01   1.380947e+01
   1.815787e+01  -7.861718e+00
   5.043865e+00  -1.660357e+01
   6.623295e+01   4.590675e+00
   3.446078e+01   2.798621e+01
   3.069804e+00   3.481304e+01
  -5.066316e+01   9.366099e+01
  -1.212454e+02   5.561379e+01
  -1.052865e+02  -2.163037e+01
  -5.459129e+01  -9.255122e+01
   2.459346e+01  -9.045603e+01
   9.449768e+01  -6.129102e+00
   5.743810e+01   1.513005e+01
   3.395454e+01   3.171426e+01
  -2.924430e+01   1.668403e+01
  -1.194668e+01   3.523144e+01
  -8.415997e+00   4.794820e+00
   1.650916e+01   3.623444e+01
  -3.428169e+01   4.034363e+01
  -4.704090e+01  -3.552101e+01
  -6.222457e+01  -7.962841e+01
  -1.318712e+01  -6.906762e+01
   3.880253e+01  -3.296331e+01
   6.687514e+01   1.332526e+01
   7.188825e+01   6.880222e+01
  -2.859806e+01   6.964706e+01
  -1.055870e+02  -1.291608e+01
  -4.844259e+00  -3.406913e+01
   4.645239e+01  -8.317360e+01
   2.661056e+01  -2.624993e+01
  -9.356678e+00   1.584994e+01
  -2.801204e+01  -1.132669e+01
  -1.184606e+01  -1.238275e+01
   4.845442e+01  -6.634359e+01
   5.987099e+01  -2.620987e+01
   6.011229e+01   2.306002e+01
   2.247359e+01   4.457486e+01
  -3.814643e+01   7.228354e+01
  -5.299693e-01   4.840720e+00
  -2.540962e+01  -4.337663e+01
   3.433386e+01  -1.945987e+01
   2.951299e+01  -1.841162e+01
   2.612214e+01   6.923075e+01
   4.556498e+00  -1.313056e+00
   3.579758e+00   1.413347e+01
  -4.408820e+01  -3.124243e+01
  -1.469911e+01   1.495577e+00
  -2.734060e-01   4.402602e+01
   2.558107e+01  -2.071570e+01
  -2.866360e+01  -6.825815e+00
   3.335660e+01  -4.279244e+01
   2.122761e+01  -2.352991e+01
   3.055757e+01   1.333778e+01
   1.498062e+01   4.757726e+01
  -4.737077e+00   9.128661e+00
  -5.823269e+01  -1.893485e+01
  -4.705711e+01  -4.263808e+01
   4.582851e+01  -3.041190e+01
   9.825043e+01  -2.273480e+01
   1.419757e+01   3.589160e+01
  -3.700228e+00   3.854003e+01
  -4.146161e+01   2.111862e+01
  -2.289516e+01  -2.882151e+01
   1.352073e+01   3.803786e+00
   2.847499e+01   3.138324e+00
   2.396685e+00   1.127472e+01
  -5.125322e+01   1.296948e+01
