
 $NMID
 id='ANONYMOUS ', fmtdat='(2E16.6)'
 volume=1.0
 tramp=1.0
 $END
  -2.748773e+03   3.294475e+02
  -1.826079e+03  -1.048925e+03
  -3.120009e+02  -2.202811e+03
   1.109454e+03  -1.244539e+03
   9.382057e+02  -4.701894e+02
   1.130396e+02   3.270631e+02
  -3.592364e+02   6.523710e+01
  -1.446352e+02  -5.391035e+02
   2.774110e+02  -4.943834e+02
   6.416264e+02  -1.793746e+02
   4.810579e+02   3.415785e+02
   1.192374e+02   7.218177e+02
  -2.535971e+02   3.227178e+02
  -1.885867e+02  -2.159216e+02
   8.789905e+01  -4.700367e+02
   3.107709e+02  -1.528493e+02
   3.157178e+02   3.513330e+02
  -2.480804e+01   4.934342e+02
  -3.670572e+02   3.889315e+02
  -4.956894e+02  -1.177940e+02
  -1.508461e+02  -3.615016e+02
   5.801874e+01  -2.535963e+02
   9.421861e+01  -1.150261e+02
  -1.814460e+02  -1.663326e+02
  -2.242179e+02  -2.520504e+02
   2.056651e+01  -1.943741e+02
   3.745966e+02  -1.700975e+01
   4.059879e+02   1.206066e+02
   2.204428e+02   2.243510e+02
  -1.819009e+02   1.940087e+02
  -3.326306e+02  -6.248272e+01
  -2.869325e+02  -2.796676e+02
   1.602074e+02  -3.896281e+02
   4.310174e+02  -2.114208e+02
   2.859049e+02   1.358645e+02
   9.328470e+01   2.900212e+02
   6.505586e+01   2.426056e+02
   5.620306e+01   6.296480e+00
   8.767622e+01  -3.697184e+01
   7.176983e+01   4.734465e+01
  -4.589891e+01   3.433619e+02
  -1.625536e+02   2.878660e+02
  -2.584846e+02   9.747281e+01
  -1.075857e+02  -1.171687e+02
   3.231515e+01  -9.505854e+01
   1.326839e+02   2.455517e+02
  -5.528336e+01   3.220575e+02
  -3.515070e+02   1.002331e+02
  -3.254954e+02  -2.364721e+02
  -1.712655e+02  -4.332724e+02
   2.198994e+02  -2.372583e+02
   4.871889e+02  -8.565339e+00
   3.013375e+02   1.977221e+02
  -1.934252e+01   1.599237e+02
  -2.501705e+02   1.242190e+02
  -2.056536e+02   6.077035e+00
  -5.541677e+01  -9.616610e+00
   2.977489e+01  -6.281469e+00
  -2.443847e+01   5.045126e+01
  -1.916667e+02  -3.419159e+01
  -1.614012e+02  -1.207133e+02
   5.690335e+01  -2.154797e+02
   3.416082e+02  -1.683764e+02
   2.620806e+02   9.182366e+01
   2.529596e+00   3.028632e+02
  -2.707371e+02   3.297339e+02
  -2.957002e+02   1.363696e+02
  -1.522417e+02  -1.356560e+02
  -1.877917e+01  -3.580147e+02
   2.543570e+01  -2.722567e+02
   1.886241e+01  -1.688206e+02
   4.721169e+01  -1.032704e+02
   1.466581e+02  -1.078756e+02
   2.207008e+02  -4.335892e+01
   1.768685e+02   1.032970e+02
   1.026152e+02   2.534187e+02
  -8.813995e+01   1.373299e+02
  -1.497925e+02  -1.329288e+01
  -1.256806e+02  -1.873547e+02
   4.072202e+01  -1.625961e+02
   2.030423e+02  -6.933466e+01
   3.316934e+02   1.206784e+02
   1.747881e+02   2.800784e+02
  -3.762633e+01   1.866745e+02
  -1.431085e+02   1.859932e+02
  -1.391087e+02   8.158918e+01
  -1.075877e+02   6.458029e+01
  -2.458448e+02   3.793273e+00
  -3.389895e+02  -1.539751e+02
  -3.104565e+02  -2.349457e+02
   3.097695e+00  -3.594120e+02
   3.709557e+02  -3.688249e+02
   4.080025e+02  -2.284165e+02
   2.327613e+02   6.678250e+01
   1.443891e+01   1.797218e+02
  -4.202334e+01   1.367235e+02
   2.319249e+01   4.826756e+01
   7.702647e+01  -1.142067e+01
   7.055573e+01   5.405257e+01
   3.007226e+01   1.238044e+02
  -7.847035e+01   1.166845e+02
  -6.857991e+01  -4.179087e+01
  -1.396976e+01  -6.940340e+01
   1.275827e+02  -2.898803e+01
   1.623606e+02   2.333291e+02
   7.551891e+00   2.673269e+02
  -1.926975e+02   2.478563e+02
  -3.567151e+02  -2.231187e+01
  -2.669537e+02  -2.415898e+02
  -2.439179e+01  -2.541336e+02
   1.039503e+02  -1.206986e+02
   1.336678e+02   2.825537e+01
   3.847021e+01   1.430086e+01
  -2.920000e+01  -7.592817e+01
   1.095781e+01  -8.328939e+01
   1.074880e+02  -2.818183e+01
   9.498881e+01   1.277224e+01
   3.149050e+01   4.435828e+01
  -8.200652e+01  -5.051092e+01
  -4.247295e+01  -7.827539e+01
   1.136359e+02  -5.855555e+01
   2.412663e+02  -1.801437e+01
   2.545882e+02   1.831709e+02
  -1.052454e+01   2.516208e+02
  -1.992430e+02   1.760878e+02
  -2.269559e+02   8.452111e+01
  -1.068299e+02  -2.639571e+01
   1.618752e+01  -9.508128e+01
   5.736096e+01  -3.194297e+01
  -3.258500e+01   5.655353e+01
  -1.540828e+02   2.355164e+01
  -1.490527e+02  -8.605371e+01
  -5.504738e+01  -1.277417e+02
   7.127688e+01  -1.139666e+02
   7.980227e+01  -3.771633e+01
   4.660939e+01   1.683088e+01
  -1.403757e+01  -5.638353e+01
  -3.211351e+01  -6.407901e+01
   1.170409e+02  -6.858444e+01
   1.718612e+02   2.177213e+01
   1.555804e+02   1.205256e+02
   1.772679e+01   1.494359e+02
  -1.263973e+02   1.002180e+02
  -1.106298e+02   2.736212e+01
  -6.450500e+01  -9.823504e+01
   5.632236e+01  -5.977713e+01
   4.101185e+01   8.462934e+00
  -6.764570e+00  -4.457163e+00
  -4.461438e+00  -6.044460e+00
  -6.619828e+00  -1.775357e+01
   1.186932e+02  -5.824553e-01
   8.605792e+01   1.096368e+02
  -7.282635e+00   1.483561e+02
  -1.000887e+02   1.353292e+02
  -1.632965e+02   9.575488e-01
  -1.697829e+02  -1.259148e+02
  -3.715524e+01  -1.497312e+02
   1.014135e+02  -1.373687e+02
   1.138049e+02  -4.473323e+01
   9.570487e+01   3.507619e+01
   6.925334e+01  -5.350968e+00
   8.359099e+01  -1.058631e+01
   9.081078e+01  -1.049445e+01
   3.298119e+01   7.488409e+01
  -4.978736e+01   9.849677e+01
  -1.133607e+02   6.105128e+01
  -8.723207e+01  -5.273076e+01
  -1.016270e+01  -1.286276e+02
   1.512279e+02  -7.956737e+01
   1.470344e+02   6.825950e+01
   8.245503e+01   2.016731e+02
  -1.147898e+02   1.664246e+02
  -2.245860e+02   9.908332e+01
  -2.051928e+02  -7.245947e+01
  -9.513244e+01  -1.479318e+02
   1.207285e+01  -1.214314e+02
   9.030347e+01  -7.274476e+01
   3.935489e+01  -6.820376e+01
   5.098250e+01  -9.519609e+01
   6.825903e+01  -8.710745e+01
   1.305456e+02   2.452366e+01
   8.524696e+01   1.283739e+02
   2.391092e+01   2.051581e+02
  -8.199684e+01   9.351086e+01
  -1.453456e+02   4.077890e+00
  -1.292459e+02  -9.785175e+01
  -2.377309e+01  -1.427587e+02
   7.727274e+01  -6.912380e+01
   5.941952e+01   4.887899e+01
   7.078678e+00   1.342883e+01
  -3.746723e+01   2.826625e+01
   3.060533e+01   2.031070e+01
   9.711486e+01   4.881284e+01
   4.085666e+01   8.677281e+00
  -4.532808e+01   3.068827e+01
  -1.753053e+02  -7.037347e+00
  -1.298180e+02  -3.879528e+01
   2.495686e+01  -7.439929e+01
   1.377424e+02  -4.915308e+01
   1.395091e+02  -9.698790e+00
   4.294547e+01   5.402068e+01
  -5.334187e+01   2.957923e+01
  -6.009270e+01  -2.694300e+01
  -1.714132e+01  -6.899687e+01
   4.032013e+01  -8.072545e+01
   3.743613e+01   3.286514e+00
   8.202211e+01   5.438369e+01
   4.953141e+01   6.762341e+01
   4.820637e+01  -5.068058e+00
   2.866335e+01  -5.746730e+00
   6.221149e+01   6.245401e+01
   2.356688e+00   1.412202e+02
  -1.488694e+02   1.350544e+02
  -1.870182e+02   3.327299e+01
  -8.962186e+01  -5.664456e+01
   1.188841e+00  -1.037393e+02
   5.922745e+01  -6.697836e+01
   1.616515e+01  -2.318753e+00
  -6.422266e+01   1.171499e+01
  -1.197747e+02  -5.210318e+01
  -1.519788e+01  -1.044221e+02
   7.380610e+01  -9.083807e+01
   1.426801e+02  -2.243030e+01
   1.365464e+02   3.278433e+01
   3.302650e+01   7.207604e+01
  -7.526371e+01   4.181069e+01
  -6.139711e+01   6.889045e+00
  -3.504592e+00   5.389435e+00
   8.951726e+01   2.106401e+01
   6.374503e+01   1.061715e+02
  -6.908603e+01   1.565130e+02
  -1.339247e+02   8.714152e+01
  -1.110271e+02  -8.784047e+01
  -2.704656e+01  -1.569224e+02
   9.754301e+01  -9.838267e+01
   7.314163e+01   2.421174e+01
   1.738862e+01   1.144602e+02
  -1.130004e+01   5.474430e+01
  -7.270161e+01  -4.261205e+00
  -1.372705e+01  -3.230224e+01
  -3.017877e+01  -1.983300e+01
  -1.907687e+01  -8.161718e+00
  -3.561342e+01  -2.170684e+01
  -7.857488e+01  -6.006615e+01
  -6.778175e+00  -6.948651e+01
   6.424151e+01  -2.127466e+01
   1.307440e+02   1.869396e+01
   6.800418e+01   4.992855e+01
   1.316274e+01   6.513383e+01
  -7.124528e+01   2.740461e+01
  -9.068455e+01   7.444279e+00
  -1.894817e+01   1.351370e+01
   2.756936e+01  -2.848924e+01
  -1.192980e+01  -2.772635e+00
  -3.050110e+01   9.101450e+00
   6.494285e+00  -1.298130e+01
   7.498147e+01  -4.425010e+00
   9.646985e+01   3.782621e+01
   1.842000e+01   5.923218e+01
  -1.161543e+02   1.188966e+02
  -1.816691e+02   4.511770e+01
  -9.597743e+01  -4.673270e+01
  -3.952286e+01  -1.313098e+02
   6.867641e+01  -1.585208e+02
   1.284907e+02  -5.430458e+01
   8.023469e+01   3.119601e+01
   2.958175e+01   5.132329e+01
  -1.015871e+01   5.691906e+00
   7.568369e+00  -1.555155e+01
   2.487563e+01   5.571726e+01
   1.639086e+01   4.124575e+01
  -3.054980e+01   2.628916e+01
  -7.501191e+01  -2.103192e+00
  -8.027198e+01  -7.877240e+01
  -1.444528e+01  -1.129796e+02
   3.109097e+01  -2.961716e+01
   8.868810e+01   4.945359e+01
   3.159784e+01   6.412262e+01
  -4.204801e+01   8.370059e+01
  -9.532466e+01  -8.541096e+00
  -4.832483e+01  -7.024101e+01
   4.397446e+01  -3.165391e+01
   2.260399e+01  -1.480253e+01
   5.262176e+00  -2.802634e+01
  -5.747310e+01  -7.715995e-01
  -2.418500e+01  -9.265671e+00
   6.149315e+01  -5.289886e+01
   1.080367e+02  -5.435940e+01
   5.912244e+01   4.319260e+01
   3.217898e+00   7.222386e+01
  -3.451642e+01   7.132545e+01
  -3.403173e+01   2.412008e+01
  -1.537173e+01  -5.468422e+01
   3.998202e+01  -4.175437e+01
   3.785692e+01  -2.188375e+00
   3.118805e+01   4.718961e+01
   6.098706e+00   4.819974e+01
  -1.761850e+01  -9.949941e+00
  -2.003981e+01  -2.051189e+01
   9.287043e+00  -8.306472e+00
  -3.772171e-01   2.880308e+01
   1.186469e+01   1.229159e+01
  -2.002781e+01   5.993343e+00
   1.934992e+01  -5.949770e+01
   2.015610e+01  -2.997971e+01
   2.664555e+01   2.850200e+01
   1.997147e+01   4.405709e+01
  -4.754978e+01   2.419629e+01
  -5.181679e+01  -3.535345e+01
  -4.559633e+01  -3.107140e+01
   6.338661e+01  -3.251034e+01
   9.287446e+01  -5.464389e+00
   5.587169e+01   3.096203e+01
  -1.346925e+01   4.444436e+01
  -7.060829e+01   4.045994e+00
  -2.500908e+01  -1.150010e+01
   2.200140e+01  -2.512760e+01
   3.362138e+01   1.256243e+01
  -1.164897e+01   7.686425e+00
  -1.084782e+02  -2.526016e+01
