
 $NMID
 id='ANONYMOUS ', fmtdat='(2E16.6)'
 volume=1.0
 tramp=1.0
 $END
  -3.524676e+03  -1.515675e+02
  -1.604346e+03  -1.258368e+03
  -5.317550e+01  -2.209581e+03
   7.333477e+02  -1.084583e+03
   7.879596e+02  -2.219855e+02
  -1.889815e+01   1.281413e+02
  -2.399415e+02  -1.776323e+02
  -1.512552e+02  -4.030089e+02
   2.629753e+02  -5.125372e+02
   5.281623e+02  -1.441793e+02
   4.184916e+02   5.238723e+02
   1.793814e+01   5.868581e+02
  -3.105215e+02   1.754365e+02
  -2.133917e+02  -2.859326e+02
   2.689937e+00  -5.050470e+02
   2.927370e+02  -9.082277e+01
   2.591088e+02   3.503046e+02
  -6.103484e+01   4.230336e+02
  -4.052184e+02   2.716541e+02
  -3.612497e+02  -2.197058e+02
  -1.346091e+02  -3.040406e+02
   1.006657e+02  -2.231765e+02
   3.237742e+01  -6.092928e+01
  -2.132191e+02  -1.531194e+02
  -2.074756e+02  -2.507874e+02
   4.880640e+01  -3.708619e+02
   3.608067e+02  -4.830809e+01
   5.270568e+02   1.968719e+02
   1.711402e+02   2.994085e+02
  -3.411480e+02   1.627147e+02
  -4.311065e+02  -1.859808e+02
  -1.534158e+02  -3.107587e+02
   3.168840e+02  -3.703880e+02
   4.446253e+02  -9.517235e+01
   2.626609e+02   1.238515e+02
   6.203455e+01   2.944157e+02
  -3.384766e+01   1.324766e+02
   6.866555e+01  -4.980600e+01
   2.271874e+02  -8.856943e+01
   1.829982e+02   1.813563e+02
  -1.378371e+01   4.366775e+02
  -2.244728e+02   3.635837e+02
  -2.347704e+02   2.357579e+01
  -2.173144e+01  -2.684465e+02
   8.936375e+01  -1.188471e+02
   9.795403e+01   2.264196e+02
  -1.393986e+02   3.167807e+02
  -4.269041e+02   7.520899e+01
  -3.515357e+02  -2.989407e+02
  -1.342329e+02  -4.278875e+02
   2.187022e+02  -1.282250e+02
   5.098854e+02   6.525323e+01
   2.687006e+02   2.422785e+02
   1.651582e+01   1.452799e+02
  -1.910191e+02   4.055172e+01
  -2.017376e+02   1.262259e+01
  -1.254405e+00  -2.586824e+01
   9.946180e+00   4.868315e+01
  -7.108976e+01   3.063082e+01
  -2.062319e+02  -4.451282e+01
  -1.126832e+02  -2.107563e+02
   1.259168e+02  -2.322247e+02
   3.186133e+02  -1.290693e+02
   2.939277e+02   1.165024e+02
  -1.372718e+00   3.148651e+02
  -1.951780e+02   2.604259e+02
  -3.150387e+02   1.401519e+02
  -1.687015e+02  -1.331661e+02
  -3.681391e+01  -3.035267e+02
   2.766608e+01  -2.157547e+02
  -5.394179e+01  -1.415308e+02
   4.263703e+01  -1.306039e+02
   1.198711e+02  -6.541005e+01
   2.264678e+02  -3.475795e+01
   2.448099e+02   1.297411e+02
   4.085995e+01   1.996040e+02
  -4.897821e+01   1.518052e+02
  -1.486444e+02  -3.934327e+01
  -1.212110e+02  -2.174987e+02
   5.822680e+01  -2.091666e+02
   2.659558e+02  -4.052419e+01
   2.917772e+02   1.512722e+02
   1.566783e+02   2.617419e+02
  -2.107392e+01   2.089824e+02
  -1.354485e+02   1.109433e+02
  -1.036506e+02   6.323902e+01
  -1.333844e+02   1.295439e+02
  -2.711812e+02  -3.521527e+00
  -3.528921e+02  -6.554846e+01
  -2.894917e+02  -2.850727e+02
   1.046827e+01  -3.572264e+02
   3.809879e+02  -3.674579e+02
   4.333079e+02  -1.317034e+02
   2.441161e+02   7.531522e+01
  -2.350336e+01   2.461730e+02
  -5.472122e+01   1.808894e+02
   1.725323e+01  -3.123327e+00
   9.350335e+01  -1.348343e+01
   9.049049e+01   7.897912e+01
   6.422337e+00   1.455453e+02
  -1.087114e+02   9.463807e+01
  -7.913098e+01  -7.513371e+01
   3.192867e+01  -1.189434e+02
   1.777027e+02   2.482785e+01
   1.488045e+02   2.416835e+02
   2.734568e+00   3.247506e+02
  -2.530056e+02   2.164324e+02
  -3.514410e+02  -1.745013e+01
  -2.801700e+02  -2.778673e+02
  -4.064231e+01  -2.832023e+02
   1.180917e+02  -1.286968e+02
   1.435350e+02  -3.032051e+00
   2.628309e+01   4.576615e+01
  -4.613231e+01  -7.054689e+01
   3.600935e+01  -1.310755e+02
   1.155780e+02  -5.257796e+01
   1.010372e+02   2.752059e+01
   5.466378e+01   4.419567e+01
  -1.013299e+02   5.544212e+00
  -3.092459e+01  -8.611867e+01
   1.451608e+02  -8.156679e+01
   3.711975e+02  -9.455274e+00
   2.473975e+02   1.830925e+02
   1.021662e+01   2.274767e+02
  -2.178865e+02   2.412385e+02
  -2.847263e+02   6.545799e+01
  -9.906658e+01  -5.294927e+01
   4.074634e+01  -7.618367e+01
   6.279255e+01  -1.072194e+01
  -4.549426e+01   8.965562e+01
  -1.584040e+02   4.568772e+01
  -1.461245e+02  -9.323919e+01
  -1.851558e+01  -1.688785e+02
   1.025172e+02  -1.364044e+02
   1.130493e+02  -2.718913e+01
   4.143813e+01   3.980036e+01
  -6.556134e+01  -3.950530e+01
  -3.686541e+01  -9.839755e+01
   7.003307e+01  -1.177630e+02
   1.872650e+02   3.516197e+00
   1.401948e+02   7.926708e+01
   3.344607e+01   1.845733e+02
  -1.547604e+02   1.523788e+02
  -1.588056e+02   1.124664e+01
  -2.588742e+01  -5.103176e+01
   4.117469e+01  -6.121438e+01
   6.209912e+01  -5.043650e+00
  -2.209330e+01   2.180302e+01
  -3.563831e+01   5.257395e+00
  -9.355579e+00  -4.525445e+00
   1.279526e+02  -1.095146e+01
   9.693681e+01   8.510041e+01
  -3.132228e+00   1.518763e+02
  -9.601073e+01   1.134889e+02
  -2.274980e+02  -7.923597e+00
  -1.833567e+02  -1.267001e+02
  -2.887555e+01  -1.644727e+02
   9.743004e+01  -1.036501e+02
   1.013330e+02  -4.975297e+01
   5.820603e+01   5.882335e+01
   5.615249e+01   6.153443e+01
   7.909487e+01  -2.174994e+01
   1.230848e+02   5.400417e+00
   3.352118e+01   6.154652e+01
  -5.321667e+01   8.426812e+01
  -8.460816e+01   3.160178e+01
  -1.042812e+02  -2.942481e+01
   1.629912e+01  -1.046604e+02
   1.519438e+02  -4.025505e+01
   1.765166e+02   2.791475e+01
   9.379227e+01   2.120924e+02
  -1.239300e+02   1.886500e+02
  -2.452742e+02   5.789586e+01
  -1.868011e+02  -1.006276e+02
  -9.429585e+01  -1.621970e+02
   4.185348e+01  -1.338558e+02
   9.540098e+01  -3.389420e+01
   3.506989e+01  -6.273744e+01
   3.473431e+01  -8.646932e+01
   7.184145e+01  -8.740521e+01
   1.219130e+02  -2.225877e+00
   8.289369e+01   1.297564e+02
   2.883064e+01   2.132102e+02
  -9.175037e+01   1.349360e+02
  -1.863654e+02   1.286028e+01
  -8.973566e+01  -1.371739e+02
  -9.648393e-01  -1.124862e+02
   6.987244e+01  -5.970990e+01
   4.793951e+01   2.543585e+01
  -4.371384e+01   5.951765e+01
  -2.053900e+01   5.269644e+01
   2.284517e+01   3.911841e+00
   1.080763e+02   1.901813e+01
   3.814399e+01   6.080740e+01
  -6.405020e+01   5.789584e+01
  -2.427780e+02   2.780729e+01
  -1.580780e+02  -5.571755e+01
   8.345863e+00  -1.018105e+02
   1.082340e+02  -5.769547e+01
   1.766276e+02   2.116822e+01
   5.191501e+01   3.730886e+01
  -7.252392e+01   3.917199e+01
  -4.341293e+01  -1.501654e+01
  -1.124006e+00  -6.627394e+01
   4.544454e+01  -7.559005e+01
   4.975123e+01  -2.015880e+00
   4.951308e+01   5.329193e+01
   8.729736e+01   5.041362e+01
   2.186970e+01  -1.821230e+00
   5.494248e+01  -8.324027e+00
   6.461590e+01   5.270810e+01
   8.133428e-01   1.314906e+02
  -1.242021e+02   1.498407e+02
  -1.849992e+02   4.448132e+01
  -1.077649e+02  -7.983613e+01
  -1.815191e+01  -1.111672e+02
   7.576519e+01  -4.643214e+01
   3.967780e+01   2.262394e+01
  -2.485567e+01   9.987648e+00
  -1.266202e+02  -2.488692e+01
  -4.535726e+01  -9.363779e+01
   6.093626e+01  -8.371964e+01
   1.640924e+02  -4.180686e+01
   1.353180e+02   4.579178e+01
   7.795408e+00   8.159433e+01
  -7.264713e+01   6.585914e+01
  -3.116218e+01   1.931408e+01
   2.341296e+01  -2.668325e+01
   5.573994e+01   2.139047e+01
   7.861051e+01   9.191877e+01
  -6.208028e+01   1.208376e+02
  -1.882280e+02   3.855005e+01
  -1.164369e+02  -7.066669e+01
  -1.636054e+01  -1.922357e+02
   5.628472e+01  -1.260064e+02
   8.324144e+01   1.880492e+01
   5.213304e+01   1.236539e+02
  -2.116318e+01   9.533144e+01
  -4.536143e+01   3.320437e+01
  -2.615307e+01  -3.836622e+01
  -1.184036e+01  -1.872352e+00
   7.075087e-01   5.931559e+00
  -3.979111e+01  -2.490020e+01
  -5.728054e+01  -8.361563e+01
  -3.103773e+01  -1.093205e+02
   5.949956e+01  -5.002024e+01
   8.381654e+01   3.070588e+01
   6.569329e+01   5.434539e+01
   4.571012e+01   3.709050e+01
  -7.620548e+01   2.100357e+01
  -6.860055e+01   2.547537e+00
  -4.289720e-01   3.101920e+00
   3.975500e+01  -1.198215e+01
   1.251923e+00   1.271020e+01
  -2.809165e+01   1.253091e+01
   3.015605e-01  -1.216658e+01
   7.433867e+01   9.507614e-01
   5.278264e+01   2.816731e+01
   1.553511e+01   4.385031e+01
  -1.002009e+02   1.074991e+02
  -1.629445e+02   6.902855e+01
  -1.060567e+02  -4.654207e+01
  -3.147114e+01  -1.325048e+02
   7.463159e+01  -1.336059e+02
   1.259725e+02  -4.531081e+01
   7.261388e+01   7.459886e+00
   2.360611e+01   2.533035e+01
   3.781896e-02   4.893834e+00
   8.895533e+00   3.518716e+01
   7.443458e+01   5.652551e+01
   5.193125e+00   6.910124e+01
  -3.289877e+01   8.339011e+01
  -7.563657e+01  -4.184204e+01
  -9.186739e+01  -8.947890e+01
  -3.073604e+01  -9.714534e+01
   5.348124e+01  -1.489193e+01
   7.694685e+01   4.759954e+01
   4.777856e+01   7.113167e+01
  -4.855813e+01   6.527925e+01
  -9.928687e+01  -1.541533e+01
  -3.491001e+01  -3.725597e+01
   4.633021e+01  -4.495185e+01
   2.259701e+01  -4.022126e+01
  -1.129373e+01   3.669455e+00
  -8.311449e+01   2.503488e-01
  -7.719703e+00  -1.142528e+01
   6.836123e+01  -3.262790e+01
   1.064166e+02  -6.495693e+01
   5.207162e+01   1.474116e+01
  -2.717161e+01   7.701978e+01
  -4.117915e+01   1.152520e+02
  -6.335744e+01   1.675520e+01
  -3.236463e+01  -4.777809e+01
   2.455101e+01  -2.955986e+01
   6.510429e+00   2.533853e+01
   3.003514e+01   6.341619e+01
  -1.047961e+01   3.672469e+01
  -3.494782e+01  -3.541647e+01
  -4.753461e+01  -3.316925e+01
  -3.342493e+01   3.202468e+00
   1.779616e+01   1.360897e+01
  -2.919765e+01   1.205221e+01
  -2.989947e-01  -2.959701e+01
  -2.147656e+01  -6.714987e+01
   4.452706e+00  -1.079565e+01
   6.081448e+01   4.168036e+01
   1.022492e+01   5.345415e+01
  -4.421684e+01   1.302450e+01
  -5.553851e+01  -2.704151e+01
  -4.355310e+01  -2.830206e+01
   4.457170e+01  -3.048394e+01
   1.064606e+02   8.247994e+00
   1.136593e+01   2.021414e+01
  -4.325421e+01   8.416781e+01
  -6.573199e+01   6.928892e+00
  -5.900566e+00  -5.810822e+00
   2.066617e+01  -1.022093e+01
   4.336140e+01  -4.766533e+00
  -6.159092e+00   2.398298e+01
  -4.217603e+01   2.397680e+01
