
 $NMID
 id='ANONYMOUS ', fmtdat='(2E16.6)'
 volume=1.0
 tramp=1.0
 $END
   3.390712e+03   4.071492e+00
   1.822501e+03   1.248501e+03
  -9.140951e+01   2.075481e+03
  -1.022179e+03   1.074034e+03
  -6.814614e+02   1.466907e+02
  -5.345518e+01  -6.952197e+01
   2.263792e+02   8.485280e+01
   1.363986e+01   4.555785e+02
  -3.147225e+02   5.492187e+02
  -4.914587e+02   1.622157e+02
  -4.620591e+02  -4.952976e+02
   3.745202e+01  -6.570248e+02
   3.192848e+02  -1.526288e+02
   2.532803e+02   2.996749e+02
  -3.596896e+01   4.722084e+02
  -3.270604e+02   6.801316e+01
  -2.717589e+02  -3.944029e+02
   3.772610e+01  -5.283911e+02
   4.577976e+02  -3.312436e+02
   4.138055e+02   2.046748e+02
   1.384071e+02   3.058770e+02
  -1.136040e+02   2.290327e+02
  -5.976041e+01   8.373639e+01
   1.577380e+02   9.441057e+01
   2.393643e+02   1.601037e+02
  -3.781853e+01   3.256733e+02
  -3.607302e+02   5.961172e+01
  -6.045288e+02  -2.158763e+02
  -1.515569e+02  -3.504099e+02
   2.944560e+02  -1.487271e+02
   5.000566e+02   1.951610e+02
   1.997274e+02   3.311356e+02
  -3.175192e+02   3.516608e+02
  -4.106363e+02   1.036976e+02
  -2.967859e+02  -1.030297e+02
  -3.128637e+01  -3.067907e+02
   4.722832e-01  -2.062144e+02
  -6.935605e+01   6.791532e+01
  -2.037098e+02   1.387642e+02
  -2.551053e+02  -1.951296e+02
  -5.027073e+01  -4.853455e+02
   2.210510e+02  -3.968295e+02
   2.995117e+02  -6.068559e+01
   5.885533e+01   2.222395e+02
  -6.521110e+01   1.928592e+02
  -1.130363e+02  -2.455828e+02
   1.031541e+02  -2.993035e+02
   4.634154e+02  -7.640990e+01
   4.013402e+02   2.485004e+02
   1.549070e+02   4.266507e+02
  -1.926929e+02   1.875753e+02
  -5.080313e+02  -6.728293e+01
  -3.034290e+02  -2.017237e+02
  -1.204602e+00  -1.456445e+02
   2.214440e+02  -6.647203e+01
   2.074071e+02   8.088851e-01
   1.879013e+01   4.177751e+01
  -2.533165e+00  -4.206548e+01
   1.133470e+02  -3.205330e+01
   2.583645e+02   5.757645e+01
   1.182853e+02   1.951000e+02
  -1.073280e+02   2.462733e+02
  -3.127936e+02   1.408836e+02
  -2.721192e+02  -9.556986e+01
   1.942470e+01  -3.199054e+02
   2.287768e+02  -2.887395e+02
   2.884892e+02  -1.515850e+02
   1.899015e+02   1.084191e+02
   4.663083e+01   3.150072e+02
  -4.701307e+01   2.577581e+02
   3.796972e+01   1.746330e+02
  -1.663073e+01   1.113454e+02
  -1.420839e+02   8.232521e+01
  -2.510897e+02   6.832220e+01
  -2.226168e+02  -1.437264e+02
  -7.425767e+01  -2.333396e+02
   9.200742e+01  -1.691046e+02
   1.606347e+02   3.934496e+01
   1.314717e+02   2.359034e+02
  -5.739155e+01   2.045522e+02
  -2.243692e+02   4.498178e+01
  -3.059289e+02  -1.550164e+02
  -1.400390e+02  -2.178502e+02
   3.073886e+01  -2.475146e+02
   1.268049e+02  -1.484921e+02
   1.332799e+02  -5.513520e+01
   1.337684e+02  -8.362154e+01
   2.803039e+02  -1.867666e+01
   3.790602e+02   7.836503e+01
   3.078763e+02   2.698818e+02
  -7.346760e+00   3.594170e+02
  -3.280561e+02   3.483672e+02
  -4.181259e+02   1.680317e+02
  -2.454613e+02  -7.100273e+01
  -4.836733e+00  -2.320633e+02
   8.567596e+01  -2.019602e+02
   3.820590e+01  -4.757510e+01
  -9.086871e+01   7.218389e+01
  -1.000790e+02  -2.763671e+01
   1.255886e+00  -1.268296e+02
   1.034887e+02  -1.437850e+02
   1.063067e+02   4.638475e+01
  -1.737771e+01   1.243398e+02
  -1.569566e+02  -7.677391e+00
  -1.275449e+02  -1.908808e+02
  -6.203105e+00  -3.140133e+02
   2.581893e+02  -2.267792e+02
   3.101782e+02   1.781697e+01
   2.785659e+02   2.725301e+02
   4.205384e+01   2.348190e+02
  -9.809632e+01   1.291881e+02
  -1.088892e+02  -4.930135e+00
  -2.383057e+01  -2.351145e+01
   3.469255e+01   8.487043e+01
   6.744742e-02   1.113770e+02
  -1.197863e+02   3.196132e+01
  -1.112282e+02  -2.328520e+01
  -4.450434e+01  -4.063853e+01
   5.710762e+01  -7.434115e+00
   3.597131e+01   5.744339e+01
  -1.032236e+02   7.378622e+01
  -3.440073e+02  -1.241252e+01
  -2.270593e+02  -1.472836e+02
   2.176340e+01  -2.352406e+02
   1.604566e+02  -2.174383e+02
   2.350380e+02  -7.805912e+01
   1.090062e+02   8.062609e+00
  -2.341885e+01   8.992788e+01
  -7.727745e+01   8.210457e+00
   6.293238e+01  -9.108622e+01
   1.280867e+02  -4.758780e+01
   1.885630e+02   9.585151e+01
   3.529906e+01   1.465631e+02
  -9.356158e+01   1.468346e+02
  -1.081277e+02   3.275381e+01
  -6.032902e+01  -4.020863e+01
   1.289193e+01   3.181621e+01
   3.388831e+01   7.943038e+01
  -1.032318e+02   1.150087e+02
  -1.839726e+02  -3.848960e+00
  -1.653174e+02  -8.983273e+01
  -4.465552e+01  -1.885206e+02
   1.376389e+02  -1.307848e+02
   1.340945e+02  -3.892624e+01
   1.218470e+01   6.099191e+01
  -3.892122e+01   7.236374e+01
  -3.220359e+01   1.597132e+01
   2.519628e+01  -1.680845e+01
   4.394059e+01  -4.034727e+01
   2.937900e+01   4.337268e+01
  -8.096516e+01   2.101152e+01
  -5.894211e+01  -4.612106e+01
  -6.070814e+00  -1.466099e+02
   1.076787e+02  -1.513763e+02
   1.975815e+02   1.045844e+01
   1.639708e+02   1.329812e+02
   5.969268e+01   1.445126e+02
  -8.525170e+01   1.053334e+02
  -1.033977e+02   6.718409e+00
  -7.692338e+01  -3.643250e+01
  -4.728592e+01  -2.578591e+01
  -5.770397e+01   4.739431e+01
  -7.464528e+01   1.383285e+01
  -2.382698e+01  -3.644068e+01
   5.040661e+01  -9.389530e+01
   1.101299e+02  -7.839420e+01
   9.388357e+01   5.707225e+00
   1.695986e+01   1.334230e+02
  -1.313034e+02   8.005248e+01
  -1.321531e+02  -3.016204e+01
  -1.141860e+02  -2.050295e+02
   6.157142e+01  -1.791768e+02
   2.560911e+02  -6.268962e+01
   2.269445e+02   8.184501e+01
   8.174853e+01   1.506810e+02
  -2.342339e+01   1.413797e+02
  -4.426059e+01   5.687734e+01
  -6.093135e+01   6.261692e+01
  -5.073893e+01   1.068195e+02
  -5.900294e+01   7.564551e+01
  -1.065670e+02  -4.038500e-01
  -1.238345e+02  -8.471245e+01
  -3.504494e+01  -2.056284e+02
   6.181139e+01  -1.158343e+02
   1.515082e+02  -9.459725e+00
   1.080786e+02   9.632547e+01
  -1.706103e+01   1.316068e+02
  -6.353785e+01   6.118172e+01
  -4.721248e+01  -1.341562e+01
   2.437102e+01  -3.653130e+01
   2.417340e+01  -7.436598e+01
  -2.711604e+01  -2.087807e+00
  -1.082581e+02  -3.940175e+00
  -3.006621e+01  -3.929433e+01
   7.961811e+01  -3.376251e+01
   1.850309e+02   7.693208e+00
   1.573936e+02   4.407986e+01
   4.788330e+00   8.335183e+01
  -1.077710e+02   1.079245e+02
  -1.515838e+02  -9.073364e-01
  -3.133408e+01  -2.244797e+01
   3.201657e+01  -5.634761e+01
   5.128539e+01  -7.600587e+00
   3.068053e+01   6.145541e+01
  -5.307544e+01   9.282503e+01
  -6.549981e+01  -4.404202e+00
  -6.976033e+01  -3.123510e+01
  -8.403668e+01  -4.249067e+01
  -6.966341e+01   2.425606e+00
  -5.332243e+01  -8.329079e+00
  -2.532088e+01  -4.350048e+01
   8.092305e+00  -1.591299e+02
   1.092098e+02  -1.361042e+02
   1.687970e+02  -4.521413e+01
   9.524775e+01   5.660798e+01
   3.263396e+01   1.250284e+02
  -7.790609e+01   3.918643e+01
  -4.191278e+00   1.023177e+01
   7.325866e+01  -3.146581e+01
   1.215622e+02   1.331879e+01
   5.246401e+01   1.080628e+02
  -5.121517e+01   6.514425e+01
  -1.611041e+02   5.536759e+01
  -1.142048e+02  -1.071123e+01
  -3.337875e+01  -7.436157e+01
   8.329970e+01  -4.995429e+01
   2.913422e+01   6.448403e+00
  -4.644438e+01   3.579444e+01
  -3.495044e+01   1.853808e+00
  -5.674205e+01  -8.709066e+01
   4.888248e+01  -1.600352e+02
   1.559935e+02  -4.664364e+01
   1.368171e+02   9.516239e+01
   1.084096e+01   1.558346e+02
  -3.741255e+01   1.254006e+02
  -1.080003e+02  -9.556753e+00
  -6.514133e+01  -1.220896e+02
   1.391933e+00  -9.278630e+01
   5.234259e+01  -2.690177e+01
   4.476116e+01   3.836101e+01
   4.958779e+01   1.347719e+01
  -1.027689e+01  -6.419611e+00
   4.387317e+00   2.052245e+01
   4.601332e+01   8.987964e+01
   2.112328e+01   9.647711e+01
  -4.052392e+01   4.849474e+01
  -1.381799e+02  -2.056705e+01
  -9.214023e+01  -6.006315e+01
  -1.823592e+01  -5.559850e+01
   7.765898e+01  -4.732277e+01
   7.018557e+01   4.251108e+01
   9.908501e+00   1.724813e+01
  -1.411584e+01   1.430154e+01
  -1.166213e+01  -9.901389e+00
   2.746157e+01  -4.662915e+01
  -9.390591e+00  -9.638774e+00
  -5.233814e+01  -2.578387e-01
  -7.909267e+01  -7.172183e-01
  -1.074101e+01  -5.794147e+01
   9.393575e+01  -1.207946e+02
   1.652804e+02  -8.258107e+01
   1.290773e+02   3.943494e+01
   3.446355e+01   1.255655e+02
  -7.014346e+01   1.704653e+02
  -1.091455e+02   8.897610e+01
  -5.547348e+01  -8.433242e+00
  -4.510053e+01  -2.482308e+01
  -8.929086e+00  -5.471746e-01
   1.829743e+00  -3.872603e+01
  -2.879149e+01   8.845478e+00
  -3.392319e+01  -3.878981e+01
   5.825406e+00  -5.986711e+01
   5.424325e+01   1.872273e+01
   8.384563e+01   6.252532e+01
   4.063815e+01   9.320490e+01
  -4.077289e+01   4.454820e+01
  -4.100219e+01  -7.069415e+01
  -5.640626e+01  -6.163846e+01
   5.702165e+01  -6.954356e+01
   8.383824e+01   1.471414e+01
   2.220405e+01   9.747316e+00
  -5.339656e+00   6.526958e+01
  -4.190806e+01   5.659674e+01
   2.027799e+01   5.319424e+00
   7.813269e+01  -3.676196e+01
   2.584243e+01   3.568692e+01
  -7.843926e+01   6.077451e+01
  -1.192094e+02   4.250531e+01
  -7.217337e+01  -2.770069e+01
   1.884558e+01  -9.826690e+01
   7.006894e+01  -7.984324e+01
   3.319691e+01  -1.962439e+01
   1.292129e+01   6.661430e+01
  -2.548911e+01   4.114547e+01
  -2.896550e+01  -2.224269e+01
  -7.029539e-01  -3.607075e+01
  -8.619297e+00  -3.325955e+01
   2.632309e+01   2.687228e-01
   3.119447e+01   3.277673e+01
  -6.433114e+00   8.852167e+00
  -5.068841e-01  -2.198865e+01
   8.200629e+00   6.079649e+00
  -1.096329e+01   6.657764e+00
   3.283412e+01   7.694965e+01
  -1.120597e+01  -9.958339e+00
  -3.187532e+01  -4.772262e+01
  -1.061061e+01  -4.825445e+01
   3.237222e+01  -5.202336e+01
   5.482024e+01   2.629093e+01
   1.880942e+01   2.848059e+01
  -5.971513e+01   1.721260e+01
  -8.154170e+01  -6.120836e+00
  -2.877848e+01  -1.467120e+01
   5.081127e+01  -2.990664e+01
   7.200367e+01  -2.699777e+01
   2.292746e+01  -2.864352e+01
  -1.146621e+01   2.245156e+01
  -1.298303e+01  -1.073607e+01
   3.694321e+01  -1.928963e+01
   6.004774e+01  -1.404128e+01
