
 $NMID
 id='ANONYMOUS ', fmtdat='(2E16.6)'
 volume=1.0
 tramp=1.0
 $END
  -3.226226e+03   3.696181e+01
  -1.935898e+03  -1.372981e+03
   2.292215e+02  -1.944481e+03
   1.141198e+03  -8.219593e+02
   6.623146e+02  -8.182779e+01
  -2.961314e+01   3.171477e+01
  -3.285660e+02  -2.971358e+01
   7.065230e+01  -5.172954e+02
   3.999383e+02  -5.129402e+02
   5.387340e+02  -1.170032e+02
   4.353511e+02   5.267856e+02
  -1.335397e+02   6.895320e+02
  -3.480520e+02   1.681834e+02
  -2.199678e+02  -3.402766e+02
   8.788419e+01  -4.838661e+02
   3.540046e+02  -3.005414e+01
   2.844780e+02   3.886670e+02
  -5.428505e+01   4.802050e+02
  -4.549800e+02   2.760236e+02
  -3.344201e+02  -1.899785e+02
  -1.086157e+02  -3.292222e+02
   1.102042e+02  -2.316037e+02
   7.299241e+01  -1.112143e+02
  -1.412349e+02   1.287369e+01
  -2.393934e+02  -1.340400e+02
  -3.767354e+01  -3.509401e+02
   3.083970e+02  -1.142403e+02
   5.172043e+02   1.510415e+02
   2.017690e+02   3.455690e+02
  -2.172556e+02   1.942362e+02
  -4.625878e+02  -2.090126e+02
  -1.541937e+02  -3.376610e+02
   2.725308e+02  -3.134448e+02
   4.150610e+02  -6.547653e+01
   2.690107e+02   1.127048e+02
   4.301142e+01   3.187974e+02
  -1.411949e+01   1.952981e+02
   4.006940e+01  -9.478376e+01
   1.114002e+02  -1.904271e+02
   2.358066e+02   1.198475e+02
   2.938302e+01   4.500321e+02
  -2.188845e+02   3.987930e+02
  -3.079581e+02   4.197951e+01
  -1.113046e+02  -2.823492e+02
   1.629300e+02  -1.848097e+02
   1.505312e+02   2.817383e+02
  -8.104959e+01   3.192471e+02
  -4.091501e+02   5.249061e+01
  -3.350010e+02  -2.920732e+02
  -1.478951e+02  -3.854519e+02
   2.766221e+02  -2.199686e+02
   4.962730e+02   3.546359e+01
   2.985928e+02   2.134115e+02
  -1.267999e+00   1.385589e+02
  -2.190245e+02   7.417531e+01
  -1.674412e+02  -4.988132e+01
   1.120750e+01  -6.495101e+01
   3.409667e+01   5.862042e+01
  -9.447977e+01   3.964806e+01
  -2.647384e+02  -7.594248e+01
  -8.986047e+01  -1.554898e+02
   1.215358e+02  -1.947805e+02
   2.830021e+02  -1.396433e+02
   2.335835e+02   7.697752e+01
   2.227735e+01   2.706596e+02
  -1.984862e+02   2.774291e+02
  -2.630321e+02   1.489089e+02
  -1.974206e+02  -1.090149e+02
  -7.941809e+01  -2.921448e+02
   7.457906e+01  -2.637155e+02
   3.795734e+01  -1.041943e+02
   5.357099e+01  -7.297867e+01
   8.582995e+01  -7.652405e+01
   2.663106e+02  -8.387076e+01
   2.024990e+02   9.180162e+01
   9.243117e+01   2.586090e+02
  -8.698111e+01   1.629157e+02
  -1.756396e+02  -3.711939e+01
  -1.563100e+02  -2.047573e+02
   4.222190e+01  -1.937808e+02
   2.167257e+02  -7.125847e+01
   2.809537e+02   1.989587e+02
   1.953792e+02   2.495823e+02
  -6.900479e+01   1.795876e+02
  -1.589154e+02   1.415574e+02
  -1.220133e+02   5.733762e+01
  -1.279861e+02   7.815996e+01
  -2.704438e+02   5.919336e+01
  -3.389084e+02  -2.630314e+01
  -2.838389e+02  -2.567516e+02
  -1.923144e+01  -3.530511e+02
   2.850216e+02  -3.382566e+02
   4.031115e+02  -1.379418e+02
   2.401449e+02   7.086065e+01
   3.966855e+01   1.786482e+02
  -9.641051e+01   1.693370e+02
  -1.997753e+01   6.821985e+01
   8.673400e+01  -3.766888e+01
   1.255923e+02   2.833119e+01
   1.387487e+01   1.399063e+02
  -1.336331e+02   1.335225e+02
  -9.569271e+01  -2.483834e+01
   5.510266e+00  -9.651453e+01
   1.526096e+02   4.295967e+01
   1.284832e+02   1.907698e+02
   1.749872e+00   2.798778e+02
  -2.225692e+02   1.826417e+02
  -3.019183e+02  -3.320795e+01
  -2.079715e+02  -2.320356e+02
  -9.843790e+01  -2.479280e+02
   9.916968e+01  -1.415886e+02
   1.352624e+02  -8.278774e+00
   4.501421e+01   2.070589e+01
  -4.532463e+01  -8.884049e+01
   3.808490e+01  -8.835995e+01
   9.913079e+01  -3.829589e+01
   1.204053e+02   3.624681e+01
   3.204288e+01   6.689216e+01
  -5.409554e+01  -1.729622e+01
  -4.665888e+01  -5.748504e+01
   9.362478e+01  -5.612119e+01
   2.617053e+02   1.326331e+01
   2.199098e+02   1.235438e+02
   3.010539e+01   1.814489e+02
  -1.463464e+02   1.651675e+02
  -2.324803e+02   8.849898e+01
  -1.168238e+02  -4.228207e+01
   5.320359e+01  -1.172254e+02
   5.403521e+01  -4.282355e+00
  -6.642290e+01   7.321448e+01
  -1.407871e+02   6.094103e+01
  -1.708944e+02  -9.481692e+01
  -5.476152e+01  -1.720996e+02
   4.808858e+01  -1.519374e+02
   1.027177e+02  -4.212664e+01
   6.023091e+01   1.787777e+01
  -4.718242e+01  -1.117838e+01
  -3.993051e+01  -4.865932e+01
   1.071904e+02  -7.456473e+01
   1.948180e+02  -3.984649e+01
   1.507624e+02   7.991000e+01
   2.394256e+01   1.543540e+02
  -1.088592e+02   1.219273e+02
  -1.677392e+02   3.917281e+01
  -1.882205e+01  -9.732735e+01
   5.606752e+01  -9.327135e+01
   8.260483e+01  -1.000721e+01
  -2.932201e+01   1.276507e+01
  -3.939982e+01   2.648678e+01
   6.136518e+00  -2.629016e+01
   8.800588e+01  -1.600804e+01
   5.233498e+01   7.740569e+01
   2.815681e+00   1.570672e+02
  -1.003072e+02   1.075691e+02
  -1.569221e+02   1.125684e+01
  -1.790229e+02  -1.119148e+02
  -4.323911e+01  -1.615879e+02
   8.790648e+01  -1.003492e+02
   9.912004e+01  -3.873218e+01
   5.818258e+01   5.144666e+01
   3.553080e+00   2.887684e+01
   3.053762e+01  -3.108833e+01
   6.188339e+01  -2.830513e+01
   2.790724e+01   2.152993e+01
  -4.361005e+01   7.371874e+01
  -8.728178e+01   7.576305e+01
  -1.046333e+02  -3.970405e+01
  -3.845195e+00  -1.207526e+02
   1.590735e+02  -8.338760e+01
   1.254901e+02   3.087341e+01
   9.098628e+01   1.823167e+02
  -7.588832e+01   1.965396e+02
  -2.307011e+02   6.822934e+01
  -1.948491e+02  -5.802845e+01
  -8.452115e+01  -1.456121e+02
   1.177433e+01  -1.034784e+02
   4.762895e+01  -5.823690e+01
   5.280437e+01  -4.122876e+01
   4.572606e+01  -5.333167e+01
   5.959608e+01  -9.230090e+01
   1.216530e+02   2.706147e+01
   8.014612e+01   9.434913e+01
   2.802214e+01   1.718764e+02
  -5.530486e+01   9.561619e+01
  -1.703494e+02   2.417343e+01
  -1.285521e+02  -1.172950e+02
  -1.515728e+01  -1.391097e+02
   4.191123e+01  -4.491255e+01
   6.341620e+01   3.739249e+01
   4.575387e+00   4.767350e+01
  -2.310475e+01   2.625137e+01
   1.361928e+01   1.483324e+01
   9.747245e+01  -2.362407e+01
   4.049372e+01   2.525506e+01
  -5.644839e+01   1.874835e+01
  -1.560038e+02  -1.128864e+01
  -1.364391e+02  -4.095517e+01
   2.690509e+00  -7.254438e+01
   9.368626e+01  -5.457584e+01
   1.445657e+02   7.014761e-01
   3.537786e+01   3.554524e+01
  -5.322919e+01   4.366286e+01
  -8.448673e+01  -5.639130e+00
  -2.203823e+01  -7.516332e+01
   1.764823e+01  -6.285630e+01
   2.608709e+01  -1.468748e+01
   6.797025e+01   3.705947e+01
   4.304789e+01   6.079386e+01
   3.738887e+01   1.150298e+01
   2.824977e+01   5.420382e+00
   2.709162e+01   6.724842e+01
   3.706686e+00   1.320983e+02
  -8.683474e+01   9.353064e+01
  -1.606873e+02   1.464800e+01
  -1.049730e+02  -4.381743e+01
  -3.614403e+01  -1.330101e+02
   7.808509e+01  -5.066103e+01
   3.840118e+01   1.735878e+01
  -5.831106e+01   8.317248e+00
  -9.009767e+01  -4.057802e+01
  -5.808781e+01  -8.413740e+01
   4.510160e+01  -7.814745e+01
   1.574489e+02  -3.569854e+01
   9.937679e+01   4.093535e+01
   1.020442e+01   6.882766e+01
  -6.676840e+01   5.534702e+01
  -6.407043e+01   8.215250e+00
   3.713447e+01  -2.474583e+01
   1.039448e+02   3.163394e+01
   4.471322e+01   1.055785e+02
  -3.171473e+01   1.272041e+02
  -1.493785e+02   6.689260e+01
  -9.425134e+01  -7.314349e+01
  -2.621073e+01  -1.682666e+02
   6.970109e+01  -7.792380e+01
   1.053011e+02   2.825188e+01
   5.251234e+01   1.237282e+02
   1.603002e+01   9.816876e+01
  -4.646806e+01   3.469016e+00
  -7.125495e+01  -3.310417e+01
   2.104055e+01   1.171332e+01
   1.900903e+01   9.920046e+00
  -3.041856e+01   2.306567e+00
  -4.169598e+01  -5.875874e+01
  -1.816982e+01  -5.827261e+01
   4.517408e+01  -5.376053e+01
   1.449838e+02   2.204105e+01
   4.392530e+01   9.890476e+01
   2.442416e+01   5.731616e+01
  -1.014045e+02   4.747300e+01
  -6.611584e+01   7.824179e+00
  -1.746214e+01  -5.165465e+00
   2.270143e+01  -3.083939e+01
  -2.124380e+01  -2.264266e+01
   1.032220e+01   4.570966e+01
  -1.083556e+01   1.567886e+01
   7.048398e+01  -1.668480e+01
   1.660028e+01   4.921284e+01
   2.273488e+01   6.296940e+01
  -5.906539e+01   1.077638e+02
  -1.582578e+02   1.064044e+02
  -7.560505e+01  -5.781951e+01
  -4.788713e+01  -1.227874e+02
   4.152855e+01  -1.536493e+02
   6.735125e+01  -7.348700e+01
   5.447697e+01   4.072469e+00
   3.398359e+01  -2.276677e+00
   1.061499e+01   8.210307e+00
   1.622802e+01   1.293902e+01
   3.739593e+01   3.619046e+01
  -9.413125e-01   7.791037e+01
   4.319455e-01   5.544481e+01
  -1.112934e+02   2.290015e+01
  -9.696448e+01  -7.184485e+01
   3.387657e+00  -7.029022e+01
   5.506239e+01  -1.904988e+01
   6.968469e+01   7.276392e+01
   4.636032e+01   5.564504e+01
  -5.390513e+01   5.078905e+01
  -7.067131e+01  -2.524336e+01
  -3.395410e+01  -2.627892e+01
   2.105848e+01  -6.026118e+01
   4.760873e+01  -2.998479e+01
  -1.473601e+01   4.443746e+00
  -5.515307e+01   1.675592e+00
  -3.711539e+01  -2.116859e+01
   5.677727e+01  -2.914940e+01
   9.108288e+01  -3.475615e+01
   4.006935e+01   4.918466e+00
  -3.690322e+01   4.950938e+01
  -4.583821e+01   4.894785e+01
  -2.966975e+01   3.196638e+01
  -3.731661e+01  -3.855535e+01
   3.262831e+01  -5.296392e+01
   3.262979e+01   9.064813e+00
   3.472136e+01   3.412280e+01
  -1.172554e+01   3.512245e+01
  -2.075720e+01  -2.833001e+01
  -3.331642e+01  -2.456003e+01
  -2.532837e+01   6.434333e+00
   1.834515e+01  -1.151722e+00
   1.011238e+00   8.365404e+00
  -1.489929e+01  -3.037871e+01
  -3.784196e+01  -2.538019e+01
   1.002021e+01  -3.128139e+00
   6.969583e+00   4.294253e+01
   2.988995e+01   6.492086e+01
  -1.495038e+01   1.200296e+01
  -3.524845e+01  -3.001985e+01
  -1.197598e+01  -6.115916e+01
   4.809183e+01  -3.915988e+01
   9.626585e+01   5.360082e+00
   3.939548e+01   1.955795e+01
   3.400948e+00   6.423364e+01
  -4.733858e+01   4.141775e+01
  -2.282117e+01   2.763227e+01
   2.252847e+01   3.954969e+00
   2.298512e+01   2.960277e+01
  -2.603726e+01   2.910419e+01
  -6.892133e+01   2.228896e+01
