
 $NMID
 id='ANONYMOUS ', fmtdat='(2E16.6)'
 volume=1.0
 tramp=1.0
 $END
  -2.820265e+03  -3.871946e+01
  -1.989761e+03  -1.916308e+03
   2.337957e+02  -1.939987e+03
   1.317374e+03  -7.341327e+02
   7.116402e+02   2.695471e+02
  -2.303662e+02   2.586389e+02
  -4.850339e+02  -1.394893e+02
  -4.437096e+01  -5.131822e+02
   5.911662e+02  -5.537963e+02
   6.228760e+02  -1.623566e+01
   3.043416e+02   5.337195e+02
  -1.887110e+02   5.940269e+02
  -3.115470e+02   9.510672e+01
  -1.879670e+02  -3.762794e+02
   1.862510e+02  -4.524275e+02
   3.622306e+02   2.799124e+01
   2.112404e+02   4.709244e+02
  -1.901998e+02   4.032988e+02
  -4.185233e+02   1.580201e+02
  -3.228793e+02  -2.849222e+02
  -3.232000e+01  -3.473131e+02
   1.241115e+02  -1.912200e+02
   1.477014e+02  -5.303734e+01
  -5.946833e+01  -4.521587e+01
  -2.379401e+02  -7.767854e+01
  -2.132230e+01  -2.413585e+02
   2.999348e+02  -8.705618e+01
   5.658050e+02   8.819220e+00
   2.861231e+02   3.297754e+02
  -2.165880e+02   2.000593e+02
  -4.667834e+02  -1.070550e+02
  -1.511245e+02  -3.160474e+02
   1.797960e+02  -2.848362e+02
   3.332666e+02  -7.360561e+01
   1.939289e+02   1.346683e+02
   4.951439e+01   3.566601e+02
  -9.838385e+01   1.759837e+02
  -2.416797e+01  -8.893809e+01
   8.643083e+01  -2.106429e+02
   2.342519e+02   9.142594e+01
   8.966534e+01   4.000020e+02
  -2.127347e+02   3.572246e+02
  -3.155241e+02  -1.202545e+01
  -1.391556e+02  -2.315162e+02
   1.329923e+02  -2.362649e+02
   1.880996e+02   2.132529e+02
  -3.949255e+01   2.791408e+02
  -3.307424e+02   1.020446e+02
  -2.707173e+02  -2.820436e+02
  -9.983352e+01  -3.685012e+02
   2.091385e+02  -2.247000e+02
   3.593635e+02   6.295836e+01
   2.018907e+02   2.292147e+02
  -4.930828e+01   1.711207e+02
  -3.038691e+02   6.020826e-01
  -1.820863e+02  -1.080070e+02
   7.468494e+01  -7.825818e+01
   4.410173e+01   1.056603e+02
  -1.203864e+02   8.036222e+01
  -2.260139e+02  -4.222609e+01
  -8.565549e+01  -1.707092e+02
   6.935716e+01  -1.765984e+02
   2.672912e+02  -9.544846e+01
   1.524237e+02   8.005765e+01
  -2.967110e+01   1.655088e+02
  -1.773286e+02   1.567526e+02
  -2.780680e+02   1.408407e+02
  -1.808539e+02  -1.315826e+02
  -9.210876e+01  -2.897953e+02
   7.241060e+01  -2.528802e+02
   3.702316e+01  -1.164709e+02
   4.395003e+01  -2.506397e+01
   4.858463e+01  -3.507658e+01
   1.342092e+02  -2.407645e+01
   2.016351e+02   2.945637e+01
   1.049992e+02   2.094512e+02
  -3.561843e+01   1.392469e+02
  -1.233588e+02  -1.020641e+01
  -1.192301e+02  -1.887961e+02
   3.477955e+01  -1.634256e+02
   1.478796e+02  -7.620332e+01
   2.328836e+02   1.572004e+02
   1.506303e+02   2.310003e+02
  -9.006233e+01   1.943574e+02
  -1.271834e+02   6.651539e+01
  -1.055783e+02   3.030040e+00
  -1.104315e+02   2.250242e+01
  -1.810277e+02   4.139475e+01
  -2.688774e+02  -5.219509e+01
  -2.142687e+02  -2.178662e+02
  -1.592752e+01  -2.508087e+02
   2.120278e+02  -2.451642e+02
   3.554973e+02  -1.452654e+02
   2.325815e+02   8.040839e+01
   1.964866e+01   1.688322e+02
  -1.106601e+02   1.528590e+02
  -3.170904e+01   1.272496e+01
   8.085792e+01  -4.724364e+01
   1.300573e+02  -1.034383e-01
   4.939437e+01   1.150601e+02
  -1.108949e+02   1.041995e+02
  -1.012733e+02  -5.315033e+01
   3.370460e+01  -1.240855e+02
   1.551673e+02  -5.777654e+00
   9.927016e+01   2.124475e+02
  -4.474697e+01   1.883589e+02
  -1.428081e+02   1.243441e+02
  -2.441804e+02  -6.835600e+01
  -1.705528e+02  -1.766568e+02
  -8.000194e+01  -1.809109e+02
   1.061294e+02  -1.188986e+02
   1.245148e+02   1.215947e+00
   4.322708e+01   1.581849e+01
  -2.966606e+00  -1.580716e+01
  -2.350947e-01  -1.273066e+02
   8.843582e+01  -4.416140e+01
   1.224997e+02   2.119719e+01
   1.885806e+01   2.489384e+01
  -4.582818e+01   1.486073e+01
  -5.966480e+01  -4.573488e+01
   9.035966e+01  -3.167172e+01
   2.260548e+02   2.006683e+01
   1.927233e+02   8.075179e+01
   2.858602e+01   1.892208e+02
  -1.617223e+02   1.670810e+02
  -1.838310e+02   5.816536e+01
  -7.759927e+01  -7.275577e+01
   2.686601e+01  -7.307982e+01
   3.987629e+01   1.510661e+01
  -2.146408e+01   2.968972e+01
  -1.582867e+02   2.096429e+01
  -7.413682e+01  -8.566830e+01
  -2.845730e+01  -1.643698e+02
   9.178803e+01  -9.066228e+01
   8.560402e+01  -2.589858e+01
   7.415805e+01   3.267960e+01
  -5.211648e+00  -1.529762e+01
  -2.778272e+01  -4.755427e+01
   6.595194e+01  -8.390060e+01
   1.363915e+02  -8.160413e-01
   1.076465e+02   8.177981e+01
   1.131675e+01   1.482965e+02
  -7.137635e+01   8.475585e+01
  -1.312023e+02  -5.601926e+00
  -1.014030e+01  -5.576729e+01
   4.313898e+01  -7.092996e+01
   4.944394e+01  -4.255533e+01
   2.108748e+01   1.417965e+01
   4.146276e+00   9.518132e-01
   3.019018e+01  -8.786282e-01
   6.572815e+01  -1.291168e+01
   5.231003e+01   1.084232e+02
   1.734947e+01   9.000380e+01
  -1.439279e+02   9.052952e+01
  -1.431921e+02  -2.306254e+01
  -1.521593e+02  -1.126187e+02
  -1.350083e+01  -1.782667e+02
   8.796195e+01  -8.921594e+01
   1.035593e+02  -7.934708e-01
   2.646249e+01   3.917854e+01
   8.605917e-01   2.696714e+01
   6.279701e+01  -1.226189e+01
   7.529741e+01  -1.542557e+01
   1.673413e+01   6.145820e+00
  -4.551407e+00   4.915560e+01
  -4.719936e+01   6.347648e+01
  -6.452326e+01  -3.960712e+01
   1.509329e+01  -9.213535e+01
   8.855332e+01  -4.898582e+01
   1.156478e+02   4.945479e+01
   2.787860e+01   1.403786e+02
  -6.734830e+01   1.239118e+02
  -1.881706e+02   4.700269e+01
  -1.720186e+02  -7.197159e+01
  -8.528382e+01  -1.067766e+02
   1.266162e+01  -1.037735e+02
   8.956528e+01  -3.153926e+01
   3.161595e+01  -5.132649e+01
   3.273470e+01  -5.317850e+01
   7.638407e+01  -4.257914e+01
   8.963346e+01   1.401941e+01
   9.423354e+01   6.348068e+01
   8.049432e+00   1.492678e+02
  -4.221927e+01   1.121833e+02
  -1.559826e+02   1.100962e+01
  -8.653743e+01  -1.009159e+02
  -5.652526e+00  -1.347652e+02
   3.916753e+01  -3.602852e+01
   2.995278e+01   1.631831e+01
   1.388542e+01   2.259781e+01
  -4.117596e+01   1.566694e+01
   1.198309e+01   2.039157e+01
   3.016857e+01  -1.388589e+00
   3.504993e+01   3.336151e+01
  -3.821040e+00   2.053293e+01
  -1.042900e+02   1.325548e+01
  -9.959713e+01  -4.466261e+01
   1.416190e+01  -5.210138e+01
   9.279139e+01   9.145375e-01
   1.112454e+02  -2.392264e+01
   3.398364e+01   3.154718e+01
  -4.519053e+01   2.530736e+01
  -2.871158e+01   4.255419e+00
  -2.212286e+01  -5.749050e+01
   5.667004e+01  -5.259852e+01
   3.299202e+01   5.709790e+00
   4.509091e+01   3.209758e+01
   9.647975e+00   5.591645e+01
   2.135208e+01  -1.150359e+01
   3.551839e+01   5.878875e+00
   4.257523e+01   2.952400e+01
  -5.493978e-01   7.008959e+01
  -1.220824e+02   8.949510e+01
  -1.283919e+02   4.701430e+00
  -7.639319e+01  -5.447687e+01
  -2.595924e+01  -8.491124e+01
   6.641930e+01  -6.625823e+01
   2.734340e+01   7.276757e+00
  -1.866089e+01   2.083904e+01
  -7.096565e+01  -1.449078e+01
  -7.049804e+01  -5.357527e+01
   3.484850e+01  -7.415396e+01
   1.451594e+02  -1.846586e+01
   9.996662e+01   3.256618e+01
   9.064070e+00   6.762756e+01
  -6.254165e+01   5.723851e+00
  -2.947606e+01  -1.843865e+01
   3.552218e+01   7.093792e+00
   6.747926e+01   8.068289e+00
   4.153212e+01   6.083257e+01
  -5.696147e+01   9.399078e+01
  -1.371176e+02   4.438291e+01
  -8.373341e+01  -7.615059e+01
  -3.695822e+00  -1.289319e+02
   3.175959e+01  -9.013165e+01
   3.426324e+01   3.492941e+01
   3.734564e+01   7.615662e+01
   1.273224e+01   3.909421e+01
  -3.194436e+01  -1.344289e+01
  -4.309421e+01  -2.310063e+01
  -1.883735e+01   2.627196e+01
  -1.030174e+01   6.410065e+00
  -1.035463e+01  -9.107510e+00
  -5.105849e+01  -6.733243e+01
  -7.045524e+01  -6.500340e+01
   5.113678e+01  -4.008884e+01
   8.816733e+01   3.824375e+01
   9.862066e+01   5.070416e+01
   1.754559e+00   1.145487e+01
  -4.746221e+01   3.348033e+01
  -5.746163e+01  -2.833151e+01
  -6.190236e+00  -1.290762e+01
   3.975731e+01  -1.566430e+01
   1.508543e+01  -1.623741e+01
   1.457186e+01  -6.576942e+00
   3.374880e+01   2.672845e+00
   5.018593e+01   2.139663e+01
   6.935046e+01   3.808997e+01
  -2.908749e+01   7.959531e+01
  -7.519240e+01   7.213822e+01
  -1.004762e+02   3.473007e+01
  -5.172276e+01  -7.967375e+01
  -7.681623e+00  -1.155363e+02
   7.091201e+01  -1.285101e+02
   6.484339e+01  -5.917902e+01
   1.741418e+01   2.415507e+01
  -4.169291e+00   3.679843e+01
  -1.805780e+01   8.191049e+00
   2.753279e+01  -7.310299e+00
   2.112620e+01   3.393289e+01
   2.574634e+01   8.240896e+01
   2.041899e+01   3.030728e+01
  -4.755472e+01  -2.748568e+01
  -7.643681e+01  -7.359644e+01
   7.622114e+00  -7.225418e+01
   6.908790e+01  -2.509945e+01
   6.212299e+01   2.902711e+01
   4.831901e+00   6.739020e+01
  -7.520825e+01   4.715019e+01
  -6.612471e+01   2.086446e+01
  -2.160485e+01  -2.919364e+01
   9.992543e+00  -3.786688e+01
   2.090836e+01  -1.937575e+01
   5.155752e+00  -1.477401e+01
  -5.227943e+01   1.012295e+01
  -1.624629e+01  -3.715127e+01
   6.880951e+01  -6.462824e+01
   5.002009e+01  -6.339870e+01
   4.948545e+01   1.429491e+00
  -2.455004e+01   3.776181e+01
  -4.634509e+01   3.897372e+01
  -2.245451e+01   2.016754e+01
  -8.681056e-01  -2.608725e+01
   4.651638e+01  -1.440870e+01
   1.127556e+01  -2.578886e+00
   1.984760e+01   5.483040e+01
  -7.506150e+00   3.024377e+01
  -2.767553e+01   7.394914e+00
  -1.607172e+01  -4.788426e+01
  -1.507694e+01   2.743872e+01
  -2.915460e+00   4.660373e-01
  -4.668047e+00   1.154692e+01
   2.354280e+01  -6.594960e+01
   1.617906e+01  -5.781678e+00
   3.693431e+01  -1.456674e+01
   4.200405e+01   3.981911e+01
   2.057290e+01   3.220852e+01
  -3.090426e+01   4.211641e+00
  -4.520367e+01  -4.231524e+01
  -1.708510e+01  -3.131712e+01
   2.103630e+01  -2.002476e+01
   3.955558e+01   6.966085e+00
  -1.766734e+01   5.252198e+00
  -5.349618e+00   4.855139e+01
  -4.409053e+01   1.880809e+01
  -3.556209e+01   2.321433e+01
   8.470888e+00  -1.723033e+01
   4.354849e+01   9.986487e+00
  -1.882923e+01  -1.044468e+01
  -7.486678e+01   2.123053e+01
