
 $NMID
 id='ANONYMOUS ', fmtdat='(2E16.6)'
 volume=1.0
 tramp=1.0
 $END
   2.464218e+03   1.824248e+02
   1.647501e+03   1.710362e+03
  -3.580473e+02   1.559660e+03
  -8.544567e+02   6.549070e+02
  -6.724890e+02  -1.944502e+02
   2.763103e+02  -2.516316e+02
   4.333680e+02   8.520721e+01
   5.879278e+01   4.047190e+02
  -4.769240e+02   4.507398e+02
  -5.220275e+02   1.597660e+01
  -2.656753e+02  -3.550251e+02
   1.285695e+02  -4.596198e+02
   2.714820e+02  -8.736366e+01
   1.340825e+02   3.220084e+02
  -1.413890e+02   4.374687e+02
  -2.712425e+02   3.245348e+01
  -1.234716e+02  -3.724634e+02
   1.372243e+02  -3.513057e+02
   3.896071e+02  -1.402820e+02
   2.913023e+02   2.301678e+02
   2.274133e+01   2.504499e+02
  -6.257584e+01   1.155662e+02
  -1.116479e+02   2.807282e+01
   4.442158e+01   1.629275e+01
   1.707277e+02   2.720423e+01
   4.404629e+00   1.776999e+02
  -3.046814e+02   1.182893e+02
  -4.489635e+02  -3.383238e+00
  -2.320436e+02  -2.804222e+02
   1.617392e+02  -1.869478e+02
   4.012718e+02   1.065005e+02
   1.065309e+02   2.678339e+02
  -1.594543e+02   2.841419e+02
  -3.116773e+02   5.343331e+01
  -1.265815e+02  -8.881984e+01
   1.243898e+01  -2.577176e+02
   7.074585e+01  -1.514190e+02
   3.292384e+01   9.763029e+01
  -8.858421e+01   1.623515e+02
  -1.762205e+02  -4.370082e+01
  -3.383094e+01  -3.090756e+02
   1.238785e+02  -2.649901e+02
   2.173606e+02   2.228542e+01
   1.633999e+02   1.356890e+02
  -1.132920e+02   1.322243e+02
  -1.704719e+02  -1.528300e+02
  -3.084108e+01  -2.397925e+02
   2.778696e+02  -4.759653e+01
   2.478055e+02   2.328918e+02
   8.883544e+01   3.394268e+02
  -1.861062e+02   1.687491e+02
  -2.507238e+02  -6.526676e+01
  -1.822867e+02  -2.173808e+02
   5.242975e+01  -1.158197e+02
   2.629993e+02  -6.139354e+01
   1.489011e+02   1.108972e+02
  -6.945224e+01   4.984714e+01
  -3.967271e+01  -5.640932e+01
   8.991495e+01  -5.440498e+01
   1.522433e+02   4.126811e+01
   6.683802e+01   1.404854e+02
  -7.646168e+01   1.261247e+02
  -1.903386e+02   7.118439e+01
  -1.580206e+02  -7.296282e+01
   5.137034e+01  -1.142764e+02
   1.593323e+02  -1.298192e+02
   2.318137e+02  -1.014494e+02
   1.585918e+02   6.873063e+01
   7.167856e+01   2.281520e+02
  -6.189239e+01   1.573902e+02
  -5.207759e+01   1.271705e+02
  -7.084416e+00   1.501065e+01
  -3.626406e+01   4.131396e+01
  -1.137771e+02   5.287069e+01
  -1.327699e+02  -5.074042e+01
  -7.556369e+01  -1.856354e+02
   6.098764e+01  -1.203188e+02
   1.128697e+02   2.644117e+00
   9.437485e+01   1.277306e+02
  -4.617441e+01   1.309623e+02
  -1.343015e+02   2.926729e+01
  -1.812346e+02  -1.260221e+02
  -1.312718e+02  -2.608907e+02
   1.639567e+01  -1.724593e+02
   1.076215e+02  -4.503981e+01
   6.249112e+01  -2.370982e+01
   1.052186e+02  -1.266893e+01
   1.439394e+02  -9.206031e+00
   2.341309e+02   4.330528e+01
   2.004098e+02   1.708279e+02
   1.440224e+01   2.371727e+02
  -2.156248e+02   2.574288e+02
  -3.093665e+02   1.088865e+02
  -2.247745e+02  -7.598216e+01
  -3.401152e+01  -1.564684e+02
   7.606788e+01  -1.245309e+02
   4.097534e+01  -3.727053e+01
  -6.393698e+01   2.449831e+01
  -6.523117e+01  -1.413297e+01
  -5.088837e+01  -1.412094e+02
   6.145355e+01  -1.042557e+02
   1.128780e+02   4.657038e+01
  -5.083649e+01   1.022827e+02
  -1.085406e+02   1.974452e+01
  -1.219639e+02  -1.741008e+02
   4.768277e+01  -2.166277e+02
   1.072753e+02  -8.470271e+01
   1.989989e+02   8.160310e+01
   1.347699e+02   1.689915e+02
   2.959872e+01   1.482200e+02
  -8.424987e+01   1.087477e+02
  -1.517759e+02   1.918961e+01
  -3.315577e+01   4.234728e+00
   2.279502e+01   6.069866e+01
  -9.482930e-01   9.496603e+01
  -5.931434e+01   2.702895e+01
  -8.265629e+01  -1.348484e+01
  -2.992775e+01  -5.284004e+01
   8.473799e+00  -1.539016e+01
   4.268958e+01   3.213350e+01
  -7.889692e+01   5.754043e+01
  -1.765972e+02  -5.959968e+01
  -1.562435e+02  -7.462772e+01
  -1.641350e+01  -1.690539e+02
   1.422383e+02  -1.171339e+02
   1.699452e+02  -3.293579e+01
   7.268380e+01   3.072083e+01
  -1.248361e+01   5.196277e+01
  -3.988270e+01   1.023825e+01
   2.147652e+01  -2.696881e+01
   1.020443e+02   3.683403e+00
   7.026707e+01   5.080838e+01
   1.061569e+01   1.335219e+02
  -8.296066e+01   5.343911e+01
  -7.525947e+01   3.019809e+01
  -5.005717e+01  -1.725067e+01
   2.004975e+01  -5.961919e+00
  -2.760745e+01   7.127274e+01
  -7.781586e+01   4.369248e+01
  -1.256558e+02   1.766509e+01
  -1.028591e+02  -7.072889e+01
   6.538336e+00  -1.495130e+02
   8.612933e+01  -6.417020e+01
   1.142896e+02  -1.052067e+01
   4.733153e+01   6.359422e+01
  -2.170243e+01   4.549666e+01
  -1.473717e+01   3.731514e+01
   4.204344e+01  -1.236646e+01
   2.334743e+01  -1.596828e+01
  -4.931980e+00   8.746804e+00
  -7.292148e+00   2.630052e+01
  -9.917797e+00  -6.571676e+01
   1.509556e+01  -1.158189e+02
   1.082921e+02  -5.929289e+01
   1.030504e+02   2.064679e+01
   9.120322e+01   1.002113e+02
  -1.425567e+01   1.467546e+02
  -6.774448e+01   4.975566e+01
  -5.864971e+01   1.378252e+01
  -4.534246e+01  -6.457771e+01
  -2.121179e+00  -1.562855e+01
  -2.836830e+01   3.455708e+01
  -6.221190e+01  -1.900082e+01
  -3.704330e+01  -1.273966e+01
  -7.544477e-01  -2.905584e+01
   6.213272e+01   6.268673e+00
   6.480113e+01   3.994409e+01
   6.005574e-01   6.491678e+01
  -8.123474e+01   3.690328e+01
  -1.180110e+02  -5.569527e+01
  -3.765657e+01  -1.192673e+02
   6.997680e+01  -1.148489e+02
   1.787538e+02  -3.362989e+01
   1.458354e+02   7.168470e+01
   6.407901e+01   1.072854e+02
  -7.007272e+00   1.034017e+02
  -3.352126e+01   4.300636e+01
  -1.642830e+01   5.919419e+01
  -3.813825e+01   3.434503e+01
  -6.560827e+01   3.691219e+01
  -8.753731e+01  -1.072873e+01
  -6.579063e+01  -6.911827e+01
  -2.412117e+01  -1.345857e+02
   4.194626e+01  -1.144393e+02
   1.114996e+02  -2.011778e+01
   6.168301e+01   5.818420e+01
   5.453811e+00   1.020257e+02
  -3.287641e+01  -3.320018e+00
  -5.362529e+01   6.719567e+00
  -3.415206e+00  -1.852092e+01
   3.853639e+01  -3.358224e+01
  -1.763961e+01  -3.107300e+01
  -2.999710e+01  -1.280948e+01
  -4.419052e+01  -5.340982e+01
   2.730557e+01   4.874845e+00
   1.158334e+02   6.632219e-01
   7.256388e+01   7.010335e+01
  -9.704047e-01   8.140184e+01
  -6.074894e+01   2.007370e+01
  -5.700299e+01   1.304167e+01
  -4.186362e+01  -4.715028e+00
   4.706613e+00  -2.275923e+01
   8.423554e+00  -3.010155e+00
   1.081500e+01   7.302239e+01
  -1.144587e+01   1.663655e+01
  -1.436094e+01   2.787589e-01
  -2.194357e+01  -3.543773e+01
  -2.053247e+01  -3.897926e+01
  -9.667574e+00   1.964792e+01
  -3.652220e+01  -2.507791e+00
  -2.843719e+01  -2.241870e+01
   7.424632e+00  -6.693972e+01
   7.845916e+01  -7.839526e+01
   6.892301e+01  -6.764183e+00
   7.058159e+01   6.622577e+01
   2.564389e-01   7.726501e+01
  -5.776262e+01   2.402440e+01
  -1.245405e+01   8.395065e-01
   1.432648e+01   1.090873e+01
   6.996804e+01   2.592067e+01
   2.019463e+01   6.711667e+01
  -3.615137e+01   6.856431e+01
  -1.226091e+02   2.451123e+01
  -7.395710e+01  -2.860078e+01
   6.971549e+00  -6.257303e+01
   6.898778e+01  -1.622204e+01
   2.635814e+01   9.813221e-01
  -2.261001e+01   1.225698e+01
  -5.926401e+01  -8.593162e+00
  -1.440313e+01  -5.803816e+01
   5.526835e+01  -1.327021e+02
   8.112776e+01  -2.905802e+01
   7.117792e+01   4.567792e+01
   1.702341e+01   1.058013e+02
  -5.628480e+01   6.816772e+01
  -3.821771e+01  -4.430713e+00
  -3.980560e+00  -5.757777e+01
  -8.031895e+00  -7.282965e+01
   2.178511e+01  -1.630043e+00
   3.009787e+01   4.148568e+01
  -1.470382e+01   2.878024e+00
  -6.137525e+00  -3.583950e+01
   1.368041e+01   7.764218e+00
   4.535024e+01   7.284095e+01
   7.271761e+00   5.160407e+01
  -4.044939e+00  -2.183236e+00
  -9.277418e+01  -1.196336e+01
  -9.118757e+01  -3.132386e+01
  -2.228020e+01  -1.333081e+01
   5.848874e+01  -2.451670e+01
   4.856186e+01  -2.234269e+01
   1.835332e+01  -1.431214e+01
  -2.476616e+00   1.514907e+01
  -1.908906e+01  -2.481751e+01
   5.457980e+01   2.570414e+00
   1.692174e+01   1.968106e+00
  -2.460700e+01   6.615336e-01
  -6.771929e+01  -2.352720e+01
   5.886769e+00  -8.223947e+01
   2.733454e+01  -8.537820e+01
   1.120948e+02  -3.267709e+01
   8.652591e+01   2.848110e+01
  -9.855225e+00   7.553534e+01
  -5.376825e+01   9.722317e+01
  -4.108011e+01   5.020285e+01
  -4.697862e+01  -4.927411e+00
  -2.480520e+00  -5.713750e+01
   2.540698e+00   1.198453e+00
  -1.208857e+01   4.328139e+00
   5.893688e-01  -2.628288e+01
   2.950072e+00  -3.964502e+01
   2.244118e+00  -6.132102e+01
   1.868303e+01  -1.692907e+00
   4.649816e+01   5.917962e+01
   1.810980e+01   5.430347e+01
  -4.074443e+01   3.617514e+01
  -6.593842e+01  -3.311307e+01
   1.018891e+01  -4.622754e+01
   3.866695e+01  -3.725564e+01
   3.896008e+01   9.198874e+00
   2.351941e+01   3.462447e+01
  -4.320656e+00   6.014394e+01
  -2.700405e+01   4.344316e+01
   3.538343e+01  -2.877947e+01
   3.609565e+01   2.895376e+01
   7.509061e+00   1.191069e+01
  -6.089373e+01   1.324668e+01
  -6.056522e+01   1.050086e+01
  -2.401144e+01  -2.786113e+01
   3.872889e+00  -2.900209e+01
   3.494279e+01  -5.751314e+01
   1.403366e+01  -9.033279e+00
   4.272002e+00   4.691460e+01
  -2.173073e+01   1.895459e+01
  -2.912586e+01   1.576081e+01
   6.379153e+00  -3.687025e+01
   2.999885e+00  -1.865991e+01
  -1.614001e+00   8.545549e+00
   3.297892e+01  -1.448486e+01
   1.948997e+01  -1.051469e+01
  -1.169071e+01  -3.766781e+00
   1.748760e+01   6.528352e+00
  -2.015001e+01   3.594544e+01
  -1.667731e+01   3.945056e+01
   1.231907e+01   1.255271e+00
   3.342479e+00  -2.864572e+01
   1.250811e+01  -4.286941e+01
   1.807916e+00  -2.274621e+01
   6.063415e+01   2.196437e+01
   1.099819e+01   4.586853e+01
  -4.039126e+01   2.628299e+01
  -4.973345e+01  -6.392202e+00
  -9.084000e+00  -2.354598e+01
   3.525787e+01  -8.295542e+00
   4.817195e+01   1.214426e+01
   2.575437e+01   8.693308e+00
  -1.418854e+01   9.196622e+00
  -4.400916e+01  -1.264492e+01
   5.828617e+00  -2.360852e+01
   4.421795e+01  -1.430827e+01
