
 $NMID
 id='ANONYMOUS ', fmtdat='(2E16.6)'
 volume=1.0
 tramp=1.0
 $END
   5.422107e+02   1.262683e+02
   8.138297e+02   2.508136e+02
   2.007270e+02   3.872456e+02
  -4.035091e+02   5.437701e+02
  -1.535755e+02   7.407410e+01
  -7.097478e+01  -9.345998e+01
   1.166724e+02   8.971670e+01
   8.373786e+01   1.479391e+02
  -1.443000e+02   2.236309e+02
  -2.381752e+02  -7.594896e-01
  -1.418312e+02  -3.466174e+01
  -3.617113e+01  -5.945809e+01
   4.557136e+01  -2.023436e+01
   3.798206e+01   8.035135e+00
   5.186492e+01   4.227712e+01
  -2.570858e+01   9.079118e+01
  -8.305755e+01  -1.725618e+02
   2.999360e+01  -1.121264e+02
   6.217329e+01  -4.737661e+01
   1.215373e+02  -3.196266e+01
   1.161524e+02   9.922723e+01
   5.125996e+00   4.176112e+01
  -2.548907e+01  -4.173269e+01
   5.352636e+01  -3.087931e+01
   3.115572e+01   2.665130e+00
  -3.581268e+01   6.658574e+00
  -1.173365e+02  -5.266371e+01
  -1.655041e+02  -5.501257e+01
  -1.119925e+02  -1.720946e+02
  -3.098823e+01   5.938699e+01
   1.370793e+02   3.687097e+01
   7.031837e+01   9.957259e+01
  -7.401741e+01   7.390403e+01
  -1.412881e+02   6.526362e+01
  -4.164242e+01   3.753583e+01
  -6.767079e+00  -5.167137e+01
  -5.464212e+01  -1.027344e+01
  -4.092080e+01   2.854256e+01
  -5.996797e+00   2.991255e+01
  -7.231422e+01   2.334720e+01
   6.713445e+00  -1.309789e+02
   1.151678e+01  -1.161601e+02
  -2.683539e+01   6.421298e+01
   9.100175e+00   2.078850e+01
   2.530689e+00  -1.400844e+01
  -2.205118e+01  -3.697644e+01
   4.577728e+01  -9.766453e+01
   9.916324e+01  -3.989703e+00
   1.621780e+02   1.078012e+02
   1.049893e+02   2.020238e+02
  -1.242703e+01   5.002020e+01
  -1.709016e+02  -2.270782e+01
  -1.053270e+02  -8.228560e+01
  -1.347816e+01   3.335618e+01
   7.630388e+01  -5.585376e+01
   2.169853e+01   4.329490e+01
  -8.756362e+00   6.917969e+00
   8.561333e+00   8.737881e+00
   1.230002e+01  -2.355223e+01
   9.628013e+01   3.152261e+01
   5.828408e+01   6.658299e+01
  -1.959129e+01   8.704791e+01
  -6.544330e+01   1.901850e+01
  -2.938251e+01   5.671810e+00
  -3.217001e+01  -4.088395e+01
   5.916364e+01  -7.024650e+01
   9.109484e+01  -8.172076e+01
   7.502632e+01   2.966908e+01
   1.214090e+01   3.730028e+01
  -1.439098e+01   5.210101e+01
   9.811334e+00   8.227183e+01
  -1.692768e+01   3.542858e+01
  -4.924971e+01   4.207953e+01
  -7.748513e+01   1.596026e+01
  -9.851948e+01   3.920516e+00
  -4.384801e+01  -5.321358e+01
   3.021798e+01  -5.723268e+01
   4.044330e+01   6.856097e+00
   7.291651e+01   8.563856e+01
  -3.386084e+01   5.480239e+01
  -3.769474e+01   8.362738e+00
  -1.003359e+02  -5.712906e+01
  -5.213072e+01  -5.370845e+01
  -7.765606e+00  -1.835743e+01
   4.046220e+01  -4.983254e+01
   5.202824e+01  -4.025226e+01
  -7.497552e+00  -1.866907e+01
   1.057008e+02  -9.432984e-01
   3.882051e+01   2.006213e+01
   8.443970e+01   1.290915e+02
   1.008482e+01   8.953092e+01
  -7.250920e+01   6.865879e+01
  -1.293361e+02   6.949855e+01
  -7.358067e+01   4.164402e+00
  -5.883602e+01  -4.367382e+01
   2.998414e+01  -3.768790e+01
   9.211085e+00  -2.803902e+01
  -3.546486e+01  -9.758658e+00
  -8.739724e+00  -1.413997e+01
  -4.538536e+00  -3.992140e+01
   6.297359e+00  -3.369352e+01
   1.973586e+01   9.932372e+00
  -1.524076e+01   2.969643e+01
  -4.183635e+01   2.181817e+01
  -6.111554e+01  -6.305871e+01
  -2.417620e+01  -5.583726e+01
   9.916044e+01  -7.889631e+01
   8.490830e+01   3.686128e+00
   7.632214e+01  -1.522211e+01
   5.918981e+01   7.253621e+01
  -2.475609e+01   4.060689e+01
  -1.249655e+01   2.389016e+01
  -6.776279e+00   2.844809e-03
   3.278336e+01   2.317966e+01
  -7.422144e-01   1.892281e+01
  -5.973107e+01   1.019882e+01
  -2.484306e+01  -2.369661e+01
  -1.822986e+01  -2.117391e+01
   7.430392e+00  -1.024026e+01
  -1.224983e+01   3.383642e+01
  -6.993337e+01   1.287311e+01
  -6.583109e+01   2.079483e+01
  -8.986815e+01  -3.238201e+01
  -1.486762e+01  -2.194349e+01
   5.679706e+01  -7.942537e+01
   7.342250e+01  -4.083916e+01
   5.289543e+01   4.101064e+01
  -2.479933e+01   4.521216e+00
  -6.361907e+00  -4.590736e+00
   6.446312e+00  -1.559346e+01
   1.756115e+01  -4.383470e+01
   3.858115e+01   3.133770e+01
   3.253892e+01   4.544268e+01
  -2.518991e+01   6.328384e+01
  -2.072848e+01   1.819570e+01
  -2.637545e+01  -5.236108e+00
   1.774013e+01  -1.592098e+01
   9.538935e+00   2.552883e+01
  -1.593262e+01   3.618235e+01
  -2.893466e+01   1.861233e+01
  -2.042475e+01  -9.444494e+00
  -4.337308e+00  -1.855749e+01
   2.887057e+01  -3.508264e+01
   3.280050e+01  -2.963350e+01
   1.519611e+00   2.387807e+01
   1.909846e+01  -8.401382e-02
  -1.925455e+01   4.892063e+00
   4.696501e+00   7.540029e+00
   1.170136e+00  -2.960346e+01
   1.547725e+01   4.094091e+01
  -3.144057e+01  -4.264658e+00
  -1.971587e+00  -2.890821e+01
   5.948388e+00  -2.589241e+01
   4.574671e+01   1.156865e+01
   6.169686e+01  -5.810246e+00
   5.358767e+01   7.045307e+00
   3.343493e+01   4.525459e+01
  -5.624344e+00   4.755762e+01
  -8.917724e+00  -2.678061e+01
  -2.675325e+01  -3.334144e+01
  -2.538657e+01   7.008727e+00
  -2.254735e+01   4.709855e+01
   6.207290e-01   2.142774e+00
  -2.126432e+01  -2.823673e+01
   2.651548e+01  -2.403674e+01
   3.826180e+01   9.170743e+00
  -2.163054e+00   2.011529e+01
   1.594552e+01   2.862937e+01
  -3.691801e+01   2.837563e+01
  -2.320743e+01  -1.150266e+01
  -2.494283e+01  -1.937430e+01
   2.029519e+01  -5.487968e+01
   7.866792e+01  -4.412766e+01
   8.689795e+01   1.787634e+01
   6.192759e+01   3.840796e+01
   3.777396e+01   3.390926e+01
  -7.663712e+00   1.904439e+01
  -7.688076e+00  -9.958708e-01
  -1.999656e+01   2.056266e+01
  -5.180809e+00   2.518369e+01
  -3.216410e+01  -1.096395e+01
  -2.292027e+01  -3.786975e+01
  -4.376556e+01  -9.173177e+01
   1.512702e+01  -3.717838e+01
   5.450208e+01   7.470127e+00
   5.380952e+01   5.644578e+01
   7.497565e+00   2.228775e+01
   6.380021e-01   1.891977e+01
  -3.189570e+01   1.401897e+00
  -1.900417e+01  -1.634602e+01
   1.118304e+01   1.071364e+01
  -1.352269e+01  -2.045279e-01
  -4.077351e+00   9.734643e+00
  -1.767944e+01  -2.686505e+01
  -8.863900e+00  -3.056489e+01
   3.118563e+01  -2.949715e+01
   5.247028e+01   1.141186e+01
   1.578347e+01   7.279932e+01
  -8.136689e+00  -6.044417e+00
  -7.918834e+01  -1.453833e+01
   1.734092e+00   6.416812e+00
  -4.454907e+00  -2.545475e+01
  -5.684377e+00   4.803931e+01
   1.729666e+01   3.395990e+01
   4.930289e+00   3.171772e+01
  -7.351754e+00  -3.210842e+00
  -1.282085e+01  -1.124424e+01
  -5.672440e+00   1.586107e+01
  -1.174058e+01   9.685617e+00
  -1.252523e+01   1.275931e+01
  -1.933903e+00   4.997641e+00
   1.272077e+01  -2.063070e+01
   2.449660e+01  -4.333394e+01
   3.020355e+01  -3.700786e+01
   2.093574e+01  -1.421347e+01
   3.072414e+00   1.285494e+01
  -3.364606e+01   2.180988e+01
  -4.112313e+00   1.265029e+01
   1.623430e+01  -1.828898e+01
   2.482556e+01  -4.504334e+00
   3.689410e+01   1.463913e+01
  -2.956621e+01   7.319897e+01
  -2.060879e+01   1.402489e+00
  -1.869390e+01   1.356300e+00
  -2.363829e+01  -3.482631e+01
  -6.865286e-02  -2.122948e+01
   2.516654e+00  -3.055198e+00
  -1.885182e+01  -1.164879e+00
  -1.441873e+01   1.492020e+01
   1.276287e+01  -5.497306e+00
  -2.175056e+01  -4.161713e+01
   4.021111e+01  -3.453367e+01
   2.152563e+01   9.132160e+00
   5.919145e+00   2.402206e+01
   1.144088e+01   1.329839e+01
  -1.063929e+01   1.630067e+01
  -2.762880e+01  -2.379286e+01
  -1.236634e+01  -4.037514e+01
  -1.115627e+01   5.453045e+00
   9.988069e+00   1.250200e+01
   4.983532e+01   7.897966e+00
  -1.315490e-01  -2.092825e+01
  -8.498480e+00   9.584972e+00
   1.902603e+01   2.555594e+01
   1.437865e+00  -7.307574e+00
  -1.088881e+01   2.970543e+01
  -4.291010e+01  -1.728499e+00
   2.800152e+01  -1.053655e+00
   1.497171e+01  -1.965420e+01
  -3.950312e+01  -1.202731e+00
   6.593470e+00  -9.395385e-01
  -2.417825e-01   2.267620e+01
  -4.400234e+01   8.609444e-01
  -2.249600e+01  -2.517782e+01
   1.830995e+01  -7.615722e+00
  -3.941449e+00  -4.341012e+01
  -1.511746e+01  -2.363368e+01
  -1.305129e+01   1.302376e+01
  -7.902395e+00  -3.427890e+01
   1.783513e+01  -4.796655e+01
   5.823842e+01  -2.003516e+01
   2.908834e+01  -3.566692e+00
   2.582424e+00   3.721920e+01
   7.963338e+00   3.961762e+01
  -7.138501e+00   4.755083e+01
   5.695296e-01  -1.818193e+01
  -4.085021e+01   1.527251e+01
   5.787281e+00  -7.511159e+00
   1.639982e+00   3.177655e+00
  -1.198853e+01  -1.858318e+01
  -3.991869e+00  -7.496582e+00
   7.296561e+00   9.422490e+00
   3.527637e+01   2.288285e+01
   2.401151e+01   9.953041e+00
   2.878351e+01  -6.634721e+00
  -1.352717e+01  -9.770032e+00
  -8.431975e+00  -4.589069e-01
   6.126365e+00  -2.304622e+01
   1.499556e+01  -9.007242e+00
   1.652132e+01  -1.996982e+01
   2.249657e+00  -1.279431e+01
  -5.363901e+00   1.053671e+01
  -5.848953e+00   1.339989e+01
   9.195101e+00  -7.346385e+00
   3.637622e+01  -1.533162e+01
   2.653401e+01   2.019636e+01
   4.817697e+00   2.218107e+01
  -2.097418e+00   6.034060e+00
  -3.744138e+01   2.834693e+01
  -1.530402e+01  -1.604243e+01
   1.313469e+01  -2.911428e+01
   1.452591e+01   3.347093e+00
   1.458950e+00   2.061705e+01
   5.315061e+00   4.069248e+01
  -7.694214e+00  -9.108000e+00
  -1.592486e+01  -2.903576e+01
  -2.579016e+01  -5.885859e+00
   1.369850e+01   1.342241e+01
  -1.700236e+01  -7.927649e+00
   1.156884e+01  -2.284737e+01
   2.749881e+01  -1.261720e+01
   2.353563e+01  -1.396705e+01
  -1.062531e+01   4.484224e+00
  -9.486604e-01  -6.775102e+00
   1.164383e+00  -1.860932e+01
  -9.452950e+00   3.365280e+01
   8.961618e+00  -3.483918e+01
  -3.013438e+01  -1.981652e+01
   5.368445e+00   1.214153e+01
  -1.177215e+01   4.745206e+00
  -3.722921e+00   3.578196e+01
  -3.046117e+01  -2.140464e+00
  -1.638077e+01  -1.099933e+00
   3.498867e+01  -5.145988e+00
   3.517434e+01  -2.855521e+01
   4.049702e+00   6.075456e+00
  -1.539748e+01   6.502640e+00
  -1.785113e+01   2.499878e-01
  -1.368575e+01  -9.167417e+00
   2.129380e+01  -1.925921e+01
