
 $NMID
 id='ANONYMOUS ', fmtdat='(2E16.6)'
 volume=1.0
 tramp=1.0
 $END
  -3.057075e+07   5.691328e+05
  -1.982505e+07  -1.581286e+07
   1.302427e+06  -1.986317e+07
   1.362851e+07  -1.111888e+07
   1.016479e+07   5.227075e+05
  -1.892294e+05   5.296537e+06
  -5.773068e+06   1.537913e+06
  -3.522905e+06  -4.940931e+06
   1.996313e+06  -7.120703e+06
   5.443708e+06  -2.835226e+06
   4.607185e+06   3.626084e+06
   7.106224e+05   5.738556e+06
  -2.639525e+06   1.475175e+06
  -2.152833e+06  -4.345258e+06
   1.731496e+06  -5.252619e+06
   4.784315e+06  -1.871663e+05
   3.405136e+06   5.754012e+06
  -1.481756e+06   7.191807e+06
  -5.649676e+06   3.597610e+06
  -5.985867e+06  -1.402794e+06
  -3.043103e+06  -4.188330e+06
   8.077315e+04  -3.929011e+06
   7.026866e+05  -2.385013e+06
  -1.016570e+06  -1.878420e+06
  -2.065904e+06  -3.037585e+06
   2.872356e+05  -4.107646e+06
   4.874447e+06  -2.907985e+06
   7.168906e+06   3.960337e+05
   4.381544e+06   3.172370e+06
  -9.165405e+05   3.202679e+06
  -3.571978e+06   9.428545e+05
  -1.662668e+06  -1.334731e+06
   1.913535e+06  -1.794982e+06
   3.373277e+06  -1.463900e+05
   1.943876e+06   2.395580e+06
  -4.128981e+05   3.639618e+06
  -1.651500e+06   2.079635e+06
  -1.223216e+06  -9.987621e+05
   1.074415e+04  -2.161565e+06
   5.746469e+05   8.714784e+04
  -3.625019e+05   2.814182e+06
  -1.864244e+06   2.089606e+06
  -1.868728e+06  -1.585672e+06
   3.642555e+05  -3.537198e+06
   2.852795e+06  -9.748351e+05
   2.743098e+06   3.323126e+06
  -4.746590e+05   4.541835e+06
  -4.153434e+06   1.530295e+06
  -4.984048e+06  -2.503591e+06
  -2.101313e+06  -4.052322e+06
   2.129468e+06  -2.503871e+06
   4.181292e+06   2.783837e+05
   2.503399e+06   2.040719e+06
  -1.010143e+06   1.691727e+06
  -2.858885e+06  -8.047757e+04
  -1.552199e+06  -1.377231e+06
   9.007644e+05  -9.220025e+05
   1.506866e+06   5.219857e+05
  -1.429867e+05   1.087524e+06
  -1.610227e+06   9.617709e+04
  -7.818442e+05  -1.250548e+06
   1.618324e+06  -1.434931e+06
   3.008095e+06  -1.210512e+05
   1.781021e+06   1.920813e+06
  -1.272205e+06   3.479944e+06
  -3.924718e+06   3.306914e+06
  -4.430089e+06   9.041811e+05
  -2.769927e+06  -2.461145e+06
  -4.811644e+05  -4.352025e+06
   7.826969e+05  -3.605989e+06
   7.520569e+05  -1.684056e+06
   5.548145e+05  -7.871610e+05
   1.184796e+06  -1.091191e+06
   2.261130e+06  -8.793952e+05
   2.539086e+06   7.376302e+05
   1.383602e+06   2.400260e+06
  -5.582510e+05   2.205126e+06
  -1.938039e+06   7.298884e+04
  -1.703636e+06  -2.150650e+06
   1.472124e+05  -2.604940e+06
   2.351321e+06  -1.024188e+06
   3.154587e+06   1.285152e+06
   1.899591e+06   2.682108e+06
  -1.786482e+05   2.515704e+06
  -1.270328e+06   1.508359e+06
  -1.106796e+06   8.468611e+05
  -1.121834e+06   8.630176e+05
  -2.303655e+06   7.654856e+05
  -3.590065e+06  -2.877488e+05
  -3.035667e+06  -2.095624e+06
  -2.915809e+05  -3.507039e+06
   2.724928e+06  -3.422875e+06
   3.717639e+06  -1.689208e+06
   2.223823e+06   6.757470e+05
  -1.142728e+05   2.058022e+06
  -1.221043e+06   1.521395e+06
  -4.501964e+05  -1.582406e+05
   1.023381e+06  -1.092784e+06
   1.531521e+06  -3.392334e+05
   6.294065e+05   9.523159e+05
  -5.459402e+05   9.943115e+05
  -6.223361e+05  -2.656578e+05
   4.935478e+05  -9.961925e+05
   1.581271e+06   1.685871e+05
   1.397512e+06   2.330722e+06
  -2.042488e+05   3.310043e+06
  -2.239373e+06   2.028978e+06
  -3.338739e+06  -5.125514e+05
  -2.679494e+06  -2.403307e+06
  -6.769699e+05  -2.546647e+06
   1.151168e+06  -1.356475e+06
   1.453793e+06  -1.597512e+05
   4.324415e+05   2.692584e+04
  -3.447144e+05  -6.332897e+05
   2.277670e+05  -1.072541e+06
   1.450192e+06  -5.405835e+05
   1.696672e+06   5.377275e+05
   4.648036e+05   1.078478e+06
  -9.485831e+05   5.889267e+05
  -9.328583e+05  -3.382093e+05
   6.031060e+05  -7.161562e+05
   2.099377e+06  -1.023237e+05
   1.937464e+06   1.098586e+06
   5.097142e+04   1.968231e+06
  -1.989674e+06   1.720999e+06
  -2.452253e+06   3.927585e+05
  -1.079469e+06  -9.782170e+05
   6.944976e+05  -1.193611e+06
   1.188546e+06  -1.712314e+05
   1.155538e+05   8.491193e+05
  -1.264569e+06   6.558982e+05
  -1.534811e+06  -5.433510e+05
  -4.997164e+05  -1.403919e+06
   7.854353e+05  -1.036796e+06
   1.144423e+06   3.929604e+04
   3.776009e+05   6.039612e+05
  -5.994111e+05   9.975135e+04
  -6.344971e+05  -8.699299e+05
   4.990723e+05  -1.232882e+06
   1.751314e+06  -4.804380e+05
   1.779950e+06   8.825168e+05
   3.968857e+05   1.772272e+06
  -1.145369e+06   1.474354e+06
  -1.472494e+06   2.990950e+05
  -5.294025e+05  -7.053539e+05
   5.115082e+05  -7.635954e+05
   6.397609e+05  -8.451609e+04
  -8.353968e+03   4.721391e+05
  -5.402221e+05   3.687529e+05
  -3.675494e+05  -8.237365e+04
   2.510012e+05  -1.621573e+05
   5.430759e+05   3.864551e+05
  -1.375366e+04   1.006949e+06
  -1.129138e+06   8.627219e+05
  -1.832215e+06  -2.684181e+05
  -1.335981e+06  -1.643556e+06
   1.131183e+05  -2.165793e+06
   1.387411e+06  -1.412486e+06
   1.603814e+06  -4.262527e+04
   9.691612e+05   8.609533e+05
   3.712967e+05   8.311957e+05
   2.935428e+05   3.526203e+05
   3.872015e+05   2.004894e+05
   7.445714e+04   5.573831e+05
  -6.825860e+05   8.487889e+05
  -1.290677e+06   4.283057e+05
  -1.075418e+06  -6.244747e+05
   8.049969e+04  -1.431248e+06
   1.489278e+06  -1.105916e+06
   2.051499e+06   3.179677e+05
   1.150714e+06   1.777013e+06
  -6.785395e+05   2.097650e+06
  -2.097892e+06   1.081507e+06
  -2.149760e+06  -3.552924e+05
  -1.085079e+06  -1.129351e+06
   3.289334e+04  -1.003762e+06
   4.378682e+05  -6.253648e+05
   2.652071e+05  -6.573439e+05
   1.646470e+05  -1.023462e+06
   5.167882e+05  -1.050975e+06
   1.060534e+06  -2.840458e+05
   1.179271e+06   9.254189e+05
   5.315192e+05   1.661316e+06
  -5.234012e+05   1.286750e+06
  -1.145666e+06   6.753984e+04
  -7.916457e+05  -1.037602e+06
   1.943731e+05  -1.225535e+06
   8.818305e+05  -5.135438e+05
   7.114610e+05   3.957265e+05
   5.383696e+04   8.359214e+05
  -2.774496e+05   7.204385e+05
   1.049398e+04   4.340922e+05
   3.622813e+05   3.213926e+05
   4.461599e+04   3.523303e+05
  -9.449216e+05   2.400980e+05
  -1.742835e+06  -1.970482e+05
  -1.452387e+06  -8.040112e+05
  -1.113288e+05  -1.180576e+06
   1.243232e+06  -1.012803e+06
   1.556463e+06  -3.758947e+05
   7.814829e+05   2.682933e+05
  -1.601991e+05   4.415663e+05
  -4.094895e+05   1.005887e+05
   6.910202e+03  -2.891168e+05
   4.287560e+05  -2.181910e+05
   4.180983e+05   2.910934e+05
   1.437687e+05   6.644918e+05
   3.162271e+03   4.314567e+05
   1.264690e+05  -1.586381e+05
   3.118130e+05  -3.575429e+05
   2.688691e+05   1.840626e+05
  -1.439658e+05   9.116773e+05
  -7.573880e+05   9.475651e+05
  -1.080314e+06   1.214807e+05
  -6.597247e+05  -7.916082e+05
   3.378541e+05  -9.225587e+05
   1.036488e+06  -2.331910e+05
   6.501516e+05   5.183010e+05
  -5.739177e+05   6.130120e+05
  -1.449430e+06   2.181168e+04
  -1.049182e+06  -7.000485e+05
   2.953958e+05  -9.692366e+05
   1.333119e+06  -6.130167e+05
   1.186087e+06   5.275365e+04
   1.878928e+05   4.731547e+05
  -5.533003e+05   3.059755e+05
  -3.155684e+05  -2.191766e+05
   5.523202e+05  -4.336605e+05
   1.045137e+06   1.126858e+05
   5.404093e+05   1.071374e+06
  -5.841629e+05   1.494793e+06
  -1.348362e+06   7.624065e+05
  -1.134777e+06  -6.787032e+05
  -2.154712e+05  -1.615864e+06
   6.259014e+05  -1.227601e+06
   8.471321e+05   7.087207e+04
   4.817369e+05   1.042398e+06
  -8.692275e+04   9.152218e+05
  -4.746305e+05   1.242537e+05
  -4.867106e+05  -3.361205e+05
  -2.159415e+05  -1.367196e+05
  -1.511843e+04   1.058717e+05
  -1.634240e+05  -2.155570e+05
  -4.465782e+05  -8.326304e+05
  -2.792530e+05  -9.712766e+05
   5.384460e+05  -3.837596e+05
   1.345953e+06   3.779758e+05
   1.242112e+06   7.110657e+05
   1.928797e+05   6.041277e+05
  -8.163268e+05   3.931862e+05
  -8.988078e+05   2.147289e+05
  -2.691896e+05  -2.148567e+03
   1.493908e+05  -1.999482e+05
  -4.910757e+04  -2.185528e+05
  -3.197936e+05  -1.172221e+05
  -1.796584e+04  -1.239186e+05
   6.711211e+05  -1.997208e+05
   9.262291e+05   1.124540e+04
   2.866703e+05   6.005952e+05
  -8.020447e+05   1.025962e+06
  -1.451550e+06   6.519077e+05
  -1.175236e+06  -4.035159e+05
  -2.448794e+05  -1.264255e+06
   6.369743e+05  -1.217260e+06
   9.264050e+05  -4.500280e+05
   6.025864e+05   2.357972e+05
   9.402962e+04   3.172735e+05
  -1.285856e+05   1.912713e+04
   4.556226e+04  -6.648174e+04
   3.096704e+05   2.978234e+05
   2.671625e+05   7.145738e+05
  -1.621420e+05   5.945311e+05
  -6.269961e+05  -1.432537e+05
  -6.370220e+05  -8.847762e+05
  -4.361204e+04  -9.138275e+05
   7.131041e+05  -1.694360e+05
   9.172309e+05   6.874990e+05
   2.855942e+05   9.637010e+05
  -6.369788e+05   5.669986e+05
  -9.657905e+05  -6.703073e+04
  -4.440326e+05  -4.906827e+05
   2.412433e+05  -5.471834e+05
   2.753499e+05  -3.178785e+05
  -2.841079e+05  -2.468124e+04
  -5.955768e+05   3.801029e+04
  -1.145009e+05  -2.609333e+05
   7.231114e+05  -6.299775e+05
   1.057784e+06  -5.502199e+05
   6.191585e+05   9.783970e+04
  -7.625405e+04   7.528290e+05
  -4.234290e+05   7.461675e+05
  -3.171086e+05   1.047452e+05
  -2.535132e+04  -4.534176e+05
   2.185491e+05  -3.599259e+05
   3.228914e+05   1.793345e+05
   2.286514e+05   5.128686e+05
  -5.644601e+04   3.325462e+05
  -3.483453e+05  -5.694336e+04
  -4.082554e+05  -2.041908e+05
  -2.158290e+05  -4.723984e+04
   3.539642e+03   9.149724e+04
   6.940925e+04  -5.204058e+04
   5.754046e+04  -3.541177e+05
   1.457198e+05  -4.364813e+05
   3.200766e+05  -1.021432e+05
   3.457662e+05   3.989579e+05
   5.445503e+04   5.883599e+05
  -3.878085e+05   2.619677e+05
  -5.627018e+05  -2.758372e+05
  -2.094294e+05  -5.305661e+05
   4.302463e+05  -3.259979e+05
   7.573283e+05   7.819766e+04
   4.176566e+05   3.307175e+05
  -2.571306e+05   3.211503e+05
  -5.538492e+05   1.635217e+05
  -1.807681e+05   9.829319e+03
   3.695988e+05  -2.599552e+04
   3.911829e+05   1.095279e+05
  -1.920324e+05   3.014383e+05
  -7.387220e+05   2.566790e+05
