
 $NMID
 id='ANONYMOUS ', fmtdat='(2E16.6)'
 volume=1.0
 tramp=1.0
 $END
  -3.224838e+07   2.999597e+05
  -2.036186e+07  -1.766012e+07
   2.286214e+06  -2.113757e+07
   1.476111e+07  -1.070808e+07
   1.029221e+07   1.540301e+06
  -7.002323e+05   5.486138e+06
  -5.931037e+06   9.539609e+05
  -3.093648e+06  -5.300155e+06
   2.505274e+06  -6.875310e+06
   5.663081e+06  -2.453536e+06
   4.607362e+06   3.757206e+06
   6.604701e+05   5.737045e+06
  -2.655726e+06   1.552548e+06
  -2.065763e+06  -4.176419e+06
   1.909889e+06  -5.030963e+06
   4.879914e+06   8.144422e+04
   3.279394e+06   6.000341e+06
  -1.743559e+06   7.333567e+06
  -5.913754e+06   3.656838e+06
  -6.274817e+06  -1.416900e+06
  -3.354976e+06  -4.403307e+06
  -1.649327e+04  -4.376696e+06
   1.027819e+06  -2.757915e+06
  -4.792002e+05  -1.819885e+06
  -1.776167e+06  -2.633537e+06
   1.567462e+05  -3.801446e+06
   4.575701e+06  -2.935222e+06
   7.012732e+06   2.154341e+05
   4.463516e+06   3.085464e+06
  -6.676351e+05   3.265602e+06
  -3.331593e+06   1.142510e+06
  -1.683723e+06  -1.017742e+06
   1.536775e+06  -1.541714e+06
   2.935134e+06  -2.186459e+05
   1.849846e+06   2.043684e+06
  -1.912859e+05   3.408221e+06
  -1.552763e+06   2.200511e+06
  -1.458014e+06  -7.949953e+05
  -2.568504e+05  -2.244848e+06
   5.839206e+05  -2.408450e+05
  -2.033783e+05   2.544897e+06
  -1.802633e+06   1.961583e+06
  -1.802072e+06  -1.714737e+06
   6.757765e+05  -3.652253e+06
   3.276167e+06  -8.744389e+05
   2.883687e+06   3.647929e+06
  -6.852904e+05   4.806757e+06
  -4.349097e+06   1.537328e+06
  -4.896867e+06  -2.612514e+06
  -1.893595e+06  -4.035073e+06
   2.167826e+06  -2.334634e+06
   4.011775e+06   4.482888e+05
   2.284412e+06   2.098380e+06
  -1.156541e+06   1.627117e+06
  -2.891536e+06  -2.158325e+05
  -1.481937e+06  -1.481855e+06
   9.634418e+05  -9.158958e+05
   1.421684e+06   5.586232e+05
  -3.151770e+05   9.637991e+05
  -1.602196e+06  -2.090281e+05
  -4.795076e+05  -1.484238e+06
   1.968037e+06  -1.373090e+06
   3.118591e+06   1.331546e+05
   1.713013e+06   2.092693e+06
  -1.256769e+06   3.488478e+06
  -3.785483e+06   3.297159e+06
  -4.364516e+06   9.699210e+05
  -2.843627e+06  -2.383105e+06
  -5.173345e+05  -4.300407e+06
   8.888658e+05  -3.497676e+06
   8.398757e+05  -1.468199e+06
   4.314879e+05  -5.654721e+05
   8.901617e+05  -1.007811e+06
   1.985135e+06  -9.757627e+05
   2.399816e+06   5.141462e+05
   1.395214e+06   2.139498e+06
  -4.119265e+05   2.033599e+06
  -1.728530e+06   1.009676e+05
  -1.578017e+06  -1.964528e+06
   1.040246e+05  -2.457357e+06
   2.236466e+06  -1.050954e+06
   3.124339e+06   1.168693e+06
   1.961958e+06   2.647775e+06
  -1.481145e+05   2.592450e+06
  -1.335352e+06   1.577536e+06
  -1.197008e+06   8.201707e+05
  -1.140858e+06   7.650873e+05
  -2.219336e+06   6.651545e+05
  -3.427980e+06  -3.310124e+05
  -2.873951e+06  -2.029701e+06
  -2.530082e+05  -3.330855e+06
   2.578952e+06  -3.241517e+06
   3.498481e+06  -1.639511e+06
   2.126612e+06   5.776380e+05
  -3.544923e+04   1.932047e+06
  -1.105422e+06   1.475754e+06
  -4.361008e+05  -1.271303e+05
   9.530011e+05  -1.047637e+06
   1.473949e+06  -3.243527e+05
   6.289228e+05   9.209663e+05
  -4.981441e+05   9.393116e+05
  -5.440670e+05  -2.618430e+05
   5.412032e+05  -8.682712e+05
   1.493769e+06   3.315961e+05
   1.166168e+06   2.322175e+06
  -3.994555e+05   3.055209e+06
  -2.192072e+06   1.723360e+06
  -3.065337e+06  -6.081411e+05
  -2.411362e+06  -2.257673e+06
  -5.987024e+05  -2.353274e+06
   1.070872e+06  -1.272411e+06
   1.360721e+06  -1.630508e+05
   4.082569e+05   2.693000e+04
  -3.220403e+05  -6.029415e+05
   2.391633e+05  -1.033501e+06
   1.412109e+06  -5.064723e+05
   1.620018e+06   5.512435e+05
   4.160193e+05   1.049653e+06
  -9.111566e+05   5.428955e+05
  -8.552874e+05  -3.277672e+05
   5.912221e+05  -6.299784e+05
   1.945370e+06  -3.418302e+04
   1.757785e+06   1.045083e+06
   6.316067e+03   1.812690e+06
  -1.879695e+06   1.581720e+06
  -2.312030e+06   3.493015e+05
  -1.019118e+06  -9.474091e+05
   6.768991e+05  -1.152866e+06
   1.158010e+06  -1.613735e+05
   1.217073e+05   8.231762e+05
  -1.207298e+06   6.215745e+05
  -1.446486e+06  -5.369290e+05
  -4.365306e+05  -1.333278e+06
   7.718448e+05  -9.462562e+05
   1.072547e+06   7.931823e+04
   3.266152e+05   5.854652e+05
  -5.864104e+05   8.627633e+04
  -6.061176e+05  -8.313888e+05
   4.685123e+05  -1.171844e+06
   1.656763e+06  -4.600722e+05
   1.687271e+06   8.363089e+05
   3.686306e+05   1.683642e+06
  -1.101543e+06   1.389839e+06
  -1.398538e+06   2.636018e+05
  -4.842291e+05  -6.766503e+05
   4.948682e+05  -7.119938e+05
   5.895449e+05  -7.873949e+04
  -2.260131e+04   4.169053e+05
  -4.870197e+05   3.172142e+05
  -2.992119e+05  -6.860490e+04
   2.605242e+05  -1.090903e+05
   4.952098e+05   4.006363e+05
  -4.172104e+04   9.563639e+05
  -1.079523e+06   8.038010e+05
  -1.731170e+06  -2.657047e+05
  -1.258287e+06  -1.560924e+06
   1.146274e+05  -2.039168e+06
   1.311475e+06  -1.305785e+06
   1.490874e+06  -1.670156e+04
   8.771742e+05   7.942954e+05
   3.377925e+05   7.334527e+05
   3.041270e+05   3.024893e+05
   3.973025e+05   2.036476e+05
   7.244104e+04   5.476580e+05
  -6.575808e+05   7.920554e+05
  -1.212309e+06   3.823019e+05
  -9.885101e+05  -5.857825e+05
   9.595085e+04  -1.322208e+06
   1.405970e+06  -1.018698e+06
   1.924096e+06   3.131115e+05
   1.063227e+06   1.687541e+06
  -6.745605e+05   1.979544e+06
  -2.004179e+06   9.938709e+05
  -2.014678e+06  -3.716841e+05
  -9.812405e+05  -1.070915e+06
   5.488111e+04  -9.140709e+05
   3.915342e+05  -5.592078e+05
   2.106500e+05  -6.248984e+05
   1.393969e+05  -9.926200e+05
   4.999178e+05  -1.009926e+06
   1.016202e+06  -2.704154e+05
   1.116788e+06   8.753956e+05
   4.997389e+05   1.568896e+06
  -4.948128e+05   1.213279e+06
  -1.079208e+06   5.430149e+04
  -7.359389e+05  -9.949539e+05
   2.085287e+05  -1.157924e+06
   8.575333e+05  -4.566567e+05
   6.721355e+05   4.135906e+05
   2.140004e+04   8.096095e+05
  -2.971091e+05   6.739018e+05
  -4.776787e+03   3.962598e+05
   3.470834e+05   2.971769e+05
   4.517522e+04   3.294812e+05
  -9.038564e+05   2.189066e+05
  -1.660372e+06  -1.988252e+05
  -1.368564e+06  -7.752726e+05
  -8.069929e+04  -1.130147e+06
   1.201280e+06  -9.584456e+05
   1.479188e+06  -3.343033e+05
   7.287647e+05   2.830517e+05
  -1.637450e+05   4.286726e+05
  -3.937853e+05   8.235201e+04
  -4.742356e+02  -2.888919e+05
   3.964550e+05  -2.093527e+05
   3.967788e+05   2.754058e+05
   1.539641e+05   6.219468e+05
   2.062497e+04   4.062115e+05
   1.169623e+05  -1.354586e+05
   2.792244e+05  -3.199780e+05
   2.494860e+05   1.760150e+05
  -1.277395e+05   8.530114e+05
  -7.180509e+05   8.964046e+05
  -1.043815e+06   1.252557e+05
  -6.444546e+05  -7.483012e+05
   3.213903e+05  -8.887827e+05
   9.926500e+05  -2.367625e+05
   6.153998e+05   4.841612e+05
  -5.483503e+05   5.723634e+05
  -1.357894e+06   5.018945e+03
  -9.602297e+05  -6.680784e+05
   3.009738e+05  -8.956853e+05
   1.252762e+06  -5.455000e+05
   1.099496e+06   6.786556e+04
   1.653174e+05   4.416376e+05
  -5.250217e+05   2.771193e+05
  -3.036666e+05  -2.142173e+05
   5.125270e+05  -4.180653e+05
   9.878630e+05   9.311007e+04
   5.263897e+05   1.003840e+06
  -5.316612e+05   1.416670e+06
  -1.262045e+06   7.306142e+05
  -1.069470e+06  -6.335193e+05
  -2.034479e+05  -1.517714e+06
   5.908204e+05  -1.144211e+06
   7.934817e+05   8.082798e+04
   4.383570e+05   9.838158e+05
  -1.002408e+05   8.515913e+05
  -4.520952e+05   1.089053e+05
  -4.453291e+05  -3.140636e+05
  -1.894350e+05  -1.243943e+05
  -1.973867e+04   9.516771e+04
  -1.732764e+05  -2.132302e+05
  -4.264747e+05  -7.890125e+05
  -2.444285e+05  -9.114263e+05
   5.267938e+05  -3.568369e+05
   1.263578e+06   3.573995e+05
   1.152167e+06   6.709579e+05
   1.786538e+05   5.722502e+05
  -7.550774e+05   3.709217e+05
  -8.410455e+05   1.957224e+05
  -2.649618e+05  -1.092360e+04
   1.355442e+05  -1.896421e+05
  -2.966224e+04  -1.971351e+05
  -2.838066e+05  -1.006571e+05
  -2.396026e+04  -1.157478e+05
   6.133519e+05  -1.951990e+05
   8.749795e+05   5.006724e+03
   2.961162e+05   5.690607e+05
  -7.386761e+05   9.778451e+05
  -1.379420e+06   6.278243e+05
  -1.129467e+06  -3.696863e+05
  -2.386515e+05  -1.188027e+06
   6.039507e+05  -1.153307e+06
   8.730294e+05  -4.369191e+05
   5.657194e+05   2.117325e+05
   9.660623e+04   2.993063e+05
  -1.061287e+05   2.869642e+04
   4.836353e+04  -5.081294e+04
   2.839389e+05   2.855689e+05
   2.454657e+05   6.732932e+05
  -1.487087e+05   5.643969e+05
  -5.879352e+05  -1.224857e+05
  -6.119803e+05  -8.217401e+05
  -6.123679e+04  -8.632808e+05
   6.617405e+05  -1.771343e+05
   8.711331e+05   6.313406e+05
   2.817628e+05   9.087577e+05
  -5.967040e+05   5.478738e+05
  -9.186814e+05  -5.667559e+04
  -4.289034e+05  -4.731312e+05
   2.275870e+05  -5.313954e+05
   2.727174e+05  -3.037348e+05
  -2.527192e+05  -1.692273e+04
  -5.572505e+05   3.937461e+04
  -1.135723e+05  -2.486391e+05
   6.805210e+05  -5.928313e+05
   1.008960e+06  -5.088476e+05
   5.987038e+05   1.031697e+05
  -6.928861e+04   7.157300e+05
  -4.110323e+05   7.101401e+05
  -3.137542e+05   1.101792e+05
  -3.278597e+04  -4.210772e+05
   2.024047e+05  -3.478747e+05
   3.038530e+05   1.548988e+05
   2.187347e+05   4.824034e+05
  -4.886637e+04   3.259563e+05
  -3.290866e+05  -4.698333e+04
  -3.899855e+05  -2.011179e+05
  -2.036313e+05  -5.257095e+04
   1.039769e+04   9.692478e+04
   6.549361e+04  -2.713519e+04
   3.453950e+04  -3.252029e+05
   1.095582e+05  -4.267550e+05
   2.928865e+05  -1.218890e+05
   3.449999e+05   3.590052e+05
   7.700488e+04   5.522943e+05
  -3.579112e+05   2.546965e+05
  -5.402732e+05  -2.494109e+05
  -2.058697e+05  -4.940254e+05
   4.088115e+05  -3.104671e+05
   7.222632e+05   6.550779e+04
   3.986895e+05   3.103119e+05
  -2.415520e+05   3.137438e+05
  -5.253878e+05   1.682533e+05
  -1.811244e+05   1.191600e+04
   3.332974e+05  -3.658960e+04
   3.631255e+05   8.683751e+04
  -1.678661e+05   2.755093e+05
  -6.753609e+05   2.445548e+05
