
 $NMID
 id='ANONYMOUS ', fmtdat='(2E16.6)'
 volume=1.0
 tramp=1.0
 $END
  -5.788228e+07  -8.966968e+04
  -3.458636e+07  -3.622581e+07
   8.011762e+06  -3.923936e+07
   2.848298e+07  -1.464054e+07
   1.674222e+07   7.594456e+06
  -3.596573e+06   9.540511e+06
  -1.002095e+07  -1.518383e+06
  -2.605452e+06  -1.005901e+07
   6.512232e+06  -9.331106e+06
   9.870318e+06  -1.841235e+06
   7.092258e+06   6.332731e+06
   8.196679e+05   8.708163e+06
  -4.046715e+06   2.829110e+06
  -2.636815e+06  -5.413126e+06
   3.885868e+06  -6.518489e+06
   8.016350e+06   1.479868e+06
   4.445919e+06   1.044923e+07
  -3.947015e+06   1.201884e+07
  -1.035887e+07   6.023789e+06
  -1.109828e+07  -2.069828e+06
  -6.878466e+06  -7.685613e+06
  -7.617862e+05  -8.990702e+06
   3.111943e+06  -6.324275e+06
   2.149890e+06  -2.693094e+06
  -9.838034e+05  -1.967373e+06
  -3.426324e+05  -4.072082e+06
   5.305898e+06  -4.485832e+06
   9.706692e+06  -6.254078e+05
   7.191290e+06   4.119198e+06
   3.976488e+05   5.165456e+06
  -3.640103e+06   2.725795e+06
  -2.525986e+06   1.843975e+05
   4.130900e+05  -8.345033e+05
   2.088810e+06  -5.518042e+05
   2.191221e+06   1.265868e+06
   8.322732e+05   3.871721e+06
  -1.769300e+06   3.973972e+06
  -3.400169e+06   9.802724e+02
  -1.877072e+06  -3.726891e+06
   7.932323e+05  -2.116506e+06
   4.406468e+05   2.357800e+06
  -2.453448e+06   2.277955e+06
  -2.451593e+06  -3.293433e+06
   2.602683e+06  -6.268378e+06
   7.244161e+06  -9.835926e+05
   5.261521e+06   7.168735e+06
  -2.029545e+06   8.767263e+06
  -7.614818e+06   2.462659e+06
  -7.005117e+06  -4.547592e+06
  -1.778907e+06  -6.097484e+06
   3.534693e+06  -2.671414e+06
   5.248483e+06   1.619156e+06
   2.357126e+06   3.557688e+06
  -2.515089e+06   2.198797e+06
  -4.604290e+06  -9.938587e+05
  -1.946696e+06  -2.804448e+06
   1.768208e+06  -1.388682e+06
   1.724743e+06   1.054820e+06
  -1.418845e+06   8.724891e+05
  -2.506568e+06  -1.918432e+06
   7.642854e+05  -3.595598e+06
   4.851711e+06  -1.902070e+06
   5.424938e+06   1.487588e+06
   2.320805e+06   4.107621e+06
  -1.812070e+06   5.344603e+06
  -5.002845e+06   4.916783e+06
  -6.246826e+06   1.815092e+06
  -4.689287e+06  -3.157132e+06
  -9.877917e+05  -6.234374e+06
   1.929514e+06  -4.789746e+06
   1.827599e+06  -1.138768e+06
   1.071666e+05   3.598491e+05
  -1.726346e+05  -9.584901e+05
   1.493966e+06  -1.871720e+06
   2.795806e+06  -3.601813e+05
   2.078081e+06   1.833937e+06
   1.053748e+05   2.104487e+06
  -1.481527e+06   2.313612e+05
  -1.657309e+06  -2.018166e+06
  -3.381732e+04  -2.917647e+06
   2.755621e+06  -1.704808e+06
   4.536470e+06   1.143781e+06
   3.313757e+06   3.798731e+06
  -1.455907e+04   4.335013e+06
  -2.340856e+06   2.800279e+06
  -2.311991e+06   1.147378e+06
  -1.873392e+06   6.506033e+05
  -2.955138e+06   4.446203e+05
  -4.354383e+06  -7.902128e+05
  -3.479736e+06  -2.783702e+06
  -1.199383e+05  -4.124843e+06
   3.195166e+06  -3.897286e+06
   4.150144e+06  -2.149398e+06
   2.667453e+06   3.751210e+05
   3.271185e+05   2.221128e+06
  -1.062602e+06   1.958107e+06
  -5.700982e+05  -1.891933e+04
   1.074645e+06  -1.319258e+06
   1.921666e+06  -4.041036e+05
   9.459442e+05   1.216129e+06
  -5.025241e+05   1.114083e+06
  -3.977693e+05  -3.955215e+05
   1.115614e+06  -6.467682e+05
   1.854261e+06   1.402721e+06
   5.401483e+05   3.562728e+06
  -1.730260e+06   3.355578e+06
  -3.187677e+06   9.763676e+05
  -3.240375e+06  -1.528785e+06
  -2.185927e+06  -2.746549e+06
  -4.236438e+05  -2.568568e+06
   1.227195e+06  -1.456843e+06
   1.567948e+06  -2.379858e+05
   4.930346e+05   4.674683e+04
  -3.558254e+05  -7.557759e+05
   4.316100e+05  -1.357655e+06
   1.941134e+06  -5.768016e+05
   2.049422e+06   9.212973e+05
   3.682149e+05   1.442102e+06
  -1.184582e+06   5.609031e+05
  -8.679472e+05  -4.627072e+05
   8.687079e+05  -4.812264e+05
   2.151605e+06   3.744039e+05
   1.684534e+06   1.365773e+06
  -2.854538e+05   1.933908e+06
  -2.311691e+06   1.618088e+06
  -2.773482e+06   2.553179e+05
  -1.219071e+06  -1.286648e+06
   9.369981e+05  -1.526182e+06
   1.592131e+06  -1.910746e+05
   2.130545e+05   1.099605e+06
  -1.529833e+06   7.402588e+05
  -1.718769e+06  -8.039332e+05
  -3.065571e+05  -1.662227e+06
   1.121015e+06  -9.491674e+05
   1.252242e+06   3.507089e+05
   2.190711e+05   7.963894e+05
  -8.158455e+05   4.714712e+04
  -7.437247e+05  -1.064381e+06
   5.746215e+05  -1.433665e+06
   2.014504e+06  -5.498911e+05
   2.046298e+06   1.054495e+06
   3.796028e+05   2.088722e+06
  -1.461682e+06   1.644914e+06
  -1.738216e+06   1.935526e+05
  -4.891885e+05  -8.803935e+05
   6.708087e+05  -7.965531e+05
   6.205329e+05  -7.612157e+04
  -1.332689e+05   3.331382e+05
  -4.706032e+05   1.785424e+05
  -7.680196e+04  -5.759811e+04
   4.721443e+05   1.191390e+05
   5.019002e+05   7.082556e+05
  -2.354321e+05   1.194981e+06
  -1.398612e+06   8.862321e+05
  -2.087094e+06  -4.271540e+05
  -1.465263e+06  -1.956270e+06
   2.239581e+05  -2.420589e+06
   1.619450e+06  -1.388902e+06
   1.670579e+06   1.488780e+05
   8.232617e+05   8.805461e+05
   3.058896e+05   6.043817e+05
   5.037615e+05   1.909202e+05
   6.583075e+05   3.279172e+05
   9.268662e+04   7.867022e+05
  -8.915131e+05   8.934406e+05
  -1.445423e+06   3.026897e+05
  -1.024928e+06  -7.210950e+05
   2.711032e+05  -1.434013e+06
   1.725454e+06  -1.048788e+06
   2.239331e+06   4.973636e+05
   1.112708e+06   2.113307e+06
  -1.044805e+06   2.368822e+06
  -2.569952e+06   1.006526e+06
  -2.340276e+06  -6.959021e+05
  -9.151285e+05  -1.345406e+06
   2.297918e+05  -9.140835e+05
   3.682378e+05  -4.804193e+05
   3.884539e+04  -7.589713e+05
   8.689726e+04  -1.335553e+06
   6.826948e+05  -1.308835e+06
   1.310615e+06  -3.224064e+05
   1.344501e+06   1.082767e+06
   5.575174e+05   1.897837e+06
  -6.221508e+05   1.438816e+06
  -1.285185e+06  -1.081978e+04
  -8.026602e+05  -1.300593e+06
   4.157417e+05  -1.399450e+06
   1.189495e+06  -3.780271e+05
   8.129027e+05   7.387869e+05
  -1.529649e+05   1.097985e+06
  -5.727831e+05   7.769066e+05
  -9.968611e+04   4.027341e+05
   4.400496e+05   3.297508e+05
   6.360698e+04   3.810345e+05
  -1.163079e+06   2.031337e+05
  -2.082915e+06  -3.447963e+05
  -1.618239e+06  -1.054078e+06
   6.247620e+04  -1.453448e+06
   1.620073e+06  -1.146446e+06
   1.844720e+06  -2.583434e+05
   8.257091e+05   5.256270e+05
  -2.744528e+05   5.829121e+05
  -5.202715e+05   2.068317e+04
  -3.880804e+04  -4.397642e+05
   4.344568e+05  -2.642324e+05
   4.861063e+05   3.423437e+05
   2.767731e+05   7.184391e+05
   1.177522e+05   4.790979e+05
   1.347058e+05  -7.886248e+04
   2.617513e+05  -2.731907e+05
   2.710262e+05   2.355081e+05
  -1.303357e+05   9.802983e+05
  -9.025491e+05   1.072341e+06
  -1.393080e+06   1.909875e+05
  -8.824535e+05  -9.158118e+05
   4.160550e+05  -1.164719e+06
   1.277381e+06  -3.623012e+05
   7.397433e+05   5.657385e+05
  -7.103133e+05   6.439502e+05
  -1.579301e+06  -1.118837e+05
  -9.718331e+05  -8.720335e+05
   5.112435e+05  -9.677753e+05
   1.493677e+06  -4.404096e+05
   1.209995e+06   2.119977e+05
   1.199560e+05   5.083726e+05
  -6.538837e+05   2.558511e+05
  -3.938594e+05  -3.036464e+05
   5.725228e+05  -5.386473e+05
   1.189507e+06   5.662328e+04
   7.035417e+05   1.171320e+06
  -5.534854e+05   1.721416e+06
  -1.469000e+06   9.146227e+05
  -1.263434e+06  -7.425557e+05
  -2.137686e+05  -1.786890e+06
   7.367205e+05  -1.281470e+06
   9.203013e+05   1.944690e+05
   4.128761e+05   1.194502e+06
  -2.449877e+05   9.539280e+05
  -5.705043e+05   7.316454e+04
  -4.469088e+05  -3.713293e+05
  -1.411485e+05  -1.290086e+05
  -5.717276e+04   8.802670e+04
  -3.140513e+05  -3.120108e+05
  -5.256247e+05  -9.732350e+05
  -1.655681e+05  -1.072752e+06
   7.471110e+05  -3.909860e+05
   1.473071e+06   4.595038e+05
   1.256255e+06   8.325013e+05
   1.839315e+05   7.045503e+05
  -8.276008e+05   4.272371e+05
  -9.747941e+05   1.771017e+05
  -3.824782e+05  -6.763485e+04
   1.346165e+05  -2.298687e+05
   6.495963e+04  -1.891400e+05
  -2.334006e+05  -7.382188e+04
  -6.491194e+04  -1.314439e+05
   6.255759e+05  -2.560796e+05
   1.054389e+06  -7.936992e+03
   4.905988e+05   6.978488e+05
  -8.007615e+05   1.211392e+06
  -1.722109e+06   8.002957e+05
  -1.464331e+06  -3.998248e+05
  -3.048862e+05  -1.402111e+06
   7.651716e+05  -1.399673e+06
   1.048898e+06  -5.757555e+05
   6.556936e+05   2.055259e+05
   1.538686e+05   3.592923e+05
  -3.929064e+04   8.996408e+04
   9.215652e+04   7.322150e+03
   2.880752e+05   3.762829e+05
   2.421372e+05   8.081467e+05
  -1.645691e+05   6.920473e+05
  -6.787757e+05  -8.723850e+04
  -7.774345e+05  -9.209918e+05
  -1.715842e+05  -1.039202e+06
   7.307995e+05  -2.963339e+05
   1.062458e+06   6.747955e+05
   3.901828e+05   1.091402e+06
  -7.006662e+05   7.185678e+05
  -1.142843e+06  -4.825836e+04
  -5.631071e+05  -6.332852e+05
   2.818538e+05  -7.190104e+05
   4.065487e+05  -3.819749e+05
  -2.148233e+05   8.730667e+03
  -6.425901e+05   5.488010e+04
  -1.634241e+05  -3.140929e+05
   8.188565e+05  -6.884871e+05
   1.285265e+06  -5.332829e+05
   8.015225e+05   1.953797e+05
  -8.115160e+04   8.881217e+05
  -5.725470e+05   8.810916e+05
  -4.604784e+05   1.933139e+05
  -8.051648e+04  -4.662448e+05
   2.270971e+05  -4.602963e+05
   3.547737e+05   1.104011e+05
   2.696397e+05   5.744355e+05
  -3.806144e+04   4.593109e+05
  -3.951321e+05  -2.423002e+04
  -4.928206e+05  -2.966571e+05
  -2.448489e+05  -1.129605e+05
   5.256095e+04   1.758459e+05
   8.291860e+04   9.446544e+04
  -6.356608e+04  -3.350894e+05
  -2.249007e+04  -5.906755e+05
   2.974308e+05  -2.851038e+05
   5.114079e+05   3.348261e+05
   2.275181e+05   6.439483e+05
  -3.878547e+05   3.401803e+05
  -6.951551e+05  -2.468482e+05
  -2.830546e+05  -5.582460e+05
   5.130810e+05  -3.811915e+05
   9.081651e+05   4.474593e+04
   4.982974e+05   3.697442e+05
  -2.881292e+05   4.328484e+05
  -6.474601e+05   2.720523e+05
  -2.779150e+05   2.796200e+04
   3.098053e+05  -1.036702e+05
   3.969052e+05   1.762551e+04
  -1.319623e+05   2.737510e+05
  -6.908763e+05   2.898746e+05
