
 $NMID
 id='ANONYMOUS ', fmtdat='(2E16.6)'
 volume=1.0
 tramp=1.0
 $END
  -1.042132e+07  -4.008533e+05
  -7.060645e+06  -3.671965e+06
  -8.689423e+05  -5.904867e+06
   3.730037e+06  -5.540759e+06
   4.046497e+06  -2.037188e+06
   9.775045e+05   1.716597e+06
  -2.079180e+06   1.887476e+06
  -2.393434e+06  -1.338804e+06
  -2.274005e+05  -3.640958e+06
   1.908160e+06  -2.039508e+06
   2.015133e+06   1.435809e+06
   3.639097e+05   2.632769e+06
  -1.194462e+06   4.177831e+05
  -1.139776e+06  -2.455137e+06
   4.293404e+05  -2.896249e+06
   1.938592e+06  -6.083532e+05
   1.742274e+06   2.151979e+06
  -2.103041e+05   2.984594e+06
  -2.110913e+06   1.432935e+06
  -2.136039e+06  -7.957501e+05
  -5.657080e+05  -1.626413e+06
   4.977710e+05  -8.149769e+05
  -2.944612e+05  -8.398329e+04
  -1.824020e+06  -8.517514e+05
  -1.820179e+06  -2.381419e+06
   4.245711e+05  -2.765667e+06
   3.136118e+06  -1.324134e+06
   3.832824e+06   7.347997e+05
   1.798568e+06   1.822030e+06
  -1.160805e+06   1.377253e+06
  -2.356332e+06  -8.503772e+04
  -7.996212e+05  -1.466770e+06
   1.771741e+06  -1.568090e+06
   2.701286e+06  -1.085564e+04
   1.277215e+06   1.953183e+06
  -6.534974e+05   2.343386e+06
  -1.062083e+06   7.189880e+05
  -4.911793e+04  -1.044656e+06
   7.381943e+05  -9.042783e+05
   3.831091e+05   8.575877e+05
  -5.080514e+05   2.053204e+06
  -1.026513e+06   1.310597e+06
  -9.536275e+05  -4.302345e+05
  -4.422065e+05  -1.256486e+06
   3.186947e+05  -4.622939e+05
   7.467538e+05   9.336516e+05
   5.087998e+04   1.446551e+06
  -1.562674e+06   5.413835e+05
  -2.497632e+06  -1.018919e+06
  -1.430810e+06  -1.937313e+06
   8.930998e+05  -1.525676e+06
   2.309816e+06  -2.607506e+05
   1.651045e+06   7.472935e+05
  -1.130398e+05   8.194235e+05
  -1.183092e+06   2.049702e+05
  -8.079814e+05  -3.596377e+05
   2.882735e+05  -3.677006e+05
   8.738274e+05   1.444820e+05
   3.730670e+05   7.054621e+05
  -6.345304e+05   7.449825e+05
  -9.489710e+05   1.008336e+05
  -5.932122e+04  -6.435166e+05
   1.063579e+06  -5.790007e+05
   9.149595e+05   5.026094e+05
  -6.950619e+05   1.649124e+06
  -2.258592e+06   1.624794e+06
  -2.324246e+06   2.395360e+05
  -1.142869e+06  -1.436179e+06
  -9.756340e+04  -2.211847e+06
   1.113128e+05  -1.913143e+06
   5.232510e+04  -1.291355e+06
   4.696902e+05  -9.930255e+05
   1.284522e+06  -8.506920e+05
   1.836216e+06  -2.502756e+05
   1.634598e+06   9.079502e+05
   6.736107e+05   1.812344e+06
  -6.065723e+05   1.494104e+06
  -1.430970e+06  -8.001811e+03
  -1.126613e+06  -1.458596e+06
   1.733815e+05  -1.597504e+06
   1.421912e+06  -4.138388e+05
   1.596628e+06   9.368634e+05
   7.294697e+05   1.411530e+06
  -2.203084e+05   1.023691e+06
  -4.940432e+05   5.199824e+05
  -3.130855e+05   4.339920e+05
  -4.724108e+05   6.328374e+05
  -1.293373e+06   6.011529e+05
  -2.104707e+06  -3.563370e+04
  -1.841520e+06  -1.154764e+06
  -2.336177e+05  -2.099382e+06
   1.658250e+06  -2.091123e+06
   2.318844e+06  -9.477952e+05
   1.310385e+06   5.655379e+05
  -2.429467e+05   1.311200e+06
  -8.614620e+05   8.442962e+05
  -2.352504e+05  -1.598740e+05
   6.702031e+05  -6.231423e+05
   8.559778e+05  -1.719576e+05
   2.774281e+05   5.355051e+05
  -3.716755e+05   5.857225e+05
  -4.613218e+05  -1.358471e+05
   1.101177e+05  -7.428491e+05
   9.065501e+05  -2.909673e+05
   1.183473e+06   1.079843e+06
   4.086231e+05   2.110624e+06
  -1.105170e+06   1.683867e+06
  -2.213302e+06   4.319249e+04
  -1.945081e+06  -1.434008e+06
  -5.442147e+05  -1.666967e+06
   7.314284e+05  -8.688119e+05
   9.160196e+05  -8.405761e+04
   2.612768e+05   5.819607e+03
  -2.109222e+05  -3.778294e+05
   1.001098e+05  -5.932702e+05
   7.836661e+05  -3.124733e+05
   9.620172e+05   2.386361e+05
   3.049021e+05   5.663243e+05
  -5.481210e+05   3.623959e+05
  -6.178885e+05  -1.989704e+05
   3.230530e+05  -5.493910e+05
   1.370590e+06  -2.228363e+05
   1.363221e+06   6.342270e+05
   1.477382e+05   1.305228e+06
  -1.200001e+06   1.162458e+06
  -1.496253e+06   3.004349e+05
  -6.462366e+05  -5.320227e+05
   3.821337e+05  -6.509945e+05
   6.305199e+05  -8.816340e+04
   2.118575e+04   4.684102e+05
  -7.452628e+05   3.827462e+05
  -9.302090e+05  -2.767324e+05
  -3.804141e+05  -8.193657e+05
   3.947240e+05  -6.871316e+05
   6.905793e+05  -6.977607e+04
   2.760738e+05   3.193556e+05
  -3.326467e+05   5.528650e+04
  -3.709127e+05  -5.346574e+05
   3.276773e+05  -7.548771e+05
   1.084556e+06  -2.830751e+05
   1.083142e+06   5.377923e+05
   2.567821e+05   1.060143e+06
  -6.474091e+05   9.003986e+05
  -8.625313e+05   2.281951e+05
  -3.438175e+05  -3.902116e+05
   2.854347e+05  -4.699978e+05
   4.156401e+05  -4.736828e+04
   2.175431e+04   3.572764e+05
  -3.898999e+05   3.027599e+05
  -3.444057e+05  -6.768375e+04
   9.413877e+04  -2.066133e+05
   3.785887e+05   1.467091e+05
   6.652361e+04   6.075521e+05
  -6.611401e+05   5.650813e+05
  -1.128839e+06  -1.294292e+05
  -8.369605e+05  -9.861132e+05
   3.689977e+04  -1.340645e+06
   8.276278e+05  -9.344138e+05
   1.025599e+06  -9.998760e+04
   6.926287e+05   5.415916e+05
   2.840860e+05   6.104505e+05
   1.389300e+05   2.892543e+05
   1.728415e+05   1.007900e+05
   4.862917e+04   3.019895e+05
  -3.782533e+05   5.570843e+05
  -8.092540e+05   3.374793e+05
  -7.446462e+05  -3.751634e+05
  -2.071403e+04  -9.512881e+05
   9.090291e+05  -7.578153e+05
   1.297168e+06   1.505749e+05
   7.648629e+05   1.063778e+06
  -3.378261e+05   1.286920e+06
  -1.226341e+06   7.253574e+05
  -1.341169e+06  -1.242479e+05
  -7.624372e+05  -6.624054e+05
  -4.737011e+04  -6.818332e+05
   3.028042e+05  -4.633085e+05
   2.467240e+05  -4.097518e+05
   1.378694e+05  -5.764263e+05
   2.904681e+05  -6.049122e+05
   6.185524e+05  -1.699174e+05
   7.215917e+05   5.608678e+05
   3.381659e+05   1.017439e+06
  -3.148600e+05   7.950263e+05
  -7.061561e+05   6.453774e+04
  -5.105659e+05  -6.002572e+05
   6.112504e+04  -7.448204e+05
   4.790490e+05  -3.710679e+05
   4.280288e+05   1.567036e+05
   9.307483e+04   4.634170e+05
  -9.369574e+04   4.473652e+05
   4.324771e+04   2.881772e+05
   2.212242e+05   2.070956e+05
   2.960391e+04   2.255127e+05
  -5.551009e+05   1.717655e+05
  -1.045849e+06  -8.501060e+04
  -9.018870e+05  -4.534566e+05
  -1.171958e+05  -6.897160e+05
   7.062720e+05  -6.180386e+05
   9.274035e+05  -2.779120e+05
   4.897052e+05   9.837069e+04
  -7.297914e+04   2.463316e+05
  -2.337334e+05   9.001970e+04
   1.483311e+04  -1.475487e+05
   2.738839e+05  -1.366523e+05
   2.558240e+05   1.705919e+05
   6.286730e+04   4.215026e+05
  -2.871140e+04   2.713452e+05
   7.675145e+04  -1.316028e+05
   2.193693e+05  -2.651028e+05
   1.844936e+05   1.085759e+05
  -9.152290e+04   5.887331e+05
  -4.591515e+05   5.918331e+05
  -6.280998e+05   5.630452e+04
  -3.726547e+05  -4.892478e+05
   2.016936e+05  -5.375627e+05
   6.139272e+05  -1.175392e+05
   4.038441e+05   3.225058e+05
  -3.312473e+05   3.935140e+05
  -9.072966e+05   6.233489e+04
  -7.118010e+05  -3.976116e+05
   1.216189e+05  -6.325724e+05
   8.174061e+05  -4.577136e+05
   7.667608e+05  -1.859784e+04
   1.444635e+05   2.964609e+05
  -3.305040e+05   2.128434e+05
  -1.812224e+05  -1.226199e+05
   3.594542e+05  -2.568843e+05
   6.468741e+05   8.956155e+04
   3.111766e+05   6.754354e+05
  -3.868143e+05   9.188771e+05
  -8.455384e+05   4.627800e+05
  -7.089987e+05  -4.193175e+05
  -1.500672e+05  -1.006169e+06
   3.698572e+05  -7.898781e+05
   5.312982e+05   7.640972e+03
   3.373172e+05   6.353598e+05
  -1.002973e+04   5.847986e+05
  -2.841777e+05   9.485614e+04
  -3.310069e+05  -2.074846e+05
  -1.618910e+05  -8.926591e+04
   3.805810e+03   7.175619e+04
  -6.319199e+04  -1.188373e+05
  -2.702432e+05  -5.045090e+05
  -2.164448e+05  -5.996531e+05
   2.915090e+05  -2.451643e+05
   8.439511e+05   2.179338e+05
   8.097886e+05   4.216706e+05
   1.313403e+05   3.662108e+05
  -5.278294e+05   2.547558e+05
  -5.640989e+05   1.556564e+05
  -1.433385e+05   1.560824e+04
   1.001173e+05  -1.226656e+05
  -6.795804e+04  -1.463656e+05
  -2.365872e+05  -8.535395e+04
   9.581487e+02  -8.305494e+04
   4.532481e+05  -1.220869e+05
   5.717380e+05   1.113932e+04
   1.324418e+05   3.707256e+05
  -5.227191e+05   6.249159e+05
  -8.737189e+05   3.875830e+05
  -6.923143e+05  -2.641365e+05
  -1.497770e+05  -7.887815e+05
   3.782672e+05  -7.481295e+05
   5.748492e+05  -2.634448e+05
   3.835724e+05   1.614670e+05
   4.532552e+04   1.991714e+05
  -1.117883e+05  -2.971945e+03
   1.445888e+04  -6.293848e+04
   2.083135e+05   1.712532e+05
   1.821250e+05   4.398594e+05
  -1.061863e+05   3.619627e+05
  -3.983804e+05  -1.082960e+05
  -3.814023e+05  -5.687219e+05
   4.576255e+03  -5.653810e+05
   4.630486e+05  -8.008575e+04
   5.646050e+05   4.497499e+05
   1.617830e+05   5.956300e+05
  -3.991764e+05   3.325661e+05
  -5.848132e+05  -4.721117e+04
  -2.572891e+05  -2.836419e+05
   1.492885e+05  -3.124484e+05
   1.457365e+05  -1.874044e+05
  -2.052653e+05  -1.915026e+04
  -3.774238e+05   2.411535e+04
  -6.254891e+04  -1.566951e+05
   4.431209e+05  -3.979308e+05
   6.240109e+05  -3.646740e+05
   3.521280e+05   3.795427e+04
  -4.682441e+04   4.546610e+05
  -2.341453e+05   4.493087e+05
  -1.702699e+05   4.290536e+04
  -5.242175e+03  -2.941372e+05
   1.405892e+05  -2.099020e+05
   2.061063e+05   1.338832e+05
   1.405193e+05   3.178447e+05
  -4.316024e+04   1.838477e+05
  -2.159483e+05  -4.500259e+04
  -2.419091e+05  -1.076408e+05
  -1.313735e+05  -1.179789e+04
  -1.328932e+04   3.861676e+04
   3.659307e+04  -7.394207e+04
   6.736347e+04  -2.405546e+05
   1.422109e+05  -2.492305e+05
   2.196639e+05  -2.019013e+04
   1.857765e+05   2.801190e+05
  -8.338161e+03   3.740979e+05
  -2.537091e+05   1.532499e+05
  -3.351474e+05  -1.877359e+05
  -1.203619e+05  -3.402581e+05
   2.580502e+05  -1.991105e+05
   4.556465e+05   5.920428e+04
   2.520348e+05   2.048141e+05
  -1.605531e+05   1.799011e+05
  -3.376972e+05   7.827507e+04
  -9.144687e+04   5.269403e+02
   2.595076e+05   5.261097e+02
   2.566407e+05   9.387366e+04
  -1.389530e+05   2.069929e+05
  -4.941426e+05   1.652284e+05
