
 $NMID
 id='ANONYMOUS ', fmtdat='(2E16.6)'
 volume=1.0
 tramp=1.0
 $END
   2.426217e+07  -1.370967e+05
   1.630862e+07   1.133347e+07
   6.933571e+04   1.540032e+07
  -1.045582e+07   1.028695e+07
  -8.847880e+06   1.074024e+06
  -5.825190e+05  -4.386396e+06
   4.946518e+06  -2.245327e+06
   3.776991e+06   3.894007e+06
  -1.102661e+06   6.758211e+06
  -4.565271e+06   3.055171e+06
  -3.989729e+06  -3.144116e+06
  -5.321003e+05  -5.138017e+06
   2.369826e+06  -1.076778e+06
   1.928636e+06   4.267889e+06
  -1.398673e+06   5.047722e+06
  -4.111825e+06   5.135238e+05
  -3.102467e+06  -4.789242e+06
   1.048067e+06  -6.115960e+06
   4.649977e+06  -2.939319e+06
   4.759840e+06   1.388539e+06
   2.024629e+06   3.415360e+06
  -3.498260e+05   2.676544e+06
  -8.985467e+04   1.433646e+06
   1.831694e+06   1.827828e+06
   2.269209e+06   3.518243e+06
  -6.297315e+05   4.212868e+06
  -4.986785e+06   2.386511e+06
  -6.665998e+06  -9.150578e+05
  -3.652176e+06  -3.130416e+06
   1.383659e+06  -2.705922e+06
   3.658774e+06  -3.481168e+05
   1.392387e+06   1.828087e+06
  -2.463392e+06   1.990276e+06
  -3.808592e+06  -1.223783e+05
  -1.811486e+06  -2.834084e+06
   8.958859e+05  -3.633876e+06
   1.705884e+06  -1.571353e+06
   6.143661e+05   1.292261e+06
  -5.661627e+05   1.764985e+06
  -4.804435e+05  -6.926198e+05
   7.105101e+05  -2.984657e+06
   1.841858e+06  -2.039247e+06
   1.740810e+06   1.241241e+06
   1.346145e+05   2.952381e+06
  -1.812439e+06   9.839284e+05
  -2.107777e+06  -2.457532e+06
   1.658937e+05  -3.573111e+06
   3.399763e+06  -1.238445e+06
   4.540041e+06   2.192340e+06
   2.130337e+06   3.721191e+06
  -1.917320e+06   2.476124e+06
  -4.038392e+06  -7.782117e+04
  -2.563498e+06  -1.800626e+06
   7.002110e+05  -1.594680e+06
   2.495146e+06  -7.945968e+04
   1.464737e+06   1.092201e+06
  -7.261005e+05   8.054004e+05
  -1.481775e+06  -4.529591e+05
  -1.395345e+05  -1.197204e+06
   1.467883e+06  -5.856046e+05
   1.213347e+06   7.327102e+05
  -8.576322e+05   1.360248e+06
  -2.495669e+06   4.842361e+05
  -1.661714e+06  -1.456285e+06
   1.262093e+06  -3.048220e+06
   3.847641e+06  -2.843860e+06
   4.092508e+06  -5.527587e+05
   2.258227e+06   2.415575e+06
   2.275545e+05   3.985979e+06
  -6.195700e+05   3.389064e+06
  -5.661996e+05   1.870235e+06
  -7.439744e+05   1.082927e+06
  -1.625648e+06   1.082412e+06
  -2.545766e+06   5.346879e+05
  -2.492172e+06  -1.147951e+06
  -1.128986e+06  -2.661958e+06
   8.440725e+05  -2.257897e+06
   2.115420e+06   5.783182e+04
   1.674022e+06   2.319906e+06
  -2.994063e+05   2.587345e+06
  -2.338879e+06   7.863612e+05
  -2.824289e+06  -1.456394e+06
  -1.496648e+06  -2.507694e+06
   2.869404e+05  -2.094708e+06
   1.053607e+06  -1.183037e+06
   8.455697e+05  -7.755893e+05
   9.946456e+05  -9.172165e+05
   2.237107e+06  -7.954342e+05
   3.493098e+06   2.896887e+05
   2.938160e+06   2.086423e+06
   2.179323e+05   3.461882e+06
  -2.807573e+06   3.298589e+06
  -3.769186e+06   1.476047e+06
  -2.136220e+06  -8.560240e+05
   3.151227e+05  -2.060337e+06
   1.350553e+06  -1.395316e+06
   4.209452e+05   2.170166e+05
  -1.080215e+06   1.023848e+06
  -1.485276e+06   2.767099e+05
  -5.297597e+05  -9.291286e+05
   6.126199e+05  -9.665450e+05
   6.920517e+05   2.716734e+05
  -3.933933e+05   1.112482e+06
  -1.578306e+06   9.469676e+04
  -1.599726e+06  -2.148987e+06
  -6.081928e+04  -3.420913e+06
   2.159661e+06  -2.298334e+06
   3.464210e+06   3.945339e+05
   2.798673e+06   2.501280e+06
   6.615001e+05   2.648207e+06
  -1.216521e+06   1.324707e+06
  -1.469804e+06   8.730803e+04
  -4.278338e+05  -3.844814e+04
   3.287106e+05   6.337610e+05
  -2.184181e+05   1.024194e+06
  -1.384456e+06   4.983723e+05
  -1.639254e+06  -5.142227e+05
  -4.665587e+05  -1.035599e+06
   9.404393e+05  -5.795616e+05
   9.671206e+05   3.565774e+05
  -5.858902e+05   7.828514e+05
  -2.163689e+06   1.483450e+05
  -2.023665e+06  -1.144720e+06
  -6.096346e+04  -2.045338e+06
   2.034899e+06  -1.725470e+06
   2.457490e+06  -3.483090e+05
   1.040451e+06   9.656795e+05
  -6.919934e+05   1.117047e+06
  -1.122497e+06   1.309869e+05
  -6.332702e+04  -8.104487e+05
   1.256727e+06  -6.069849e+05
   1.514665e+06   5.490501e+05
   5.134125e+05   1.401370e+06
  -7.645554e+05   1.065237e+06
  -1.154810e+06  -3.432975e+03
  -4.091323e+05  -5.907790e+05
   5.669263e+05  -9.721261e+04
   5.947257e+05   8.684344e+05
  -5.390173e+05   1.198998e+06
  -1.751595e+06   4.121653e+05
  -1.730299e+06  -9.287280e+05
  -3.484796e+05  -1.756879e+06
   1.150976e+06  -1.432720e+06
   1.458965e+06  -2.814436e+05
   5.294817e+05   7.023414e+05
  -5.157339e+05   7.594706e+05
  -6.673661e+05   6.136435e+04
  -1.189488e+03  -5.267700e+05
   5.952069e+05  -4.069264e+05
   4.523290e+05   1.137616e+05
  -2.130131e+05   2.377777e+05
  -5.627727e+05  -3.346886e+05
  -9.288115e+03  -9.916217e+05
   1.124854e+06  -8.432962e+05
   1.811626e+06   3.017984e+05
   1.282173e+06   1.659624e+06
  -1.685427e+05   2.159277e+06
  -1.424051e+06   1.408730e+06
  -1.638600e+06   3.111825e+04
  -1.000792e+06  -9.228641e+05
  -3.598398e+05  -9.309691e+05
  -2.284769e+05  -4.116440e+05
  -3.224994e+05  -1.811372e+05
  -5.599393e+04  -5.152668e+05
   6.793436e+05  -8.397498e+05
   1.307429e+06  -4.270216e+05
   1.097962e+06   6.606229e+05
  -8.920428e+04   1.473709e+06
  -1.515981e+06   1.099777e+06
  -2.053463e+06  -3.576425e+05
  -1.130822e+06  -1.787741e+06
   6.800587e+05  -2.069085e+06
   2.080187e+06  -1.059373e+06
   2.155790e+06   3.584464e+05
   1.120591e+06   1.153473e+06
  -2.503294e+04   1.060054e+06
  -4.978122e+05   6.621701e+05
  -3.565573e+05   6.330631e+05
  -2.235337e+05   9.619761e+05
  -5.241393e+05   9.964646e+05
  -1.035866e+06   2.454009e+05
  -1.136276e+06  -9.544383e+05
  -4.785330e+05  -1.668058e+06
   5.610990e+05  -1.265128e+06
   1.147004e+06  -4.692670e+04
   7.763090e+05   1.030441e+06
  -1.870870e+05   1.213009e+06
  -8.508457e+05   5.361550e+05
  -6.983086e+05  -3.431429e+05
  -8.272682e+04  -7.987719e+05
   2.357143e+05  -7.229757e+05
  -2.111673e+04  -4.580379e+05
  -3.395357e+05  -3.406544e+05
  -2.774722e+04  -3.560064e+05
   9.252727e+05  -2.245195e+05
   1.699688e+06   2.251026e+05
   1.424792e+06   8.160131e+05
   1.194054e+05   1.152403e+06
  -1.217794e+06   9.664907e+05
  -1.543924e+06   3.617240e+05
  -7.882363e+05  -2.392537e+05
   1.488499e+05  -4.137006e+05
   3.983152e+05  -1.109289e+05
  -2.646899e+04   2.559701e+05
  -4.466032e+05   1.949302e+05
  -4.015296e+05  -3.008146e+05
  -8.755183e+04  -6.711997e+05
   4.307924e+04  -4.281806e+05
  -1.362804e+05   1.793630e+05
  -3.507750e+05   3.763499e+05
  -2.706396e+05  -1.863059e+05
   1.860762e+05  -9.137889e+05
   7.759816e+05  -9.158666e+05
   1.032653e+06  -7.191180e+04
   5.917709e+05   8.023547e+05
  -3.577457e+05   8.740496e+05
  -1.008791e+06   1.706771e+05
  -6.254240e+05  -5.444546e+05
   5.784282e+05  -6.027272e+05
   1.461060e+06  -2.284770e+03
   1.075710e+06   7.194290e+05
  -2.863831e+05   9.911040e+05
  -1.358576e+06   6.261197e+05
  -1.215981e+06  -5.996453e+04
  -1.928028e+05  -4.869545e+05
   5.567359e+05  -3.080482e+05
   2.975642e+05   2.142258e+05
  -5.777100e+05   3.968117e+05
  -1.031219e+06  -1.691653e+05
  -4.723039e+05  -1.093321e+06
   6.633909e+05  -1.453371e+06
   1.381840e+06  -6.926701e+05
   1.107409e+06   7.238034e+05
   1.610976e+05   1.625726e+06
  -6.630427e+05   1.226056e+06
  -8.527011e+05  -7.286890e+04
  -4.754476e+05  -1.053858e+06
   8.420537e+04  -9.322800e+05
   4.697406e+05  -1.246805e+05
   4.984666e+05   3.574847e+05
   2.359415e+05   1.536793e+05
   9.393893e+03  -1.140225e+05
   1.226233e+05   1.989530e+05
   4.085756e+05   8.355881e+05
   2.801015e+05   9.869549e+05
  -5.146380e+05   3.766721e+05
  -1.337816e+06  -4.186527e+05
  -1.248199e+06  -7.496344e+05
  -1.790581e+05  -6.030848e+05
   8.515356e+05  -3.625648e+05
   9.142814e+05  -1.962869e+05
   2.489527e+05  -7.225717e+03
  -1.648477e+05   1.911802e+05
   7.068088e+04   2.375316e+05
   3.457065e+05   1.473581e+05
   1.515904e+03   1.250450e+05
  -7.087307e+05   1.621934e+05
  -9.181872e+05  -5.068960e+04
  -2.197782e+05  -5.982105e+05
   8.617980e+05  -9.739138e+05
   1.444402e+06  -5.801291e+05
   1.116462e+06   4.555893e+05
   1.886309e+05   1.272384e+06
  -6.658710e+05   1.181975e+06
  -9.355561e+05   3.958645e+05
  -5.955813e+05  -2.734494e+05
  -6.941971e+04  -3.175972e+05
   1.544331e+05   6.536204e+03
  -3.944552e+04   8.718188e+04
  -3.143075e+05  -2.990231e+05
  -2.548648e+05  -7.221825e+05
   1.877440e+05  -5.795020e+05
   6.240297e+05   1.861668e+05
   5.833693e+05   9.226116e+05
  -2.241728e+04   9.051943e+05
  -7.320859e+05   1.124324e+05
  -8.769087e+05  -7.436375e+05
  -2.307293e+05  -9.663331e+05
   6.571889e+05  -5.193630e+05
   9.437331e+05   1.081012e+05
   4.096906e+05   4.820900e+05
  -2.548856e+05   5.092781e+05
  -2.601322e+05   3.027507e+05
   3.082270e+05   4.760696e+04
   6.012756e+05  -1.185208e+04
   9.587770e+04   2.576777e+05
  -7.426296e+05   6.058292e+05
  -1.051252e+06   5.336326e+05
  -5.878001e+05  -9.515754e+04
   1.040048e+05  -7.358367e+05
   4.230041e+05  -7.190527e+05
   2.903415e+05  -7.574864e+04
  -6.438065e+03   4.623779e+05
  -2.342831e+05   3.352635e+05
  -3.144530e+05  -2.146654e+05
  -2.053071e+05  -5.194785e+05
   7.279427e+04  -3.060179e+05
   3.427559e+05   8.000598e+04
   3.920237e+05   2.000605e+05
   2.142867e+05   3.933976e+04
   1.051218e+04  -7.082229e+04
  -7.412316e+04   8.939359e+04
  -1.058359e+05   3.633850e+05
  -2.072759e+05   3.978205e+05
  -3.340401e+05   4.347967e+04
  -2.941657e+05  -4.364433e+05
   1.164046e+04  -5.878241e+05
   4.072432e+05  -2.331813e+05
   5.320138e+05   3.103765e+05
   1.753527e+05   5.448506e+05
  -4.325068e+05   3.056990e+05
  -7.352941e+05  -1.157192e+05
  -3.960734e+05  -3.446485e+05
   2.662747e+05  -2.914472e+05
   5.486764e+05  -1.198161e+05
   1.603049e+05  -7.471126e+02
  -3.946536e+05  -1.041067e+04
  -3.937009e+05  -1.525263e+05
   2.263363e+05  -3.077117e+05
   7.817682e+05  -2.237912e+05
