
 $NMID
 id='ANONYMOUS ', fmtdat='(2E16.6)'
 volume=1.0
 tramp=1.0
 $END
  -5.782494e+07  -1.007570e+06
  -3.384341e+07  -3.684730e+07
   8.769966e+06  -3.905114e+07
   2.866297e+07  -1.399485e+07
   1.645710e+07   7.974611e+06
  -3.813807e+06   9.418541e+06
  -9.903364e+06  -1.770018e+06
  -2.336433e+06  -1.005095e+07
   6.660113e+06  -9.080349e+06
   9.829712e+06  -1.606050e+06
   6.956473e+06   6.399388e+06
   7.037745e+05   8.651829e+06
  -4.062523e+06   2.779369e+06
  -2.554823e+06  -5.357991e+06
   3.949910e+06  -6.359222e+06
   7.935947e+06   1.632958e+06
   4.239245e+06   1.047074e+07
  -4.133871e+06   1.189472e+07
  -1.042443e+07   5.847270e+06
  -1.106206e+07  -2.219597e+06
  -6.788161e+06  -7.795322e+06
  -6.248230e+05  -9.048180e+06
   3.276558e+06  -6.292406e+06
   2.278876e+06  -2.579213e+06
  -9.336275e+05  -1.845342e+06
  -3.544621e+05  -3.994513e+06
   5.258496e+06  -4.431124e+06
   9.631721e+06  -5.651544e+05
   7.121457e+06   4.163070e+06
   3.842872e+05   5.174429e+06
  -3.613686e+06   2.734993e+06
  -2.549237e+06   2.222246e+05
   3.088642e+05  -8.086195e+05
   1.992061e+06  -5.874134e+05
   2.180093e+06   1.195022e+06
   8.567432e+05   3.828908e+06
  -1.794788e+06   3.964825e+06
  -3.451732e+06  -1.833275e+04
  -1.871416e+06  -3.770398e+06
   8.501637e+05  -2.164166e+06
   4.745615e+05   2.304536e+06
  -2.435983e+06   2.212247e+06
  -2.367921e+06  -3.320231e+06
   2.739185e+06  -6.185870e+06
   7.288258e+06  -8.236922e+05
   5.136714e+06   7.267789e+06
  -2.194052e+06   8.718393e+06
  -7.635317e+06   2.336526e+06
  -6.872308e+06  -4.613026e+06
  -1.651350e+06  -6.049999e+06
   3.531151e+06  -2.570311e+06
   5.137360e+06   1.687997e+06
   2.245685e+06   3.549138e+06
  -2.547274e+06   2.124107e+06
  -4.552928e+06  -1.073414e+06
  -1.874428e+06  -2.822364e+06
   1.784500e+06  -1.350128e+06
   1.677826e+06   1.065894e+06
  -1.443037e+06   8.034332e+05
  -2.431463e+06  -2.000540e+06
   8.930690e+05  -3.579746e+06
   4.910935e+06  -1.780197e+06
   5.367279e+06   1.608828e+06
   2.223331e+06   4.137279e+06
  -1.860039e+06   5.291039e+06
  -4.995000e+06   4.838260e+06
  -6.218530e+06   1.751418e+06
  -4.645435e+06  -3.181310e+06
  -9.222801e+05  -6.196045e+06
   1.983406e+06  -4.699481e+06
   1.824303e+06  -1.053308e+06
   5.157141e+04   3.934693e+05
  -2.336391e+05  -9.674584e+05
   1.455250e+06  -1.892086e+06
   2.774029e+06  -3.892674e+05
   2.073199e+06   1.788923e+06
   1.314949e+05   2.068906e+06
  -1.430238e+06   2.416314e+05
  -1.614745e+06  -1.968339e+06
  -2.546762e+04  -2.869845e+06
   2.733880e+06  -1.679495e+06
   4.498170e+06   1.159741e+06
   3.264603e+06   3.810777e+06
  -6.656579e+04   4.325842e+06
  -2.379748e+06   2.762356e+06
  -2.327068e+06   1.097006e+06
  -1.862021e+06   6.005177e+05
  -2.910705e+06   3.937646e+05
  -4.274968e+06  -8.280203e+05
  -3.394907e+06  -2.773417e+06
  -8.140811e+04  -4.054861e+06
   3.167113e+06  -3.808941e+06
   4.093074e+06  -2.099111e+06
   2.633874e+06   3.711578e+05
   3.301486e+05   2.190251e+06
  -1.047238e+06   1.934950e+06
  -5.659464e+05  -1.657447e+04
   1.061922e+06  -1.295059e+06
   1.898341e+06  -3.820586e+05
   9.285865e+05   1.211415e+06
  -4.948553e+05   1.093445e+06
  -3.729623e+05  -3.877573e+05
   1.111988e+06  -5.952572e+05
   1.787531e+06   1.441663e+06
   4.443380e+05   3.517584e+06
  -1.772937e+06   3.234644e+06
  -3.133522e+06   8.699239e+05
  -3.129754e+06  -1.547550e+06
  -2.095718e+06  -2.691889e+06
  -3.944992e+05  -2.504725e+06
   1.209028e+06  -1.422861e+06
   1.539857e+06  -2.291277e+05
   4.838646e+05   4.944043e+04
  -3.426954e+05  -7.454246e+05
   4.427863e+05  -1.333109e+06
   1.922123e+06  -5.466209e+05
   2.005802e+06   9.332693e+05
   3.411829e+05   1.424220e+06
  -1.169233e+06   5.366744e+05
  -8.399420e+05  -4.588209e+05
   8.566856e+05  -4.494799e+05
   2.090911e+06   3.957985e+05
   1.622849e+06   1.344865e+06
  -2.992091e+05   1.877923e+06
  -2.275273e+06   1.561040e+06
  -2.721679e+06   2.269243e+05
  -1.185779e+06  -1.278455e+06
   9.398450e+05  -1.497585e+06
   1.575413e+06  -1.724882e+05
   2.029396e+05   1.089181e+06
  -1.511369e+06   7.157963e+05
  -1.678554e+06  -8.073326e+05
  -2.788137e+05  -1.631608e+06
   1.111202e+06  -9.108419e+05
   1.218896e+06   3.637793e+05
   1.988537e+05   7.833375e+05
  -8.061977e+05   3.519439e+04
  -7.235815e+05  -1.054364e+06
   5.744889e+05  -1.406736e+06
   1.984149e+06  -5.279950e+05
   2.004406e+06   1.051079e+06
   3.559295e+05   2.056148e+06
  -1.451911e+06   1.602642e+06
  -1.708236e+06   1.723615e+05
  -4.687532e+05  -8.683995e+05
   6.659149e+05  -7.733982e+05
   6.050425e+05  -7.267004e+04
  -1.336263e+05   3.150928e+05
  -4.520161e+05   1.657958e+05
  -6.165901e+04  -4.771378e+04
   4.641601e+05   1.368759e+05
   4.780699e+05   7.075862e+05
  -2.487604e+05   1.170031e+06
  -1.382333e+06   8.561025e+05
  -2.045870e+06  -4.372921e+05
  -1.424128e+06  -1.933513e+06
   2.372662e+05  -2.373356e+06
   1.596105e+06  -1.345210e+06
   1.629632e+06   1.606938e+05
   7.945177e+05   8.592180e+05
   3.003597e+05   5.784892e+05
   5.061898e+05   1.857327e+05
   6.519605e+05   3.355502e+05
   8.333227e+04   7.804403e+05
  -8.845045e+05   8.672582e+05
  -1.417149e+06   2.819180e+05
  -9.946707e+05  -7.104640e+05
   2.777466e+05  -1.395444e+06
   1.698344e+06  -1.011131e+06
   2.190680e+06   5.054421e+05
   1.070571e+06   2.082650e+06
  -1.051893e+06   2.314557e+06
  -2.533927e+06   9.601838e+05
  -2.284328e+06  -7.074565e+05
  -8.764395e+05  -1.322480e+06
   2.339235e+05  -8.827311e+05
   3.537267e+05  -4.632954e+05
   3.177632e+04  -7.523484e+05
   9.302656e+04  -1.321570e+06
   6.852505e+05  -1.284731e+06
   1.294242e+06  -3.066291e+05
   1.314314e+06   1.073303e+06
   5.345267e+05   1.867533e+06
  -6.204061e+05   1.408569e+06
  -1.260046e+06  -2.152503e+04
  -7.741183e+05  -1.285642e+06
   4.251674e+05  -1.368428e+06
   1.174185e+06  -3.513180e+05
   7.878400e+05   7.431558e+05
  -1.693615e+05   1.079299e+06
  -5.773973e+05   7.521992e+05
  -1.028993e+05   3.886291e+05
   4.326483e+05   3.257532e+05
   6.136753e+04   3.743425e+05
  -1.146325e+06   1.878188e+05
  -2.046450e+06  -3.585394e+05
  -1.579391e+06  -1.050524e+06
   8.066511e+04  -1.428218e+06
   1.607490e+06  -1.112006e+06
   1.813469e+06  -2.340827e+05
   8.003901e+05   5.292811e+05
  -2.789653e+05   5.725043e+05
  -5.115201e+05   1.201823e+04
  -3.501564e+04  -4.382626e+05
   4.265322e+05  -2.591704e+05
   4.759308e+05   3.399285e+05
   2.736042e+05   7.087346e+05
   1.180971e+05   4.737158e+05
   1.300390e+05  -7.265722e+04
   2.517726e+05  -2.634868e+05
   2.629979e+05   2.334048e+05
  -1.310051e+05   9.611463e+05
  -8.949698e+05   1.047437e+06
  -1.378556e+06   1.778816e+05
  -8.671945e+05  -9.090133e+05
   4.197949e+05  -1.146402e+06
   1.263989e+06  -3.504389e+05
   7.242817e+05   5.592478e+05
  -7.029589e+05   6.250700e+05
  -1.545167e+06  -1.232862e+05
  -9.387510e+05  -8.605824e+05
   5.122957e+05  -9.381992e+05
   1.463376e+06  -4.137029e+05
   1.178326e+06   2.185753e+05
   1.116211e+05   4.967887e+05
  -6.429428e+05   2.430580e+05
  -3.854524e+05  -3.038951e+05
   5.645250e+05  -5.292668e+05
   1.170388e+06   5.957478e+04
   6.894887e+05   1.155305e+06
  -5.496986e+05   1.692020e+06
  -1.447297e+06   8.938709e+05
  -1.236836e+06  -7.351409e+05
  -1.995890e+05  -1.754340e+06
   7.297705e+05  -1.249564e+06
   8.987317e+05   2.003158e+05
   3.927940e+05   1.173472e+06
  -2.505451e+05   9.288336e+05
  -5.608145e+05   6.490338e+04
  -4.327190e+05  -3.645428e+05
  -1.340882e+05  -1.239987e+05
  -5.762672e+04   8.381513e+04
  -3.107081e+05  -3.143908e+05
  -5.109972e+05  -9.610332e+05
  -1.506865e+05  -1.050171e+06
   7.411766e+05  -3.747082e+05
   1.441767e+06   4.600222e+05
   1.222449e+06   8.227143e+05
   1.747409e+05   6.933754e+05
  -8.109860e+05   4.166191e+05
  -9.553645e+05   1.666334e+05
  -3.772135e+05  -7.330372e+04
   1.321540e+05  -2.260459e+05
   6.867556e+04  -1.800599e+05
  -2.247865e+05  -6.827666e+04
  -6.514787e+04  -1.302475e+05
   6.110734e+05  -2.525506e+05
   1.036778e+06  -2.509272e+03
   4.847753e+05   6.932232e+05
  -7.902607e+05   1.190378e+06
  -1.701489e+06   7.772902e+05
  -1.443627e+06  -4.019359e+05
  -2.934680e+05  -1.378780e+06
   7.622288e+05  -1.370770e+06
   1.035501e+06  -5.625773e+05
   6.434200e+05   2.024282e+05
   1.511568e+05   3.550689e+05
  -3.618903e+04   9.366212e+04
   9.028207e+04   1.224984e+04
   2.772650e+05   3.715640e+05
   2.306846e+05   7.939517e+05
  -1.653129e+05   6.802765e+05
  -6.668753e+05  -8.564899e+04
  -7.629316e+05  -9.072220e+05
  -1.678069e+05  -1.025144e+06
   7.189188e+05  -2.933229e+05
   1.043566e+06   6.651737e+05
   3.800261e+05   1.076187e+06
  -6.934862e+05   7.058320e+05
  -1.125425e+06  -5.393293e+04
  -5.504069e+05  -6.302703e+05
   2.838240e+05  -7.089495e+05
   4.062806e+05  -3.716498e+05
  -2.073878e+05   1.152375e+04
  -6.306158e+05   5.153656e+04
  -1.598010e+05  -3.111601e+05
   8.078988e+05  -6.707191e+05
   1.267498e+06  -5.106631e+05
   7.887204e+05   2.025964e+05
  -8.543243e+04   8.738110e+05
  -5.724633e+05   8.617777e+05
  -4.597165e+05   1.881150e+05
  -7.982588e+04  -4.577727e+05
   2.261441e+05  -4.537420e+05
   3.497104e+05   1.062327e+05
   2.622730e+05   5.659358e+05
  -4.088484e+04   4.552706e+05
  -3.890864e+05  -2.434315e+04
  -4.822691e+05  -2.978468e+05
  -2.385261e+05  -1.149578e+05
   5.099838e+04   1.773621e+05
   7.744154e+04   1.000144e+05
  -6.767663e+04  -3.298417e+05
  -2.451115e+04  -5.891456e+05
   2.951144e+05  -2.873035e+05
   5.085470e+05   3.297207e+05
   2.275697e+05   6.370210e+05
  -3.818585e+05   3.351439e+05
  -6.856952e+05  -2.450705e+05
  -2.779330e+05  -5.493923e+05
   5.077151e+05  -3.715155e+05
   8.952986e+05   4.847468e+04
   4.886956e+05   3.665401e+05
  -2.870978e+05   4.267007e+05
  -6.406596e+05   2.668682e+05
  -2.767790e+05   2.487163e+04
   3.020680e+05  -1.058855e+05
   3.904231e+05   1.388780e+04
  -1.259164e+05   2.673384e+05
  -6.741613e+05   2.843196e+05
