
 $NMID
 id='ANONYMOUS ', fmtdat='(2E16.6)'
 volume=1.0
 tramp=1.0
 $END
  -3.067704e+07   1.447609e+06
  -2.112909e+07  -1.459107e+07
  -1.485897e+05  -2.005437e+07
   1.342620e+07  -1.265712e+07
   1.106387e+07  -5.815566e+05
   4.131760e+05   5.617924e+06
  -6.208527e+06   2.312753e+06
  -4.338724e+06  -5.046557e+06
   1.699327e+06  -8.033517e+06
   5.709165e+06  -3.493752e+06
   4.917018e+06   3.728179e+06
   7.705834e+05   6.111515e+06
  -2.758231e+06   1.462903e+06
  -2.281141e+06  -4.854069e+06
   1.764041e+06  -5.888652e+06
   5.084045e+06  -5.135437e+05
   3.826837e+06   5.898940e+06
  -1.253707e+06   7.571341e+06
  -5.686002e+06   3.831282e+06
  -6.020358e+06  -1.379647e+06
  -2.945664e+06  -4.083273e+06
   2.634836e+04  -3.622010e+06
   2.349089e+05  -2.243297e+06
  -1.648708e+06  -2.288989e+06
  -2.332069e+06  -3.809473e+06
   6.029476e+05  -4.646716e+06
   5.514102e+06  -2.902076e+06
   7.704507e+06   7.320293e+05
   4.499083e+06   3.457427e+06
  -1.249960e+06   3.216907e+06
  -3.985353e+06   6.499715e+05
  -1.598878e+06  -1.776176e+06
   2.572153e+06  -2.018732e+06
   4.040494e+06   1.302700e+05
   2.003091e+06   2.983866e+06
  -8.058595e+05   4.019543e+06
  -1.820618e+06   2.016215e+06
  -9.382123e+05  -1.196200e+06
   2.909868e+05  -2.086137e+06
   4.601514e+05   4.597950e+05
  -6.929976e+05   3.218882e+06
  -2.111881e+06   2.324786e+06
  -2.101362e+06  -1.576846e+06
   9.948677e+03  -3.755545e+06
   2.601725e+06  -1.310725e+06
   2.873557e+06   3.119910e+06
  -1.799321e+05   4.612195e+06
  -4.194662e+06   1.677369e+06
  -5.420729e+06  -2.599522e+06
  -2.433290e+06  -4.419291e+06
   2.303483e+06  -2.849669e+06
   4.697082e+06   2.016275e+05
   2.911198e+06   2.206747e+06
  -9.487206e+05   1.920377e+06
  -3.053610e+06   6.053681e+04
  -1.758019e+06  -1.383486e+06
   8.963724e+05  -1.004994e+06
   1.705445e+06   5.589259e+05
  -2.036347e+04   1.364087e+06
  -1.847576e+06   4.293021e+05
  -1.257959e+06  -1.199539e+06
   1.360820e+06  -1.731863e+06
   3.175634e+06  -4.439264e+05
   2.028321e+06   1.883279e+06
  -1.379958e+06   3.668636e+06
  -4.339224e+06   3.439563e+06
  -4.749415e+06   8.348528e+05
  -2.809402e+06  -2.681373e+06
  -4.236532e+05  -4.661062e+06
   7.771392e+05  -3.985670e+06
   7.979623e+05  -2.059624e+06
   8.216678e+05  -1.028325e+06
   1.627166e+06  -1.122172e+06
   2.674059e+06  -6.977974e+05
   2.753412e+06   1.106411e+06
   1.330905e+06   2.843485e+06
  -8.435107e+05   2.467253e+06
  -2.281185e+06  -5.532864e+04
  -1.856908e+06  -2.555298e+06
   2.832334e+05  -2.910446e+06
   2.618569e+06  -9.939706e+05
   3.323939e+06   1.524548e+06
   1.915642e+06   2.867011e+06
  -2.044586e+05   2.567859e+06
  -1.252079e+06   1.543164e+06
  -1.087324e+06   9.612890e+05
  -1.214489e+06   1.028359e+06
  -2.585946e+06   8.776143e+05
  -4.008520e+06  -3.436223e+05
  -3.363534e+06  -2.381774e+06
  -2.591933e+05  -3.937264e+06
   3.150306e+06  -3.759632e+06
   4.220555e+06  -1.734873e+06
   2.423016e+06   8.816070e+05
  -2.751785e+05   2.291393e+06
  -1.453836e+06   1.608258e+06
  -4.791410e+05  -2.132424e+05
   1.191524e+06  -1.174779e+06
   1.698837e+06  -3.420056e+05
   6.487217e+05   1.050494e+06
  -6.640240e+05   1.092323e+06
  -7.458600e+05  -3.250942e+05
   5.317722e+05  -1.219328e+06
   1.846714e+06   4.206327e+04
   1.726868e+06   2.589113e+06
  -1.245713e+05   3.880093e+06
  -2.570300e+06   2.463766e+06
  -3.886461e+06  -5.702245e+05
  -3.068291e+06  -2.841338e+06
  -7.102373e+05  -2.955865e+06
   1.353936e+06  -1.493070e+06
   1.645715e+06  -1.179160e+05
   4.852974e+05   4.127325e+04
  -3.749149e+05  -7.183266e+05
   2.521276e+05  -1.186362e+06
   1.600195e+06  -5.874287e+05
   1.889477e+06   5.990287e+05
   5.283432e+05   1.201686e+06
  -1.073725e+06   6.554837e+05
  -1.072103e+06  -4.104406e+05
   6.942169e+05  -8.504910e+05
   2.431471e+06  -1.093196e+05
   2.229863e+06   1.312873e+06
   2.750284e+04   2.283065e+06
  -2.303518e+06   1.925173e+06
  -2.779893e+06   3.921467e+05
  -1.193895e+06  -1.104538e+06
   7.813994e+05  -1.300673e+06
   1.300704e+06  -1.722626e+05
   9.926970e+04   9.289641e+05
  -1.425273e+06   7.031276e+05
  -1.722238e+06  -6.305551e+05
  -5.625517e+05  -1.599233e+06
   8.942177e+05  -1.191300e+06
   1.312479e+06   3.507508e+04
   4.459025e+05   6.870999e+05
  -6.588930e+05   1.129830e+05
  -6.859039e+05  -9.825806e+05
   5.958073e+05  -1.362682e+06
   1.976189e+06  -4.842980e+05
   1.968972e+06   1.037029e+06
   4.056281e+05   1.994399e+06
  -1.308730e+06   1.634196e+06
  -1.661885e+06   3.167914e+05
  -5.952124e+05  -8.037052e+05
   5.889886e+05  -8.582594e+05
   7.388801e+05  -7.003058e+04
  -1.931082e+04   5.707516e+05
  -6.580365e+05   4.245411e+05
  -4.615330e+05  -1.344129e+05
   2.788427e+05  -2.357608e+05
   6.347802e+05   4.163400e+05
  -8.854928e+03   1.137150e+06
  -1.282834e+06   9.553343e+05
  -2.055267e+06  -3.397623e+05
  -1.461456e+06  -1.876424e+06
   1.836177e+05  -2.439882e+06
   1.610441e+06  -1.578299e+06
   1.839386e+06  -1.733319e+04
   1.097454e+06   1.032512e+06
   3.842845e+05   1.007149e+06
   2.759259e+05   4.263250e+05
   4.004083e+05   2.057065e+05
   7.546272e+04   6.028093e+05
  -7.796536e+05   9.503362e+05
  -1.478570e+06   4.672396e+05
  -1.219097e+06  -7.474057e+05
   1.211498e+05  -1.647046e+06
   1.716033e+06  -1.228973e+06
   2.316225e+06   4.071003e+05
   1.272362e+06   2.029584e+06
  -7.856035e+05   2.354052e+06
  -2.374695e+06   1.195502e+06
  -2.438182e+06  -4.278802e+05
  -1.236746e+06  -1.314668e+06
   5.443278e+04  -1.175201e+06
   5.484170e+05  -7.152176e+05
   3.595765e+05  -7.083855e+05
   2.209678e+05  -1.108422e+06
   5.899010e+05  -1.151361e+06
   1.182227e+06  -2.925467e+05
   1.295251e+06   1.070669e+06
   5.515868e+05   1.882773e+06
  -6.255937e+05   1.432823e+06
  -1.296586e+06   5.205198e+04
  -8.793787e+05  -1.177036e+06
   2.255654e+05  -1.381816e+06
   9.906527e+05  -5.943629e+05
   8.057054e+05   4.202549e+05
   7.855232e+04   9.313903e+05
  -2.961752e+05   8.246462e+05
   9.279543e+03   5.098635e+05
   3.892116e+05   3.758274e+05
   3.537986e+04   3.989551e+05
  -1.058696e+06   2.568065e+05
  -1.941641e+06  -2.500566e+05
  -1.619247e+06  -9.283569e+05
  -1.254506e+05  -1.323897e+06
   1.394508e+06  -1.112358e+06
   1.758390e+06  -4.045724e+05
   8.940807e+05   2.951714e+05
  -1.732761e+05   4.840392e+05
  -4.606314e+05   1.186904e+05
   1.644652e+04  -3.031349e+05
   4.953254e+05  -2.248215e+05
   4.589632e+05   3.373257e+05
   1.194348e+05   7.479514e+05
  -2.921362e+04   4.778483e+05
   1.556838e+05  -1.895175e+05
   3.855995e+05  -4.058406e+05
   3.032048e+05   2.134248e+05
  -1.999431e+05   1.024922e+06
  -8.737287e+05   1.042781e+06
  -1.185887e+06   1.052257e+05
  -6.949957e+05  -8.971986e+05
   3.950645e+05  -1.008146e+06
   1.147620e+06  -2.202167e+05
   7.112043e+05   6.059460e+05
  -6.580162e+05   6.821370e+05
  -1.647695e+06  -4.754244e+03
  -1.195623e+06  -8.225299e+05
   3.439043e+05  -1.112061e+06
   1.537147e+06  -6.847365e+05
   1.362087e+06   8.260395e+04
   2.085836e+05   5.482786e+05
  -6.331502e+05   3.421458e+05
  -3.453704e+05  -2.447507e+05
   6.390854e+05  -4.577210e+05
   1.163720e+06   1.710266e+05
   5.546577e+05   1.220356e+06
  -7.190922e+05   1.647138e+06
  -1.543915e+06   8.003010e+05
  -1.253810e+06  -8.041700e+05
  -1.917210e+05  -1.830109e+06
   7.454998e+05  -1.377471e+06
   9.632065e+05   9.137739e+04
   5.295019e+05   1.193051e+06
  -1.095414e+05   1.048371e+06
  -5.364290e+05   1.373631e+05
  -5.515880e+05  -4.019617e+05
  -2.526852e+05  -1.719490e+05
  -1.625833e+04   1.263294e+05
  -1.608162e+05  -2.272005e+05
  -4.736013e+05  -9.428901e+05
  -3.043996e+05  -1.114542e+06
   5.980528e+05  -4.303200e+05
   1.509379e+06   4.662617e+05
   1.397620e+06   8.446614e+05
   2.040863e+05   6.836816e+05
  -9.458899e+05   4.111454e+05
  -1.027605e+06   2.196430e+05
  -2.944316e+05   4.886153e+03
   1.794114e+05  -2.166652e+05
  -6.317815e+04  -2.648950e+05
  -3.715883e+05  -1.605085e+05
  -8.423589e+03  -1.379340e+05
   7.792141e+05  -1.882570e+05
   1.037167e+06   4.531740e+04
   2.773193e+05   6.688177e+05
  -9.470587e+05   1.110479e+06
  -1.633699e+06   6.809374e+05
  -1.281105e+06  -4.903933e+05
  -2.277656e+05  -1.430023e+06
   7.457763e+05  -1.345904e+06
   1.049866e+06  -4.648886e+05
   6.688040e+05   2.958401e+05
   8.779344e+04   3.558401e+05
  -1.570634e+05  -1.168106e+03
   5.272835e+04  -8.925562e+04
   3.508694e+05   3.425805e+05
   2.865257e+05   8.153322e+05
  -2.028476e+05   6.579028e+05
  -6.989432e+05  -1.951948e+05
  -6.720070e+05  -1.022733e+06
  -4.009128e+02  -1.017930e+06
   8.108311e+05  -1.451488e+05
   9.964774e+05   8.162079e+05
   2.790098e+05   1.086360e+06
  -7.312086e+05   6.024173e+05
  -1.072333e+06  -1.072117e+05
  -4.786700e+05  -5.484826e+05
   2.799625e+05  -5.913321e+05
   3.026689e+05  -3.512849e+05
  -3.326239e+05  -5.033676e+04
  -6.741279e+05   1.935515e+04
  -1.161062e+05  -2.912571e+05
   8.338860e+05  -6.880116e+05
   1.197753e+06  -6.043097e+05
   6.820269e+05   1.090786e+05
  -1.080973e+05   8.367093e+05
  -4.819529e+05   8.250123e+05
  -3.378782e+05   1.027322e+05
  -2.242766e+03  -5.137076e+05
   2.564303e+05  -3.872018e+05
   3.518620e+05   2.272907e+05
   2.380580e+05   5.834068e+05
  -7.227696e+04   3.564921e+05
  -3.862782e+05  -8.150563e+04
  -4.516005e+05  -2.297519e+05
  -2.449797e+05  -5.045606e+04
  -1.552663e+03   8.784102e+04
   8.987811e+04  -8.098062e+04
   1.012394e+05  -3.970381e+05
   2.006610e+05  -4.565739e+05
   3.609020e+05  -7.270499e+04
   3.478861e+05   4.691266e+05
   1.416177e+04   6.540188e+05
  -4.488995e+05   2.710344e+05
  -6.089584e+05  -3.340938e+05
  -2.077017e+05  -6.059246e+05
   4.885433e+05  -3.520989e+05
   8.365529e+05   1.155216e+05
   4.538929e+05   3.836794e+05
  -2.945494e+05   3.410378e+05
  -6.176253e+05   1.533717e+05
  -1.903858e+05   7.776514e+03
   4.278271e+05   2.315512e+03
   4.354089e+05   1.558134e+05
  -2.437618e+05   3.369270e+05
  -8.609246e+05   2.541403e+05
