
 $NMID
 id='ANONYMOUS ', fmtdat='(2E16.6)'
 volume=1.0
 tramp=1.0
 $END
  -3.751275e+07  -1.960587e+06
  -2.212949e+07  -2.229771e+07
   4.519408e+06  -2.441461e+07
   1.793883e+07  -1.096229e+07
   1.155684e+07   2.871522e+06
  -1.382087e+06   6.227334e+06
  -6.795608e+06   4.380384e+05
  -2.953582e+06  -6.324071e+06
   3.463102e+06  -7.488830e+06
   6.643831e+06  -2.247245e+06
   5.012419e+06   4.611887e+06
   3.969814e+05   6.568447e+06
  -3.131913e+06   1.654977e+06
  -2.088767e+06  -4.776882e+06
   2.526579e+06  -5.480769e+06
   5.561380e+06   5.276742e+05
   3.281071e+06   7.135253e+06
  -2.576463e+06   8.286999e+06
  -7.100745e+06   3.806051e+06
  -7.208430e+06  -2.040048e+06
  -3.681419e+06  -5.369409e+06
   2.588962e+05  -5.219931e+06
   1.545162e+06  -3.218248e+06
  -1.843025e+05  -2.003589e+06
  -1.778664e+06  -2.873906e+06
   3.024961e+05  -4.189344e+06
   5.244721e+06  -3.121706e+06
   7.920911e+06   5.529975e+05
   4.953404e+06   3.743517e+06
  -8.349464e+05   3.741134e+06
  -3.765739e+06   1.235640e+06
  -1.909189e+06  -1.104690e+06
   1.623240e+06  -1.593428e+06
   3.155882e+06  -1.699815e+05
   1.994119e+06   2.259320e+06
  -2.785234e+05   3.797783e+06
  -1.871865e+06   2.492314e+06
  -1.760711e+06  -9.245559e+05
  -2.792605e+05  -2.649296e+06
   7.296477e+05  -3.960069e+05
  -2.696317e+05   2.778706e+06
  -2.124973e+06   2.073175e+06
  -1.902222e+06  -2.111981e+06
   1.152796e+06  -4.127770e+06
   3.971382e+06  -6.904498e+05
   3.084268e+06   4.501192e+06
  -1.209945e+06   5.526798e+06
  -5.139604e+06   1.462873e+06
  -5.359908e+06  -3.309742e+06
  -1.816323e+06  -4.671430e+06
   2.601007e+06  -2.443420e+06
   4.436136e+06   8.064603e+05
   2.368284e+06   2.522684e+06
  -1.468111e+06   1.734879e+06
  -3.275212e+06  -4.833901e+05
  -1.556234e+06  -1.813100e+06
   1.176078e+06  -9.743543e+05
   1.540968e+06   7.238470e+05
  -4.770975e+05   9.943560e+05
  -1.763797e+06  -4.761356e+05
  -2.814730e+05  -1.784412e+06
   2.481450e+06  -1.364917e+06
   3.562428e+06   4.765735e+05
   1.768964e+06   2.560528e+06
  -1.638201e+06   3.906759e+06
  -4.446601e+06   3.544645e+06
  -5.010509e+06   8.827374e+05
  -3.143768e+06  -2.859925e+06
  -3.575735e+05  -4.911961e+06
   1.256779e+06  -3.867272e+06
   1.058516e+06  -1.510333e+06
   4.398680e+05  -5.311426e+05
   9.245662e+05  -1.093644e+06
   2.199714e+06  -1.073659e+06
   2.664302e+06   6.033612e+05
   1.502857e+06   2.394394e+06
  -4.935897e+05   2.228124e+06
  -1.875083e+06   5.627971e+04
  -1.645458e+06  -2.221753e+06
   2.219896e+05  -2.726772e+06
   2.557511e+06  -1.093157e+06
   3.491376e+06   1.457764e+06
   2.112363e+06   3.127478e+06
  -3.205589e+05   2.987619e+06
  -1.659217e+06   1.742245e+06
  -1.455276e+06   8.368879e+05
  -1.342324e+06   7.522594e+05
  -2.513292e+06   5.860069e+05
  -3.800425e+06  -5.834680e+05
  -3.082769e+06  -2.431584e+06
  -9.348387e+04  -3.718365e+06
   3.037480e+06  -3.469114e+06
   3.971141e+06  -1.664345e+06
   2.354439e+06   7.228834e+05
  -9.975663e+04   2.147877e+06
  -1.283562e+06   1.610543e+06
  -4.860208e+05  -1.510160e+05
   1.105942e+06  -1.123258e+06
   1.666015e+06  -2.839060e+05
   6.662093e+05   1.069256e+06
  -5.890431e+05   1.020556e+06
  -5.643996e+05  -3.151579e+05
   6.715991e+05  -8.852685e+05
   1.612632e+06   5.345954e+05
   1.076909e+06   2.677766e+06
  -6.959024e+05   3.304745e+06
  -2.534061e+06   1.689962e+06
  -3.310927e+06  -8.848470e+05
  -2.503597e+06  -2.608683e+06
  -5.301103e+05  -2.612390e+06
   1.246492e+06  -1.356443e+06
   1.516102e+06  -1.197640e+05
   4.524591e+05   5.137267e+04
  -3.234304e+05  -6.871517e+05
   3.338401e+05  -1.140611e+06
   1.613648e+06  -4.807775e+05
   1.771686e+06   7.185087e+05
   3.924438e+05   1.196471e+06
  -1.042386e+06   5.453504e+05
  -9.153911e+05  -4.069304e+05
   6.939284e+05  -6.387089e+05
   2.132289e+06   9.151764e+04
   1.858406e+06   1.244965e+06
  -1.018629e+05   1.982528e+06
  -2.162900e+06   1.636327e+06
  -2.580478e+06   2.584737e+05
  -1.079975e+06  -1.115808e+06
   8.245426e+05  -1.255202e+06
   1.311731e+06  -1.151586e+05
   9.645240e+04   9.316293e+05
  -1.378423e+06   6.265815e+05
  -1.572699e+06  -6.817110e+05
  -3.975203e+05  -1.500253e+06
   9.143580e+05  -9.893622e+05
   1.174663e+06   1.621647e+05
   3.150436e+05   6.673445e+05
  -6.625073e+05   5.611052e+04
  -6.290297e+05  -9.607467e+05
   5.825831e+05  -1.279410e+06
   1.866190e+06  -4.257822e+05
   1.832492e+06   1.019388e+06
   3.173232e+05   1.892754e+06
  -1.304560e+06   1.482371e+06
  -1.567891e+06   2.110410e+05
  -4.942771e+05  -7.775113e+05
   5.889833e+05  -7.578998e+05
   6.493477e+05  -6.002267e+04
  -5.025875e+04   4.420602e+05
  -5.396063e+05   3.126538e+05
  -3.037301e+05  -7.967025e+04
   3.015020e+05  -7.966120e+04
   5.141723e+05   4.882105e+05
  -1.132943e+05   1.058967e+06
  -1.247129e+06   8.281570e+05
  -1.907494e+06  -3.926861e+05
  -1.312827e+06  -1.803805e+06
   2.361679e+05  -2.255030e+06
   1.520208e+06  -1.368252e+06
   1.641314e+06   6.649923e+04
   9.181158e+05   9.118659e+05
   3.405277e+05   8.041785e+05
   3.417386e+05   3.415691e+05
   4.445213e+05   2.610024e+05
   4.849412e+04   6.250409e+05
  -7.787004e+05   8.390274e+05
  -1.361348e+06   3.498060e+05
  -1.054588e+06  -6.978011e+05
   1.821892e+05  -1.446146e+06
   1.611791e+06  -1.044317e+06
   2.112156e+06   4.534914e+05
   1.078696e+06   1.930651e+06
  -8.699063e+05   2.156371e+06
  -2.284776e+06   9.811557e+05
  -2.204056e+06  -5.332213e+05
  -1.011255e+06  -1.234696e+06
   1.146212e+05  -9.906225e+05
   4.471201e+05  -5.886155e+05
   2.466573e+05  -6.926860e+05
   2.026463e+05  -1.112100e+06
   6.169941e+05  -1.102989e+06
   1.150886e+06  -2.460613e+05
   1.196379e+06   1.031813e+06
   4.723814e+05   1.768226e+06
  -6.124351e+05   1.320791e+06
  -1.198009e+06  -1.968360e+02
  -7.565688e+05  -1.149049e+06
   3.049675e+05  -1.270964e+06
   9.837619e+05  -4.431231e+05
   7.175483e+05   5.154585e+05
  -3.774134e+04   9.054026e+05
  -3.822272e+05   7.227681e+05
  -3.061747e+04   4.299578e+05
   3.743115e+05   3.465267e+05
   3.504214e+04   3.679792e+05
  -1.020779e+06   1.895677e+05
  -1.839840e+06  -3.177227e+05
  -1.475161e+06  -9.406775e+05
  -1.465655e+04  -1.262429e+06
   1.399127e+06  -9.975402e+05
   1.661296e+06  -2.820108e+05
   7.840209e+05   3.657771e+05
  -2.132476e+05   4.714617e+05
  -4.432242e+05   6.287517e+04
   1.403339e+04  -3.315040e+05
   4.481519e+05  -2.161759e+05
   4.280751e+05   3.274464e+05
   1.496357e+05   7.004606e+05
   1.142823e+04   4.555325e+05
   1.332783e+05  -1.374905e+05
   3.157537e+05  -3.342354e+05
   2.648770e+05   2.100336e+05
  -1.815897e+05   9.392441e+05
  -8.472910e+05   9.581764e+05
  -1.181046e+06   8.438319e+04
  -6.878421e+05  -8.703411e+05
   4.086614e+05  -9.795057e+05
   1.126398e+06  -2.170584e+05
   6.607257e+05   5.677620e+05
  -6.412691e+05   6.030336e+05
  -1.500753e+06  -7.095520e+04
  -1.015058e+06  -7.900964e+05
   3.888082e+05  -9.652373e+05
   1.410710e+06  -5.247384e+05
   1.203775e+06   1.380583e+05
   1.554088e+05   4.941244e+05
  -5.964281e+05   2.737674e+05
  -3.273751e+05  -2.586450e+05
   5.883477e+05  -4.438467e+05
   1.095862e+06   1.482929e+05
   5.426139e+05   1.142082e+06
  -6.550962e+05   1.553549e+06
  -1.436931e+06   7.544192e+05
  -1.156240e+06  -7.553081e+05
  -1.489622e+05  -1.693137e+06
   7.129211e+05  -1.233075e+06
   8.712461e+05   1.371942e+05
   4.270990e+05   1.112348e+06
  -1.627918e+05   9.302766e+05
  -5.082247e+05   9.183194e+04
  -4.714536e+05  -3.674597e+05
  -1.972084e+05  -1.423805e+05
  -2.857531e+04   1.010956e+05
  -1.891981e+05  -2.550999e+05
  -4.347406e+05  -9.012983e+05
  -2.154343e+05  -1.018182e+06
   6.123023e+05  -3.622436e+05
   1.381626e+06   4.614972e+05
   1.234717e+06   8.009040e+05
   1.664426e+05   6.455976e+05
  -8.501970e+05   3.762000e+05
  -9.393313e+05   1.716197e+05
  -2.976889e+05  -3.301845e+04
   1.575964e+05  -2.054257e+05
  -1.600608e+04  -2.123607e+05
  -3.025429e+05  -1.176417e+05
  -2.420455e+04  -1.307021e+05
   6.825707e+05  -1.926477e+05
   9.733157e+05   4.839396e+04
   3.122944e+05   6.542964e+05
  -8.638429e+05   1.056967e+06
  -1.572844e+06   6.304214e+05
  -1.248829e+06  -4.680050e+05
  -2.084553e+05  -1.331343e+06
   7.336044e+05  -1.251629e+06
   9.947217e+05  -4.464466e+05
   6.180636e+05   2.585170e+05
   9.566372e+04   3.391211e+05
  -1.137335e+05   3.513784e+04
   5.665142e+04  -4.646187e+04
   2.951162e+05   3.326203e+05
   2.342548e+05   7.585455e+05
  -1.929010e+05   6.216863e+05
  -6.472859e+05  -1.591455e+05
  -6.456297e+05  -9.398693e+05
  -3.368191e+04  -9.669509e+05
   7.421101e+05  -1.740139e+05
   9.417674e+05   7.385807e+05
   2.724484e+05   1.026587e+06
  -6.919238e+05   5.853794e+05
  -1.022935e+06  -1.089434e+05
  -4.547147e+05  -5.554458e+05
   2.838669e+05  -5.862875e+05
   3.262891e+05  -3.221689e+05
  -2.733716e+05  -2.512729e+04
  -6.194776e+05   1.758626e+04
  -1.156411e+05  -2.846903e+05
   7.854437e+05  -6.228030e+05
   1.150678e+06  -5.050950e+05
   6.650296e+05   1.545361e+05
  -1.138217e+05   7.949219e+05
  -5.008724e+05   7.682719e+05
  -3.644955e+05   1.088839e+05
  -2.072922e+04  -4.679301e+05
   2.427951e+05  -3.811649e+05
   3.322817e+05   1.801618e+05
   2.198474e+05   5.471423e+05
  -7.157430e+04   3.669600e+05
  -3.648093e+05  -6.577356e+04
  -4.234532e+05  -2.491116e+05
  -2.217712e+05  -7.317523e+04
   7.875223e+03   1.153046e+05
   6.934485e+04  -1.517692e+04
   4.286786e+04  -3.590754e+05
   1.323685e+05  -4.823902e+05
   3.324789e+05  -1.357062e+05
   3.783733e+05   4.116308e+05
   7.101551e+04   6.216911e+05
  -4.083002e+05   2.700813e+05
  -5.945549e+05  -3.015115e+05
  -2.087880e+05  -5.578820e+05
   4.724522e+05  -3.245211e+05
   8.047991e+05   1.076364e+05
   4.295816e+05   3.654938e+05
  -2.863533e+05   3.418675e+05
  -5.968640e+05   1.664633e+05
  -2.080453e+05   3.004299e+03
   3.665233e+05  -3.312061e+04
   3.993180e+05   1.051831e+05
  -1.917124e+05   2.955132e+05
  -7.519665e+05   2.426551e+05
