
 $NMID
 id='ANONYMOUS ', fmtdat='(2E16.6)'
 volume=1.0
 tramp=1.0
 $END
   2.003080e+07  -1.035196e+06
   1.227152e+07   1.278132e+07
  -3.024536e+06   1.409583e+07
  -1.032319e+07   4.667467e+06
  -5.721416e+06  -3.689506e+06
   1.831904e+06  -3.949433e+06
   3.919785e+06   6.674475e+05
   8.753388e+05   3.862351e+06
  -2.543276e+06   3.316980e+06
  -3.658403e+06   4.429671e+05
  -2.508543e+06  -2.432992e+06
  -1.025326e+05  -3.191633e+06
   1.742623e+06  -1.094613e+06
   1.192879e+06   1.770061e+06
  -1.236785e+06   2.106271e+06
  -2.665253e+06  -6.222926e+05
  -1.294617e+06  -3.455534e+06
   1.536560e+06  -3.699392e+06
   3.459576e+06  -1.673924e+06
   3.618078e+06   7.958905e+05
   2.378819e+06   2.623477e+06
   3.155483e+05   3.295515e+06
  -1.433731e+06   2.397547e+06
  -1.458502e+06   6.467612e+05
  -5.877472e+04  -8.236277e+04
   4.553223e+05   8.607718e+05
  -1.171565e+06   1.698531e+06
  -3.060568e+06   7.023126e+05
  -2.721353e+06  -1.276221e+06
  -5.203143e+05  -2.159162e+06
   1.114490e+06  -1.504178e+06
   1.086960e+06  -4.891933e+05
   3.587197e+05   1.052819e+05
  -1.453611e+05   2.812417e+05
  -3.954403e+05  -1.156382e+05
  -2.300184e+05  -1.004723e+06
   6.205943e+05  -1.247804e+06
   1.393154e+06  -9.896373e+03
   9.426253e+05   1.413472e+06
  -2.344711e+05   1.080337e+06
  -3.929124e+05  -4.278137e+05
   6.225144e+05  -5.368359e+05
   7.905059e+05   1.270909e+06
  -9.583013e+05   2.269966e+06
  -2.724845e+06   4.341609e+05
  -2.110015e+06  -2.420348e+06
   4.801938e+05  -3.055358e+06
   2.451322e+06  -1.024871e+06
   2.215181e+06   1.258226e+06
   4.669910e+05   1.817187e+06
  -1.181001e+06   8.034340e+05
  -1.591743e+06  -6.016230e+05
  -5.218651e+05  -1.381698e+06
   1.136580e+06  -9.538942e+05
   1.751156e+06   3.779598e+05
   6.656163e+05   1.250994e+06
  -7.044599e+05   6.762893e+05
  -5.766783e+05  -4.387908e+05
   6.694985e+05  -3.737249e+05
   9.873984e+05   8.904397e+05
  -3.678133e+05   1.588218e+06
  -1.835574e+06   7.267044e+05
  -1.838697e+06  -6.968970e+05
  -6.764776e+05  -1.435233e+06
   4.922335e+05  -1.527683e+06
   1.278829e+06  -1.378234e+06
   1.746187e+06  -6.414333e+05
   1.505192e+06   8.280599e+05
   3.485963e+05   1.897267e+06
  -8.054654e+05   1.404269e+06
  -8.127391e+05  -8.288391e+03
   8.419968e+04  -6.072482e+05
   5.623032e+05   7.870670e+04
   4.349491e+04   8.098523e+05
  -7.030941e+05   5.542785e+05
  -7.997017e+05  -2.479204e+05
  -2.662863e+05  -5.988624e+05
   3.344599e+05  -2.259082e+05
   5.412148e+05   4.308969e+05
   1.270412e+05   8.463945e+05
  -7.612197e+05   6.572795e+05
  -1.409897e+06  -1.792539e+05
  -1.089129e+06  -1.125208e+06
  -1.821786e+04  -1.399604e+06
   7.734115e+05  -8.753694e+05
   7.648640e+05  -2.468544e+05
   5.324999e+05  -7.151559e+04
   7.256693e+05  -9.773129e+04
   1.070422e+06   1.669563e+05
   8.812155e+05   6.807284e+05
   1.086743e+05   1.037938e+06
  -6.648429e+05   1.032713e+06
  -9.829365e+05   6.782487e+05
  -7.988913e+05   3.371108e+04
  -2.714320e+05  -5.893206e+05
   2.522083e+05  -6.368874e+05
   2.935215e+05  -2.735625e+04
  -2.149506e+05   4.824096e+05
  -6.380137e+05   2.206458e+05
  -3.996739e+05  -3.943964e+05
   1.458841e+05  -4.503568e+05
   1.914226e+05   5.022526e+04
  -2.952619e+05   1.897485e+05
  -5.076734e+05  -4.194730e+05
  -1.299063e+04  -1.016848e+06
   6.634594e+05  -8.119665e+05
   8.792369e+05  -3.565071e+04
   6.731553e+05   5.536626e+05
   3.931116e+05   6.769781e+05
   8.847341e+04   5.546969e+05
  -2.690862e+05   3.356234e+05
  -4.045770e+05   6.404150e+04
  -1.322955e+05  -3.905971e+04
   1.532611e+05   1.856274e+05
  -5.490983e+04   4.341574e+05
  -5.638694e+05   2.646829e+05
  -6.827604e+05  -2.262781e+05
  -2.072304e+05  -4.949091e+05
   3.034089e+05  -3.080294e+05
   3.064391e+05   5.858490e+03
  -9.277834e+04   9.228530e+04
  -4.150091e+05  -4.127657e+04
  -3.625726e+05  -2.404883e+05
   3.605859e+04  -4.155589e+05
   5.261873e+05  -4.184633e+05
   7.191451e+05  -8.917858e+04
   3.698768e+05   3.864131e+05
  -2.537442e+05   5.066344e+05
  -5.206526e+05   9.625917e+04
  -1.546928e+05  -3.560074e+05
   3.965175e+05  -2.932496e+05
   5.079240e+05   1.816775e+05
   1.114988e+05   4.830604e+05
  -3.269408e+05   3.104728e+05
  -4.085318e+05  -7.330051e+04
  -1.462808e+05  -2.676403e+05
   1.774538e+05  -1.471819e+05
   2.663370e+05   1.402542e+05
   2.844850e+02   3.377332e+05
  -4.113500e+05   2.252123e+05
  -5.288421e+05  -1.783255e+05
  -1.494879e+05  -5.280542e+05
   3.752269e+05  -4.640476e+05
   5.108727e+05  -4.550566e+04
   1.872494e+05   3.020158e+05
  -1.670836e+05   2.999281e+05
  -2.173547e+05   8.694607e+04
  -7.123503e+04  -6.416865e+04
   1.150310e+04  -8.700129e+04
  -1.981347e+04  -7.996705e+04
  -5.964751e+04  -1.063569e+05
  -4.003713e+04  -1.650540e+05
   7.180895e+04  -2.271626e+05
   2.882892e+05  -1.913395e+05
   4.721880e+05   5.868342e+04
   3.726178e+05   4.283653e+05
  -3.551509e+04   5.892795e+05
  -4.044183e+05   3.499741e+05
  -4.083841e+05  -5.825202e+04
  -1.626407e+05  -2.485438e+05
  -2.798551e+04  -1.512422e+05
  -9.702350e+04  -2.532278e+04
  -1.338331e+05  -5.289697e+04
   1.259976e+04  -1.421383e+05
   2.038573e+05  -1.377328e+05
   2.538604e+05  -2.207282e+04
   1.418087e+05   1.362032e+05
  -7.515030e+04   2.555944e+05
  -3.390697e+05   2.117071e+05
  -4.890077e+05  -8.110014e+04
  -3.036690e+05  -4.651777e+05
   1.895475e+05  -5.872387e+05
   6.060505e+05  -2.927595e+05
   5.940163e+05   1.441249e+05
   2.450985e+05   3.330279e+05
  -4.921579e+04   2.252102e+05
  -8.079324e+04   1.047013e+05
   6.997728e+03   1.764740e+05
  -6.547105e+03   3.327895e+05
  -1.565443e+05   3.362987e+05
  -3.168863e+05   1.012258e+05
  -3.443758e+05  -2.393080e+05
  -1.716391e+05  -4.519824e+05
   1.244389e+05  -3.702797e+05
   3.198731e+05  -3.642942e+04
   2.269277e+05   2.912138e+05
  -7.278296e+04   3.490975e+05
  -2.781517e+05   1.243902e+05
  -2.058374e+05  -1.491547e+05
   8.366204e+03  -2.585242e+05
   1.049904e+05  -2.046157e+05
   1.922009e+04  -1.186170e+05
  -7.474480e+04  -8.063886e+04
   6.954742e+03  -7.265657e+04
   2.517974e+05  -4.087445e+04
   4.538704e+05   5.605235e+04
   3.912849e+05   2.119933e+05
   4.283518e+04   3.357931e+05
  -3.420949e+05   3.020436e+05
  -4.502388e+05   1.021623e+05
  -2.292766e+05  -9.891267e+04
   5.129175e+04  -1.295476e+05
   1.148596e+05  -1.033997e+04
  -2.004125e+04   8.145706e+04
  -1.303435e+05   3.047802e+04
  -1.027619e+05  -1.007669e+05
  -2.711035e+04  -1.706515e+05
  -8.546567e+03  -1.134779e+05
  -3.378179e+04   8.988519e+03
  -4.559675e+04   6.699313e+04
  -2.549393e+04  -2.006182e+04
   3.990422e+04  -1.813637e+05
   1.613293e+05  -2.290039e+05
   2.578235e+05  -6.078491e+04
   1.803628e+05   1.822903e+05
  -7.603584e+04   2.465573e+05
  -2.706798e+05   6.805573e+04
  -1.621348e+05  -1.421322e+05
   1.718195e+05  -1.519730e+05
   3.834362e+05   3.157182e+04
   2.419477e+05   2.115104e+05
  -1.181095e+05   2.381190e+05
  -3.622573e+05   1.218691e+05
  -3.008794e+05  -3.535047e+04
  -4.006493e+04  -1.270008e+05
   1.536568e+05  -8.710717e+04
   1.033683e+05   4.873058e+04
  -1.223236e+05   1.224196e+05
  -2.711709e+05  -8.218203e+03
  -1.540914e+05  -2.707125e+05
   1.491069e+05  -3.946928e+05
   3.607579e+05  -1.950334e+05
   2.950809e+05   1.943741e+05
   3.692814e+04   4.315817e+05
  -1.816841e+05   3.121204e+05
  -2.223879e+05  -3.083107e+04
  -1.183910e+05  -2.762381e+05
   2.353443e+04  -2.408317e+05
   1.175165e+05  -3.831725e+04
   1.219215e+05   8.306407e+04
   5.767935e+04   3.377502e+04
   1.324423e+04  -3.396890e+04
   5.787214e+04   4.852572e+04
   1.273602e+05   2.239490e+05
   6.827116e+04   2.749157e+05
  -1.555181e+05   1.118452e+05
  -3.590118e+05  -1.120809e+05
  -3.183350e+05  -2.053397e+05
  -4.227887e+04  -1.580253e+05
   2.155987e+05  -8.717213e+04
   2.376203e+05  -4.585431e+04
   7.508145e+04   1.820691e+03
  -4.488914e+04   5.655094e+04
  -7.442876e+03   6.362416e+04
   6.838595e+04   2.529530e+04
   1.137757e+04   1.570455e+04
  -1.596839e+05   4.310691e+04
  -2.403858e+05   4.308472e+03
  -8.526307e+04  -1.469955e+05
   2.070742e+05  -2.684354e+05
   3.870706e+05  -1.761418e+05
   3.084706e+05   1.028503e+05
   5.568113e+04   3.286904e+05
  -1.670844e+05   3.140832e+05
  -2.282753e+05   1.180706e+05
  -1.471842e+05  -5.118991e+04
  -3.231585e+04  -7.063428e+04
   1.888559e+04  -1.396131e+03
  -1.720384e+04   1.472343e+04
  -8.059698e+04  -7.881828e+04
  -7.647897e+04  -1.879911e+05
   3.154227e+04  -1.635914e+05
   1.617318e+05   2.575290e+04
   1.739945e+05   2.261139e+05
   1.817498e+04   2.408527e+05
  -1.839935e+05   4.510566e+04
  -2.371646e+05  -1.821903e+05
  -7.236232e+04  -2.519428e+05
   1.639490e+05  -1.457412e+05
   2.494138e+05   1.512935e+04
   1.221789e+05   1.211178e+05
  -5.023517e+04   1.427320e+05
  -6.589436e+04   9.584438e+04
   6.949287e+04   2.240375e+04
   1.498931e+05  -3.219366e+03
   2.783304e+04   6.666695e+04
  -1.957830e+05   1.638138e+05
  -2.915177e+05   1.455654e+05
  -1.732584e+05  -2.673104e+04
   2.171805e+04  -2.028313e+05
   1.169808e+05  -2.019116e+05
   8.103804e+04  -3.217602e+04
   4.752953e+02   1.147820e+05
  -5.542964e+04   9.078662e+04
  -7.611739e+04  -4.865489e+04
  -5.693684e+04  -1.347005e+05
   1.059545e+04  -8.788745e+04
   9.102417e+04   1.469616e+04
   1.142682e+05   5.644738e+04
   6.021536e+04   1.735192e+04
  -8.703763e+03  -2.222034e+04
  -2.879627e+04   8.907185e+03
  -1.597052e+04   8.404997e+04
  -2.942105e+04   1.073100e+05
  -7.467064e+04   2.612990e+04
  -8.621159e+04  -9.773833e+04
  -1.394862e+04  -1.444019e+05
   9.865336e+04  -6.361216e+04
   1.419802e+05   6.927467e+04
   5.068810e+04   1.334397e+05
  -1.126407e+05   8.440606e+04
  -1.967924e+05  -1.781455e+04
  -1.104708e+05  -8.675511e+04
   6.508394e+04  -8.838638e+04
   1.461818e+05  -4.615274e+04
   5.188477e+04  -2.799896e+03
  -9.278542e+04   6.196117e+03
  -1.002304e+05  -3.015344e+04
   5.231957e+04  -7.581463e+04
   1.944202e+05  -5.833974e+04
