
 $NMID
 id='ANONYMOUS ', fmtdat='(2E16.6)'
 volume=1.0
 tramp=1.0
 $END
   5.544490e+07   2.626762e+05
   3.320490e+07   3.443438e+07
  -7.456170e+06   3.746675e+07
  -2.719766e+07   1.435269e+07
  -1.621188e+07  -6.907420e+06
   3.266901e+06  -9.172793e+06
   9.678721e+06   1.200047e+06
   2.733783e+06   9.620738e+06
  -6.115037e+06   9.208787e+06
  -9.511815e+06   1.959442e+06
  -6.873251e+06  -6.142292e+06
  -7.701988e+05  -8.494567e+06
   3.952706e+06  -2.683270e+06
   2.583204e+06   5.397965e+06
  -3.729187e+06   6.464972e+06
  -7.753714e+06  -1.332799e+06
  -4.347271e+06  -1.007001e+07
   3.763822e+06  -1.161091e+07
   9.975702e+06  -5.776614e+06
   1.063345e+07   2.072577e+06
   6.476130e+06   7.401529e+06
   6.362717e+05   8.502245e+06
  -2.874998e+06   5.929400e+06
  -1.795194e+06   2.653257e+06
   1.113165e+06   2.166518e+06
   2.272654e+05   4.151637e+06
  -5.377910e+06   4.319907e+06
  -9.557348e+06   4.383803e+05
  -6.933680e+06  -4.113265e+06
  -2.055972e+05  -4.997604e+06
   3.707569e+06  -2.510741e+06
   2.446613e+06   2.502944e+04
  -6.353802e+05   9.549123e+05
  -2.297207e+06   4.752466e+05
  -2.176734e+06  -1.455418e+06
  -6.518596e+05  -3.909917e+06
   1.804847e+06  -3.788037e+06
   3.170648e+06   1.375043e+05
   1.648507e+06   3.591573e+06
  -7.760618e+05   1.864841e+06
  -3.166162e+05  -2.458031e+06
   2.443838e+06  -2.280266e+06
   2.409797e+06   3.151327e+06
  -2.391699e+06   6.032689e+06
  -6.820965e+06   9.798580e+05
  -5.007795e+06  -6.828924e+06
   1.904325e+06  -8.383346e+06
   7.324170e+06  -2.353262e+06
   6.855411e+06   4.414417e+06
   1.818889e+06   5.969251e+06
  -3.443511e+06   2.682217e+06
  -5.209489e+06  -1.514578e+06
  -2.403907e+06  -3.452442e+06
   2.382827e+06  -2.166757e+06
   4.465575e+06   9.192920e+05
   1.921156e+06   2.686440e+06
  -1.697420e+06   1.346680e+06
  -1.725002e+06  -1.019838e+06
   1.290790e+06  -9.173006e+05
   2.441501e+06   1.707300e+06
  -5.867083e+05   3.368783e+06
  -4.537197e+06   1.866594e+06
  -5.217934e+06  -1.332183e+06
  -2.279795e+06  -3.918195e+06
   1.807385e+06  -5.193357e+06
   4.988263e+06  -4.765796e+06
   6.137947e+06  -1.691431e+06
   4.506902e+06   3.151171e+06
   9.016442e+05   6.112966e+06
  -1.850072e+06   4.721700e+06
  -1.739289e+06   1.226173e+06
  -1.765882e+05  -2.228857e+05
  -1.182801e+04   9.812013e+05
  -1.630123e+06   1.755496e+06
  -2.807611e+06   1.996878e+05
  -2.003439e+06  -1.955455e+06
   6.299406e+02  -2.151554e+06
   1.569860e+06  -1.955795e+05
   1.674039e+06   2.090801e+06
  -1.391527e+04   2.931221e+06
  -2.764839e+06   1.626706e+06
  -4.431128e+06  -1.212657e+06
  -3.169130e+06  -3.742601e+06
   5.773805e+04  -4.179506e+06
   2.259070e+06  -2.675332e+06
   2.207226e+06  -1.121586e+06
   1.820254e+06  -6.811771e+05
   2.935182e+06  -4.736920e+05
   4.336822e+06   7.735544e+05
   3.469783e+06   2.776374e+06
   1.115847e+05   4.126939e+06
  -3.227944e+06   3.884999e+06
  -4.189393e+06   2.095584e+06
  -2.653929e+06  -4.423796e+05
  -2.561710e+05  -2.240857e+06
   1.117649e+06  -1.926735e+06
   5.634791e+05   4.167276e+04
  -1.098982e+06   1.305167e+06
  -1.910862e+06   3.889878e+05
  -9.139004e+05  -1.210729e+06
   5.272681e+05  -1.114269e+06
   4.320705e+05   3.927510e+05
  -1.066405e+06   7.007147e+05
  -1.854616e+06  -1.284129e+06
  -6.414641e+05  -3.485679e+06
   1.596727e+06  -3.414421e+06
   3.146669e+06  -1.112022e+06
   3.312153e+06   1.458103e+06
   2.269651e+06   2.781207e+06
   4.402674e+05   2.622095e+06
  -1.253835e+06   1.460892e+06
  -1.584621e+06   2.185639e+05
  -4.943702e+05  -4.909518e+04
   3.551946e+05   7.577326e+05
  -4.234677e+05   1.344694e+06
  -1.919746e+06   5.697135e+05
  -2.038090e+06  -9.050864e+05
  -3.777144e+05  -1.427038e+06
   1.182496e+06  -5.662378e+05
   8.898854e+05   4.647703e+05
  -8.583772e+05   5.157087e+05
  -2.188123e+06  -3.398468e+05
  -1.739724e+06  -1.376503e+06
   2.662827e+05  -1.976656e+06
   2.331099e+06  -1.643870e+06
   2.788989e+06  -2.548948e+05
   1.215257e+06   1.281404e+06
  -9.345177e+05   1.505760e+06
  -1.571726e+06   1.811909e+05
  -1.964686e+05  -1.089073e+06
   1.530991e+06  -7.315544e+05
   1.722932e+06   8.001106e+05
   3.243005e+05   1.665618e+06
  -1.109053e+06   9.715675e+05
  -1.262233e+06  -3.279511e+05
  -2.381339e+05  -7.905177e+05
   8.045902e+05  -4.922303e+04
   7.356895e+05   1.065788e+06
  -5.876458e+05   1.430567e+06
  -2.023749e+06   5.348853e+05
  -2.042801e+06  -1.069295e+06
  -3.724660e+05  -2.091610e+06
   1.462620e+06  -1.643717e+06
   1.739993e+06  -1.971665e+05
   4.971124e+05   8.796246e+05
  -6.703730e+05   8.027090e+05
  -6.356997e+05   7.231776e+04
   1.245536e+05  -3.577991e+05
   4.927469e+05  -2.013447e+05
   1.153224e+05   6.606406e+04
  -4.545598e+05  -8.679746e+04
  -5.138309e+05  -6.853343e+05
   2.205004e+05  -1.193849e+06
   1.398838e+06  -8.898417e+05
   2.091858e+06   4.320398e+05
   1.461305e+06   1.965999e+06
  -2.343452e+05   2.433106e+06
  -1.634054e+06   1.405628e+06
  -1.694696e+06  -1.421669e+05
  -8.498071e+05  -9.043873e+05
  -3.119796e+05  -6.490746e+05
  -4.825580e+05  -2.180931e+05
  -6.340953e+05  -3.210017e+05
  -8.719591e+04  -7.727972e+05
   8.895836e+05  -8.987207e+05
   1.457563e+06  -3.127937e+05
   1.045535e+06   7.328327e+05
  -2.652577e+05   1.460890e+06
  -1.738788e+06   1.062524e+06
  -2.255313e+06  -5.031094e+05
  -1.122418e+06  -2.121487e+06
   1.037208e+06  -2.373192e+06
   2.568627e+06  -1.016077e+06
   2.357588e+06   6.855004e+05
   9.441986e+05   1.353917e+06
  -2.184603e+05   9.432783e+05
  -3.906065e+05   5.041680e+05
  -7.516777e+04   7.574716e+05
  -1.080471e+05   1.318978e+06
  -6.840054e+05   1.295763e+06
  -1.306016e+06   3.137688e+05
  -1.340204e+06  -1.094281e+06
  -5.491786e+05  -1.908702e+06
   6.334866e+05  -1.441812e+06
   1.292546e+06   1.173549e+04
   8.070380e+05   1.299102e+06
  -4.065654e+05   1.402236e+06
  -1.177601e+06   3.948304e+05
  -8.120885e+05  -7.151887e+05
   1.367325e+05  -1.085935e+06
   5.523617e+05  -7.822909e+05
   9.154736e+04  -4.147822e+05
  -4.353850e+05  -3.383410e+05
  -5.907208e+04  -3.850481e+05
   1.159519e+06  -2.031222e+05
   2.077227e+06   3.484884e+05
   1.620484e+06   1.055656e+06
  -5.213610e+04   1.447359e+06
  -1.611916e+06   1.139742e+06
  -1.846560e+06   2.639713e+05
  -8.336213e+05  -5.098385e+05
   2.689378e+05  -5.744310e+05
   5.170027e+05  -2.768653e+04
   3.114497e+04   4.285423e+05
  -4.440217e+05   2.592587e+05
  -4.839112e+05  -3.461402e+05
  -2.585891e+05  -7.263896e+05
  -1.010997e+05  -4.819571e+05
  -1.378685e+05   8.954765e+04
  -2.768859e+05   2.863198e+05
  -2.743604e+05  -2.359782e+05
   1.432212e+05  -9.889112e+05
   9.100472e+05  -1.069778e+06
   1.380451e+06  -1.757588e+05
   8.631568e+05   9.233263e+05
  -4.224112e+05   1.152610e+06
  -1.272744e+06   3.429687e+05
  -7.374383e+05  -5.765422e+05
   7.120995e+05  -6.470050e+05
   1.593197e+06   1.104114e+05
   9.940675e+05   8.766812e+05
  -5.023854e+05   9.840527e+05
  -1.507709e+06   4.586756e+05
  -1.229877e+06  -2.068073e+05
  -1.265600e+05  -5.154827e+05
   6.564363e+05  -2.620656e+05
   3.892884e+05   3.014767e+05
  -5.849297e+05   5.301078e+05
  -1.192477e+06  -7.481668e+04
  -6.857656e+05  -1.185801e+06
   5.820841e+05  -1.719425e+06
   1.488628e+06  -8.996927e+05
   1.264583e+06   7.592138e+05
   2.028453e+05   1.801083e+06
  -7.482099e+05   1.293241e+06
  -9.280073e+05  -1.902247e+05
  -4.199322e+05  -1.202483e+06
   2.379914e+05  -9.666483e+05
   5.703453e+05  -7.676316e+04
   4.574621e+05   3.786602e+05
   1.521974e+05   1.346955e+05
   5.386810e+04  -9.193291e+04
   2.986592e+05   3.068541e+05
   5.176782e+05   9.778715e+05
   1.742602e+05   1.083045e+06
  -7.381134e+05   3.926935e+05
  -1.481354e+06  -4.704980e+05
  -1.271874e+06  -8.446623e+05
  -1.829846e+05  -7.069397e+05
   8.457271e+05  -4.232059e+05
   9.857809e+05  -1.768534e+05
   3.752431e+05   6.285850e+04
  -1.409755e+05   2.289296e+05
  -5.357586e+04   1.972182e+05
   2.478767e+05   8.408293e+04
   5.890235e+04   1.331170e+05
  -6.453114e+05   2.471810e+05
  -1.057896e+06  -3.105418e+03
  -4.679993e+05  -7.010826e+05
   8.258498e+05  -1.202907e+06
   1.726149e+06  -7.829180e+05
   1.451122e+06   4.187947e+05
   2.910456e+05   1.413418e+06
  -7.746698e+05   1.397011e+06
  -1.057310e+06   5.618291e+05
  -6.590985e+05  -2.191083e+05
  -1.460894e+05  -3.615762e+05
   5.167907e+04  -8.114824e+04
  -8.865489e+04   1.727216e+03
  -2.936595e+05  -3.763696e+05
  -2.432820e+05  -8.141603e+05
   1.729947e+05  -6.911385e+05
   6.836277e+05   1.021278e+05
   7.657079e+05   9.398756e+05
   1.497214e+05   1.043111e+06
  -7.439403e+05   2.787622e+05
  -1.057403e+06  -6.979569e+05
  -3.750776e+05  -1.098381e+06
   7.110663e+05  -7.067213e+05
   1.141185e+06   6.061152e+04
   5.540175e+05   6.310717e+05
  -2.870016e+05   7.083280e+05
  -4.003452e+05   3.785653e+05
   2.276063e+05  -1.750094e+03
   6.491740e+05  -4.810960e+04
   1.578131e+05   3.142592e+05
  -8.281297e+05   6.873175e+05
  -1.285792e+06   5.358907e+05
  -7.925101e+05  -1.921632e+05
   8.909310e+04  -8.869140e+05
   5.711858e+05  -8.766986e+05
   4.516254e+05  -1.827519e+05
   7.059205e+04   4.736769e+05
  -2.336401e+05   4.540564e+05
  -3.556184e+05  -1.244813e+05
  -2.646787e+05  -5.796159e+05
   4.416066e+04  -4.511470e+05
   3.960517e+05   3.220125e+04
   4.895105e+05   2.941713e+05
   2.454396e+05   1.086484e+05
  -4.648063e+04  -1.682646e+05
  -8.349579e+04  -7.797074e+04
   4.568233e+04   3.432253e+05
  -2.783977e+03   5.803782e+05
  -3.067443e+05   2.637890e+05
  -4.958452e+05  -3.525936e+05
  -2.039303e+05  -6.493459e+05
   3.976756e+05  -3.328609e+05
   6.886555e+05   2.605240e+05
   2.739060e+05   5.672668e+05
  -5.152494e+05   3.773621e+05
  -9.052616e+05  -5.696913e+04
  -4.943007e+05  -3.756704e+05
   2.925512e+05  -4.242706e+05
   6.491533e+05  -2.580505e+05
   2.707335e+05  -2.457695e+04
  -3.236015e+05   9.194915e+04
  -4.025628e+05  -3.360591e+04
   1.452096e+05  -2.806303e+05
   7.127200e+05  -2.839528e+05
