
 $NMID
 id='ANONYMOUS ', fmtdat='(2E16.6)'
 volume=1.0
 tramp=1.0
 $END
  -1.316036e+07  -6.394225e+05
  -8.178377e+06  -6.706605e+06
   6.472145e+05  -8.175896e+06
   5.760048e+06  -4.949459e+06
   4.433503e+06  -2.376138e+05
   8.962888e+04   2.190108e+06
  -2.508025e+06   9.258997e+05
  -1.736945e+06  -2.066191e+06
   7.207714e+05  -3.344153e+06
   2.382855e+06  -1.408520e+06
   2.019086e+06   1.711606e+06
   2.164728e+05   2.669067e+06
  -1.258451e+06   5.363126e+05
  -9.673612e+05  -2.211081e+06
   7.861916e+05  -2.548794e+06
   2.132717e+06  -1.475789e+05
   1.515455e+06   2.579690e+06
  -6.790016e+05   3.198047e+06
  -2.537530e+06   1.485355e+06
  -2.564177e+06  -8.224760e+05
  -1.069338e+06  -1.932323e+06
   2.848917e+05  -1.531096e+06
   2.131771e+05  -7.577479e+05
  -8.614747e+05  -8.363624e+05
  -1.213670e+06  -1.724136e+06
   2.697072e+05  -2.190872e+06
   2.605764e+06  -1.289687e+06
   3.516614e+06   4.799140e+05
   1.915666e+06   1.688687e+06
  -7.358062e+05   1.467354e+06
  -1.929357e+06   2.229716e+05
  -7.878274e+05  -9.240999e+05
   1.178299e+06  -1.058554e+06
   1.927448e+06  -2.610925e+04
   1.001055e+06   1.391320e+06
  -3.813228e+05   1.893579e+06
  -9.010739e+05   8.654943e+05
  -4.014430e+05  -6.858062e+05
   2.809433e+05  -1.001563e+06
   3.310343e+05   2.989843e+05
  -3.012678e+05   1.548858e+06
  -9.446238e+05   1.052341e+06
  -8.532978e+05  -6.792174e+05
   6.720684e+04  -1.508616e+06
   1.045384e+06  -3.704290e+05
   1.039102e+06   1.440847e+06
  -2.459085e+05   1.908490e+06
  -1.866002e+06   5.761958e+05
  -2.337645e+06  -1.214257e+06
  -1.048158e+06  -1.934595e+06
   1.002697e+06  -1.233764e+06
   2.046339e+06   8.042922e+04
   1.264477e+06   9.190738e+05
  -4.030279e+05   7.590775e+05
  -1.279509e+06  -3.145296e+04
  -7.045627e+05  -5.849276e+05
   4.077701e+05  -3.854325e+05
   7.394631e+05   2.398743e+05
   4.641675e+04   5.488198e+05
  -6.947032e+05   2.189491e+05
  -4.905215e+05  -3.743767e+05
   5.390282e+05  -6.064949e+05
   1.285291e+06  -1.501374e+05
   8.098710e+05   8.058621e+05
  -6.824461e+05   1.614164e+06
  -2.015976e+06   1.515522e+06
  -2.169438e+06   2.975540e+05
  -1.213169e+06  -1.291647e+06
  -1.108379e+05  -2.099189e+06
   3.462540e+05  -1.727232e+06
   2.675157e+05  -9.130677e+05
   3.080823e+05  -5.575939e+05
   7.833976e+05  -6.243859e+05
   1.323054e+06  -3.521787e+05
   1.335912e+06   5.504974e+05
   6.333262e+05   1.363562e+06
  -3.980862e+05   1.175476e+06
  -1.073653e+06  -2.012495e+03
  -8.713855e+05  -1.170569e+06
   1.406079e+05  -1.336050e+06
   1.221686e+06  -4.238261e+05
   1.499316e+06   7.588854e+05
   7.946231e+05   1.340288e+06
  -1.752481e+05   1.128243e+06
  -5.931498e+05   6.218647e+05
  -4.649896e+05   3.826728e+05
  -5.154154e+05   4.543151e+05
  -1.151478e+06   4.008606e+05
  -1.804420e+06  -1.521686e+05
  -1.519251e+06  -1.073761e+06
  -1.183286e+05  -1.785880e+06
   1.438934e+06  -1.718409e+06
   1.943283e+06  -7.904489e+05
   1.118661e+06   4.275515e+05
  -1.400074e+05   1.075534e+06
  -6.859811e+05   7.360533e+05
  -2.169878e+05  -1.129351e+05
   5.582056e+05  -5.332804e+05
   7.677056e+05  -1.343987e+05
   2.716151e+05   4.883481e+05
  -3.112374e+05   4.927663e+05
  -3.404927e+05  -1.398002e+05
   2.079613e+05  -5.409938e+05
   7.821741e+05  -9.855104e+03
   7.756777e+05   1.097614e+06
   1.560763e+04   1.702051e+06
  -1.079519e+06   1.136967e+06
  -1.742534e+06  -1.906871e+05
  -1.431218e+06  -1.244610e+06
  -3.561865e+05  -1.342619e+06
   6.133512e+05  -6.919174e+05
   7.535712e+05  -5.786612e+04
   2.184108e+05   1.656285e+04
  -1.676234e+05  -3.282599e+05
   1.236033e+05  -5.279405e+05
   7.223026e+05  -2.469799e+05
   8.361257e+05   2.780749e+05
   2.225017e+05   5.335773e+05
  -4.903482e+05   2.878174e+05
  -4.910086e+05  -1.870414e+05
   3.026434e+05  -3.970402e+05
   1.102553e+06  -7.854118e+04
   1.034111e+06   5.726906e+05
   3.859229e+04   1.038564e+06
  -1.034949e+06   8.886294e+05
  -1.258258e+06   1.851785e+05
  -5.310476e+05  -4.969637e+05
   3.638304e+05  -5.753600e+05
   5.823519e+05  -6.057606e+04
   2.851828e+04   4.245692e+05
  -6.513935e+05   3.116552e+05
  -7.749170e+05  -2.848808e+05
  -2.560378e+05  -7.131551e+05
   3.920441e+05  -5.326506e+05
   5.812527e+05   1.125811e+04
   1.948802e+05   3.020506e+05
  -3.035893e+05   4.163353e+04
  -3.127981e+05  -4.581133e+05
   2.779897e+05  -6.304138e+05
   9.099966e+05  -2.228531e+05
   9.001557e+05   4.752990e+05
   1.829717e+05   9.062849e+05
  -5.912552e+05   7.370575e+05
  -7.443929e+05   1.434708e+05
  -2.631483e+05  -3.574754e+05
   2.677276e+05  -3.838219e+05
   3.382089e+05  -3.050184e+04
  -1.668265e+03   2.664426e+05
  -3.008985e+05   2.094711e+05
  -2.273346e+05  -5.021998e+04
   1.087966e+05  -1.145766e+05
   2.869021e+05   1.736944e+05
   5.413323e+03   5.113515e+05
  -5.784532e+05   4.400032e+05
  -9.376400e+05  -1.489903e+05
  -6.696546e+05  -8.525072e+05
   7.607073e+04  -1.111196e+06
   7.212887e+05  -7.248000e+05
   8.325412e+05  -2.363098e+04
   5.131900e+05   4.548260e+05
   1.968241e+05   4.581321e+05
   1.346867e+05   2.054248e+05
   1.772545e+05   1.001915e+05
   3.394931e+04   2.728242e+05
  -3.444125e+05   4.372994e+05
  -6.691220e+05   2.297416e+05
  -5.701250e+05  -3.260659e+05
   3.397495e+04  -7.532039e+05
   7.730967e+05  -5.744479e+05
   1.059234e+06   1.732955e+05
   5.856167e+05   9.176863e+05
  -3.514387e+05   1.067169e+06
  -1.071165e+06   5.453897e+05
  -1.102840e+06  -1.823821e+05
  -5.694101e+05  -5.832521e+05
   9.227313e+03  -5.331267e+05
   2.415633e+05  -3.390401e+05
   1.692339e+05  -3.361297e+05
   1.092591e+05  -5.069190e+05
   2.710508e+05  -5.193664e+05
   5.377710e+05  -1.301906e+05
   5.919539e+05   4.876256e+05
   2.544774e+05   8.581047e+05
  -2.835686e+05   6.545179e+05
  -5.897538e+05   2.626621e+04
  -4.000419e+05  -5.316633e+05
   9.830199e+04  -6.234754e+05
   4.404317e+05  -2.683639e+05
   3.573267e+05   1.862785e+05
   3.487463e+04   4.145970e+05
  -1.290276e+05   3.677972e+05
   1.004939e+04   2.288217e+05
   1.811335e+05   1.707194e+05
   2.000290e+04   1.828037e+05
  -4.789030e+05   1.193606e+05
  -8.836360e+05  -1.104155e+05
  -7.379619e+05  -4.182464e+05
  -5.682955e+04  -5.975929e+05
   6.335708e+05  -5.031874e+05
   7.945963e+05  -1.861713e+05
   4.003828e+05   1.287484e+05
  -7.970403e+04   2.171169e+05
  -2.057335e+05   5.513960e+04
   9.341668e+03  -1.377482e+05
   2.238817e+05  -1.061034e+05
   2.092714e+05   1.511879e+05
   5.780905e+04   3.444642e+05
  -1.292666e+04   2.221328e+05
   6.588768e+04  -8.989523e+04
   1.725352e+05  -1.936966e+05
   1.429380e+05   9.464736e+04
  -8.368875e+04   4.735139e+05
  -3.969867e+05   4.810323e+05
  -5.450932e+05   4.607782e+04
  -3.197102e+05  -4.135543e+05
   1.817578e+05  -4.604650e+05
   5.262595e+05  -1.000286e+05
   3.274525e+05   2.741669e+05
  -2.950392e+05   3.115364e+05
  -7.470686e+05   7.381065e+03
  -5.483002e+05  -3.620847e+05
   1.456517e+05  -5.036238e+05
   6.902588e+05  -3.211276e+05
   6.185430e+05   2.709139e+04
   9.869234e+04   2.467508e+05
  -2.854075e+05   1.571064e+05
  -1.559516e+05  -1.131820e+05
   2.942162e+05  -2.129396e+05
   5.355650e+05   7.650519e+04
   2.574056e+05   5.601568e+05
  -3.256689e+05   7.576227e+05
  -7.042028e+05   3.713640e+05
  -5.753211e+05  -3.621863e+05
  -9.510766e+04  -8.334607e+05
   3.317056e+05  -6.310765e+05
   4.366695e+05   3.633990e+04
   2.462204e+05   5.390785e+05
  -4.367115e+04   4.756248e+05
  -2.433045e+05   6.389210e+04
  -2.547886e+05  -1.791326e+05
  -1.174298e+05  -7.525096e+04
  -5.680366e+03   5.594205e+04
  -7.090436e+04  -1.078789e+05
  -2.172161e+05  -4.300282e+05
  -1.432650e+05  -5.027510e+05
   2.696130e+05  -1.932683e+05
   6.893470e+05   2.065221e+05
   6.406477e+05   3.758343e+05
   9.542237e+04   3.102169e+05
  -4.301120e+05   1.943611e+05
  -4.665751e+05   1.055439e+05
  -1.318037e+05   1.147797e+03
   8.155563e+04  -9.990263e+04
  -3.296813e+04  -1.162808e+05
  -1.740211e+05  -6.844256e+04
  -4.758053e+03  -6.571403e+04
   3.576758e+05  -9.339204e+04
   4.751283e+05   1.826206e+04
   1.270431e+05   3.105673e+05
  -4.317469e+05   5.130879e+05
  -7.455915e+05   3.125873e+05
  -5.876550e+05  -2.246732e+05
  -1.095811e+05  -6.533788e+05
   3.368250e+05  -6.160498e+05
   4.810909e+05  -2.158733e+05
   3.096235e+05   1.328944e+05
   4.108891e+04   1.648651e+05
  -7.510139e+04   3.546445e+03
   2.074701e+04  -4.020077e+04
   1.606214e+05   1.533866e+05
   1.333084e+05   3.703110e+05
  -9.251649e+04   3.017637e+05
  -3.230864e+05  -8.731527e+04
  -3.118695e+05  -4.682018e+05
  -1.746988e+03  -4.688367e+05
   3.737375e+05  -7.030036e+04
   4.605574e+05   3.710698e+05
   1.304076e+05   4.973383e+05
  -3.346533e+05   2.778142e+05
  -4.910923e+05  -4.735554e+04
  -2.177898e+05  -2.511769e+05
   1.296893e+05  -2.708780e+05
   1.383461e+05  -1.581594e+05
  -1.532732e+05  -1.799173e+04
  -3.084978e+05   1.240468e+04
  -5.338133e+04  -1.335511e+05
   3.778338e+05  -3.166929e+05
   5.415780e+05  -2.768536e+05
   3.081523e+05   5.067920e+04
  -4.818957e+04   3.820951e+05
  -2.181911e+05   3.747660e+05
  -1.559146e+05   4.439128e+04
  -4.128140e+03  -2.363886e+05
   1.175700e+05  -1.782147e+05
   1.645557e+05   1.025446e+05
   1.107552e+05   2.660245e+05
  -3.479111e+04   1.634731e+05
  -1.778992e+05  -3.639267e+04
  -2.043504e+05  -1.043161e+05
  -1.098898e+05  -2.185872e+04
  -3.192785e+03   4.158356e+04
   3.554146e+04  -3.784675e+04
   4.352951e+04  -1.862741e+05
   9.445320e+04  -2.148015e+05
   1.704430e+05  -3.555598e+04
   1.635002e+05   2.176661e+05
   8.493807e+03   3.042098e+05
  -2.057805e+05   1.267941e+05
  -2.811938e+05  -1.528133e+05
  -9.815227e+04  -2.779285e+05
   2.223046e+05  -1.615663e+05
   3.837274e+05   5.211980e+04
   2.084141e+05   1.747779e+05
  -1.359422e+05   1.561892e+05
  -2.842018e+05   7.047797e+04
  -8.669617e+04   1.654625e+03
   1.985247e+05  -3.054202e+03
   2.027787e+05   6.909984e+04
  -1.087401e+05   1.576133e+05
  -3.930096e+05   1.232726e+05
