
 $NMID
 id='ANONYMOUS ', fmtdat='(2E16.6)'
 volume=1.0
 tramp=1.0
 $END
  -4.201887e+07   4.858586e+05
  -2.613244e+07  -2.531584e+07
   4.651481e+06  -2.863435e+07
   2.059425e+07  -1.191211e+07
   1.300309e+07   4.619067e+06
  -2.081604e+06   7.267040e+06
  -7.693173e+06  -4.064887e+05
  -2.621608e+06  -7.424286e+06
   4.499326e+06  -7.607581e+06
   7.438428e+06  -1.905555e+06
   5.419880e+06   4.734560e+06
   6.091970e+05   6.691249e+06
  -3.071237e+06   2.048267e+06
  -2.013875e+06  -4.392627e+06
   2.885310e+06  -5.288100e+06
   6.087601e+06   8.232560e+05
   3.540885e+06   7.746822e+06
  -2.752917e+06   9.041032e+06
  -7.603045e+06   4.504300e+06
  -8.068235e+06  -1.559957e+06
  -4.854069e+06  -5.515882e+06
  -5.658390e+05  -6.245933e+06
   1.860388e+06  -4.468862e+06
   1.033740e+06  -2.354196e+06
  -8.885174e+05  -2.141967e+06
   8.467181e+04  -3.414337e+06
   4.430943e+06  -3.188170e+06
   7.503085e+06  -9.406010e+04
   5.308393e+06   3.271183e+06
  -8.382996e+03   3.758381e+06
  -3.000541e+06   1.704592e+06
  -1.759817e+06  -2.586419e+05
   9.058919e+05  -7.757962e+05
   2.110818e+06  -1.021293e+05
   1.604811e+06   1.488366e+06
   1.938675e+05   3.160161e+06
  -1.473123e+06   2.810548e+06
  -2.212368e+06  -1.900347e+05
  -1.101127e+06  -2.632911e+06
   4.585668e+05  -1.196130e+06
  -1.288483e+04   2.059665e+06
  -2.028054e+06   1.834084e+06
  -1.983773e+06  -2.403007e+06
   1.586471e+06  -4.743198e+06
   5.028405e+06  -1.003923e+06
   3.907630e+06   5.017692e+06
  -1.233498e+06   6.399508e+06
  -5.555915e+06   1.878269e+06
  -5.435331e+06  -3.423287e+06
  -1.543639e+06  -4.769947e+06
   2.745033e+06  -2.234651e+06
   4.272350e+06   1.144619e+06
   2.069027e+06   2.772579e+06
  -1.777383e+06   1.821283e+06
  -3.525585e+06  -6.043193e+05
  -1.607540e+06  -2.063419e+06
   1.277142e+06  -1.090659e+06
   1.435313e+06   8.124668e+05
  -9.210223e+05   8.976217e+05
  -2.047545e+06  -1.095435e+06
   1.123266e+05  -2.575974e+06
   3.290680e+06  -1.641892e+06
   4.091973e+06   8.176491e+05
   1.886733e+06   2.965189e+06
  -1.458475e+06   4.020951e+06
  -4.043337e+06   3.621989e+06
  -4.820991e+06   1.193431e+06
  -3.400658e+06  -2.517401e+06
  -6.142227e+05  -4.805415e+06
   1.441397e+06  -3.816424e+06
   1.407281e+06  -1.160299e+06
   3.492846e+05   6.500603e+04
   2.859963e+05  -6.838056e+05
   1.444278e+06  -1.154161e+06
   2.192834e+06   9.395583e+04
   1.430382e+06   1.732865e+06
  -1.970098e+05   1.753386e+06
  -1.379626e+06   3.787263e+04
  -1.318647e+06  -1.839525e+06
   1.213711e+05  -2.388243e+06
   2.245111e+06  -1.186221e+06
   3.423538e+06   1.077513e+06
   2.384686e+06   2.942090e+06
  -6.380648e+04   3.188015e+06
  -1.701193e+06   2.044391e+06
  -1.673100e+06   9.169748e+05
  -1.452773e+06   6.019239e+05
  -2.399017e+06   3.909646e+05
  -3.518649e+06  -6.700654e+05
  -2.784024e+06  -2.311607e+06
  -1.491849e+04  -3.372748e+06
   2.734462e+06  -3.084009e+06
   3.475372e+06  -1.550351e+06
   2.104429e+06   4.779712e+05
   7.238007e+04   1.813735e+06
  -9.956984e+05   1.488430e+06
  -4.433253e+05  -5.995547e+04
   9.341959e+05  -1.020071e+06
   1.546098e+06  -2.886443e+05
   7.001760e+05   9.730629e+05
  -4.745222e+05   8.993108e+05
  -3.990166e+05  -3.359219e+05
   8.447824e+05  -6.641010e+05
   1.573665e+06   9.134521e+05
   6.593620e+05   2.827851e+06
  -1.220982e+06   2.944576e+06
  -2.633113e+06   1.070465e+06
  -2.835139e+06  -1.207297e+06
  -1.902379e+06  -2.421867e+06
  -3.028038e+05  -2.235981e+06
   1.090531e+06  -1.161281e+06
   1.313281e+06  -1.165665e+05
   4.066800e+05   5.321008e+04
  -2.792959e+05  -6.238944e+05
   3.403630e+05  -1.081208e+06
   1.541872e+06  -4.486982e+05
   1.655065e+06   7.327696e+05
   3.230769e+05   1.157358e+06
  -9.662539e+05   4.619194e+05
  -7.478354e+05  -3.990825e+05
   7.120451e+05  -4.532139e+05
   1.847692e+06   2.919593e+05
   1.463729e+06   1.201581e+06
  -2.509423e+05   1.679656e+06
  -1.974062e+06   1.329728e+06
  -2.308339e+06   1.562032e+05
  -9.789950e+05  -1.057952e+06
   7.666288e+05  -1.197200e+06
   1.257558e+06  -1.311782e+05
   1.361800e+05   8.671716e+05
  -1.255019e+06   5.670437e+05
  -1.407894e+06  -6.738560e+05
  -2.677232e+05  -1.384886e+06
   9.171787e+05  -8.227871e+05
   1.059156e+06   2.553748e+05
   2.218304e+05   6.510019e+05
  -6.339777e+05   4.172681e+04
  -5.679332e+05  -8.698101e+05
   5.152457e+05  -1.138365e+06
   1.658882e+06  -3.760019e+05
   1.635884e+06   9.222303e+05
   2.618510e+05   1.714586e+06
  -1.221667e+06   1.322449e+06
  -1.436132e+06   1.419517e+05
  -4.130536e+05  -7.314280e+05
   5.579599e+05  -6.601194e+05
   5.394152e+05  -4.217597e+04
  -1.057941e+05   3.229044e+05
  -4.431472e+05   1.711482e+05
  -1.347555e+05  -8.836856e+04
   3.667365e+05   3.008933e+04
   4.345018e+05   5.489311e+05
  -1.837059e+05   9.778653e+05
  -1.160891e+06   7.046298e+05
  -1.703168e+06  -3.986271e+05
  -1.148633e+06  -1.641137e+06
   2.539014e+05  -1.997141e+06
   1.390883e+06  -1.139021e+06
   1.423948e+06   1.504506e+05
   7.042624e+05   8.080228e+05
   2.247555e+05   6.068512e+05
   3.423172e+05   2.135254e+05
   4.797603e+05   2.497558e+05
   5.345225e+04   6.106013e+05
  -7.480661e+05   7.239477e+05
  -1.219464e+06   2.293023e+05
  -8.573297e+05  -6.512700e+05
   2.558795e+05  -1.228264e+06
   1.466345e+06  -8.439882e+05
   1.850492e+06   4.689579e+05
   8.898787e+05   1.767192e+06
  -8.763324e+05   1.930913e+06
  -2.118102e+06   8.034457e+05
  -1.947532e+06  -5.929751e+05
  -7.875754e+05  -1.151494e+06
   1.950471e+05  -8.159123e+05
   3.741763e+05  -4.254012e+05
   1.248262e+05  -5.935551e+05
   1.298030e+05  -1.040744e+06
   5.740086e+05  -1.029460e+06
   1.060555e+06  -2.260836e+05
   1.064401e+06   9.293683e+05
   4.000453e+05   1.578500e+06
  -5.577518e+05   1.165755e+06
  -1.064937e+06  -3.453668e+04
  -6.453460e+05  -1.073462e+06
   3.428265e+05  -1.148201e+06
   9.602126e+05  -3.349083e+05
   6.632883e+05   5.626538e+05
  -9.916158e+04   8.760657e+05
  -4.363729e+05   6.487537e+05
  -7.569243e+04   3.604218e+05
   3.372121e+05   2.958826e+05
   3.051842e+04   3.195858e+05
  -9.459909e+05   1.461148e+05
  -1.678729e+06  -3.242851e+05
  -1.307087e+06  -8.924771e+05
   4.705627e+04  -1.175776e+06
   1.318248e+06  -8.981217e+05
   1.518504e+06  -1.938387e+05
   6.933793e+05   4.099264e+05
  -2.169637e+05   4.548942e+05
  -4.219263e+05   2.527687e+04
  -1.065049e+04  -3.313837e+05
   3.819183e+05  -1.918957e+05
   3.851184e+05   2.974299e+05
   1.664335e+05   6.018727e+05
   4.796634e+04   3.915660e+05
   1.257976e+05  -8.384454e+04
   2.596180e+05  -2.382180e+05
   2.203513e+05   2.011610e+05
  -1.615495e+05   8.090188e+05
  -7.709719e+05   8.462421e+05
  -1.100375e+06   1.014062e+05
  -6.542263e+05  -7.696677e+05
   3.682383e+05  -9.113198e+05
   1.028494e+06  -2.305470e+05
   5.833963e+05   4.996158e+05
  -5.981147e+05   5.203173e+05
  -1.322490e+06  -1.235249e+05
  -8.276594e+05  -7.532259e+05
   4.240315e+05  -8.246673e+05
   1.270845e+06  -3.682878e+05
   1.033281e+06   1.929137e+05
   1.008708e+05   4.372815e+05
  -5.467752e+05   2.115817e+05
  -3.068388e+05  -2.456634e+05
   4.998939e+05  -4.028286e+05
   9.666378e+05   1.099285e+05
   5.054285e+05   9.923876e+05
  -5.471756e+05   1.377113e+06
  -1.254352e+06   6.770504e+05
  -1.013998e+06  -6.684109e+05
  -1.107270e+05  -1.491648e+06
   6.573035e+05  -1.055650e+06
   7.682784e+05   1.690166e+05
   3.285849e+05   1.004416e+06
  -2.060611e+05   8.070228e+05
  -4.673099e+05   5.799114e+04
  -3.787943e+05  -3.328499e+05
  -1.360057e+05  -1.258526e+05
  -4.231331e+04   8.239214e+04
  -2.174571e+05  -2.396194e+05
  -3.921065e+05  -8.101107e+05
  -1.330250e+05  -9.075607e+05
   5.962188e+05  -3.155747e+05
   1.209431e+06   4.303997e+05
   1.042280e+06   7.382358e+05
   1.339924e+05   5.837963e+05
  -7.243834e+05   3.157496e+05
  -8.248211e+05   1.214510e+05
  -2.965175e+05  -4.721035e+04
   1.282830e+05  -1.807228e+05
   3.405131e+04  -1.789287e+05
  -2.170816e+05  -9.562481e+04
  -3.507811e+04  -1.082416e+05
   5.567101e+05  -1.666668e+05
   8.630094e+05   3.914252e+04
   3.337023e+05   5.740388e+05
  -7.291361e+05   9.429605e+05
  -1.420676e+06   5.811824e+05
  -1.148202e+06  -3.899506e+05
  -1.861579e+05  -1.169920e+06
   6.701595e+05  -1.117885e+06
   8.784704e+05  -4.141124e+05
   5.318972e+05   2.126107e+05
   9.960684e+04   2.964824e+05
  -5.800553e+04   4.531870e+04
   7.147394e+04  -1.533236e+04
   2.414708e+05   3.148999e+05
   1.837230e+05   6.777959e+05
  -1.645536e+05   5.554891e+05
  -5.559206e+05  -1.195868e+05
  -5.822308e+05  -8.030392e+05
  -6.946125e+04  -8.497199e+05
   6.239455e+05  -1.818609e+05
   8.327305e+05   6.212633e+05
   2.606682e+05   9.069101e+05
  -6.032099e+05   5.413250e+05
  -9.218159e+05  -8.758927e+04
  -4.279653e+05  -5.165194e+05
   2.491046e+05  -5.535594e+05
   3.212202e+05  -2.996345e+05
  -2.029110e+05  -1.989645e+04
  -5.377037e+05   1.396161e+04
  -1.144511e+05  -2.570438e+05
   7.017199e+05  -5.408378e+05
   1.061118e+06  -4.195010e+05
   6.316633e+05   1.611666e+05
  -9.946266e+04   7.172144e+05
  -4.773111e+05   7.000072e+05
  -3.532318e+05   1.291621e+05
  -3.040405e+04  -3.948763e+05
   2.059349e+05  -3.537613e+05
   2.827826e+05   1.301901e+05
   1.958850e+05   4.834815e+05
  -4.934931e+04   3.520428e+05
  -3.204719e+05  -4.571201e+04
  -3.909049e+05  -2.430433e+05
  -2.016737e+05  -8.667791e+04
   2.935353e+04   1.233313e+05
   7.572406e+04   3.984121e+04
   6.417781e+01  -2.849784e+05
   4.629546e+04  -4.458738e+05
   2.592772e+05  -1.728035e+05
   3.663401e+05   3.164721e+05
   1.162017e+05   5.307913e+05
  -3.421989e+05   2.487704e+05
  -5.410167e+05  -2.427579e+05
  -1.951338e+05  -4.773383e+05
   4.287095e+05  -2.920641e+05
   7.276312e+05   7.959060e+04
   3.881465e+05   3.223641e+05
  -2.486878e+05   3.261744e+05
  -5.304678e+05   1.774475e+05
  -2.091808e+05   1.363953e+04
   2.812786e+05  -4.523268e+04
   3.294501e+05   6.141503e+04
  -1.468212e+05   2.310432e+05
  -6.177069e+05   2.002603e+05
