
 $NMID
 id='ANONYMOUS ', fmtdat='(2E16.6)'
 volume=1.0
 tramp=1.0
 $END
   4.276982e+07   3.576619e+06
   2.404723e+07   2.676361e+07
  -6.598497e+06   2.773937e+07
  -2.092649e+07   1.117478e+07
  -1.262317e+07  -4.274891e+06
   2.120150e+06  -6.912236e+06
   7.546020e+06   1.636076e+05
   2.715501e+06   7.270315e+06
  -4.360026e+06   7.920134e+06
  -7.506368e+06   1.990668e+06
  -5.418175e+06  -5.328584e+06
  -2.467443e+05  -7.273485e+06
   3.538476e+06  -1.816552e+06
   2.171596e+06   5.191134e+06
  -3.018493e+06   5.803221e+06
  -6.167389e+06  -9.419619e+05
  -3.321378e+06  -8.143775e+06
   3.276247e+06  -9.173771e+06
   8.167679e+06  -4.043311e+06
   8.158246e+06   2.494002e+06
   4.154668e+06   6.262544e+06
  -4.216998e+05   6.146750e+06
  -2.118254e+06   3.754442e+06
  -2.532914e+05   2.063682e+06
   1.760491e+06   2.842882e+06
  -2.627109e+05   4.418666e+06
  -5.649865e+06   3.423028e+06
  -8.676070e+06  -6.178398e+05
  -5.484164e+06  -4.209895e+06
   8.291649e+05  -4.228551e+06
   4.054440e+06  -1.490524e+06
   2.173284e+06   1.022728e+06
  -1.485109e+06   1.606970e+06
  -3.168291e+06   2.639052e+05
  -2.153183e+06  -2.250216e+06
   1.749309e+05  -4.061025e+06
   2.077153e+06  -2.830672e+06
   2.154657e+06   9.538265e+05
   4.417594e+05   3.062300e+06
  -8.922042e+05   6.788540e+05
   1.804438e+05  -2.891956e+06
   2.324663e+06  -2.159349e+06
   1.979062e+06   2.471290e+06
  -1.639720e+06   4.573399e+06
  -4.727693e+06   5.091292e+05
  -3.359587e+06  -5.340397e+06
   1.684053e+06  -6.260311e+06
   5.880860e+06  -1.470395e+06
   5.771212e+06   3.853986e+06
   1.746020e+06   5.158267e+06
  -2.932472e+06   2.505920e+06
  -4.726813e+06  -1.093390e+06
  -2.379331e+06  -2.849278e+06
   1.770763e+06  -1.807506e+06
   3.615901e+06   7.246357e+05
   1.604153e+06   2.113758e+06
  -1.374852e+06   1.035483e+06
  -1.615617e+06  -8.493120e+05
   6.629106e+05  -9.585613e+05
   1.874668e+06   8.073402e+05
  -1.540037e+04   2.106790e+06
  -3.042518e+06   1.335703e+06
  -3.968957e+06  -8.318679e+05
  -1.811792e+06  -2.996988e+06
   1.891384e+06  -4.297956e+06
   4.891186e+06  -3.844556e+06
   5.529454e+06  -9.293681e+05
   3.490292e+06   3.191585e+06
   3.229807e+05   5.414166e+06
  -1.541940e+06   4.146059e+06
  -1.231361e+06   1.458325e+06
  -3.547743e+05   4.271304e+05
  -7.973744e+05   1.185395e+06
  -2.262187e+06   1.273727e+06
  -2.874084e+06  -5.227038e+05
  -1.673658e+06  -2.483320e+06
   4.471249e+05  -2.352441e+06
   1.919862e+06  -8.495835e+04
   1.711881e+06   2.326331e+06
  -2.437377e+05   2.908141e+06
  -2.772809e+06   1.197379e+06
  -3.833551e+06  -1.595744e+06
  -2.323993e+06  -3.496911e+06
   4.147288e+05  -3.367382e+06
   1.941845e+06  -1.932141e+06
   1.695192e+06  -8.536899e+05
   1.497683e+06  -7.216334e+05
   2.709045e+06  -5.310854e+05
   4.058501e+06   7.318405e+05
   3.244963e+06   2.676638e+06
   2.578960e+04   3.973217e+06
  -3.289173e+06   3.660654e+06
  -4.252370e+06   1.759339e+06
  -2.535088e+06  -7.570409e+05
   7.105688e+04  -2.293940e+06
   1.358398e+06  -1.742215e+06
   5.309304e+05   1.517712e+05
  -1.186018e+06   1.198637e+06
  -1.804297e+06   2.766013e+05
  -7.197855e+05  -1.175446e+06
   6.279076e+05  -1.084013e+06
   5.584090e+05   3.432536e+05
  -7.751598e+05   8.559274e+05
  -1.672433e+06  -7.379429e+05
  -9.521707e+05  -2.935341e+06
   9.468481e+05  -3.403457e+06
   2.744286e+06  -1.583431e+06
   3.410952e+06   1.073792e+06
   2.531804e+06   2.775647e+06
   5.061672e+05   2.736446e+06
  -1.330278e+06   1.423931e+06
  -1.608949e+06   1.196229e+05
  -4.806694e+05  -6.241964e+04
   3.314318e+05   7.400270e+05
  -3.963442e+05   1.223280e+06
  -1.761574e+06   4.773764e+05
  -1.883637e+06  -8.312025e+05
  -3.752653e+05  -1.302546e+06
   1.128769e+06  -5.529663e+05
   9.470597e+05   4.472016e+05
  -7.549664e+05   6.273401e+05
  -2.224093e+06  -1.702933e+05
  -1.900041e+06  -1.341138e+06
   1.603063e+05  -2.061813e+06
   2.316941e+06  -1.676530e+06
   2.744341e+06  -2.223809e+05
   1.129500e+06   1.223978e+06
  -9.197709e+05   1.343279e+06
  -1.429755e+06   9.606902e+04
  -9.602501e+04  -1.015469e+06
   1.489006e+06  -6.479553e+05
   1.658565e+06   7.675083e+05
   3.710605e+05   1.602505e+06
  -1.006376e+06   1.006993e+06
  -1.233343e+06  -2.231618e+05
  -2.979287e+05  -7.222175e+05
   7.224214e+05  -4.049356e+04
   6.616498e+05   1.041423e+06
  -6.363684e+05   1.362339e+06
  -1.997256e+06   4.336328e+05
  -1.943051e+06  -1.114357e+06
  -3.048229e+05  -2.027726e+06
   1.426501e+06  -1.554689e+06
   1.675898e+06  -1.850581e+05
   5.001068e+05   8.412578e+05
  -6.462861e+05   7.894792e+05
  -6.806538e+05   5.740812e+04
   6.483754e+04  -4.429022e+05
   5.521768e+05  -3.053805e+05
   2.842819e+05   6.985501e+04
  -3.314982e+05   3.814401e+04
  -5.176322e+05  -5.527282e+05
   1.603909e+05  -1.124030e+06
   1.347869e+06  -8.528961e+05
   2.024244e+06   4.544308e+05
   1.369037e+06   1.945624e+06
  -2.876023e+05   2.391673e+06
  -1.632858e+06   1.412385e+06
  -1.721830e+06  -1.081590e+05
  -9.368835e+05  -9.595562e+05
  -3.518362e+05  -8.146232e+05
  -3.886827e+05  -3.483871e+05
  -4.933735e+05  -3.028248e+05
  -4.020591e+04  -6.842709e+05
   8.491793e+05  -8.715639e+05
   1.443326e+06  -3.368125e+05
   1.091132e+06   7.474874e+05
  -2.237533e+05   1.507813e+06
  -1.724131e+06   1.068698e+06
  -2.229135e+06  -5.193130e+05
  -1.100961e+06  -2.073645e+06
   9.839260e+05  -2.276476e+06
   2.460350e+06  -9.857610e+05
   2.319345e+06   6.252401e+05
   1.022532e+06   1.323163e+06
  -1.482770e+05   1.019711e+06
  -4.586851e+05   5.991126e+05
  -2.393766e+05   7.466658e+05
  -2.232312e+05   1.207366e+06
  -6.861848e+05   1.178510e+06
  -1.242100e+06   2.450166e+05
  -1.262592e+06  -1.117217e+06
  -4.772520e+05  -1.889381e+06
   6.703757e+05  -1.396868e+06
   1.271808e+06   2.384455e+04
   7.771766e+05   1.244339e+06
  -3.633178e+05   1.344628e+06
  -1.068588e+06   4.293460e+05
  -7.487758e+05  -5.923972e+05
   8.169851e+04  -9.744216e+05
   4.450688e+05  -7.516280e+05
   4.797012e+04  -4.428765e+05
  -3.992672e+05  -3.697737e+05
  -3.551819e+04  -3.900667e+05
   1.097502e+06  -1.788482e+05
   1.964377e+06   3.771238e+05
   1.552347e+06   1.034642e+06
  -2.523401e+04   1.352429e+06
  -1.527024e+06   1.039326e+06
  -1.776753e+06   2.582816e+05
  -8.159888e+05  -4.233163e+05
   2.465132e+05  -5.063051e+05
   4.760504e+05  -4.874831e+04
  -1.714335e+04   3.674695e+05
  -4.738401e+05   2.283717e+05
  -4.527470e+05  -3.555071e+05
  -1.660949e+05  -7.471327e+05
  -2.096193e+04  -4.880328e+05
  -1.385283e+05   1.329617e+05
  -3.239981e+05   3.401958e+05
  -2.749469e+05  -2.277306e+05
   1.973391e+05  -9.925281e+05
   9.177009e+05  -1.009680e+06
   1.280818e+06  -7.788407e+04
   7.385605e+05   9.412879e+05
  -4.541629e+05   1.051801e+06
  -1.217588e+06   2.267132e+05
  -6.981311e+05  -6.095291e+05
   6.951509e+05  -6.264974e+05
   1.584724e+06   1.069441e+05
   1.042920e+06   8.545858e+05
  -4.415680e+05   1.001306e+06
  -1.497145e+06   5.127692e+05
  -1.258935e+06  -1.741780e+05
  -1.497012e+05  -5.214207e+05
   6.385855e+05  -2.730385e+05
   3.484835e+05   2.871952e+05
  -6.267834e+05   4.738784e+05
  -1.168690e+06  -1.618088e+05
  -5.774859e+05  -1.220480e+06
   7.032293e+05  -1.654032e+06
   1.533428e+06  -7.950195e+05
   1.220720e+06   8.135871e+05
   1.371123e+05   1.798231e+06
  -7.726897e+05   1.290796e+06
  -9.175409e+05  -1.682543e+05
  -4.259420e+05  -1.186412e+06
   1.984800e+05  -9.740723e+05
   5.439216e+05  -8.310758e+04
   4.858703e+05   3.918685e+05
   1.970315e+05   1.473135e+05
   3.543485e+04  -1.020963e+05
   2.118878e+05   2.863468e+05
   4.541145e+05   9.691341e+05
   2.005762e+05   1.078450e+06
  -6.712415e+05   3.689102e+05
  -1.458732e+06  -5.092185e+05
  -1.286629e+06  -8.649770e+05
  -1.651304e+05  -6.904630e+05
   8.972121e+05  -3.919715e+05
   9.946970e+05  -1.656541e+05
   3.236693e+05   4.893646e+04
  -1.662604e+05   2.184714e+05
   2.025907e+03   2.150509e+05
   3.075026e+05   1.170666e+05
   3.023188e+04   1.398708e+05
  -7.137649e+05   2.057105e+05
  -1.037342e+06  -6.012469e+04
  -3.445439e+05  -7.079941e+05
   9.206332e+05  -1.125315e+06
   1.693460e+06  -6.582649e+05
   1.342352e+06   5.100882e+05
   2.112238e+05   1.417275e+06
  -8.011018e+05   1.325547e+06
  -1.066335e+06   4.723054e+05
  -6.542233e+05  -2.737801e+05
  -1.039500e+05  -3.638106e+05
   1.109922e+05  -4.802804e+04
  -6.289292e+04   3.756324e+04
  -3.017559e+05  -3.600464e+05
  -2.338098e+05  -8.083461e+05
   2.108274e+05  -6.629483e+05
   6.864544e+05   1.666716e+05
   6.864329e+05   1.000434e+06
   3.936487e+04   1.034771e+06
  -7.865728e+05   1.919638e+05
  -1.000756e+06  -7.855245e+05
  -2.864702e+05  -1.098425e+06
   7.434204e+05  -6.253486e+05
   1.094818e+06   1.258069e+05
   4.826799e+05   6.078579e+05
  -3.131166e+05   6.328348e+05
  -3.632240e+05   3.390360e+05
   2.790412e+05   2.194392e+04
   6.562987e+05  -1.427618e+04
   1.233317e+05   3.077414e+05
  -8.425846e+05   6.512726e+05
  -1.238492e+06   5.110748e+05
  -7.155669e+05  -1.856421e+05
   1.308372e+05  -8.496039e+05
   5.544137e+05  -8.135734e+05
   4.039559e+05  -1.173871e+05
   2.455481e+04   4.945000e+05
  -2.620999e+05   4.100917e+05
  -3.535164e+05  -1.840889e+05
  -2.293987e+05  -5.846554e+05
   8.002662e+04  -4.007136e+05
   3.891535e+05   6.938476e+04
   4.495467e+05   2.789694e+05
   2.333342e+05   8.759238e+04
  -1.052471e+04  -1.331890e+05
  -6.939399e+04  -3.190798e+03
  -3.206290e+04   3.782779e+05
  -1.271641e+05   5.299934e+05
  -3.534359e+05   1.632028e+05
  -4.164977e+05  -4.325845e+05
  -8.921859e+04  -6.656248e+05
   4.330757e+05  -2.898927e+05
   6.387945e+05   3.218034e+05
   2.229816e+05   5.927769e+05
  -5.101977e+05   3.408022e+05
  -8.632766e+05  -1.201206e+05
  -4.564973e+05  -3.943331e+05
   3.107800e+05  -3.691979e+05
   6.428228e+05  -1.801786e+05
   2.308622e+05  -3.281797e+02
  -3.802010e+05   4.365588e+04
  -4.220780e+05  -1.023017e+05
   1.950233e+05  -3.072963e+05
   7.860005e+05  -2.546197e+05
