
 $NMID
 id='ANONYMOUS ', fmtdat='(2E16.6)'
 volume=1.0
 tramp=1.0
 $END
  -4.377097e+07  -3.692863e+05
  -2.651931e+07  -2.595221e+07
   4.933544e+06  -2.905400e+07
   2.085267e+07  -1.255172e+07
   1.320123e+07   4.010661e+06
  -1.894824e+06   7.268257e+06
  -7.757917e+06   1.456548e+04
  -3.006618e+06  -7.378644e+06
   4.191454e+06  -8.128323e+06
   7.559895e+06  -2.294711e+06
   5.767289e+06   4.994803e+06
   7.064741e+05   7.201180e+06
  -3.361080e+06   2.099193e+06
  -2.383506e+06  -4.902939e+06
   2.789773e+06  -5.854464e+06
   6.318917e+06   6.702808e+05
   3.825846e+06   8.052108e+06
  -2.768826e+06   9.489434e+06
  -7.987544e+06   4.675125e+06
  -8.449759e+06  -1.849123e+06
  -4.806580e+06  -5.974396e+06
  -1.967222e+05  -6.381325e+06
   1.940865e+06  -4.210819e+06
   4.828849e+05  -2.202917e+06
  -1.609834e+06  -2.535778e+06
  -1.417378e+04  -4.151709e+06
   5.165496e+06  -3.680631e+06
   8.469074e+06  -2.981529e+04
   5.735066e+06   3.715232e+06
  -3.499355e+05   4.195718e+06
  -3.684244e+06   1.797194e+06
  -2.127050e+06  -6.511085e+05
   1.199198e+06  -1.401388e+06
   2.813488e+06  -3.772624e+05
   2.114978e+06   1.890568e+06
   1.722649e+05   3.820128e+06
  -1.767729e+06   2.996705e+06
  -2.290247e+06  -5.889065e+05
  -8.445719e+05  -2.970008e+06
   7.392830e+05  -9.471415e+05
   2.866300e+04   2.649914e+06
  -2.163745e+06   2.189792e+06
  -2.123724e+06  -2.419418e+06
   1.487268e+06  -4.808076e+06
   4.954345e+06  -8.838172e+05
   3.869580e+06   5.232489e+06
  -1.312737e+06   6.546660e+06
  -5.852859e+06   1.906593e+06
  -5.944371e+06  -3.538027e+06
  -1.927343e+06  -5.049653e+06
   2.815085e+06  -2.577965e+06
   4.696376e+06   9.336641e+05
   2.427100e+06   2.769521e+06
  -1.739891e+06   1.911997e+06
  -3.689440e+06  -5.511419e+05
  -1.721404e+06  -2.071443e+06
   1.329379e+06  -1.131007e+06
   1.612987e+06   7.814512e+05
  -7.390581e+05   9.650856e+05
  -1.999111e+06  -8.731485e+05
  -3.437177e+03  -2.329661e+06
   3.171004e+06  -1.592056e+06
   4.140590e+06   6.919744e+05
   2.003660e+06   2.983987e+06
  -1.581362e+06   4.386934e+06
  -4.510802e+06   4.083056e+06
  -5.356990e+06   1.306310e+06
  -3.692780e+06  -2.859479e+06
  -6.862199e+05  -5.299061e+06
   1.355048e+06  -4.176198e+06
   1.250476e+06  -1.420020e+06
   3.194977e+05  -2.677055e+05
   5.526200e+05  -1.076899e+06
   1.947619e+06  -1.379761e+06
   2.716386e+06   2.302973e+05
   1.744056e+06   2.173903e+06
  -2.449307e+05   2.198374e+06
  -1.746826e+06   1.628504e+05
  -1.706568e+06  -2.107052e+06
   6.680438e+04  -2.784932e+06
   2.582499e+06  -1.350114e+06
   3.846454e+06   1.261395e+06
   2.564429e+06   3.270037e+06
  -1.440383e+05   3.406015e+06
  -1.818964e+06   2.110190e+06
  -1.693771e+06   9.700608e+05
  -1.482112e+06   7.554122e+05
  -2.627038e+06   6.098195e+05
  -3.977939e+06  -5.412683e+05
  -3.264643e+06  -2.449160e+06
  -2.040266e+05  -3.831851e+06
   2.982764e+06  -3.676698e+06
   3.970647e+06  -1.920148e+06
   2.465543e+06   5.484431e+05
   9.203224e+04   2.168245e+06
  -1.167387e+06   1.749713e+06
  -5.147943e+05  -9.633952e+04
   1.062477e+06  -1.211433e+06
   1.732670e+06  -3.660258e+05
   7.802248e+05   1.093606e+06
  -5.323062e+05   1.062884e+06
  -5.195730e+05  -3.233545e+05
   7.823726e+05  -8.267591e+05
   1.696459e+06   7.577111e+05
   9.809032e+05   2.913731e+06
  -9.222255e+05   3.329269e+06
  -2.681415e+06   1.534121e+06
  -3.304053e+06  -9.893756e+05
  -2.471184e+06  -2.574195e+06
  -5.685287e+05  -2.577083e+06
   1.199678e+06  -1.418756e+06
   1.524946e+06  -1.982164e+05
   4.652419e+05   3.719465e+04
  -3.514353e+05  -6.976434e+05
   3.320332e+05  -1.213704e+06
   1.697423e+06  -5.532771e+05
   1.872217e+06   7.306268e+05
   4.164364e+05   1.258068e+06
  -1.068492e+06   5.770016e+05
  -9.091852e+05  -3.978689e+05
   7.285615e+05  -6.072356e+05
   2.134944e+06   1.198234e+05
   1.834101e+06   1.227325e+06
  -1.033433e+05   1.964825e+06
  -2.157785e+06   1.686191e+06
  -2.626122e+06   3.282394e+05
  -1.150795e+06  -1.135777e+06
   8.226668e+05  -1.358270e+06
   1.391739e+06  -1.742908e+05
   1.577136e+05   9.785005e+05
  -1.404381e+06   6.979566e+05
  -1.632313e+06  -6.743007e+05
  -4.096345e+05  -1.535028e+06
   9.482317e+05  -9.991264e+05
   1.199473e+06   1.876643e+05
   3.025307e+05   6.964256e+05
  -7.067675e+05   7.096581e+04
  -6.892366e+05  -9.733466e+05
   5.436113e+05  -1.340094e+06
   1.895793e+06  -5.145685e+05
   1.922140e+06   9.771337e+05
   3.879842e+05   1.939697e+06
  -1.308763e+06   1.564693e+06
  -1.610375e+06   2.484195e+05
  -5.126587e+05  -7.933172e+05
   5.917357e+05  -7.838173e+05
   6.368407e+05  -8.279672e+04
  -6.366556e+04   4.083914e+05
  -5.081135e+05   2.852402e+05
  -2.348995e+05  -6.402443e+04
   3.512146e+05  -2.610107e+04
   5.224318e+05   5.408428e+05
  -1.215917e+05   1.101447e+06
  -1.267978e+06   8.784804e+05
  -1.969078e+06  -3.496678e+05
  -1.406506e+06  -1.810130e+06
   1.693107e+05  -2.306957e+06
   1.508841e+06  -1.413125e+06
   1.647713e+06   4.615953e+04
   9.118041e+05   8.738928e+05
   3.517555e+05   7.305165e+05
   4.009264e+05   2.847699e+05
   5.168614e+05   2.691405e+05
   7.928383e+04   6.723836e+05
  -7.883899e+05   8.753735e+05
  -1.374252e+06   3.721553e+05
  -1.062268e+06  -6.738688e+05
   1.689730e+05  -1.443708e+06
   1.613907e+06  -1.087712e+06
   2.158669e+06   4.074224e+05
   1.139701e+06   1.952313e+06
  -8.623489e+05   2.240383e+06
  -2.339904e+06   1.049379e+06
  -2.254910e+06  -5.211958e+05
  -1.012863e+06  -1.237393e+06
   1.223352e+05  -9.672205e+05
   4.049075e+05  -5.661126e+05
   1.624263e+05  -7.186547e+05
   1.356795e+05  -1.184260e+06
   6.054046e+05  -1.180899e+06
   1.190643e+06  -3.007791e+05
   1.267715e+06   1.011883e+06
   5.464259e+05   1.790730e+06
  -5.773237e+05   1.370847e+06
  -1.221813e+06   2.960032e+04
  -8.004779e+05  -1.172070e+06
   3.034298e+05  -1.315691e+06
   1.032520e+06  -4.486849e+05
   7.591382e+05   5.636239e+05
  -4.859153e+04   9.635841e+05
  -4.203756e+05   7.478878e+05
  -3.994972e+04   4.210382e+05
   4.034720e+05   3.300953e+05
   5.409307e+04   3.701808e+05
  -1.057025e+06   2.214611e+05
  -1.919267e+06  -2.745590e+05
  -1.541594e+06  -9.326458e+05
  -2.533970e+04  -1.317806e+06
   1.436555e+06  -1.079556e+06
   1.705851e+06  -3.197372e+05
   8.046762e+05   3.927021e+05
  -2.187768e+05   5.106324e+05
  -4.641451e+05   6.181006e+04
  -1.151284e+04  -3.647558e+05
   4.367074e+05  -2.431048e+05
   4.540678e+05   3.193283e+05
   2.082535e+05   7.002423e+05
   5.707249e+04   4.615069e+05
   1.294312e+05  -1.226783e+05
   2.887999e+05  -3.232958e+05
   2.719930e+05   2.101196e+05
  -1.391113e+05   9.547823e+05
  -8.358612e+05   1.014608e+06
  -1.241727e+06   1.496816e+05
  -7.706123e+05  -8.634337e+05
   3.829949e+05  -1.045804e+06
   1.164549e+06  -2.926747e+05
   6.993335e+05   5.473516e+05
  -6.442571e+05   6.318611e+05
  -1.523016e+06  -4.180006e+04
  -1.020782e+06  -7.850627e+05
   3.988899e+05  -9.740501e+05
   1.417920e+06  -5.362747e+05
   1.206186e+06   1.271611e+05
   1.577010e+05   4.928248e+05
  -6.050155e+05   2.839138e+05
  -3.542196e+05  -2.629858e+05
   5.697294e+05  -4.884975e+05
   1.126325e+06   8.913731e+04
   6.228726e+05   1.133323e+06
  -5.788368e+05   1.619959e+06
  -1.422315e+06   8.421242e+05
  -1.207491e+06  -7.172962e+05
  -2.156838e+05  -1.713675e+06
   6.841460e+05  -1.264602e+06
   8.878575e+05   1.304671e+05
   4.523222e+05   1.122982e+06
  -1.620920e+05   9.394892e+05
  -5.236537e+05   9.977738e+04
  -4.727698e+05  -3.545288e+05
  -1.832173e+05  -1.322543e+05
  -3.453118e+04   9.748166e+04
  -2.344684e+05  -2.671033e+05
  -4.867362e+05  -9.092979e+05
  -2.275682e+05  -1.026262e+06
   6.425174e+05  -3.869512e+05
   1.419153e+06   4.213397e+05
   1.260311e+06   7.742173e+05
   1.892999e+05   6.575943e+05
  -8.304974e+05   4.147871e+05
  -9.430537e+05   1.989458e+05
  -3.240997e+05  -3.557139e+04
   1.443378e+05  -2.168866e+05
   3.215908e+03  -2.039521e+05
  -2.836126e+05  -9.516894e+04
  -4.041429e+04  -1.300287e+05
   6.578021e+05  -2.309687e+05
   9.973568e+05   3.845465e+03
   3.849976e+05   6.577474e+05
  -8.127855e+05   1.126282e+06
  -1.597783e+06   7.250044e+05
  -1.325623e+06  -4.112092e+05
  -2.748024e+05  -1.344144e+06
   7.069071e+05  -1.314650e+06
   9.967481e+05  -5.130212e+05
   6.354131e+05   2.242478e+05
   1.228802e+05   3.419605e+05
  -8.943612e+04   5.540627e+04
   6.613642e+04  -3.112398e+04
   3.012981e+05   3.370806e+05
   2.570563e+05   7.654202e+05
  -1.664389e+05   6.472842e+05
  -6.598945e+05  -1.184399e+05
  -7.110322e+05  -9.137599e+05
  -1.032232e+05  -9.861228e+05
   7.319789e+05  -2.322472e+05
   9.974268e+05   6.907700e+05
   3.367685e+05   1.036614e+06
  -6.767476e+05   6.444581e+05
  -1.060618e+06  -6.155489e+04
  -5.024861e+05  -5.657323e+05
   2.664514e+05  -6.338846e+05
   3.415405e+05  -3.487896e+05
  -2.551965e+05  -6.772364e+03
  -6.245890e+05   4.634175e+04
  -1.380601e+05  -2.899436e+05
   7.764968e+05  -6.633337e+05
   1.175395e+06  -5.442433e+05
   7.098788e+05   1.485777e+05
  -8.141287e+04   8.249719e+05
  -5.006391e+05   8.150654e+05
  -3.904995e+05   1.447974e+05
  -5.230317e+04  -4.656858e+05
   2.268074e+05  -4.115390e+05
   3.435421e+05   1.487719e+05
   2.499141e+05   5.481297e+05
  -5.093407e+04   3.967437e+05
  -3.751610e+05  -4.258508e+04
  -4.507041e+05  -2.515710e+05
  -2.303012e+05  -7.921407e+04
   2.482626e+04   1.336926e+05
   7.272529e+04   1.705209e+04
  -3.868401e+02  -3.520562e+05
   7.065097e+04  -5.187546e+05
   3.172055e+05  -1.911223e+05
   4.303318e+05   3.763697e+05
   1.367523e+05   6.252744e+05
  -3.934636e+05   3.025615e+05
  -6.327399e+05  -2.673535e+05
  -2.468490e+05  -5.508333e+05
   4.748929e+05  -3.543369e+05
   8.378887e+05   6.560120e+04
   4.599470e+05   3.540079e+05
  -2.767985e+05   3.771906e+05
  -6.065503e+05   2.153524e+05
  -2.291658e+05   1.641568e+04
   3.471096e+05  -6.527452e+04
   4.005801e+05   6.655013e+04
  -1.643445e+05   2.933948e+05
  -7.242669e+05   2.777355e+05
