
 $NMID
 id='ANONYMOUS ', fmtdat='(2E16.6)'
 volume=1.0
 tramp=1.0
 $END
   5.141878e+07  -6.026560e+05
   3.182613e+07   3.036766e+07
  -5.392014e+06   3.457399e+07
  -2.461787e+07   1.489374e+07
  -1.568271e+07  -4.969980e+06
   2.301925e+06  -8.678049e+06
   9.222260e+06   1.545530e+05
   3.442187e+06   8.805771e+06
  -5.090057e+06   9.449629e+06
  -8.928245e+06   2.603305e+06
  -6.750571e+06  -5.742664e+06
  -8.824646e+05  -8.292755e+06
   3.818411e+06  -2.511810e+06
   2.696843e+06   5.542166e+06
  -3.312989e+06   6.709971e+06
  -7.430578e+06  -8.059714e+05
  -4.526349e+06  -9.400574e+06
   3.158695e+06  -1.113277e+07
   9.259912e+06  -5.615978e+06
   9.919052e+06   1.919528e+06
   5.866001e+06   6.821671e+06
   5.279358e+05   7.560540e+06
  -2.227595e+06   5.201046e+06
  -8.528258e+05   2.703066e+06
   1.575061e+06   2.772419e+06
   3.431816e+04   4.555603e+06
  -5.714894e+06   4.210244e+06
  -9.589136e+06   1.931107e+05
  -6.663030e+06  -4.117780e+06
   1.809089e+05  -4.776270e+06
   4.003918e+06  -2.143339e+06
   2.352577e+06   5.321199e+05
  -1.237885e+06   1.347995e+06
  -2.957291e+06   3.547594e+05
  -2.280210e+06  -1.981398e+06
  -2.934300e+05  -4.183342e+06
   1.894382e+06  -3.506649e+06
   2.704246e+06   4.453941e+05
   1.194104e+06   3.356524e+06
  -7.251810e+05   1.289327e+06
  -6.144702e+04  -2.838209e+06
   2.472307e+06  -2.453506e+06
   2.484624e+06   2.852350e+06
  -1.783337e+06   5.728474e+06
  -5.965351e+06   1.177147e+06
  -4.717185e+06  -6.103316e+06
   1.449638e+06  -7.775653e+06
   6.818083e+06  -2.344536e+06
   6.875294e+06   4.086325e+06
   2.159763e+06   5.849831e+06
  -3.286970e+06   2.921026e+06
  -5.380406e+06  -1.169332e+06
  -2.726865e+06  -3.265223e+06
   2.080787e+06  -2.238620e+06
   4.318562e+06   6.494428e+05
   2.006745e+06   2.443743e+06
  -1.551021e+06   1.337503e+06
  -1.830972e+06  -9.283369e+05
   9.788325e+05  -1.111046e+06
   2.416164e+06   1.153901e+06
  -5.291371e+04   2.920647e+06
  -3.848418e+06   1.963717e+06
  -4.928021e+06  -8.461266e+05
  -2.368318e+06  -3.529453e+06
   1.750451e+06  -5.069063e+06
   5.062022e+06  -4.703057e+06
   6.086801e+06  -1.587741e+06
   4.301236e+06   3.170971e+06
   8.622622e+05   6.046329e+06
  -1.602560e+06   4.800658e+06
  -1.547633e+06   1.560810e+06
  -3.748069e+05   1.430699e+05
  -4.854382e+05   1.092865e+06
  -2.031556e+06   1.567659e+06
  -2.968437e+06  -1.528217e+05
  -1.947845e+06  -2.325389e+06
   2.307979e+05  -2.381831e+06
   1.877665e+06  -1.510716e+05
   1.852692e+06   2.340500e+06
  -6.820631e+04   3.105353e+06
  -2.878277e+06   1.561596e+06
  -4.383617e+06  -1.345068e+06
  -3.017643e+06  -3.687040e+06
   7.553223e+04  -3.954292e+06
   2.077656e+06  -2.515499e+06
   1.997768e+06  -1.156258e+06
   1.742008e+06  -8.399261e+05
   3.003247e+06  -6.484866e+05
   4.508099e+06   6.539642e+05
   3.673252e+06   2.796269e+06
   1.996523e+05   4.320161e+06
  -3.366417e+06   4.114078e+06
  -4.436899e+06   2.154702e+06
  -2.753361e+06  -5.773207e+05
  -1.340547e+05  -2.393290e+06
   1.270137e+06  -1.961309e+06
   5.738514e+05   9.076464e+04
  -1.182363e+06   1.356418e+06
  -1.960599e+06   4.150389e+05
  -9.005817e+05  -1.229693e+06
   5.900424e+05  -1.181132e+06
   5.552543e+05   3.907911e+05
  -9.623569e+05   9.050831e+05
  -1.970133e+06  -9.743981e+05
  -1.032006e+06  -3.418257e+06
   1.219921e+06  -3.768067e+06
   3.148281e+06  -1.609575e+06
   3.694208e+06   1.247625e+06
   2.672901e+06   2.943064e+06
   5.740616e+05   2.876122e+06
  -1.346454e+06   1.571885e+06
  -1.698033e+06   2.169295e+05
  -5.222046e+05  -4.517480e+04
   3.894847e+05   7.887939e+05
  -3.866478e+05   1.382297e+06
  -1.935981e+06   6.255938e+05
  -2.124479e+06  -8.508821e+05
  -4.575037e+05  -1.442292e+06
   1.216419e+06  -6.375683e+05
   1.002487e+06   4.677545e+05
  -8.551692e+05   6.542239e+05
  -2.394993e+06  -2.047741e+05
  -2.004695e+06  -1.422589e+06
   1.747090e+05  -2.189579e+06
   2.448214e+06  -1.849629e+06
   2.953195e+06  -3.372618e+05
   1.293800e+06   1.295516e+06
  -9.329906e+05   1.544023e+06
  -1.584905e+06   2.025413e+05
  -1.884903e+05  -1.106359e+06
   1.586186e+06  -7.811767e+05
   1.834185e+06   7.823252e+05
   4.302454e+05   1.742933e+06
  -1.102234e+06   1.105392e+06
  -1.355472e+06  -2.485496e+05
  -3.212970e+05  -8.043988e+05
   8.094298e+05  -7.774038e+04
   7.750743e+05   1.099588e+06
  -6.131861e+05   1.503144e+06
  -2.128447e+06   5.708774e+05
  -2.155124e+06  -1.106418e+06
  -4.239092e+05  -2.186517e+06
   1.490658e+06  -1.753779e+06
   1.820181e+06  -2.606177e+05
   5.643501e+05   9.053402e+05
  -6.792164e+05   8.738873e+05
  -7.045537e+05   8.243835e+04
   9.631913e+04  -4.438080e+05
   5.691455e+05  -2.857609e+05
   2.267926e+05   8.755433e+04
  -4.288438e+05   7.540061e+03
  -5.862279e+05  -6.413508e+05
   1.599476e+05  -1.250668e+06
   1.440944e+06  -9.760740e+05
   2.212092e+06   4.116409e+05
   1.568265e+06   2.045656e+06
  -2.108447e+05   2.585444e+06
  -1.712606e+06   1.557965e+06
  -1.841663e+06  -8.660261e+04
  -9.847550e+05  -9.884195e+05
  -3.607405e+05  -7.922183e+05
  -4.535732e+05  -2.902663e+05
  -6.053887e+05  -3.016286e+05
  -9.529419e+04  -7.685031e+05
   9.023650e+05  -9.767079e+05
   1.549062e+06  -3.917613e+05
   1.168179e+06   7.711791e+05
  -2.237189e+05   1.607336e+06
  -1.827314e+06   1.193157e+06
  -2.415288e+06  -4.838394e+05
  -1.254832e+06  -2.212238e+06
   1.003488e+06  -2.520462e+06
   2.656983e+06  -1.154352e+06
   2.530339e+06   6.280580e+05
   1.101464e+06   1.414331e+06
  -1.727293e+05   1.071142e+06
  -4.556505e+05   6.024782e+05
  -1.579030e+05   7.913666e+05
  -1.372991e+05   1.338228e+06
  -6.864263e+05   1.337505e+06
  -1.345943e+06   3.379884e+05
  -1.418569e+06  -1.141808e+06
  -6.009646e+05  -2.012293e+06
   6.564512e+05  -1.532911e+06
   1.372345e+06  -1.858564e+04
   8.892180e+05   1.334030e+06
  -3.644454e+05   1.484423e+06
  -1.188840e+06   4.883264e+05
  -8.646881e+05  -6.632979e+05
   7.162320e+04  -1.106106e+06
   5.021111e+05  -8.463196e+05
   6.264462e+04  -4.687162e+05
  -4.515650e+05  -3.663709e+05
  -5.930182e+04  -4.122917e+05
   1.197993e+06  -2.417722e+05
   2.166223e+06   3.218291e+05
   1.728077e+06   1.067037e+06
   1.038572e+04   1.498306e+06
  -1.634972e+06   1.214834e+06
  -1.929631e+06   3.386692e+05
  -9.060084e+05  -4.688040e+05
   2.519752e+05  -5.844652e+05
   5.309515e+05  -6.102607e+04
   2.215625e+04   4.172537e+05
  -4.841620e+05   2.692544e+05
  -5.091670e+05  -3.602351e+05
  -2.397606e+05  -7.755167e+05
  -7.285551e+04  -5.099313e+05
  -1.501867e+05   1.262497e+05
  -3.229042e+05   3.426667e+05
  -3.018394e+05  -2.409577e+05
   1.594517e+05  -1.061713e+06
   9.449844e+05  -1.135297e+06
   1.405459e+06  -1.771664e+05
   8.741124e+05   9.648211e+05
  -4.301368e+05   1.183626e+06
  -1.310586e+06   3.384143e+05
  -7.801452e+05  -6.137647e+05
   7.331716e+05  -7.032823e+05
   1.707072e+06   7.046504e+04
   1.122712e+06   9.035944e+05
  -4.758436e+05   1.086058e+06
  -1.602912e+06   5.683139e+05
  -1.345575e+06  -1.701707e+05
  -1.637333e+05  -5.550695e+05
   6.866469e+05  -3.079000e+05
   4.024044e+05   2.995981e+05
  -6.322770e+05   5.466055e+05
  -1.257905e+06  -9.716989e+04
  -6.997186e+05  -1.262831e+06
   6.428765e+05  -1.808957e+06
   1.588121e+06  -9.391066e+05
   1.345839e+06   8.072181e+05
   2.288434e+05   1.917788e+06
  -7.805235e+05   1.404217e+06
  -9.963350e+05  -1.635067e+05
  -4.893715e+05  -1.268510e+06
   2.047542e+05  -1.051489e+06
   5.939861e+05  -1.046285e+05
   5.171061e+05   4.039333e+05
   1.929126e+05   1.520465e+05
   4.488029e+04  -1.080783e+05
   2.781635e+05   2.998337e+05
   5.450028e+05   1.022531e+06
   2.339536e+05   1.156138e+06
  -7.374999e+05   4.339335e+05
  -1.584434e+06  -4.839897e+05
  -1.394835e+06  -8.836333e+05
  -2.068983e+05  -7.413135e+05
   9.233222e+05  -4.538802e+05
   1.056508e+06  -2.098221e+05
   3.742360e+05   4.345413e+04
  -1.589727e+05   2.407597e+05
  -1.978690e+04   2.292611e+05
   3.011277e+05   1.090062e+05
   4.870459e+04   1.424355e+05
  -7.226668e+05   2.514623e+05
  -1.116532e+06  -6.168251e+03
  -4.460190e+05  -7.309710e+05
   9.017189e+05  -1.257101e+06
   1.797180e+06  -8.158015e+05
   1.493255e+06   4.531600e+05
   3.031845e+05   1.502257e+06
  -8.006089e+05   1.474056e+06
  -1.114938e+06   5.769964e+05
  -7.046937e+05  -2.491850e+05
  -1.409430e+05  -3.809142e+05
   8.598593e+04  -6.263333e+04
  -8.283439e+04   2.856011e+04
  -3.319496e+05  -3.862025e+05
  -2.785928e+05  -8.616800e+05
   1.862274e+05  -7.251661e+05
   7.313859e+05   1.296832e+05
   7.936835e+05   1.015344e+06
   1.238778e+05   1.098692e+06
  -8.074406e+05   2.632198e+05
  -1.110909e+06  -7.663095e+05
  -3.794657e+05  -1.158863e+06
   7.544729e+05  -7.254673e+05
   1.191111e+06   6.798043e+04
   5.707509e+05   6.402274e+05
  -2.964987e+05   7.192903e+05
  -3.922869e+05   3.966883e+05
   2.730893e+05   1.094687e+04
   6.959441e+05  -4.865940e+04
   1.578014e+05   3.253414e+05
  -8.739676e+05   7.371952e+05
  -1.332600e+06   6.004504e+05
  -8.092213e+05  -1.723612e+05
   9.222816e+04  -9.269832e+05
   5.715544e+05  -9.195765e+05
   4.440126e+05  -1.735951e+05
   5.915627e+04   5.142461e+05
  -2.508451e+05   4.641290e+05
  -3.779417e+05  -1.594445e+05
  -2.783055e+05  -6.137970e+05
   5.158092e+04  -4.510141e+05
   4.178785e+05   4.524073e+04
   5.104356e+05   2.885667e+05
   2.609548e+05   9.563744e+04
  -3.609579e+04  -1.543893e+05
  -9.031037e+04  -3.451010e+04
   8.153321e+03   3.806264e+05
  -5.727110e+04   5.800176e+05
  -3.402424e+05   2.260597e+05
  -4.859162e+05  -4.050856e+05
  -1.658498e+05  -6.895401e+05
   4.344685e+05  -3.387264e+05
   7.097502e+05   2.924036e+05
   2.763756e+05   6.112364e+05
  -5.353538e+05   3.974964e+05
  -9.408663e+05  -6.987496e+04
  -5.159473e+05  -3.966092e+05
   3.075222e+05  -4.280627e+05
   6.775455e+05  -2.484341e+05
   2.631503e+05  -2.313137e+04
  -3.741073e+05   7.304521e+04
  -4.379216e+05  -6.816957e+04
   1.805295e+05  -3.164493e+05
   7.979255e+05  -2.998605e+05
