
 $NMID
 id='ANONYMOUS ', fmtdat='(2E16.6)'
 volume=1.0
 tramp=1.0
 $END
   5.814298e+07  -6.466842e+05
   3.526571e+07   3.610085e+07
  -7.607293e+06   3.964391e+07
  -2.858260e+07   1.499974e+07
  -1.698793e+07  -7.583261e+06
   3.557807e+06  -9.678662e+06
   1.014735e+07   1.497498e+06
   2.681350e+06   1.015656e+07
  -6.548721e+06   9.424369e+06
  -9.944699e+06   1.900729e+06
  -7.162596e+06  -6.285259e+06
  -8.870070e+05  -8.700237e+06
   4.005815e+06  -2.877234e+06
   2.636467e+06   5.371428e+06
  -3.893393e+06   6.539616e+06
  -8.083118e+06  -1.436836e+06
  -4.553510e+06  -1.046347e+07
   3.858667e+06  -1.211108e+07
   1.033143e+07  -6.163298e+06
   1.115611e+07   1.925326e+06
   7.025678e+06   7.600968e+06
   9.310421e+05   9.031214e+06
  -3.042144e+06   6.461420e+06
  -2.220442e+06   2.793827e+06
   8.831528e+05   1.944065e+06
   3.439603e+05   3.993909e+06
  -5.210439e+06   4.478410e+06
  -9.635004e+06   7.089650e+05
  -7.216920e+06  -4.024571e+06
  -4.929722e+05  -5.122146e+06
   3.538397e+06  -2.743705e+06
   2.469342e+06  -2.605468e+05
  -3.891571e+05   7.309964e+05
  -1.999853e+06   5.048124e+05
  -2.125470e+06  -1.206154e+06
  -8.614389e+05  -3.786591e+06
   1.696711e+06  -3.988996e+06
   3.399815e+06  -1.043488e+05
   1.964643e+06   3.673788e+06
  -7.191762e+05   2.175116e+06
  -4.389160e+05  -2.281310e+06
   2.444566e+06  -2.265806e+06
   2.489163e+06   3.301013e+06
  -2.577016e+06   6.356024e+06
  -7.313765e+06   1.100768e+06
  -5.394965e+06  -7.144976e+06
   1.942297e+06  -8.854504e+06
   7.617109e+06  -2.559076e+06
   7.041482e+06   4.517098e+06
   1.792547e+06   6.110033e+06
  -3.543549e+06   2.678352e+06
  -5.259201e+06  -1.629288e+06
  -2.361005e+06  -3.580505e+06
   2.526811e+06  -2.232446e+06
   4.635944e+06   9.691360e+05
   1.976028e+06   2.812670e+06
  -1.764762e+06   1.411599e+06
  -1.724621e+06  -1.059032e+06
   1.458172e+06  -8.929217e+05
   2.571191e+06   1.945033e+06
  -7.410608e+05   3.687070e+06
  -4.897481e+06   1.991400e+06
  -5.494310e+06  -1.461546e+06
  -2.372549e+06  -4.123509e+06
   1.761548e+06  -5.354685e+06
   4.936932e+06  -4.929974e+06
   6.204656e+06  -1.865720e+06
   4.710490e+06   3.089537e+06
   1.037138e+06   6.206014e+06
  -1.922088e+06   4.803292e+06
  -1.867334e+06   1.135111e+06
  -1.294274e+05  -4.141673e+05
   2.121271e+05   8.919839e+05
  -1.416504e+06   1.849436e+06
  -2.728945e+06   3.944844e+05
  -2.048038e+06  -1.770690e+06
  -1.170722e+05  -2.048296e+06
   1.439157e+06  -2.118508e+05
   1.620210e+06   1.993731e+06
   4.011731e+04   2.883167e+06
  -2.715289e+06   1.710985e+06
  -4.517114e+06  -1.090764e+06
  -3.347408e+06  -3.750992e+06
  -4.060470e+04  -4.338577e+06
   2.313664e+06  -2.840415e+06
   2.319692e+06  -1.177688e+06
   1.886568e+06  -6.536029e+05
   2.952916e+06  -4.383020e+05
   4.339090e+06   7.881002e+05
   3.463102e+06   2.769551e+06
   1.178365e+05   4.098699e+06
  -3.167823e+06   3.866484e+06
  -4.101903e+06   2.136742e+06
  -2.635428e+06  -3.530893e+05
  -3.363855e+05  -2.182275e+06
   1.033924e+06  -1.938039e+06
   5.615603e+05   1.110376e+04
  -1.058834e+06   1.307276e+06
  -1.909150e+06   4.076711e+05
  -9.497126e+05  -1.201537e+06
   4.937673e+05  -1.099773e+06
   3.867640e+05   4.045494e+05
  -1.138926e+06   6.426750e+05
  -1.878159e+06  -1.427610e+06
  -5.310377e+05  -3.593737e+06
   1.775553e+06  -3.360048e+06
   3.221921e+06  -9.453209e+05
   3.223593e+06   1.562502e+06
   2.139458e+06   2.748634e+06
   3.990406e+05   2.545400e+06
  -1.215573e+06   1.438824e+06
  -1.549088e+06   2.357472e+05
  -4.891972e+05  -4.654610e+04
   3.527682e+05   7.510291e+05
  -4.284460e+05   1.355399e+06
  -1.933978e+06   5.803330e+05
  -2.044836e+06  -9.183420e+05
  -3.670350e+05  -1.440764e+06
   1.180310e+06  -5.558405e+05
   8.560504e+05   4.668310e+05
  -8.774636e+05   4.717731e+05
  -2.140074e+06  -3.941018e+05
  -1.656293e+06  -1.373157e+06
   3.031825e+05  -1.917332e+06
   2.302497e+06  -1.594699e+06
   2.753818e+06  -2.474140e+05
   1.213868e+06   1.280372e+06
  -9.272317e+05   1.522939e+06
  -1.585555e+06   1.976334e+05
  -2.185342e+05  -1.091203e+06
   1.518752e+06  -7.368280e+05
   1.708457e+06   8.028515e+05
   2.979549e+05   1.657370e+06
  -1.125105e+06   9.405982e+05
  -1.248932e+06  -3.585801e+05
  -2.138748e+05  -7.991149e+05
   8.148359e+05  -4.884464e+04
   7.402614e+05   1.056324e+06
  -5.683068e+05   1.422072e+06
  -1.996762e+06   5.463815e+05
  -2.030505e+06  -1.045188e+06
  -3.769567e+05  -2.074336e+06
   1.453976e+06  -1.634635e+06
   1.729091e+06  -1.898424e+05
   4.839201e+05   8.781621e+05
  -6.694649e+05   7.899349e+05
  -6.117689e+05   7.168608e+04
   1.426350e+05  -3.271595e+05
   4.691626e+05  -1.643705e+05
   6.355160e+04   6.677796e+04
  -4.839159e+05  -1.220687e+05
  -5.024044e+05  -7.143955e+05
   2.386269e+05  -1.193024e+06
   1.392561e+06  -8.792602e+05
   2.072432e+06   4.264831e+05
   1.453770e+06   1.942683e+06
  -2.254252e+05   2.400468e+06
  -1.612464e+06   1.371189e+06
  -1.656754e+06  -1.581602e+05
  -8.039809e+05  -8.777667e+05
  -2.888962e+05  -5.912027e+05
  -4.983680e+05  -1.767310e+05
  -6.629149e+05  -3.212423e+05
  -9.723392e+04  -7.845544e+05
   8.893541e+05  -8.871248e+05
   1.437580e+06  -2.936705e+05
   1.009876e+06   7.209957e+05
  -2.802455e+05   1.420593e+06
  -1.717301e+06   1.034084e+06
  -2.220575e+06  -4.995351e+05
  -1.099871e+06  -2.103068e+06
   1.044072e+06  -2.355873e+06
   2.559497e+06  -9.968395e+05
   2.325146e+06   7.016167e+05
   8.987697e+05   1.344914e+06
  -2.408805e+05   9.044269e+05
  -3.676882e+05   4.645090e+05
  -2.910585e+04   7.442696e+05
  -7.681297e+04   1.326099e+06
  -6.755598e+05   1.304082e+06
  -1.302150e+06   3.233022e+05
  -1.333879e+06  -1.073356e+06
  -5.519622e+05  -1.882239e+06
   6.176036e+05  -1.426100e+06
   1.275719e+06   1.368347e+04
   7.964571e+05   1.295612e+06
  -4.177205e+05   1.393292e+06
  -1.191278e+06   3.740879e+05
  -8.150490e+05  -7.413089e+05
   1.536662e+05  -1.099773e+06
   5.772110e+05  -7.767597e+05
   1.051580e+05  -3.995980e+05
  -4.360952e+05  -3.245778e+05
  -6.301135e+04  -3.765910e+05
   1.157733e+06  -2.022268e+05
   2.071516e+06   3.417680e+05
   1.607349e+06   1.049668e+06
  -6.420882e+04   1.449962e+06
  -1.612074e+06   1.143017e+06
  -1.835747e+06   2.534829e+05
  -8.232519e+05  -5.298534e+05
   2.723079e+05  -5.833671e+05
   5.203531e+05  -1.929303e+04
   4.369146e+04   4.381067e+05
  -4.281809e+05   2.610041e+05
  -4.826456e+05  -3.390952e+05
  -2.772484e+05  -7.071338e+05
  -1.203608e+05  -4.708047e+05
  -1.363637e+05   7.456447e+04
  -2.604093e+05   2.634596e+05
  -2.683569e+05  -2.353611e+05
   1.294870e+05  -9.687117e+05
   8.956466e+05  -1.064159e+06
   1.384381e+06  -1.966423e+05
   8.797854e+05   9.036765e+05
  -4.093364e+05   1.159283e+06
  -1.266061e+06   3.658907e+05
  -7.326389e+05  -5.595531e+05
   7.072437e+05  -6.385147e+05
   1.567153e+06   1.169030e+05
   9.584849e+05   8.732413e+05
  -5.162882e+05   9.603146e+05
  -1.487352e+06   4.278287e+05
  -1.199325e+06  -2.189999e+05
  -1.150354e+05  -5.056816e+05
   6.515728e+05  -2.514971e+05
   3.932678e+05   3.014802e+05
  -5.639022e+05   5.338017e+05
  -1.176635e+06  -5.322801e+04
  -6.992051e+05  -1.156169e+06
   5.434163e+05  -1.703468e+06
   1.451796e+06  -9.066421e+05
   1.250615e+06   7.352053e+05
   2.100054e+05   1.770053e+06
  -7.339645e+05   1.267239e+06
  -9.142284e+05  -1.974902e+05
  -4.054241e+05  -1.188114e+06
   2.500026e+05  -9.470822e+05
   5.685033e+05  -7.138579e+04
   4.391290e+05   3.707710e+05
   1.355975e+05   1.301447e+05
   5.894735e+04  -8.741888e+04
   3.177104e+05   3.073377e+05
   5.227177e+05   9.645926e+05
   1.584691e+05   1.066682e+06
  -7.461452e+05   3.904475e+05
  -1.459038e+06  -4.575266e+05
  -1.240853e+06  -8.301486e+05
  -1.819366e+05  -6.998545e+05
   8.172528e+05  -4.199757e+05
   9.664780e+05  -1.722085e+05
   3.836588e+05   6.668296e+04
  -1.320349e+05   2.268535e+05
  -7.016176e+04   1.892461e+05
   2.251250e+05   7.514077e+04
   6.554610e+04   1.285529e+05
  -6.143710e+05   2.507279e+05
  -1.044307e+06   9.014834e+03
  -4.924445e+05  -6.867738e+05
   7.879529e+05  -1.198891e+06
   1.706877e+06  -7.980229e+05
   1.453813e+06   3.896844e+05
   3.025185e+05   1.387404e+06
  -7.586304e+05   1.389218e+06
  -1.037129e+06   5.730031e+05
  -6.469544e+05  -2.022582e+05
  -1.541336e+05  -3.545031e+05
   3.321767e+04  -8.812786e+04
  -9.525884e+04  -8.741404e+03
  -2.846591e+05  -3.760399e+05
  -2.380756e+05  -8.025461e+05
   1.616497e+05  -6.857946e+05
   6.692041e+05   8.471740e+04
   7.699546e+05   9.078942e+05
   1.745651e+05   1.026006e+06
  -7.182108e+05   2.949668e+05
  -1.050538e+06  -6.641047e+05
  -3.891916e+05  -1.079270e+06
   6.910051e+05  -7.141511e+05
   1.133238e+06   4.504222e+04
   5.625837e+05   6.280977e+05
  -2.762993e+05   7.161384e+05
  -4.052363e+05   3.822720e+05
   2.081446e+05  -6.633998e+03
   6.352930e+05  -5.396675e+04
   1.637425e+05   3.107659e+05
  -8.119667e+05   6.816113e+05
  -1.279124e+06   5.284962e+05
  -8.002801e+05  -1.930808e+05
   7.886544e+04  -8.810822e+05
   5.690761e+05  -8.773393e+05
   4.573161e+05  -1.973514e+05
   8.019353e+04   4.587796e+05
  -2.225753e+05   4.573100e+05
  -3.483306e+05  -1.065168e+05
  -2.675115e+05  -5.685794e+05
   3.413948e+04  -4.571131e+05
   3.903044e+05   2.251949e+04
   4.914737e+05   2.950557e+05
   2.445193e+05   1.138422e+05
  -5.600657e+04  -1.751431e+05
  -8.710736e+04  -9.860018e+04
   6.535872e+04   3.257942e+05
   3.176007e+04   5.826910e+05
  -2.871784e+05   2.862672e+05
  -5.072361e+05  -3.239639e+05
  -2.305123e+05  -6.321069e+05
   3.811478e+05  -3.370609e+05
   6.888046e+05   2.403991e+05
   2.808501e+05   5.502252e+05
  -5.087968e+05   3.790736e+05
  -9.002377e+05  -4.103577e+04
  -4.945636e+05  -3.652812e+05
   2.831187e+05  -4.312130e+05
   6.394507e+05  -2.733153e+05
   2.773134e+05  -3.064220e+04
  -3.009744e+05   1.019235e+05
  -3.884258e+05  -1.519865e+04
   1.299050e+05  -2.663535e+05
   6.796170e+05  -2.828742e+05
