
 $NMID
 id='ANONYMOUS ', fmtdat='(2E16.6)'
 volume=1.0
 tramp=1.0
 $END
   3.747749e+07  -6.178835e+05
   2.412006e+07   2.071585e+07
  -2.529216e+06   2.498406e+07
  -1.755886e+07   1.252177e+07
  -1.232639e+07  -2.095777e+06
   9.031714e+05  -6.577091e+06
   7.141805e+06  -9.430434e+05
   3.542738e+06   6.422584e+06
  -3.223634e+06   8.037590e+06
  -6.772622e+06   2.744709e+06
  -5.285962e+06  -4.404120e+06
  -6.565091e+05  -6.605400e+06
   3.024914e+06  -1.764388e+06
   2.187469e+06   4.818686e+06
  -2.426780e+06   5.770586e+06
  -5.751264e+06  -1.859836e+05
  -3.759122e+06  -7.052431e+06
   2.104715e+06  -8.547884e+06
   6.869180e+06  -4.249397e+06
   7.245187e+06   1.577238e+06
   3.959191e+06   4.988431e+06
   2.044570e+05   5.069086e+06
  -1.101928e+06   3.400393e+06
   3.661826e+05   2.362971e+06
   1.713721e+06   3.107600e+06
  -3.736649e+05   4.214124e+06
  -5.207523e+06   3.135561e+06
  -7.897454e+06  -4.022857e+05
  -5.034403e+06  -3.541061e+06
   7.253825e+05  -3.609134e+06
   3.670098e+06  -1.172546e+06
   1.748435e+06   1.108049e+06
  -1.830704e+06   1.484583e+06
  -3.227883e+06  -9.135495e+03
  -1.884723e+06  -2.339272e+06
   3.396335e+05  -3.734737e+06
   1.727686e+06  -2.476065e+06
   1.606806e+06   7.616032e+05
   3.638849e+05   2.453910e+06
  -5.040489e+05   3.465050e+05
   3.788313e+05  -2.767189e+06
   2.151123e+06  -2.156795e+06
   2.088667e+06   2.056768e+06
  -8.468574e+05   4.359573e+06
  -3.917222e+06   1.143452e+06
  -3.442160e+06  -4.228905e+06
   7.785231e+05  -5.665238e+06
   5.050370e+06  -1.790761e+06
   5.602188e+06   3.146397e+06
   2.045255e+06   4.758719e+06
  -2.617466e+06   2.619325e+06
  -4.636825e+06  -7.064807e+05
  -2.564376e+06  -2.566211e+06
   1.414282e+06  -1.904266e+06
   3.383991e+06   3.074233e+05
   1.712706e+06   1.778592e+06
  -1.133637e+06   1.062641e+06
  -1.618299e+06  -7.141622e+05
   4.789387e+05  -1.157651e+06
   1.986813e+06   3.393726e+05
   5.761474e+05   1.916202e+06
  -2.390122e+06   1.706581e+06
  -3.729085e+06  -2.047717e+05
  -2.002418e+06  -2.501387e+06
   1.490407e+06  -3.972752e+06
   4.366837e+06  -3.643248e+06
   4.969397e+06  -1.020964e+06
   3.196505e+06   2.721589e+06
   5.048459e+05   4.905473e+06
  -1.154895e+06   4.024298e+06
  -1.118141e+06   1.667358e+06
  -5.922227e+05   5.287153e+05
  -1.014874e+06   9.678627e+05
  -2.178184e+06   9.614480e+05
  -2.591699e+06  -6.514354e+05
  -1.428924e+06  -2.407252e+06
   5.603882e+05  -2.205447e+06
   1.917029e+06   1.581341e+04
   1.648343e+06   2.297814e+06
  -2.260282e+05   2.755801e+06
  -2.538210e+06   1.113471e+06
  -3.492985e+06  -1.378979e+06
  -2.202068e+06  -3.025852e+06
   1.646919e+05  -2.970868e+06
   1.535688e+06  -1.836883e+06
   1.421137e+06  -9.620115e+05
   1.376328e+06  -8.452830e+05
   2.587587e+06  -6.574574e+05
   3.908394e+06   5.317495e+05
   3.188209e+06   2.443121e+06
   1.333983e+05   3.800213e+06
  -3.070566e+06   3.553278e+06
  -4.011141e+06   1.695118e+06
  -2.352690e+06  -7.242674e+05
   1.200725e+05  -2.142084e+06
   1.286417e+06  -1.601774e+06
   4.765132e+05   1.518824e+05
  -1.115908e+06   1.136090e+06
  -1.686581e+06   3.137150e+05
  -6.883737e+05  -1.057110e+06
   6.018717e+05  -1.028872e+06
   5.966003e+05   3.485298e+05
  -7.123799e+05   9.789775e+05
  -1.769321e+06  -4.899335e+05
  -1.238809e+06  -2.798952e+06
   6.861197e+05  -3.536076e+06
   2.688557e+06  -1.842575e+06
   3.489602e+06   9.118095e+05
   2.588474e+06   2.732402e+06
   5.282690e+05   2.702507e+06
  -1.273474e+06   1.379604e+06
  -1.538526e+06   1.174016e+05
  -4.619175e+05  -4.971582e+04
   3.372182e+05   7.006499e+05
  -3.145736e+05   1.175983e+06
  -1.634437e+06   5.282127e+05
  -1.834600e+06  -7.010237e+05
  -4.321040e+05  -1.226246e+06
   1.067196e+06  -5.746464e+05
   9.488731e+05   4.282007e+05
  -7.317373e+05   6.844788e+05
  -2.229671e+06  -9.097125e+04
  -1.926489e+06  -1.308690e+06
   1.149649e+05  -2.064027e+06
   2.227185e+06  -1.691131e+06
   2.644730e+06  -2.790356e+05
   1.121901e+06   1.125821e+06
  -8.111837e+05   1.290442e+06
  -1.326592e+06   1.478099e+05
  -1.133153e+05  -9.349196e+05
   1.397655e+06  -6.535275e+05
   1.623738e+06   6.835333e+05
   4.264126e+05   1.550309e+06
  -9.431014e+05   1.042268e+06
  -1.230150e+06  -1.553072e+05
  -3.419101e+05  -6.969782e+05
   6.771212e+05  -7.710781e+04
   6.525034e+05   9.698393e+05
  -5.827824e+05   1.304679e+06
  -1.895602e+06   4.445887e+05
  -1.873783e+06  -1.024604e+06
  -3.414518e+05  -1.929387e+06
   1.318782e+06  -1.531621e+06
   1.607446e+06  -2.327335e+05
   5.178683e+05   7.987414e+05
  -6.011554e+05   7.856878e+05
  -6.666884e+05   5.286602e+04
   6.625036e+04  -4.707796e+05
   5.781037e+05  -3.142374e+05
   3.177253e+05   1.167307e+05
  -3.315395e+05   1.128696e+05
  -5.575993e+05  -4.967623e+05
   9.722046e+04  -1.099049e+06
   1.270654e+06  -8.637013e+05
   1.955042e+06   3.859582e+05
   1.354912e+06   1.831606e+06
  -2.313579e+05   2.306436e+06
  -1.561989e+06   1.410260e+06
  -1.695793e+06  -6.998989e+04
  -9.365345e+05  -9.562437e+05
  -3.174266e+05  -8.400826e+05
  -3.210285e+05  -3.346758e+05
  -4.566637e+05  -2.365607e+05
  -6.844210e+04  -6.290497e+05
   7.913328e+05  -8.715041e+05
   1.402840e+06  -3.664310e+05
   1.083713e+06   7.248101e+05
  -1.926408e+05   1.497141e+06
  -1.655337e+06   1.080441e+06
  -2.168173e+06  -4.566236e+05
  -1.122793e+06  -1.976743e+06
   8.675461e+05  -2.227394e+06
   2.337362e+06  -1.035681e+06
   2.279096e+06   5.338191e+05
   1.051471e+06   1.283409e+06
  -1.298461e+05   1.036410e+06
  -4.810435e+05   5.947654e+05
  -2.554158e+05   6.773538e+05
  -1.862935e+05   1.115626e+06
  -6.073902e+05   1.130996e+06
  -1.166161e+06   2.666552e+05
  -1.224821e+06  -1.042804e+06
  -4.910479e+05  -1.801352e+06
   6.188021e+05  -1.350104e+06
   1.228788e+06  -6.295856e+03
   7.911182e+05   1.171817e+06
  -2.972545e+05   1.314886e+06
  -1.014444e+06   4.821954e+05
  -7.630492e+05  -5.108096e+05
   1.118859e+04  -9.390846e+05
   3.813251e+05  -7.660300e+05
   3.526028e+04  -4.525441e+05
  -3.774136e+05  -3.487542e+05
  -3.485725e+04  -3.731873e+05
   1.041689e+06  -2.094184e+05
   1.882262e+06   2.995702e+05
   1.520996e+06   9.488535e+05
   3.910377e+04   1.300765e+06
  -1.412204e+06   1.043507e+06
  -1.704269e+06   3.080753e+05
  -8.250327e+05  -3.678867e+05
   2.028985e+05  -4.876592e+05
   4.586696e+05  -7.505336e+04
  -2.423114e+03   3.281808e+05
  -4.547418e+05   2.153817e+05
  -4.375274e+05  -3.295380e+05
  -1.474265e+05  -7.006403e+05
  -8.508531e+03  -4.513332e+05
  -1.460012e+05   1.428950e+05
  -3.370100e+05   3.361630e+05
  -2.745205e+05  -2.148362e+05
   1.872223e+05  -9.542853e+05
   8.562603e+05  -9.833207e+05
   1.189549e+06  -1.075283e+05
   7.008940e+05   8.671603e+05
  -3.975142e+05   9.976575e+05
  -1.130726e+06   2.332839e+05
  -6.719511e+05  -5.751616e+05
   6.532126e+05  -6.241729e+05
   1.543640e+06   6.816604e+04
   1.051617e+06   8.201292e+05
  -3.995115e+05   1.006823e+06
  -1.460753e+06   5.464358e+05
  -1.246077e+06  -1.446723e+05
  -1.603054e+05  -5.129853e+05
   6.145758e+05  -2.869930e+05
   3.389597e+05   2.560209e+05
  -5.933678e+05   4.467093e+05
  -1.107619e+06  -1.481105e+05
  -5.490231e+05  -1.151149e+06
   6.606947e+05  -1.570338e+06
   1.455060e+06  -7.651677e+05
   1.177063e+06   7.668864e+05
   1.547250e+05   1.726380e+06
  -7.309856e+05   1.263908e+06
  -9.005050e+05  -1.363049e+05
  -4.451068e+05  -1.143662e+06
   1.656793e+05  -9.657761e+05
   5.228381e+05  -1.014975e+05
   4.837260e+05   3.834636e+05
   2.019976e+05   1.561634e+05
   3.079954e+04  -1.083561e+05
   1.965067e+05   2.424557e+05
   4.485127e+05   9.119511e+05
   2.254219e+05   1.052192e+06
  -6.214782e+05   3.873483e+05
  -1.412456e+06  -4.683536e+05
  -1.267308e+06  -8.250504e+05
  -1.753523e+05  -6.590265e+05
   8.685237e+05  -3.762195e+05
   9.634294e+05  -1.759971e+05
   3.073493e+05   2.171056e+04
  -1.603491e+05   2.057048e+05
   1.489501e+04   2.309384e+05
   3.063168e+05   1.343303e+05
   2.279514e+04   1.283355e+05
  -6.948621e+05   1.832264e+05
  -9.879213e+05  -4.533105e+04
  -3.166294e+05  -6.457155e+05
   8.727601e+05  -1.065359e+06
   1.587998e+06  -6.540466e+05
   1.261472e+06   4.584517e+05
   2.133263e+05   1.351416e+06
  -7.372756e+05   1.280237e+06
  -1.002843e+06   4.560171e+05
  -6.240874e+05  -2.653719e+05
  -9.717575e+04  -3.394619e+05
   1.117565e+05  -2.239518e+04
  -6.499720e+04   5.472149e+04
  -3.079739e+05  -3.425963e+05
  -2.433921e+05  -7.773277e+05
   1.923416e+05  -6.305871e+05
   6.521305e+05   1.651926e+05
   6.499348e+05   9.502071e+05
   3.445420e+04   9.701255e+05
  -7.455157e+05   1.681113e+05
  -9.489149e+05  -7.484721e+05
  -2.790365e+05  -1.035905e+06
   6.938448e+05  -5.934243e+05
   1.036328e+06   1.022230e+05
   4.712467e+05   5.539529e+05
  -2.752317e+05   5.951569e+05
  -3.250056e+05   3.386725e+05
   2.777776e+05   3.733242e+04
   6.298439e+05  -1.658354e+04
   1.196579e+05   2.847933e+05
  -7.991610e+05   6.375706e+05
  -1.175233e+06   5.310186e+05
  -6.828589e+05  -1.407311e+05
   1.088961e+05  -8.073011e+05
   4.992837e+05  -7.923983e+05
   3.587354e+05  -1.207022e+05
   1.608830e+04   4.718695e+05
  -2.403738e+05   3.846940e+05
  -3.290245e+05  -1.862474e+05
  -2.248064e+05  -5.547168e+05
   6.321355e+04  -3.679371e+05
   3.669772e+05   6.674012e+04
   4.378220e+05   2.461577e+05
   2.323115e+05   7.146007e+04
  -1.467834e+04  -1.095363e+05
  -8.698452e+04   2.142117e+04
  -5.370339e+04   3.537198e+05
  -1.286388e+05   4.675871e+05
  -3.214812e+05   1.265304e+05
  -3.697585e+05  -4.081724e+05
  -6.667611e+04  -6.148550e+05
   4.112453e+05  -2.693359e+05
   5.969260e+05   3.002106e+05
   2.084862e+05   5.630979e+05
  -4.770635e+05   3.344426e+05
  -8.126268e+05  -1.022111e+05
  -4.370920e+05  -3.674644e+05
   2.825145e+05  -3.462324e+05
   5.963673e+05  -1.709615e+05
   2.072648e+05  -1.124087e+04
  -3.684069e+05   2.083026e+04
  -3.966594e+05  -1.140516e+05
   2.041051e+05  -2.944298e+05
   7.690230e+05  -2.340884e+05
