
 $NMID
 id='ANONYMOUS ', fmtdat='(2E16.6)'
 volume=1.0
 tramp=1.0
 $END
   5.328942e+07   1.005687e+06
   3.160769e+07   3.351149e+07
  -7.567578e+06   3.599859e+07
  -2.644415e+07   1.357995e+07
  -1.568152e+07  -6.824504e+06
   3.220817e+06  -8.878897e+06
   9.408106e+06   1.211196e+06
   2.595502e+06   9.363168e+06
  -6.040025e+06   8.912775e+06
  -9.260840e+06   1.810267e+06
  -6.550208e+06  -6.055416e+06
  -5.842992e+05  -8.244949e+06
   3.869513e+06  -2.515802e+06
   2.391253e+06   5.303658e+06
  -3.729596e+06   6.236702e+06
  -7.488719e+06  -1.382009e+06
  -4.052117e+06  -9.790778e+06
   3.812274e+06  -1.114815e+07
   9.702215e+06  -5.397662e+06
   1.017907e+07   2.175144e+06
   6.086389e+06   7.194218e+06
   5.011947e+05   8.137833e+06
  -2.787912e+06   5.667734e+06
  -1.726766e+06   2.624471e+06
   9.978472e+05   2.215734e+06
   6.908714e+04   4.029051e+06
  -5.308344e+06   4.012373e+06
  -9.228991e+06   1.905600e+05
  -6.599050e+06  -4.106158e+06
  -8.499221e+04  -4.792205e+06
   3.632071e+06  -2.298923e+06
   2.312809e+06   1.088624e+05
  -7.269847e+05   8.857842e+05
  -2.279225e+06   3.271361e+05
  -2.021410e+06  -1.526297e+06
  -4.678547e+05  -3.792812e+06
   1.823277e+06  -3.584407e+06
   2.995719e+06   1.944343e+05
   1.498047e+06   3.447451e+06
  -7.279029e+05   1.738558e+06
  -1.885896e+05  -2.390514e+06
   2.434707e+06  -2.157297e+06
   2.299954e+06   3.085012e+06
  -2.354269e+06   5.813491e+06
  -6.553188e+06   9.026768e+05
  -4.737175e+06  -6.608734e+06
   1.917836e+06  -8.043013e+06
   7.077445e+06  -2.160798e+06
   6.558153e+06   4.386763e+06
   1.666125e+06   5.832096e+06
  -3.399987e+06   2.557629e+06
  -5.055838e+06  -1.565335e+06
  -2.298497e+06  -3.417765e+06
   2.333264e+06  -2.094578e+06
   4.318994e+06   9.435836e+05
   1.838974e+06   2.635674e+06
  -1.655418e+06   1.288175e+06
  -1.669951e+06  -1.028410e+06
   1.256222e+06  -9.167420e+05
   2.382301e+06   1.647278e+06
  -5.378685e+05   3.259934e+06
  -4.369544e+06   1.784289e+06
  -5.036694e+06  -1.333344e+06
  -2.160600e+06  -3.812966e+06
   1.852843e+06  -4.966004e+06
   4.933757e+06  -4.468578e+06
   5.953709e+06  -1.483861e+06
   4.259260e+06   3.131423e+06
   7.317202e+05   5.921676e+06
  -1.887479e+06   4.557800e+06
  -1.735877e+06   1.194042e+06
  -2.283241e+05  -2.154917e+05
  -8.574331e+04   9.005246e+05
  -1.624176e+06   1.600020e+06
  -2.692458e+06   8.526189e+04
  -1.852448e+06  -1.961321e+06
   9.003455e+04  -2.081189e+06
   1.547291e+06  -1.237983e+05
   1.566800e+06   2.098508e+06
  -1.000785e+05   2.846413e+06
  -2.713923e+06   1.494630e+06
  -4.237679e+06  -1.281242e+06
  -2.966889e+06  -3.671722e+06
   1.337703e+05  -4.015803e+06
   2.214524e+06  -2.533917e+06
   2.144445e+06  -1.052793e+06
   1.782751e+06  -6.358839e+05
   2.867561e+06  -3.984155e+05
   4.195682e+06   8.540211e+05
   3.302533e+06   2.784742e+06
   2.359733e+03   4.014777e+06
  -3.241456e+06   3.683853e+06
  -4.124434e+06   1.908507e+06
  -2.552731e+06  -5.092439e+05
  -1.721905e+05  -2.173482e+06
   1.143485e+06  -1.828312e+06
   5.448639e+05   5.593858e+04
  -1.101550e+06   1.235916e+06
  -1.865177e+06   3.353540e+05
  -8.573138e+05  -1.191784e+06
   5.462361e+05  -1.072070e+06
   4.243957e+05   3.959049e+05
  -1.051642e+06   6.844724e+05
  -1.801664e+06  -1.260035e+06
  -5.831833e+05  -3.413381e+06
   1.620805e+06  -3.334749e+06
   3.115672e+06  -1.048215e+06
   3.222991e+06   1.507139e+06
   2.149561e+06   2.797818e+06
   3.512042e+05   2.580419e+06
  -1.266210e+06   1.382139e+06
  -1.548591e+06   1.622144e+05
  -4.806109e+05  -6.239791e+04
   3.278150e+05   7.450528e+05
  -4.365559e+05   1.297266e+06
  -1.873747e+06   5.140251e+05
  -1.965959e+06  -9.207066e+05
  -3.450723e+05  -1.397618e+06
   1.161583e+06  -5.293515e+05
   8.611736e+05   4.741950e+05
  -8.486475e+05   4.889853e+05
  -2.133573e+06  -3.850034e+05
  -1.667759e+06  -1.397442e+06
   3.137142e+05  -1.930846e+06
   2.319894e+06  -1.542444e+06
   2.725106e+06  -1.741468e+05
   1.153356e+06   1.276203e+06
  -9.400877e+05   1.440074e+06
  -1.528376e+06   1.421716e+05
  -1.660645e+05  -1.057983e+06
   1.504482e+06  -6.737418e+05
   1.660321e+06   8.197240e+05
   2.806616e+05   1.635614e+06
  -1.105125e+06   9.306507e+05
  -1.231287e+06  -3.434547e+05
  -2.241321e+05  -7.779841e+05
   7.763993e+05  -3.502794e+04
   6.853335e+05   1.047493e+06
  -6.069434e+05   1.368215e+06
  -1.976353e+06   4.623970e+05
  -1.953825e+06  -1.093096e+06
  -3.078010e+05  -2.042561e+06
   1.464296e+06  -1.563112e+06
   1.702244e+06  -1.495808e+05
   4.682919e+05   8.716507e+05
  -6.715458e+05   7.696635e+05
  -6.251002e+05   5.350349e+04
   1.295427e+05  -3.515324e+05
   4.917377e+05  -1.845935e+05
   1.172361e+05   7.603608e+04
  -4.412271e+05  -8.605595e+04
  -4.876897e+05  -6.768483e+05
   2.424102e+05  -1.156292e+06
   1.382993e+06  -8.280752e+05
   2.021214e+06   4.761815e+05
   1.366231e+06   1.949948e+06
  -2.964326e+05   2.361558e+06
  -1.634312e+06   1.327602e+06
  -1.654534e+06  -1.862734e+05
  -8.056896e+05  -9.176684e+05
  -2.767377e+05  -6.566200e+05
  -4.490709e+05  -2.284665e+05
  -6.003692e+05  -3.204825e+05
  -6.355167e+04  -7.470351e+05
   8.905114e+05  -8.497488e+05
   1.429405e+06  -2.625401e+05
   9.967479e+05   7.494703e+05
  -3.027096e+05   1.420621e+06
  -1.724019e+06   9.860731e+05
  -2.181148e+06  -5.530748e+05
  -1.038039e+06  -2.094515e+06
   1.065967e+06  -2.283188e+06
   2.524291e+06  -9.264595e+05
   2.283496e+06   7.267237e+05
   8.917798e+05   1.350278e+06
  -2.395108e+05   9.237735e+05
  -4.055950e+05   4.821855e+05
  -1.037887e+05   7.252840e+05
  -1.416208e+05   1.269741e+06
  -6.954569e+05   1.238401e+06
  -1.274218e+06   2.703940e+05
  -1.271150e+06  -1.100394e+06
  -4.806405e+05  -1.870946e+06
   6.562858e+05  -1.384372e+06
   1.258286e+06   4.516824e+04
   7.536148e+05   1.283113e+06
  -4.280648e+05   1.355861e+06
  -1.154222e+06   3.626503e+05
  -7.759280e+05  -7.073430e+05
   1.521811e+05  -1.051309e+06
   5.503176e+05  -7.526650e+05
   9.915543e+04  -4.074860e+05
  -4.099563e+05  -3.429018e+05
  -4.371274e+04  -3.760719e+05
   1.130810e+06  -1.672039e+05
   2.005773e+06   3.928909e+05
   1.547856e+06   1.068034e+06
  -8.163370e+04   1.404531e+06
  -1.590444e+06   1.065989e+06
  -1.803702e+06   2.118740e+05
  -8.040942e+05  -5.122662e+05
   2.724231e+05  -5.493309e+05
   5.034741e+05  -1.647163e+04
   1.745227e+04   4.119363e+05
  -4.423502e+05   2.361463e+05
  -4.599229e+05  -3.509897e+05
  -2.232740e+05  -7.124677e+05
  -7.890339e+04  -4.688882e+05
  -1.401564e+05   8.591068e+04
  -2.839028e+05   2.717051e+05
  -2.591959e+05  -2.370787e+05
   1.728106e+05  -9.559320e+05
   9.131848e+05  -1.011624e+06
   1.336047e+06  -1.316153e+05
   8.052165e+05   9.177055e+05
  -4.399438e+05   1.102598e+06
  -1.239755e+06   2.935570e+05
  -6.984855e+05  -5.834505e+05
   7.106835e+05  -6.111903e+05
   1.551575e+06   1.515247e+05
   9.504758e+05   8.847883e+05
  -5.145981e+05   9.513071e+05
  -1.486544e+06   4.103441e+05
  -1.198289e+06  -2.350264e+05
  -1.107780e+05  -5.082966e+05
   6.466319e+05  -2.401499e+05
   3.694706e+05   3.003799e+05
  -5.842771e+05   4.940541e+05
  -1.153817e+06  -1.104998e+05
  -6.261317e+05  -1.171595e+06
   6.206969e+05  -1.649459e+06
   1.474928e+06  -8.261368e+05
   1.206680e+06   7.776827e+05
   1.431696e+05   1.759333e+06
  -7.676956e+05   1.239685e+06
  -9.006288e+05  -2.088115e+05
  -3.780881e+05  -1.183574e+06
   2.554910e+05  -9.391436e+05
   5.561138e+05  -6.135965e+04
   4.372115e+05   3.842980e+05
   1.478121e+05   1.388173e+05
   5.424369e+04  -9.051166e+04
   2.772670e+05   3.003940e+05
   4.741613e+05   9.636805e+05
   1.433543e+05   1.063026e+06
  -7.240567e+05   3.653960e+05
  -1.428765e+06  -5.014308e+05
  -1.217996e+06  -8.617472e+05
  -1.583688e+05  -6.923925e+05
   8.394587e+05  -3.839581e+05
   9.667960e+05  -1.440064e+05
   3.609829e+05   6.753428e+04
  -1.453567e+05   2.175747e+05
  -5.457563e+04   1.961157e+05
   2.419220e+05   9.482575e+04
   5.092220e+04   1.296479e+05
  -6.391958e+05   2.157396e+05
  -1.026746e+06  -3.513264e+04
  -4.270024e+05  -6.898612e+05
   8.417444e+05  -1.139334e+06
   1.695675e+06  -7.086223e+05
   1.390131e+06   4.494944e+05
   2.383344e+05   1.382708e+06
  -7.920207e+05   1.334090e+06
  -1.041942e+06   5.110485e+05
  -6.329172e+05  -2.357271e+05
  -1.290433e+05  -3.538945e+05
   5.527367e+04  -7.133143e+04
  -8.656659e+04   3.640477e+03
  -2.777463e+05  -3.741919e+05
  -2.149935e+05  -7.995767e+05
   1.884828e+05  -6.650919e+05
   6.604108e+05   1.232531e+05
   7.117058e+05   9.378819e+05
   1.093599e+05   1.014808e+06
  -7.319635e+05   2.422339e+05
  -1.003027e+06  -7.138416e+05
  -3.286068e+05  -1.076847e+06
   7.110418e+05  -6.613956e+05
   1.103936e+06   9.300974e+04
   5.186124e+05   6.244144e+05
  -2.968201e+05   6.751009e+05
  -3.950162e+05   3.573976e+05
   2.252721e+05   9.899082e+03
   6.332232e+05  -2.571421e+04
   1.427682e+05   3.084250e+05
  -8.259358e+05   6.442931e+05
  -1.263951e+06   4.886981e+05
  -7.622201e+05  -2.040612e+05
   1.123485e+05  -8.576142e+05
   5.762313e+05  -8.356884e+05
   4.378509e+05  -1.632547e+05
   5.075033e+04   4.632104e+05
  -2.402460e+05   4.312073e+05
  -3.398628e+05  -1.361644e+05
  -2.391452e+05  -5.711551e+05
   5.541844e+04  -4.326858e+05
   3.828639e+05   4.485592e+04
   4.673362e+05   2.967502e+05
   2.368366e+05   1.103450e+05
  -3.991452e+04  -1.603023e+05
  -8.266009e+04  -7.129277e+04
   2.669902e+04   3.344670e+05
  -2.591002e+04   5.547428e+05
  -3.045278e+05   2.379173e+05
  -4.629194e+05  -3.596120e+05
  -1.706809e+05  -6.337750e+05
   3.975744e+05  -3.081727e+05
   6.569643e+05   2.752366e+05
   2.458985e+05   5.600260e+05
  -5.104626e+05   3.512930e+05
  -8.744638e+05  -8.305634e+04
  -4.678620e+05  -3.793395e+05
   2.952384e+05  -4.004694e+05
   6.354628e+05  -2.281427e+05
   2.603216e+05  -1.686783e+04
  -3.200953e+05   7.378317e+04
  -3.896530e+05  -5.052323e+04
   1.549347e+05  -2.692677e+05
   7.076314e+05  -2.509906e+05
