
 $NMID
 id='ANONYMOUS ', fmtdat='(2E16.6)'
 volume=1.0
 tramp=1.0
 $END
   2.158372e+07  -5.157174e+04
   1.528850e+07   9.106697e+06
   1.118519e+06   1.362872e+07
  -9.204294e+06   1.048821e+07
  -8.761205e+06   2.085349e+06
  -1.116947e+06  -4.187026e+06
   4.855620e+06  -2.813509e+06
   4.197574e+06   3.580776e+06
  -7.195155e+05   7.008489e+06
  -4.378458e+06   3.370685e+06
  -3.815000e+06  -3.044542e+06
  -3.975662e+05  -5.051323e+06
   2.315972e+06  -8.676736e+05
   1.804669e+06   4.481221e+06
  -1.367754e+06   5.213875e+06
  -3.975270e+06   7.294135e+05
  -3.084290e+06  -4.494727e+06
   8.620531e+05  -5.810875e+06
   4.281563e+06  -2.691025e+06
   4.221907e+06   1.433481e+06
   1.502164e+06   3.047376e+06
  -4.520409e+05   1.993590e+06
   3.755978e+05   9.908691e+05
   2.406879e+06   2.055017e+06
   2.369029e+06   4.108658e+06
  -1.006617e+06   4.456686e+06
  -5.334395e+06   2.047359e+06
  -6.636746e+06  -1.401394e+06
  -3.328479e+06  -3.281361e+06
   1.757357e+06  -2.453943e+06
   3.852450e+06   1.070394e+05
   1.191688e+06   2.242163e+06
  -3.027726e+06   2.093317e+06
  -4.264900e+06  -4.559666e+05
  -1.700585e+06  -3.310375e+06
   1.351085e+06  -3.759268e+06
   1.819488e+06  -1.289183e+06
   1.970198e+05   1.492378e+06
  -9.431920e+05   1.530099e+06
  -3.515673e+05  -1.116496e+06
   1.071737e+06  -3.199411e+06
   1.980673e+06  -2.076863e+06
   1.773783e+06   1.123438e+06
   4.605960e+05   2.817164e+06
  -1.280173e+06   1.133593e+06
  -1.872118e+06  -2.017283e+06
  -5.422108e+04  -3.192836e+06
   3.106886e+06  -1.131173e+06
   4.497561e+06   2.178938e+06
   2.215338e+06   3.781807e+06
  -1.952571e+06   2.579581e+06
  -4.203319e+06  -4.018136e+04
  -2.735855e+06  -1.829329e+06
   5.700074e+05  -1.653192e+06
   2.432287e+06  -1.716976e+05
   1.507168e+06   1.002567e+06
  -6.600725e+05   7.852905e+05
  -1.550614e+06  -4.696663e+05
  -2.847781e+05  -1.378637e+06
   1.541571e+06  -9.130673e+05
   1.609231e+06   5.325273e+05
  -4.469464e+05   1.466523e+06
  -2.372810e+06   7.424647e+05
  -1.701899e+06  -1.273401e+06
   1.355808e+06  -2.914854e+06
   4.037091e+06  -2.617803e+06
   4.081899e+06  -2.942794e+05
   2.003863e+06   2.519833e+06
   2.130625e+04   3.956770e+06
  -6.142803e+05   3.452554e+06
  -5.581165e+05   2.105459e+06
  -9.776114e+05   1.286122e+06
  -2.026007e+06   1.035035e+06
  -2.837982e+06   2.411083e+05
  -2.519247e+06  -1.531782e+06
  -9.297327e+05  -2.975168e+06
   1.136884e+06  -2.362547e+06
   2.330138e+06   2.192774e+05
   1.670535e+06   2.598052e+06
  -4.766327e+05   2.697427e+06
  -2.454435e+06   6.221966e+05
  -2.716318e+06  -1.680080e+06
  -1.282618e+06  -2.529432e+06
   3.746114e+05  -1.926613e+06
   9.676372e+05  -1.043183e+06
   7.408426e+05  -7.839129e+05
   1.001896e+06  -9.925471e+05
   2.345798e+06  -8.083786e+05
   3.620781e+06   3.880407e+05
   2.988738e+06   2.264812e+06
   9.834453e+04   3.625785e+06
  -3.090267e+06   3.321629e+06
  -4.028256e+06   1.318979e+06
  -2.157908e+06  -1.062927e+06
   5.136644e+05  -2.145153e+06
   1.530227e+06  -1.345120e+06
   4.149359e+05   2.717840e+05
  -1.193890e+06   1.003824e+06
  -1.539847e+06   2.227454e+05
  -4.775637e+05  -9.678140e+05
   7.096398e+05  -9.824591e+05
   7.686079e+05   3.146907e+05
  -3.931884e+05   1.252058e+06
  -1.699867e+06   2.284165e+05
  -1.785708e+06  -2.222519e+06
  -1.295958e+05  -3.721921e+06
   2.326315e+06  -2.553730e+06
   3.746335e+06   4.503251e+05
   2.956033e+06   2.795870e+06
   6.066195e+05   2.879021e+06
  -1.358963e+06   1.339396e+06
  -1.557911e+06   5.665988e+03
  -4.475030e+05  -5.888362e+04
   3.211258e+05   6.757061e+05
  -2.439058e+05   1.046773e+06
  -1.427922e+06   4.734652e+05
  -1.686565e+06  -5.616980e+05
  -4.756576e+05  -1.078752e+06
   9.998258e+05  -5.848141e+05
   1.031762e+06   4.149513e+05
  -6.352027e+05   8.542457e+05
  -2.334761e+06   1.208451e+05
  -2.156504e+06  -1.302065e+06
  -7.801364e+03  -2.212524e+06
   2.224548e+06  -1.767298e+06
   2.604569e+06  -2.753221e+05
   1.052550e+06   1.034961e+06
  -7.483554e+05   1.115257e+06
  -1.143280e+06   9.333644e+04
  -1.907668e+04  -8.265421e+05
   1.331749e+06  -5.794866e+05
   1.573350e+06   6.197081e+05
   5.166188e+05   1.494530e+06
  -8.248854e+05   1.128095e+06
  -1.231905e+06  -1.007015e+04
  -4.409705e+05  -6.292512e+05
   5.777557e+05  -9.095286e+04
   5.789979e+05   9.250741e+05
  -6.217086e+05   1.223922e+06
  -1.851868e+06   3.450888e+05
  -1.765886e+06  -1.049736e+06
  -2.935913e+05  -1.849654e+06
   1.252044e+06  -1.457411e+06
   1.539541e+06  -2.507509e+05
   5.438150e+05   7.539660e+05
  -5.653614e+05   7.871558e+05
  -7.215501e+05   3.130094e+04
   1.167987e+04  -5.908289e+05
   6.773641e+05  -4.314087e+05
   5.239092e+05   1.613975e+05
  -2.161244e+05   2.966661e+05
  -6.032757e+05  -3.387991e+05
   1.081425e+03  -1.040393e+06
   1.205827e+06  -8.482993e+05
   1.888305e+06   3.859377e+05
   1.274158e+06   1.791082e+06
  -2.696649e+05   2.266687e+06
  -1.565015e+06   1.445030e+06
  -1.753949e+06  -2.174358e+04
  -1.046958e+06  -1.046028e+06
  -3.368204e+05  -1.057104e+06
  -1.814890e+05  -4.719827e+05
  -2.957643e+05  -1.804236e+05
  -3.711689e+04  -5.169096e+05
   7.382205e+05  -8.629275e+05
   1.403340e+06  -4.117744e+05
   1.151428e+06   7.543109e+05
  -1.452009e+05   1.580463e+06
  -1.647348e+06   1.113396e+06
  -2.156077e+06  -4.583100e+05
  -1.133430e+06  -1.922503e+06
   7.699826e+05  -2.149011e+06
   2.211187e+06  -1.052665e+06
   2.272061e+06   4.375027e+05
   1.174354e+06   1.267570e+06
  -5.544157e+04   1.156569e+06
  -5.862918e+05   7.033570e+05
  -4.494993e+05   6.334163e+05
  -2.922786e+05   9.643903e+05
  -5.783426e+05   1.003358e+06
  -1.080503e+06   2.101648e+05
  -1.144501e+06  -1.051815e+06
  -4.271694e+05  -1.772997e+06
   6.474215e+05  -1.303791e+06
   1.211273e+06  -6.560397e+03
   7.840737e+05   1.102179e+06
  -2.230720e+05   1.269262e+06
  -8.951101e+05   5.623531e+05
  -7.258354e+05  -3.452031e+05
  -8.929453e+04  -8.249726e+05
   2.408739e+05  -7.636353e+05
  -1.486138e+04  -5.013257e+05
  -3.326972e+05  -3.793838e+05
  -8.064439e+03  -3.776111e+05
   9.691211e+05  -2.044026e+05
   1.758231e+06   2.965176e+05
   1.464245e+06   9.040209e+05
   1.045175e+05   1.202460e+06
  -1.289812e+06   9.616330e+05
  -1.630725e+06   3.343648e+05
  -8.340502e+05  -2.547988e+05
   1.578298e+05  -4.161727e+05
   4.175730e+05  -1.144842e+05
  -4.440639e+04   2.465419e+05
  -4.868752e+05   1.773474e+05
  -4.047993e+05  -3.333505e+05
  -3.739678e+04  -7.103437e+05
   8.647184e+04  -4.444233e+05
  -1.575564e+05   1.981015e+05
  -4.075411e+05   3.959151e+05
  -2.808439e+05  -2.059600e+05
   2.491620e+05  -9.569224e+05
   8.524866e+05  -9.235255e+05
   1.055780e+06  -2.090194e+04
   5.581813e+05   8.629848e+05
  -4.088419e+05   8.799311e+05
  -1.045665e+06   1.157052e+05
  -6.276437e+05  -6.062726e+05
   6.289557e+05  -6.145179e+05
   1.549425e+06   4.997055e+04
   1.132790e+06   8.038958e+05
  -3.252425e+05   1.054808e+06
  -1.469726e+06   6.316372e+05
  -1.301628e+06  -1.030426e+05
  -1.927347e+05  -5.289337e+05
   5.983690e+05  -3.120120e+05
   2.974063e+05   2.286023e+05
  -6.331433e+05   3.771785e+05
  -1.069739e+06  -2.409755e+05
  -4.236061e+05  -1.174495e+06
   7.862754e+05  -1.482909e+06
   1.492819e+06  -6.467546e+05
   1.128687e+06   8.203900e+05
   9.112968e+04   1.722769e+06
  -7.566987e+05   1.273108e+06
  -9.022224e+05  -1.011959e+05
  -4.693098e+05  -1.132370e+06
   1.131058e+05  -9.936967e+05
   4.959672e+05  -1.200557e+05
   5.225506e+05   4.056288e+05
   2.565781e+05   1.813537e+05
   9.915588e+03  -1.262602e+05
   9.922859e+04   1.982713e+05
   3.847455e+05   8.913032e+05
   2.693926e+05   1.060175e+06
  -5.370485e+05   3.823054e+05
  -1.392972e+06  -5.028910e+05
  -1.299128e+06  -8.503347e+05
  -1.642948e+05  -6.397098e+05
   9.291255e+05  -3.371713e+05
   9.791983e+05  -1.698100e+05
   2.508223e+05  -9.206700e+03
  -1.883332e+05   1.905572e+05
   8.062545e+04   2.675368e+05
   3.750335e+05   1.869714e+05
  -1.274824e+04   1.309701e+05
  -7.736839e+05   1.243239e+05
  -9.591715e+05  -1.024906e+05
  -1.729216e+05  -6.293281e+05
   9.696222e+05  -9.662824e+05
   1.529035e+06  -5.288467e+05
   1.123775e+06   5.387366e+05
   1.283050e+05   1.348729e+06
  -7.497087e+05   1.204959e+06
  -9.990283e+05   3.570901e+05
  -6.133668e+05  -3.283351e+05
  -4.876227e+04  -3.348204e+05
   1.772816e+05   3.042804e+04
  -4.198743e+04   1.051859e+05
  -3.270128e+05  -3.252198e+05
  -2.416017e+05  -7.729876e+05
   2.284457e+05  -5.947188e+05
   6.479032e+05   2.405574e+05
   5.533197e+05   1.009004e+06
  -8.953254e+04   9.433660e+05
  -7.830268e+05   6.055334e+04
  -8.749920e+05  -8.411565e+05
  -1.822841e+05  -1.023094e+06
   7.163177e+05  -4.981869e+05
   9.754193e+05   1.636129e+05
   3.983402e+05   5.107782e+05
  -2.876950e+05   5.048609e+05
  -2.709594e+05   3.044762e+05
   3.380796e+05   7.582571e+04
   6.365800e+05   2.100333e+04
   8.260113e+04   2.707647e+05
  -8.106254e+05   6.028481e+05
  -1.118385e+06   5.260942e+05
  -5.981490e+05  -1.109736e+05
   1.455069e+05  -7.607233e+05
   4.626208e+05  -7.307786e+05
   2.882793e+05  -5.599142e+04
  -4.062198e+04   4.910419e+05
  -2.641732e+05   3.302645e+05
  -3.175671e+05  -2.573566e+05
  -1.873363e+05  -5.561214e+05
   9.299816e+04  -3.023317e+05
   3.540413e+05   1.079811e+05
   3.986710e+05   2.171930e+05
   2.251231e+05   4.183078e+04
   2.013512e+04  -5.953661e+04
  -8.739196e+04   1.165483e+05
  -1.538300e+05   3.824119e+05
  -2.658802e+05   3.834334e+05
  -3.574125e+05  -2.600409e+03
  -2.618562e+05  -4.882168e+05
   7.094264e+04  -6.137923e+05
   4.461945e+05  -2.148681e+05
   5.303045e+05   3.614063e+05
   1.471936e+05   5.860927e+05
  -4.643092e+05   2.980330e+05
  -7.554752e+05  -1.638539e+05
  -3.938600e+05  -3.813568e+05
   2.918879e+05  -2.805632e+05
   5.750127e+05  -8.418989e+04
   1.551376e+05   7.328734e+03
  -4.293931e+05  -4.750594e+04
  -4.093774e+05  -1.997239e+05
   2.701172e+05  -3.199095e+05
   8.565899e+05  -1.902997e+05
