
 $NMID
 id='ANONYMOUS ', fmtdat='(2E16.6)'
 volume=1.0
 tramp=1.0
 $END
   4.419177e+07  -1.142624e+05
   2.721162e+07   2.527608e+07
  -4.174366e+06   2.911890e+07
  -2.056048e+07   1.348523e+07
  -1.351952e+07  -3.191787e+06
   1.499392e+06  -7.339074e+06
   7.849478e+06  -5.522654e+05
   3.506477e+06   7.282122e+06
  -3.811553e+06   8.626293e+06
  -7.598593e+06   2.755923e+06
  -6.040671e+06  -5.016940e+06
  -8.670045e+05  -7.473120e+06
   3.465783e+06  -2.155311e+06
   2.634154e+06   5.200818e+06
  -2.652944e+06   6.283153e+06
  -6.468123e+06  -4.133550e+05
  -4.154023e+06  -8.114601e+06
   2.562985e+06  -9.763592e+06
   8.046887e+06  -4.888764e+06
   8.586481e+06   1.844639e+06
   4.796606e+06   6.032152e+06
   1.366679e+05   6.292480e+06
  -1.759271e+06   4.050297e+06
  -1.865855e+04   2.258819e+06
   2.019013e+06   2.905869e+06
   1.137036e+04   4.600245e+06
  -5.586578e+06   3.926670e+06
  -8.978565e+06   1.303671e+04
  -5.961182e+06  -3.882185e+06
   5.324714e+05  -4.357368e+06
   4.045303e+06  -1.785492e+06
   2.255474e+06   9.185099e+05
  -1.499913e+06   1.743934e+06
  -3.296431e+06   4.435216e+05
  -2.364482e+06  -2.208328e+06
  -9.119049e+04  -4.196889e+06
   1.896778e+06  -3.061229e+06
   2.229841e+06   7.857824e+05
   6.826995e+05   3.056128e+06
  -8.053316e+05   7.256203e+05
   2.181349e+04  -3.007491e+06
   2.254333e+06  -2.426043e+06
   2.273740e+06   2.374563e+06
  -1.255533e+06   4.881215e+06
  -4.788645e+06   9.942632e+05
  -3.927952e+06  -5.163386e+06
   1.158805e+06  -6.589390e+06
   5.917524e+06  -2.023133e+06
   6.293304e+06   3.508996e+06
   2.245756e+06   5.216434e+06
  -2.839910e+06   2.851032e+06
  -5.012954e+06  -7.466600e+05
  -2.730378e+06  -2.765337e+06
   1.658068e+06  -2.033979e+06
   3.796890e+06   4.254111e+05
   1.853932e+06   2.034671e+06
  -1.319600e+06   1.184422e+06
  -1.750415e+06  -7.491775e+05
   5.985913e+05  -1.082856e+06
   2.046550e+06   6.358488e+05
   2.363786e+05   2.184435e+06
  -2.989154e+06   1.690393e+06
  -4.189223e+06  -4.770630e+05
  -2.153680e+06  -2.930158e+06
   1.601213e+06  -4.588870e+06
   4.755721e+06  -4.347885e+06
   5.628499e+06  -1.390773e+06
   3.838261e+06   3.005547e+06
   7.639277e+05   5.557592e+06
  -1.249783e+06   4.436459e+06
  -1.171253e+06   1.657526e+06
  -3.891204e+05   4.890209e+05
  -7.897284e+05   1.251042e+06
  -2.257312e+06   1.430776e+06
  -2.986332e+06  -3.667731e+05
  -1.877004e+06  -2.458947e+06
   3.205670e+05  -2.456111e+06
   1.993237e+06  -2.007785e+05
   1.935910e+06   2.305658e+06
  -4.624639e+04   3.028478e+06
  -2.770995e+06   1.435362e+06
  -4.066930e+06  -1.354116e+06
  -2.669428e+06  -3.410027e+06
   1.415966e+05  -3.491815e+06
   1.823831e+06  -2.156242e+06
   1.672515e+06  -1.042044e+06
   1.502635e+06  -8.849952e+05
   2.783130e+06  -7.664878e+05
   4.279423e+06   4.490929e+05
   3.578035e+06   2.536049e+06
   3.230094e+05   4.128497e+06
  -3.150218e+06   4.043707e+06
  -4.283004e+06   2.129462e+06
  -2.670153e+06  -6.045049e+05
  -7.900112e+04  -2.373681e+06
   1.279908e+06  -1.892105e+06
   5.517435e+05   1.186737e+05
  -1.143189e+06   1.322890e+06
  -1.844202e+06   4.223535e+05
  -8.300332e+05  -1.154908e+06
   5.720907e+05  -1.163359e+06
   6.084510e+05   3.236785e+05
  -7.475543e+05   9.676027e+05
  -1.824159e+06  -6.225972e+05
  -1.250619e+06  -2.993242e+06
   7.166160e+05  -3.656374e+06
   2.762472e+06  -1.891072e+06
   3.663147e+06   8.629061e+05
   2.851524e+06   2.723265e+06
   7.221795e+05   2.822875e+06
  -1.282353e+06   1.576446e+06
  -1.661670e+06   2.393715e+05
  -5.043264e+05  -2.819022e+04
   3.979243e+05   7.443257e+05
  -3.163543e+05   1.298989e+06
  -1.787861e+06   6.308202e+05
  -2.018946e+06  -7.156386e+05
  -4.913037e+05  -1.321136e+06
   1.131464e+06  -6.561157e+05
   1.017221e+06   4.021526e+05
  -7.496658e+05   7.165368e+05
  -2.343688e+06  -1.645592e+04
  -2.083701e+06  -1.270651e+06
   2.077361e+04  -2.169427e+06
   2.294106e+06  -1.916913e+06
   2.838899e+06  -4.343776e+05
   1.266777e+06   1.183315e+06
  -8.478883e+05   1.460718e+06
  -1.470181e+06   2.113863e+05
  -1.744156e+05  -1.039753e+06
   1.496383e+06  -7.816232e+05
   1.782022e+06   6.733724e+05
   5.082292e+05   1.641148e+06
  -9.723293e+05   1.127578e+06
  -1.303420e+06  -1.378102e+05
  -3.661030e+05  -7.293875e+05
   7.469728e+05  -9.486443e+04
   7.615489e+05   1.035050e+06
  -5.651429e+05   1.460926e+06
  -2.044724e+06   5.938561e+05
  -2.099989e+06  -1.016192e+06
  -4.669527e+05  -2.084216e+06
   1.365341e+06  -1.723084e+06
   1.727946e+06  -3.201879e+05
   5.837345e+05   8.356801e+05
  -6.130531e+05   8.676035e+05
  -7.019653e+05   1.052424e+05
   4.269283e+04  -4.706674e+05
   5.631449e+05  -3.544468e+05
   3.044371e+05   6.548536e+04
  -3.504232e+05   7.545145e+04
  -5.903662e+05  -5.370412e+05
   7.987561e+04  -1.187586e+06
   1.341028e+06  -9.900137e+05
   2.140797e+06   3.236698e+05
   1.567537e+06   1.922830e+06
  -1.236803e+05   2.509215e+06
  -1.597906e+06   1.591293e+06
  -1.804798e+06   1.325877e+04
  -1.046636e+06  -9.365816e+05
  -4.190599e+05  -8.288165e+05
  -4.219022e+05  -3.324988e+05
  -5.353790e+05  -2.721325e+05
  -9.693834e+04  -7.078373e+05
   8.200777e+05  -9.748321e+05
   1.484391e+06  -4.586075e+05
   1.194960e+06   7.044642e+05
  -1.254232e+05   1.594145e+06
  -1.721663e+06   1.241455e+06
  -2.360920e+06  -3.786122e+05
  -1.299865e+06  -2.079335e+06
   8.540032e+05  -2.444479e+06
   2.487935e+06  -1.211334e+06
   2.464330e+06   4.788599e+05
   1.164972e+06   1.307409e+06
  -8.315560e+04   1.078737e+06
  -4.412663e+05   6.559976e+05
  -1.977572e+05   7.859568e+05
  -1.401892e+05   1.265326e+06
  -6.220461e+05   1.275345e+06
  -1.271018e+06   3.479745e+05
  -1.393911e+06  -1.068221e+06
  -6.342094e+05  -1.929238e+06
   5.949683e+05  -1.500748e+06
   1.325246e+06  -6.806433e+04
   9.022785e+05   1.237477e+06
  -2.768164e+05   1.428614e+06
  -1.082083e+06   5.314047e+05
  -8.290003e+05  -5.574823e+05
   7.352562e+03  -1.022495e+06
   4.059700e+05  -8.205737e+05
   1.830997e+04  -4.672894e+05
  -4.417675e+05  -3.549036e+05
  -6.540151e+04  -4.035300e+05
   1.129162e+06  -2.698617e+05
   2.072354e+06   2.445941e+05
   1.692958e+06   9.616155e+05
   7.660393e+04   1.410904e+06
  -1.509211e+06   1.196603e+06
  -1.830423e+06   4.019347e+05
  -8.847053e+05  -3.793909e+05
   2.160906e+05  -5.459506e+05
   4.933067e+05  -8.811880e+04
   1.243213e+04   3.814698e+05
  -4.753310e+05   2.718311e+05
  -4.974452e+05  -3.352289e+05
  -2.262490e+05  -7.619902e+05
  -5.643467e+04  -5.028119e+05
  -1.372257e+05   1.498125e+05
  -3.172906e+05   3.762561e+05
  -3.046281e+05  -2.187807e+05
   1.344959e+05  -1.047680e+06
   8.813150e+05  -1.118236e+06
   1.324062e+06  -1.775695e+05
   8.359617e+05   9.216255e+05
  -3.922099e+05   1.126577e+06
  -1.246014e+06   3.267531e+05
  -7.701667e+05  -5.823800e+05
   6.770659e+05  -7.045234e+05
   1.659307e+06  -5.355598e+03
   1.151352e+06   8.164969e+05
  -3.868493e+05   1.079433e+06
  -1.525336e+06   6.450959e+05
  -1.326638e+06  -9.083683e+04
  -1.939403e+05  -5.335867e+05
   6.456383e+05  -3.316281e+05
   3.837128e+05   2.718798e+05
  -6.165936e+05   5.363658e+05
  -1.224753e+06  -8.359404e+04
  -6.876121e+05  -1.224513e+06
   6.098128e+05  -1.767857e+06
   1.534594e+06  -9.372552e+05
   1.328269e+06   7.564774e+05
   2.740660e+05   1.860200e+06
  -7.108235e+05   1.400224e+06
  -9.693878e+05  -1.076774e+05
  -5.310342e+05  -1.205423e+06
   1.362998e+05  -1.031278e+06
   5.610751e+05  -1.271551e+05
   5.342240e+05   3.747317e+05
   2.154244e+05   1.415525e+05
   2.957638e+04  -1.098040e+05
   2.416990e+05   2.785997e+05
   5.434263e+05   9.732032e+05
   2.879723e+05   1.109740e+06
  -6.705366e+05   4.361713e+05
  -1.554688e+06  -4.231311e+05
  -1.402781e+06  -8.080636e+05
  -2.232186e+05  -7.065413e+05
   9.050484e+05  -4.713621e+05
   1.023844e+06  -2.446826e+05
   3.411737e+05   2.474040e+04
  -1.566772e+05   2.382979e+05
   1.776296e+04   2.267984e+05
   3.278687e+05   1.031369e+05
   4.079852e+04   1.426011e+05
  -7.275086e+05   2.626640e+05
  -1.082198e+06   1.323306e+04
  -4.091472e+05  -7.066484e+05
   8.740037e+05  -1.234196e+06
   1.709900e+06  -8.098973e+05
   1.430570e+06   4.289010e+05
   3.227465e+05   1.457459e+06
  -7.349572e+05   1.437811e+06
  -1.072703e+06   5.685691e+05
  -6.989583e+05  -2.381750e+05
  -1.340573e+05  -3.697162e+05
   1.112172e+05  -5.493933e+04
  -6.438247e+04   4.527545e+04
  -3.414098e+05  -3.535605e+05
  -3.023279e+05  -8.246358e+05
   1.705193e+05  -7.036209e+05
   7.239990e+05   1.246119e+05
   7.841673e+05   9.888118e+05
   1.159685e+05   1.069514e+06
  -8.014175e+05   2.545967e+05
  -1.095200e+06  -7.431707e+05
  -3.779829e+05  -1.119199e+06
   7.252848e+05  -7.036598e+05
   1.146449e+06   4.959841e+04
   5.476779e+05   5.947817e+05
  -2.770084e+05   6.803743e+05
  -3.517767e+05   3.808540e+05
   2.916383e+05   4.804839e+03
   6.813473e+05  -6.219986e+04
   1.511066e+05   3.099937e+05
  -8.286250e+05   7.389737e+05
  -1.251354e+06   6.248058e+05
  -7.587283e+05  -1.373981e+05
   7.277417e+04  -8.922795e+05
   5.150523e+05  -8.883848e+05
   4.089045e+05  -1.536411e+05
   6.043544e+04   5.113729e+05
  -2.412801e+05   4.448065e+05
  -3.789672e+05  -1.662676e+05
  -2.811782e+05  -5.907453e+05
   5.199021e+04  -4.212513e+05
   4.085895e+05   4.382742e+04
   4.890487e+05   2.557672e+05
   2.504235e+05   7.343171e+04
  -2.200717e+04  -1.360395e+05
  -7.596581e+04   2.952755e+03
  -8.047343e+03   3.929340e+05
  -9.225479e+04   5.550985e+05
  -3.517721e+05   1.929155e+05
  -4.611026e+05  -4.169961e+05
  -1.399698e+05  -6.816077e+05
   4.282706e+05  -3.316736e+05
   6.857933e+05   2.867546e+05
   2.739685e+05   5.991620e+05
  -5.049766e+05   3.922789e+05
  -9.048437e+05  -6.068124e+04
  -5.031370e+05  -3.758465e+05
   2.942995e+05  -4.059456e+05
   6.526308e+05  -2.343490e+05
   2.389925e+05  -1.908244e+04
  -3.908418e+05   7.003083e+04
  -4.438603e+05  -7.714019e+04
   1.823687e+05  -3.320179e+05
   7.992668e+05  -3.188413e+05
