
 $NMID
 id='ANONYMOUS ', fmtdat='(2E16.6)'
 volume=1.0
 tramp=1.0
 $END
   2.367719e+07  -2.043988e+05
   1.580509e+07   1.115404e+07
  -5.791017e+04   1.502262e+07
  -1.017061e+07   9.862489e+06
  -8.480126e+06   9.128281e+05
  -4.984936e+05  -4.232834e+06
   4.737213e+06  -2.096590e+06
   3.576709e+06   3.755059e+06
  -1.073968e+06   6.446204e+06
  -4.387861e+06   2.904241e+06
  -3.872245e+06  -3.017363e+06
  -5.565205e+05  -4.948357e+06
   2.284120e+06  -1.081001e+06
   1.899712e+06   4.052461e+06
  -1.315857e+06   4.822839e+06
  -3.957774e+06   4.759224e+05
  -2.993039e+06  -4.625911e+06
   1.016925e+06  -5.913555e+06
   4.513327e+06  -2.867440e+06
   4.656919e+06   1.319260e+06
   2.028985e+06   3.337380e+06
  -3.233825e+05   2.677613e+06
  -1.624858e+05   1.435479e+06
   1.677927e+06   1.698976e+06
   2.186422e+06   3.270165e+06
  -5.212226e+05   4.011851e+06
  -4.722843e+06   2.371782e+06
  -6.412300e+06  -7.692071e+05
  -3.575040e+06  -2.967185e+06
   1.256661e+06  -2.651740e+06
   3.485468e+06  -4.311111e+05
   1.385244e+06   1.684062e+06
  -2.262870e+06   1.916687e+06
  -3.590400e+06  -3.919336e+04
  -1.777523e+06  -2.642729e+06
   7.720911e+05  -3.484257e+06
   1.621248e+06  -1.562127e+06
   6.671797e+05   1.216148e+06
  -4.798393e+05   1.740952e+06
  -4.923004e+05  -5.993271e+05
   6.074467e+05  -2.840047e+06
   1.735549e+06  -1.960427e+06
   1.669771e+06   1.200424e+06
   9.237179e+04   2.844842e+06
  -1.810846e+06   9.189338e+05
  -2.060219e+06  -2.416695e+06
   1.824897e+05  -3.478388e+06
   3.299809e+06  -1.213526e+06
   4.369077e+06   2.082663e+06
   2.048491e+06   3.547206e+06
  -1.819352e+06   2.370289e+06
  -3.848319e+06  -5.689538e+04
  -2.443730e+06  -1.709475e+06
   6.813174e+05  -1.526055e+06
   2.402468e+06  -7.536273e+04
   1.405601e+06   1.054978e+06
  -7.015237e+05   7.805576e+05
  -1.415136e+06  -4.230327e+05
  -1.230271e+05  -1.119069e+06
   1.388347e+06  -5.219601e+05
   1.105656e+06   7.193364e+05
  -8.752455e+05   1.284162e+06
  -2.405135e+06   4.333974e+05
  -1.590077e+06  -1.416688e+06
   1.187219e+06  -2.950608e+06
   3.655104e+06  -2.781442e+06
   3.929934e+06  -5.863870e+05
   2.217466e+06   2.296853e+06
   2.670586e+05   3.832078e+06
  -5.794526e+05   3.245304e+06
  -5.338377e+05   1.760719e+06
  -6.714696e+05   1.013908e+06
  -1.493852e+06   1.058371e+06
  -2.398009e+06   5.744991e+05
  -2.397657e+06  -1.028949e+06
  -1.133128e+06  -2.502762e+06
   7.501497e+05  -2.160249e+06
   1.999384e+06   1.432962e+04
   1.624137e+06   2.173464e+06
  -2.443841e+05   2.470327e+06
  -2.225196e+06   7.936615e+05
  -2.737103e+06  -1.351889e+06
  -1.479975e+06  -2.400547e+06
   2.568011e+05  -2.038581e+06
   1.022650e+06  -1.158349e+06
   8.243541e+05  -7.428166e+05
   9.471161e+05  -8.716973e+05
   2.123911e+06  -7.725786e+05
   3.332338e+06   2.449057e+05
   2.822309e+06   1.959437e+06
   2.465564e+05   3.295654e+06
  -2.633182e+06   3.177478e+06
  -3.571547e+06   1.462146e+06
  -2.054402e+06  -7.781911e+05
   2.596373e+05  -1.968499e+06
   1.262364e+06  -1.357388e+06
   4.080189e+05   1.964839e+05
  -1.012913e+06   9.930281e+05
  -1.415980e+06   2.835997e+05
  -5.226589e+05  -8.833911e+05
   5.665715e+05  -9.314385e+05
   6.546633e+05   2.469019e+05
  -3.671435e+05   1.047192e+06
  -1.489873e+06   8.161892e+04
  -1.516682e+06  -2.037329e+06
  -7.047447e+04  -3.232771e+06
   2.029141e+06  -2.178223e+06
   3.281991e+06   3.487912e+05
   2.677699e+06   2.338113e+06
   6.596518e+05   2.502354e+06
  -1.139020e+06   1.276481e+06
  -1.398133e+06   1.048238e+05
  -4.083410e+05  -3.157255e+04
   3.205660e+05   5.993108e+05
  -1.992417e+05   9.799394e+05
  -1.318393e+06   4.899720e+05
  -1.568747e+06  -4.756652e+05
  -4.537561e+05  -9.835192e+05
   8.880147e+05  -5.618266e+05
   9.201509e+05   3.249356e+05
  -5.476494e+05   7.419748e+05
  -2.046707e+06   1.599810e+05
  -1.928065e+06  -1.060632e+06
  -7.994372e+04  -1.935866e+06
   1.912981e+06  -1.661557e+06
   2.334295e+06  -3.599470e+05
   1.002694e+06   9.104053e+05
  -6.492711e+05   1.076568e+06
  -1.073829e+06   1.379042e+05
  -7.265270e+04  -7.750994e+05
   1.190664e+06  -5.943120e+05
   1.447792e+06   5.065847e+05
   5.013943e+05   1.327025e+06
  -7.167181e+05   1.017710e+06
  -1.095959e+06   6.255893e+03
  -3.925683e+05  -5.570869e+05
   5.396667e+05  -9.743067e+04
   5.768038e+05   8.201003e+05
  -4.978123e+05   1.148493e+06
  -1.662703e+06   4.149302e+05
  -1.659913e+06  -8.631796e+05
  -3.527075e+05  -1.669835e+06
   1.080975e+06  -1.377866e+06
   1.386762e+06  -2.836587e+05
   5.113222e+05   6.626824e+05
  -4.817040e+05   7.282676e+05
  -6.320840e+05   6.912589e+04
  -8.152280e+03  -4.943821e+05
   5.543060e+05  -3.908210e+05
   4.236877e+05   9.716029e+04
  -2.008517e+05   2.187456e+05
  -5.337964e+05  -3.172608e+05
  -1.511661e+04  -9.428131e+05
   1.062265e+06  -8.136458e+05
   1.727860e+06   2.671309e+05
   1.240339e+06   1.565626e+06
  -1.342900e+05   2.057174e+06
  -1.336862e+06   1.355213e+06
  -1.555049e+06   4.797355e+04
  -9.602873e+05  -8.612197e+05
  -3.561621e+05  -8.734746e+05
  -2.292262e+05  -3.866185e+05
  -3.129919e+05  -1.735947e+05
  -5.750506e+04  -4.939235e+05
   6.389777e+05  -8.050658e+05
   1.237231e+06  -4.183353e+05
   1.048748e+06   6.138872e+05
  -6.877295e+04   1.397975e+06
  -1.428257e+06   1.061014e+06
  -1.956475e+06  -3.165677e+05
  -1.094504e+06  -1.687802e+06
   6.268842e+05  -1.975799e+06
   1.969221e+06  -1.028815e+06
   2.052481e+06   3.187944e+05
   1.074588e+06   1.081805e+06
  -1.173267e+04   1.002567e+06
  -4.599057e+05   6.334094e+05
  -3.255370e+05   6.111383e+05
  -2.002077e+05   9.246456e+05
  -4.899501e+05   9.576914e+05
  -9.860058e+05   2.459925e+05
  -1.094539e+06  -8.951459e+05
  -4.764176e+05  -1.582339e+06
   5.182231e+05  -1.211619e+06
   1.090402e+06  -5.803230e+04
   7.491297e+05   9.728863e+05
  -1.669450e+05   1.155631e+06
  -8.051331e+05   5.147766e+05
  -6.659756e+05  -3.244416e+05
  -8.237844e+04  -7.603998e+05
   2.203415e+05  -6.874230e+05
  -2.481475e+04  -4.327128e+05
  -3.287928e+05  -3.200552e+05
  -3.121416e+04  -3.386447e+05
   8.797732e+05  -2.227303e+05
   1.622568e+06   1.969991e+05
   1.365067e+06   7.616851e+05
   1.230433e+05   1.095967e+06
  -1.152010e+06   9.334946e+05
  -1.465620e+06   3.599693e+05
  -7.497759e+05  -2.216585e+05
   1.396815e+05  -3.965784e+05
   3.780474e+05  -1.078708e+05
  -2.269543e+04   2.475418e+05
  -4.224980e+05   1.925583e+05
  -3.866422e+05  -2.821208e+05
  -9.487209e+04  -6.393422e+05
   3.288105e+04  -4.098857e+05
  -1.261566e+05   1.703379e+05
  -3.253850e+05   3.609831e+05
  -2.584614e+05  -1.743568e+05
   1.646651e+05  -8.718555e+05
   7.283701e+05  -8.811906e+05
   9.867917e+05  -8.026273e+04
   5.764312e+05   7.589605e+05
  -3.319935e+05   8.392020e+05
  -9.624432e+05   1.761087e+05
  -6.031646e+05  -5.103619e+05
   5.440769e+05  -5.797361e+05
   1.388791e+06  -1.866185e+04
   1.028134e+06   6.705286e+05
  -2.624159e+05   9.426335e+05
  -1.282474e+06   6.084737e+05
  -1.154092e+06  -4.307099e+04
  -1.882811e+05  -4.595245e+05
   5.256111e+05  -2.983485e+05
   2.862113e+05   2.017360e+05
  -5.445741e+05   3.870668e+05
  -9.854780e+05  -1.463693e+05
  -4.665271e+05  -1.035734e+06
   6.113680e+05  -1.395228e+06
   1.307101e+06  -6.795777e+05
   1.064283e+06   6.745602e+05
   1.742389e+05   1.545489e+06
  -6.150909e+05   1.173790e+06
  -8.107816e+05  -6.044922e+04
  -4.633157e+05  -9.962203e+05
   7.018320e+04  -8.851899e+05
   4.454649e+05  -1.228001e+05
   4.772197e+05   3.323999e+05
   2.248711e+05   1.412244e+05
   7.871534e+03  -1.075839e+05
   1.211444e+05   1.911613e+05
   4.000224e+05   7.916427e+05
   2.768047e+05   9.339184e+05
  -4.877150e+05   3.626225e+05
  -1.278376e+06  -3.816019e+05
  -1.195134e+06  -6.966348e+05
  -1.771845e+05  -5.722121e+05
   8.043442e+05  -3.572759e+05
   8.666289e+05  -1.978720e+05
   2.377981e+05  -7.527131e+03
  -1.538876e+05   1.849181e+05
   6.857550e+04   2.225377e+05
   3.291557e+05   1.328445e+05
   4.016953e+03   1.193954e+05
  -6.705937e+05   1.660367e+05
  -8.756621e+05  -3.613175e+04
  -2.203104e+05  -5.697608e+05
   8.068851e+05  -9.414640e+05
   1.371139e+06  -5.714063e+05
   1.073111e+06   4.204514e+05
   1.969525e+05   1.209514e+06
  -6.204892e+05   1.134253e+06
  -8.870396e+05   3.903747e+05
  -5.710282e+05  -2.511622e+05
  -7.114764e+04  -3.022063e+05
   1.458673e+05   1.340843e+03
  -3.615038e+04   8.119177e+04
  -3.013038e+05  -2.807315e+05
  -2.508032e+05  -6.836921e+05
   1.711360e+05  -5.550791e+05
   5.971601e+05   1.671982e+05
   5.699710e+05   8.703969e+05
  -7.118887e+03   8.644658e+05
  -6.958448e+05   1.198793e+05
  -8.469614e+05  -6.953227e+05
  -2.335955e+05  -9.186138e+05
   6.201078e+05  -5.050857e+05
   9.018229e+05   9.105260e+04
   3.965433e+05   4.564707e+05
  -2.378874e+05   4.902860e+05
  -2.461315e+05   2.908006e+05
   2.926042e+05   3.915320e+04
   5.721452e+05  -1.962177e+04
   9.505097e+04   2.451610e+05
  -6.993517e+05   5.861516e+05
  -9.952095e+05   5.187074e+05
  -5.621402e+05  -8.635679e+04
   9.002778e+04  -7.032015e+05
   3.962770e+05  -6.898750e+05
   2.788695e+05  -7.597131e+04
   1.541376e+03   4.403464e+05
  -2.192645e+05   3.237809e+05
  -3.034264e+05  -1.983942e+05
  -2.025436e+05  -4.922864e+05
   6.607908e+04  -2.945892e+05
   3.281564e+05   7.096322e+04
   3.757590e+05   1.873768e+05
   2.038220e+05   3.601845e+04
   9.113938e+03  -6.980386e+04
  -6.735988e+04   8.280247e+04
  -9.248038e+04   3.479908e+05
  -1.897726e+05   3.864040e+05
  -3.187528e+05   5.024628e+04
  -2.900767e+05  -4.112734e+05
  -2.628623e+02  -5.620774e+05
   3.845361e+05  -2.289999e+05
   5.129521e+05   2.883463e+05
   1.755731e+05   5.165605e+05
  -4.088430e+05   2.966137e+05
  -7.036460e+05  -1.006297e+05
  -3.823468e+05  -3.235100e+05
   2.508418e+05  -2.825940e+05
   5.228641e+05  -1.227735e+05
   1.545646e+05  -2.070101e+03
  -3.748344e+05  -1.656489e+03
  -3.776104e+05  -1.372892e+05
   2.088423e+05  -2.958598e+05
   7.387883e+05  -2.253363e+05
