
 $NMID
 id='ANONYMOUS ', fmtdat='(2E16.6)'
 volume=1.0
 tramp=1.0
 $END
   5.574756e+07   3.081581e+05
   3.299348e+07   3.486982e+07
  -7.874236e+06   3.756160e+07
  -2.724361e+07   1.397401e+07
  -1.589078e+07  -7.214772e+06
   3.452774e+06  -9.066652e+06
   9.504449e+06   1.418839e+06
   2.493657e+06   9.551079e+06
  -6.132220e+06   8.919565e+06
  -9.398346e+06   1.792447e+06
  -6.846854e+06  -6.081876e+06
  -8.357718e+05  -8.403518e+06
   3.926873e+06  -2.740528e+06
   2.639281e+06   5.214764e+06
  -3.640102e+06   6.289102e+06
  -7.666089e+06  -1.397648e+06
  -4.283918e+06  -1.002020e+07
   3.778146e+06  -1.154366e+07
   9.980232e+06  -5.784618e+06
   1.070955e+07   2.038116e+06
   6.591467e+06   7.477924e+06
   6.283057e+05   8.680775e+06
  -3.069079e+06   5.992266e+06
  -1.998561e+06   2.445642e+06
   1.118378e+06   1.839569e+06
   4.393911e+05   4.006900e+06
  -5.146004e+06   4.460107e+06
  -9.459456e+06   6.862799e+05
  -6.996608e+06  -3.986057e+06
  -3.640091e+05  -5.071366e+06
   3.597640e+06  -2.713496e+06
   2.543888e+06  -1.534706e+05
  -3.490325e+05   9.540503e+05
  -2.080245e+06   6.779307e+05
  -2.244258e+06  -1.214502e+06
  -8.754775e+05  -3.830098e+06
   1.739371e+06  -3.869965e+06
   3.330731e+06   7.813393e+04
   1.781579e+06   3.674508e+06
  -8.612133e+05   2.018427e+06
  -5.100414e+05  -2.353879e+06
   2.325253e+06  -2.246588e+06
   2.351449e+06   3.141270e+06
  -2.494951e+06   5.967094e+06
  -6.931821e+06   8.617722e+05
  -5.009856e+06  -6.923521e+06
   1.983084e+06  -8.399929e+06
   7.337259e+06  -2.358223e+06
   6.772547e+06   4.324722e+06
   1.775944e+06   5.823501e+06
  -3.348922e+06   2.604470e+06
  -5.046030e+06  -1.470928e+06
  -2.296742e+06  -3.355129e+06
   2.391443e+06  -2.098330e+06
   4.413565e+06   9.384372e+05
   1.867917e+06   2.673306e+06
  -1.698047e+06   1.333029e+06
  -1.669369e+06  -9.825398e+05
   1.314717e+06  -8.080625e+05
   2.338115e+06   1.814064e+06
  -7.691841e+05   3.365812e+06
  -4.632086e+06   1.758600e+06
  -5.162473e+06  -1.424178e+06
  -2.215995e+06  -3.923437e+06
   1.728736e+06  -5.180872e+06
   4.821337e+06  -4.824673e+06
   6.058135e+06  -1.801897e+06
   4.568723e+06   3.059995e+06
   9.988888e+05   6.040324e+06
  -1.798964e+06   4.616604e+06
  -1.684648e+06   1.099628e+06
  -4.371448e+04  -2.896694e+05
   1.738371e+05   1.028570e+06
  -1.491062e+06   1.899387e+06
  -2.787538e+06   3.877116e+05
  -2.102193e+06  -1.791577e+06
  -1.532457e+05  -2.098472e+06
   1.461215e+06  -2.955064e+05
   1.684573e+06   1.921558e+06
   8.996622e+04   2.849731e+06
  -2.676389e+06   1.696835e+06
  -4.433111e+06  -1.084667e+06
  -3.228497e+06  -3.680104e+06
   1.999029e+04  -4.194623e+06
   2.265428e+06  -2.692032e+06
   2.212379e+06  -1.094301e+06
   1.774682e+06  -6.415493e+05
   2.830935e+06  -4.818232e+05
   4.215843e+06   6.853012e+05
   3.415168e+06   2.628129e+06
   1.972749e+05   3.992459e+06
  -3.024937e+06   3.849117e+06
  -4.006821e+06   2.174495e+06
  -2.622417e+06  -3.278022e+05
  -3.606403e+05  -2.183874e+06
   1.014815e+06  -1.940029e+06
   5.635049e+05   1.488551e+04
  -1.025385e+06   1.308803e+06
  -1.858373e+06   4.198833e+05
  -9.310888e+05  -1.175277e+06
   4.688367e+05  -1.100863e+06
   3.965037e+05   3.566008e+05
  -1.030720e+06   6.289737e+05
  -1.757511e+06  -1.303466e+06
  -5.648654e+05  -3.369560e+06
   1.557240e+06  -3.215095e+06
   2.984373e+06  -1.003630e+06
   3.135226e+06   1.365829e+06
   2.198467e+06   2.572603e+06
   4.918145e+05   2.474429e+06
  -1.159604e+06   1.448183e+06
  -1.524604e+06   2.670694e+05
  -4.790392e+05  -3.525580e+04
   3.601511e+05   7.250443e+05
  -3.970193e+05   1.316004e+06
  -1.867838e+06   5.833867e+05
  -1.990461e+06  -8.556509e+05
  -3.771461e+05  -1.381446e+06
   1.132760e+06  -5.657986e+05
   8.538178e+05   4.194464e+05
  -8.103938e+05   4.828220e+05
  -2.075302e+06  -2.943319e+05
  -1.670378e+06  -1.259270e+06
   2.119118e+05  -1.872085e+06
   2.193001e+06  -1.624952e+06
   2.680130e+06  -3.096236e+05
   1.200737e+06   1.222318e+06
  -8.876727e+05   1.490440e+06
  -1.539089e+06   2.030871e+05
  -2.193656e+05  -1.067570e+06
   1.470674e+06  -7.456008e+05
   1.677073e+06   7.414662e+05
   3.331658e+05   1.593081e+06
  -1.052527e+06   9.367566e+05
  -1.207682e+06  -3.066202e+05
  -2.268743e+05  -7.557640e+05
   7.863514e+05  -5.646250e+04
   7.409715e+05   1.019593e+06
  -5.305780e+05   1.405428e+06
  -1.947318e+06   5.751572e+05
  -2.007954e+06  -9.835137e+05
  -4.088717e+05  -2.017329e+06
   1.382503e+06  -1.620093e+06
   1.675842e+06  -2.223327e+05
   4.907471e+05   8.381936e+05
  -6.305000e+05   7.845026e+05
  -6.035032e+05   9.307619e+04
   1.075774e+05  -3.244396e+05
   4.427420e+05  -1.978806e+05
   8.604516e+04   3.439486e+04
  -4.385613e+05  -1.104104e+05
  -4.887733e+05  -6.648417e+05
   2.021461e+05  -1.152033e+06
   1.333016e+06  -8.857076e+05
   2.030540e+06   3.697318e+05
   1.460774e+06   1.866632e+06
  -1.636024e+05   2.353006e+06
  -1.532158e+06   1.385400e+06
  -1.618396e+06  -9.726624e+04
  -8.297864e+05  -8.244639e+05
  -3.323240e+05  -5.813330e+05
  -5.025244e+05  -1.896634e+05
  -6.361514e+05  -3.158110e+05
  -9.725975e+04  -7.596110e+05
   8.409092e+05  -8.813533e+05
   1.387757e+06  -3.297970e+05
   1.014765e+06   6.670232e+05
  -2.180811e+05   1.392748e+06
  -1.642200e+06   1.057979e+06
  -2.181147e+06  -4.286437e+05
  -1.124074e+06  -2.018089e+06
   9.602595e+05  -2.308751e+06
   2.460737e+06  -1.025124e+06
   2.274359e+06   6.162666e+05
   9.203517e+05   1.269080e+06
  -1.870327e+05   8.868122e+05
  -3.371109e+05   4.872717e+05
  -2.849523e+04   7.540556e+05
  -6.956393e+04   1.302436e+06
  -6.417037e+05   1.278276e+06
  -1.265326e+06   3.340715e+05
  -1.327466e+06  -1.024688e+06
  -5.814223e+05  -1.830762e+06
   5.734371e+05  -1.410569e+06
   1.245048e+06  -1.873062e+04
   8.020699e+05   1.239677e+06
  -3.716663e+05   1.357448e+06
  -1.132536e+06   3.853240e+05
  -7.883520e+05  -6.955269e+05
   1.302338e+05  -1.054774e+06
   5.328835e+05  -7.528854e+05
   8.101767e+04  -3.889537e+05
  -4.359443e+05  -3.137195e+05
  -7.062455e+04  -3.700522e+05
   1.120248e+06  -2.177344e+05
   2.022574e+06   2.954699e+05
   1.587399e+06   9.864401e+05
  -3.323522e+04   1.400965e+06
  -1.546707e+06   1.135913e+06
  -1.776612e+06   2.881418e+05
  -8.019743e+05  -4.857346e+05
   2.575387e+05  -5.651246e+05
   4.985956e+05  -2.963416e+04
   3.925920e+04   4.267627e+05
  -4.188063e+05   2.682616e+05
  -4.784513e+05  -3.231477e+05
  -2.834387e+05  -6.999123e+05
  -1.224583e+05  -4.701715e+05
  -1.234159e+05   8.211842e+04
  -2.429033e+05   2.794651e+05
  -2.676862e+05  -2.203398e+05
   1.035659e+05  -9.585983e+05
   8.538266e+05  -1.058932e+06
   1.349799e+06  -2.039302e+05
   8.730164e+05   8.793405e+05
  -3.864404e+05   1.136445e+06
  -1.237689e+06   3.706293e+05
  -7.319773e+05  -5.352181e+05
   6.728734e+05  -6.382170e+05
   1.530833e+06   6.942433e+04
   9.628208e+05   8.130797e+05
  -4.654194e+05   9.437604e+05
  -1.428329e+06   4.655705e+05
  -1.174671e+06  -1.698277e+05
  -1.307874e+05  -4.869019e+05
   6.245896e+05  -2.627048e+05
   3.853119e+05   2.880251e+05
  -5.493193e+05   5.377546e+05
  -1.161689e+06  -3.216259e+04
  -7.087989e+05  -1.130364e+06
   5.063475e+05  -1.690617e+06
   1.413290e+06  -9.218244e+05
   1.245524e+06   6.949520e+05
   2.480093e+05   1.731741e+06
  -6.826201e+05   1.261732e+06
  -8.928860e+05  -1.651560e+05
  -4.283089e+05  -1.144618e+06
   2.103177e+05  -9.258240e+05
   5.484918e+05  -8.265636e+04
   4.450665e+05   3.458245e+05
   1.437086e+05   1.170912e+05
   5.109347e+04  -8.509762e+04
   3.051052e+05   3.028319e+05
   5.290037e+05   9.357717e+05
   1.879991e+05   1.031344e+06
  -7.127284e+05   3.885782e+05
  -1.440822e+06  -4.125067e+05
  -1.240170e+06  -7.738915e+05
  -1.930303e+05  -6.785874e+05
   7.966507e+05  -4.384850e+05
   9.410226e+05  -1.963504e+05
   3.677415e+05   6.087006e+04
  -1.271024e+05   2.281453e+05
  -5.326806e+04   1.794065e+05
   2.347082e+05   6.065069e+04
   6.551424e+04   1.292197e+05
  -6.074280e+05   2.691621e+05
  -1.025982e+06   2.889971e+04
  -4.868418e+05  -6.774561e+05
   7.585091e+05  -1.199429e+06
   1.659402e+06  -8.078693e+05
   1.432213e+06   3.672108e+05
   3.266446e+05   1.358890e+06
  -7.149639e+05   1.373583e+06
  -1.011500e+06   5.801910e+05
  -6.459109e+05  -1.858799e+05
  -1.561221e+05  -3.488555e+05
   4.256792e+04  -9.300839e+04
  -8.406160e+04  -5.756193e+03
  -2.870081e+05  -3.553282e+05
  -2.536105e+05  -7.771951e+05
   1.471424e+05  -6.769847e+05
   6.667993e+05   7.050920e+04
   7.784219e+05   8.842549e+05
   1.854491e+05   1.013705e+06
  -7.120177e+05   3.054082e+05
  -1.052332e+06  -6.375646e+05
  -4.005192e+05  -1.056720e+06
   6.710524e+05  -7.126332e+05
   1.112530e+06   2.656605e+04
   5.548464e+05   6.057211e+05
  -2.645594e+05   7.022416e+05
  -3.865356e+05   3.739134e+05
   2.130085e+05  -1.831379e+04
   6.248719e+05  -6.832483e+04
   1.635881e+05   3.034590e+05
  -7.802988e+05   6.868373e+05
  -1.231296e+06   5.419909e+05
  -7.761628e+05  -1.772778e+05
   6.264455e+04  -8.645793e+05
   5.383611e+05  -8.622471e+05
   4.457247e+05  -1.900203e+05
   8.956145e+04   4.555638e+05
  -2.146625e+05   4.522101e+05
  -3.527457e+05  -1.013153e+05
  -2.741931e+05  -5.535641e+05
   3.279697e+04  -4.469988e+05
   3.869405e+05   1.626922e+04
   4.808005e+05   2.785198e+05
   2.369030e+05   1.034679e+05
  -4.953727e+04  -1.711121e+05
  -7.360850e+04  -8.704750e+04
   6.977664e+04   3.333027e+05
   2.449184e+04   5.824917e+05
  -2.944172e+05   2.834086e+05
  -5.082584e+05  -3.243325e+05
  -2.322524e+05  -6.313254e+05
   3.735823e+05  -3.407771e+05
   6.834315e+05   2.302663e+05
   2.882530e+05   5.403592e+05
  -4.909739e+05   3.794817e+05
  -8.852234e+05  -2.848701e+04
  -4.918203e+05  -3.506612e+05
   2.751937e+05  -4.254506e+05
   6.283631e+05  -2.748353e+05
   2.689486e+05  -2.832511e+04
  -3.057088e+05   1.118827e+05
  -3.933658e+05  -8.572298e+03
   1.205717e+05  -2.752846e+05
   6.687268e+05  -3.045648e+05
