
 $NMID
 id='ANONYMOUS ', fmtdat='(2E16.6)'
 volume=1.0
 tramp=1.0
 $END
   2.788689e+07  -1.724319e+05
   1.839509e+07   1.400590e+07
  -7.291441e+05   1.804247e+07
  -1.245770e+07   1.082714e+07
  -9.796039e+06   1.362733e+05
  -1.472094e+05  -4.983603e+06
   5.545465e+06  -1.843491e+06
   3.672684e+06   4.601534e+06
  -1.722947e+06   7.075766e+06
  -5.176504e+06   2.932841e+06
  -4.325208e+06  -3.495686e+06
  -5.498977e+05  -5.526152e+06
   2.541581e+06  -1.260188e+06
   1.972281e+06   4.402779e+06
  -1.703350e+06   5.216790e+06
  -4.557848e+06   2.949887e+05
  -3.254228e+06  -5.420948e+06
   1.367801e+06  -6.775081e+06
   5.271060e+06  -3.282329e+06
   5.440000e+06   1.451820e+06
   2.553855e+06   3.852975e+06
  -1.984941e+05   3.342663e+06
  -3.810084e+05   1.987754e+06
   1.397974e+06   1.981836e+06
   2.082564e+06   3.394560e+06
  -5.729475e+05   4.186746e+06
  -5.031158e+06   2.563176e+06
  -6.972211e+06  -7.914061e+05
  -4.010695e+06  -3.240150e+06
   1.196196e+06  -2.936611e+06
   3.636873e+06  -5.638632e+05
   1.474851e+06   1.616872e+06
  -2.277744e+06   1.822966e+06
  -3.621692e+06  -1.056477e+05
  -1.813568e+06  -2.685018e+06
   7.435524e+05  -3.640381e+06
   1.707492e+06  -1.816668e+06
   8.893077e+05   1.132731e+06
  -3.038630e+05   1.946660e+06
  -4.807849e+05  -3.952436e+05
   6.251489e+05  -2.902778e+06
   1.929172e+06  -2.054270e+06
   1.825876e+06   1.471911e+06
  -1.574519e+05   3.335328e+06
  -2.404785e+06   1.015811e+06
  -2.463579e+06  -2.956173e+06
   3.563656e+05  -4.146768e+06
   3.856071e+06  -1.373049e+06
   4.806598e+06   2.471922e+06
   2.078292e+06   4.005024e+06
  -2.114769e+06   2.494901e+06
  -4.184991e+06  -2.723123e+05
  -2.544445e+06  -2.016975e+06
   9.015248e+05  -1.669837e+06
   2.732012e+06   3.936084e+04
   1.524163e+06   1.283829e+06
  -8.385691e+05   8.697275e+05
  -1.510127e+06  -5.290547e+05
   4.019307e+04  -1.178164e+06
   1.608276e+06  -3.143219e+05
   1.022412e+06   1.067746e+06
  -1.294296e+06   1.446666e+06
  -2.835639e+06   2.757142e+05
  -1.744195e+06  -1.752962e+06
   1.333615e+06  -3.291532e+06
   3.988046e+06  -3.041835e+06
   4.323514e+06  -6.664616e+05
   2.503894e+06   2.499096e+06
   2.901485e+05   4.227072e+06
  -7.808192e+05   3.550019e+06
  -7.275774e+05   1.802815e+06
  -7.031558e+05   9.187165e+05
  -1.450018e+06   1.036819e+06
  -2.430179e+06   6.400996e+05
  -2.500647e+06  -1.012260e+06
  -1.195714e+06  -2.578453e+06
   7.674422e+05  -2.225067e+06
   2.045000e+06   5.470108e+04
   1.646552e+06   2.306383e+06
  -2.870867e+05   2.618436e+06
  -2.384845e+06   8.653058e+05
  -2.993005e+06  -1.437527e+06
  -1.679955e+06  -2.647607e+06
   2.584328e+05  -2.332388e+06
   1.190475e+06  -1.359761e+06
   1.009298e+06  -8.220130e+05
   1.102771e+06  -8.876924e+05
   2.328735e+06  -7.414933e+05
   3.591708e+06   3.730586e+05
   2.984745e+06   2.189818e+06
   1.773522e+05   3.540150e+06
  -2.882033e+06   3.340674e+06
  -3.823681e+06   1.514314e+06
  -2.181653e+06  -8.220875e+05
   2.666083e+05  -2.069995e+06
   1.329245e+06  -1.440671e+06
   4.321762e+05   1.978835e+05
  -1.088062e+06   1.044342e+06
  -1.533720e+06   2.795405e+05
  -5.677258e+05  -9.612252e+05
   6.083394e+05  -9.751531e+05
   6.578474e+05   2.945151e+05
  -4.869164e+05   1.064815e+06
  -1.623199e+06  -8.065316e+04
  -1.478229e+06  -2.329470e+06
   1.667873e+05  -3.434728e+06
   2.308445e+06  -2.146361e+06
   3.451557e+06   5.543715e+05
   2.713397e+06   2.565114e+06
   6.085965e+05   2.652053e+06
  -1.231886e+06   1.328390e+06
  -1.481636e+06   8.985280e+04
  -4.352106e+05  -4.284115e+04
   3.260010e+05   6.503559e+05
  -2.492221e+05   1.059806e+06
  -1.449230e+06   4.974863e+05
  -1.682146e+06  -5.709522e+05
  -4.492025e+05  -1.084269e+06
   9.726407e+05  -5.691571e+05
   9.529889e+05   3.793837e+05
  -6.289932e+05   7.466180e+05
  -2.171260e+06   6.836939e+04
  -1.979103e+06  -1.194530e+06
  -1.041187e+03  -2.039289e+06
   2.085874e+06  -1.696962e+06
   2.498413e+06  -3.163813e+05
   1.053798e+06   1.009564e+06
  -7.261889e+05   1.156762e+06
  -1.174110e+06   1.306537e+05
  -7.352394e+04  -8.406691e+05
   1.291886e+06  -6.108002e+05
   1.534193e+06   5.905401e+05
   4.797018e+05   1.437220e+06
  -8.148015e+05   1.048664e+06
  -1.168442e+06  -5.141421e+04
  -3.843079e+05  -6.180773e+05
   5.952027e+05  -8.669043e+04
   6.026942e+05   8.960613e+05
  -5.551878e+05   1.219799e+06
  -1.785373e+06   4.105531e+05
  -1.757442e+06  -9.589751e+05
  -3.367863e+05  -1.797703e+06
   1.198244e+06  -1.447901e+06
   1.493800e+06  -2.604019e+05
   5.200879e+05   7.268539e+05
  -5.397322e+05   7.594563e+05
  -6.624029e+05   5.579081e+04
   2.142297e+04  -5.067701e+05
   5.889340e+05  -3.743366e+05
   4.100478e+05   1.165519e+05
  -2.478384e+05   1.994544e+05
  -5.571433e+05  -3.826075e+05
   2.607779e+04  -1.017687e+06
   1.164832e+06  -8.396112e+05
   1.841678e+06   3.326091e+05
   1.288684e+06   1.705686e+06
  -1.946849e+05   2.188854e+06
  -1.461202e+06   1.395379e+06
  -1.645929e+06  -4.508916e+03
  -9.736240e+05  -9.308585e+05
  -3.428497e+05  -9.009361e+05
  -2.528470e+05  -3.886289e+05
  -3.587956e+05  -1.983548e+05
  -5.696311e+04  -5.464198e+05
   7.120334e+05  -8.420696e+05
   1.330631e+06  -4.016175e+05
   1.085840e+06   6.808769e+05
  -1.249511e+05   1.472648e+06
  -1.553195e+06   1.081669e+06
  -2.073839e+06  -3.933499e+05
  -1.114031e+06  -1.837061e+06
   7.395904e+05  -2.099581e+06
   2.146874e+06  -1.037166e+06
   2.177062e+06   4.159444e+05
   1.089275e+06   1.188461e+06
  -5.926069e+04   1.046737e+06
  -4.926314e+05   6.371632e+05
  -3.280300e+05   6.413166e+05
  -2.157492e+05   1.000217e+06
  -5.495360e+05   1.027354e+06
  -1.068690e+06   2.455636e+05
  -1.151303e+06  -9.794459e+05
  -4.722521e+05  -1.699051e+06
   5.799032e+05  -1.279939e+06
   1.163960e+06  -2.989694e+04
   7.713442e+05   1.068680e+06
  -2.231555e+05   1.234364e+06
  -8.952327e+05   5.133011e+05
  -7.109828e+05  -3.929597e+05
  -5.116265e+04  -8.348467e+05
   2.797430e+05  -7.295967e+05
  -3.041332e+03  -4.535094e+05
  -3.476521e+05  -3.427487e+05
  -2.833924e+04  -3.595100e+05
   9.550427e+05  -2.148461e+05
   1.742360e+06   2.531832e+05
   1.440858e+06   8.561748e+05
   8.983016e+04   1.188897e+06
  -1.271645e+06   9.774955e+05
  -1.582640e+06   3.373440e+05
  -7.926241e+05  -2.784121e+05
   1.657616e+05  -4.320943e+05
   4.139672e+05  -9.805025e+04
  -2.043665e+04   2.759503e+05
  -4.472578e+05   1.986017e+05
  -4.087812e+05  -3.090268e+05
  -1.021825e+05  -6.768599e+05
   2.938867e+04  -4.326923e+05
  -1.389571e+05   1.673573e+05
  -3.463028e+05   3.611711e+05
  -2.696063e+05  -1.952800e+05
   1.893054e+05  -9.203873e+05
   7.994783e+05  -9.269920e+05
   1.073519e+06  -7.662656e+04
   6.169016e+05   8.199585e+05
  -3.715500e+05   9.037100e+05
  -1.039936e+06   1.835539e+05
  -6.334732e+05  -5.529201e+05
   5.992704e+05  -6.031711e+05
   1.476633e+06   2.392035e+04
   1.059577e+06   7.485504e+05
  -3.214276e+05   9.885706e+05
  -1.382594e+06   5.938592e+05
  -1.217193e+06  -8.901676e+04
  -1.802787e+05  -4.922772e+05
   5.713535e+05  -2.976065e+05
   3.066748e+05   2.266252e+05
  -5.809363e+05   4.067808e+05
  -1.047181e+06  -1.664759e+05
  -4.876426e+05  -1.106297e+06
   6.648204e+05  -1.477012e+06
   1.398370e+06  -7.046530e+05
   1.118754e+06   7.366142e+05
   1.519926e+05   1.646542e+06
  -6.837684e+05   1.227441e+06
  -8.611881e+05  -9.443033e+04
  -4.593947e+05  -1.075711e+06
   1.113202e+05  -9.358113e+05
   4.829735e+05  -1.149213e+05
   4.897647e+05   3.648318e+05
   2.239561e+05   1.541160e+05
   1.587154e+04  -1.114926e+05
   1.424485e+05   2.116012e+05
   4.143528e+05   8.548732e+05
   2.585272e+05   1.000856e+06
  -5.443497e+05   3.749696e+05
  -1.350208e+06  -4.360271e+05
  -1.243543e+06  -7.719652e+05
  -1.744350e+05  -6.167553e+05
   8.530854e+05  -3.615018e+05
   9.240604e+05  -1.856524e+05
   2.645015e+05   2.637166e+03
  -1.632577e+05   1.937964e+05
   5.327914e+04   2.341158e+05
   3.317692e+05   1.437655e+05
   7.116538e+03   1.255866e+05
  -7.014930e+05   1.650110e+05
  -9.332466e+05  -5.271245e+04
  -2.443959e+05  -6.102976e+05
   8.642150e+05  -9.920491e+05
   1.480877e+06  -5.923158e+05
   1.151075e+06   4.588870e+05
   1.897560e+05   1.289245e+06
  -6.880573e+05   1.201225e+06
  -9.519859e+05   4.073521e+05
  -5.996465e+05  -2.720092e+05
  -7.572975e+04  -3.227354e+05
   1.413242e+05  -1.739318e+03
  -4.678409e+04   7.683021e+04
  -3.092231e+05  -3.112081e+05
  -2.469363e+05  -7.350137e+05
   1.905213e+05  -5.903289e+05
   6.281206e+05   1.814794e+05
   5.959938e+05   9.279739e+05
  -9.287573e+03   9.193660e+05
  -7.326323e+05   1.254656e+05
  -8.904096e+05  -7.444065e+05
  -2.396895e+05  -9.824473e+05
   6.666438e+05  -5.355794e+05
   9.652397e+05   1.098578e+05
   4.230856e+05   5.024524e+05
  -2.620176e+05   5.304997e+05
  -2.790859e+05   3.099845e+05
   2.975279e+05   4.503020e+04
   6.063992e+05  -1.084544e+04
   1.012230e+05   2.647351e+05
  -7.573272e+05   6.086510e+05
  -1.083431e+06   5.251574e+05
  -6.116307e+05  -1.107727e+05
   1.079469e+05  -7.521829e+05
   4.460553e+05  -7.343971e+05
   3.094298e+05  -8.695262e+04
  -1.437381e+03   4.627230e+05
  -2.363320e+05   3.470398e+05
  -3.164755e+05  -2.063065e+05
  -2.077804e+05  -5.277496e+05
   7.114318e+04  -3.222802e+05
   3.477227e+05   7.703550e+04
   4.021348e+05   2.141558e+05
   2.179715e+05   4.940797e+04
   3.660979e+03  -8.194762e+04
  -7.721111e+04   6.858441e+04
  -9.111456e+04   3.585349e+05
  -1.849588e+05   4.159572e+05
  -3.292767e+05   6.657515e+04
  -3.134126e+05  -4.272867e+05
  -9.166637e+03  -5.930363e+05
   4.072273e+05  -2.410415e+05
   5.470764e+05   3.080313e+05
   1.820307e+05   5.480298e+05
  -4.444522e+05   3.105306e+05
  -7.535182e+05  -1.143085e+05
  -4.044578e+05  -3.510879e+05
   2.709630e+05  -3.047799e+05
   5.603312e+05  -1.318646e+05
   1.732596e+05  -2.943833e+03
  -3.848575e+05  -2.364105e+03
  -3.920631e+05  -1.417122e+05
   2.194567e+05  -3.014102e+05
   7.743869e+05  -2.229376e+05
