
 $NMID
 id='ANONYMOUS ', fmtdat='(2E16.6)'
 volume=1.0
 tramp=1.0
 $END
  -1.576442e+07   1.997288e+06
  -1.187528e+07  -6.730052e+06
  -1.071004e+06  -1.061412e+07
   6.745180e+06  -7.304846e+06
   6.110072e+06  -6.871968e+05
   4.579111e+05   3.078431e+06
  -3.385455e+06   1.447802e+06
  -2.536604e+06  -2.660040e+06
   7.674062e+05  -4.426823e+06
   3.018026e+06  -2.049923e+06
   2.666335e+06   1.825760e+06
   5.153172e+05   3.172163e+06
  -1.368713e+06   8.027451e+05
  -1.211895e+06  -2.532088e+06
   8.741197e+05  -3.183802e+06
   2.720400e+06  -4.307322e+05
   2.204731e+06   3.006982e+06
  -4.219901e+05   4.034054e+06
  -2.820102e+06   2.187226e+06
  -3.113929e+06  -4.893159e+05
  -1.645160e+06  -1.911504e+06
  -2.163594e+05  -1.780173e+06
  -1.102886e+05  -1.246333e+06
  -9.456146e+05  -1.378198e+06
  -1.156831e+06  -2.102904e+06
   3.685475e+05  -2.409807e+06
   2.836842e+06  -1.480847e+06
   3.956438e+06   3.286120e+05
   2.347402e+06   1.690840e+06
  -5.998197e+05   1.581091e+06
  -2.006971e+06   2.842190e+05
  -7.312219e+05  -9.268678e+05
   1.448369e+06  -9.768131e+05
   2.127036e+06   1.781725e+05
   9.660251e+05   1.594119e+06
  -4.653010e+05   2.040628e+06
  -8.716340e+05   1.023209e+06
  -3.951427e+05  -5.363264e+05
   1.164829e+05  -9.689457e+05
   1.158002e+05   2.703192e+05
  -4.296232e+05   1.654321e+06
  -1.112320e+06   1.236308e+06
  -1.177245e+06  -7.885951e+05
  -1.482287e+05  -2.054941e+06
   1.309228e+06  -9.064814e+05
   1.654891e+06   1.468313e+06
   1.208871e+05   2.443389e+06
  -2.116937e+06   1.020911e+06
  -2.912014e+06  -1.271824e+06
  -1.361439e+06  -2.332671e+06
   1.205040e+06  -1.555829e+06
   2.528293e+06   6.522922e+04
   1.600583e+06   1.169795e+06
  -4.630910e+05   1.077279e+06
  -1.630154e+06   1.164180e+05
  -9.860335e+05  -6.984667e+05
   4.407657e+05  -5.614271e+05
   9.193338e+05   2.878506e+05
  -1.239611e+04   7.910460e+05
  -1.071245e+06   2.926591e+05
  -8.052678e+05  -6.873613e+05
   6.530304e+05  -1.068430e+06
   1.724520e+06  -3.647516e+05
   1.162695e+06   9.441879e+05
  -6.480000e+05   1.920555e+06
  -2.210513e+06   1.808592e+06
  -2.430694e+06   4.839405e+05
  -1.464495e+06  -1.321010e+06
  -2.783603e+05  -2.401443e+06
   3.595147e+05  -2.136631e+06
   4.495028e+05  -1.146134e+06
   5.112022e+05  -5.298121e+05
   8.963662e+05  -5.064220e+05
   1.373637e+06  -2.875055e+05
   1.377871e+06   6.099480e+05
   6.356933e+05   1.480818e+06
  -4.809787e+05   1.258658e+06
  -1.200209e+06  -7.520535e+04
  -9.508633e+05  -1.366231e+06
   1.592058e+05  -1.516212e+06
   1.344437e+06  -5.128827e+05
   1.708625e+06   7.583133e+05
   1.023069e+06   1.431843e+06
  -3.322140e+04   1.312881e+06
  -5.852608e+05   8.396631e+05
  -5.451181e+05   5.578480e+05
  -6.477649e+05   5.758997e+05
  -1.376579e+06   4.813845e+05
  -2.124011e+06  -1.648593e+05
  -1.782547e+06  -1.247680e+06
  -1.401419e+05  -2.075910e+06
   1.657813e+06  -1.972522e+06
   2.206297e+06  -8.950712e+05
   1.245877e+06   4.653774e+05
  -1.623063e+05   1.178457e+06
  -7.581628e+05   8.197691e+05
  -2.411239e+05  -1.119052e+05
   6.243148e+05  -6.081223e+05
   8.878798e+05  -1.863179e+05
   3.422691e+05   5.372676e+05
  -3.528617e+05   5.657433e+05
  -4.008107e+05  -1.873080e+05
   2.989073e+05  -6.772282e+05
   1.034757e+06   2.595850e+03
   9.690412e+05   1.404747e+06
  -7.028432e+04   2.125201e+06
  -1.416145e+06   1.345394e+06
  -2.099804e+06  -3.213588e+05
  -1.619952e+06  -1.543647e+06
  -3.550944e+05  -1.576737e+06
   7.191552e+05  -7.780404e+05
   8.620781e+05  -5.348895e+04
   2.554991e+05   2.212524e+04
  -1.979980e+05  -3.789179e+05
   1.238807e+05  -6.292522e+05
   8.378914e+05  -3.222119e+05
   1.005478e+06   3.057591e+05
   2.897459e+05   6.365832e+05
  -5.685981e+05   3.495870e+05
  -5.690552e+05  -2.265165e+05
   3.812746e+05  -4.603530e+05
   1.306919e+06  -4.789812e+04
   1.182535e+06   7.195764e+05
  -8.185614e+02   1.221886e+06
  -1.229971e+06   1.014378e+06
  -1.470172e+06   2.032880e+05
  -6.343906e+05  -5.791894e+05
   4.004306e+05  -6.865317e+05
   6.790348e+05  -1.016021e+05
   5.660481e+04   4.808054e+05
  -7.478011e+05   3.716144e+05
  -9.132606e+05  -3.322126e+05
  -3.003622e+05  -8.534139e+05
   4.801244e+05  -6.398530e+05
   7.062008e+05   1.830822e+04
   2.422520e+05   3.709401e+05
  -3.472633e+05   6.645754e+04
  -3.617783e+05  -5.143509e+05
   3.132814e+05  -7.137520e+05
   1.037245e+06  -2.517598e+05
   1.033780e+06   5.455722e+05
   2.145979e+05   1.049970e+06
  -6.886747e+05   8.645687e+05
  -8.796257e+05   1.693733e+05
  -3.171622e+05  -4.275603e+05
   3.129129e+05  -4.553523e+05
   3.905246e+05  -2.996882e+04
  -2.043357e+04   3.094074e+05
  -3.616019e+05   2.174302e+05
  -2.453466e+05  -9.078802e+04
   1.605804e+05  -1.383463e+05
   3.490781e+05   2.217521e+05
  -4.212560e+02   6.080808e+05
  -6.782926e+05   5.068848e+05
  -1.084568e+06  -1.797742e+05
  -7.692816e+05  -9.887933e+05
   1.013655e+05  -1.285959e+06
   8.590813e+05  -8.312657e+05
   9.786272e+05  -6.964399e+02
   5.732808e+05   5.606582e+05
   1.831097e+05   5.411155e+05
   1.297832e+05   2.182859e+05
   2.117433e+05   9.511804e+04
   4.678670e+04   3.136680e+05
  -4.130042e+05   5.048994e+05
  -7.873634e+05   2.442740e+05
  -6.422669e+05  -4.052167e+05
   7.430169e+04  -8.771777e+05
   9.137378e+05  -6.469933e+05
   1.223740e+06   2.207019e+05
   6.723370e+05   1.076529e+06
  -4.128772e+05   1.249165e+06
  -1.257494e+06   6.369253e+05
  -1.296415e+06  -2.297713e+05
  -6.552155e+05  -7.085309e+05
   3.999565e+04  -6.308286e+05
   3.038105e+05  -3.709550e+05
   1.935262e+05  -3.564838e+05
   1.100398e+05  -5.729952e+05
   3.037548e+05  -6.065587e+05
   6.192281e+05  -1.572236e+05
   6.794370e+05   5.634027e+05
   2.874028e+05   9.913725e+05
  -3.316620e+05   7.526488e+05
  -6.855375e+05   2.550161e+04
  -4.675826e+05  -6.225892e+05
   1.173153e+05  -7.353097e+05
   5.291738e+05  -3.237226e+05
   4.378440e+05   2.170930e+05
   5.111938e+04   4.982727e+05
  -1.550475e+05   4.469957e+05
   8.153364e+02   2.751474e+05
   2.012137e+05   1.969740e+05
   1.658179e+04   2.090798e+05
  -5.584764e+05   1.388892e+05
  -1.023505e+06  -1.271800e+05
  -8.562924e+05  -4.895945e+05
  -7.261147e+04  -7.034988e+05
   7.307025e+05  -5.926613e+05
   9.314867e+05  -2.160756e+05
   4.817449e+05   1.563387e+05
  -8.587571e+04   2.574740e+05
  -2.462058e+05   6.597504e+04
   3.818328e+03  -1.547692e+05
   2.603203e+05  -1.140151e+05
   2.407615e+05   1.770527e+05
   5.755254e+04   3.871480e+05
  -1.860757e+04   2.446578e+05
   8.776535e+04  -1.003237e+05
   2.118838e+05  -2.093220e+05
   1.607180e+05   1.141002e+05
  -1.104063e+05   5.366369e+05
  -4.600229e+05   5.480083e+05
  -6.170015e+05   6.123974e+04
  -3.618737e+05  -4.645902e+05
   2.022666e+05  -5.282556e+05
   5.957618e+05  -1.174099e+05
   3.708932e+05   3.195898e+05
  -3.484874e+05   3.608595e+05
  -8.732844e+05  -6.924347e+03
  -6.337354e+05  -4.446324e+05
   1.869602e+05  -5.947681e+05
   8.222755e+05  -3.595659e+05
   7.251958e+05   5.088311e+04
   1.083845e+05   2.936880e+05
  -3.374808e+05   1.812661e+05
  -1.832042e+05  -1.262451e+05
   3.345808e+05  -2.352984e+05
   6.064558e+05   9.287730e+04
   2.849503e+05   6.372667e+05
  -3.808133e+05   8.567443e+05
  -8.100382e+05   4.130486e+05
  -6.554403e+05  -4.261268e+05
  -9.518738e+04  -9.632797e+05
   3.994800e+05  -7.247914e+05
   5.122328e+05   5.016312e+04
   2.784458e+05   6.342468e+05
  -6.173058e+04   5.593313e+05
  -2.849762e+05   7.389678e+04
  -2.898569e+05  -2.179045e+05
  -1.325132e+05  -9.679387e+04
  -9.867928e+03   6.897186e+04
  -8.559243e+04  -1.114373e+05
  -2.480569e+05  -4.942297e+05
  -1.585159e+05  -5.942147e+05
   3.149112e+05  -2.328748e+05
   7.938350e+05   2.499626e+05
   7.357958e+05   4.538424e+05
   1.074368e+05   3.608080e+05
  -4.998091e+05   2.089510e+05
  -5.440791e+05   1.119699e+05
  -1.568675e+05   7.260580e+03
   9.494177e+04  -1.114318e+05
  -3.139318e+04  -1.466833e+05
  -1.935473e+05  -9.295877e+04
  -2.927582e+03  -7.012582e+04
   4.098752e+05  -8.945191e+04
   5.430530e+05   2.586444e+04
   1.425472e+05   3.422420e+05
  -4.982634e+05   5.743273e+05
  -8.541624e+05   3.574729e+05
  -6.661970e+05  -2.535391e+05
  -1.146820e+05  -7.499885e+05
   3.922326e+05  -7.069998e+05
   5.483544e+05  -2.408525e+05
   3.475069e+05   1.590465e+05
   4.460217e+04   1.843525e+05
  -8.041205e+04  -7.823364e+03
   3.171235e+04  -5.027473e+04
   1.866045e+05   1.832927e+05
   1.496765e+05   4.317988e+05
  -1.070361e+05   3.435475e+05
  -3.628525e+05  -1.067324e+05
  -3.453773e+05  -5.363340e+05
   3.497065e+03  -5.275262e+05
   4.213792e+05  -6.873990e+04
   5.153740e+05   4.307087e+05
   1.432483e+05   5.670967e+05
  -3.811310e+05   3.124021e+05
  -5.603241e+05  -5.614783e+04
  -2.534155e+05  -2.842976e+05
   1.425602e+05  -3.086920e+05
   1.568338e+05  -1.885770e+05
  -1.742047e+05  -3.348148e+04
  -3.537349e+05   6.902185e+03
  -6.084417e+04  -1.509661e+05
   4.403832e+05  -3.598719e+05
   6.333390e+05  -3.210299e+05
   3.607671e+05   5.176137e+04
  -5.651473e+04   4.380916e+05
  -2.511226e+05   4.365715e+05
  -1.718540e+05   5.759154e+04
   3.232195e+03  -2.675644e+05
   1.328081e+05  -2.007733e+05
   1.793577e+05   1.220629e+05
   1.232847e+05   3.061960e+05
  -3.453805e+04   1.842367e+05
  -2.003753e+05  -4.414265e+04
  -2.396571e+05  -1.187623e+05
  -1.317210e+05  -2.598838e+04
   2.172460e+03   4.229745e+04
   5.562845e+04  -4.501425e+04
   5.956707e+04  -2.022233e+05
   1.039522e+05  -2.274800e+05
   1.813655e+05  -3.120246e+04
   1.733814e+05   2.422411e+05
   2.282936e+03   3.346132e+05
  -2.345928e+05   1.378821e+05
  -3.144674e+05  -1.744413e+05
  -1.047659e+05  -3.166172e+05
   2.560455e+05  -1.850603e+05
   4.356514e+05   6.022262e+04
   2.368117e+05   2.009639e+05
  -1.515401e+05   1.771466e+05
  -3.194033e+05   7.900893e+04
  -9.785839e+04   7.438745e+03
   2.222246e+05   9.170385e+03
   2.231535e+05   8.684000e+04
  -1.336498e+05   1.727741e+05
  -4.547306e+05   1.237695e+05
