
 $NMID
 id='ANONYMOUS ', fmtdat='(2E16.6)'
 volume=1.0
 tramp=1.0
 $END
  -4.481670e+07   2.850603e+05
  -2.797652e+07  -2.609380e+07
   4.312789e+06  -3.005337e+07
   2.142807e+07  -1.354689e+07
   1.406547e+07   3.805649e+06
  -1.718584e+06   7.676026e+06
  -8.223642e+06   2.498729e+05
  -3.381780e+06  -7.710142e+06
   4.304985e+06  -8.691416e+06
   7.922507e+06  -2.568695e+06
   6.006151e+06   5.135281e+06
   7.280753e+05   7.467765e+06
  -3.432972e+06   2.147608e+06
  -2.392226e+06  -5.159990e+06
   2.950769e+06  -6.187565e+06
   6.621822e+06   5.895659e+05
   4.075383e+06   8.321961e+06
  -2.756749e+06   9.881230e+06
  -8.173668e+06   4.908166e+06
  -8.649456e+06  -1.809484e+06
  -4.947246e+06  -5.986410e+06
  -3.545534e+05  -6.411544e+06
   1.744823e+06  -4.380076e+06
   3.632350e+05  -2.550944e+06
  -1.554355e+06  -2.897963e+06
   1.915137e+05  -4.327263e+06
   5.436262e+06  -3.629373e+06
   8.713753e+06   1.350657e+05
   5.844141e+06   3.845370e+06
  -4.211753e+05   4.191028e+06
  -3.787997e+06   1.665861e+06
  -2.036471e+06  -7.691209e+05
   1.482759e+06  -1.346514e+06
   3.017339e+06  -1.505872e+05
   2.050940e+06   2.122434e+06
  -1.078079e+04   3.927129e+06
  -1.815625e+06   3.012680e+06
  -2.199348e+06  -5.694701e+05
  -8.165734e+05  -2.919649e+06
   6.119439e+05  -8.741748e+05
  -1.590276e+05   2.750968e+06
  -2.327669e+06   2.266685e+06
  -2.268081e+06  -2.496501e+06
   1.403532e+06  -5.066496e+06
   5.032696e+06  -1.118731e+06
   4.077068e+06   5.253214e+06
  -1.199288e+06   6.768530e+06
  -5.990961e+06   2.029137e+06
  -6.202735e+06  -3.690458e+06
  -2.026981e+06  -5.329736e+06
   2.984074e+06  -2.724500e+06
   4.981601e+06   1.007654e+06
   2.599382e+06   2.953357e+06
  -1.779818e+06   2.057492e+06
  -3.859147e+06  -5.218382e+05
  -1.846168e+06  -2.141193e+06
   1.355339e+06  -1.193010e+06
   1.708433e+06   8.386355e+05
  -7.648535e+05   1.111659e+06
  -2.203766e+06  -8.131701e+05
  -2.007766e+05  -2.467059e+06
   3.198967e+06  -1.811085e+06
   4.360196e+06   6.000427e+05
   2.160107e+06   3.070449e+06
  -1.658444e+06   4.521065e+06
  -4.735628e+06   4.141377e+06
  -5.537288e+06   1.274255e+06
  -3.745931e+06  -2.964813e+06
  -6.523118e+05  -5.481942e+06
   1.432810e+06  -4.398341e+06
   1.371623e+06  -1.578371e+06
   4.792567e+05  -2.935218e+05
   7.147468e+05  -9.990079e+05
   2.063890e+06  -1.253118e+06
   2.744618e+06   3.891581e+05
   1.666483e+06   2.330845e+06
  -3.872884e+05   2.255474e+06
  -1.856785e+06   5.506959e+04
  -1.707224e+06  -2.300276e+06
   1.620007e+05  -2.903635e+06
   2.697847e+06  -1.322534e+06
   3.926271e+06   1.371785e+06
   2.602065e+06   3.374640e+06
  -1.377311e+05   3.483482e+06
  -1.838703e+06   2.183205e+06
  -1.741649e+06   1.046700e+06
  -1.576838e+06   8.140278e+05
  -2.792837e+06   6.093130e+05
  -4.182208e+06  -6.420565e+05
  -3.384780e+06  -2.644788e+06
  -1.225692e+05  -4.035983e+06
   3.233002e+06  -3.775828e+06
   4.206892e+06  -1.880624e+06
   2.530667e+06   6.530142e+05
   1.830879e+03   2.243815e+06
  -1.270216e+06   1.765168e+06
  -5.199182e+05  -1.154000e+05
   1.145268e+06  -1.227194e+06
   1.814532e+06  -3.497839e+05
   7.872693e+05   1.141275e+06
  -5.915032e+05   1.090593e+06
  -5.552970e+05  -3.718961e+05
   8.555375e+05  -9.104956e+05
   1.850257e+06   7.815910e+05
   1.068979e+06   3.126559e+06
  -1.023840e+06   3.608564e+06
  -2.935909e+06   1.648746e+06
  -3.544498e+06  -1.134511e+06
  -2.562347e+06  -2.843603e+06
  -5.109773e+05  -2.765158e+06
   1.312188e+06  -1.451573e+06
   1.605998e+06  -1.549356e+05
   4.891340e+05   5.113035e+04
  -3.522430e+05  -7.419280e+05
   3.631603e+05  -1.268623e+06
   1.782926e+06  -5.563926e+05
   1.960131e+06   7.929942e+05
   4.269966e+05   1.330171e+06
  -1.137068e+06   5.861247e+05
  -9.538197e+05  -4.539801e+05
   8.015859e+05  -6.428090e+05
   2.286290e+06   1.867946e+05
   1.920865e+06   1.378658e+06
  -1.749943e+05   2.099953e+06
  -2.337964e+06   1.725505e+06
  -2.780673e+06   2.765480e+05
  -1.189828e+06  -1.215634e+06
   8.795501e+05  -1.404392e+06
   1.452284e+06  -1.639344e+05
   1.446195e+05   1.015500e+06
  -1.487511e+06   6.983171e+05
  -1.707989e+06  -7.466304e+05
  -4.041957e+05  -1.638492e+06
   1.028764e+06  -1.049943e+06
   1.277909e+06   2.187834e+05
   3.164211e+05   7.474930e+05
  -7.393593e+05   6.503472e+04
  -6.955731e+05  -1.035834e+06
   6.090705e+05  -1.386332e+06
   2.002385e+06  -4.831532e+05
   1.989721e+06   1.078003e+06
   3.594681e+05   2.047958e+06
  -1.412707e+06   1.617867e+06
  -1.705129e+06   2.279062e+05
  -5.279072e+05  -8.498908e+05
   6.424833e+05  -8.146254e+05
   6.748796e+05  -6.209732e+04
  -9.022624e+04   4.432298e+05
  -5.669123e+05   2.815571e+05
  -2.558221e+05  -1.039973e+05
   3.867066e+05  -4.500366e+04
   5.593782e+05   5.816638e+05
  -1.473194e+05   1.168393e+06
  -1.360011e+06   8.972548e+05
  -2.065323e+06  -4.201790e+05
  -1.431399e+06  -1.941615e+06
   2.441584e+05  -2.425731e+06
   1.639548e+06  -1.452970e+06
   1.751330e+06   9.877445e+04
   9.386271e+05   9.706536e+05
   3.280039e+05   8.032891e+05
   3.882949e+05   3.084864e+05
   5.317506e+05   2.773674e+05
   7.394189e+04   7.019880e+05
  -8.557014e+05   9.087056e+05
  -1.471323e+06   3.553797e+05
  -1.105809e+06  -7.565406e+05
   2.284326e+05  -1.534858e+06
   1.742746e+06  -1.105258e+06
   2.268668e+06   4.936193e+05
   1.153952e+06   2.093231e+06
  -9.597435e+05   2.346587e+06
  -2.494544e+06   1.056741e+06
  -2.378275e+06  -6.070040e+05
  -1.046675e+06  -1.349482e+06
   1.650656e+05  -1.036984e+06
   4.657768e+05  -5.832920e+05
   2.033750e+05  -7.287599e+05
   1.685922e+05  -1.223121e+06
   6.565799e+05  -1.223527e+06
   1.253323e+06  -2.886687e+05
   1.302620e+06   1.097491e+06
   5.234872e+05   1.898261e+06
  -6.465315e+05   1.424526e+06
  -1.289939e+06  -2.139631e+03
  -8.188421e+05  -1.255115e+06
   3.475427e+05  -1.386123e+06
   1.103330e+06  -4.640905e+05
   8.014487e+05   6.002236e+05
  -5.846033e+04   1.018960e+06
  -4.543488e+05   7.933894e+05
  -5.545614e+04   4.532615e+05
   4.102795e+05   3.587545e+05
   4.357799e+04   3.910009e+05
  -1.117978e+06   2.108842e+05
  -2.011251e+06  -3.327529e+05
  -1.602220e+06  -1.020782e+06
  -4.244655e+03  -1.392093e+06
   1.530428e+06  -1.105681e+06
   1.808543e+06  -2.990242e+05
   8.519741e+05   4.298365e+05
  -2.346327e+05   5.326745e+05
  -4.936790e+05   5.950054e+04
  -7.362015e+03  -3.756203e+05
   4.674785e+05  -2.387194e+05
   4.683950e+05   3.473943e+05
   1.903758e+05   7.354748e+05
   4.035027e+04   4.785864e+05
   1.479214e+05  -1.292163e+05
   3.273811e+05  -3.296194e+05
   2.824852e+05   2.315183e+05
  -1.813041e+05   9.992937e+05
  -9.072043e+05   1.042915e+06
  -1.296805e+06   1.285469e+05
  -7.780722e+05  -9.195798e+05
   4.236359e+05  -1.083494e+06
   1.220128e+06  -2.753493e+05
   7.166981e+05   5.965895e+05
  -6.963386e+05   6.514473e+05
  -1.611508e+06  -8.723709e+04
  -1.064799e+06  -8.672333e+05
   4.493008e+05  -1.030428e+06
   1.524534e+06  -5.316737e+05
   1.280180e+06   1.722509e+05
   1.532412e+05   5.302100e+05
  -6.487296e+05   2.861397e+05
  -3.659251e+05  -2.813119e+05
   6.119669e+05  -4.894516e+05
   1.174409e+06   1.303410e+05
   6.128399e+05   1.204056e+06
  -6.590730e+05   1.674988e+06
  -1.517913e+06   8.357952e+05
  -1.246262e+06  -7.919532e+05
  -1.740312e+05  -1.810606e+06
   7.627517e+05  -1.314971e+06
   9.385778e+05   1.611107e+05
   4.484543e+05   1.201734e+06
  -1.976035e+05   9.957159e+05
  -5.561199e+05   9.416024e+04
  -4.897752e+05  -3.943926e+05
  -1.911443e+05  -1.527480e+05
  -3.936444e+04   1.057363e+05
  -2.369170e+05  -2.751729e+05
  -4.852552e+05  -9.664168e+05
  -2.136618e+05  -1.096232e+06
   6.828565e+05  -3.989660e+05
   1.482534e+06   4.868044e+05
   1.309571e+06   8.600801e+05
   1.821742e+05   6.980120e+05
  -8.905461e+05   4.050130e+05
  -1.003133e+06   1.808052e+05
  -3.404264e+05  -3.859618e+04
   1.591732e+05  -2.209937e+05
   7.830868e+03  -2.255986e+05
  -2.965893e+05  -1.205347e+05
  -3.542486e+04  -1.350484e+05
   7.020125e+05  -2.118153e+05
   1.045445e+06   3.454698e+04
   3.781612e+05   6.897178e+05
  -8.885953e+05   1.148711e+06
  -1.691647e+06   7.164761e+05
  -1.369891e+06  -4.646965e+05
  -2.451316e+05  -1.419475e+06
   7.784277e+05  -1.361695e+06
   1.057671e+06  -5.056277e+05
   6.573069e+05   2.595136e+05
   1.162948e+05   3.594181e+05
  -9.576457e+04   4.468598e+04
   7.439547e+04  -3.737122e+04
   3.118638e+05   3.656824e+05
   2.496019e+05   8.156225e+05
  -1.935937e+05   6.722429e+05
  -6.853106e+05  -1.498308e+05
  -7.110087e+05  -9.804169e+05
  -7.377989e+04  -1.029759e+06
   7.717549e+05  -2.119389e+05
   1.018613e+06   7.582588e+05
   3.197388e+05   1.094119e+06
  -7.256642e+05   6.516950e+05
  -1.107888e+06  -9.427644e+04
  -5.132910e+05  -6.014412e+05
   2.916157e+05  -6.536064e+05
   3.631242e+05  -3.614271e+05
  -2.704503e+05  -2.380186e+04
  -6.581634e+05   2.714107e+04
  -1.361093e+05  -3.055221e+05
   8.370239e+05  -6.746927e+05
   1.252903e+06  -5.468686e+05
   7.424647e+05   1.661910e+05
  -1.077389e+05   8.619964e+05
  -5.432684e+05   8.460195e+05
  -4.046212e+05   1.440769e+05
  -3.536705e+04  -4.892993e+05
   2.478299e+05  -4.216496e+05
   3.504714e+05   1.715825e+05
   2.451899e+05   5.827290e+05
  -6.073401e+04   4.095497e+05
  -3.898682e+05  -5.768477e+04
  -4.690356e+05  -2.724219e+05
  -2.437320e+05  -8.726508e+04
   2.485028e+04   1.343645e+05
   8.642493e+04   1.266355e+04
   2.065285e+04  -3.637612e+05
   9.153583e+04  -5.251368e+05
   3.299742e+05  -1.789497e+05
   4.270586e+05   4.051033e+05
   1.157654e+05   6.502454e+05
  -4.216547e+05   3.004433e+05
  -6.493412e+05  -2.987201e+05
  -2.376517e+05  -5.847140e+05
   5.073765e+05  -3.592089e+05
   8.726339e+05   9.242713e+04
   4.709852e+05   3.839432e+05
  -2.971764e+05   3.844662e+05
  -6.363575e+05   2.055953e+05
  -2.366918e+05   1.489119e+04
   3.661511e+05  -4.717195e+04
   4.133459e+05   8.984205e+04
  -1.899427e+05   3.002947e+05
  -7.756520e+05   2.599737e+05
