
 $NMID
 id='ANONYMOUS ', fmtdat='(2E16.6)'
 volume=1.0
 tramp=1.0
 $END
  -4.079887e+07  -9.438684e+05
  -2.465209e+07  -2.340125e+07
   4.113065e+06  -2.653789e+07
   1.898762e+07  -1.249514e+07
   1.254361e+07   2.628319e+06
  -1.259477e+06   6.748736e+06
  -7.292495e+06   7.582223e+05
  -3.440599e+06  -6.689804e+06
   3.414023e+06  -8.239902e+06
   7.083213e+06  -2.699805e+06
   5.619397e+06   4.828046e+06
   6.852305e+05   7.138744e+06
  -3.362846e+06   1.913152e+06
  -2.491146e+06  -5.131031e+06
   2.498853e+06  -6.063434e+06
   6.035223e+06   3.564212e+05
   3.821660e+06   7.615299e+06
  -2.493335e+06   9.081306e+06
  -7.583336e+06   4.374542e+06
  -7.910160e+06  -1.992479e+06
  -4.159449e+06  -5.743456e+06
   1.598877e+05  -5.678777e+06
   1.592320e+06  -3.487039e+06
  -3.305186e+05  -2.099862e+06
  -2.134500e+06  -3.054608e+06
   1.343852e+05  -4.624643e+06
   5.628969e+06  -3.646693e+06
   8.698346e+06   2.934115e+05
   5.549250e+06   3.914064e+06
  -7.996364e+05   4.143923e+06
  -4.110388e+06   1.509906e+06
  -2.170403e+06  -1.161968e+06
   1.702068e+06  -1.877381e+06
   3.481404e+06  -3.660221e+05
   2.320736e+06   2.401590e+06
  -1.427251e+05   4.203030e+06
  -1.972287e+06   2.792825e+06
  -1.965768e+06  -9.939160e+05
  -3.700142e+05  -2.911935e+06
   8.297120e+05  -4.311981e+05
  -1.604273e+05   3.086372e+06
  -2.223431e+06   2.361208e+06
  -2.139812e+06  -2.209946e+06
   1.092270e+06  -4.488139e+06
   4.254282e+06  -8.478255e+05
   3.473619e+06   4.785787e+06
  -1.131828e+06   6.019129e+06
  -5.533601e+06   1.760601e+06
  -5.961152e+06  -3.382756e+06
  -2.177874e+06  -4.994317e+06
   2.714562e+06  -2.770929e+06
   4.855736e+06   6.712803e+05
   2.686544e+06   2.622569e+06
  -1.514051e+06   1.929952e+06
  -3.566414e+06  -3.972035e+05
  -1.754744e+06  -1.898929e+06
   1.239984e+06  -1.097878e+06
   1.708880e+06   7.151271e+05
  -4.501942e+05   1.086298e+06
  -1.895670e+06  -4.263986e+05
  -3.635315e+05  -1.870408e+06
   2.615987e+06  -1.534734e+06
   3.854547e+06   3.800892e+05
   2.005583e+06   2.699990e+06
  -1.639603e+06   4.323398e+06
  -4.722639e+06   4.055913e+06
  -5.444529e+06   1.157866e+06
  -3.542250e+06  -3.016014e+06
  -5.814061e+05  -5.351492e+06
   1.198168e+06  -4.256635e+06
   1.056301e+06  -1.690757e+06
   4.350322e+05  -6.325677e+05
   9.774835e+05  -1.279661e+06
   2.395072e+06  -1.288953e+06
   2.973783e+06   5.535924e+05
   1.768413e+06   2.577048e+06
  -4.398049e+05   2.484683e+06
  -2.064162e+06   1.619161e+05
  -1.917149e+06  -2.356514e+06
   1.197792e+05  -3.000340e+06
   2.760660e+06  -1.304271e+06
   3.882301e+06   1.461675e+06
   2.422065e+06   3.341722e+06
  -2.499850e+05   3.267740e+06
  -1.747652e+06   1.947047e+06
  -1.543035e+06   9.563645e+05
  -1.418318e+06   8.765798e+05
  -2.709727e+06   7.558970e+05
  -4.172755e+06  -4.630314e+05
  -3.477151e+06  -2.514569e+06
  -2.734731e+05  -4.059420e+06
   3.164177e+06  -3.935395e+06
   4.276967e+06  -2.003197e+06
   2.617536e+06   6.921496e+05
  -1.451776e+04   2.368185e+06
  -1.341062e+06   1.825928e+06
  -5.416027e+05  -1.470218e+05
   1.162369e+06  -1.281318e+06
   1.808511e+06  -3.825755e+05
   7.717004e+05   1.143330e+06
  -5.995572e+05   1.146827e+06
  -6.346742e+05  -3.110285e+05
   6.755593e+05  -9.944232e+05
   1.761611e+06   4.947873e+05
   1.296590e+06   2.844350e+06
  -5.783901e+05   3.621136e+06
  -2.656183e+06   1.971426e+06
  -3.651464e+06  -7.893030e+05
  -2.873013e+06  -2.720230e+06
  -7.132315e+05  -2.832180e+06
   1.301173e+06  -1.545450e+06
   1.656526e+06  -2.020102e+05
   4.971653e+05   3.516779e+04
  -3.853227e+05  -7.361434e+05
   3.138594e+05  -1.258077e+06
   1.739378e+06  -5.941893e+05
   1.963506e+06   7.036243e+05
   4.815894e+05   1.285040e+06
  -1.112417e+06   6.438798e+05
  -1.021955e+06  -3.982490e+05
   7.201797e+05  -7.322048e+05
   2.330993e+06  -1.067309e+04
   2.096836e+06   1.263826e+06
  -8.261153e+03   2.171691e+06
  -2.283986e+06   1.894710e+06
  -2.808706e+06   4.047931e+05
  -1.229496e+06  -1.169032e+06
   8.467456e+05  -1.405986e+06
   1.426964e+06  -1.807105e+05
   1.439264e+05   1.015420e+06
  -1.478840e+06   7.471897e+05
  -1.749065e+06  -6.707527e+05
  -5.062847e+05  -1.617080e+06
   9.470110e+05  -1.123042e+06
   1.287018e+06   1.181980e+05
   3.758147e+05   7.098461e+05
  -7.196387e+05   8.974763e+04
  -7.310555e+05  -1.022531e+06
   5.795386e+05  -1.427158e+06
   2.023315e+06  -5.516205e+05
   2.051622e+06   1.031371e+06
   4.338362e+05   2.054726e+06
  -1.356850e+06   1.679517e+06
  -1.702197e+06   3.037027e+05
  -5.763903e+05  -8.247168e+05
   6.072041e+05  -8.556255e+05
   7.092143e+05  -9.801741e+04
  -2.840887e+04   4.866892e+05
  -5.732130e+05   3.740242e+05
  -3.421838e+05  -6.611267e+04
   3.167399e+05  -1.015483e+05
   5.811187e+05   5.040346e+05
  -7.296026e+04   1.158820e+06
  -1.323219e+06   9.629990e+05
  -2.103517e+06  -3.402198e+05
  -1.519146e+06  -1.911655e+06
   1.522870e+05  -2.477847e+06
   1.595552e+06  -1.569944e+06
   1.797411e+06  -9.159534e+03
   1.053201e+06   9.508358e+05
   4.191942e+05   8.667216e+05
   3.921998e+05   3.649224e+05
   4.933742e+05   2.686323e+05
   7.855280e+04   6.799195e+05
  -8.102423e+05   9.529325e+05
  -1.470246e+06   4.491745e+05
  -1.189434e+06  -7.103759e+05
   1.255668e+05  -1.590272e+06
   1.711046e+06  -1.220029e+06
   2.331448e+06   3.949012e+05
   1.270598e+06   2.058092e+06
  -8.486771e+05   2.394825e+06
  -2.448292e+06   1.178377e+06
  -2.432205e+06  -4.756728e+05
  -1.167018e+06  -1.296961e+06
   7.196745e+04  -1.088616e+06
   4.589657e+05  -6.711913e+05
   2.420965e+05  -7.753968e+05
   1.758956e+05  -1.226504e+06
   6.257953e+05  -1.232051e+06
   1.247016e+06  -3.200313e+05
   1.356474e+06   1.074043e+06
   5.990437e+05   1.912735e+06
  -6.086784e+05   1.473809e+06
  -1.309784e+06   5.657637e+04
  -8.798511e+05  -1.219131e+06
   2.726510e+05  -1.400921e+06
   1.049253e+06  -5.291543e+05
   8.027615e+05   5.271811e+05
   1.679486e+02   9.860083e+05
  -3.805445e+05   8.037018e+05
  -1.012563e+04   4.708415e+05
   4.261566e+05   3.631127e+05
   5.567038e+04   4.017239e+05
  -1.105830e+06   2.536831e+05
  -2.024610e+06  -2.634049e+05
  -1.655604e+06  -9.590116e+05
  -7.442042e+04  -1.375593e+06
   1.482626e+06  -1.152003e+06
   1.800764e+06  -3.859600e+05
   8.710765e+05   3.598079e+05
  -2.121726e+05   5.227463e+05
  -4.794209e+05   8.940121e+04
   3.116744e+03  -3.629318e+05
   4.815830e+05  -2.582327e+05
   4.832468e+05   3.387057e+05
   1.953703e+05   7.628138e+05
   3.217053e+04   5.007864e+05
   1.373760e+05  -1.583189e+05
   3.285988e+05  -3.844674e+05
   2.997093e+05   2.164867e+05
  -1.545122e+05   1.038125e+06
  -8.825975e+05   1.087281e+06
  -1.287921e+06   1.425774e+05
  -7.909825e+05  -9.237045e+05
   4.042518e+05  -1.088800e+06
   1.223756e+06  -2.860653e+05
   7.499650e+05   5.913251e+05
  -6.721281e+05   6.891413e+05
  -1.643961e+06  -4.976902e+03
  -1.149001e+06  -8.120451e+05
   3.756002e+05  -1.072516e+06
   1.514635e+06  -6.435861e+05
   1.322678e+06   9.038804e+04
   1.948754e+05   5.320738e+05
  -6.379148e+05   3.279120e+05
  -3.686190e+05  -2.680982e+05
   6.253856e+05  -5.136275e+05
   1.208040e+06   1.128157e+05
   6.464564e+05   1.227794e+06
  -6.474593e+05   1.732939e+06
  -1.540045e+06   8.928432e+05
  -1.301501e+06  -7.732459e+05
  -2.427219e+05  -1.846488e+06
   7.206211e+05  -1.383705e+06
   9.581359e+05   1.074410e+05
   5.205366e+05   1.194848e+06
  -1.313563e+05   1.023879e+06
  -5.502130e+05   1.242666e+05
  -5.347812e+05  -3.783198e+05
  -2.244811e+05  -1.448674e+05
  -2.535837e+04   1.115299e+05
  -2.156336e+05  -2.724249e+05
  -5.166202e+05  -9.665931e+05
  -2.855621e+05  -1.101716e+06
   6.506896e+05  -4.224285e+05
   1.533807e+06   4.397709e+05
   1.390159e+06   8.159703e+05
   2.121106e+05   6.979905e+05
  -9.142414e+05   4.535201e+05
  -1.019496e+06   2.331769e+05
  -3.248976e+05  -2.316886e+04
   1.635857e+05  -2.328492e+05
  -3.030869e+04  -2.298595e+05
  -3.397586e+05  -1.127836e+05
  -3.214928e+04  -1.431015e+05
   7.408406e+05  -2.450210e+05
   1.068138e+06   8.386610e+03
   3.694360e+05   7.052345e+05
  -8.993735e+05   1.198673e+06
  -1.692925e+06   7.602585e+05
  -1.388135e+06  -4.582945e+05
  -2.900360e+05  -1.448795e+06
   7.450485e+05  -1.402856e+06
   1.069758e+06  -5.338477e+05
   6.903149e+05   2.546892e+05
   1.197669e+05   3.678900e+05
  -1.258650e+05   4.513030e+04
   5.748990e+04  -5.374387e+04
   3.384734e+05   3.485697e+05
   2.923708e+05   8.182792e+05
  -1.831408e+05   6.896599e+05
  -7.180578e+05  -1.446697e+05
  -7.512200e+05  -1.001416e+06
  -7.976426e+04  -1.059591e+06
   8.077032e+05  -2.250245e+05
   1.067040e+06   7.669442e+05
   3.447913e+05   1.112666e+06
  -7.323404e+05   6.722101e+05
  -1.124786e+06  -7.341169e+04
  -5.209485e+05  -5.872838e+05
   2.857020e+05  -6.534050e+05
   3.414978e+05  -3.654018e+05
  -3.026787e+05  -1.301614e+04
  -6.780309e+05   4.845118e+04
  -1.388896e+05  -3.067779e+05
   8.304848e+05  -7.184414e+05
   1.233117e+06  -6.054514e+05
   7.319010e+05   1.394534e+05
  -8.870674e+04   8.750774e+05
  -5.122827e+05   8.616430e+05
  -3.942078e+05   1.328011e+05
  -4.465251e+04  -5.130662e+05
   2.495905e+05  -4.282108e+05
   3.742594e+05   1.828934e+05
   2.659612e+05   5.891119e+05
  -6.355457e+04   4.044429e+05
  -4.032704e+05  -5.571184e+04
  -4.732103e+05  -2.528918e+05
  -2.448406e+05  -6.903289e+04
   1.169655e+04   1.259329e+05
   7.178557e+04  -2.184764e+04
   3.066457e+04  -3.987983e+05
   1.273107e+05  -5.369656e+05
   3.622998e+05  -1.630060e+05
   4.341379e+05   4.373615e+05
   1.046835e+05   6.812228e+05
  -4.361376e+05   3.150647e+05
  -6.654413e+05  -3.047421e+05
  -2.546659e+05  -6.026572e+05
   5.020924e+05  -3.763751e+05
   8.862587e+05   8.232934e+04
   4.869168e+05   3.808688e+05
  -2.992303e+05   3.865873e+05
  -6.473123e+05   2.081643e+05
  -2.269474e+05   1.106818e+04
   4.028455e+05  -5.454387e+04
   4.449594e+05   9.715866e+04
  -1.959196e+05   3.351700e+05
  -8.139607e+05   3.035970e+05
