
 $NMID
 id='ANONYMOUS ', fmtdat='(2E16.6)'
 volume=1.0
 tramp=1.0
 $END
  -3.806839e+07  -1.194350e+06
  -2.303413e+07  -2.205308e+07
   3.940274e+06  -2.487715e+07
   1.799075e+07  -1.164542e+07
   1.191532e+07   2.572910e+06
  -1.217544e+06   6.392928e+06
  -6.963179e+06   6.568082e+05
  -3.214152e+06  -6.395657e+06
   3.364893e+06  -7.784689e+06
   6.747891e+06  -2.477111e+06
   5.195337e+06   4.606431e+06
   5.118599e+05   6.697143e+06
  -3.158300e+06   1.721663e+06
  -2.198951e+06  -4.880168e+06
   2.488432e+06  -5.685816e+06
   5.694856e+06   3.981295e+05
   3.506101e+06   7.200371e+06
  -2.437964e+06   8.498354e+06
  -7.131489e+06   4.013709e+06
  -7.339132e+06  -1.932748e+06
  -3.812591e+06  -5.350924e+06
   1.508976e+05  -5.246388e+06
   1.434457e+06  -3.279595e+06
  -3.018914e+05  -2.103725e+06
  -1.867619e+06  -2.998177e+06
   2.943990e+05  -4.316281e+06
   5.348920e+06  -3.233275e+06
   8.097871e+06   4.866901e+05
   5.088055e+06   3.749701e+06
  -8.314565e+05   3.793894e+06
  -3.843939e+06   1.259588e+06
  -1.929225e+06  -1.148572e+06
   1.718696e+06  -1.653505e+06
   3.279813e+06  -1.668168e+05
   2.047968e+06   2.337042e+06
  -2.833961e+05   3.889611e+06
  -1.871611e+06   2.540659e+06
  -1.749427e+06  -9.241271e+05
  -2.904982e+05  -2.657378e+06
   7.034337e+05  -3.638569e+05
  -2.844034e+05   2.866475e+06
  -2.157643e+06   2.163498e+06
  -1.996475e+06  -2.111181e+06
   1.051111e+06  -4.244084e+06
   3.984944e+06  -8.263889e+05
   3.229411e+06   4.479710e+06
  -1.086721e+06   5.639980e+06
  -5.190316e+06   1.593559e+06
  -5.547760e+06  -3.284688e+06
  -1.958711e+06  -4.762160e+06
   2.627350e+06  -2.563998e+06
   4.583254e+06   7.442756e+05
   2.494507e+06   2.548891e+06
  -1.456472e+06   1.815545e+06
  -3.357487e+06  -4.193221e+05
  -1.635067e+06  -1.816136e+06
   1.177318e+06  -1.018485e+06
   1.599740e+06   7.181340e+05
  -4.584885e+05   1.058536e+06
  -1.839423e+06  -4.119554e+05
  -3.853037e+05  -1.811056e+06
   2.462073e+06  -1.477759e+06
   3.650262e+06   3.778640e+05
   1.873918e+06   2.563605e+06
  -1.609297e+06   4.008986e+06
  -4.501714e+06   3.675044e+06
  -5.101065e+06   9.638497e+05
  -3.233041e+06  -2.872175e+06
  -4.312739e+05  -5.009329e+06
   1.214968e+06  -3.992030e+06
   1.062249e+06  -1.599792e+06
   4.801581e+05  -5.720367e+05
   9.807329e+05  -1.115551e+06
   2.263005e+06  -1.088074e+06
   2.728803e+06   6.237944e+05
   1.542276e+06   2.460908e+06
  -5.109764e+05   2.293609e+06
  -1.943689e+06   5.963509e+04
  -1.714222e+06  -2.284848e+06
   2.066336e+05  -2.804759e+06
   2.608163e+06  -1.138918e+06
   3.577791e+06   1.453960e+06
   2.190931e+06   3.155733e+06
  -2.762639e+05   3.037070e+06
  -1.646575e+06   1.799487e+06
  -1.458682e+06   8.910668e+05
  -1.364252e+06   8.071342e+05
  -2.579264e+06   6.459604e+05
  -3.917978e+06  -5.438212e+05
  -3.203579e+06  -2.458738e+06
  -1.426316e+05  -3.825074e+06
   3.086143e+06  -3.602691e+06
   4.065578e+06  -1.746630e+06
   2.418909e+06   7.267760e+05
  -9.395584e+04   2.205468e+06
  -1.307806e+06   1.657891e+06
  -4.969203e+05  -1.542258e+05
   1.127696e+06  -1.163496e+06
   1.706689e+06  -3.110858e+05
   6.925744e+05   1.086268e+06
  -5.997266e+05   1.053449e+06
  -5.933066e+05  -3.230332e+05
   6.781906e+05  -9.399797e+05
   1.686367e+06   5.033002e+05
   1.177904e+06   2.740858e+06
  -6.530953e+05   3.443965e+06
  -2.598051e+06   1.808749e+06
  -3.445487e+06  -8.626200e+05
  -2.623385e+06  -2.672473e+06
  -5.750372e+05  -2.696044e+06
   1.271337e+06  -1.408946e+06
   1.559030e+06  -1.358880e+05
   4.659531e+05   4.773149e+04
  -3.413477e+05  -7.037870e+05
   3.254477e+05  -1.177097e+06
   1.649349e+06  -5.172539e+05
   1.832838e+06   7.121411e+05
   4.229725e+05   1.225322e+06
  -1.067457e+06   5.762010e+05
  -9.526946e+05  -4.118559e+05
   7.092745e+05  -6.768423e+05
   2.210081e+06   6.388671e+04
   1.940044e+06   1.268259e+06
  -8.140069e+04   2.054630e+06
  -2.213264e+06   1.715092e+06
  -2.655736e+06   2.968382e+05
  -1.125489e+06  -1.132814e+06
   8.290867e+05  -1.298200e+06
   1.342518e+06  -1.359438e+05
   1.088451e+05   9.531105e+05
  -1.410004e+06   6.605587e+05
  -1.629079e+06  -6.814920e+05
  -4.314762e+05  -1.542733e+06
   9.297902e+05  -1.036661e+06
   1.217113e+06   1.490175e+05
   3.374922e+05   6.853303e+05
  -6.801165e+05   6.891245e+04
  -6.589244e+05  -9.802041e+05
   5.850621e+05  -1.322624e+06
   1.915229e+06  -4.584628e+05
   1.896606e+06   1.027919e+06
   3.492114e+05   1.943562e+06
  -1.323540e+06   1.542070e+06
  -1.611677e+06   2.375858e+05
  -5.199747e+05  -7.953274e+05
   5.980096e+05  -7.890221e+05
   6.706655e+05  -6.625214e+04
  -4.817430e+04   4.634145e+05
  -5.604572e+05   3.309128e+05
  -3.214783e+05  -8.623135e+04
   3.103154e+05  -9.663231e+04
   5.422796e+05   4.919685e+05
  -9.860664e+04   1.093549e+06
  -1.273044e+06   8.699243e+05
  -1.968838e+06  -3.806210e+05
  -1.372668e+06  -1.840673e+06
   2.177892e+05  -2.324933e+06
   1.552624e+06  -1.429191e+06
   1.696249e+06   4.947328e+04
   9.583494e+05   9.357713e+05
   3.547078e+05   8.335836e+05
   3.470622e+05   3.491476e+05
   4.570215e+05   2.568657e+05
   5.977674e+04   6.383484e+05
  -7.901367e+05   8.753987e+05
  -1.400440e+06   3.789474e+05
  -1.097442e+06  -7.094683e+05
   1.709690e+05  -1.497582e+06
   1.649963e+06  -1.097422e+06
   2.182554e+06   4.424395e+05
   1.136658e+06   1.976450e+06
  -8.660596e+05   2.233428e+06
  -2.340153e+06   1.042274e+06
  -2.281045e+06  -5.206286e+05
  -1.061829e+06  -1.264376e+06
   1.074613e+05  -1.029400e+06
   4.612885e+05  -6.131120e+05
   2.523894e+05  -7.096825e+05
   1.957785e+05  -1.139990e+06
   6.186304e+05  -1.140199e+06
   1.178856e+06  -2.672756e+05
   1.242076e+06   1.048058e+06
   5.057815e+05   1.814762e+06
  -6.160715e+05   1.366240e+06
  -1.234682e+06   1.401712e+04
  -7.951414e+05  -1.173257e+06
   2.956630e+05  -1.314413e+06
   1.007127e+06  -4.747915e+05
   7.493619e+05   5.157817e+05
  -2.122487e+04   9.326563e+05
  -3.804337e+05   7.538205e+05
  -2.630483e+04   4.469518e+05
   3.873021e+05   3.524970e+05
   3.941630e+04   3.781640e+05
  -1.047176e+06   2.094201e+05
  -1.896001e+06  -3.021437e+05
  -1.531112e+06  -9.493864e+05
  -3.513299e+04  -1.299945e+06
   1.424024e+06  -1.045370e+06
   1.707659e+06  -3.129829e+05
   8.163417e+05   3.642546e+05
  -2.104853e+05   4.872255e+05
  -4.558425e+05   7.274238e+04
   9.585375e+03  -3.373304e+05
   4.592900e+05  -2.254605e+05
   4.435850e+05   3.316495e+05
   1.579307e+05   7.171703e+05
   1.365504e+04   4.662453e+05
   1.377912e+05  -1.450577e+05
   3.261502e+05  -3.485684e+05
   2.763656e+05   2.130270e+05
  -1.783211e+05   9.686508e+05
  -8.603306e+05   9.959151e+05
  -1.209130e+06   1.018993e+05
  -7.141813e+05  -8.847043e+05
   4.066829e+05  -1.009906e+06
   1.151862e+06  -2.351259e+05
   6.850610e+05   5.774120e+05
  -6.528747e+05   6.294198e+05
  -1.548659e+06  -5.530058e+04
  -1.059116e+06  -8.046183e+05
   3.882892e+05  -1.003619e+06
   1.451224e+06  -5.602066e+05
   1.246041e+06   1.285632e+05
   1.666365e+05   5.092525e+05
  -6.120339e+05   2.905477e+05
  -3.398898e+05  -2.606886e+05
   6.008353e+05  -4.606655e+05
   1.127317e+06   1.425336e+05
   5.672018e+05   1.168186e+06
  -6.594301e+05   1.601965e+06
  -1.470345e+06   7.886609e+05
  -1.197145e+06  -7.658096e+05
  -1.708085e+05  -1.741594e+06
   7.219831e+05  -1.278966e+06
   9.009885e+05   1.301033e+05
   4.544769e+05   1.142244e+06
  -1.560311e+05   9.638076e+05
  -5.225918e+05   1.021824e+05
  -4.911336e+05  -3.754925e+05
  -2.062366e+05  -1.472736e+05
  -2.812732e+04   1.058363e+05
  -1.958204e+05  -2.561247e+05
  -4.568401e+05  -9.214764e+05
  -2.351201e+05  -1.048973e+06
   6.238407e+05  -3.829880e+05
   1.427866e+06   4.605771e+05
   1.282531e+06   8.134199e+05
   1.792929e+05   6.625577e+05
  -8.731334e+05   3.942499e+05
  -9.668181e+05   1.870443e+05
  -3.061635e+05  -2.762499e+04
   1.607094e+05  -2.120806e+05
  -2.022765e+04  -2.221202e+05
  -3.142492e+05  -1.219167e+05
  -2.516519e+04  -1.335024e+05
   7.025481e+05  -2.018573e+05
   1.001204e+06   3.987488e+04
   3.247098e+05   6.657930e+05
  -8.788937e+05   1.092869e+06
  -1.608110e+06   6.652752e+05
  -1.285193e+06  -4.666678e+05
  -2.272034e+05  -1.367326e+06
   7.398987e+05  -1.295711e+06
   1.017099e+06  -4.682948e+05
   6.378833e+05   2.613669e+05
   1.009620e+05   3.468733e+05
  -1.176084e+05   3.353233e+04
   5.861925e+04  -5.118157e+04
   3.094035e+05   3.394975e+05
   2.503453e+05   7.792234e+05
  -1.919909e+05   6.407595e+05
  -6.667038e+05  -1.593258e+05
  -6.709861e+05  -9.607367e+05
  -4.204801e+04  -9.915764e+05
   7.610609e+05  -1.827096e+05
   9.736967e+05   7.517043e+05
   2.895240e+05   1.051649e+06
  -7.043686e+05   6.072323e+05
  -1.051667e+06  -1.008224e+05
  -4.739497e+05  -5.634849e+05
   2.834477e+05  -6.040525e+05
   3.296516e+05  -3.364434e+05
  -2.830490e+05  -2.611183e+04
  -6.374883e+05   2.370482e+04
  -1.215913e+05  -2.904365e+05
   8.019186e+05  -6.494689e+05
   1.178247e+06  -5.356116e+05
   6.851988e+05   1.478524e+05
  -1.080865e+05   8.179339e+05
  -5.041954e+05   7.967116e+05
  -3.698157e+05   1.163335e+05
  -2.404544e+04  -4.810472e+05
   2.450287e+05  -3.929850e+05
   3.419214e+05   1.841636e+05
   2.315282e+05   5.603952e+05
  -6.855748e+04   3.757563e+05
  -3.750610e+05  -6.474118e+04
  -4.389041e+05  -2.496377e+05
  -2.301493e+05  -7.155234e+04
   9.768307e+03   1.158312e+05
   7.438856e+04  -1.995677e+04
   4.470725e+04  -3.685419e+05
   1.333124e+05  -4.913109e+05
   3.383873e+05  -1.377724e+05
   3.882369e+05   4.195236e+05
   7.530399e+04   6.356509e+05
  -4.173654e+05   2.800098e+05
  -6.120081e+05  -3.041079e+05
  -2.186938e+05  -5.716348e+05
   4.816929e+05  -3.390925e+05
   8.268768e+05   1.021435e+05
   4.450461e+05   3.710041e+05
  -2.895462e+05   3.530076e+05
  -6.098570e+05   1.759201e+05
  -2.118836e+05   6.460301e+03
   3.776006e+05  -3.383597e+04
   4.106057e+05   1.074774e+05
  -1.975555e+05   3.056995e+05
  -7.743223e+05   2.543602e+05
