
 $NMID
 id='ANONYMOUS ', fmtdat='(2E16.6)'
 volume=1.0
 tramp=1.0
 $END
   2.199776e+07  -2.429078e+06
   1.637570e+07   8.824290e+06
   1.754665e+06   1.433442e+07
  -8.958286e+06   1.062629e+07
  -8.492552e+06   1.722902e+06
  -9.662285e+05  -4.192474e+06
   4.642402e+06  -2.512361e+06
   3.921585e+06   3.483633e+06
  -6.456944e+05   6.520436e+06
  -4.138141e+06   3.226172e+06
  -3.892931e+06  -2.611698e+06
  -7.986118e+05  -4.682888e+06
   2.058194e+06  -1.121501e+06
   1.944544e+06   3.846651e+06
  -1.057541e+06   4.809609e+06
  -3.838280e+06   8.002859e+05
  -3.253951e+06  -4.210240e+06
   4.861577e+05  -5.749163e+06
   4.000864e+06  -3.076816e+06
   4.388267e+06   8.423755e+05
   2.107036e+06   2.810814e+06
   4.439579e+04   2.346645e+06
   2.358777e+05   1.416992e+06
   1.831611e+06   1.833747e+06
   2.122408e+06   3.280171e+06
  -4.962450e+05   3.862462e+06
  -4.439480e+06   2.320693e+06
  -6.069925e+06  -5.436820e+05
  -3.463227e+06  -2.611320e+06
   1.106742e+06  -2.418781e+06
   3.254278e+06  -3.871983e+05
   1.219311e+06   1.622105e+06
  -2.311437e+06   1.814707e+06
  -3.513503e+06  -1.132901e+05
  -1.661831e+06  -2.580110e+06
   7.505954e+05  -3.296520e+06
   1.420230e+06  -1.468258e+06
   5.020919e+05   1.058351e+06
  -4.111867e+05   1.499383e+06
  -3.161048e+05  -6.491780e+05
   6.286389e+05  -2.727660e+06
   1.632486e+06  -1.958298e+06
   1.736170e+06   1.042331e+06
   4.029926e+05   2.820805e+06
  -1.578883e+06   1.229007e+06
  -2.206373e+06  -1.996798e+06
  -2.232658e+05  -3.331032e+06
   2.993790e+06  -1.425816e+06
   4.337605e+06   1.757025e+06
   2.186873e+06   3.373326e+06
  -1.679653e+06   2.417831e+06
  -3.798593e+06   1.112049e+05
  -2.508495e+06  -1.590572e+06
   5.524838e+05  -1.580003e+06
   2.333588e+06  -2.584530e+05
   1.464945e+06   9.282549e+05
  -6.070783e+05   8.104750e+05
  -1.410455e+06  -3.614057e+05
  -1.647831e+05  -1.188396e+06
   1.456275e+06  -6.650756e+05
   1.313159e+06   7.091093e+05
  -6.778383e+05   1.473377e+06
  -2.356461e+06   6.828136e+05
  -1.697096e+06  -1.237491e+06
   9.702770e+05  -2.846377e+06
   3.369241e+06  -2.754217e+06
   3.678841e+06  -7.032038e+05
   2.153092e+06   2.046293e+06
   4.123496e+05   3.613543e+06
  -4.020454e+05   3.198219e+06
  -4.998277e+05   1.816723e+06
  -7.441975e+05   1.004921e+06
  -1.505771e+06   9.502010e+05
  -2.284946e+06   4.868421e+05
  -2.251955e+06  -1.002556e+06
  -1.057391e+06  -2.395411e+06
   7.426141e+05  -2.064093e+06
   1.951336e+06   3.431592e+04
   1.592476e+06   2.107165e+06
  -1.988095e+05   2.379549e+06
  -2.091465e+06   7.954513e+05
  -2.610111e+06  -1.194353e+06
  -1.487218e+06  -2.174199e+06
   1.051234e+05  -1.901447e+06
   8.477832e+05  -1.162833e+06
   7.253678e+05  -8.056635e+05
   8.986059e+05  -9.195672e+05
   2.055861e+06  -8.313957e+05
   3.249467e+06   1.313812e+05
   2.795759e+06   1.819630e+06
   3.225627e+05   3.191001e+06
  -2.477887e+06   3.130619e+06
  -3.409330e+06   1.469031e+06
  -1.966205e+06  -7.171391e+05
   2.394462e+05  -1.878594e+06
   1.189598e+06  -1.303428e+06
   3.839915e+05   1.840922e+05
  -9.573225e+05   9.702729e+05
  -1.354529e+06   3.149785e+05
  -5.233931e+05  -8.209758e+05
   5.353735e+05  -9.035197e+05
   6.574803e+05   2.450951e+05
  -3.479414e+05   1.080960e+06
  -1.527024e+06   1.620549e+05
  -1.617517e+06  -1.980672e+06
  -1.625564e+05  -3.252321e+06
   1.991813e+06  -2.247924e+06
   3.272760e+06   2.753008e+05
   2.670647e+06   2.270946e+06
   6.767901e+05   2.444967e+06
  -1.085427e+06   1.253746e+06
  -1.348636e+06   1.203074e+05
  -3.964829e+05  -2.170857e+04
   3.259415e+05   5.742207e+05
  -1.557564e+05   9.585643e+05
  -1.255675e+06   5.232518e+05
  -1.544260e+06  -4.071000e+05
  -4.808739e+05  -9.450606e+05
   8.511244e+05  -5.732008e+05
   9.097271e+05   3.070518e+05
  -5.320305e+05   7.553940e+05
  -2.021514e+06   1.976592e+05
  -1.914596e+06  -1.021034e+06
  -1.068943e+05  -1.907765e+06
   1.839547e+06  -1.661515e+06
   2.264198e+06  -4.008495e+05
   1.000682e+06   8.537383e+05
  -5.876492e+05   1.057716e+06
  -1.025804e+06   1.727507e+05
  -9.235434e+04  -7.362847e+05
   1.135844e+06  -6.052530e+05
   1.424587e+06   4.553878e+05
   5.265673e+05   1.289787e+06
  -6.806155e+05   1.024452e+06
  -1.084287e+06   3.655955e+04
  -4.073750e+05  -5.420970e+05
   5.192137e+05  -1.177840e+05
   5.786272e+05   7.764508e+05
  -4.556264e+05   1.119255e+06
  -1.597682e+06   4.356903e+05
  -1.624517e+06  -7.976541e+05
  -3.824756e+05  -1.609478e+06
   1.013478e+06  -1.366528e+06
   1.343284e+06  -3.123863e+05
   5.178860e+05   6.357878e+05
  -4.529667e+05   7.232023e+05
  -6.155655e+05   7.217358e+04
  -7.565606e+03  -4.953428e+05
   5.518962e+05  -3.878973e+05
   4.227063e+05   1.124743e+05
  -2.048470e+05   2.417782e+05
  -5.470532e+05  -2.937283e+05
  -4.602625e+04  -9.253837e+05
   1.013023e+06  -8.199644e+05
   1.684398e+06   2.186762e+05
   1.238687e+06   1.489190e+06
  -8.831767e+04   1.999988e+06
  -1.279965e+06   1.348438e+06
  -1.523207e+06   7.372633e+04
  -9.492304e+05  -8.383913e+05
  -3.407131e+05  -8.598962e+05
  -2.064983e+05  -3.649829e+05
  -3.045284e+05  -1.411241e+05
  -7.648184e+04  -4.693636e+05
   6.023092e+05  -8.023283e+05
   1.202230e+06  -4.347141e+05
   1.034695e+06   5.869298e+05
  -4.593450e+04   1.373917e+06
  -1.373784e+06   1.064770e+06
  -1.911345e+06  -2.686483e+05
  -1.106363e+06  -1.620600e+06
   5.568158e+05  -1.943398e+06
   1.892259e+06  -1.056450e+06
   2.016411e+06   2.633657e+05
   1.077758e+06   1.045800e+06
  -6.590102e+02   9.930389e+05
  -4.545924e+05   6.210607e+05
  -3.124309e+05   5.769926e+05
  -1.664266e+05   8.831805e+05
  -4.421987e+05   9.378909e+05
  -9.439624e+05   2.651918e+05
  -1.077860e+06  -8.420414e+05
  -4.944415e+05  -1.523205e+06
   4.776256e+05  -1.184451e+06
   1.060135e+06  -7.998621e+04
   7.564485e+05   9.279126e+05
  -1.300547e+05   1.134709e+06
  -7.758444e+05   5.359863e+05
  -6.716663e+05  -2.882805e+05
  -1.145338e+05  -7.433948e+05
   1.919866e+05  -6.898731e+05
  -3.030279e+04  -4.298767e+05
  -3.202847e+05  -3.021965e+05
  -3.486349e+04  -3.265216e+05
   8.475526e+05  -2.422128e+05
   1.577133e+06   1.457244e+05
   1.346404e+06   7.059421e+05
   1.567558e+05   1.066555e+06
  -1.086945e+06   9.408476e+05
  -1.419163e+06   3.895304e+05
  -7.482680e+05  -1.950844e+05
   1.173081e+05  -3.897022e+05
   3.680625e+05  -1.196922e+05
  -1.064249e+04   2.316431e+05
  -4.055467e+05   1.898060e+05
  -3.797017e+05  -2.637882e+05
  -9.689845e+04  -6.091112e+05
   2.922171e+04  -3.887437e+05
  -1.265527e+05   1.706059e+05
  -3.211491e+05   3.538700e+05
  -2.566367e+05  -1.648928e+05
   1.474840e+05  -8.457324e+05
   6.852159e+05  -8.694694e+05
   9.414589e+05  -1.073451e+05
   5.679417e+05   7.115798e+05
  -2.942712e+05   8.153679e+05
  -9.154294e+05   1.927061e+05
  -5.913083e+05  -4.823016e+05
   5.160418e+05  -5.776358e+05
   1.355090e+06  -4.595845e+04
   1.021817e+06   6.412517e+05
  -2.378816e+05   9.349885e+05
  -1.247742e+06   6.223867e+05
  -1.133477e+06  -2.295153e+04
  -1.927086e+05  -4.486922e+05
   5.080415e+05  -3.044357e+05
   2.833078e+05   1.844543e+05
  -5.175558e+05   3.788878e+05
  -9.500302e+05  -1.248029e+05
  -4.642705e+05  -9.871200e+05
   5.662347e+05  -1.351497e+06
   1.249025e+06  -6.759549e+05
   1.040977e+06   6.341783e+05
   1.964908e+05   1.494809e+06
  -5.788653e+05   1.153311e+06
  -7.951945e+05  -4.092413e+04
  -4.737923e+05  -9.634990e+05
   5.080769e+04  -8.715391e+05
   4.319860e+05  -1.326422e+05
   4.714172e+05   3.202785e+05
   2.224653e+05   1.409766e+05
   6.273211e+03  -1.084808e+05
   1.206429e+05   1.699898e+05
   4.035892e+05   7.548449e+05
   2.899116e+05   9.099553e+05
  -4.621081e+05   3.721586e+05
  -1.247801e+06  -3.466358e+05
  -1.177196e+06  -6.604388e+05
  -1.853633e+05  -5.515076e+05
   7.760155e+05  -3.545070e+05
   8.407234e+05  -2.076227e+05
   2.314550e+05  -2.039995e+04
  -1.463529e+05   1.790368e+05
   7.118271e+04   2.252546e+05
   3.216680e+05   1.341014e+05
   3.718000e+03   1.123607e+05
  -6.483602e+05   1.622428e+05
  -8.455062e+05  -1.834105e+04
  -2.185856e+05  -5.333746e+05
   7.624887e+05  -9.157811e+05
   1.306629e+06  -5.824049e+05
   1.035873e+06   3.779678e+05
   2.105615e+05   1.164658e+06
  -5.744400e+05   1.111054e+06
  -8.450259e+05   3.919227e+05
  -5.534241e+05  -2.362378e+05
  -7.272247e+04  -2.872231e+05
   1.402827e+05   9.241636e+03
  -3.790289e+04   8.563211e+04
  -3.022534e+05  -2.686423e+05
  -2.581736e+05  -6.606872e+05
   1.540297e+05  -5.377816e+05
   5.762409e+05   1.554528e+05
   5.595925e+05   8.295337e+05
   5.228022e+03   8.265549e+05
  -6.657242e+05   1.193741e+05
  -8.235862e+05  -6.582534e+05
  -2.409504e+05  -8.785530e+05
   5.848061e+05  -4.956671e+05
   8.695440e+05   6.794705e+04
   3.955969e+05   4.258856e+05
  -2.126360e+05   4.751941e+05
  -2.267574e+05   2.921412e+05
   2.852823e+05   4.170555e+04
   5.531758e+05  -2.721040e+04
   9.666461e+04   2.318720e+05
  -6.666073e+05   5.812977e+05
  -9.552302e+05   5.310675e+05
  -5.473753e+05  -6.156236e+04
   7.091799e+04  -6.797481e+05
   3.631812e+05  -6.801624e+05
   2.583602e+05  -8.340452e+04
   4.372863e+03   4.237422e+05
  -2.025721e+05   3.135897e+05
  -2.906930e+05  -1.905333e+05
  -2.044655e+05  -4.714573e+05
   5.301433e+04  -2.807508e+05
   3.155912e+05   6.383398e+04
   3.705798e+05   1.688779e+05
   2.021961e+05   2.838867e+04
   4.025865e+03  -6.105229e+04
  -7.484831e+04   8.798516e+04
  -9.288026e+04   3.312795e+05
  -1.764305e+05   3.592302e+05
  -2.971486e+05   4.293111e+04
  -2.747345e+05  -3.877899e+05
  -2.687589e+03  -5.318755e+05
   3.661556e+05  -2.232271e+05
   4.942205e+05   2.671443e+05
   1.746997e+05   4.942946e+05
  -3.875341e+05   2.961530e+05
  -6.768683e+05  -8.161875e+04
  -3.745381e+05  -3.036311e+05
   2.319559e+05  -2.750159e+05
   4.957666e+05  -1.268089e+05
   1.451229e+05  -9.801999e+03
  -3.613184e+05  -5.522192e+03
  -3.616504e+05  -1.332223e+05
   2.047426e+05  -2.864576e+05
   7.159201e+05  -2.213114e+05
