
 $NMID
 id='ANONYMOUS ', fmtdat='(2E16.6)'
 volume=1.0
 tramp=1.0
 $END
   2.041086e+07  -3.116923e+05
   1.359249e+07   9.814095e+06
  -1.975780e+05   1.305087e+07
  -8.843127e+06   8.267137e+06
  -7.196588e+06   5.152027e+05
  -2.943843e+05  -3.620830e+06
   4.035471e+06  -1.606151e+06
   2.901490e+06   3.260807e+06
  -1.035652e+06   5.357660e+06
  -3.748239e+06   2.352507e+06
  -3.268959e+06  -2.544496e+06
  -4.815554e+05  -4.142474e+06
   1.904072e+06  -9.407599e+05
   1.575095e+06   3.340670e+06
  -1.144922e+06   3.993591e+06
  -3.362355e+06   3.451197e+05
  -2.516756e+06  -3.946633e+06
   8.852342e+05  -5.030410e+06
   3.845468e+06  -2.473715e+06
   4.008190e+06   1.061454e+06
   1.834484e+06   2.836091e+06
  -1.991635e+05   2.381871e+06
  -2.055742e+05   1.336993e+06
   1.254886e+06   1.425725e+06
   1.748569e+06   2.624437e+06
  -3.896817e+05   3.271831e+06
  -3.859096e+06   2.011090e+06
  -5.327922e+06  -5.626161e+05
  -3.033312e+06  -2.437280e+06
   9.632348e+05  -2.232994e+06
   2.837255e+06  -4.242435e+05
   1.159396e+06   1.309051e+06
  -1.785973e+06   1.523811e+06
  -2.874976e+06  -1.053747e+04
  -1.463429e+06  -2.099033e+06
   5.648424e+05  -2.842537e+06
   1.309219e+06  -1.354136e+06
   6.263094e+05   9.378805e+05
  -3.066148e+05   1.473505e+06
  -4.033293e+05  -3.987806e+05
   4.575030e+05  -2.296733e+06
   1.432275e+06  -1.615134e+06
   1.393030e+06   1.038949e+06
   1.488983e+03   2.437659e+06
  -1.651739e+06   7.709665e+05
  -1.802130e+06  -2.112829e+06
   1.874838e+05  -3.016318e+06
   2.825717e+06  -1.050081e+06
   3.659768e+06   1.762857e+06
   1.675893e+06   2.971424e+06
  -1.532822e+06   1.948159e+06
  -3.185210e+06  -8.650637e+04
  -1.995304e+06  -1.444737e+06
   6.102126e+05  -1.265776e+06
   2.029128e+06  -3.528902e+04
   1.165899e+06   9.089996e+05
  -6.041011e+05   6.562922e+05
  -1.163265e+06  -3.615567e+05
  -4.937180e+04  -9.051108e+05
   1.172384e+06  -3.499788e+05
   8.466336e+05   6.830237e+05
  -8.400589e+05   1.080379e+06
  -2.063247e+06   3.061485e+05
  -1.331885e+06  -1.235849e+06
   9.711159e+05  -2.488803e+06
   3.007319e+06  -2.351513e+06
   3.272558e+06  -5.360504e+05
   1.895970e+06   1.885630e+06
   2.578124e+05   3.196123e+06
  -5.021621e+05   2.698317e+06
  -4.714307e+05   1.420003e+06
  -5.280273e+05   7.843044e+05
  -1.162074e+06   8.603829e+05
  -1.922793e+06   5.128599e+05
  -1.966056e+06  -7.892094e+05
  -9.551860e+05  -2.013631e+06
   5.816433e+05  -1.755612e+06
   1.611283e+06   4.323343e+03
   1.325938e+06   1.763905e+06
  -1.853298e+05   2.025893e+06
  -1.825683e+06   6.810622e+05
  -2.290370e+06  -1.083134e+06
  -1.275731e+06  -1.991054e+06
   1.879529e+05  -1.735044e+06
   8.666828e+05  -1.005174e+06
   7.163116e+05  -6.272875e+05
   8.011453e+05  -7.096703e+05
   1.758973e+06  -6.267578e+05
   2.753414e+06   2.065660e+05
   2.329544e+06   1.615645e+06
   2.060453e+05   2.713749e+06
  -2.156372e+06   2.621527e+06
  -2.924353e+06   1.223257e+06
  -1.693154e+06  -6.157620e+05
   1.889531e+05  -1.610786e+06
   1.017066e+06  -1.125529e+06
   3.355296e+05   1.545206e+05
  -8.259685e+05   8.207750e+05
  -1.168785e+06   2.369547e+05
  -4.404628e+05  -7.283775e+05
   4.582955e+05  -7.628266e+05
   5.247829e+05   2.084085e+05
  -3.256235e+05   8.431674e+05
  -1.232879e+06   1.991168e+04
  -1.213627e+06  -1.711741e+06
  -4.786093e+03  -2.644408e+06
   1.691856e+06  -1.744075e+06
   2.678218e+06   3.152192e+05
   2.172194e+06   1.914222e+06
   5.352752e+05   2.041097e+06
  -9.273215e+05   1.049210e+06
  -1.143317e+06   9.333365e+04
  -3.351240e+05  -2.472937e+04
   2.634177e+05   4.935592e+05
  -1.683238e+05   8.122137e+05
  -1.094341e+06   4.053457e+05
  -1.295316e+06  -3.994721e+05
  -3.676158e+05  -8.161509e+05
   7.345035e+05  -4.583694e+05
   7.490208e+05   2.707146e+05
  -4.586782e+05   5.999694e+05
  -1.675483e+06   1.168627e+05
  -1.567356e+06  -8.728301e+05
  -5.628219e+04  -1.579669e+06
   1.569729e+06  -1.357778e+06
   1.916022e+06  -2.956047e+05
   8.261370e+05   7.512967e+05
  -5.354913e+05   8.931858e+05
  -8.908405e+05   1.168642e+05
  -6.489696e+04  -6.417098e+05
   9.806446e+05  -4.914973e+05
   1.190189e+06   4.199311e+05
   4.045013e+05   1.091995e+06
  -5.965500e+05   8.283523e+05
  -8.987939e+05  -5.884174e+03
  -3.138506e+05  -4.625003e+05
   4.513293e+05  -7.863202e+04
   4.789514e+05   6.770964e+05
  -4.060148e+05   9.486783e+05
  -1.367075e+06   3.476595e+05
  -1.368694e+06  -7.056674e+05
  -2.928103e+05  -1.374161e+06
   8.899691e+05  -1.134629e+06
   1.140380e+06  -2.314755e+05
   4.160978e+05   5.460979e+05
  -3.984292e+05   5.959831e+05
  -5.141388e+05   5.586434e+04
  -4.573795e+02  -3.993799e+05
   4.509985e+05  -3.121525e+05
   3.346211e+05   7.979082e+04
  -1.744035e+05   1.701129e+05
  -4.377624e+05  -2.702441e+05
  -7.881833e+03  -7.787825e+05
   8.752700e+05  -6.702058e+05
   1.422248e+06   2.178641e+05
   1.023692e+06   1.285838e+06
  -1.066620e+05   1.689063e+06
  -1.095802e+06   1.108773e+06
  -1.271197e+06   3.614010e+04
  -7.790937e+05  -7.000251e+05
  -2.889766e+05  -7.008702e+05
  -1.965025e+05  -3.059040e+05
  -2.689420e+05  -1.441600e+05
  -5.187819e+04  -4.123974e+05
   5.262777e+05  -6.627280e+05
   1.015434e+06  -3.422457e+05
   8.570764e+05   5.009569e+05
  -5.883817e+04   1.142255e+06
  -1.172133e+06   8.698056e+05
  -1.606186e+06  -2.585246e+05
  -8.979180e+05  -1.388297e+06
   5.200638e+05  -1.627166e+06
   1.623754e+06  -8.439865e+05
   1.684391e+06   2.678354e+05
   8.727929e+05   8.893089e+05
  -1.590880e+04   8.147321e+05
  -3.709794e+05   5.111095e+05
  -2.531518e+05   5.021300e+05
  -1.551769e+05   7.671837e+05
  -4.021952e+05   7.941661e+05
  -8.137384e+05   2.065287e+05
  -9.030192e+05  -7.325295e+05
  -3.953559e+05  -1.298870e+06
   4.226306e+05  -9.963446e+05
   8.955179e+05  -4.746101e+04
   6.156435e+05   8.027703e+05
  -1.415050e+05   9.516932e+05
  -6.695291e+05   4.179530e+05
  -5.508572e+05  -2.770986e+05
  -6.202073e+04  -6.327945e+05
   1.906053e+05  -5.656908e+05
  -1.616841e+04  -3.518078e+05
  -2.727748e+05  -2.592672e+05
  -2.803136e+04  -2.770045e+05
   7.263927e+05  -1.845956e+05
   1.339847e+06   1.594580e+05
   1.124347e+06   6.269964e+05
   9.735560e+04   9.069053e+05
  -9.525229e+05   7.730084e+05
  -1.207233e+06   2.940889e+05
  -6.154620e+05  -1.900330e+05
   1.166607e+05  -3.309238e+05
   3.133910e+05  -8.644402e+04
  -1.397178e+04   2.079716e+05
  -3.429111e+05   1.603591e+05
  -3.192415e+05  -2.300809e+05
  -8.594195e+04  -5.217088e+05
   1.998703e+04  -3.351770e+05
  -1.031043e+05   1.359417e+05
  -2.628442e+05   2.913829e+05
  -2.126737e+05  -1.435544e+05
   1.297195e+05  -7.146210e+05
   5.968363e+05  -7.279480e+05
   8.183499e+05  -7.439715e+04
   4.835377e+05   6.207692e+05
  -2.696419e+05   6.967970e+05
  -7.936713e+05   1.544528e+05
  -4.974836e+05  -4.153008e+05
   4.473578e+05  -4.764799e+05
   1.138357e+06  -1.450098e+04
   8.377327e+05   5.515491e+05
  -2.205717e+05   7.705603e+05
  -1.051838e+06   4.931730e+05
  -9.430252e+05  -3.874677e+04
  -1.519190e+05  -3.760727e+05
   4.326113e+05  -2.429743e+05
   2.380638e+05   1.671180e+05
  -4.429505e+05   3.220778e+05
  -8.097687e+05  -1.127965e+05
  -3.914427e+05  -8.459002e+05
   4.907280e+05  -1.148639e+06
   1.067035e+06  -5.654714e+05
   8.753907e+05   5.481472e+05
   1.479340e+05   1.266336e+06
  -5.022463e+05   9.615427e+05
  -6.652594e+05  -5.192065e+04
  -3.785752e+05  -8.180790e+05
   6.178082e+04  -7.248004e+05
   3.677744e+05  -9.985587e+04
   3.883566e+05   2.715957e+05
   1.800422e+05   1.149156e+05
   8.216982e+03  -8.706924e+04
   1.071062e+05   1.586738e+05
   3.329363e+05   6.497101e+05
   2.235765e+05   7.657149e+05
  -4.059802e+05   2.988848e+05
  -1.049076e+06  -3.098860e+05
  -9.773591e+05  -5.695423e+05
  -1.466242e+05  -4.704015e+05
   6.543340e+05  -2.951402e+05
   7.093194e+05  -1.626787e+05
   1.995922e+05  -4.842682e+03
  -1.238647e+05   1.521812e+05
   5.105817e+04   1.805813e+05
   2.643551e+05   1.061016e+05
   5.977049e+03   9.745696e+04
  -5.433342e+05   1.395629e+05
  -7.194391e+05  -2.496344e+04
  -1.915018e+05  -4.663343e+05
   6.529722e+05  -7.778771e+05
   1.126657e+06  -4.787398e+05
   8.888904e+05   3.366043e+05
   1.680583e+05   9.906555e+05
  -5.065445e+05   9.356662e+05
  -7.262909e+05   3.277224e+05
  -4.683658e+05  -2.011668e+05
  -6.204511e+04  -2.476495e+05
   1.141268e+05  -1.918635e+03
  -3.205508e+04   6.326134e+04
  -2.460363e+05  -2.317783e+05
  -2.058637e+05  -5.610564e+05
   1.373178e+05  -4.573047e+05
   4.890072e+05   1.316248e+05
   4.735908e+05   7.080520e+05
   3.638768e+03   7.089329e+05
  -5.661906e+05   1.056444e+05
  -6.985672e+05  -5.621022e+05
  -1.989970e+05  -7.526648e+05
   5.052981e+05  -4.209623e+05
   7.431365e+05   6.907203e+04
   3.313254e+05   3.764462e+05
  -1.928093e+05   4.086887e+05
  -2.054583e+05   2.418237e+05
   2.348000e+05   2.998796e+04
   4.681190e+05  -1.895692e+04
   8.097336e+04   2.014593e+05
  -5.719844e+05   4.830787e+05
  -8.200435e+05   4.266190e+05
  -4.675570e+05  -7.165193e+04
   7.035870e+04  -5.794224e+05
   3.265783e+05  -5.707798e+05
   2.328597e+05  -6.819790e+04
   5.269368e+03   3.587764e+05
  -1.771288e+05   2.692194e+05
  -2.486204e+05  -1.571631e+05
  -1.689152e+05  -4.029526e+05
   5.096213e+04  -2.459486e+05
   2.694037e+05   5.493813e+04
   3.113964e+05   1.551504e+05
   1.680710e+05   3.154015e+04
   4.177505e+03  -6.044458e+04
  -5.658469e+04   6.089261e+04
  -6.885313e+04   2.817545e+05
  -1.442047e+05   3.209910e+05
  -2.567576e+05   5.019981e+04
  -2.446386e+05  -3.296637e+05
  -1.047139e+04  -4.588954e+05
   3.118657e+05  -1.913546e+05
   4.246815e+05   2.308230e+05
   1.482698e+05   4.209566e+05
  -3.355908e+05   2.461938e+05
  -5.803008e+05  -7.701948e+04
  -3.165203e+05  -2.635599e+05
   2.040017e+05  -2.364013e+05
   4.289469e+05  -1.073789e+05
   1.302009e+05  -3.879860e+03
  -3.018698e+05   2.712705e+03
  -3.073606e+05  -1.064629e+05
   1.667848e+05  -2.397228e+05
   5.986332e+05  -1.867330e+05
