
 $NMID
 id='ANONYMOUS ', fmtdat='(2E16.6)'
 volume=1.0
 tramp=1.0
 $END
   2.617782e+07  -1.561241e+06
   1.835705e+07   1.215838e+07
   4.790142e+05   1.717876e+07
  -1.139599e+07   1.112365e+07
  -9.617823e+06   7.021455e+05
  -4.690946e+05  -4.861817e+06
   5.381291e+06  -2.112763e+06
   3.853792e+06   4.327525e+06
  -1.393319e+06   7.015125e+06
  -4.915282e+06   3.105235e+06
  -4.255562e+06  -3.175952e+06
  -6.855958e+05  -5.262990e+06
   2.358285e+06  -1.254242e+06
   1.968487e+06   4.209705e+06
  -1.502117e+06   5.128550e+06
  -4.391378e+06   5.080073e+05
  -3.358168e+06  -5.043825e+06
   1.000655e+06  -6.529088e+06
   4.834992e+06  -3.335389e+06
   5.142337e+06   1.134648e+06
   2.523270e+06   3.436857e+06
   2.382655e+04   3.036875e+06
  -1.023953e+05   1.910744e+06
   1.502998e+06   2.036382e+06
   2.017174e+06   3.369252e+06
  -5.621592e+05   4.034840e+06
  -4.783179e+06   2.474271e+06
  -6.637966e+06  -6.568632e+05
  -3.857989e+06  -2.969331e+06
   1.100922e+06  -2.733322e+06
   3.444271e+06  -5.094883e+05
   1.340927e+06   1.572687e+06
  -2.296974e+06   1.740451e+06
  -3.538090e+06  -1.629709e+05
  -1.706141e+06  -2.627403e+06
   7.435149e+05  -3.471047e+06
   1.562074e+06  -1.709732e+06
   7.497229e+05   1.031456e+06
  -2.775693e+05   1.752525e+06
  -3.583035e+05  -4.444023e+05
   6.437155e+05  -2.796351e+06
   1.835888e+06  -2.019956e+06
   1.837632e+06   1.339457e+06
   6.202033e+04   3.251205e+06
  -2.182806e+06   1.199244e+06
  -2.497651e+06  -2.612776e+06
   8.004092e+04  -3.955282e+06
   3.576237e+06  -1.476750e+06
   4.700037e+06   2.217186e+06
   2.136683e+06   3.824768e+06
  -1.989211e+06   2.489318e+06
  -4.089619e+06  -1.548390e+05
  -2.551501e+06  -1.907589e+06
   7.972083e+05  -1.680914e+06
   2.638558e+06  -8.377526e+04
   1.538534e+06   1.177972e+06
  -7.607149e+05   8.747585e+05
  -1.486351e+06  -4.810540e+05
   2.346214e+03  -1.212617e+06
   1.625375e+06  -4.199562e+05
   1.158621e+06   1.028175e+06
  -1.120507e+06   1.544232e+06
  -2.744605e+06   4.427395e+05
  -1.781502e+06  -1.596914e+06
   1.178746e+06  -3.159005e+06
   3.748083e+06  -2.958695e+06
   4.088709e+06  -7.142598e+05
   2.405416e+06   2.303981e+06
   3.656763e+05   4.014707e+06
  -6.540910e+05   3.461434e+06
  -6.917000e+05   1.818292e+06
  -7.480891e+05   9.080059e+05
  -1.452769e+06   9.503214e+05
  -2.332511e+06   5.616727e+05
  -2.369710e+06  -9.960319e+05
  -1.121224e+06  -2.483768e+06
   7.626323e+05  -2.135744e+06
   1.993299e+06   7.070612e+04
   1.602889e+06   2.238557e+06
  -2.602415e+05   2.523960e+06
  -2.266352e+06   8.449077e+05
  -2.856630e+06  -1.325059e+06
  -1.643148e+06  -2.460721e+06
   1.647171e+05  -2.195446e+06
   1.055203e+06  -1.328740e+06
   9.221580e+05  -8.453698e+05
   1.051007e+06  -9.062296e+05
   2.248701e+06  -7.685561e+05
   3.482246e+06   2.967178e+05
   2.919689e+06   2.070063e+06
   2.194003e+05   3.420747e+06
  -2.745515e+06   3.256669e+06
  -3.668358e+06   1.487311e+06
  -2.091799e+06  -7.791579e+05
   2.577751e+05  -1.983812e+06
   1.270489e+06  -1.381611e+06
   4.113039e+05   1.892797e+05
  -1.039190e+06   1.013229e+06
  -1.472275e+06   2.939596e+05
  -5.572454e+05  -9.077336e+05
   5.829972e+05  -9.445003e+05
   6.545597e+05   2.882602e+05
  -4.625929e+05   1.076527e+06
  -1.622906e+06  -1.654620e+04
  -1.528513e+06  -2.252585e+06
   9.623989e+04  -3.402562e+06
   2.248804e+06  -2.169780e+06
   3.400534e+06   4.969346e+05
   2.673627e+06   2.491036e+06
   6.092199e+05   2.581676e+06
  -1.183480e+06   1.292783e+06
  -1.430208e+06   9.464610e+04
  -4.214717e+05  -3.697255e+04
   3.245973e+05   6.249487e+05
  -2.169816e+05   1.029514e+06
  -1.386171e+06   5.105973e+05
  -1.641516e+06  -5.179771e+05
  -4.616203e+05  -1.043507e+06
   9.344228e+05  -5.696507e+05
   9.350572e+05   3.617723e+05
  -6.075701e+05   7.465930e+05
  -2.125235e+06   9.352433e+04
  -1.945118e+06  -1.153512e+06
  -1.867441e+04  -1.994876e+06
   2.011167e+06  -1.672442e+06
   2.418769e+06  -3.354639e+05
   1.036251e+06   9.594593e+05
  -6.768788e+05   1.125891e+06
  -1.125082e+06   1.494491e+05
  -8.365278e+04  -8.029237e+05
   1.238239e+06  -6.076552e+05
   1.497227e+06   5.497233e+05
   4.898320e+05   1.393571e+06
  -7.795581e+05   1.040113e+06
  -1.145739e+06  -2.932242e+04
  -3.909879e+05  -5.994765e+05
   5.711955e+05  -9.957770e+04
   5.935211e+05   8.537787e+05
  -5.210820e+05   1.181228e+06
  -1.717316e+06   4.147847e+05
  -1.707118e+06  -9.053582e+05
  -3.486778e+05  -1.732944e+06
   1.138898e+06  -1.418295e+06
   1.445197e+06  -2.738802e+05
   5.177662e+05   7.000943e+05
  -5.137183e+05   7.463042e+05
  -6.443993e+05   5.688030e+04
   1.961722e+04  -5.020659e+05
   5.800242e+05  -3.692074e+05
   4.069429e+05   1.247965e+05
  -2.441965e+05   2.134791e+05
  -5.570410e+05  -3.598526e+05
   5.719730e+03  -9.902561e+05
   1.116243e+06  -8.296551e+05
   1.785839e+06   2.988372e+05
   1.265954e+06   1.633190e+06
  -1.657934e+05   2.120689e+06
  -1.406221e+06   1.370689e+06
  -1.603792e+06   1.079620e+04
  -9.537976e+05  -9.066688e+05
  -3.271757e+05  -8.846254e+05
  -2.312922e+05  -3.724149e+05
  -3.444202e+05  -1.740758e+05
  -6.626877e+04  -5.204414e+05
   6.787113e+05  -8.264165e+05
   1.289051e+06  -4.048074e+05
   1.060775e+06   6.558183e+05
  -1.097583e+05   1.437019e+06
  -1.496914e+06   1.066926e+06
  -2.014478e+06  -3.594554e+05
  -1.104243e+06  -1.767965e+06
   6.842882e+05  -2.046894e+06
   2.065997e+06  -1.038491e+06
   2.123074e+06   3.750063e+05
   1.077406e+06   1.149696e+06
  -5.088696e+04   1.028292e+06
  -4.850340e+05   6.218984e+05
  -3.196086e+05   6.093318e+05
  -1.944442e+05   9.566291e+05
  -5.119671e+05   9.972880e+05
  -1.025437e+06   2.521649e+05
  -1.121922e+06  -9.331256e+05
  -4.742382e+05  -1.637360e+06
   5.476193e+05  -1.243272e+06
   1.128005e+06  -4.261176e+04
   7.640548e+05   1.024127e+06
  -1.961261e+05   1.202495e+06
  -8.618896e+05   5.204490e+05
  -7.032744e+05  -3.615245e+05
  -7.221090e+04  -8.097673e+05
   2.552911e+05  -7.205045e+05
  -7.155796e+03  -4.465298e+05
  -3.356782e+05  -3.277463e+05
  -2.896052e+04  -3.467164e+05
   9.195542e+05  -2.227491e+05
   1.685429e+06   2.188834e+05
   1.406406e+06   8.089387e+05
   1.105611e+05   1.151135e+06
  -1.210384e+06   9.653437e+05
  -1.529631e+06   3.505624e+05
  -7.805645e+05  -2.557539e+05
   1.486929e+05  -4.197712e+05
   4.008851e+05  -1.045082e+05
  -1.417669e+04   2.600975e+05
  -4.315298e+05   1.924599e+05
  -3.974740e+05  -2.938739e+05
  -9.851751e+04  -6.486144e+05
   2.933824e+04  -4.131031e+05
  -1.376840e+05   1.660193e+05
  -3.403072e+05   3.523924e+05
  -2.639206e+05  -1.863065e+05
   1.783215e+05  -8.900398e+05
   7.612118e+05  -9.037905e+05
   1.025991e+06  -8.958829e+04
   5.984361e+05   7.786540e+05
  -3.435100e+05   8.725107e+05
  -9.935778e+05   1.874995e+05
  -6.153198e+05  -5.288190e+05
   5.732367e+05  -5.923979e+05
   1.434541e+06   7.603965e+03
   1.041516e+06   7.202115e+05
  -3.008132e+05   9.703780e+05
  -1.341817e+06   5.946946e+05
  -1.188003e+06  -7.525244e+04
  -1.808158e+05  -4.789829e+05
   5.519967e+05  -2.974316e+05
   2.994089e+05   2.119403e+05
  -5.567386e+05   3.936595e+05
  -1.008801e+06  -1.535259e+05
  -4.753063e+05  -1.060856e+06
   6.313530e+05  -1.425771e+06
   1.343602e+06  -6.881454e+05
   1.086329e+06   7.032089e+05
   1.606280e+05   1.591351e+06
  -6.530782e+05   1.196614e+06
  -8.390034e+05  -8.075964e+04
  -4.590306e+05  -1.039830e+06
   9.693588e+04  -9.143711e+05
   4.668534e+05  -1.195543e+05
   4.797243e+05   3.528416e+05
   2.205328e+05   1.524681e+05
   1.427231e+04  -1.109805e+05
   1.375546e+05   1.942305e+05
   4.084632e+05   8.194149e+05
   2.633802e+05   9.720645e+05
  -5.187573e+05   3.750950e+05
  -1.310942e+06  -4.099327e+05
  -1.214619e+06  -7.400096e+05
  -1.761630e+05  -5.945832e+05
   8.249983e+05  -3.527798e+05
   8.951414e+05  -1.881099e+05
   2.553037e+05  -5.987098e+03
  -1.571260e+05   1.869119e+05
   5.544559e+04   2.334977e+05
   3.237887e+05   1.439891e+05
   5.855112e+03   1.192490e+05
  -6.794935e+05   1.581310e+05
  -9.001546e+05  -4.293355e+04
  -2.357363e+05  -5.784794e+05
   8.272670e+05  -9.585741e+05
   1.418301e+06  -5.863677e+05
   1.107393e+06   4.287144e+05
   1.922675e+05   1.242750e+06
  -6.506477e+05   1.166899e+06
  -9.121018e+05   3.991494e+05
  -5.794002e+05  -2.607253e+05
  -7.419289e+04  -3.085120e+05
   1.373463e+05   4.714811e+03
  -4.670108e+04   7.971515e+04
  -3.055884e+05  -2.989404e+05
  -2.474656e+05  -7.100900e+05
   1.783131e+05  -5.700340e+05
   6.057358e+05   1.737796e+05
   5.778662e+05   8.909841e+05
  -5.230161e+03   8.818216e+05
  -7.043481e+05   1.200745e+05
  -8.605549e+05  -7.136352e+05
  -2.375733e+05  -9.431715e+05
   6.359935e+05  -5.190037e+05
   9.294963e+05   9.615987e+04
   4.141562e+05   4.752493e+05
  -2.430901e+05   5.108648e+05
  -2.617080e+05   3.053531e+05
   2.901932e+05   4.734439e+04
   5.859510e+05  -1.391844e+04
   9.957871e+04   2.523450e+05
  -7.267949e+05   5.953953e+05
  -1.041925e+06   5.243816e+05
  -5.914398e+05  -9.342783e+04
   9.598983e+04  -7.255061e+05
   4.186540e+05  -7.158844e+05
   2.904256e+05  -8.844402e+04
  -1.516807e+03   4.461788e+05
  -2.233952e+05   3.340638e+05
  -3.034667e+05  -2.005316e+05
  -2.045950e+05  -5.073540e+05
   6.295892e+04  -3.072709e+05
   3.344968e+05   7.279260e+04
   3.920073e+05   1.991111e+05
   2.136238e+05   4.338789e+04
   1.334136e+03  -7.399718e+04
  -8.089988e+04   7.318653e+04
  -9.289283e+04   3.435677e+05
  -1.777640e+05   3.906878e+05
  -3.119968e+05   5.748684e+04
  -2.962166e+05  -4.087537e+05
  -6.548185e+03  -5.655861e+05
   3.909660e+05  -2.322160e+05
   5.255164e+05   2.923503e+05
   1.768304e+05   5.269285e+05
  -4.246603e+05   3.044727e+05
  -7.243864e+05  -1.029410e+05
  -3.923980e+05  -3.342914e+05
   2.557337e+05  -2.938168e+05
   5.349430e+05  -1.298705e+05
   1.635996e+05  -7.098624e+03
  -3.724288e+05  -6.746355e+03
  -3.767053e+05  -1.396240e+05
   2.156532e+05  -2.917001e+05
   7.514061e+05  -2.154780e+05
