
 $NMID
 id='ANONYMOUS ', fmtdat='(2E16.6)'
 volume=1.0
 tramp=1.0
 $END
  -3.892366e+03  -3.689572e+02
  -2.100489e+03  -2.335569e+03
   5.892281e+02  -2.206535e+03
   1.718505e+03  -8.637392e+02
   8.778954e+02   2.543033e+02
  -4.943391e+02   4.164252e+02
  -7.442873e+02  -3.765811e+02
   4.225022e+01  -8.627565e+02
   6.611351e+02  -7.329080e+02
   8.788967e+02   2.799766e+01
   4.125283e+02   7.256939e+02
  -2.054713e+02   8.204051e+02
  -5.097571e+02   9.170071e+01
  -2.576457e+02  -6.286788e+02
   2.295992e+02  -6.449127e+02
   5.530869e+02   3.855788e+01
   2.793750e+02   6.501814e+02
  -2.659315e+02   6.631759e+02
  -5.944224e+02   1.641641e+02
  -4.345939e+02  -2.825365e+02
  -5.221003e+01  -4.144640e+02
   2.349030e+02  -2.169591e+02
   1.008917e+02  -3.739483e+00
  -1.839531e+02   4.986365e+01
  -4.125041e+02  -2.174974e+02
  -1.036541e+02  -4.284125e+02
   5.140926e+02  -2.724118e+02
   7.482221e+02   2.068156e+02
   2.995923e+02   4.761583e+02
  -4.750248e+02   3.888221e+02
  -6.835128e+02  -1.327930e+02
  -2.560813e+02  -4.091385e+02
   3.264445e+02  -4.836654e+02
   5.722005e+02  -1.274196e+02
   3.565195e+02   2.813633e+02
   8.205986e+01   3.943969e+02
  -1.574934e+02   2.176862e+02
  -6.568248e+01  -1.493514e+02
   2.126027e+02  -2.761992e+02
   3.305991e+02   1.181876e+02
   8.053532e+01   5.800878e+02
  -2.614170e+02   5.072614e+02
  -4.370109e+02   2.233479e+01
  -1.247890e+02  -4.215885e+02
   2.272548e+02  -2.313142e+02
   2.891091e+02   3.112647e+02
  -1.209442e+02   4.489688e+02
  -5.012888e+02   9.902545e+01
  -5.636895e+02  -3.988577e+02
  -1.539606e+02  -5.562799e+02
   3.643026e+02  -3.078269e+02
   5.468114e+02   3.730916e+01
   2.986865e+02   3.148201e+02
  -1.010297e+02   3.002524e+02
  -3.718413e+02  -1.308002e-01
  -1.949958e+02  -1.466204e+02
   8.685111e+01  -6.312410e+01
   9.779887e+01   8.704949e+01
  -1.357184e+02   1.301545e+02
  -3.468008e+02  -5.198818e+01
  -1.644830e+02  -2.659244e+02
   1.309919e+02  -2.625866e+02
   3.421444e+02  -1.011894e+02
   2.512115e+02   8.920743e+01
  -2.951992e+01   2.839694e+02
  -2.270707e+02   3.826514e+02
  -3.812408e+02   1.568257e+02
  -2.978054e+02  -1.521329e+02
  -3.993039e+01  -4.599061e+02
   9.984473e+01  -3.116691e+02
   9.738827e+01  -1.162387e+02
   3.737142e+01  -4.859721e+01
   7.597887e+01  -1.121589e+02
   2.221665e+02  -1.057837e+02
   2.630830e+02   9.162854e+01
   8.764788e+01   2.686179e+02
  -1.040889e+02   2.709906e+02
  -2.122496e+02  -7.844757e+00
  -1.519091e+02  -2.695949e+02
   4.763917e+01  -3.060299e+02
   2.555005e+02  -8.481366e+01
   3.102365e+02   2.010209e+02
   1.955491e+02   3.600859e+02
  -9.195541e+01   3.234470e+02
  -1.737455e+02   4.285352e+01
  -1.313093e+02   5.464620e+01
  -1.162191e+02   6.305327e+01
  -1.906277e+02   1.058600e+02
  -3.730846e+02  -1.043655e+02
  -3.148684e+02  -2.975823e+02
   5.317814e+01  -4.351199e+02
   3.586495e+02  -3.677207e+02
   4.652431e+02  -1.539904e+02
   3.293117e+02   1.226048e+02
   5.322589e+01   3.375396e+02
  -1.127669e+02   1.843674e+02
  -9.140109e+01   2.955989e+01
   7.292654e+01  -5.356967e+01
   1.788603e+02   1.641351e+01
   4.284623e+01   1.727231e+02
  -1.825989e+02   1.512117e+02
  -1.316993e+02  -9.784296e+01
   2.947944e+01  -1.202888e+02
   2.074770e+02  -2.966348e+01
   1.404875e+02   2.762881e+02
  -2.375544e+01   3.749682e+02
  -2.621989e+02   1.879575e+02
  -3.559692e+02  -6.370106e+01
  -2.633607e+02  -2.271650e+02
  -7.899956e+01  -2.955451e+02
   1.489048e+02  -1.734789e+02
   1.683740e+02   3.055487e+01
   8.702557e+01   1.168115e+01
  -5.945274e+01  -5.356546e+01
  -1.835365e+01  -7.031408e+01
   1.460377e+02  -5.904258e+01
   1.789915e+02   2.792292e+01
   4.884288e+01   6.726294e+01
  -6.854060e+01  -1.338111e+01
  -2.273068e+01  -1.000493e+02
   1.221916e+02  -4.685740e+01
   2.452312e+02   1.996366e+01
   2.447197e+02   1.397220e+02
   2.119146e+01   2.826313e+02
  -1.506609e+02   2.013911e+02
  -2.278713e+02   7.282893e+01
  -1.334648e+02  -7.473291e+01
  -4.267464e+00  -7.565959e+01
   6.294494e+01   1.170075e+01
  -4.164616e+01   1.146231e+02
  -1.476444e+02   4.211533e+01
  -1.743080e+02  -1.220253e+02
  -7.682680e+01  -2.023782e+02
   8.581011e+01  -1.831288e+02
   1.431600e+02  -3.036975e+01
   4.340306e+01   5.428559e+01
  -7.245003e+01  -5.993719e+00
  -5.468304e+01  -9.288887e+01
   1.269076e+02  -1.677294e+02
   2.272870e+02  -6.232608e+01
   1.769881e+02   1.635160e+02
  -1.171864e+01   2.315668e+02
  -1.333310e+02   1.381661e+02
  -2.008196e+02  -9.876977e+00
  -4.634812e+01  -1.258686e+02
   3.469071e+01  -9.187962e+01
   8.910962e+01   3.104678e+00
  -1.295124e+01   3.557632e+01
  -5.368344e+01   1.949539e+01
  -1.496149e+01  -1.055276e+01
   1.340246e+02  -1.887124e+01
   6.916722e+01   8.439475e+01
   3.014099e+00   1.759205e+02
  -1.334116e+02   1.507762e+02
  -2.734479e+02   2.622587e+01
  -2.062668e+02  -1.292900e+02
   9.009653e+00  -2.578785e+02
   1.689291e+02  -1.696325e+02
   1.131406e+02  -2.082289e+01
   9.676437e+01   3.412931e+01
   8.089995e+01   3.883706e+01
   3.798382e+01   1.050638e+01
   8.200242e+01  -1.909221e+01
   8.828312e+01   5.385394e+01
  -1.851350e+01   1.130022e+02
  -1.386865e+02   6.593083e+01
  -1.031250e+02  -3.110407e+01
  -1.103691e+01  -1.369151e+02
   1.539952e+02  -1.273190e+02
   2.414275e+02   5.305883e+01
   9.501978e+01   2.231860e+02
  -1.285169e+02   2.505049e+02
  -2.858215e+02   8.394735e+01
  -2.470533e+02  -7.412964e+01
  -1.183026e+02  -1.414695e+02
   1.486812e+01  -1.096128e+02
   1.009742e+02  -6.842793e+01
   1.005099e+02  -4.181015e+01
   1.527472e+01  -9.549131e+01
   4.870134e+01  -9.579051e+01
   1.468192e+02   2.290486e+01
   1.024147e+02   1.252078e+02
   2.295163e+01   2.163385e+02
  -1.334606e+02   2.139754e+02
  -2.268839e+02   2.636865e+01
  -1.585680e+02  -9.787233e+01
   3.081543e+01  -1.663378e+02
   3.930656e+01  -9.047335e+01
   9.655941e+01  -3.618561e+01
  -1.455191e+01   5.937321e+01
  -4.658914e+00   7.002343e+01
   2.939261e+01   3.265537e+01
   6.548835e+01   4.531046e+01
   1.114446e+01   3.261788e+01
  -8.745510e+01   5.001656e+01
  -1.841502e+02  -2.279455e+01
  -1.754570e+02  -6.295966e+01
  -3.047219e+01  -1.033599e+02
   1.026336e+02  -7.087767e+01
   1.512227e+02  -3.639140e+01
   1.039524e+02   1.429703e+01
  -7.894724e+01   5.388534e+01
  -5.119754e+01   9.314577e+00
  -3.818703e+00  -5.768982e+01
   6.257983e+01  -5.101405e+01
   5.909871e+01   2.202955e+01
   7.497163e+01   8.203680e+01
   5.429930e+01   1.702999e+01
   5.033966e+01  -1.526808e+01
   5.173908e+01  -2.745760e+01
   3.463269e+01   8.714516e+01
  -2.600567e-01   1.447483e+02
  -1.421006e+02   1.433090e+02
  -1.487180e+02   4.102207e+01
  -1.011801e+02  -9.664974e+01
  -5.211051e+00  -1.485124e+02
   1.182801e+02  -9.240147e+01
   8.682244e+01   7.740668e+00
  -3.188793e+01   1.465623e+01
  -1.230101e+02  -2.986885e+01
  -7.572760e+01  -1.050901e+02
   8.969497e+01  -1.300844e+02
   1.612588e+02  -3.047460e+01
   1.285028e+02   7.470715e+01
   4.326189e+01   1.020617e+02
  -8.195675e+01   7.390104e+01
  -9.406374e+01  -2.049321e+00
   1.482482e+01  -6.597257e+01
   7.307643e+01   1.101277e-02
   4.965868e+01   1.492555e+02
  -9.247014e+01   2.104663e+02
  -1.305405e+02   3.840241e+01
  -6.785909e+01  -9.535325e+01
  -8.951823e+00  -1.973747e+02
   9.538443e+01  -1.400023e+02
   8.190439e+01  -1.241401e+00
   5.680780e+01   9.763273e+01
  -1.195723e+01   1.161757e+02
  -4.965437e+01   1.395293e+01
  -5.732313e+01  -3.502106e+01
  -1.711755e+01  -2.450475e+01
   3.924335e+01   1.829172e+01
  -2.674495e+01  -1.200020e+01
  -1.918224e+01  -9.702683e+01
  -3.985756e+01  -7.683747e+01
   7.169646e+01  -6.531553e+01
   1.251949e+02   1.927884e+01
   1.099738e+02   6.974222e+01
   3.793041e+01   6.101278e+01
  -8.371026e+01   5.308498e+00
  -1.132330e+02   1.567968e+00
  -9.507971e+00  -4.237098e+01
   3.570586e+01  -1.697783e+01
   2.225090e+01  -5.324944e+01
   1.163041e+01   1.795567e+01
   1.349331e+01   3.196438e+01
   7.825232e+01   2.355120e+01
   6.597072e+01   6.810684e-01
   3.727090e+00   6.194607e+01
  -1.197024e+02   1.140546e+02
  -1.156760e+02   2.830960e+01
  -1.444942e+02  -8.059304e+01
  -2.629737e+01  -1.897069e+02
   9.023736e+01  -1.563571e+02
   1.349956e+02  -9.667469e+01
   7.289860e+01   1.946596e+00
   5.617606e+01   4.796789e+01
   4.901752e+00   1.530722e+01
   3.803750e+01   1.142033e+01
   4.635783e+01   1.431768e+01
   3.777860e+00   7.966882e+01
  -6.418473e+01   9.410324e+01
  -1.016405e+02  -3.236020e+01
  -7.005852e+01  -1.152697e+02
  -2.293367e+01  -7.057447e+01
   1.180478e+02  -2.714895e+01
   1.257374e+02   6.384817e+01
   7.300857e-01   9.750657e+01
  -5.133193e+01   7.491162e+01
  -1.061753e+02  -3.506608e+01
  -3.743337e+01  -8.210643e+01
   6.989297e+01  -5.623560e+01
   1.227564e+00  -6.228255e+01
  -4.117328e+00   2.631197e+01
  -2.390894e+01   3.013726e+00
   2.871684e+00  -3.290468e+01
   9.415105e+01  -5.933214e+01
   1.249976e+02  -7.168443e+01
   5.528899e+01   3.729180e+01
   9.789199e+00   1.004539e+02
  -9.928853e+01   7.119431e+01
  -3.308913e+01   4.226370e+00
  -1.912792e+01  -2.522096e+01
   3.783354e+01  -3.936544e+01
   2.995155e+01  -5.873047e+00
   2.961151e+01   5.278252e+01
   1.800649e-01   6.320249e+01
  -3.999496e+01  -1.149841e+01
  -4.648526e+01   6.561487e+00
  -1.081760e+01   3.546926e+01
   1.943905e+01   2.684689e+01
   9.361108e+00   5.466728e+00
  -1.436711e+01  -6.885394e+01
   4.369138e+00  -6.183807e+01
   4.946181e+01  -3.978559e+01
   1.513558e+01   2.085443e+01
  -1.760632e+01   6.782344e+01
  -6.093987e+01   8.119104e+00
  -8.531234e+01  -5.945202e+01
  -2.289236e+01  -4.286709e+01
   6.941133e+00  -1.277151e+01
   1.440471e+02   6.786688e+01
   5.729372e+01   3.114678e+01
  -2.493450e+01   2.712145e+01
  -3.870181e+01  -1.276997e+01
  -2.099018e+01   3.512538e+01
   5.539251e+01   1.851854e+01
   2.256079e+01  -8.208088e+00
  -3.107014e+01   1.535349e+01
  -6.848297e+01   1.968407e+01
