
 $NMID
 id='ANONYMOUS ', fmtdat='(2E16.6)'
 volume=1.0
 tramp=1.0
 $END
  -3.406116e+03  -5.445434e+02
  -1.873141e+03  -2.346158e+03
   6.799608e+02  -2.191169e+03
   1.606368e+03  -5.763065e+02
   7.030167e+02   5.277751e+02
  -5.703735e+02   3.336528e+02
  -6.605204e+02  -3.776754e+02
   8.776933e+01  -8.106181e+02
   7.260059e+02  -6.229976e+02
   7.300491e+02   8.841814e+01
   3.235058e+02   6.583003e+02
  -2.672227e+02   7.072882e+02
  -5.236642e+02   1.688665e+02
  -2.874102e+02  -5.099077e+02
   2.860054e+02  -5.757985e+02
   4.605987e+02   4.622427e+01
   2.325203e+02   5.150604e+02
  -2.202217e+02   4.633509e+02
  -4.477948e+02   7.513576e+01
  -3.095980e+02  -3.442198e+02
  -5.922417e+00  -3.559320e+02
   2.025502e+02  -1.534805e+02
   1.225820e+02   8.425187e+00
  -1.636653e+02   7.823394e+01
  -3.434417e+02  -1.624974e+02
  -1.081994e+02  -4.130270e+02
   3.851760e+02  -2.996073e+02
   7.261966e+02   1.344712e+02
   2.763148e+02   4.749723e+02
  -3.706200e+02   3.565257e+02
  -6.219962e+02  -8.657549e+01
  -2.623543e+02  -4.342406e+02
   2.652203e+02  -4.277259e+02
   5.074491e+02  -1.021434e+02
   3.413090e+02   2.159978e+02
   2.139048e+01   4.355215e+02
  -1.837652e+02   1.664812e+02
  -1.141327e+02  -2.153923e+02
   2.001999e+02  -3.448134e+02
   4.248209e+02   1.032503e+02
   1.742886e+02   6.064544e+02
  -3.202012e+02   5.445113e+02
  -4.587672e+02   1.455773e+01
  -1.151663e+02  -4.430249e+02
   2.590894e+02  -2.155329e+02
   2.536956e+02   2.366585e+02
  -1.098793e+02   4.267099e+02
  -4.511543e+02   1.104105e+02
  -4.671673e+02  -3.481184e+02
  -6.971682e+01  -5.043575e+02
   3.562748e+02  -2.606379e+02
   5.237441e+02   7.075294e+01
   2.503281e+02   3.721440e+02
  -1.566700e+02   2.627700e+02
  -3.697993e+02   1.616925e+00
  -1.498261e+02  -1.415990e+02
   9.158902e+01  -5.936283e+01
   1.249473e+02   1.252158e+02
  -1.591181e+02   1.329688e+02
  -2.404681e+02  -9.039290e+01
  -1.087838e+02  -2.197483e+02
   1.505809e+02  -2.201251e+02
   2.725637e+02  -5.836129e+01
   1.906427e+02   4.872410e+01
  -5.099148e-01   1.888894e+02
  -2.124167e+02   2.820908e+02
  -3.213965e+02   1.172798e+02
  -2.329480e+02  -1.155142e+02
   8.331413e+00  -3.637885e+02
   1.291614e+02  -2.383162e+02
   6.434101e+01  -4.583185e+01
  -2.622744e+01   1.760602e+01
   3.217558e+01  -8.781374e+01
   1.555521e+02  -1.137204e+02
   2.618699e+02   6.920211e+00
   8.781886e+01   2.366578e+02
  -3.927610e+01   2.055775e+02
  -2.185349e+02  -1.650814e+00
  -1.840922e+02  -2.225304e+02
   1.843392e+01  -2.341008e+02
   2.116988e+02  -9.943485e+01
   2.977379e+02   1.677876e+02
   1.468781e+02   2.977865e+02
  -1.295251e+02   2.549154e+02
  -1.678888e+02   6.350344e+01
  -1.136230e+02   2.839663e+01
  -6.628692e+01   8.772510e+00
  -1.575875e+02   2.734409e+01
  -3.484140e+02  -7.651007e+01
  -2.825998e+02  -2.349766e+02
   1.347997e+01  -3.847883e+02
   3.001073e+02  -3.327171e+02
   4.373096e+02  -1.733752e+02
   2.787294e+02   8.427170e+01
   1.092581e+00   2.190480e+02
  -1.008473e+02   1.983182e+02
  -6.657319e+01   9.604370e+00
   6.319728e+01  -1.224381e+02
   1.575079e+02   6.591766e+01
   3.945521e+01   1.501091e+02
  -1.875680e+02   1.503067e+02
  -1.255069e+02  -4.397510e+01
   4.571055e+00  -1.224205e+02
   1.879020e+02  -2.720631e+01
   1.399652e+02   2.368645e+02
  -3.572421e+00   2.550428e+02
  -2.124059e+02   1.249550e+02
  -2.924194e+02  -7.692229e+01
  -1.948895e+02  -2.265150e+02
  -7.219063e+01  -1.755362e+02
   1.073666e+02  -1.051520e+02
   1.268540e+02   4.626744e+00
   2.321545e+01   1.845014e+01
  -1.399315e+01  -3.017065e+01
  -1.998877e+01  -1.716791e+02
   1.274405e+02  -9.231421e+01
   1.409204e+02   2.708037e+01
   4.559056e+01   8.605346e+01
  -5.436064e+01  -4.592967e+00
  -9.638267e+01  -9.220884e+00
   5.401354e+01  -5.073764e+01
   2.218837e+02  -1.132732e+01
   1.869861e+02   1.166748e+02
   1.625886e+01   1.996505e+02
  -1.605424e+02   2.176905e+02
  -2.107152e+02   9.051215e+01
  -1.354051e+02  -6.451223e+01
   4.345747e+01  -8.109990e+01
   1.006879e+02  -2.515783e+00
  -4.153838e+01   1.007653e+02
  -1.639973e+02   4.801493e+01
  -1.778714e+02  -1.033662e+02
  -8.259377e+01  -1.712704e+02
   8.390994e+01  -1.291460e+02
   1.118576e+02   2.344182e+00
   5.399664e+01   8.056294e+01
   1.059427e+01   1.701034e+01
  -1.994563e+01  -1.072585e+02
   2.335053e+01  -1.605417e+02
   1.538014e+02  -4.024299e+01
   1.415586e+02   1.232134e+02
   1.336003e+01   1.680403e+02
  -1.607836e+02   1.583426e+02
  -1.712567e+02   1.597013e+01
  -8.646453e+01  -1.257230e+02
   7.029633e+01  -1.156478e+02
   7.407514e+01   3.068245e-01
   1.678518e+01   8.907938e+01
  -2.681782e+01   2.450139e+01
  -2.837755e+01  -3.322910e+01
   3.174136e+01   9.035670e+00
   7.679756e+01   3.717768e+01
   1.049057e+01   1.384960e+02
  -9.379631e+01   1.147334e+02
  -1.939699e+02   4.283643e+01
  -1.792371e+02  -1.166224e+02
  -3.201461e+01  -1.862326e+02
   1.000534e+02  -1.337845e+02
   1.294315e+02  -3.832914e+01
   6.199817e+01   1.571357e+01
   9.277354e+00   5.403444e+01
   8.087147e+00  -5.294569e+01
   6.341904e+01   1.372426e+01
   4.508131e+01   7.239298e+01
   8.738631e+00   7.576030e+01
  -4.308039e+01   2.755836e+01
  -7.440068e+01  -1.161839e+01
  -9.935118e+00  -7.155443e+01
   1.630030e+02  -8.298489e+01
   1.391611e+02   5.514099e+01
   9.593520e+01   1.705308e+02
  -1.144584e+02   1.576105e+02
  -2.327540e+02   1.079418e+02
  -2.429431e+02  -5.921154e+01
  -9.046702e+01  -1.509595e+02
   4.611838e+01  -1.332274e+02
   6.741415e+01  -7.463146e+01
   9.684335e+01  -6.540187e+01
   8.173626e+01  -8.426142e+01
   4.475557e+01  -7.011309e+01
   9.997736e+01   2.418650e+01
   1.088255e+02   8.879564e+01
   1.786896e+01   1.345692e+02
  -8.330611e+01   1.063617e+02
  -1.274915e+02   1.667153e+01
  -1.266833e+02  -1.199531e+02
  -3.622952e+01  -1.046774e+02
   5.095037e+01  -8.412787e+01
   7.449310e+01   7.649100e-01
  -2.111134e+00   3.389557e+01
  -1.445007e+01   4.642903e+01
  -1.671714e+01   8.701951e+00
   3.903113e+01   3.291733e+01
   2.214992e+01   4.609341e+01
  -5.598906e+01   4.336238e+01
  -1.371331e+02  -1.271205e+01
  -9.759730e+01  -2.859746e+01
  -1.232635e+01  -6.181005e+01
   9.848422e+01  -3.586848e+01
   1.297412e+02  -6.517016e+01
   1.373868e+01   6.767091e+00
  -4.607689e+01   2.408531e+01
  -3.925856e+01  -2.308277e+01
  -4.686722e+00  -3.752626e+01
   5.713253e+01  -3.302889e+01
   7.458690e+01   2.510470e+01
   3.436484e+01   1.169828e+01
  -2.243632e+00   5.176265e+01
  -2.573950e+01  -7.858025e-01
   7.862457e+01  -1.123032e+01
   1.154679e+01   6.771650e+01
   4.681312e+00   1.069673e+02
  -7.905484e+01   7.492646e+01
  -1.335184e+02   3.826507e+01
  -9.308243e+01  -9.680686e+01
  -4.413674e+00  -9.838174e+01
   9.320714e+01  -6.907831e+01
   6.049919e+01   2.180554e+01
  -6.056875e+01   5.962628e+00
  -1.029034e+02  -5.488556e+01
  -4.869318e+01  -9.859157e+01
   8.323209e+01  -1.096354e+02
   1.337848e+02  -5.584354e+00
   9.836913e+01   3.307405e+01
   2.226954e+01   9.810826e+01
  -6.609090e+01   4.455593e+01
  -5.325703e+01  -7.230913e-01
   3.962212e+01  -5.619500e+01
   6.706729e+01   2.938255e+01
   3.530352e+01   1.203949e+02
  -6.382702e+01   1.217220e+02
  -1.463149e+02   3.721078e+01
  -3.561752e+01  -6.959916e+01
   8.119738e+00  -1.383127e+02
   7.190000e+01  -1.141731e+02
   9.838488e+01   3.170560e+01
   2.011117e+01   8.991928e+01
  -7.839884e+00   1.014920e+02
  -4.436939e+01  -1.768855e+01
  -3.435126e+01   6.447631e+00
  -1.914152e+01  -1.146591e+01
   2.155958e+01  -1.656867e+01
  -3.535242e+01   2.996353e+01
  -2.820131e+01  -2.451080e+01
  -2.713615e+01  -6.279242e+01
   6.832922e+01  -3.634798e+01
   7.270203e+01   6.485094e+01
   9.675233e+01   7.236694e+01
   2.749623e+01   3.962938e+01
  -7.693253e+01   4.277165e+01
  -8.016562e+01  -1.720632e+01
  -1.087519e+00   2.811547e+00
   3.179147e+01  -2.340984e+01
   2.197689e+01  -2.117596e+01
  -1.195611e+01   5.003553e+01
  -2.383249e-01   1.096299e+01
   5.231229e+01  -3.156573e+01
   7.953267e+01   2.869466e+01
  -1.219863e+01   8.529626e+01
  -9.282189e+01   7.477575e+01
  -1.487022e+02   3.978826e+01
  -1.250510e+02  -9.099539e+01
  -2.167901e+01  -1.541688e+02
   5.583130e+01  -1.234579e+02
   9.947571e+01  -6.889343e+01
   5.452258e+01   8.530583e+00
   1.031351e+01   6.770334e+01
   4.047369e+01  -2.397383e+01
  -3.558448e+01   1.702909e+01
   3.014809e+01   2.118192e+00
  -6.758832e-01   7.161745e+01
  -3.672594e+01   7.297213e+01
  -7.714371e+01  -1.857739e+01
  -8.211819e+01  -9.538406e+01
  -1.811348e+01  -9.155318e+01
   7.425904e+01  -9.139188e+00
   8.473900e+01   5.618052e+01
   3.852297e+01   9.398214e+01
  -4.000667e+01   4.070533e+01
  -9.030432e+01   1.184376e+01
  -5.724434e+01  -1.812303e+01
   3.539251e+01  -3.553048e+01
   1.877963e+01   2.083453e+01
  -9.834585e+00   2.496643e+01
  -6.202611e+01  -7.925443e+00
  -5.760250e+00  -4.063942e+01
   9.548425e+01  -7.142683e+01
   9.345500e+01  -6.692233e+01
   3.400129e+01   3.988729e+01
  -4.061415e+01   7.541601e+01
  -5.309822e+01   7.469531e+01
  -2.862940e+01   1.048450e+01
  -1.185108e+01  -7.514066e+01
   3.127873e+01  -2.989247e+00
   4.384398e+01   2.494417e-01
   3.507747e+01   4.740211e+01
  -2.517647e+01   5.114998e+01
  -7.422289e+01   1.776795e+01
  -2.093394e+01  -4.084691e+01
  -7.416596e+00  -2.309894e+01
   4.709679e+01   1.664809e+01
   1.239318e+01   1.216563e+01
   1.384962e+01  -9.554106e+00
   4.328188e+01  -4.355707e+01
   7.507105e+01  -8.848487e+00
   4.251318e+01   3.709943e+01
  -2.416592e+01   6.150778e+01
  -8.243613e+00   1.906307e+01
  -1.390690e+01   2.718154e+00
  -4.141431e+00  -7.888521e+01
   3.125626e+01  -5.561168e+01
   1.037873e+02   2.376261e+01
   2.740821e+01   3.826085e+01
  -2.868162e+01   3.106469e+01
  -7.803782e+01   1.357382e+01
  -5.328290e+01  -2.500537e+00
  -2.222201e+00  -2.996585e+01
   5.293724e+01   1.822073e+00
  -1.045534e+01   8.973162e+00
  -7.133865e+01   3.048279e+01
