
 $NMID
 id='ANONYMOUS ', fmtdat='(2E16.6)'
 volume=1.0
 tramp=1.0
 $END
   3.710148e+03  -4.157274e+01
   2.257985e+03   2.150807e+03
   1.365133e+02   2.194048e+03
  -1.432471e+03   1.075861e+03
  -9.181536e+02  -9.230877e+01
   3.556018e+02  -3.039803e+02
   5.682338e+02   2.765374e+02
   9.262530e+01   7.959108e+02
  -6.512540e+02   6.024013e+02
  -7.966960e+02   4.876712e+01
  -4.506062e+02  -6.125758e+02
   1.111009e+02  -6.975081e+02
   3.749350e+02  -1.676998e+02
   2.156445e+02   5.541607e+02
  -1.551692e+02   5.926830e+02
  -4.876411e+02   1.461750e+01
  -2.496164e+02  -5.747600e+02
   2.103699e+02  -6.600114e+02
   4.821841e+02  -2.483786e+02
   4.416709e+02   2.613791e+02
   8.205464e+01   3.955814e+02
  -1.795804e+02   2.427581e+02
  -7.469246e+01   5.776624e+01
   1.654082e+02   8.452109e+01
   3.448743e+02   2.079398e+02
   9.950983e+01   4.245919e+02
  -4.423126e+02   2.142980e+02
  -6.540588e+02  -1.226136e+02
  -2.426789e+02  -4.320925e+02
   3.696994e+02  -2.742344e+02
   6.164932e+02   1.037281e+02
   2.545814e+02   4.104239e+02
  -3.045867e+02   3.775340e+02
  -5.154132e+02   1.045057e+02
  -3.566882e+02  -1.968748e+02
  -5.618602e+01  -4.042921e+02
   8.939791e+01  -2.019813e+02
   4.773582e+01   1.252089e+02
  -1.393494e+02   1.989524e+02
  -2.968088e+02  -8.236697e+01
  -6.297895e+01  -5.584019e+02
   3.296012e+02  -4.712404e+02
   4.627156e+02  -9.141828e+00
   1.349291e+02   3.523240e+02
  -1.984202e+02   2.039394e+02
  -1.982396e+02  -3.203189e+02
   9.263132e+01  -4.235581e+02
   4.539841e+02  -1.007250e+02
   5.414447e+02   4.239569e+02
   1.230908e+02   5.260837e+02
  -3.349244e+02   2.790087e+02
  -5.585591e+02  -4.605391e+01
  -3.156825e+02  -2.791782e+02
   8.897927e+01  -2.809742e+02
   3.198501e+02  -8.668925e+01
   2.285242e+02   3.328614e+01
  -7.995742e+01   3.696499e+01
  -7.419745e+01  -1.022912e+02
   1.496337e+02  -1.262455e+02
   2.812994e+02   1.031968e+02
   1.076340e+02   1.704207e+02
  -1.740693e+02   3.171647e+02
  -3.226853e+02   1.529928e+02
  -2.790917e+02  -9.060387e+01
  -8.438464e+00  -3.202026e+02
   2.307197e+02  -3.014191e+02
   3.801761e+02  -1.852764e+02
   3.006251e+02   1.748664e+02
   4.346458e+01   3.574709e+02
  -8.948744e+01   2.815985e+02
  -5.766808e+01   7.646911e+01
  -7.268682e+01   8.546223e+01
  -9.606611e+01   1.454046e+02
  -2.239996e+02   1.234128e+02
  -2.286769e+02  -1.318897e+02
  -1.040805e+02  -2.563267e+02
   1.421063e+02  -1.679854e+02
   2.131985e+02   2.063343e+01
   1.410179e+02   2.632596e+02
  -6.035278e+01   2.764472e+02
  -2.767314e+02   5.277481e+01
  -3.416607e+02  -2.089254e+02
  -1.400103e+02  -3.486829e+02
   4.018755e+01  -3.053070e+02
   1.709801e+02  -1.423922e+02
   1.048529e+02  -3.808008e+01
   9.723107e+01  -8.008862e+01
   2.515299e+02  -5.996472e+01
   4.119911e+02   6.109257e+01
   3.364662e+02   3.189679e+02
  -4.136184e+01   4.937550e+02
  -4.060093e+02   3.619732e+02
  -4.957600e+02   1.457893e+02
  -2.958724e+02  -1.251710e+02
  -2.948550e+01  -3.022450e+02
   1.207825e+02  -2.058822e+02
   4.150595e+01  -5.769286e+01
  -1.192998e+02   5.905273e+01
  -1.232505e+02  -2.826296e+01
   6.157248e-01  -2.035953e+02
   1.397200e+02  -1.045621e+02
   1.521368e+02   8.321187e+01
  -1.948527e+01   1.333953e+02
  -1.659953e+02   3.928908e+01
  -1.611516e+02  -2.205379e+02
   4.587424e+01  -3.491679e+02
   2.441990e+02  -2.247232e+02
   3.940469e+02   6.519628e+01
   2.798549e+02   2.415721e+02
   1.988699e+01   2.650434e+02
  -1.418079e+02   1.633000e+02
  -1.943806e+02   3.197995e+01
  -2.161800e+01  -1.399244e+01
   7.468219e+01   3.855110e+01
   3.565740e+00   1.510940e+02
  -1.207853e+02   4.697786e+01
  -1.391350e+02  -3.956163e+01
  -1.825410e+01  -7.333099e+01
   8.415457e+01   2.716250e+01
   6.482172e+01   9.780165e+01
  -1.464025e+02   8.846624e+01
  -3.171754e+02   5.943677e+00
  -2.646696e+02  -1.446711e+02
  -5.087450e+01  -3.143933e+02
   2.512182e+02  -2.314167e+02
   2.829009e+02  -8.129966e+01
   1.787238e+02   5.760833e+01
  -3.410056e+01   7.168521e+01
  -5.868419e+01   4.680769e+00
   4.664247e+01  -8.467417e+01
   1.842683e+02  -1.537827e+01
   1.843235e+02   1.227589e+02
   5.221039e+01   1.803815e+02
  -1.146900e+02   1.687457e+02
  -1.553565e+02  -2.443764e+01
  -4.322749e+01  -7.169633e+01
   3.670211e+01   1.027885e+01
   7.131867e+00   1.138584e+02
  -1.164040e+02   1.500497e+02
  -2.390198e+02  -2.301466e+00
  -1.952196e+02  -1.457701e+02
  -6.901723e+00  -2.362228e+02
   1.481983e+02  -1.353290e+02
   1.626267e+02   1.961221e+00
   5.313672e+01   9.147069e+01
  -4.953875e+01   1.026223e+02
  -3.610953e+01   3.545149e+01
   7.073709e+00  -5.450319e+01
   3.920555e+01  -1.951216e+01
   3.668177e+01   2.151926e+01
  -7.390419e+01   1.923103e+01
  -9.239077e+01  -9.675413e+01
   5.594399e+00  -1.609457e+02
   1.606485e+02  -1.542668e+02
   2.229241e+02  -7.506421e+00
   2.080728e+02   1.631386e+02
  -3.714261e+00   2.923128e+02
  -1.151260e+02   1.663445e+02
  -1.488761e+02   4.640379e+01
  -9.237227e+01  -6.607589e+01
  -8.549791e+01  -4.804567e+01
  -8.152286e+01  -5.217907e+00
  -1.145103e+02   2.223512e+01
  -7.586916e+01  -7.002882e+01
   9.878466e+00  -1.076148e+02
   1.334052e+02  -7.577633e+01
   1.252181e+02   4.585978e+01
  -2.140799e+01   1.330479e+02
  -1.472798e+02   1.207932e+02
  -2.155153e+02  -7.317137e+01
  -9.624027e+01  -2.490725e+02
   1.418121e+02  -2.455731e+02
   2.799317e+02  -9.072134e+01
   2.748796e+02   7.114598e+01
   1.228396e+02   1.565103e+02
  -3.611905e+01   1.603306e+02
  -8.483958e+01   1.001025e+02
  -1.113226e+02   8.211194e+01
  -4.043769e+01   1.055262e+02
  -6.328152e+01   8.492454e+01
  -1.282408e+02  -2.628238e+01
  -1.583288e+02  -1.400219e+02
  -3.767899e+01  -1.873857e+02
   9.627679e+01  -2.024996e+02
   2.269458e+02   1.557492e+01
   1.292453e+02   1.364601e+02
   2.375038e+01   1.221525e+02
  -8.293759e+01   9.101767e+01
  -5.819717e+01  -4.870788e+00
   3.807823e+01  -8.641707e+01
   5.399880e+01  -2.004203e+01
  -2.871596e+01  -5.275761e+01
  -5.270976e+01  -2.358848e+00
  -4.998285e+01  -5.991316e+01
   6.305397e+01  -4.794415e+01
   1.833283e+02  -5.670274e+01
   1.341403e+02   5.875420e+01
   2.203093e+01   8.295569e+01
  -1.573009e+02   9.101269e+01
  -1.615219e+02   4.208650e+01
  -9.269226e+01  -8.198953e+01
   5.961033e+01  -5.708546e+01
   5.089501e+01   6.023428e+01
   1.319803e+01   7.583207e+01
  -3.919205e+01   7.909510e+01
  -4.575623e+01   3.845261e+00
  -6.251317e+01  -6.410918e+01
  -5.503680e+01  -6.518865e+01
  -6.460476e+01   2.869537e+00
  -6.137248e+01  -1.638834e+01
  -8.587346e+01  -5.509944e+01
   3.041503e+01  -1.521893e+02
   7.565213e+01  -1.198792e+02
   1.803840e+02  -2.933958e+01
   1.517365e+02   1.079273e+02
   1.980155e+01   1.118357e+02
  -1.121868e+02   4.795577e+01
  -5.583340e+01  -2.908875e+01
   2.664626e+01  -5.076950e+01
   1.477510e+02   1.971578e+01
   7.571614e+01   1.347151e+02
  -7.591186e+01   9.630197e+01
  -1.514477e+02   7.072589e+01
  -1.522667e+02  -8.367717e+01
  -4.538777e+01  -7.206475e+01
   6.342296e+01  -4.804770e+01
   6.702619e+01   3.023095e+01
  -5.015447e+01   4.382760e+01
  -1.128995e+02  -2.808689e+01
  -3.348507e+01  -1.008826e+02
   1.023899e+02  -1.572170e+02
   1.429692e+02  -2.515243e+01
   1.761716e+02   8.551417e+01
   1.202920e+00   1.878554e+02
  -7.803375e+01   1.323901e+02
  -1.110940e+02  -1.026201e+01
  -6.051283e+01  -1.265984e+02
   1.032154e+01  -1.083005e+02
   5.072176e+01   1.759193e+01
   6.965259e+01   2.105157e+01
  -1.056747e+01  -4.815452e+00
  -1.177211e+01  -4.250550e+01
   4.890548e+01   1.126693e+01
   3.484440e+01   8.115391e+01
   4.233467e+01   1.426166e+02
  -7.052872e+01  -2.840072e+00
  -1.427393e+02  -7.537313e-01
  -1.287828e+02  -4.418500e+01
  -2.246142e+01  -3.482874e+01
   7.914017e+01  -2.697018e+01
   1.104775e+02   3.146904e+00
   2.175575e+01   4.468554e+01
   1.787416e+01   3.667743e+01
  -2.423474e+01   7.447370e+00
   3.236083e+01   9.958353e+00
  -2.668342e+01   7.273775e-02
  -5.277302e+01   2.763670e+01
  -1.063770e+02  -1.762829e+01
  -2.419710e+01  -1.004968e+02
   1.438286e+02  -1.069776e+02
   1.423853e+02  -3.778186e+01
   1.569510e+02   6.108436e+01
   3.100752e+01   1.497627e+02
  -9.321165e+01   1.682037e+02
  -1.165776e+02   7.093661e+01
  -7.351179e+01  -3.836260e+00
  -1.420513e+01  -1.448874e+01
  -3.348902e+01  -5.574226e+01
  -1.477256e+01  -9.362338e+00
  -5.733137e+01  -4.870765e+01
  -1.349461e+01  -9.647419e+01
   3.172643e+01  -1.201784e+02
   9.218740e+01  -6.283297e+00
   4.498016e+01   1.419274e+02
   1.017427e+01   9.340271e+01
  -1.193773e+02   1.535015e+01
  -1.395296e+02  -2.104119e+01
  -5.052413e+01  -7.271268e+01
   8.336983e+01  -1.127622e+02
   1.461802e+02   1.547445e+01
   3.646582e+01   2.805957e+01
  -9.932959e+00   6.533475e+01
  -6.334593e+01   3.356919e+01
  -7.174410e+00  -2.538349e+01
   2.866722e+01  -3.186536e+01
   1.718262e+01   1.792932e+01
  -8.587465e+01   9.743692e+01
  -1.342783e+02   4.054621e+01
  -8.879760e+01  -4.077432e+01
   3.688017e+01  -8.326533e+01
   8.751660e+01  -1.172926e+02
   3.835501e+01  -5.283664e+00
   3.141488e+01   7.613205e+01
  -4.957928e+01   3.384897e+01
  -5.458068e+01  -1.058456e+01
  -2.739401e+01  -4.582559e+01
   5.716305e+01  -6.422183e+01
   1.759796e+01  -2.253086e+01
   3.955606e+01   6.741243e+01
  -9.790997e-02  -7.551085e+00
   3.077051e+01   9.189898e+00
   1.092260e+01   2.006270e+01
   3.464947e+00   7.545993e+01
  -6.654402e-01   1.330111e+01
  -4.066217e+01   3.471889e+01
  -4.552882e+01  -5.138488e+01
   1.181344e+01  -6.274894e+01
   6.282228e+01  -4.568006e+01
   5.876401e+01   4.564034e+01
   3.275870e+01   9.479071e+01
  -2.925157e+01   4.239828e+01
  -1.066237e+02   9.533411e+00
  -4.212395e+01  -6.329765e+01
   3.013504e+01  -2.679713e+01
   5.969451e+01  -7.399853e+01
   4.375770e+01  -1.163558e+01
  -1.200982e+01  -2.223226e+01
  -2.264838e+01  -2.323906e+01
   7.394190e+00  -3.076351e+01
   9.151082e+01   3.337153e+00
