
 $NMID
 id='ANONYMOUS ', fmtdat='(2E16.6)'
 volume=1.0
 tramp=1.0
 $END
  -4.398603e+03   4.915863e+01
  -2.347538e+03  -2.293928e+03
   4.207024e+02  -2.659699e+03
   1.841087e+03  -9.521672e+02
   9.751282e+02   3.202769e+02
  -3.591104e+02   4.439862e+02
  -7.073644e+02  -3.573226e+02
   5.162301e+01  -8.350187e+02
   6.294977e+02  -6.823405e+02
   7.803323e+02   3.562053e+01
   4.496774e+02   7.469641e+02
  -1.236105e+02   8.271915e+02
  -5.282088e+02   1.451379e+02
  -3.568584e+02  -5.976265e+02
   2.013391e+02  -7.086124e+02
   5.733989e+02  -3.193070e+01
   3.022756e+02   6.020735e+02
  -2.543551e+02   6.661499e+02
  -5.886582e+02   1.590270e+02
  -4.374263e+02  -2.461812e+02
  -2.636283e+01  -4.023351e+02
   2.194452e+02  -2.479550e+02
   1.839570e+02  -7.640217e+01
  -1.370382e+02  -4.922093e+00
  -3.475253e+02  -2.377941e+02
  -1.388200e+02  -3.962558e+02
   4.085146e+02  -2.680227e+02
   7.540558e+02   8.184733e+01
   4.050582e+02   4.974972e+02
  -3.137948e+02   3.339979e+02
  -6.554163e+02  -8.563286e+01
  -2.934496e+02  -4.484759e+02
   2.728214e+02  -4.715739e+02
   4.896302e+02  -1.811280e+02
   4.283254e+02   2.148022e+02
   1.003356e+02   4.334900e+02
  -1.733786e+02   2.271686e+02
  -9.297982e+01  -1.604325e+02
   1.366738e+02  -3.490775e+02
   4.306978e+02   6.262790e+01
   1.991907e+02   6.390018e+02
  -2.031422e+02   6.398742e+02
  -5.212537e+02  -1.005374e+01
  -2.754545e+02  -4.491167e+02
   2.313606e+02  -2.378292e+02
   2.493079e+02   3.116040e+02
  -1.069822e+02   4.835434e+02
  -5.259154e+02   1.423735e+02
  -5.578655e+02  -3.916089e+02
  -1.550631e+02  -5.561097e+02
   3.832988e+02  -3.756863e+02
   5.907866e+02   3.616018e+01
   3.805380e+02   2.969353e+02
  -6.567143e+01   3.662688e+02
  -3.836781e+02   8.701584e+01
  -2.487838e+02  -8.158292e+01
   4.058252e+01  -7.961598e+01
   8.515342e+01   1.010583e+02
  -1.248090e+02   1.053441e+02
  -3.000561e+02  -7.857676e+01
  -1.420873e+02  -2.670407e+02
   1.701778e+02  -2.460275e+02
   3.523991e+02  -1.094704e+02
   2.634046e+02   1.213429e+02
   1.162758e+01   2.628147e+02
  -2.492896e+02   3.833117e+02
  -4.009033e+02   1.794598e+02
  -3.317342e+02  -1.558291e+02
  -8.866793e+01  -4.507795e+02
   8.976806e+01  -3.346118e+02
   5.971360e+01  -1.080778e+02
   6.543012e+01  -3.931191e+01
   7.933771e+01  -1.057511e+02
   1.885706e+02  -1.189100e+02
   2.113631e+02   9.838953e+01
   1.213412e+02   2.760942e+02
  -4.016920e+01   2.292719e+02
  -2.274671e+02   6.072171e+00
  -1.136129e+02  -2.472143e+02
   2.237859e+01  -2.738944e+02
   2.610389e+02  -1.115749e+02
   3.344176e+02   1.513577e+02
   1.954334e+02   3.506014e+02
  -7.164731e+01   3.009930e+02
  -2.316705e+02   1.765611e+02
  -1.733678e+02   5.045435e+01
  -7.179185e+01   2.817922e+01
  -2.411023e+02   4.818963e+01
  -4.525419e+02  -7.274081e+01
  -3.302099e+02  -2.834908e+02
  -1.558573e+00  -4.665801e+02
   3.605378e+02  -4.519410e+02
   5.237202e+02  -2.526011e+02
   3.193268e+02   9.763928e+01
  -1.234950e+01   2.954072e+02
  -9.502322e+01   2.268135e+02
  -7.327659e+01   2.775750e+01
   1.500856e+02  -2.465299e+01
   2.052546e+02   3.391414e+01
   1.120270e+01   1.957718e+02
  -1.644702e+02   1.500349e+02
  -1.896619e+02  -5.484936e+01
  -8.208589e-01  -1.783074e+02
   1.722871e+02  -2.331184e+01
   1.942051e+02   2.533935e+02
  -4.629104e+01   3.928498e+02
  -2.817307e+02   1.869805e+02
  -3.829031e+02  -5.204105e+01
  -2.630011e+02  -2.509060e+02
  -6.034677e+01  -2.742081e+02
   1.492880e+02  -1.115821e+02
   1.896552e+02   2.253277e+01
   6.300615e+01   5.378037e+01
  -9.015583e+01  -1.666330e+01
   1.754594e+01  -1.162502e+02
   1.317437e+02  -9.917876e+01
   2.256833e+02   6.564960e+01
   2.774268e+01   6.904289e+01
  -8.039302e+01   3.332109e+01
  -9.052509e+01  -7.804995e+01
   1.430631e+02  -6.057320e+01
   3.169447e+02   1.226813e+01
   2.942716e+02   2.121332e+02
   2.622062e+01   2.961568e+02
  -2.380346e+02   2.583993e+02
  -2.934921e+02   1.272410e+02
  -1.744401e+02  -5.171289e+01
   8.708760e+00  -1.317383e+02
   8.581672e+01   1.115375e+01
  -4.178868e+01   8.369315e+01
  -1.380367e+02   4.085202e-01
  -2.299421e+02  -1.204900e+02
  -1.499456e+01  -1.992494e+02
   8.536960e+01  -1.764814e+02
   1.805821e+02  -4.079469e+01
   6.461469e+01   5.703172e+01
  -3.825720e+01   4.215980e+00
  -1.921070e+01  -1.258967e+02
   5.825232e+01  -1.075838e+02
   1.778595e+02  -4.596234e+01
   2.061293e+02   1.324749e+02
   3.438661e+01   2.074414e+02
  -1.270243e+02   1.683756e+02
  -2.181623e+02   2.516438e+01
  -4.246760e+01  -6.639392e+01
   6.257445e+01  -1.010272e+02
   6.297487e+01  -5.044336e+01
   7.620115e+00   1.655508e+01
  -4.567667e+01  -2.263587e+01
   4.783206e+01  -4.033682e+01
   9.360181e+01   1.951485e+00
   1.139102e+02   9.566696e+01
   5.587019e+01   1.523195e+02
  -1.134602e+02   1.787456e+02
  -2.409112e+02   3.498918e+01
  -2.148176e+02  -1.633625e+02
  -4.434483e+01  -2.204538e+02
   9.053760e+01  -1.395233e+02
   1.312920e+02  -5.020620e+01
   1.043576e+02   3.958601e+01
   3.489996e+01   5.161085e+01
   8.071447e+01  -2.387809e+00
   9.730425e+01   1.561531e+01
   1.865704e+01   4.751403e+01
  -4.954667e+01   8.952070e+01
  -1.022633e+02   1.499493e+01
  -7.717525e+01  -4.679846e+01
   3.209656e+01  -9.242789e+01
   1.588149e+02  -1.281428e+02
   1.946960e+02   9.974496e+01
   8.569906e+01   2.039648e+02
  -1.249772e+02   2.261568e+02
  -2.305886e+02   1.013407e+02
  -2.261233e+02  -1.050572e+02
  -9.417779e+01  -1.514755e+02
   3.468231e+01  -1.388597e+02
   1.023737e+02  -1.030713e+02
   2.315507e+01  -6.299468e+01
   4.385202e+01  -5.712340e+01
   1.084579e+02  -9.832180e+01
   1.369741e+02   3.040621e+01
   1.051808e+02   1.651045e+02
   1.334901e+01   2.160208e+02
  -1.199131e+02   1.795346e+02
  -1.859907e+02   3.093468e+01
  -1.318994e+02  -1.235492e+02
  -3.520906e+00  -1.544306e+02
   4.328211e+01  -1.095339e+02
   6.399904e+01   2.451400e+01
   1.629542e+01   6.126442e+01
  -2.842983e+01   3.637987e+01
   6.099014e+01  -4.928098e+00
   5.300579e+01   1.934458e+01
   4.722894e+01   3.599230e+01
  -6.007989e+01   4.321004e+01
  -1.488164e+02   7.312917e+00
  -1.499071e+02  -3.466023e+01
  -3.991122e+01  -1.179197e+02
   1.518128e+02  -8.245782e+01
   1.362812e+02   9.441895e+00
   2.643761e+01   6.310744e+01
  -1.044696e+02   2.709860e+01
  -8.096290e+01  -3.124637e+01
  -1.501040e+01  -6.810323e+01
   7.178233e+01  -4.877659e+01
   5.282632e+01   3.520165e+01
   1.227509e+01   2.110044e+01
   8.691363e+01   5.852643e+01
   3.763134e+01   8.296439e+00
   5.552048e+01   2.933517e+01
   4.833508e+01   1.194474e+02
  -1.291905e+01   1.476479e+02
  -1.556944e+02   1.293222e+02
  -1.781917e+02   3.244835e+01
  -1.594408e+02  -1.231854e+02
  -2.510617e+01  -1.317906e+02
   9.552839e+01  -7.315600e+01
   4.219475e+01  -1.165926e+01
  -7.042208e+01   5.350509e+01
  -1.629775e+02  -3.215775e+01
  -7.019713e+01  -1.301487e+02
   6.387799e+01  -1.169099e+02
   2.055577e+02  -3.907096e+01
   1.739049e+02   2.088858e+01
   6.500960e+01   1.017791e+02
  -9.097548e+01   6.005886e+01
  -5.492652e+01   1.309608e+01
   8.099007e+01  -4.420691e+01
   1.245534e+02   3.882044e+01
   4.220357e+01   1.355483e+02
  -8.353642e+01   1.431446e+02
  -1.883115e+02   7.449963e+00
  -9.774436e+01  -6.835965e+01
  -1.363752e+01  -2.028984e+02
   9.902776e+01  -1.720853e+02
   8.988792e+01   6.460916e+00
   1.094847e+02   8.564227e+01
   2.644706e+01   1.369633e+02
  -4.010645e+01   1.829926e+01
  -6.156679e+01  -8.660403e+00
  -3.489419e+01  -8.922535e+00
  -4.224997e+00   1.299022e+01
   3.268361e+00   7.064103e+00
  -2.200392e+01  -9.809929e+01
  -9.269051e+00  -1.193330e+02
   3.056809e+01  -4.500124e+01
   1.380133e+02   3.358676e+01
   1.388186e+02   8.974823e+01
   5.739068e+00   7.372908e+01
  -1.299911e+02   6.396951e+00
  -6.162792e+01   2.983667e+00
  -2.660658e+01  -3.148663e+01
   3.210399e+01  -5.631780e+01
   4.801539e+01  -3.254845e+01
   1.930263e+01   1.343860e+01
  -5.730983e-01  -1.867489e+01
   5.794391e+01   2.639113e+01
   1.040450e+02   3.203939e+01
   5.450421e+01   5.619772e+01
  -8.049618e+01   1.128966e+02
  -1.989053e+02   5.660163e+01
  -1.507462e+02  -5.217190e+01
  -2.674371e+01  -1.472908e+02
   3.720528e+01  -1.908207e+02
   9.722477e+01  -9.339087e+01
   1.135219e+02   1.386993e+01
   1.760750e+01   3.952289e+01
  -1.555838e+01   7.087293e+00
   1.627866e+01   5.854064e+00
   2.212995e+01   5.349739e+01
  -5.553391e+00   6.366842e+01
  -5.543573e+01   4.565283e+01
  -1.096306e+02  -1.367577e+00
  -1.061307e+02  -1.459032e+02
   3.828722e+01  -1.006727e+02
   1.028576e+02  -4.240956e+01
   9.844334e+01   5.920779e+01
   5.421346e+01   1.002509e+02
  -5.913354e+01   5.838452e+01
  -1.222404e+02   1.407519e+01
  -4.720924e+01  -5.014543e+01
   4.982297e+01  -8.317535e+01
   4.587650e+01  -6.328076e+01
  -6.017281e+01  -1.591230e+01
  -2.338656e+01  -3.321181e-01
  -1.226809e+01   2.242491e-01
   8.055850e+01  -5.195381e+01
   6.912574e+01  -2.785146e+01
   4.353341e+01   2.161926e+01
  -3.772066e+01   6.425718e+01
  -3.374042e+01   9.829916e+01
  -3.382261e+01  -1.903128e+01
   1.497980e+01  -3.137883e+01
  -1.151741e+01  -6.168772e+01
   6.308050e+01   4.463945e+00
   9.787506e+00   6.379066e+01
   1.478592e+01   4.667053e+01
  -4.412861e+00   5.376132e+00
  -6.825847e+00   1.388670e+00
  -1.773684e+01   1.433413e+01
  -4.393592e+01   7.242873e+00
  -9.763155e+00  -1.145019e+01
   2.959564e+01  -4.318267e+01
   1.528543e+00  -1.719715e+01
   6.536612e+00   5.823569e+01
   2.856249e+01   3.648699e+01
  -4.465504e+01   1.866010e+01
  -5.763588e+01   3.807991e+01
  -7.123255e+01  -3.886948e+01
  -2.282032e+00  -9.097607e+01
   3.874065e+01   1.004897e+00
   9.523094e+01   3.547274e+01
   6.537123e+01   5.605344e+01
  -6.497762e+01   3.299538e+01
  -8.566586e+01   3.621940e+01
  -2.859333e+00  -2.097688e+00
   2.512592e+01   9.971039e+00
  -9.029996e+00   1.499559e+00
  -1.327815e+01   4.997193e+01
  -8.053318e+01  -9.897422e+00
