
 $NMID
 id='ANONYMOUS ', fmtdat='(2E16.6)'
 volume=1.0
 tramp=1.0
 $END
   2.838546e+03  -5.599819e+01
   1.979005e+03   1.692465e+03
   1.538239e+02   1.812660e+03
  -1.092153e+03   1.183104e+03
  -9.194812e+02   3.350742e+02
  -9.467812e+01  -4.070087e+01
   2.172291e+02   7.272139e+01
   7.249443e+01   3.596812e+02
  -4.066614e+02   4.544684e+02
  -4.210188e+02   9.747591e+01
  -3.312417e+02  -3.725081e+02
  -7.619946e+01  -5.247496e+02
   1.533221e+02  -1.851121e+02
   1.876294e+02   3.250988e+02
  -7.514040e+00   4.232771e+02
  -3.559801e+02   1.341839e+02
  -2.844197e+02  -3.942182e+02
   9.767024e+00  -5.676148e+02
   2.794644e+02  -2.934010e+02
   3.946337e+02   6.972980e+01
   1.776507e+02   2.911940e+02
  -6.638560e+01   2.758169e+02
  -7.006851e+01   1.397083e+02
   1.291312e+02   1.228932e+02
   2.180747e+02   2.646930e+02
  -6.070019e+01   2.964070e+02
  -3.615847e+02   6.239011e+01
  -4.713787e+02  -1.121795e+02
  -2.250197e+02  -2.501694e+02
   2.818058e+02  -1.204331e+02
   4.139919e+02   1.129134e+02
   2.037352e+02   3.190338e+02
  -2.052379e+02   2.934719e+02
  -3.873135e+02   1.111212e+02
  -2.545742e+02  -1.299220e+02
  -9.317845e+01  -2.269723e+02
  -1.196265e+01  -1.774506e+02
  -5.843796e+01   6.027133e+01
  -1.594653e+02   9.856414e+01
  -1.451418e+02  -1.383791e+02
  -3.396863e+00  -3.623576e+02
   1.635408e+02  -3.680829e+02
   2.722467e+02   6.175622e-01
   1.102483e+02   2.279666e+02
  -9.561140e+01   5.138275e+01
  -5.086881e+01  -3.063246e+02
   1.156439e+02  -3.155284e+02
   3.829358e+02  -1.156376e+02
   4.090301e+02   2.863531e+02
   1.576032e+02   4.467840e+02
  -2.377536e+02   2.690548e+02
  -4.257556e+02  -7.788855e+00
  -2.690002e+02  -1.666609e+02
  -1.713953e+01  -1.793849e+02
   2.546575e+02  -1.148545e+02
   2.330523e+02  -3.241589e+01
   4.926142e+01  -2.412342e+01
  -8.936060e+00  -3.246599e+01
   1.527360e+02  -1.755893e+01
   2.184843e+02   3.303993e+01
   1.106950e+02   1.633293e+02
  -1.089025e+02   2.199552e+02
  -3.116013e+02   7.161071e+01
  -2.268116e+02  -9.860378e+01
   1.316853e+01  -3.063795e+02
   2.619006e+02  -3.384041e+02
   3.545200e+02  -1.212762e+02
   2.537326e+02   1.070319e+02
   3.803894e+01   3.539696e+02
  -8.356351e+01   3.113777e+02
   2.601799e+01   1.525560e+02
  -4.621893e+01   9.611266e+01
  -1.937233e+02   9.110568e+01
  -2.410251e+02   7.158620e+01
  -2.396880e+02  -1.263384e+02
  -8.077736e+01  -2.027680e+02
   7.338351e+01  -1.563395e+02
   1.784108e+02   8.439085e+01
   8.307157e+01   2.352407e+02
  -5.940119e+01   2.312695e+02
  -2.323433e+02   7.248637e+01
  -2.299139e+02  -1.142602e+02
  -1.449369e+02  -2.809296e+02
  -8.985029e+00  -2.235130e+02
   1.134122e+02  -1.377268e+02
   1.218909e+02  -1.426450e+02
   1.152067e+02  -9.584808e+01
   3.332187e+02  -1.310514e+01
   3.530629e+02   1.117931e+02
   2.538081e+02   3.164228e+02
   2.308834e+00   3.766965e+02
  -3.225138e+02   3.339967e+02
  -4.318716e+02   1.899947e+02
  -2.253504e+02  -7.309102e+01
  -1.808128e+01  -2.121969e+02
   7.763560e+01  -1.719013e+02
   1.072318e+01  -4.715266e+01
  -1.168758e+02  -1.867881e+01
  -1.591008e+02  -4.887480e+01
   3.638754e+01  -1.033131e+02
   8.131275e+01  -1.033250e+02
   1.245267e+02   5.162160e+01
  -3.948287e+01   6.528103e+01
  -1.029679e+02  -3.629095e+01
  -1.568056e+02  -1.941393e+02
  -7.078213e+00  -3.306815e+02
   1.808136e+02  -1.490124e+02
   3.167743e+02   8.988267e+01
   2.346574e+02   2.325494e+02
   1.241068e+01   2.750911e+02
  -1.221458e+02   1.387402e+02
  -1.330580e+02   6.055282e+01
   1.636171e-01   1.959618e+01
   7.252269e+01   3.508265e+01
  -4.536588e+01   1.022872e+02
  -1.124795e+02   5.821885e+01
  -1.250731e+02   2.191261e+01
   7.818001e+00  -2.715374e+01
   7.045683e+01   3.212307e+01
   4.604945e+01   1.031436e+02
  -1.414420e+02   7.677652e+01
  -2.778742e+02  -1.802296e+01
  -2.588686e+02  -1.498697e+02
   3.511947e+01  -2.501930e+02
   1.651658e+02  -2.154288e+02
   2.619535e+02  -8.224020e+01
   7.598923e+01   4.272171e+01
  -1.922567e+01   5.029257e+01
  -4.131023e+01  -2.221057e+00
   3.162511e+01  -3.685706e+01
   1.609953e+02   1.824245e+01
   1.371487e+02   1.012461e+02
   5.516626e+01   2.011369e+02
  -6.540159e+01   1.111553e+02
  -7.884203e+01   2.595446e+01
  -3.026583e+01  -1.504446e+01
   1.864568e+01   9.066853e+00
   1.076869e+01   7.178130e+01
  -7.812785e+01   8.180080e+01
  -1.814396e+02  -3.071082e+01
  -1.932707e+02  -1.163385e+02
  -2.887169e+01  -1.682939e+02
   1.556088e+02  -1.320912e+02
   1.271488e+02   1.406021e+01
   4.962189e+01   5.979905e+01
  -8.114148e+01   8.606811e+01
  -3.780678e+01   3.575637e+01
   3.549467e+01  -3.542046e+01
   4.379161e+01  -3.928304e+01
   2.108274e+01   6.851802e+01
  -7.995590e+01   7.501013e-01
  -4.121031e+01  -1.344589e+02
   2.048290e+01  -1.704039e+02
   1.690174e+02  -1.182502e+02
   2.344974e+02  -4.837199e+00
   2.011630e+02   1.622724e+02
   5.556409e+01   2.385978e+02
  -7.053851e+01   1.489922e+02
  -1.218800e+02  -2.325344e+00
  -4.452875e+01  -4.015821e+01
  -6.210313e+01  -5.352572e+01
  -5.634169e+01   3.617278e+01
  -1.100401e+02   5.416598e+00
  -7.133473e+01  -8.003070e+01
   4.483296e+01  -1.140821e+02
   1.148633e+02  -7.609689e+01
   1.131038e+02   7.262727e+01
  -1.448754e+01   8.404889e+01
  -1.988709e+02   6.731804e+01
  -2.361505e+02  -5.844575e+01
  -3.437138e+01  -2.027422e+02
   1.445842e+02  -1.922937e+02
   2.521501e+02  -1.077736e+02
   2.970474e+02   1.141223e+02
   1.128121e+02   1.715368e+02
  -3.031788e+01   1.244440e+02
  -5.236115e+01   9.976445e+01
  -7.395021e+01   8.325453e+01
  -3.622334e+01   1.016126e+02
  -1.076672e+02   7.092930e+01
  -1.487029e+02  -4.324484e+01
  -5.712603e+01  -1.677359e+02
  -2.161174e+01  -1.565834e+02
   1.176977e+02  -1.447972e+02
   1.795375e+02  -2.558226e+01
   1.292151e+02   7.766050e+01
  -2.531812e+01   1.187738e+02
  -4.792325e+01   1.019217e+02
  -3.556164e+01  -4.921194e+00
  -8.419529e+00  -3.106380e+01
   7.504990e+00  -3.040107e+01
   6.895728e+00  -3.128245e+01
  -3.642880e+01  -4.850590e+01
  -2.194099e+01  -2.150770e+01
   7.338048e+01  -2.744798e+01
   1.603395e+02  -2.425556e+01
   1.362446e+02   5.361777e+01
  -2.211629e+00   1.153203e+02
  -1.181457e+02   8.925900e+01
  -1.977505e+02   1.050868e+01
  -4.460513e+01  -4.030737e+01
   9.558982e+01  -4.300305e+01
   5.846844e+01  -4.525810e+00
   1.172675e+01   1.072043e+02
  -1.162868e+01   9.773479e+01
  -3.781089e+01   1.986394e+01
  -4.188498e+01  -2.187604e+01
  -2.595700e+01  -6.087063e+01
  -8.151892e+01   8.102208e+00
  -6.717769e+01  -4.907170e+01
  -7.989671e+01  -7.285833e+01
   1.767706e+01  -1.666613e+02
   1.727407e+02  -1.408159e+02
   1.659941e+02  -1.613952e+01
   1.289066e+02   7.373715e+01
  -1.710677e+00   9.972246e+01
  -1.058223e+02   6.351495e+01
  -5.601270e+01  -7.977004e+00
   5.373299e+01  -1.300577e+01
   1.308838e+02  -8.195129e-01
   1.014085e+02   9.715666e+01
  -4.163395e+01   1.173420e+02
  -1.869185e+02   7.536277e+01
  -1.681398e+02  -3.700157e+01
  -8.262188e+00  -6.738111e+01
   6.802221e+01  -2.425813e+01
   6.490295e+01   1.928012e+01
  -4.573029e+01   3.061299e+01
  -9.078428e+01   1.561601e+01
  -2.808321e+01  -1.062558e+02
   5.805608e+01  -1.497373e+02
   1.480097e+02  -4.529679e+01
   1.151886e+02   8.822739e+01
   3.193755e+00   1.443316e+02
  -3.335081e+01   1.584715e+02
  -8.697743e+01  -2.005013e+01
  -7.404159e+01  -9.084677e+01
   7.422345e+00  -1.119310e+02
   6.258473e+01  -3.225896e+01
   3.629881e+01   2.525254e+01
   2.616537e+01   5.261720e+01
   2.378342e+01  -1.467655e+01
  -1.812860e+01  -1.040542e+01
   2.197665e+01   6.136751e+01
   1.826477e+01   1.062016e+02
  -2.993475e+01   3.834012e+01
  -1.324767e+02  -5.669488e+01
  -1.124592e+02  -6.390968e+01
  -5.260178e+00  -3.455762e+01
   8.625113e+01  -3.569180e+01
   8.759515e+01  -8.597461e+00
   1.186375e+01   2.718796e+01
  -4.117201e+01   3.656253e+01
  -3.023723e+01   1.179587e+01
  -3.453004e+01   3.835354e+00
   1.152145e+00  -2.418620e+01
  -7.834928e+01  -1.473686e+00
  -9.726392e+01  -9.494942e+00
  -9.737579e+00  -9.774071e+01
   1.087315e+02  -1.315168e+02
   1.779857e+02  -6.400270e+01
   1.391283e+02   6.344366e+01
  -2.959114e+00   1.622695e+02
  -5.712531e+01   1.535987e+02
  -1.081216e+02   5.954560e+01
  -7.302789e+01   1.127416e+00
  -2.210588e+01  -3.161688e+00
  -1.268319e+01   5.768395e+00
  -1.317178e+01   6.419222e+00
  -6.419805e+01  -7.006196e+01
  -1.433836e+01  -9.862390e+01
   3.537982e+01  -3.332973e+01
   5.446626e+01  -2.768554e+00
   8.866675e+01   6.519942e+01
   2.089945e+01   5.832681e+01
  -9.422113e+01   5.069897e+01
  -8.836592e+01  -4.669378e+01
  -4.758099e+01  -6.243600e+01
   3.222925e+01  -7.551874e+01
   1.185290e+02  -2.064298e+01
   5.021931e+01   1.759135e+01
  -2.715682e+01   4.549560e+01
  -4.020826e+01   3.491131e+01
  -8.987036e+00   1.656995e+01
   5.697319e+01  -2.631163e+01
   2.238257e+01   1.887802e+01
  -8.086938e+01  -6.112072e+00
  -8.271791e+01   5.616048e+01
  -4.445003e+01  -4.436086e+01
  -1.346740e+01  -6.209354e+01
   8.779336e+01  -4.436658e+01
   5.350435e+01   2.374743e+00
   7.549036e-01   6.508055e+01
  -1.252506e+01   6.112520e+01
  -3.006387e+01   3.610298e+00
  -1.873497e+01  -3.121321e+01
  -1.020361e+01  -7.248265e+01
   2.052970e+01  -1.328554e+01
   1.268423e+01   1.268084e+01
  -2.966072e+00  -3.632770e+01
   2.792798e+01  -6.425065e+01
   4.960605e+00  -7.735146e+00
  -5.493103e+00   1.588041e+00
  -2.403332e+00   8.493847e+00
  -4.831490e+01  -1.905039e+00
  -7.030781e+01  -5.332251e+01
  -4.579828e+01  -2.891781e+01
   5.716254e+01  -8.313098e+00
   7.790313e+01   3.442435e+01
   4.089384e+01   4.351743e+01
  -3.841872e+01   4.126732e+01
  -8.751602e+01  -9.403207e+00
  -8.672967e+00  -3.225208e+01
   3.944424e+01  -8.737169e+01
   7.278922e+01  -3.605548e+01
   1.350163e+01  -1.715865e+01
  -2.227580e+01   6.751450e+00
  -3.161237e+01   3.359620e+00
   3.093183e+01  -3.618384e+01
   5.684454e+01  -3.409715e+00
