
 $NMID
 id='ANONYMOUS ', fmtdat='(2E16.6)'
 volume=1.0
 tramp=1.0
 $END
   4.901397e+03  -3.919298e+02
   2.473064e+03   2.848934e+03
  -7.718898e+02   2.911811e+03
  -2.200681e+03   8.494337e+02
  -9.305706e+02  -7.203794e+02
   5.997067e+02  -4.805362e+02
   9.735651e+02   4.830982e+02
  -1.744160e+01   1.183420e+03
  -8.607838e+02   9.646056e+02
  -9.814897e+02  -5.222276e+01
  -5.154546e+02  -9.756363e+02
   2.843628e+02  -9.970349e+02
   6.898659e+02  -1.334830e+02
   3.454882e+02   7.498877e+02
  -3.091884e+02   7.881160e+02
  -6.429540e+02  -2.386748e+01
  -3.129850e+02  -7.638835e+02
   3.340016e+02  -6.241037e+02
   6.616710e+02  -7.847196e+01
   4.438019e+02   3.506207e+02
  -6.579894e+00   4.936732e+02
  -2.883570e+02   3.079727e+02
  -1.894499e+02   1.015983e+01
   1.307759e+02  -1.518055e+02
   3.895643e+02   1.522486e+02
   1.931847e+02   4.467768e+02
  -5.430023e+02   4.369677e+02
  -9.373810e+02   2.925151e+01
  -5.103289e+02  -5.883689e+02
   4.487124e+02  -5.002165e+02
   8.362068e+02   4.288620e-01
   3.892007e+02   5.424537e+02
  -3.220921e+02   6.054483e+02
  -6.418880e+02   2.928078e+02
  -5.087211e+02  -2.469055e+02
  -1.301056e+02  -5.448816e+02
   2.340385e+02  -3.287923e+02
   2.143044e+02   2.479206e+02
  -2.304860e+02   5.423933e+02
  -4.899680e+02  -8.693349e+01
  -2.645681e+02  -8.056035e+02
   3.600903e+02  -7.727150e+02
   6.477381e+02  -2.913805e+01
   3.001025e+02   5.793293e+02
  -2.925814e+02   3.370695e+02
  -4.436069e+02  -3.402930e+02
   5.352439e+01  -5.804389e+02
   6.086539e+02  -1.603945e+02
   7.192786e+02   4.310579e+02
   1.842357e+02   6.480317e+02
  -4.155247e+02   3.704679e+02
  -7.262617e+02  -4.065892e+01
  -4.304391e+02  -3.921932e+02
   1.374280e+02  -4.232926e+02
   4.477782e+02  -1.353302e+02
   2.496496e+02   1.899626e+02
  -1.094348e+02   6.695016e+01
  -1.504927e+02  -1.303463e+02
   1.353782e+02  -2.211410e+02
   3.561633e+02   9.115446e+01
   1.836708e+02   3.125029e+02
  -1.567025e+02   2.784618e+02
  -3.717183e+02   1.165026e+02
  -1.898882e+02  -9.533642e+01
  -6.024759e+00  -3.008571e+02
   2.169077e+02  -3.504775e+02
   3.415786e+02  -2.659014e+02
   3.199916e+02   1.073458e+02
   9.300071e+01   4.480522e+02
  -9.875069e+01   4.473370e+02
  -1.282922e+02   8.165644e+01
  -3.303416e+01  -2.899919e+01
  -8.767125e+01   1.123624e+02
  -2.430392e+02   1.258042e+02
  -3.137317e+02  -6.682251e+01
  -1.944047e+02  -2.710000e+02
   5.231793e+01  -2.623061e+02
   2.500940e+02  -1.902321e+01
   1.971531e+02   2.736407e+02
   1.600668e+00   3.608469e+02
  -2.645862e+02   1.228595e+02
  -4.221521e+02  -1.538837e+02
  -2.284378e+02  -3.811074e+02
   1.497760e+02  -3.315080e+02
   2.685772e+02  -9.949873e+01
   1.816109e+02  -1.401197e+01
   9.931999e+01  -3.790854e+01
   2.206420e+02  -9.605741e+01
   4.582734e+02   7.909715e+00
   3.598486e+02   2.661729e+02
   8.367034e+00   5.269351e+02
  -3.745875e+02   4.995257e+02
  -5.038874e+02   2.389363e+02
  -3.580433e+02  -8.432579e+01
  -5.713279e+01  -3.089972e+02
   1.338341e+02  -2.410270e+02
   1.246784e+02  -1.989535e+01
  -1.385799e+02   8.080125e+01
  -1.837915e+02   3.269483e+01
  -8.179424e+01  -1.964522e+02
   2.044782e+02  -2.051303e+02
   2.227998e+02   5.821806e+01
  -2.369752e+01   1.923864e+02
  -1.515090e+02   8.113405e+01
  -1.772882e+02  -2.472733e+02
  -5.438879e+00  -3.770033e+02
   2.295793e+02  -2.146544e+02
   3.465094e+02   4.592644e+01
   3.494901e+02   2.330754e+02
   1.205922e+02   2.797656e+02
  -1.095988e+02   1.797758e+02
  -2.086895e+02   2.667500e+01
  -8.319004e+01  -4.501710e+01
   1.011571e+02   1.363786e+01
   4.095574e+01   1.044561e+02
  -1.130352e+02   8.748857e+01
  -2.185471e+02  -4.116309e+01
  -6.304690e+01  -6.812829e+01
   8.484243e+01  -3.532195e+01
   7.317723e+01   2.992327e+01
  -1.266919e+02   1.067402e+02
  -2.951867e+02   1.351258e+01
  -2.714626e+02  -1.185382e+02
  -4.098322e+01  -2.487076e+02
   1.978139e+02  -3.163840e+02
   3.295256e+02  -1.670135e+02
   2.224182e+02   6.346609e+01
  -2.062108e+01   7.851150e+01
  -9.973883e+01  -1.973723e+00
  -6.986386e-01  -1.219654e+02
   2.492639e+02  -7.228955e+01
   2.474561e+02   1.355963e+02
   4.677167e+01   2.468484e+02
  -5.576878e+01   1.454622e+02
  -1.547955e+02   5.974019e+01
  -8.941073e+01  -3.190560e+01
   5.835486e+00   3.267602e+01
   4.802984e+01   1.028320e+02
  -6.914843e+01   1.265106e+02
  -2.221261e+02   4.690387e+01
  -2.326548e+02  -1.394139e+02
  -6.023282e+01  -2.630973e+02
   1.620401e+02  -2.051057e+02
   2.137036e+02  -3.042537e+01
   1.047510e+02   1.270785e+02
  -8.256234e+01   1.316281e+02
  -8.246411e+01   5.665690e+01
  -9.758998e+00  -3.453200e+01
   2.120165e+01   7.772990e+00
  -1.036803e+01   2.013599e+01
  -5.329735e+01   3.369799e+00
  -8.672014e+01  -7.827663e+01
  -4.033148e+01  -1.654068e+02
   1.393021e+02  -1.675524e+02
   2.281228e+02  -4.779088e+01
   2.032377e+02   1.525891e+02
   4.548398e+01   2.287253e+02
  -1.240280e+02   1.693551e+02
  -1.105101e+02   7.037352e+01
  -8.376703e+01  -6.159072e+01
  -5.109886e+01   2.082394e+00
  -7.491254e+01   1.607376e+00
  -9.175297e+01  -2.071983e+01
  -3.980236e+01  -2.138613e+01
   3.977712e+01  -8.729029e+01
   1.202687e+02  -8.523429e+01
   9.095627e+01   4.230140e+01
  -8.859962e+00   7.641317e+01
  -1.277652e+02   1.161418e+02
  -2.353304e+02  -6.465532e+01
  -1.039768e+02  -2.055839e+02
   1.149914e+02  -2.878501e+02
   2.981444e+02  -1.587426e+02
   2.718136e+02   1.105035e+02
   1.443297e+02   1.745204e+02
  -3.130782e+01   1.483567e+02
  -1.107784e+02   1.084480e+02
  -1.125010e+02   3.922284e+01
  -1.075044e+02   9.321718e+01
  -9.060046e+01   6.009672e+01
  -1.708349e+02  -2.517726e+01
  -1.139603e+02  -1.936927e+02
  -1.297091e+01  -2.146399e+02
   1.381771e+02  -1.356743e+02
   2.159086e+02  -5.145338e+01
   1.737640e+02   1.102153e+02
   4.616425e+01   1.473837e+02
  -9.568573e+01   8.480296e+01
  -4.384894e+01   2.811316e+00
  -9.179081e+00  -1.996674e+01
   1.469090e+01  -4.841367e+01
  -2.396892e+01  -3.682057e+01
  -8.631808e+01  -5.711368e+00
  -5.260750e+01  -5.667005e+01
   7.951875e+01  -3.561726e+01
   1.910010e+02  -2.420118e+01
   1.708193e+02   1.164139e+01
   6.339440e-01   1.097333e+02
  -1.094260e+02   8.745489e+01
  -1.656461e+02   3.721477e+01
  -6.502814e+01  -7.304246e+01
   8.112532e+01  -4.988651e+01
   9.418355e+01   3.905852e+01
  -2.191662e+01   1.043264e+02
  -6.817325e+01   4.997813e+01
  -9.575040e+01  -4.728748e+00
  -4.857114e+01  -2.659187e+01
  -7.312987e+01  -7.332087e+01
  -5.144842e+01   2.716957e+01
  -7.817524e+01   3.119743e+01
  -1.704897e+00  -5.425905e+01
  -3.057722e+01  -1.342313e+02
   1.183744e+02  -1.296917e+02
   1.606595e+02  -4.278257e+01
   1.233321e+02   3.940955e+01
   3.506182e+00   1.153688e+02
  -7.929192e+01   4.077218e+01
  -8.245501e+01   1.310026e+01
   4.783909e+01  -5.434433e+01
   1.408869e+02   4.146272e+01
   9.315653e+01   1.255115e+02
  -8.485201e+01   1.412288e+02
  -2.031345e+02   6.689307e+01
  -1.823169e+02  -4.249076e+01
  -2.273953e+01  -1.357065e+02
   7.161093e+01  -4.237370e+01
   5.382139e+01   2.277022e+01
  -4.813860e+01   1.253748e+01
  -1.212007e+02  -4.053039e+01
  -4.508512e+01  -1.263181e+02
   9.108340e+01  -1.602066e+02
   1.526296e+02  -6.467694e+01
   1.127160e+02   7.748505e+01
   2.865542e+01   2.039637e+02
  -5.249378e+01   1.287357e+02
  -8.698149e+01   1.401091e+01
  -5.502640e+01  -9.997105e+01
  -2.079862e+01  -7.608666e+01
   6.985760e+01  -9.465378e+00
   6.113158e+01   3.032048e+01
   4.526125e+00  -1.114081e+01
   2.904656e+00  -1.477211e+00
   9.808789e+00   6.261125e+00
   6.892774e+01   9.526955e+01
   5.292679e+01   1.018251e+02
  -4.194515e+01   3.630941e+01
  -1.605708e+02  -5.953504e+01
  -1.538235e+02  -5.254374e+01
  -5.852620e+01  -6.111162e+01
   1.455562e+02  -6.702733e+01
   8.991358e+01  -4.698019e+01
   6.390014e+00   2.539991e+01
  -2.410842e+01   1.368653e+01
   2.497925e+01   2.802170e+01
   1.577412e+01   2.061377e+00
   2.196811e+01  -1.643445e+01
  -6.998562e+01  -1.198210e+01
  -1.020896e+02  -3.432503e+01
  -1.411982e+01  -8.069549e+01
   1.229561e+02  -1.346518e+02
   1.835875e+02  -7.458781e+01
   1.787030e+02   2.431384e+01
   1.190357e+01   1.896774e+02
  -7.757759e+01   1.718005e+02
  -1.851844e+02   8.980844e+01
  -7.020726e+01  -2.450586e+01
  -1.475582e+01  -6.620196e+01
   4.602809e+01  -3.155427e+01
   1.539641e+01  -1.315819e+01
  -1.280908e+01  -3.935200e+01
  -1.973615e+01  -1.029390e+02
   1.208463e+01  -8.163378e+01
   9.485911e+01   8.805771e+01
   7.779508e+01   1.047582e+02
   3.094289e+01   1.029874e+02
  -1.090569e+02   2.595757e+01
  -1.240020e+02  -9.501004e+01
  -4.447785e+01  -1.147674e+02
   7.496935e+01  -6.581413e+01
   1.001404e+02  -1.379591e+01
   7.552344e+01   4.359405e+01
  -2.784672e+01   6.972606e+01
  -4.664110e+01   3.360491e+01
   1.406256e+01   3.025080e+01
   4.832551e+01  -5.731402e+00
   3.019974e+01   2.032541e+01
  -7.223388e+01   8.427592e+01
  -1.066585e+02   6.103081e+01
  -8.131106e+01  -1.793937e+00
  -4.482271e+00  -9.475305e+01
   4.030696e+01  -4.639256e+01
   8.785430e+00   8.926877e+00
  -3.839984e+01   3.930417e+01
   6.836694e+00   3.911775e+01
  -4.528070e+01  -2.281561e+01
  -3.516162e+01  -6.086673e+01
   4.631976e+01  -2.373439e+01
   4.035065e+01   1.433860e+01
   1.983928e+01   2.766042e+01
  -1.114131e+01  -3.037908e+01
   2.129094e+01  -3.107434e+01
  -2.786527e+00  -6.307392e+00
   1.444476e+01  -6.322095e+00
  -6.052951e+01   4.486764e+01
  -7.315863e+01  -9.357418e+00
  -3.323268e+01  -2.770401e+01
   3.718794e+01  -1.913263e+01
   7.341106e+01  -5.932217e+01
   8.848341e+01   4.233632e+01
  -1.382695e+01   7.230976e+01
  -6.825991e+01   4.435416e+01
  -4.950313e+01  -4.683084e+01
  -3.340550e+01  -4.998838e+01
   5.745950e+00  -6.146288e+01
   3.530469e+01   5.896903e+00
   5.018384e+01  -2.413092e+01
  -2.335640e+01  -6.722436e+00
  -6.611948e+01  -3.438199e+01
   3.483906e+01  -5.052385e+01
   7.380421e+01  -7.387898e+00
