
 $NMID
 id='ANONYMOUS ', fmtdat='(2E16.6)'
 volume=1.0
 tramp=1.0
 $END
   1.763608e+03   2.164826e+02
   9.961010e+02   9.897663e+02
  -2.650357e+02   1.270893e+03
  -9.509142e+02   9.225802e+02
  -4.239061e+02   2.707074e+02
   8.367194e+00  -1.439347e+02
   2.262526e+02   1.362415e+02
  -6.608611e+01   2.753625e+02
  -2.775028e+02   3.473070e+02
  -3.432699e+02   1.217712e+01
  -1.546029e+02  -3.493027e+02
  -3.472904e+01  -3.087524e+02
   1.654477e+02  -4.809308e+01
   9.910566e+01   2.824227e+02
  -4.651022e+01   3.111205e+02
  -1.724149e+02   8.012771e+00
  -1.318193e+02  -3.170298e+02
   1.077004e+02  -3.438208e+02
   3.135329e+02  -1.078194e+02
   2.504980e+02   1.032809e+02
   4.547255e+01   1.356090e+02
  -7.142543e+01   7.992270e+01
  -4.011303e+01   1.045692e+02
   1.088349e+02   1.355428e+02
   1.090675e+02   1.149232e+02
  -2.672903e+01   1.968262e+02
  -3.589118e+02   6.915253e+01
  -3.907870e+02  -1.308358e+02
  -1.541840e+02  -2.212413e+02
   2.130851e+02  -1.136369e+02
   3.253727e+02   9.166342e+01
   1.062018e+02   2.408763e+02
  -1.852036e+02   2.689799e+02
  -2.755342e+02   1.266034e+02
  -1.989678e+02  -6.911474e+01
  -7.103442e+01  -1.627152e+02
   1.795209e+01  -6.737976e+01
   7.857958e+00   6.868472e+01
  -8.224616e+01   9.151207e+01
  -1.663312e+02  -2.746223e+01
  -1.237319e+02  -4.208702e+02
   1.425380e+02  -2.770831e+02
   2.268063e+02  -1.062162e+01
   4.559734e+01   2.231556e+02
  -6.957892e+01   7.982261e+01
  -1.044766e+02  -1.537678e+02
   1.398655e+02  -2.252502e+02
   3.222126e+02  -2.653898e+01
   3.039339e+02   2.474715e+02
   6.562716e+01   2.924661e+02
  -1.422339e+02   1.645036e+02
  -3.429842e+02  -2.636811e+01
  -2.231823e+02  -1.583278e+02
   9.870676e+01  -1.549379e+02
   1.907736e+02  -1.240949e+01
   1.610542e+02   3.851184e+01
   4.259472e+01   2.175327e+01
  -4.594782e+01  -4.937106e+01
   6.852013e+01  -1.909055e+01
   1.370661e+02   2.533205e+01
   5.594341e+01   6.892417e+01
  -7.705961e+01   1.515194e+02
  -1.953593e+02   8.249438e+01
  -1.047220e+02  -6.183368e+01
   2.608834e+01  -1.806242e+02
   1.488829e+02  -2.651536e+02
   2.316759e+02  -1.073034e+02
   1.260046e+02   9.794268e+01
   1.863511e+01   2.451798e+02
  -8.612496e+00   1.455652e+02
   1.463927e+01   1.001292e+02
  -6.824663e+00   6.000256e+01
  -6.678827e+01   8.318627e+01
  -1.849177e+02   3.891052e+01
  -1.193572e+02  -8.472022e+01
  -5.673446e+01  -1.939638e+02
   3.201963e+01  -1.190175e+02
   1.007658e+02   5.845576e+01
   5.307772e+01   1.673559e+02
  -6.081128e+01   1.387466e+02
  -1.683344e+02   5.665732e+01
  -1.678184e+02  -6.514046e+01
  -7.186406e+01  -1.599832e+02
   7.569145e+00  -1.694146e+02
   1.325177e+02  -1.003792e+02
   1.147775e+02  -4.984854e+01
   1.402193e+02   3.039354e+01
   2.039759e+02  -2.002952e+01
   2.169788e+02   1.193739e+02
   1.713006e+02   1.877985e+02
   1.975945e+00   2.218343e+02
  -2.830160e+02   2.304847e+02
  -3.035732e+02   7.547765e+01
  -1.199978e+02  -4.101232e+01
  -2.636267e+00  -1.404059e+02
   7.656993e+01  -1.308228e+02
   3.317866e+01  -2.725053e+01
  -8.439681e+01   3.127121e+01
  -7.341160e+01  -1.003945e+01
   1.342210e+01  -4.519812e+01
   6.151982e+01  -5.045320e+01
   6.334377e+01   3.650196e+01
  -6.561881e+01   1.006202e+02
  -4.621511e+01   4.187736e+00
  -7.138827e+01  -1.978188e+02
   4.480883e+01  -2.072806e+02
   1.506845e+02  -1.455778e+02
   1.924524e+02   2.084422e+01
   1.294452e+02   1.355782e+02
   5.992884e+01   1.755215e+02
  -6.810333e+01   9.953468e+01
  -1.071493e+02   2.453266e+01
  -2.928554e+01   6.335305e+01
   2.284269e+01   3.887359e+01
  -1.877942e+01   4.419299e+01
  -8.761452e+01   5.166063e+01
  -1.098289e+02   1.556192e+00
  -3.072975e+01   2.034623e+00
   8.271143e+00   2.359813e+01
  -1.645123e+01   6.106040e+01
  -9.136961e+01   7.950509e+01
  -1.645686e+02   2.454462e+01
  -1.425538e+02  -1.146902e+02
  -2.147666e+01  -1.678009e+02
   1.285338e+02  -1.173697e+02
   1.288043e+02  -5.640226e+01
   1.172309e+02   3.127845e+01
  -1.999556e+01   2.728175e+01
  -5.349172e+01   3.172985e+00
   5.230909e+01  -2.639887e+01
   1.291558e+02  -1.391572e+01
   1.102996e+02   7.548940e+01
   2.975851e+01   1.180793e+02
  -1.115330e+02   1.057293e+02
  -9.579784e+01  -2.605738e+00
  -2.428844e+01  -6.254050e+00
   2.698556e+01   2.127908e+01
   1.309382e+01   6.684115e+01
  -9.759024e+01   7.919636e+01
  -1.392819e+02   1.402277e+00
  -1.380271e+02  -7.293849e+01
  -1.095432e+00  -1.014430e+02
   6.503539e+01  -8.223219e+01
   1.484918e+02  -2.082220e+01
   5.095079e+01   7.287290e+01
  -6.047229e+01   4.581015e+01
  -1.037838e+01   5.055027e+01
   6.675060e+00  -2.925800e+01
   4.024163e+01   1.903374e+01
  -4.305639e+01  -2.679028e+01
  -5.126188e+01  -3.184926e+01
  -8.856766e+01  -7.345278e+01
   2.850785e+01  -8.337745e+01
   1.015262e+02  -3.187249e+01
   1.484351e+02  -2.970352e+00
   1.120807e+02   1.083345e+02
   5.126892e+01   1.340842e+02
  -9.836462e+00   4.818593e+01
  -3.338977e+01   1.712305e+01
  -2.771794e+01  -4.128821e+01
  -3.335262e+01  -4.850694e+01
  -6.719181e+01  -4.565528e-02
  -4.396873e+01  -3.357167e+00
  -4.408642e+01  -3.640194e+01
   3.253973e+01  -6.015237e+01
   8.269433e+01  -4.929977e+01
   2.659658e+01   4.567182e+00
   4.932042e+00   2.739134e+01
  -7.964066e+01   4.505748e+01
  -1.114053e+02  -4.278188e+01
  -3.033407e+01  -1.585147e+02
   7.515907e+01  -9.241979e+01
   1.634941e+02  -7.673558e+01
   1.294520e+02   1.133786e+02
   5.989922e+01   1.053636e+02
  -6.230150e+01  -4.591917e-01
  -7.507433e+01   2.077411e+01
  -6.317918e+01   5.632488e+01
  -2.657312e+01   4.756596e+01
  -8.667128e+01   1.623133e+01
  -7.553344e+01  -1.016305e+01
  -3.417384e+01  -1.160558e+02
   1.468847e+01  -1.137164e+02
   6.331595e+01  -7.547150e+01
   1.188639e+02   1.795592e+01
   5.951253e+01   1.117284e+02
  -1.086440e+01   5.983124e+01
  -5.430379e+01   1.715935e+01
  -4.447822e+01  -5.352067e+01
   8.026302e+01   2.086761e+00
   4.985605e+01  -3.319937e-01
   1.513638e+01  -1.017552e+01
  -8.370229e+01  -1.391712e+01
  -5.358963e+01  -4.999372e+01
   1.217578e+02  -6.864135e+01
   1.313355e+02   1.472151e+00
   7.862951e+01  -9.448694e-01
   2.834308e+01   5.849033e+01
  -1.055997e+02   5.021141e+01
  -9.531694e+01  -6.525866e+00
  -1.317859e+01  -4.033667e+01
   5.792748e+01  -3.468702e+01
   7.102109e+01   3.209322e+01
  -1.754091e+00   6.596433e+01
  -3.740113e+01   3.802628e+01
  -6.034265e+01  -1.735404e+01
  -7.548489e+01  -4.855208e+00
  -1.893327e+01  -2.251498e+01
  -7.783364e+01  -1.564985e+01
  -1.879035e+01  -8.847862e+00
  -1.922678e+01  -5.032924e+01
  -2.049111e+01  -1.237456e+02
   7.586628e+01  -5.992621e+01
   1.000604e+02  -6.476598e+01
   9.890239e+01   4.251373e+01
   3.212218e+01   9.283402e+01
  -9.249861e+01   9.389616e+01
  -3.469012e+01  -3.155206e+01
   4.962539e+01   5.891605e+01
   6.756115e+01   1.855640e+01
  -9.127925e+00  -1.745615e+00
  -5.532654e+01   9.587634e+01
  -8.801183e+01  -2.082964e+01
  -1.085267e+02  -2.153019e+01
  -5.722698e+00  -4.625252e+01
   3.256784e+01  -4.565417e+01
   4.745694e+01   1.048130e+01
  -2.812821e+00   8.052281e+00
  -7.322109e+01  -2.115452e+01
  -4.285639e+01  -1.007529e+02
   5.451053e+01  -6.913651e+01
   1.088184e+02  -1.075775e+01
   7.716090e+01   8.086175e+01
   7.033986e+01   8.357146e+01
  -3.834591e+00   1.191143e+02
  -5.082344e+01   6.418311e+00
  -2.134108e+01  -3.746277e+01
  -3.151668e+01  -5.414122e+01
   5.930355e+01   3.103861e+00
   1.893524e+01   5.293212e+01
   3.963377e+00   1.884577e+01
   2.465650e+00   2.702886e+00
   8.905095e+00  -1.890812e+01
   2.614650e+01   4.073174e+01
   3.290234e+01   9.161371e+01
  -1.504661e+01   6.966280e+00
  -4.982832e+01  -1.914515e+01
  -9.175832e+01  -3.654086e+01
  -4.735435e+00  -2.146179e+01
   5.736427e+01  -2.666868e+01
   3.673983e+01  -1.270722e+01
   2.907662e+01   5.482024e+01
  -2.989619e+00  -8.544379e+00
   7.760151e+00   1.763936e+01
  -2.792928e+01  -8.647254e+00
  -6.548804e+00   6.271319e+00
  -6.798299e+01   2.412414e+01
  -5.785873e+01   2.311043e+01
  -5.097602e+01  -4.231013e+01
   6.630693e+01  -7.995142e+01
   9.332810e+01  -1.393965e+01
   7.704929e+01   8.307926e+00
   6.903511e+00   1.136591e+02
  -6.674565e+01   7.383271e+01
  -8.298155e+01   1.671125e+01
  -6.320283e+00  -2.172592e+01
  -4.263727e+01  -4.430631e+01
  -2.416866e+01  -6.744636e+00
  -5.986849e+00  -2.833078e+01
  -5.697532e+01  -1.041490e+01
  -1.774566e+01  -4.906973e+01
   1.028043e+01  -5.765992e+01
   4.594236e+01  -1.680163e+01
   7.575908e+01   2.833983e+01
   2.525854e+01   7.570180e+01
  -4.990118e+01  -8.653544e+00
  -2.227460e+01  -4.428008e+01
  -1.161967e+01  -8.474179e+01
   4.280094e+01  -4.879045e+01
   6.552583e+01   7.428607e+00
   1.423908e+01   4.605455e+01
  -1.116423e+01   6.935382e+01
  -4.742350e+01   7.286924e+00
   4.874836e+01  -2.204323e+01
   4.684815e+01   6.285482e+00
  -7.166192e+00   2.180343e+00
  -1.618361e+01   3.833741e+01
  -5.765034e+01   3.849698e+00
  -2.632534e+01  -2.923379e+00
   5.763144e+01  -4.543270e+01
   2.390118e+01  -4.526928e+01
  -7.681238e-01  -1.553513e+01
   1.889328e+01   2.145614e+01
  -9.645411e+00   7.160807e+01
  -2.227677e+01  -1.486330e+01
  -3.125480e+01  -4.931516e+01
   4.660731e+00  -3.040692e+01
   2.684039e+01   7.497147e+00
   2.132840e+01   4.973027e+01
  -1.318280e+01  -2.625654e+00
  -6.942813e+00   6.418860e+00
  -4.608321e+00   1.539226e+01
   2.868210e+01  -3.149719e+00
   4.131661e+00   8.488419e+01
   1.699427e+01   3.636835e+01
  -2.101458e+01  -1.089116e+00
   2.214615e+01  -1.519954e+01
   2.133873e+01   2.865758e+01
  -2.168340e+00   7.159365e-01
  -3.767141e+01   3.531043e+01
  -4.368384e+01   3.293528e+01
  -3.846713e+01   2.896783e+00
  -1.163941e+01  -5.540750e+01
   5.497324e+01   1.102627e+01
   1.688090e+01   2.013779e+01
   1.214251e+01  -2.027072e+00
  -7.471744e+00  -2.185636e+01
  -4.733732e+01  -2.159534e+01
  -2.827117e-01  -4.218373e+01
   8.615741e+01  -2.525734e+01
