
 $NMID
 id='ANONYMOUS ', fmtdat='(2E16.6)'
 volume=1.0
 tramp=1.0
 $END
  -2.563200e+03  -3.947682e+02
  -1.361363e+03  -1.254267e+03
   4.200392e+02  -1.581945e+03
   1.319235e+03  -8.207077e+02
   4.287780e+02   1.349809e+02
  -2.471981e+02   1.834005e+02
  -4.683098e+02  -2.275797e+02
  -2.644033e+01  -5.021832e+02
   4.439040e+02  -4.488995e+02
   5.116359e+02   3.049289e+00
   3.406845e+02   5.102315e+02
  -1.298565e+02   5.261258e+02
  -3.125006e+02   8.100651e+01
  -2.614645e+02  -4.344576e+02
   1.216625e+02  -5.298472e+02
   3.596415e+02  -3.450343e+01
   2.497213e+02   4.421535e+02
  -1.346870e+02   4.888737e+02
  -3.575752e+02   1.927386e+02
  -2.798031e+02  -1.387140e+02
   2.616600e+00  -2.744691e+02
   9.974174e+01  -1.773895e+02
   1.131362e+02  -8.568740e+00
  -9.748209e+01  -2.411026e+01
  -2.252292e+02  -1.190399e+02
  -7.560456e+01  -2.573071e+02
   3.019465e+02  -1.527015e+02
   5.128604e+02   1.811267e+02
   3.051214e+02   3.036147e+02
  -3.182932e+02   1.834711e+02
  -4.192416e+02  -5.122842e+01
  -1.715904e+02  -2.528727e+02
   2.030231e+02  -3.199007e+02
   4.384631e+02  -8.987306e+01
   2.309287e+02   1.865155e+02
   3.614204e+01   3.485315e+02
  -9.366887e+01   1.285368e+02
  -3.153237e+01  -1.208359e+02
   1.259565e+02  -1.875130e+02
   2.392838e+02   2.356056e+01
   9.970866e+01   4.993292e+02
  -2.444571e+02   4.161196e+02
  -3.197370e+02  -2.887514e+01
  -1.233759e+02  -3.395994e+02
   1.252655e+02  -1.553997e+02
   1.952788e+02   1.954295e+02
  -3.561502e+01   3.291978e+02
  -3.376271e+02   4.982656e+01
  -4.813714e+02  -2.424972e+02
  -1.531018e+02  -3.967515e+02
   2.284060e+02  -1.831915e+02
   4.578596e+02   9.154075e+01
   2.157680e+02   2.287999e+02
  -1.105038e+02   2.102047e+02
  -2.833636e+02   1.990811e+01
  -1.979497e+02  -4.583774e+01
  -5.801053e+00  -3.913216e+01
   6.189394e+01   9.762824e+01
  -1.127571e+02   1.109472e+02
  -2.098078e+02  -1.780300e+01
  -1.573195e+02  -1.802687e+02
   1.222449e+02  -2.219052e+02
   2.354995e+02  -9.959099e+01
   1.627593e+02   5.269535e+01
  -2.612398e+01   2.109725e+02
  -1.489767e+02   2.689519e+02
  -2.520154e+02   1.692047e+02
  -1.862362e+02  -1.221060e+02
  -3.721517e+01  -3.179019e+02
   1.975153e+01  -2.232013e+02
   6.028966e+01  -1.283948e+02
   1.467140e+01   1.539745e+01
   6.085967e+01  -1.042933e+01
   1.242010e+02  -1.015505e+02
   1.334667e+02   5.451596e+01
   9.594508e+01   1.133195e+02
  -1.658263e+01   1.614549e+02
  -1.390638e+02  -7.869739e+00
  -9.372010e+01  -1.808728e+02
  -3.013980e+00  -1.735972e+02
   1.750697e+02  -3.172697e+01
   2.067301e+02   1.120743e+02
   1.162275e+02   2.359248e+02
  -5.204726e+01   2.271289e+02
  -1.405158e+02   7.897407e+01
  -8.332241e+01   3.340652e+00
  -1.182555e+02   2.584556e+01
  -1.686918e+02  -2.479017e+00
  -2.259084e+02  -6.162001e+01
  -1.974794e+02  -1.730187e+02
   3.972282e+01  -2.641000e+02
   2.850412e+02  -2.469861e+02
   3.181049e+02  -1.549874e+02
   1.974753e+02   8.717540e+01
   3.883484e+01   2.121476e+02
  -5.266804e+01   1.857501e+02
  -5.599072e+01   5.837382e+01
   4.488493e+01  -7.241553e+01
   8.815074e+01  -6.666741e+00
   1.926592e+01   1.123470e+02
  -8.888873e+01   1.071315e+02
  -8.427491e+01   1.918905e+01
  -1.913940e+01  -1.031207e+02
   9.847283e+01  -6.011183e+00
   9.815677e+01   1.803509e+02
  -4.012199e+01   2.119082e+02
  -1.546479e+02   1.263906e+02
  -2.525339e+02  -4.894958e+01
  -1.596501e+02  -1.536571e+02
  -9.768975e+01  -1.308553e+02
   9.653127e+01  -1.066926e+02
   1.211908e+02   5.278598e+01
   4.712141e+01   3.823917e+01
  -7.020088e+01   7.023064e+00
  -1.141449e+01  -9.040061e+01
   7.656892e+01  -6.146383e+01
   1.165066e+02   3.875136e+00
   4.001134e+00   4.546661e+01
  -8.025339e+01   2.770962e+01
  -2.828309e+01  -3.882971e+01
   8.220863e+01  -4.500857e+01
   1.957107e+02  -2.901544e+01
   2.042347e+02   1.031523e+02
   1.493974e+01   1.783964e+02
  -1.089870e+02   1.435443e+02
  -2.138042e+02   6.616985e+01
  -1.276442e+02  -4.545890e+01
   1.500143e+01  -1.087870e+02
   5.711283e+01   1.838561e+01
  -4.659611e+01   5.485025e+01
  -1.671567e+02   7.271948e+01
  -1.273749e+02  -1.162130e+02
  -5.143960e+01  -1.643382e+02
   8.570406e+01  -1.152380e+02
   1.201876e+02  -1.250918e+01
   4.575399e+01   1.813194e+01
  -1.773836e+00  -3.584613e+00
  -6.713985e+01  -1.020230e+02
   4.832797e+01  -9.836646e+01
   1.160293e+02  -3.327447e+01
   1.273167e+02   8.479278e+01
  -1.119375e+01   1.169102e+02
  -9.985008e+01   8.871632e+01
  -1.141769e+02   5.974172e+00
  -2.701965e+01  -3.130067e+01
   6.612312e+01  -6.033585e+01
   7.155602e+01   1.078820e+01
  -2.599968e+01   1.338990e+01
  -5.698726e+01   8.228204e+00
  -2.189393e+01   1.680496e+01
   3.954416e+01   9.960758e+00
   2.436997e+01   4.212305e+01
   1.346743e+00   1.180566e+02
  -9.292603e+01   8.073939e+01
  -1.329726e+02  -1.388600e+01
  -1.470911e+02  -9.063862e+01
  -5.134313e+01  -1.301577e+02
   7.776455e+01  -9.932095e+01
   1.022716e+02   1.446735e+01
   4.849915e+01   9.811661e+00
   4.239895e+01   5.950483e+00
   1.137516e+01  -2.491150e+01
   7.024089e+01   1.693241e+01
   1.682314e+01   3.920242e+01
  -2.358615e+01   2.988164e+01
  -6.687176e+01   6.612378e+01
  -1.146994e+02  -4.527693e+01
   1.592463e+01  -6.810255e+01
   1.263013e+02  -5.468016e+01
   1.546903e+02   6.653269e+01
   6.099080e+01   1.168045e+02
  -9.784957e+01   1.500607e+02
  -2.096682e+02   7.801087e+01
  -1.648196e+02  -1.338813e+02
  -4.106004e+01  -1.053221e+02
   6.512567e+01  -8.688940e+01
   4.742075e+01  -5.049768e+01
   8.534562e+01  -2.768355e+01
   5.371805e+01  -7.174631e+01
   6.912160e+01  -1.961987e+01
   9.447242e+01   4.139929e+01
   8.413737e+01   1.309865e+02
  -2.479897e+01   1.503735e+02
  -6.427445e+01   1.176474e+02
  -7.861498e+01  -1.967612e+01
  -7.276619e+01  -9.128520e+01
   3.170144e+01  -8.571974e+01
   3.195922e+01  -6.964857e+01
   3.394059e+01   2.383764e+01
  -6.473542e+01   3.383713e+00
  -7.300295e+00  -1.080779e+01
   2.789692e+01   2.963493e+01
   3.147299e+01   2.207649e+01
   3.918555e+01   9.454452e+00
  -2.102681e+01  -5.083265e+00
  -7.380545e+01  -2.620155e+01
  -1.091271e+02  -5.820406e+01
   1.845445e+01  -5.804768e+01
   1.222482e+02  -6.746774e+01
   1.309328e+02  -5.211134e+00
   2.619643e+01   4.922033e+01
  -4.977186e+01   3.322012e+01
  -5.833266e+01  -9.279754e+00
  -1.413657e+00  -5.997506e+01
   2.443360e+01  -6.238652e+01
   6.728233e+01   1.904056e+01
   2.778742e+01   1.476893e+01
   7.498037e+01   2.591470e+01
   1.969966e+01   8.821558e+00
   2.217822e+01  -1.117757e+01
   5.708740e+01   3.198361e+01
   1.912405e+01   9.150600e+01
  -7.625705e+01   7.915821e+01
  -1.330665e+02   4.404571e+01
  -8.372277e+01  -3.894527e+01
  -1.968803e+01  -9.820737e+01
   8.305655e+01  -5.925481e+01
   2.126938e+01   3.057762e+01
  -8.888312e+00   2.818532e+00
  -6.233121e+01  -1.999238e+01
  -4.228581e+01  -7.101936e+01
   4.983706e+01  -7.911691e+01
   1.129640e+02  -5.071226e+00
   1.041598e+02   1.408545e+01
   4.559007e+01   4.531952e+01
  -4.209874e+01   3.695203e+01
  -3.492260e+01   1.896312e+01
   4.811757e+01  -3.311955e+01
   5.517979e+01   2.273401e+01
   2.131412e+01   9.764595e+01
  -8.128089e+01   7.855204e+01
  -1.169493e+02   3.774132e+01
  -2.262283e+01  -7.554934e+01
  -8.166015e+00  -8.516381e+01
   7.008385e+01  -6.073302e+01
   7.204682e+01   2.859212e+01
   1.294320e+01   8.921432e+01
  -5.273979e+00   8.294046e+01
  -1.467188e+01   2.751194e+00
  -3.846903e+00  -1.955671e+01
  -1.430962e+01   3.270620e+01
  -2.837116e+01   1.182026e+01
  -6.388184e+00  -1.600212e+01
  -4.318293e+01  -4.602196e+01
  -5.881476e+01  -9.850691e+01
   5.925616e+01  -3.371083e+01
   1.329555e+02   1.368609e+01
   2.445161e+01   4.743736e+01
  -1.057105e+01   1.749598e+00
  -5.250561e+01  -3.501283e+01
  -7.593794e+01   1.436193e+01
  -3.864506e+01  -1.393310e+01
   1.488165e+01   1.343137e+00
  -4.269260e+00  -2.603970e+01
   1.587801e+01   2.450072e+01
   2.577885e+00  -2.203479e+01
   3.650344e+01  -4.252747e+00
   6.405318e+01   1.406624e+01
  -3.936990e+01   6.631040e+01
  -8.676288e+01   7.860615e+01
  -1.634358e+02  -2.443253e+01
  -9.836529e+01  -5.219262e+01
  -1.197196e+00  -9.587154e+01
   1.425702e+01  -8.724166e+01
   8.743981e+01   1.037107e+01
   9.514184e+01   2.522010e+01
  -1.077386e+01   1.053006e+01
   1.582491e+01   8.328601e+00
   2.225170e+01   1.337707e+01
   6.278971e+01  -9.695972e+00
   3.239114e+00   9.390118e+01
  -6.348218e+01   6.629848e+01
  -6.978844e+01   2.426242e+01
  -7.861849e+01  -4.756161e+01
  -3.133517e+01  -9.309216e+01
   4.697671e+01  -2.836673e+01
   2.281856e+01   8.019596e+01
  -1.260159e+01   6.945083e+01
  -4.992240e+01   6.381571e+01
  -7.988060e+01   1.270808e+01
  -9.926719e+00  -4.183035e+01
   1.381678e+01  -3.094138e+01
   6.435274e+00  -1.220056e+01
  -3.660719e+01   5.049267e+00
  -6.361528e+01   1.424496e+01
  -1.026318e+01  -5.426171e+01
   4.210846e+01  -4.997706e+01
   1.413060e+02  -4.453302e+01
   3.526884e+01   2.189256e+01
  -1.202359e+01   4.743034e+01
  -5.691945e+01   9.060372e+01
  -2.728288e+01   3.872545e+01
  -3.492981e+01  -5.766236e+01
   1.038584e+01  -7.264231e-01
  -2.122562e+01  -1.625011e+01
   1.167307e+00   5.260085e+01
   1.312599e+01   5.608304e+01
   2.228962e+01  -1.993544e+01
  -1.225025e+00  -1.397523e+01
  -2.254866e+01   1.706724e+01
   1.272641e+00   3.022994e+01
   4.329536e+00   2.550188e+01
  -6.437345e+00   2.966130e+00
   8.794334e+00  -4.659054e+01
   1.205713e+01   1.934643e+01
   1.678603e+01   6.924777e+01
  -2.565084e+00   4.984326e+01
  -4.808570e+01   2.547359e+01
  -3.005941e+01  -9.259695e+00
  -5.170199e+00  -2.127648e+01
   3.336284e+01  -3.901680e+01
   5.246856e+01   3.467279e+01
   3.630768e+01   7.456527e+01
  -5.056004e+00   3.927556e+01
  -4.950498e+01   3.792406e+01
  -6.118980e+01  -1.670570e+01
   1.571696e+01  -9.348946e+00
   4.001969e+01  -1.626595e+01
  -2.118889e+01   4.260841e+01
  -6.939932e+01  -6.280678e+00
