
 $NMID
 id='ANONYMOUS ', fmtdat='(2E16.6)'
 volume=1.0
 tramp=1.0
 $END
   2.806099e+03  -7.574514e+01
   2.029838e+03   1.368103e+03
  -2.177842e+02   1.841560e+03
  -1.391222e+03   1.277692e+03
  -7.613900e+02  -5.878923e+01
   2.036206e+02  -3.192683e+02
   4.275109e+02   1.782560e+02
   1.115790e+02   5.880569e+02
  -5.002655e+02   5.283872e+02
  -5.992691e+02   6.107837e+01
  -3.483155e+02  -5.507490e+02
   3.854253e+01  -6.545724e+02
   3.131974e+02  -1.832049e+02
   3.148762e+02   4.658477e+02
  -1.649342e+02   4.945728e+02
  -4.072660e+02   4.305488e+01
  -2.589013e+02  -4.500155e+02
   1.913459e+02  -5.242831e+02
   4.057213e+02  -1.850280e+02
   3.367308e+02   2.202973e+02
   9.230382e+01   3.545758e+02
  -1.018324e+02   2.246943e+02
  -1.060870e+02   1.299654e+01
   1.133719e+02  -4.676725e+00
   2.997633e+02   1.600168e+02
   7.099136e+01   3.153018e+02
  -3.454992e+02   1.564796e+02
  -5.685146e+02  -7.958497e+01
  -2.340614e+02  -2.752040e+02
   2.615852e+02  -2.463755e+02
   5.125874e+02   1.270858e+02
   2.018398e+02   3.818504e+02
  -2.628859e+02   2.949704e+02
  -4.445041e+02   1.216275e+02
  -2.773213e+02  -1.809323e+02
  -2.244655e+01  -3.005577e+02
   6.726275e+01  -1.692799e+02
   4.862734e+01   6.765897e+01
  -1.077432e+02   1.605517e+02
  -2.331051e+02  -1.075392e+02
  -2.120709e+00  -3.946368e+02
   2.702249e+02  -4.212550e+02
   3.064075e+02   1.246328e+01
   7.311576e+01   3.349017e+02
  -1.246439e+02   1.486840e+02
  -2.250314e+02  -1.994661e+02
   8.387977e+01  -3.675237e+02
   3.624989e+02  -7.286761e+01
   4.800491e+02   3.148161e+02
   1.311385e+02   4.651278e+02
  -2.583376e+02   1.778077e+02
  -4.609436e+02  -7.012022e+01
  -2.535552e+02  -2.471685e+02
   2.440270e+01  -2.162351e+02
   2.514683e+02  -7.722333e+00
   1.554603e+02   7.496549e+01
  -6.498977e+01   3.075537e+01
  -6.145663e+01  -9.685814e+01
   1.201873e+02  -1.207047e+02
   2.017548e+02   5.828313e+01
   8.377285e+01   2.524361e+02
  -1.403928e+02   1.552656e+02
  -2.919906e+02   1.153435e+02
  -1.873811e+02  -8.185373e+01
   3.830855e+01  -2.697307e+02
   2.073812e+02  -2.803204e+02
   2.839514e+02  -1.265026e+02
   2.679031e+02   1.499443e+02
   4.284750e+01   3.327430e+02
  -4.753827e+00   3.060051e+02
  -3.022884e+01   1.063118e+02
   6.477037e-01   5.186104e+01
  -8.717973e+01   7.017103e+01
  -1.952899e+02   7.883003e+01
  -2.160629e+02  -5.208134e+01
  -1.033090e+02  -1.663083e+02
   5.098889e+01  -1.815846e+02
   1.919704e+02   1.826962e+01
   1.180392e+02   2.392666e+02
  -3.113129e+01   1.931303e+02
  -2.027360e+02   6.551102e+01
  -2.892193e+02  -1.023412e+02
  -1.429280e+02  -2.487412e+02
   7.168206e+01  -2.329171e+02
   1.851256e+02  -7.509022e+01
   1.053932e+02  -2.833499e+01
   1.254340e+02  -4.336881e+01
   1.834180e+02  -4.762341e+01
   3.613620e+02   4.059425e+01
   2.712105e+02   2.459929e+02
   3.741372e+01   3.569598e+02
  -2.539443e+02   3.116763e+02
  -3.961273e+02   1.626086e+02
  -2.407100e+02  -9.133488e+01
  -1.105037e+02  -2.273938e+02
   7.973385e+01  -1.684714e+02
   3.101703e+01  -5.683398e+01
  -8.781423e+01   4.542940e+01
  -1.531470e+02  -1.581792e+01
  -2.462776e+01  -1.202688e+02
   1.100340e+02  -1.326745e+02
   8.674582e+01   6.503746e+01
  -3.286417e+01   1.481988e+02
  -1.345753e+02  -1.357452e+01
  -8.378053e+01  -1.803794e+02
   2.109615e+01  -3.043896e+02
   2.474754e+02  -1.861409e+02
   3.102543e+02   3.501478e+01
   2.333597e+02   2.093948e+02
   5.499140e+01   2.242078e+02
  -7.968307e+01   1.127202e+02
  -1.038683e+02  -1.953757e+01
  -2.733335e+01  -1.967989e+01
   5.335530e+01   5.849129e+01
  -1.756836e+00   6.323397e+01
  -7.850167e+01   1.036893e+02
  -8.052499e+01  -2.748507e+01
  -3.960312e+01  -2.309892e+01
   9.088798e+01  -1.317316e+01
   3.220002e+01   7.754836e+01
  -8.956179e+01   4.508261e+01
  -2.234743e+02   4.442284e+01
  -2.483810e+02  -1.726210e+02
   1.412873e+01  -2.136421e+02
   1.406530e+02  -2.279078e+02
   1.953804e+02  -9.543113e+01
   1.033754e+02   6.152600e+01
  -3.418868e+01   7.243113e+01
  -5.119959e+01  -4.287924e+01
   3.103021e+01  -3.463638e+01
   1.797762e+02  -1.479732e+01
   1.685945e+02   7.274702e+01
   4.343529e+01   1.972388e+02
  -1.208323e+02   1.470558e+02
  -1.073681e+02   1.633523e+01
  -2.610102e+01  -3.342989e+01
   1.355400e+01   1.389937e+01
   1.314470e+01   9.795194e+01
  -4.795151e+01   9.405046e+01
  -1.454570e+02   2.002064e+01
  -1.558339e+02  -1.015721e+02
  -5.638144e+01  -1.688547e+02
   1.334831e+02  -1.153782e+02
   1.557140e+02   1.984249e+01
   9.031738e+01   7.809034e+01
  -3.673955e+01   7.694054e+01
  -8.694561e+01   3.751728e+01
   3.121933e+01  -3.256379e+01
   8.158537e+01   8.574661e+00
  -6.277250e+00  -3.633874e+00
  -9.512330e+01  -5.682073e+00
  -6.652693e+01  -2.261957e+01
  -4.270725e+00  -1.467478e+02
   1.253026e+02  -1.137403e+02
   1.689411e+02  -1.319783e+01
   1.567348e+02   1.587405e+02
   2.964204e+01   2.256583e+02
  -8.481539e+01   1.304842e+02
  -1.349118e+02   6.159656e+01
  -1.014470e+02  -2.176961e+01
   2.166926e+01   5.194078e+00
  -5.507134e+01   4.774653e+01
  -7.481352e+01  -2.639086e+01
  -1.328146e+01  -4.986145e+00
  -2.355101e+01  -9.955807e+01
   1.018361e+02  -2.547206e+01
   5.352867e+01   1.121260e+01
  -2.520732e+01   9.585838e+01
  -1.098410e+02   7.499725e+01
  -1.486737e+02  -2.482570e+01
  -5.275213e+01  -1.402569e+02
   1.078965e+02  -1.492075e+02
   2.026182e+02  -5.580811e+01
   1.996698e+02   6.471580e+01
   8.066514e+01   1.053079e+02
   4.997486e+00   1.146795e+02
  -1.043894e+02   9.642304e+01
  -8.825822e+01   2.945273e+01
  -6.948610e+01   1.028146e+02
  -2.922253e+01   3.673068e+01
  -9.183990e+01  -3.562423e+01
  -1.312324e+02  -1.437991e+02
  -5.853291e+01  -2.007275e+02
   7.456239e+01  -1.364626e+02
   1.842240e+02  -3.772820e+00
   1.215803e+02   1.145130e+02
   1.312992e+01   1.559935e+02
  -6.292511e+01   8.344521e+01
  -7.267719e+01  -1.772827e+01
   1.939736e+01  -1.052852e+01
   5.140348e+01   1.830770e+01
  -2.098372e+00   7.346214e+00
  -6.091202e+01  -1.711447e+01
  -4.470507e+01  -2.507381e+01
   8.065153e+01  -1.312961e+01
   1.897732e+02  -5.226288e-01
   1.350102e+02   5.291508e+01
  -2.002445e+01   8.794727e+01
  -1.266749e+02   4.839549e+01
  -9.372760e+01   8.300971e+00
  -4.103428e+01  -5.540923e+01
   6.728153e+01  -3.470641e+01
   6.849822e+01   1.116919e+01
   9.101179e-01   6.180107e+01
  -6.534470e+01   4.972931e+01
  -4.762274e+01  -8.211880e+00
   5.674194e+00  -5.221494e+01
  -2.930309e+01  -7.345329e+01
  -1.030962e+02  -1.922889e+01
  -6.129254e+01  -1.284442e+01
  -6.161277e+01  -3.722133e+01
   4.565580e+01  -1.329403e+02
   1.179481e+02  -8.650792e+01
   9.959193e+01   2.671541e+01
   1.164321e+02   6.514811e+01
   1.686896e+01   1.135973e+02
  -7.515875e+01   8.361668e+01
  -5.918776e+01   1.482515e+01
   4.840608e+01  -1.066143e+01
   7.109480e+01   4.512332e+01
   3.257955e+01   9.014472e+01
  -8.336185e+01   8.410972e+01
  -1.519525e+02   3.941347e+01
  -1.574152e+02  -1.653628e+01
  -2.397467e+01  -5.722120e+01
   7.047015e+01  -7.597657e+01
   6.438634e+01   9.091246e+00
  -6.296610e+01   3.079914e+01
  -1.844005e+01  -1.451992e+01
  -1.053921e+01  -6.801282e+01
   7.750371e+01  -1.384171e+02
   9.520476e+01  -6.405187e+01
   8.156648e+01   5.390326e+01
  -4.776772e+00   1.398391e+02
  -5.842293e+01   1.044790e+02
  -6.313911e+01  -2.422312e+01
  -2.857850e+01  -9.569136e+01
  -1.441445e+01  -9.242378e+01
   2.295383e+01  -1.195519e+01
   2.126949e+01   4.083866e+01
  -1.657640e+01  -3.554112e+01
   1.762222e+01  -3.984408e+00
   2.755469e+01   5.668677e+01
   4.819653e+01   5.964020e+01
   5.192594e+01   1.108883e+02
  -2.114841e+01   2.314261e+01
  -1.435715e+02  -2.188921e+01
  -1.087817e+02  -7.394975e+01
   1.130161e+00  -2.346644e+01
   9.670077e+01  -3.564741e+01
   1.052204e+02  -5.372929e+01
  -2.667191e+01  -1.084516e+01
  -1.796807e+01   2.956943e+01
   2.249293e+01   1.131460e+01
  -3.812134e+00   4.820682e+01
  -4.730064e+00  -8.124488e+00
  -6.427521e+01  -4.470206e+01
  -9.972244e+01  -3.517194e+01
  -1.252679e+01  -5.057318e+01
   9.769962e+01  -1.140730e+02
   1.362372e+02  -7.970122e+01
   1.360010e+02   7.631046e+01
   1.436981e+01   1.486566e+02
  -5.027178e+01   1.501204e+02
  -7.481370e+01   3.917288e+01
  -9.704076e+01  -2.814110e+00
  -2.642445e+01  -1.659791e+01
  -2.749807e-01  -3.194887e+01
  -2.115975e+01  -1.311933e+01
  -1.986776e+01  -1.799295e+01
  -6.481839e+00  -5.602239e+01
  -2.549083e+01  -3.783878e+01
   8.179945e+01   1.341246e+01
   6.863339e+01   5.899290e+01
   4.365327e+00   5.978319e+01
  -5.808544e+01   5.032730e+01
  -8.382122e+01  -7.968980e+01
  -3.954687e+01  -9.346496e+01
   5.081824e+01  -3.866391e+01
   1.162510e+02   2.980926e+01
  -1.609427e+01   7.412152e+01
  -1.074836e+01   8.012940e+01
  -4.397601e+01   1.917242e+01
   1.477570e+01   1.622097e+01
   5.070390e+01   1.001821e+01
  -9.764556e+00  -9.310681e+00
  -6.655248e+01   1.956611e+01
  -1.388203e+02   5.672662e+01
  -3.912576e+01  -8.562986e+00
  -2.958382e+00  -6.964431e+01
   4.806509e+01  -4.337260e+01
   1.233656e+01  -1.543899e+01
  -1.078169e+01   3.373584e+01
  -3.981632e+01   5.595747e+01
  -6.920960e+01   8.769628e+00
  -1.638633e+00  -4.559621e+01
   1.916286e+01  -2.458178e+01
   1.538656e+01   2.271220e+01
   3.868398e+01   6.655105e+00
  -1.073919e+01   1.195063e+01
  -2.181861e+01  -3.495689e+01
  -1.651769e+01  -5.979373e-01
  -3.913660e+00   2.531928e+00
  -4.884663e-01   6.855682e+01
  -3.683166e+01   9.767940e-01
   4.586050e+00  -4.184811e+01
  -1.935665e+01  -6.569870e+01
   6.365057e+01  -2.337683e+01
   3.986796e+01  -4.447827e+00
   2.793296e+01   3.798387e+01
  -2.397455e+01   2.974729e+01
  -6.560426e+01   2.065872e+01
  -2.795109e+01  -2.012912e+01
   4.253856e+01  -6.015295e+01
   8.013765e+01  -3.018935e+01
  -7.358626e-01   6.467257e+00
  -4.300973e-01  -1.480806e+01
  -5.728600e+01   1.115043e+00
   3.998214e-01  -1.686543e+01
   2.480665e+01  -3.155864e+00
