
 $NMID
 id='ANONYMOUS ', fmtdat='(2E16.6)'
 volume=1.0
 tramp=1.0
 $END
   3.224098e+03  -3.590142e+01
   2.060768e+03   2.117019e+03
  -4.471669e+02   1.871494e+03
  -1.509149e+03   9.390202e+02
  -9.616461e+02  -1.208031e+02
   2.366754e+02  -2.674924e+02
   4.824939e+02   1.322781e+02
   3.833397e+01   7.273913e+02
  -5.757827e+02   6.017439e+02
  -7.434151e+02   3.866681e+01
  -4.247948e+02  -5.904445e+02
   7.506809e+01  -7.775356e+02
   4.069168e+02  -1.796861e+02
   3.216513e+02   5.326206e+02
  -7.165602e+01   6.018941e+02
  -4.501664e+02   7.732373e+01
  -3.506454e+02  -5.582260e+02
   1.708569e+02  -5.901288e+02
   5.539975e+02  -1.645740e+02
   4.731395e+02   2.325779e+02
   1.075254e+02   3.914535e+02
  -2.036235e+02   2.687125e+02
  -6.960852e+01  -1.353904e+01
   1.819078e+02   1.305767e+01
   3.191986e+02   1.974318e+02
   9.573190e+01   4.037070e+02
  -4.735087e+02   2.765900e+02
  -7.087845e+02  -2.089601e+02
  -2.878730e+02  -4.334117e+02
   3.183049e+02  -3.393550e+02
   5.236741e+02   5.577646e+01
   2.571396e+02   4.307020e+02
  -2.828870e+02   3.915163e+02
  -4.887176e+02   1.487778e+02
  -3.663040e+02  -1.462011e+02
  -1.048646e+02  -3.656518e+02
   8.330221e+01  -2.370561e+02
   4.017966e+01   9.695190e+01
  -1.635547e+02   2.690788e+02
  -3.403462e+02  -7.844859e+01
  -1.806716e+02  -5.839489e+02
   2.706297e+02  -5.029642e+02
   4.602739e+02  -2.231976e+01
   1.939165e+02   2.956534e+02
  -1.626025e+02   2.115817e+02
  -2.503034e+02  -3.024813e+02
   1.114956e+02  -4.484456e+02
   4.358476e+02  -9.250470e+01
   4.850532e+02   3.554468e+02
   1.779472e+02   4.867876e+02
  -2.936256e+02   2.595974e+02
  -4.972056e+02  -5.148805e+01
  -3.629122e+02  -2.801294e+02
   8.151000e+01  -3.044316e+02
   3.467020e+02  -1.189621e+02
   1.990237e+02   6.017027e+01
  -4.398076e+01   7.646574e+01
  -8.561403e+01  -1.228670e+02
   1.286841e+02  -1.111981e+02
   2.134961e+02   6.200084e+01
   1.234934e+02   1.686434e+02
  -1.245088e+02   2.230239e+02
  -2.938909e+02   1.463705e+02
  -2.391053e+02  -7.078044e+01
  -1.388345e+01  -2.713802e+02
   2.405015e+02  -3.158829e+02
   3.370646e+02  -1.864697e+02
   2.769756e+02   1.500292e+02
   6.807622e+01   3.868281e+02
  -7.268189e+01   3.269817e+02
  -6.984389e+01   8.762122e+01
  -3.807824e+01   5.667286e+01
  -9.562119e+01   4.801798e+01
  -2.129849e+02   9.736014e+01
  -2.912197e+02  -7.043723e+01
  -8.868834e+01  -1.844007e+02
   6.262201e+01  -1.972112e+02
   1.569481e+02  -3.090034e+00
   1.516049e+02   2.199835e+02
  -7.726106e+00   2.806049e+02
  -2.417088e+02   7.667836e+01
  -3.280965e+02  -1.553038e+02
  -1.645345e+02  -2.788689e+02
   5.508659e+01  -2.814602e+02
   2.034312e+02  -1.176890e+02
   1.524139e+02  -5.291320e+01
   1.585849e+02  -8.066306e+01
   2.473316e+02  -3.940081e+01
   3.538350e+02   9.363703e+01
   2.806905e+02   3.182386e+02
   1.748612e+01   3.903141e+02
  -3.526295e+02   3.731486e+02
  -4.445716e+02   1.462711e+02
  -2.896766e+02  -1.017877e+02
  -3.908221e+01  -2.575615e+02
   1.449107e+02  -1.999691e+02
   1.028379e+01  -1.104709e+01
  -8.626675e+01   6.365327e+01
  -1.461627e+02  -2.868015e+01
  -4.097061e+01  -1.720446e+02
   1.254791e+02  -1.371895e+02
   1.077662e+02   8.807164e+01
   1.136119e+01   1.224779e+02
  -1.428817e+02   1.625676e+01
  -1.509300e+02  -1.983259e+02
   2.036850e+01  -3.190597e+02
   2.368190e+02  -1.900566e+02
   3.484794e+02   7.990224e+01
   2.867293e+02   2.804477e+02
   9.329079e+01   2.909369e+02
  -1.205674e+02   1.649299e+02
  -1.213779e+02   2.808062e+01
  -2.618844e+00  -2.303194e+01
   7.772117e+01   2.343489e+01
  -5.909716e+01   1.112800e+02
  -1.294318e+02   7.924240e+01
  -1.681405e+02  -2.638549e+01
   2.612283e+00  -5.085232e+01
   7.142481e+01   7.778205e+00
   1.801426e+00   9.285980e+01
  -1.343643e+02   1.153369e+02
  -2.529380e+02  -1.641382e+01
  -2.218391e+02  -1.105517e+02
  -6.205413e+01  -2.601501e+02
   1.441325e+02  -2.016608e+02
   3.076560e+02  -1.160127e+02
   1.441756e+02   4.697521e+01
  -2.225053e+01   5.349209e+01
  -6.241690e+01   2.328239e+01
   6.015670e+01  -7.081208e+01
   1.824813e+02  -3.738042e+01
   1.819256e+02   7.366192e+01
   5.781404e+01   1.940695e+02
  -5.460377e+01   1.409260e+02
  -1.009922e+02   2.987872e+01
  -3.605310e+01  -3.789052e+01
   2.642445e+01  -3.282651e+01
   1.983605e+01   6.750518e+01
  -9.953951e+01   1.079139e+02
  -1.927914e+02  -1.385496e+00
  -1.850969e+02  -1.005669e+02
  -9.710151e+00  -2.073594e+02
   1.490990e+02  -1.425749e+02
   1.508633e+02   4.062136e+00
   5.485862e+01   9.330906e+01
  -3.708570e+01   1.131595e+02
  -1.373808e+02   1.861071e+01
   1.070344e+01  -1.183326e+01
   2.306981e+01   2.513763e+00
  -2.802274e+01   1.996820e+01
  -1.027110e+02   1.295427e+01
  -8.056749e+01  -7.691802e+01
  -5.252499e+00  -1.730285e+02
   9.514758e+01  -1.862285e+02
   2.258744e+02  -1.049851e+01
   1.580701e+02   1.583919e+02
   3.663632e+01   2.379548e+02
  -9.701756e+01   1.454444e+02
  -1.065627e+02  -8.034682e+00
  -6.711549e+01  -1.296069e+01
  -4.530913e+01  -3.341240e+01
  -4.835678e+01   3.807891e+01
  -7.158219e+01   4.810003e+01
  -6.174317e+01  -6.663043e+01
   3.936606e+01  -9.747834e+01
   9.392821e+01  -6.192968e+01
   1.193740e+02   3.512546e+01
  -9.155688e+00   1.060428e+02
  -1.326750e+02   1.037854e+02
  -1.669867e+02  -3.362324e+01
  -1.141766e+02  -2.208281e+02
   9.109386e+01  -2.225512e+02
   2.409082e+02  -7.913982e+01
   1.957993e+02   8.646579e+01
   1.144920e+02   1.458377e+02
  -3.444709e+01   1.320630e+02
  -8.185525e+01   6.677405e+01
  -9.287804e+01   5.866679e+01
  -5.638355e+01   8.756233e+01
  -6.434085e+01   3.967097e+01
  -8.938171e+01  -1.860826e+01
  -1.391513e+02  -1.444857e+02
  -3.914426e+01  -2.144367e+02
   5.294341e+01  -1.798175e+02
   1.778538e+02  -3.295904e+01
   1.471161e+02   7.110444e+01
   1.574930e+01   1.879387e+02
  -7.832861e+01   1.052648e+02
  -5.825727e+01   2.333910e+01
   1.959174e+01  -1.647108e+01
   2.243836e+01  -6.580092e+01
  -5.369464e+01  -3.943198e+01
  -9.498027e+01  -4.727282e+01
  -6.133428e+01  -6.255135e+01
   6.164960e+01  -7.865373e+01
   1.627998e+02  -8.244877e+00
   1.316047e+02   2.070427e+01
   4.678780e+01   9.537680e+01
  -1.163535e+02   4.538949e+01
  -1.566014e+02   2.319101e+01
  -7.883352e+01  -3.144825e+01
   2.743255e+01  -4.234429e+00
   4.658928e+01   2.645889e+01
  -7.589989e+00   6.878456e+01
  -3.507399e+01   9.035224e+01
  -7.713351e+01  -3.391663e+01
  -8.924471e+01  -4.381690e+01
  -6.525878e+01  -4.294612e+01
  -7.346024e+01   2.559633e+01
  -5.165883e+01   3.848908e+00
   3.207682e+00  -3.629167e+01
   9.136953e+00  -1.630590e+02
   1.338412e+02  -1.186936e+02
   1.484518e+02  -5.013085e+01
   1.390885e+02   8.512512e+01
   1.820410e+01   1.290360e+02
  -1.164597e+02   4.837609e+01
  -7.120994e+01  -4.318621e+01
   3.122570e+01  -2.481383e+01
   1.132773e+02   1.892475e+01
   1.848906e+01   8.374770e+01
  -7.570995e+01   1.122720e+02
  -1.789155e+02   4.764809e+01
  -1.680372e+02  -4.018176e+01
  -2.477615e+01  -6.379341e+01
   4.311558e+01  -6.319883e+01
   5.477651e+01   3.671921e+01
  -1.583704e+01   2.201946e+01
  -7.714266e+01  -4.970787e+01
  -3.020165e+01  -1.041870e+02
   9.357453e+01  -1.530190e+02
   1.910779e+02  -1.083102e+02
   1.734298e+02   4.913937e+01
   5.936313e+01   1.948846e+02
  -9.453322e+01   1.097490e+02
  -1.023219e+02  -3.957093e+01
  -3.216665e+01  -8.540230e+01
   7.405255e+00  -8.168767e+01
   2.835403e+01  -3.495977e+01
   6.607436e+01   9.168836e+00
   4.243381e+01   2.211972e+01
   7.053634e+01   1.207172e+00
   1.707413e+01  -1.510539e+01
   2.549187e+01   8.646886e+01
  -5.681677e-01   6.419183e+01
  -6.297425e+01   1.629816e+00
  -1.698146e+02   3.291158e+00
  -9.468397e+01  -7.100226e+01
  -1.949227e+01  -8.971264e+01
   7.561237e+01  -1.346784e+01
   9.894683e+01  -2.384350e+01
   3.048562e+01   6.470528e+00
  -2.515994e+01   3.714191e+01
  -1.722236e+01   6.831691e+00
   4.067138e+01   2.275503e+01
   1.952515e+01  -2.948299e+01
  -8.741726e+01  -1.336780e+01
  -1.253428e+02  -1.717832e+01
   3.504444e+00  -4.903784e+01
   1.065980e+02  -1.133742e+02
   1.889165e+02  -6.757365e+01
   1.544654e+02   4.438317e+01
   5.658278e-01   1.199680e+02
  -6.849013e+01   1.200871e+02
  -8.295469e+01   3.888299e+01
  -3.907277e+01  -4.041885e+01
   3.502033e+00  -1.542186e+01
   6.967125e-01   2.967602e-01
   1.530250e+01   5.523919e+00
  -3.860305e+01  -1.902909e+01
  -2.221937e+01  -5.243251e+01
   3.580873e+01  -2.911926e+01
   1.046961e+02   3.304535e+01
   6.220958e+01   8.163444e+01
   5.946586e+00   8.267967e+01
  -4.830096e+01   5.024710e+01
  -1.050246e+02  -8.314543e+01
  -3.615720e+01  -9.400769e+01
   4.938073e+01  -5.858975e+01
   6.974631e+01   4.597290e+01
   2.913135e+01   6.190659e+01
  -3.503553e+01   7.567043e+00
  -7.322975e+01   2.724595e+01
   1.232892e+01  -3.027861e+01
   7.177121e+01  -4.224428e+01
  -2.246463e+00   5.145961e+01
  -3.938256e+01   4.703949e+01
  -1.194618e+02   5.747336e+01
  -8.368159e+01  -2.736997e+01
   4.816167e+00  -7.669670e+01
   5.055907e+01  -6.586796e+01
   7.386010e+01  -3.818166e+00
  -4.443151e+00   5.526474e+01
  -3.602909e+01   6.241367e+01
  -4.825116e+01   4.039537e+00
  -3.145965e+01  -5.576199e+01
  -3.589549e+00  -5.118146e+01
   4.169478e+01  -6.131485e+00
   7.203869e+01   3.102476e+01
   1.818249e+01  -2.465739e+01
  -3.271601e+01  -3.881541e+01
   2.013653e+01   3.626108e+01
  -1.492327e+01   5.990395e+01
   4.097574e-01   4.017511e+01
  -4.493632e+01  -2.917930e+01
   4.709275e+00  -4.471680e+01
   3.309107e+00  -9.239516e+01
   7.111415e+01  -3.532885e+01
   7.487012e+01   4.818242e+00
   1.372228e+01   4.321265e+01
  -7.385199e+01   2.987651e+01
  -9.034000e+01  -1.830353e+01
  -2.010994e+01  -4.516742e+01
   6.431075e+01  -5.205815e+01
   6.122077e+01  -3.171183e+01
   3.397739e+01   1.922915e+01
  -1.323005e+01   6.412580e+00
  -1.897245e+01  -6.525047e+00
   5.218148e+00  -8.079633e+00
   8.888081e+01   1.700172e+01
