
 $NMID
 id='ANONYMOUS ', fmtdat='(2E16.6)'
 volume=1.0
 tramp=1.0
 $END
  -2.571216e+03   1.882622e+01
  -1.388978e+03  -1.501059e+03
   2.978270e+02  -1.588111e+03
   1.149158e+03  -7.899785e+02
   5.683203e+02   1.462063e+02
  -1.888998e+02   3.402275e+02
  -4.229536e+02  -8.567182e+01
  -3.686015e+01  -4.793422e+02
   3.869009e+02  -5.228428e+02
   5.733022e+02  -5.566496e+01
   3.119462e+02   4.666883e+02
  -1.076062e+02   5.457039e+02
  -4.127069e+02   1.169915e+02
  -1.307295e+02  -3.258495e+02
   6.233297e+01  -4.216557e+02
   3.295562e+02  -5.598513e+01
   2.474881e+02   3.970641e+02
  -1.073255e+02   4.520498e+02
  -2.869854e+02   1.438158e+02
  -2.862906e+02  -1.985827e+02
   4.238317e+00  -2.549668e+02
   9.750845e+01  -1.848379e+02
   8.577753e+01  -3.925734e+01
  -2.905598e+01  -4.930138e+01
  -1.915137e+02  -1.383940e+02
  -7.593902e+01  -1.679712e+02
   2.616207e+02  -1.236880e+02
   4.173325e+02   2.252720e+01
   2.390134e+02   2.414676e+02
  -2.021873e+02   1.823092e+02
  -4.244507e+02   6.483807e+00
  -1.503563e+02  -2.219181e+02
   1.686613e+02  -2.886183e+02
   3.129220e+02  -9.067057e+01
   2.415383e+02   1.106829e+02
   6.880069e+01   2.264826e+02
  -6.021272e+01   1.724986e+02
  -4.941160e+01  -4.353756e+01
   2.236808e+01  -1.966639e+02
   2.020027e+02   4.566224e+01
   1.434546e+02   3.299057e+02
  -1.262350e+02   4.145558e+02
  -3.524204e+02   2.604387e+01
  -1.864479e+02  -2.025998e+02
   9.083676e+01  -2.130451e+02
   1.754310e+02   2.008502e+02
  -5.966584e+01   2.946266e+02
  -2.647131e+02   6.030856e+01
  -3.169456e+02  -2.268021e+02
  -1.470773e+02  -3.019130e+02
   1.767943e+02  -2.024939e+02
   4.014949e+02   2.970702e+01
   2.594450e+02   1.478756e+02
  -1.545521e+01   2.148411e+02
  -2.226549e+02   7.028487e+01
  -1.869931e+02  -7.066922e+01
   1.838307e+01  -4.937173e+01
   8.609449e+01  -2.007614e+01
  -5.105178e+01   9.371407e+01
  -1.555419e+02  -6.178626e+01
  -1.004501e+02  -1.356679e+02
   6.857683e+01  -1.709517e+02
   2.388749e+02  -8.765190e+01
   1.640393e+02   4.155482e+01
   1.809509e+01   1.320232e+02
  -1.399944e+02   2.406325e+02
  -2.270920e+02   1.321170e+02
  -1.631009e+02  -9.970801e+01
  -4.939425e+01  -2.687216e+02
   3.898560e+01  -2.140933e+02
   9.863843e+01  -9.691650e+01
   2.188076e+01  -3.706542e+01
   6.834023e+01  -5.812319e+01
   1.231379e+02  -6.262456e+01
   1.592945e+02   6.776992e+01
   8.371869e+01   1.257470e+02
  -4.584748e+01   1.079767e+02
  -1.602177e+02  -2.517273e+01
  -1.215530e+02  -1.545610e+02
  -1.124455e+01  -2.007256e+02
   1.238016e+02  -2.515356e+00
   2.523539e+02   1.465817e+02
   1.093740e+02   1.866719e+02
  -5.460549e+01   1.555335e+02
  -1.790869e+02   8.090409e+01
  -1.077480e+02  -8.167612e+00
  -6.967549e+01   3.468489e+01
  -1.442348e+02  -1.001772e+01
  -2.231148e+02  -6.252748e+01
  -1.952018e+02  -1.681192e+02
  -1.009374e+01  -2.846123e+02
   2.602423e+02  -2.866572e+02
   3.236250e+02  -5.984426e+01
   1.921587e+02   4.734604e+01
   3.607932e+00   1.400647e+02
  -6.641525e+01   1.941839e+02
  -3.254162e+01   2.902664e+01
   3.613669e+01  -7.696605e+00
   7.981956e+01   1.340921e+01
   2.468067e+01   1.033661e+02
  -8.723651e+01   9.782998e+01
  -9.492030e+01  -2.012887e+01
   5.720851e+01  -4.205798e+01
   1.086088e+02   8.952488e+00
   1.161123e+02   1.612576e+02
  -6.456954e+01   3.151723e+02
  -1.922668e+02   1.388419e+02
  -2.184798e+02  -1.028749e+02
  -1.977232e+02  -1.488395e+02
  -5.721658e+00  -1.439321e+02
   5.466328e+01  -7.291290e+01
   5.518754e+01  -2.783175e+01
   2.893460e+01  -1.671716e+01
  -2.096016e+01  -3.638425e+01
   1.404080e+01  -3.322333e+01
   8.524022e+01  -4.731270e+01
   1.116174e+02  -2.355705e+01
   7.866812e+00   8.800361e+00
  -3.459329e+01   5.860045e-01
  -3.976369e+01  -2.722274e+01
   9.342949e+01  -6.826680e+01
   1.616395e+02   3.294979e+01
   1.651154e+02   8.407563e+01
  -6.834504e+00   1.959350e+02
  -1.196062e+02   2.041887e+02
  -2.052311e+02   8.876038e+01
  -1.238574e+02  -3.288959e+01
   1.130710e+01  -2.679115e+01
   4.446845e+01   2.696376e+00
  -1.196741e+01   6.024679e+01
  -1.814038e+02   6.317235e+01
  -1.136997e+02  -9.556495e+01
  -5.997598e+01  -1.325852e+02
   1.488586e+01  -1.115746e+02
   1.052693e+02  -1.968647e+01
   4.095054e+01   8.942398e+00
  -1.100962e+01   1.464983e+01
  -3.139768e+01  -7.169634e+01
   9.106353e+01  -7.511731e+01
   8.750513e+01   2.128279e+01
   1.004369e+02   6.618055e+01
   7.949545e+00   1.311652e+02
  -1.411243e+02   1.023522e+02
  -1.324081e+02   1.643260e+01
  -4.309277e+01  -6.059580e+01
   7.778244e+01  -8.972396e+01
   5.481638e+01  -2.672723e+01
  -2.723040e+01   1.259094e+01
  -2.982434e+01  -2.505540e+01
   4.588399e+00   2.215658e+01
   6.522342e+01   5.874390e+01
   8.887672e+01   6.630354e+01
  -2.254998e+01   1.170616e+02
  -9.989368e+01   5.381414e+01
  -1.103755e+02   4.515433e+01
  -1.027906e+02  -1.135003e+02
  -3.672716e+01  -1.383795e+02
   8.887645e+01  -9.639371e+01
   7.589634e+01  -4.522965e+01
   5.418051e+01   1.974181e+01
   1.063710e+01   3.563101e+01
   3.476019e+01   4.301143e+00
   9.540985e+00  -2.334995e+01
   4.109013e+01   7.572892e+01
  -6.220681e+01   8.837104e+01
  -7.354258e+01   2.648119e+01
  -3.898936e+01   3.716958e-01
   3.499561e+01  -8.180141e+01
   1.176992e+02  -8.560760e+01
   9.045704e+01   3.780289e+01
   4.809790e+01   1.428680e+02
  -4.520989e+01   1.684860e+02
  -1.636413e+02   4.571770e+01
  -1.617549e+02  -7.627752e+01
  -6.238925e+01  -1.232862e+02
   1.228624e+01  -8.752534e+01
   3.016844e+01  -5.055886e+01
   7.857565e+01  -6.411250e+01
   7.637094e+01  -4.478613e+01
   2.956080e+01  -5.482857e+01
   1.261273e+02   2.110868e+01
   7.738926e+01   1.423442e+02
   1.553057e+01   1.944293e+02
  -7.512790e+01   1.041005e+02
  -1.273826e+02  -3.055487e+01
  -7.719199e+01  -1.137388e+02
  -6.589335e+01  -1.169351e+02
   6.501181e+01  -1.449493e+01
   2.521750e+01   9.602337e+00
  -2.124755e+01   5.302167e+01
  -6.503064e+01   3.126479e+01
   9.851915e+00  -3.184836e+00
   6.838583e+01   3.970982e+01
   1.897515e+01   1.853227e+01
  -2.855874e+01   2.100633e+01
  -1.555608e+02   1.767369e+01
  -9.148159e+01  -1.796576e+01
  -1.932509e+01  -4.648063e+01
   7.023525e+01  -2.548269e+01
   1.022108e+02   3.952819e+00
   1.613479e+01   2.569624e+01
  -1.073214e+02   1.263895e+01
  -4.891204e+01   7.955091e+00
  -1.392254e+01  -7.867738e+01
   4.545941e+01  -3.822726e+01
   2.097013e+01   3.518207e+01
   5.231965e+01   1.090795e+01
  -3.528621e-01   4.499647e+01
   6.412244e+01  -2.002794e+01
   6.553512e+01  -5.245215e+01
   6.323460e+01   4.777303e+01
  -1.595274e+01   1.151812e+02
  -9.668160e+01   1.394866e+02
  -1.278447e+02   3.701986e+01
  -9.029032e+01  -1.084084e+02
   5.325042e+00  -5.457956e+01
   7.652243e+01  -3.754726e+01
   1.936067e+01   1.280062e+01
  -4.188726e+00  -1.565942e+00
  -1.084860e+02   3.225053e+00
  -4.483048e+01  -3.309868e+01
   6.693321e+01  -5.403702e+01
   1.397407e+02  -1.483147e+01
   6.723053e+01   7.630350e+01
   7.371084e+01   9.030666e+01
  -4.009446e+01   3.401352e+01
  -5.595173e+01   6.258292e+00
   1.261370e+01  -3.018930e+01
   5.098910e+01   2.963422e+01
   1.490189e+01   4.993573e+01
  -5.742119e+01   8.128275e+01
  -1.020842e+02   2.808205e+01
  -8.436784e+01  -1.044001e+02
  -3.523386e+00  -1.132922e+02
   5.387025e+01  -9.270067e+01
   6.308743e+01   1.221222e+01
   4.126970e+01   5.238407e+01
   7.934561e+00   5.659135e+01
  -2.677113e+01   2.040939e+01
   3.267074e+00  -6.134190e+01
   9.762364e+00  -1.265810e+01
   2.547648e+01   1.998224e+01
  -1.085408e+01  -2.212482e+01
  -2.122734e+01  -3.523446e+01
  -2.719624e+01  -3.789922e+01
   2.022311e+01  -1.961702e+01
   7.591568e+01   4.042387e+01
   8.673882e+01   3.993764e+01
   9.556562e+00   1.125556e+01
  -4.052379e+01   3.902316e+01
  -5.405425e+01   3.783662e+01
   4.044509e+00  -9.869382e-01
   2.900232e+01  -1.487481e+01
   1.772691e+01   2.978188e+01
  -2.750328e+01  -1.574920e+01
   9.714744e-01   1.603468e+01
   4.768688e+01   1.499478e+01
   4.199880e+01   4.504782e+01
   3.721049e+00   8.199132e+01
  -7.914719e+01   6.918446e+01
  -1.241312e+02   1.661039e+01
  -7.615427e+01  -6.074348e+01
   7.444043e+00  -7.865624e+01
   4.360242e+01  -7.008038e+01
   9.971332e+01  -5.503186e+01
   6.809293e+01   1.919623e+01
   1.115278e+01   3.610544e+01
  -1.995329e+00  -1.440476e+01
   4.278914e+01  -1.126801e+01
   2.922703e+01   3.267292e+01
   3.132506e+01   8.324053e+01
  -2.259366e+00   2.186451e+01
  -8.440072e+01   2.163549e+00
  -3.175361e+00  -9.924342e+01
  -4.775420e+01  -6.729648e+01
   7.425200e+01   4.202363e+01
   5.825761e+01   6.483469e+01
  -2.446964e+01   9.132870e+01
  -5.690634e+01   3.263813e+01
  -6.351271e+01  -3.055231e+01
  -1.755948e+01  -2.951879e+01
   3.785230e+01  -4.566805e+01
   6.589179e+01   1.428961e+00
  -8.834154e+00   1.751465e+00
  -3.494900e+01   1.449088e+01
   1.203925e+01   3.054833e+00
   6.347577e+01  -2.307278e+01
   6.065690e+01  -5.442318e+00
   2.375555e+01  -2.805053e+01
   7.816687e-01   5.426018e+01
  -2.456116e+01   4.315042e+01
  -6.914800e+00   4.347793e+01
  -3.381208e+01  -4.083055e+01
   4.590313e+01  -4.191635e+01
   7.702765e+00  -2.933638e+00
   3.683270e+01   3.601677e+01
  -3.330544e+01   3.732226e+01
  -5.368635e+01   1.182531e+01
  -2.810331e+01  -2.985555e+01
   1.724914e+01  -1.678969e+01
   1.694496e+00   5.782695e+01
  -3.416383e+01  -2.038829e+01
   2.532620e+01  -3.631783e+01
   3.423339e+00  -3.099467e+01
   1.126834e+01  -3.238947e+01
   1.888169e+01   2.181835e+01
  -2.612941e+01   7.698852e+01
  -3.461341e+01   2.621289e+01
  -2.959882e+01  -3.313930e+01
  -6.446107e+01  -7.043657e+01
   8.734706e+01  -4.098677e+01
   6.548655e+01   9.193870e+00
   8.863795e+01   2.352129e+01
  -2.854618e+01   3.503082e+01
  -2.996054e+01  -3.063837e+00
  -1.004872e+01  -4.722305e+01
   5.448464e+01  -1.385371e+01
  -1.309471e+01  -1.839142e+01
  -1.165705e+01   2.126984e+01
  -4.028973e+01  -4.725055e+01
