
 $NMID
 id='ANONYMOUS ', fmtdat='(2E16.6)'
 volume=1.0
 tramp=1.0
 $END
   4.482665e+03  -5.441043e+01
   2.713368e+03   3.068026e+03
  -8.530335e+02   2.877389e+03
  -2.358785e+03   9.760969e+02
  -1.153180e+03  -8.891199e+02
   6.663572e+02  -7.580790e+02
   1.032605e+03   3.928426e+02
   1.341795e+02   1.148831e+03
  -8.952994e+02   8.781262e+02
  -1.039803e+03  -1.070908e+02
  -5.179766e+02  -1.010760e+03
   2.806816e+02  -9.995664e+02
   7.834804e+02  -1.115873e+02
   4.299514e+02   8.278370e+02
  -3.217373e+02   8.597130e+02
  -6.723494e+02  -3.177814e+01
  -2.652266e+02  -8.134398e+02
   3.889980e+02  -7.091836e+02
   6.542738e+02  -7.865442e+01
   4.079340e+02   4.131825e+02
  -1.397236e+01   5.110006e+02
  -2.656006e+02   3.146237e+02
  -2.490922e+02   1.745607e+00
   1.143566e+02  -1.343019e+02
   4.466146e+02   4.510271e+01
   2.431894e+02   4.569629e+02
  -4.826555e+02   4.299367e+02
  -8.623751e+02  -1.893149e+01
  -5.009459e+02  -5.841544e+02
   4.641264e+02  -5.385940e+02
   7.988221e+02   3.340792e+01
   3.858837e+02   5.097162e+02
  -2.453414e+02   6.299015e+02
  -6.248152e+02   1.920390e+02
  -4.476544e+02  -2.582786e+02
  -1.129756e+02  -5.358977e+02
   2.831893e+02  -3.546289e+02
   2.475356e+02   2.626068e+02
  -1.597414e+02   5.194107e+02
  -4.854107e+02   2.134950e+01
  -3.273045e+02  -7.186077e+02
   3.451656e+02  -7.254193e+02
   7.343426e+02   1.087441e+01
   2.686796e+02   5.905252e+02
  -3.493365e+02   3.851138e+02
  -4.624173e+02  -3.141665e+02
   9.258115e+01  -5.936516e+02
   5.865848e+02  -1.984481e+02
   6.477871e+02   4.335085e+02
   1.488390e+02   6.557388e+02
  -4.631614e+02   4.098107e+02
  -7.026362e+02  -4.889277e+01
  -4.477987e+02  -3.827774e+02
   1.312195e+02  -4.250079e+02
   5.342801e+02  -5.402864e+01
   3.015273e+02   2.190205e+02
  -1.175448e+02   2.080461e+02
  -1.909903e+02  -1.658117e+02
   1.468865e+02  -1.858851e+02
   3.905672e+02   5.581899e+01
   1.583116e+02   3.482005e+02
  -1.762528e+02   2.942565e+02
  -3.471073e+02   5.816816e+01
  -2.675032e+02  -8.204976e+01
   3.615628e+01  -2.511040e+02
   2.306854e+02  -3.085274e+02
   3.794439e+02  -2.154719e+02
   3.072207e+02   1.585366e+02
   1.150182e+02   4.916862e+02
  -1.184548e+02   4.537793e+02
  -1.452609e+02   1.408381e+02
  -1.200811e+01  -7.778368e+01
  -2.317540e+01   8.737745e+01
  -1.842149e+02   1.063807e+02
  -2.623304e+02  -4.548935e+01
  -1.789761e+02  -3.076585e+02
   5.311323e+01  -3.261232e+02
   2.433878e+02  -3.827286e+01
   2.635150e+02   2.673784e+02
   7.203993e+00   3.684519e+02
  -2.603199e+02   1.122052e+02
  -3.971716e+02  -1.991236e+02
  -1.983687e+02  -3.806161e+02
   1.343443e+02  -3.139585e+02
   2.819423e+02  -1.057500e+02
   1.436684e+02  -1.291230e+01
   1.196917e+02  -1.487742e+01
   2.240228e+02  -7.225740e+01
   3.626149e+02  -1.228822e+01
   3.496509e+02   2.709481e+02
   1.516182e+01   4.417919e+02
  -3.317578e+02   3.988814e+02
  -5.494718e+02   2.592378e+02
  -4.001584e+02  -1.443499e+02
  -3.037001e+01  -3.007721e+02
   1.653564e+02  -2.223515e+02
   8.892003e+01  -5.866876e+01
  -1.099731e+02   1.091524e+02
  -2.165515e+02  -2.240461e+01
  -4.843325e+01  -1.927580e+02
   1.562808e+02  -1.816930e+02
   1.977221e+02   7.731454e+01
   1.562327e+01   2.180351e+02
  -1.702507e+02   6.675097e+01
  -1.731360e+02  -2.062431e+02
   5.220666e+01  -3.433092e+02
   2.068008e+02  -2.578186e+02
   3.616043e+02   6.333813e+01
   2.935015e+02   2.920124e+02
   7.877640e+01   2.671009e+02
  -1.281019e+02   1.745035e+02
  -1.975228e+02   3.244719e+01
  -6.372814e+01  -3.758750e+01
   8.891740e+01   7.279348e+01
  -1.308002e+01   1.204621e+02
  -1.521270e+02   9.099541e+01
  -2.007853e+02  -2.555007e+00
  -1.123911e+02  -5.539243e+01
   7.492410e+01   3.529185e+00
   4.900422e+01   7.550661e+01
  -1.297035e+02   2.710903e+01
  -2.771250e+02  -1.660189e+01
  -2.792014e+02  -1.305615e+02
  -8.318900e+01  -2.652769e+02
   1.784072e+02  -1.998862e+02
   3.068904e+02  -1.262043e+02
   1.858401e+02   5.250360e+01
  -1.275333e+01   1.534407e+02
  -1.183367e+02   2.559749e+01
   1.069637e+01  -9.272055e+01
   1.922846e+02  -6.689984e+01
   2.180674e+02   7.842639e+01
   2.817941e+01   2.286454e+02
  -1.189669e+02   1.195203e+02
  -1.531322e+02   4.878348e+01
  -5.353979e+01  -7.496173e+01
   2.150877e+01   2.183476e+01
   6.273433e+01   9.841091e+01
  -7.084011e+01   8.212463e+01
  -1.925521e+02   4.834819e+01
  -2.088417e+02  -1.184194e+02
  -2.965484e+01  -2.404459e+02
   1.587173e+02  -1.744153e+02
   2.387427e+02  -1.726355e+01
   5.208567e+01   1.100733e+02
  -6.252197e+01   1.419921e+02
  -1.048774e+02   2.560071e+01
  -1.428630e+01  -3.420984e+01
   5.909917e+00   3.223320e-01
  -1.991024e+01  -1.883699e+01
  -6.248559e+01  -2.935739e+01
  -8.638303e+01  -9.520593e+01
  -2.300132e+01  -1.515337e+02
   9.369636e+01  -1.512967e+02
   2.268452e+02  -3.819526e+01
   2.379282e+02   1.643861e+02
   6.230242e+01   2.505403e+02
  -1.198652e+02   1.765089e+02
  -1.508771e+02   9.456825e+00
  -4.062585e+01  -9.807777e+01
  -1.897402e+01  -1.283878e+01
  -3.481079e+01   2.588951e+01
  -7.827286e+01   4.509584e+01
  -4.985575e+01  -1.252538e+01
   3.256268e+01  -7.955854e+01
   1.255957e+02  -2.711083e+01
   9.621523e+01   5.038596e+01
  -8.350834e+00   1.294602e+02
  -1.555309e+02   1.026939e+02
  -1.948771e+02  -3.275252e+01
  -7.652455e+01  -1.763599e+02
   1.001069e+02  -2.287310e+02
   2.639763e+02  -8.805227e+01
   2.517440e+02   9.460214e+01
   1.742209e+02   2.235491e+02
  -6.573970e+01   1.580462e+02
  -9.997346e+01   7.642363e+01
  -8.502428e+01   9.588821e+01
  -5.872608e+01   7.446891e+01
  -8.579658e+01   6.914339e+01
  -1.167308e+02  -2.184376e+01
  -1.316994e+02  -2.074226e+02
  -7.210993e+00  -2.186984e+02
   1.234752e+02  -2.022001e+02
   2.146446e+02  -2.602678e+00
   1.569269e+02   1.379436e+02
   3.911610e-01   1.646832e+02
  -1.012976e+02   6.918689e+01
  -6.331736e+01  -6.365733e+01
  -7.543856e+00  -6.282607e+00
  -1.006201e+01  -9.012446e+01
  -5.663230e+01  -1.751531e+01
  -6.355211e+01  -2.844958e+01
   1.128156e+01  -5.070748e+01
   8.640094e+01  -5.414208e+00
   1.520801e+02   3.246262e+01
   1.437951e+02   1.948977e+01
   2.312999e+00   9.246751e+01
  -9.610853e+01   7.112700e+01
  -1.280905e+02  -3.680268e+01
  -5.627798e+01  -2.404863e+01
   8.555295e+01  -3.922781e+01
   7.530208e+01   5.288534e+01
  -7.744998e+00   3.474848e+01
  -3.161885e+01   6.355878e+01
  -7.904318e+01  -1.093399e+01
  -2.866893e+01  -5.809328e+01
  -4.851149e+01  -5.548551e+01
  -1.342708e+02  -2.363855e+00
  -5.371324e+01  -1.503957e+01
  -2.505199e+01  -7.419357e+01
   2.567408e+00  -1.366630e+02
   1.130275e+02  -1.608815e+02
   1.715683e+02  -2.575404e+01
   1.349833e+02   1.014083e+02
  -9.262512e+00   1.156192e+02
  -1.218620e+02   6.324244e+01
  -6.267168e+01  -4.294559e+00
   8.014473e+01   8.311869e+00
   1.443153e+02   5.369707e+01
   7.291620e+01   1.012062e+02
  -8.606237e+01   1.339611e+02
  -1.581601e+02   3.669884e+01
  -1.862728e+02  -4.411126e+01
  -3.822608e+01  -5.786708e+01
   5.145533e+01  -5.974686e+01
   1.841579e+01   3.107359e-01
  -2.925316e+01   4.946329e+01
  -7.473857e+01  -5.043351e+01
  -1.374543e+01  -1.672353e+02
   1.143716e+02  -1.886911e+02
   1.817643e+02  -5.455920e+01
   1.378979e+02   1.247234e+02
   3.324199e+01   2.191946e+02
  -9.720348e+01   1.467406e+02
  -1.362062e+02  -1.779108e+01
  -9.375877e+01  -8.942240e+01
   2.463709e+01  -1.194602e+02
   3.231715e+01   6.894375e-01
   4.669408e+01   3.319914e+01
   2.906107e+01   2.440418e+01
  -1.981897e+01  -8.657146e+00
   3.733622e+01  -6.721502e+00
   6.143224e+01   1.253391e+02
   3.996231e+01   1.375407e+02
  -5.953632e+01   4.348762e+01
  -1.454488e+02  -4.850309e+01
  -1.213280e+02  -8.266227e+01
  -1.050791e+01  -7.266292e+01
   5.410970e+01   1.688219e+01
   1.029365e+02  -1.105902e+01
  -6.188067e+00   1.545982e+01
  -6.905767e+01   3.385529e+01
   1.179148e+01   2.547795e+01
   1.605657e+01   2.012223e+00
   1.215391e+01  -2.563069e+01
  -4.840055e+01  -1.281364e+01
  -1.057686e+02  -5.445328e+01
  -2.835232e+01  -1.079596e+02
   1.338966e+02  -1.175026e+02
   2.137770e+02  -8.539615e+01
   1.470900e+02   8.771252e+01
   6.751680e+01   1.767715e+02
  -9.061067e+01   1.686306e+02
  -1.171780e+02   2.268686e+01
  -9.063213e+01  -4.259111e+01
  -2.043202e+01  -6.210193e+01
   4.587234e+00  -2.237849e+00
  -3.747251e+01   1.992932e+01
  -4.601752e+01  -5.827251e+01
  -2.504980e+01  -9.692761e+01
  -2.005526e+01  -7.811905e+01
   7.337044e+01   1.328813e+01
   5.260830e+01   8.061412e+01
  -2.323149e+01   8.789393e+01
  -8.548401e+01   2.426685e+01
  -7.916075e+01  -8.255913e+01
  -3.473538e+01  -1.101704e+02
   5.566074e+01  -9.567969e+01
   7.676610e+01   1.674374e+01
   3.543866e+01   4.784949e+01
  -3.658487e+01   6.594830e+01
  -8.148073e+01   8.811055e+00
   4.146763e+01  -2.413986e+01
   8.408785e+01   9.562442e+00
   4.876448e+01   2.439362e+01
  -5.627119e+01   5.674978e+01
  -1.104938e+02   6.116308e+01
  -7.637020e+01  -3.698492e+01
   2.063919e+01  -1.033893e+02
   5.873159e+01  -6.638710e+01
   3.667307e+01   2.037997e+01
   2.360935e+01   1.467225e+01
  -8.170306e+01   3.034877e+01
  -7.417906e+01   1.660838e+01
  -2.153920e+01  -5.629492e+01
   1.295830e+01  -5.120317e+01
   4.938638e+01   2.550837e+00
   2.842294e+01   8.695746e+00
  -1.943642e+01  -7.680075e+00
   3.251732e+01  -1.206865e+01
  -2.326880e+01   3.501125e+01
  -3.048572e+01   4.292629e+01
   3.571767e+00   3.910023e+01
  -2.825238e+01   3.598612e+01
  -1.272630e+01  -2.998033e+01
   9.625127e+00  -6.448387e+01
   8.353242e+01  -4.848809e+01
   5.405133e+01   3.203474e+01
  -1.654099e+01   8.058467e+01
  -4.676992e+01   1.309835e+01
  -9.479359e+01  -7.302281e+00
  -3.357009e+01  -3.090530e+01
   2.952273e+01  -4.716791e+01
   5.174626e+01  -1.466966e+01
   3.325408e+01  -2.203779e+01
  -6.042755e+01  -2.192931e+01
  -3.715040e+01  -9.682271e+00
   1.762961e+01  -2.270379e+01
   1.138420e+02  -5.935395e+01
