
 $NMID
 id='ANONYMOUS ', fmtdat='(2E16.6)'
 volume=1.0
 tramp=1.0
 $END
   2.595938e+03   1.106720e+02
   1.566934e+03   1.306863e+03
  -2.660299e+02   1.402586e+03
  -1.112779e+03   4.492119e+02
  -6.736834e+02   3.964609e+01
   2.307461e+02  -1.563886e+02
   4.052640e+02   3.230199e+02
  -1.650527e+01   4.516876e+02
  -4.272326e+02   4.293391e+02
  -5.178035e+02  -3.716278e+01
  -2.862074e+02  -4.697392e+02
   5.415549e+00  -4.529275e+02
   3.073464e+02  -1.408949e+02
   1.360353e+02   3.220506e+02
  -1.419370e+02   4.553638e+02
  -3.273334e+02  -7.444157e-01
  -1.951551e+02  -3.593692e+02
   1.350004e+02  -3.913335e+02
   2.542548e+02  -1.780845e+02
   3.059883e+02   1.807336e+02
   8.435355e+01   2.599503e+02
  -1.356416e+02   1.864730e+02
  -3.329723e+01   7.765832e+01
   9.607550e+01   3.264748e+01
   2.050046e+02   1.547828e+02
  -2.053795e+01   2.917149e+02
  -3.034982e+02   8.418486e+01
  -5.307491e+02  -1.938850e+02
  -2.303813e+02  -2.801275e+02
   2.452109e+02  -1.572303e+02
   3.728890e+02   6.475670e+01
   1.877173e+02   2.953635e+02
  -2.038328e+02   2.878994e+02
  -3.741017e+02   1.319068e+02
  -2.586089e+02  -1.161957e+02
  -6.725767e+01  -2.569068e+02
   3.796160e+01  -1.268884e+02
  -2.501215e+01   1.319190e+02
  -1.749679e+02   1.522940e+02
  -1.921937e+02  -6.752728e+01
  -2.544822e+01  -4.100722e+02
   2.084016e+02  -4.148194e+02
   2.957390e+02  -3.339696e+01
   6.821315e+01   2.578933e+02
  -9.014999e+01   1.504372e+02
  -1.574196e+02  -2.658559e+02
   9.283459e+01  -2.751604e+02
   3.053751e+02  -3.245531e+01
   4.127211e+02   2.976794e+02
   1.098424e+02   4.222077e+02
  -2.627527e+02   1.920770e+02
  -4.114342e+02  -7.557400e+01
  -2.424288e+02  -2.059609e+02
   5.551776e+01  -2.319109e+02
   2.548182e+02  -3.946624e+01
   1.917834e+02   4.462051e+01
  -6.200758e+00   3.757262e+01
  -3.988307e+01  -7.999877e+01
   7.248814e+01  -1.000777e+02
   2.334632e+02   2.519430e+01
   1.104349e+02   1.944460e+02
  -1.498853e+02   1.707002e+02
  -2.655705e+02   6.943982e+01
  -1.756448e+02  -8.948154e+01
   3.131183e+00  -2.242019e+02
   2.423897e+02  -2.279567e+02
   2.558594e+02  -1.472237e+02
   1.531686e+02   1.298705e+02
   4.518333e+01   2.866797e+02
  -3.211911e+01   2.290653e+02
   3.790524e+01   1.614848e+02
   1.392514e+01   3.347899e+01
  -7.600148e+01   6.771249e+01
  -1.872340e+02   7.101319e+01
  -1.511727e+02  -5.028801e+01
  -8.734160e+01  -2.182350e+02
   4.095820e+01  -1.445990e+02
   1.251423e+02   5.097824e+01
   8.903421e+01   1.800347e+02
  -1.222120e+01   1.838449e+02
  -2.208935e+02   7.572353e+01
  -2.072532e+02  -1.847155e+02
  -1.308332e+02  -1.783688e+02
   5.373264e+01  -2.008743e+02
   7.475758e+01  -1.189600e+02
   1.306435e+02  -4.950931e+01
   8.708413e+01  -1.952994e+01
   1.688155e+02   1.353433e+00
   3.369138e+02   7.831658e+01
   2.137351e+02   2.226385e+02
   9.928148e+00   3.712869e+02
  -2.846101e+02   2.902965e+02
  -3.883530e+02   1.486332e+02
  -1.975845e+02  -5.511194e+01
  -2.624077e+01  -2.103564e+02
   9.236491e+01  -1.555698e+02
  -1.428700e+01  -2.548092e+01
  -9.148350e+01   2.282710e+01
  -1.334456e+02   5.953219e+00
   3.869927e+01  -1.034617e+02
   1.007817e+02  -1.020106e+02
   7.430318e+01   2.862254e+01
  -2.350271e+01   9.145678e+01
  -1.205478e+02  -1.353974e+01
  -1.021187e+02  -1.782892e+02
   7.154036e+01  -2.830687e+02
   2.100783e+02  -1.615396e+02
   2.729954e+02   6.525334e+01
   1.671764e+02   1.923913e+02
   1.448986e+01   1.650528e+02
  -1.107255e+02   6.928358e+01
  -1.241044e+02   6.199362e+00
   4.176319e+00  -1.775695e+00
   5.729587e+01   4.044302e+01
  -5.119848e+00   1.203405e+02
  -1.222174e+02   2.779654e+01
  -1.208104e+02  -2.081270e+00
  -4.871699e+01  -6.307983e+01
   5.681959e+01   4.513612e+01
   1.286936e+01   3.459820e+01
  -1.567013e+02   3.580651e+01
  -2.200037e+02  -2.805044e+00
  -2.209345e+02  -1.611093e+02
  -6.738817e+01  -2.135394e+02
   1.868566e+02  -1.891330e+02
   2.467253e+02  -7.507669e+01
   1.054850e+02   2.372986e+00
  -1.827536e+01   8.299471e+01
  -5.837002e+01   1.314464e+01
   4.941613e+01  -6.478355e+01
   1.335538e+02   5.842802e+00
   1.268315e+02   1.219926e+02
   3.675771e+01   1.274179e+02
  -1.007928e+02   1.157893e+02
  -9.518487e+01  -1.955721e+01
  -5.288841e+01  -1.012782e+01
   3.148125e+01   2.953347e+00
   2.853349e+01   1.031806e+02
  -6.550560e+01   9.653478e+01
  -1.682111e+02  -4.632963e+00
  -1.580092e+02  -1.193490e+02
   2.445086e+01  -1.506684e+02
   1.526540e+02  -7.226146e+01
   1.444027e+02  -2.378409e+01
   2.662675e+01   8.361281e+01
  -5.633584e+01   7.010724e+01
  -7.660557e+01   3.813125e+01
  -7.383230e-01  -8.510036e+00
   3.844599e+01  -3.114420e+00
  -1.897269e+01  -5.805698e+00
  -5.550633e+01   1.861574e+01
  -7.787610e+01  -1.420377e+01
  -2.359554e+01  -1.044867e+02
   8.550752e+01  -5.807621e+01
   1.753309e+02  -7.233480e+00
   1.707133e+02   1.153261e+02
   5.979978e+01   1.204218e+02
  -9.066159e+01   1.105458e+02
  -7.518662e+01   1.292854e+01
  -6.765884e+01  -5.344052e+01
   8.104686e+00  -2.220100e+01
  -8.894788e+00   2.734132e+01
  -3.911069e+01  -1.703168e+01
  -3.981308e+01  -1.890127e+01
   2.626302e+01  -8.195229e+01
   8.433897e+01  -4.345993e+01
   1.089437e+02   5.767791e+01
  -1.274580e+01   3.840459e+01
  -1.387988e+02   9.138480e+01
  -1.619008e+02  -5.893470e+01
  -7.837917e+01  -1.414034e+02
   7.669422e+01  -1.361588e+02
   1.822216e+02  -8.051508e+01
   1.580693e+02   7.006927e+01
   7.103317e+01   7.246729e+01
  -3.348686e+01   7.758030e+01
  -1.052510e+02   5.882382e+01
  -6.621839e+01   8.513009e+01
  -2.627858e+01   5.777384e+01
  -8.578444e+01  -5.975307e+00
  -7.120293e+01  -6.009045e+00
  -1.166321e+02  -1.640809e+02
   1.290708e+01  -1.532751e+02
   6.472657e+01  -8.623666e+01
   9.412385e+01  -5.478759e+01
   6.692806e+01   4.608047e+01
  -1.474580e+01   1.114621e+02
  -6.308290e+01   5.513805e+01
  -6.683053e+01   1.779657e+01
   1.816838e+01  -2.881775e+01
   3.171989e+01  -9.156317e+00
   2.260497e+00   3.083372e+01
  -2.852053e+01   1.959550e+00
  -1.471882e+00  -2.514357e+01
   5.862068e+01  -6.750189e+00
   1.030597e+02  -2.554695e+01
   1.122164e+02   2.088955e+01
   3.677500e+01   5.310769e+01
  -1.005484e+02   4.543652e+01
  -1.103863e+02  -2.479855e+01
  -2.404125e+00  -3.644934e+01
   6.235935e+01  -2.186219e+01
   4.065519e+01   6.257520e+00
   1.566587e+01   7.634791e+01
  -7.973794e+01   5.082814e+01
  -3.657737e+01  -1.651387e+01
  -2.504223e+01  -3.638430e+01
  -2.416467e+01  -3.973510e+01
  -3.984998e+01   1.892161e+01
  -3.105624e+01  -3.212995e+01
  -6.237872e+01  -4.180206e+01
   4.321552e+01  -9.083913e+01
   7.353573e+01  -8.067349e+01
   1.226269e+02  -1.576849e+01
   1.006033e+02   6.893649e+01
  -1.250759e+01   1.237774e+02
  -3.711532e+01   4.115211e+01
  -8.795143e+01  -2.622539e+01
   4.730021e+01  -8.225622e+00
   1.098148e+02   2.746368e+01
   3.347956e+01   8.117654e+01
  -3.970739e+01   7.313565e+01
  -1.329927e+02   2.269982e+01
  -1.412209e+02  -2.457290e+01
   9.103690e+00  -6.289017e+01
   2.439622e+01   9.123230e+00
   4.150709e+01  -1.645641e+01
  -9.137001e+01   7.835578e+00
  -4.452418e+01  -2.825173e+01
   2.644698e+00  -9.958156e+01
   6.619547e+01  -8.941065e+01
   1.263203e+02  -2.010810e+01
   1.262435e+02   5.425994e+01
   1.211227e+01   1.373573e+02
  -8.553238e+01   8.781449e+01
  -6.632714e+01  -3.932091e+00
  -2.108804e+01  -1.353276e+02
  -1.600503e+01  -6.153386e+01
   3.312598e+01  -2.670051e+01
   2.350099e+01  -1.125131e+01
   2.393899e+01   1.919745e+01
   2.070038e+01   2.571275e+00
   4.369189e+01  -1.307936e+01
   3.800527e+01   4.072052e+01
  -3.148358e+01   8.083928e+01
  -2.859784e+01   2.586786e+01
  -1.457062e+02  -5.712317e+01
  -8.146799e+01  -1.423699e+01
   1.831683e+00  -2.763620e+01
   5.388253e+01  -1.295650e+01
   6.609282e+01  -3.657016e+01
  -1.714001e+00  -2.106078e+00
  -9.737770e+00   3.225364e+01
  -1.720267e+01   2.848306e+01
  -3.896290e+00   3.503093e+00
  -1.910845e+01  -5.700183e+00
  -6.472212e+01  -2.830975e+01
  -5.904239e+01  -6.564056e+01
  -3.725112e+01  -5.228437e+01
   1.083386e+02  -9.518234e+01
   1.058964e+02  -5.029448e+01
   1.419600e+02   4.697798e+01
   4.138211e+01   7.848331e+01
  -7.164507e+01   9.818878e+01
  -7.844291e+01   9.634720e+00
  -3.422436e+01  -9.330425e+00
  -1.760137e+01  -5.354396e+01
  -1.943598e+00   1.677451e+01
   5.634756e+01  -2.873269e+01
  -9.964691e+00  -7.905777e+00
  -1.001530e+01  -6.115529e+01
   1.418729e+01  -6.578793e+01
   9.084604e+01   4.871514e+01
   6.887883e+01   5.611110e+01
   1.844984e+01   8.473752e+01
  -2.985350e+01   1.513295e+01
  -7.572627e+01  -5.454724e+01
  -2.567133e+01  -6.985046e+01
   6.329167e+01  -3.759730e+01
   6.708325e+01  -2.544198e+00
   6.758842e+01   4.501224e+01
  -2.299779e+01   3.645141e+01
  -5.458772e+01   1.225999e+01
   1.007009e+01   1.534934e+01
   5.278572e+01   1.134831e+01
  -2.558588e+00  -8.971394e+00
  -7.999421e+01   4.861699e+01
  -1.151763e+02   3.850836e+01
  -3.888367e+01  -1.540790e+01
   1.127504e+01  -1.093523e+02
   5.420437e+01  -4.339467e+01
   2.805822e+01  -2.729908e+00
   1.076108e+01   2.411925e+01
  -2.062477e+01   7.079846e+01
  -1.214126e+01  -7.768667e+00
   1.620070e+01  -1.307432e+01
  -2.297361e+01  -3.617137e+01
   1.761295e+00   1.433761e+01
   4.241108e+01   7.253228e+01
   3.044955e+01   6.458556e+00
  -2.849336e+00  -6.519424e+01
   1.204055e+01   1.904788e+00
   1.672028e+01   2.689531e+01
   8.002816e+00   7.194781e+01
  -1.781136e+01   1.473994e+01
  -3.585206e+01  -2.206166e+01
  -6.632265e-01  -3.651219e+01
   6.845342e+01   6.597285e-01
   5.036056e+01  -7.931169e+00
  -5.415891e+00   7.487453e+01
  -4.726147e+01   8.045808e+01
  -5.999347e+01  -2.977773e+01
  -6.769475e+01  -4.223098e+01
   2.874877e+01  -5.955318e+01
   5.743671e+01  -3.976421e+00
   1.881218e+01  -1.233761e+01
  -4.609799e+01  -2.314311e+01
   8.762110e-01  -3.604874e+01
  -8.322661e+00  -6.891140e+00
   2.112192e+01  -3.977780e+01
