
 $NMID
 id='ANONYMOUS ', fmtdat='(2E16.6)'
 volume=1.0
 tramp=1.0
 $END
  -4.315681e+03  -5.571831e+01
  -2.513162e+03  -2.556414e+03
   4.502422e+02  -2.755170e+03
   2.173447e+03  -8.211467e+02
   1.073997e+03   6.470107e+02
  -4.747262e+02   7.486343e+02
  -9.909034e+02  -3.445467e+02
  -1.691791e+01  -1.070182e+03
   9.137952e+02  -8.047466e+02
   9.677457e+02   4.547408e+01
   5.069941e+02   8.830266e+02
  -2.824540e+02   9.332218e+02
  -6.806614e+02   7.056466e+01
  -4.122281e+02  -7.069298e+02
   3.356247e+02  -7.924977e+02
   6.238639e+02   7.840737e+00
   3.260464e+02   7.519816e+02
  -3.420625e+02   7.130818e+02
  -6.628507e+02   1.935914e+02
  -4.403066e+02  -4.239321e+02
  -1.939371e+01  -4.620382e+02
   2.512549e+02  -2.797119e+02
   2.246020e+02   2.101860e+00
  -1.184636e+02   3.594523e+01
  -4.378257e+02  -1.386575e+02
  -1.685446e+02  -4.034871e+02
   4.514090e+02  -3.831149e+02
   8.125726e+02   9.532536e+01
   4.578649e+02   5.476732e+02
  -3.972756e+02   4.837822e+02
  -6.933529e+02  -4.413128e+01
  -3.621293e+02  -5.163313e+02
   3.027848e+02  -5.507181e+02
   5.728657e+02  -2.459609e+02
   4.293365e+02   2.335182e+02
   8.980985e+01   4.717557e+02
  -1.970369e+02   3.339235e+02
  -1.476821e+02  -2.242380e+02
   1.811430e+02  -4.347915e+02
   4.193629e+02   1.840698e+01
   1.993016e+02   7.288037e+02
  -3.358097e+02   6.634643e+02
  -5.349644e+02  -2.204293e+00
  -2.978507e+02  -5.276865e+02
   2.487269e+02  -3.703007e+02
   3.662138e+02   2.473962e+02
  -3.102680e+01   5.126133e+02
  -5.241899e+02   8.858411e+01
  -5.283470e+02  -4.067344e+02
  -1.920292e+02  -5.623622e+02
   3.938298e+02  -3.888496e+02
   6.203709e+02   1.612731e+01
   4.154111e+02   3.990675e+02
  -9.877216e+01   4.268667e+02
  -4.333994e+02   1.004899e+02
  -2.489901e+02  -1.557675e+02
   8.533358e+01  -1.120103e+02
   1.848227e+02   8.607536e+01
  -1.114131e+02   1.777575e+02
  -3.444753e+02  -5.289012e+01
  -1.420673e+02  -3.160947e+02
   2.050304e+02  -2.902190e+02
   3.727007e+02  -9.076067e+01
   2.098960e+02   6.520199e+01
  -6.381164e+01   2.699280e+02
  -2.331713e+02   3.352093e+02
  -3.436188e+02   2.143180e+02
  -2.977928e+02  -1.560687e+02
  -6.020262e+01  -4.348061e+02
   1.517978e+02  -3.660657e+02
   1.108900e+02  -1.010541e+02
   5.162729e+01  -1.326351e+00
   7.971553e+01  -8.882481e+01
   2.086579e+02  -1.166875e+02
   2.621829e+02   8.836333e+01
   1.493869e+02   2.814198e+02
  -8.948134e+01   2.676152e+02
  -2.587699e+02   2.413064e+01
  -1.895500e+02  -2.227163e+02
   3.779816e+01  -2.745873e+02
   3.069433e+02  -7.635916e+01
   3.582223e+02   1.966726e+02
   1.521689e+02   3.694036e+02
  -6.741084e+01   3.310209e+02
  -2.350083e+02   1.037629e+02
  -1.630837e+02  -1.617798e+01
  -1.150598e+02   3.529079e+01
  -2.098646e+02   9.289466e+01
  -4.192573e+02  -2.766683e+01
  -3.230946e+02  -2.831960e+02
   2.573713e+01  -4.710285e+02
   3.497828e+02  -3.972768e+02
   5.159698e+02  -1.966891e+02
   3.633054e+02   1.106398e+02
   3.086992e+01   3.057708e+02
  -1.345884e+02   2.717885e+02
  -3.357290e+01   4.568779e+01
   7.949221e+01  -1.149120e+02
   2.358768e+02   1.182247e+01
   7.605413e+01   1.645198e+02
  -1.714506e+02   1.668197e+02
  -1.484757e+02  -8.905706e+01
   1.359507e+01  -9.039763e+01
   2.150656e+02  -2.849844e+00
   1.461970e+02   2.378820e+02
  -1.835327e+01   3.906723e+02
  -2.265058e+02   2.470737e+02
  -3.086358e+02  -3.855520e+01
  -2.787263e+02  -2.903488e+02
  -1.103896e+02  -2.871344e+02
   1.511290e+02  -1.572196e+02
   2.013687e+02  -3.209188e+01
   4.392965e+01   1.909138e+01
  -8.872643e+01  -6.705132e+01
  -8.443686e+00  -1.641964e+02
   1.353393e+02  -7.738299e+01
   1.802708e+02   3.309381e+01
   7.012276e+01   8.127937e+01
  -6.701559e+01   3.817050e+01
  -4.812937e+01  -6.529345e+01
   1.040573e+02  -8.537246e+01
   2.888852e+02  -1.058110e+00
   2.255769e+02   1.690026e+02
   5.308076e+01   2.506898e+02
  -2.016465e+02   2.512992e+02
  -2.695357e+02   1.336839e+02
  -2.038029e+02  -6.006785e+01
   2.169052e+01  -9.845738e+01
   1.159604e+02   1.340345e+00
  -2.915161e+01   9.271461e+01
  -2.452175e+02   6.140010e+01
  -1.776915e+02  -1.022227e+02
  -5.992344e+01  -2.101978e+02
   9.643019e+01  -1.488799e+02
   1.403000e+02  -5.997877e+01
   2.803568e+01   6.997114e+01
  -5.219897e+01   7.462723e+00
  -8.276373e+01  -8.524682e+01
   4.613186e+01  -1.251454e+02
   2.172344e+02   1.923484e+01
   1.845225e+02   1.358331e+02
   1.561223e+01   2.394996e+02
  -1.680001e+02   2.038093e+02
  -2.585071e+02   6.172867e+01
  -4.918157e+01  -1.249363e+02
   7.719924e+01  -1.139067e+02
   6.847523e+01  -2.946001e+01
  -2.489014e+00  -8.668304e-01
  -3.381755e+01   1.815905e+01
   8.953191e+00   2.075888e+00
   7.425044e+01   2.581152e+00
   8.062387e+01   8.247173e+01
  -3.611234e+01   1.368290e+02
  -1.806674e+02   1.245376e+02
  -2.358162e+02   4.249482e+01
  -2.165855e+02  -1.253290e+02
  -2.590073e+01  -2.484329e+02
   8.368419e+01  -1.593992e+02
   1.196738e+02  -4.003347e+01
   6.414289e+01   6.069813e+01
   3.016508e+01   2.139560e+01
   7.136768e+01  -2.832529e+01
   5.481454e+01  -2.913672e+01
   4.388076e+01   6.069895e+01
  -3.587231e+01   6.369042e+01
  -7.497380e+01   3.044002e+01
  -9.718821e+01  -6.216332e+01
   5.262898e+00  -1.145384e+02
   1.294687e+02  -8.566240e+01
   1.857959e+02   4.962780e+01
   1.299288e+02   1.958345e+02
  -8.276054e+01   2.059812e+02
  -2.224462e+02   1.586684e+02
  -2.674608e+02  -6.237546e+01
  -1.168016e+02  -1.717949e+02
   1.578486e+01  -1.929229e+02
   9.113234e+01  -9.647347e+01
   3.663974e+01  -8.829714e+01
   8.651060e+01  -1.393378e+02
   1.046912e+02  -2.151687e+01
   1.727476e+02   2.359213e+01
   1.463813e+02   1.390019e+02
   7.490226e+00   1.806957e+02
  -1.158261e+02   1.616261e+02
  -2.277594e+02  -9.696784e+00
  -1.600677e+02  -1.364593e+02
  -1.827078e+01  -1.555657e+02
   3.560161e+01  -9.306346e+01
   7.417071e+01   8.841697e+00
   4.058542e+01   2.047627e+01
  -9.626343e+00   1.233977e+01
   2.395647e+01  -4.366593e-01
   8.068243e+01   1.053483e+01
   1.123607e+01   2.923652e+01
  -9.071171e+01   9.256621e+00
  -1.858885e+02   9.002542e-01
  -1.425352e+02  -1.314136e+01
   3.445989e+00  -9.207890e+01
   1.277866e+02  -6.481384e+01
   1.517993e+02   1.221625e+01
   1.494319e+01   4.729203e+01
  -1.055349e+02   5.972015e+01
  -6.143385e+01  -6.056607e-01
   3.292266e+01  -9.131020e+01
   6.499835e+01  -5.359958e+01
   5.752413e+01   4.290974e+00
   3.770669e+01   6.823458e+01
   4.876092e+01   6.706585e+01
   5.505827e+01  -5.088667e+01
   9.805038e+01  -7.421237e+00
   6.376007e+01   1.231616e+02
  -4.058133e+01   1.615315e+02
  -1.318527e+02   1.322210e+02
  -1.880793e+02   1.763970e+01
  -1.377884e+02  -1.237643e+02
  -1.351544e+01  -1.129259e+02
   9.520701e+01  -3.416133e+01
   4.886752e+01   6.738815e+00
  -4.681864e+01   3.671656e+01
  -1.305655e+02  -3.971153e+01
  -9.771650e+01  -9.747810e+01
   1.033732e+02  -7.980541e+01
   1.885196e+02  -4.321292e+01
   1.552227e+02   3.014765e+01
   2.435177e+01   6.261679e+01
  -9.780184e+01   6.494321e+01
  -5.635402e+01  -3.425946e+01
   6.022892e+01  -1.086706e+01
   1.078843e+02   1.190437e+01
   4.721852e+01   1.028789e+02
  -7.119226e+01   1.435897e+02
  -1.314614e+02   4.205639e+01
  -1.542007e+02  -1.063595e+02
  -3.910894e-01  -1.934309e+02
   1.180487e+02  -1.392739e+02
   1.019621e+02   1.453477e+01
   7.191062e+01   1.280475e+02
  -4.339937e+01   9.796544e+01
  -2.215038e+01   2.683883e+01
  -2.715314e+01  -3.312458e+01
  -4.988600e+01  -2.971162e+01
  -2.951002e+00   1.234994e+01
  -1.113914e+01  -3.566410e+01
  -2.458852e+01  -6.816375e+01
  -4.771269e+01  -1.189049e+02
   6.767657e+01  -9.673948e+01
   1.679295e+02   3.348459e+00
   1.063716e+02   8.659300e+01
   1.043790e+01   8.141313e+01
  -1.027146e+02   5.142975e+01
  -8.932346e+01   2.517434e+01
  -5.239286e+01  -1.578877e+01
   1.905010e+01  -7.132962e+00
   3.978889e+01  -3.984967e+01
  -3.369136e+01   1.118583e+01
   7.657221e+00   1.457123e+01
   1.035337e+02   3.324986e+01
   6.640719e+01   5.233377e+01
   9.490619e-03   1.029033e+02
  -1.226937e+02   1.343336e+02
  -1.957946e+02   3.342865e+01
  -1.408965e+02  -3.828083e+01
  -1.159799e+01  -1.581909e+02
   4.028203e+01  -1.014401e+02
   1.187559e+02  -3.192005e+01
   7.113799e+01  -5.312976e+00
   5.730474e+01   4.112123e+01
   6.753187e-01   1.158588e+01
   2.393135e+01  -7.525599e+00
   3.621158e+01   4.141291e+01
   2.132729e+01   1.056550e+02
  -3.572314e+01   7.464771e+01
  -5.564323e+01  -2.618941e+01
  -1.328437e+02  -1.059035e+02
  -2.147759e+01  -8.733519e+01
   6.866913e+01  -2.221536e+01
   1.460153e+02   9.520506e+01
   1.663926e+01   1.091430e+02
  -6.565369e+01   7.509442e+01
  -1.046812e+02  -4.390249e+01
  -2.721701e+01  -4.639741e+01
   2.194794e+01  -4.112457e+01
   5.625623e+01  -4.140554e+01
   7.803827e-01   3.559191e+01
  -4.639840e+01   4.350445e+00
  -3.810915e+01  -4.822687e+01
   5.101736e+01  -6.063305e+01
   1.299852e+02  -4.398669e+01
   9.544816e+01   1.382975e+01
   1.873259e+01   8.941805e+01
  -4.417856e+01   8.441747e+01
  -6.025024e+01   5.832690e+01
  -7.198597e+00  -7.887266e+01
   2.520769e+01  -5.777776e+01
   3.201311e+01   3.447025e+01
   3.705713e+01   4.916059e+01
  -5.898930e+01   3.528743e+01
  -3.253460e+01   1.557639e+01
  -4.136640e+01  -1.440794e+01
   2.642663e+01  -2.359598e+01
  -6.097601e+01   3.644119e+01
  -4.475517e+01   1.122175e+01
  -3.372410e+01  -3.156604e+01
   5.415575e+00  -7.824236e+01
   6.252309e+01  -1.037787e+01
   5.501301e+01   2.375762e+01
   4.087518e+01   1.018296e+02
  -8.601711e+00   7.206318e+01
  -3.971313e+01  -4.508671e+01
  -1.903385e+01  -7.431180e+01
   4.169473e+00  -3.691154e+01
   1.001132e+02   2.089460e+01
   6.165706e+01   5.619841e+01
  -3.890505e+01   5.127251e+01
  -9.770426e+01  -1.586594e+01
  -2.094874e+01  -6.774008e+00
   6.770810e+01   1.816181e+01
   5.084181e+01   3.375446e+01
  -2.130512e+01   1.682091e+01
  -1.075321e+02  -1.936876e+00
