
 $NMID
 id='ANONYMOUS ', fmtdat='(2E16.6)'
 volume=1.0
 tramp=1.0
 $END
   4.504609e+03  -3.834323e+02
   2.763124e+03   2.434736e+03
  -4.118477e+02   3.009880e+03
  -2.037428e+03   9.982120e+02
  -9.871055e+02  -6.780563e+02
   6.049908e+02  -7.165210e+02
   1.039137e+03   2.898571e+02
   1.090893e+02   1.150871e+03
  -8.669425e+02   9.361956e+02
  -1.045039e+03  -1.294393e+02
  -5.392465e+02  -8.069875e+02
   2.616773e+02  -9.407129e+02
   7.032129e+02  -1.055512e+02
   3.908894e+02   7.496177e+02
  -2.737010e+02   8.167187e+02
  -6.170896e+02   6.310769e+01
  -3.497404e+02  -7.443290e+02
   2.911701e+02  -6.822065e+02
   6.365600e+02  -9.620045e+01
   4.529846e+02   3.752506e+02
   8.766308e+01   4.183827e+02
  -2.300096e+02   2.760842e+02
  -2.189642e+02  -1.658076e+01
   1.516388e+02  -1.068764e+02
   4.242893e+02   1.152668e+02
   2.169813e+02   4.900297e+02
  -5.132044e+02   4.679960e+02
  -9.129503e+02  -8.699018e+01
  -5.147160e+02  -5.756013e+02
   4.159054e+02  -5.210071e+02
   7.770166e+02   2.703173e+01
   3.933973e+02   4.873519e+02
  -2.772338e+02   5.560563e+02
  -6.247598e+02   2.371407e+02
  -3.960371e+02  -2.595595e+02
  -1.260951e+02  -4.979232e+02
   1.946215e+02  -2.669559e+02
   1.424803e+02   2.317401e+02
  -1.777208e+02   4.653613e+02
  -4.372559e+02  -2.829255e+01
  -2.564823e+02  -6.774097e+02
   3.178181e+02  -7.594855e+02
   6.476892e+02  -3.148147e+01
   3.391321e+02   5.980492e+02
  -2.945368e+02   3.636834e+02
  -4.638640e+02  -3.357010e+02
   9.106798e+01  -5.331919e+02
   5.861655e+02  -1.819864e+02
   6.208187e+02   3.860636e+02
   2.478469e+02   5.846180e+02
  -4.079685e+02   3.849169e+02
  -6.635809e+02  -8.222569e+01
  -4.169462e+02  -3.634547e+02
   1.410950e+02  -3.408713e+02
   4.732785e+02  -7.206714e+01
   3.111358e+02   2.154677e+02
  -9.108968e+01   1.410009e+02
  -1.746390e+02  -1.621437e+02
   1.833300e+02  -2.319438e+02
   3.622177e+02   6.356615e+01
   1.842804e+02   2.972241e+02
  -2.074239e+02   2.990622e+02
  -3.500186e+02   8.940093e+01
  -2.451702e+02  -6.297962e+01
   3.967175e+01  -2.666744e+02
   2.058137e+02  -2.977227e+02
   2.983036e+02  -2.825619e+02
   2.892427e+02   1.091856e+02
   1.399262e+02   4.469790e+02
  -7.273985e+01   3.914072e+02
  -9.563195e+01   1.449076e+02
  -8.709693e-01   6.716101e+00
  -8.492174e+01   7.806852e+01
  -2.318336e+02   1.299047e+02
  -3.113379e+02  -7.413892e+01
  -1.833727e+02  -2.554681e+02
   4.796985e+01  -2.438207e+02
   2.252935e+02  -2.624158e+01
   2.101349e+02   2.717864e+02
  -1.909305e+00   3.305997e+02
  -2.809014e+02   1.339523e+02
  -3.886205e+02  -1.320204e+02
  -2.135853e+02  -3.094542e+02
   1.021760e+02  -2.931145e+02
   2.193499e+02  -1.445679e+02
   1.616820e+02  -6.679913e+00
   1.277864e+02  -6.220557e+01
   2.588458e+02  -8.713535e+01
   4.223482e+02  -1.096798e+01
   3.494205e+02   2.359269e+02
   2.588256e+01   4.102488e+02
  -3.871946e+02   4.160068e+02
  -4.804339e+02   2.847758e+02
  -3.565002e+02  -1.428202e+02
  -8.799764e+01  -3.187645e+02
   1.035366e+02  -2.501031e+02
   5.802618e+01  -3.292573e+01
  -7.230781e+01   1.213112e+02
  -1.724694e+02   4.194402e+01
  -4.799051e+01  -2.232414e+02
   1.383646e+02  -1.608315e+02
   1.722531e+02   6.502941e+01
   1.047535e+01   2.489323e+02
  -1.900148e+02   7.120741e+01
  -1.585489e+02  -2.531340e+02
   1.756379e+01  -3.595669e+02
   1.954035e+02  -2.326287e+02
   3.388109e+02   1.490955e+01
   2.528255e+02   2.306685e+02
   1.431648e+02   3.098201e+02
  -1.059504e+02   1.577195e+02
  -1.776591e+02   4.710491e+01
  -5.348148e+01  -1.043951e+01
   7.771585e+01   3.901956e+00
   1.111402e+01   1.194148e+02
  -1.462344e+02   8.551314e+01
  -1.950240e+02   1.908181e+01
  -4.458718e+01  -6.792385e+01
   9.061639e+01  -1.052133e+01
   7.922273e+01   7.041938e+01
  -1.380518e+02   4.027970e+01
  -2.854919e+02  -1.423158e+00
  -2.686426e+02  -1.279413e+02
  -5.638993e+01  -2.306043e+02
   1.584152e+02  -2.559169e+02
   2.404003e+02  -1.803450e+02
   2.053917e+02   4.391622e+01
  -1.077518e+01   1.252605e+02
  -1.110903e+02  -1.712280e+01
   9.368552e+00  -9.708042e+01
   1.700488e+02  -9.003265e+01
   2.382927e+02   1.032747e+02
   7.648349e+01   2.188184e+02
  -9.645851e+01   1.832124e+02
  -1.539843e+02  -1.240703e+01
  -1.343012e+02  -2.679768e+01
   2.006565e+01   7.641199e+00
   1.890898e+01   6.944132e+01
  -7.372099e+01   1.343798e+02
  -2.191425e+02   4.249919e-02
  -2.022046e+02  -1.370808e+02
  -5.283109e+01  -2.217298e+02
   1.719422e+02  -1.717129e+02
   1.952519e+02  -1.099198e+01
   9.608339e+01   1.158772e+02
  -4.733026e+01   1.241396e+02
  -6.731986e+01   4.262880e+01
   1.908792e+01  -2.431990e+01
   5.289632e+01  -9.247825e+00
  -2.487422e+01   2.221544e+01
  -8.245644e+01  -1.771106e+01
  -1.223069e+02  -9.651055e+01
  -7.568280e+00  -1.592581e+02
   1.303070e+02  -1.963876e+02
   2.634929e+02  -1.360334e+01
   2.306398e+02   1.590885e+02
   3.159430e+01   2.537120e+02
  -1.247795e+02   1.695611e+02
  -1.838021e+02   3.461159e+01
  -7.848264e+01  -4.255703e+01
  -1.235316e+01   1.655262e+01
  -3.608927e+01   2.459368e+01
  -9.128131e+01  -2.437788e+01
  -5.270774e+01  -2.338358e+01
   3.713137e+01  -1.499974e+02
   1.218048e+02  -4.191046e+01
   7.739367e+01   5.554811e+01
   6.262125e+00   1.118319e+02
  -1.425591e+02   1.123904e+02
  -1.992204e+02  -2.636457e+01
  -1.237335e+02  -2.163798e+02
   9.805567e+01  -2.510634e+02
   2.580882e+02  -1.196072e+02
   2.293873e+02   8.286034e+01
   1.408825e+02   1.660268e+02
  -8.470701e+01   1.241224e+02
  -9.613549e+01   1.141608e+02
  -5.804240e+01   9.562407e+01
  -2.965393e+01   1.160569e+02
  -6.034885e+01   1.304553e+02
  -1.435343e+02   1.233346e+01
  -1.324252e+02  -1.530376e+02
  -8.570901e+01  -2.171713e+02
   1.254179e+02  -1.530377e+02
   1.894385e+02  -1.521277e+01
   1.520219e+02   1.535573e+02
   3.137559e+01   1.576964e+02
  -8.115958e+01   1.033045e+02
  -9.034272e+01   2.354158e+00
   5.796409e+00  -1.239443e+01
  -1.071471e+01  -3.357455e+01
   5.787297e-01  -2.319886e+01
  -6.230824e+01  -1.436234e+01
  -3.269774e+01  -2.810300e+01
   5.014334e+01  -5.557371e+01
   1.617268e+02   4.169335e+00
   1.437272e+02   4.832648e+01
  -2.908650e+01   1.017457e+02
  -8.584547e+01   7.127007e+01
  -1.674471e+02   3.093988e+00
  -4.475297e+01  -4.847787e+01
   8.197577e+01  -3.427553e+01
   8.023274e+01   7.044871e+01
   3.764230e+01   3.708008e+01
  -3.457226e+01   1.106231e+02
  -7.020531e+01   2.689398e+01
  -6.362607e+01  -3.622729e+01
  -7.547201e+01  -1.057137e+01
  -9.658030e+01   4.700074e+01
  -1.022423e+02   3.615047e-01
  -6.232304e+01  -8.459927e+01
   6.604338e+00  -1.770000e+02
   1.262124e+02  -1.489882e+02
   1.505836e+02  -5.409118e+01
   1.396893e+02   6.576743e+01
  -3.760749e+00   1.239034e+02
  -9.729478e+01   8.797030e+01
  -9.209089e+01  -4.082863e+01
   3.377400e+01  -9.351426e+00
   1.496725e+02   4.216844e+01
   8.457855e+01   9.981190e+01
  -8.153440e+01   1.330573e+02
  -2.023027e+02   7.036693e+01
  -1.760088e+02   1.651668e+01
  -4.564085e+01  -1.112403e+02
   6.166139e+01  -6.329059e+01
   3.072745e+01  -1.881803e+01
  -4.308982e+01  -5.141994e+00
  -6.699879e+01  -5.040308e+01
  -5.720288e+01  -1.495437e+02
   8.307704e+01  -1.658359e+02
   1.921627e+02  -3.064961e+01
   1.644993e+02   1.238367e+02
   7.117523e+01   1.862493e+02
  -5.169418e+01   1.344971e+02
  -1.117105e+02  -1.732397e+01
  -5.336966e+01  -1.181885e+02
   2.816920e+01  -9.882905e+01
   3.223179e+01   4.815360e+00
   4.800597e+01   1.094296e+01
  -2.368085e+00  -1.718341e+01
   1.176852e+01  -2.928774e+01
   3.572504e+01   1.784989e+01
   4.160660e+01   1.118206e+02
   7.949429e+01   1.027608e+02
  -3.283824e+01   2.086412e+01
  -1.519537e+02  -4.720417e+01
  -8.700487e+01  -7.750067e+01
  -4.407226e+00  -4.457433e+01
   5.813446e+01  -1.812734e+01
   5.273951e+01   7.038649e+00
   1.539668e+01   2.226573e+01
  -3.521746e+01   4.951211e+01
  -6.815790e+00   2.830991e+00
   1.999365e+00   1.625678e+01
  -3.893650e+01  -1.692779e+01
  -5.861442e+01   2.349065e+01
  -9.856866e+01  -5.716195e+01
  -2.245528e+01  -5.195001e+01
   1.229368e+02  -1.262109e+02
   1.894868e+02  -7.693905e+01
   1.177046e+02   6.455155e+01
   5.804378e+01   1.498699e+02
  -5.402487e+01   1.645906e+02
  -1.119768e+02   5.646563e+01
  -9.135652e+01  -7.121752e+00
  -5.571470e+01  -4.561668e+01
   3.246399e+01   7.950824e+00
   1.620935e+01  -1.488087e+01
  -2.240898e+01  -3.114336e+01
  -2.220059e+00  -8.797836e+01
   1.736642e+01  -7.516880e+01
   8.852473e+01   3.140720e+01
   1.012841e+02   1.400689e+02
   4.026534e+01   1.129073e+02
  -8.032398e+01   6.079812e+01
  -1.260180e+02  -6.045561e+01
  -4.114455e+01  -9.037307e+01
   5.080651e+01  -4.806604e+01
   8.067045e+01  -2.577090e+00
   5.611992e+01   2.674984e+01
  -4.660414e+01   3.377006e+01
  -6.190216e+01   1.874754e+01
   1.419509e+01   1.291175e+01
   3.457879e+01  -1.348591e+01
   1.203865e+01   1.233594e+01
  -1.322169e+02   8.155545e+01
  -9.596046e+01   6.671207e+01
  -8.382575e+01  -6.492346e+01
   3.058422e+01  -1.070621e+02
   8.352208e+01  -6.213415e+01
  -1.060718e+01  -7.372969e+00
  -1.271622e+01   3.537460e+01
  -3.931064e+01   3.867493e+01
  -2.186467e+01  -1.879502e+01
   1.995829e+00  -5.475586e+01
   5.292026e+01  -1.603546e+00
   3.267293e+01   3.315723e+01
   5.213241e+01   3.077260e+01
   2.968821e+00  -3.088876e+00
  -2.013567e+01  -2.279811e+01
   2.326645e+01  -2.701260e+01
   3.493306e+00   2.062287e+01
  -3.532840e+01   8.888116e+01
  -4.782436e+01  -1.626454e+01
  -9.488600e+00  -3.405015e+01
   1.271286e+00  -7.772874e+01
   5.415959e+01  -6.705179e+00
   6.736020e+01   6.534081e+01
   1.061289e+01   4.875106e+01
  -6.359226e+01   4.376628e+01
  -8.478041e+01  -2.984186e+01
  -2.093706e+01  -4.552427e+01
   4.203677e+01  -5.401905e+01
   9.016910e+01  -3.599891e+01
   7.419489e+01  -4.559318e+01
  -4.806536e+01   2.662499e+01
  -2.799855e+01  -7.360360e+00
   3.821324e+01  -2.434791e+01
   8.943984e+01  -1.227350e+01
