
 $NMID
 id='ANONYMOUS ', fmtdat='(2E16.6)'
 volume=1.0
 tramp=1.0
 $END
   4.465601e+03   4.094652e+02
   2.540168e+03   2.557883e+03
  -9.244905e+02   2.793348e+03
  -2.189316e+03   6.466043e+02
  -7.933240e+02  -8.129551e+02
   8.709519e+02  -5.581733e+02
   9.299276e+02   5.857687e+02
  -2.561778e+01   1.073468e+03
  -1.008637e+03   6.741188e+02
  -9.697501e+02  -1.391967e+02
  -3.209423e+02  -9.072172e+02
   2.719684e+02  -7.924927e+02
   6.545283e+02   5.865476e+00
   2.899224e+02   7.744329e+02
  -3.603490e+02   6.921484e+02
  -6.567621e+02  -4.921162e+01
  -2.365773e+02  -6.744841e+02
   3.373959e+02  -5.424895e+02
   6.263390e+02  -2.551063e+01
   3.535195e+02   3.472305e+02
  -5.363885e+01   3.397730e+02
  -2.530607e+02   2.542063e+02
  -1.888506e+02  -2.754352e+01
   8.349317e+01  -6.632287e+01
   3.832313e+02   1.492940e+02
   2.630380e+02   4.501863e+02
  -4.660217e+02   4.192692e+02
  -8.057327e+02  -7.365973e+01
  -4.489078e+02  -6.598100e+02
   4.276860e+02  -5.053343e+02
   7.497691e+02   6.050507e+01
   3.158008e+02   5.094208e+02
  -3.189151e+02   4.706845e+02
  -5.931707e+02   1.595379e+02
  -3.849700e+02  -3.012287e+02
  -4.143362e+01  -4.868666e+02
   1.942809e+02  -2.511588e+02
   2.502458e+02   1.667106e+02
  -2.066355e+02   4.657752e+02
  -4.724590e+02  -6.578672e+00
  -2.519570e+02  -6.719384e+02
   4.066301e+02  -7.172726e+02
   6.440653e+02   6.513791e+01
   2.274459e+02   5.628607e+02
  -3.349883e+02   3.605358e+02
  -3.916226e+02  -3.121936e+02
   1.023621e+02  -5.623815e+02
   5.819566e+02  -1.047823e+02
   5.834397e+02   4.790515e+02
   9.858231e+01   5.874132e+02
  -3.865476e+02   3.273047e+02
  -5.959378e+02  -1.200140e+02
  -3.288225e+02  -3.707526e+02
   2.142831e+02  -3.800654e+02
   4.608564e+02  -2.706818e+01
   2.094038e+02   2.873743e+02
  -1.410938e+02   7.030725e+01
  -1.472506e+02  -1.669640e+02
   1.899058e+02  -2.494250e+02
   3.650626e+02   2.729670e+01
   1.439186e+02   2.763842e+02
  -2.166690e+02   2.259601e+02
  -3.441065e+02   9.631975e+01
  -1.971349e+02  -4.082645e+01
  -4.336468e+01  -2.240333e+02
   2.747002e+02  -3.517674e+02
   3.165605e+02  -2.215609e+02
   3.230257e+02   1.379642e+02
   2.721577e+01   4.586428e+02
  -1.427301e+02   3.781222e+02
  -1.231440e+02   8.742195e+01
   9.252960e+00  -8.961961e+01
  -1.616470e+01   1.921956e+01
  -2.088959e+02   1.709672e+02
  -2.923549e+02  -8.133961e+01
  -1.256649e+02  -2.528978e+02
   5.667550e+01  -2.906390e+02
   2.137776e+02  -3.029339e+01
   1.840421e+02   2.582615e+02
   1.318860e+01   2.844813e+02
  -3.127031e+02   1.142568e+02
  -3.572370e+02  -1.849119e+02
  -1.797051e+02  -3.796032e+02
   1.328599e+02  -3.290152e+02
   2.502905e+02  -1.067258e+02
   1.469245e+02  -8.204099e+00
   5.367785e+01   8.907812e-01
   2.158978e+02  -2.942096e+01
   3.996552e+02   1.071332e+02
   3.032052e+02   3.153469e+02
   1.217912e+01   3.795317e+02
  -3.569856e+02   3.308371e+02
  -4.706483e+02   1.310338e+02
  -3.110641e+02  -1.276323e+02
  -5.201462e+01  -3.010161e+02
   1.544141e+02  -2.184376e+02
   8.645224e+01  -1.067406e+01
  -7.823219e+01   1.184928e+02
  -1.868503e+02   3.851609e-01
  -8.400053e+01  -2.241111e+02
   2.026588e+02  -1.965071e+02
   1.625819e+02   5.411431e+01
  -2.704210e+01   1.782621e+02
  -1.702332e+02   3.747697e+01
  -1.200225e+02  -2.563675e+02
   9.254104e+01  -3.390454e+02
   2.209409e+02  -1.640122e+02
   3.016591e+02   1.048797e+02
   2.754871e+02   2.094379e+02
   9.746303e+01   2.414353e+02
  -1.078829e+02   1.679637e+02
  -1.875407e+02   4.146308e+01
  -7.567218e+01  -1.471109e+01
   6.462251e+01   5.776861e+01
   3.865228e+01   9.462093e+01
  -1.238350e+02   9.885794e+01
  -1.842943e+02  -5.160368e+01
  -5.044457e+01  -3.053601e+01
   9.218293e+01  -1.118869e+01
   5.548342e+01   8.670322e+01
  -1.324129e+02   1.183574e+01
  -2.176353e+02  -8.133706e+00
  -2.655063e+02  -1.626608e+02
  -5.267494e+01  -2.456866e+02
   1.731897e+02  -2.558407e+02
   3.116613e+02  -1.402553e+02
   1.737040e+02   7.780637e+01
  -1.617408e+01   1.341056e+02
  -7.260501e+01   4.563346e+00
   2.533785e+01  -9.828387e+01
   1.853942e+02  -6.329828e+01
   2.159931e+02   1.479187e+02
   4.334317e+01   1.581536e+02
  -6.005814e+01   1.846559e+02
  -1.383586e+02   3.644734e+01
  -4.300521e+01  -5.660318e+01
   8.783882e+00   3.885401e+00
   4.667527e+01   5.667987e+01
  -7.001950e+01   1.170158e+02
  -1.946501e+02   1.253027e+01
  -1.627754e+02  -1.176310e+02
  -2.672298e+01  -2.180632e+02
   1.229546e+02  -1.598613e+02
   2.229702e+02   7.374408e+00
   9.094926e+01   1.112512e+02
  -8.382173e+01   1.051467e+02
  -6.563647e+01  -7.067551e+00
  -3.063539e+01  -3.896883e+01
  -2.917488e+01  -8.320322e+01
  -5.113520e-01  -1.748662e+01
  -5.556926e+01  -5.738089e+01
  -4.442916e+01  -8.155032e+01
  -2.299039e+01  -1.513156e+02
   1.418141e+02  -1.478080e+02
   2.314407e+02   5.212112e+00
   1.856712e+02   1.388550e+02
   3.774822e+01   2.394105e+02
  -1.185664e+02   1.773498e+02
  -1.920753e+02  -1.021807e+01
  -8.978691e+01  -3.485206e+01
   1.243267e-01  -7.224265e+01
  -7.108789e+01   1.990273e+00
  -8.190770e+01  -2.310694e+00
  -4.348359e+01  -3.114472e+01
   6.338757e+01  -7.853711e+01
   7.128806e+01  -7.660609e+01
   6.856190e+01   1.401156e+01
  -2.193155e+01   9.669296e+01
  -9.036470e+01   6.839545e+01
  -1.592433e+02  -3.034982e+01
  -9.602384e+01  -1.609400e+02
   5.902237e+01  -2.505187e+02
   2.136665e+02  -5.433086e+01
   2.305294e+02   4.286274e+01
   9.928014e+01   1.611622e+02
  -2.909601e+01   1.695027e+02
  -1.042777e+02   4.778656e+01
  -4.084374e+01   8.782788e+01
  -8.388931e+01   1.001384e+02
  -5.456537e+01   8.636485e+01
  -1.138797e+02  -3.873501e+01
  -1.149231e+02  -1.594252e+02
  -6.964393e+01  -2.024649e+02
   9.012941e+01  -1.369306e+02
   1.745463e+02  -2.205121e+01
   1.358785e+02   1.388441e+02
   2.754820e+01   1.607640e+02
  -5.367416e+01   1.037449e+02
  -4.716631e+01   2.484292e+01
  -2.916706e+01  -2.917180e+01
   6.333949e+00  -5.679823e+00
  -5.176783e+01  -2.022795e+01
  -7.994572e+01  -3.371685e+01
  -4.564194e+01  -4.123828e+01
   5.504829e+01  -5.343860e+01
   1.289223e+02  -9.070604e-01
   1.396047e+02   6.442174e+01
  -1.607202e+01   8.163889e+01
  -1.390952e+02   8.408533e+01
  -1.588543e+02   1.464458e+01
  -2.019361e+01  -4.432048e+01
   5.386415e+01   2.591161e+00
   8.107626e+01   4.031410e+01
   3.476621e+00   4.402205e+01
  -4.917738e+01   6.232452e+01
  -5.761885e+01  -5.428625e+01
   1.106825e+01  -5.842509e+01
  -4.660335e+01  -1.329893e+01
  -5.757071e+01  -2.539003e+01
  -5.656675e+01  -3.229029e+01
  -3.533385e+01  -7.045618e+01
   4.264899e+01  -1.205952e+02
   1.232794e+02  -1.171542e+02
   1.216977e+02  -7.003516e+01
   1.337187e+02   4.663313e+01
  -1.346195e+00   7.758563e+01
  -1.084313e+02   7.432120e+01
  -5.480510e+01   6.036382e+00
   3.221869e+01  -2.453113e+01
   1.127823e+02   5.406267e+01
   9.504887e+01   1.124581e+02
  -6.734241e+01   1.426333e+02
  -1.836263e+02   4.596326e+01
  -1.804133e+02  -1.311649e+01
  -7.044936e+01  -8.380184e+01
   6.876528e+01  -8.786447e+01
   3.822589e+01  -5.241096e+01
  -1.288912e+01   3.519757e+01
  -7.296637e+01  -1.317768e+01
  -5.523373e+00  -1.432674e+02
   9.589540e+01  -1.647930e+02
   1.478512e+02  -4.426056e+01
   1.237969e+02   9.154763e+01
  -1.966444e+01   2.079973e+02
  -9.954540e+01   9.879959e+01
  -7.572454e+01   9.630805e-01
  -6.463735e+01  -1.039007e+02
  -3.866790e-01  -1.087900e+02
   3.413050e+01  -6.357348e+00
   2.173639e+01   3.140213e+01
   1.793097e+01  -3.733636e-01
  -1.011837e+01  -9.661048e+00
  -1.188054e+01   2.205110e+01
   5.783871e+01   1.279971e+02
   5.899885e+01   1.014297e+02
  -2.970776e+01   4.391065e+01
  -1.678565e+02  -7.697755e+01
  -8.887070e+01  -6.564245e+01
  -6.649517e+00  -1.953910e+01
   1.310648e+02  -1.035129e+01
   9.975645e+01  -3.718778e+00
  -2.700345e+01   2.584508e+01
  -7.221524e+01   2.725934e+01
  -2.173600e+01   3.087823e+01
   4.171494e+01  -1.901554e+01
   2.180157e+00  -3.169778e-01
  -7.757180e+01   4.936443e+01
  -8.291364e+01  -4.122494e+01
  -7.919823e+00  -8.256783e+01
   1.180970e+02  -8.530286e+01
   1.761118e+02  -3.258321e+01
   1.381368e+02   2.654801e+01
  -4.155904e-01   9.749988e+01
  -7.915059e+01   1.352831e+02
  -1.320798e+02   5.601310e+01
  -8.900785e+01   2.087301e+00
  -1.544467e+01   3.144902e+00
   2.027449e+01  -3.012904e+01
  -2.614809e+01   3.104983e+01
  -3.790877e+01  -4.876794e+01
  -3.491440e+01  -6.294271e+01
   4.671497e+01  -5.775525e+01
   6.527709e+01   4.185622e+01
   6.139005e+01   9.780645e+01
  -6.674261e-02   9.197971e+01
  -9.960994e+01   1.165256e+01
  -9.283840e+01  -8.862172e+01
  -3.919055e+01  -7.446991e+01
   5.669041e+01  -3.476352e+01
   5.784115e+01   1.065885e+01
   6.228148e+01   8.112779e+01
   2.618805e+01   4.540066e+01
  -3.472678e+01   2.516223e+01
   2.157604e+01   1.088077e+01
   6.193519e+01  -1.545781e+01
   3.501415e+01   2.698314e+01
  -6.917844e+01   7.772099e+01
  -9.320123e+01   6.096188e+01
  -8.940849e+01  -7.288563e+00
   2.930935e+00  -5.202494e+01
   7.560862e+01  -2.624967e+01
   3.312336e+00   3.559362e+01
   3.944655e+00   3.640035e+01
  -8.540389e+01   2.609459e+01
  -3.494222e+01  -2.628644e+01
  -1.062114e+00  -3.359302e+01
   2.635637e+01  -4.123067e+01
   3.740650e+01   3.991907e+01
  -4.622095e+00   3.183276e+01
   8.221376e+00  -3.474177e+01
   2.559521e+00  -2.095248e+01
  -3.941711e+00   4.058736e+01
   1.125349e+01  -2.427290e+01
  -2.729947e+01   1.357978e+01
  -7.461269e+01   2.121832e+01
  -6.252021e+01  -2.802585e+01
  -2.706412e+01  -8.047563e+01
   6.707800e+01   1.455451e+01
   3.486494e+01   7.663353e+01
  -1.057142e+01   3.084019e+01
  -7.378267e+01   3.070160e+01
  -9.719940e+01  -1.644816e+01
   1.947383e+00  -4.001148e+01
   3.383929e+01  -2.651092e+01
   8.073988e+01   2.356981e+01
   3.456221e+01   6.199328e+00
  -1.349853e+01   1.661473e+01
  -3.828503e+01  -4.733419e+01
   2.222449e+01  -2.592952e+01
   9.464244e+01  -3.642061e+01
