
 $NMID
 id='ANONYMOUS ', fmtdat='(2E16.6)'
 volume=1.0
 tramp=1.0
 $END
  -3.372645e+03  -5.580646e+02
  -1.996571e+03  -1.984011e+03
   1.886108e+02  -1.875984e+03
   1.477908e+03  -7.068910e+02
   7.971899e+02   4.643892e+01
  -2.051180e+02   9.235293e+01
  -4.516297e+02  -3.513435e+02
   8.328524e+01  -6.230625e+02
   5.275155e+02  -5.311439e+02
   5.991600e+02   5.814057e+01
   2.767910e+02   5.789785e+02
  -9.782675e+01   6.077593e+02
  -3.990893e+02   1.035474e+02
  -1.428609e+02  -5.106134e+02
   2.293642e+02  -4.934165e+02
   4.279144e+02  -8.761244e+00
   1.913474e+02   5.348067e+02
  -2.167512e+02   5.079739e+02
  -4.637275e+02   1.406920e+02
  -3.353511e+02  -1.836091e+02
  -4.166868e+01  -3.387007e+02
   1.481250e+02  -2.341860e+02
   7.164153e+01  -3.923621e+01
  -1.336135e+02  -4.621725e+01
  -3.307531e+02  -2.257120e+02
   1.483852e+01  -3.373712e+02
   4.377219e+02  -1.745788e+02
   5.900417e+02   2.132143e+02
   1.955275e+02   4.027770e+02
  -3.486658e+02   2.115415e+02
  -5.149031e+02  -1.353544e+02
  -2.009913e+02  -3.912992e+02
   2.603876e+02  -3.216930e+02
   4.335247e+02  -6.756126e+01
   2.922276e+02   1.768949e+02
   4.930327e+01   4.015294e+02
  -9.357533e+01   1.877302e+02
  -1.995593e+01  -1.221774e+02
   1.731759e+02  -1.886697e+02
   2.880847e+02   1.420223e+02
   4.542249e+01   4.654710e+02
  -2.930530e+02   5.161379e+02
  -4.064022e+02  -1.010219e+01
  -1.399948e+02  -3.900861e+02
   2.152360e+02  -1.675437e+02
   2.015379e+02   2.960692e+02
  -1.109870e+02   4.033726e+02
  -4.035960e+02   2.062840e+01
  -4.626593e+02  -3.713222e+02
  -1.396119e+02  -5.098110e+02
   3.009814e+02  -2.791795e+02
   5.240921e+02   1.116534e+02
   3.070507e+02   2.840090e+02
  -5.656442e+01   2.167321e+02
  -2.793849e+02   2.336177e+01
  -1.517272e+02  -8.021073e+01
   1.410859e+01  -5.830569e+01
   8.369501e+01   8.806494e+01
  -9.072311e+01   6.561366e+01
  -3.059532e+02  -5.635465e+01
  -1.486228e+02  -2.412547e+02
   1.299966e+02  -2.179706e+02
   3.265602e+02  -1.334347e+02
   2.379214e+02   1.197607e+02
  -1.170482e+01   2.707881e+02
  -2.878356e+02   2.743731e+02
  -3.596063e+02   1.181314e+02
  -2.049515e+02  -1.780171e+02
  -2.370656e+01  -3.309982e+02
   2.649492e+01  -2.851723e+02
   5.151687e+01  -1.448075e+02
  -9.837901e-01  -7.430169e+01
   1.456669e+02  -7.358052e+01
   2.032631e+02  -1.061659e+02
   2.189560e+02   1.111792e+02
   9.216918e+01   2.695694e+02
  -7.599411e+01   1.957091e+02
  -1.897648e+02  -6.344272e+01
  -8.362068e+01  -2.871958e+02
   6.576744e+01  -2.441012e+02
   2.437153e+02  -7.200693e+01
   3.274696e+02   1.563488e+02
   9.626518e+01   3.299683e+02
  -1.107835e+02   2.656709e+02
  -1.954639e+02   1.433801e+02
  -1.762568e+02   9.069657e+01
  -1.599247e+02   6.006416e+01
  -2.215667e+02  -1.836339e+01
  -4.316119e+02  -1.258751e+02
  -2.584255e+02  -2.579338e+02
   7.630828e+01  -4.272317e+02
   3.145892e+02  -3.596687e+02
   4.135311e+02  -1.087148e+02
   2.310388e+02   6.733645e+01
   3.647873e+01   2.053177e+02
  -8.047179e+01   1.826880e+02
   7.384193e+00   4.694876e+01
   8.731829e+01  -6.517040e+01
   1.153086e+02   3.053844e+01
   1.894509e+01   1.104294e+02
  -1.119090e+02   7.686681e+01
  -1.249263e+02  -7.305123e+01
   3.639543e+01  -1.033438e+02
   1.112530e+02  -8.247844e+00
   1.007387e+02   2.334440e+02
  -1.053117e+02   2.832421e+02
  -2.665483e+02   1.564332e+02
  -3.408884e+02  -1.320791e+02
  -2.012772e+02  -1.808354e+02
  -3.869208e+01  -2.536127e+02
   1.460954e+02  -1.490277e+02
   1.149932e+02  -3.180055e+01
   3.251014e+01   1.936136e+01
  -1.610030e+01  -4.490821e+01
   3.958079e+01  -1.113435e+02
   9.561202e+01  -5.329068e+01
   9.763205e+01   6.114913e+00
   3.289178e+01   6.638990e+01
  -6.018263e+01  -4.781322e+01
  -2.640220e+01  -7.512319e+01
   1.338988e+02  -6.706319e+01
   2.762549e+02   7.141737e+00
   2.446915e+02   2.174351e+02
   4.600273e+01   2.631925e+02
  -1.853382e+02   2.046342e+02
  -2.882491e+02   6.111352e+01
  -1.362423e+02  -2.193964e+01
   3.082239e+01  -1.855803e+01
   7.126534e+01   1.317914e+01
  -5.534941e+01   8.537941e+01
  -1.581677e+02   6.469542e+00
  -1.712697e+02  -1.399248e+02
  -4.222598e+01  -1.753777e+02
   1.407621e+02  -8.866365e+01
   1.217740e+02  -4.410587e+00
   3.287919e+01   2.125587e+01
  -3.900808e+01  -4.132636e+00
  -5.366537e+01  -1.084792e+02
   1.208683e+02  -8.078222e+01
   1.902948e+02   4.758566e+00
   1.586183e+02   1.550267e+02
   1.160185e+01   1.611872e+02
  -1.636608e+02   1.508212e+02
  -1.861884e+02   6.028857e+00
  -7.203227e+01  -9.781594e+01
   7.469757e+00  -9.059787e+01
   7.811742e+01  -3.612428e+01
   1.574688e+01   2.005128e+01
  -4.302251e+01  -2.915781e+00
  -3.993520e+01  -6.045263e+00
   3.474664e+01   8.059243e+00
   7.250277e+01   8.826414e+01
   3.058440e+01   1.353101e+02
  -1.405580e+02   1.369974e+02
  -2.186723e+02   9.612409e+00
  -1.664980e+02  -1.495409e+02
  -5.067710e+01  -1.932263e+02
   1.325013e+02  -1.368638e+02
   1.003857e+02  -1.488661e+01
   8.870748e+01   4.706564e+01
   4.851663e+01   3.186400e+01
   4.715732e+01   1.072962e+01
   1.089185e+02   6.830255e+00
   2.049699e+01   7.980478e+01
  -2.218595e+01   9.977573e+01
  -1.323755e+02   6.151739e+01
  -1.222712e+02  -2.682823e+01
  -1.550097e+01  -1.233011e+02
   1.917518e+02  -5.723305e+01
   1.807381e+02   8.153800e+01
   8.078846e+01   1.759666e+02
  -1.435207e+02   2.029561e+02
  -2.286554e+02   5.254080e+01
  -2.179121e+02  -7.790921e+01
  -6.970794e+01  -1.435422e+02
   2.985736e+01  -1.300313e+02
   6.970716e+01  -1.071210e+02
   7.525690e+01  -5.754555e+01
   7.460554e+01  -8.954680e+01
   4.427131e+01  -8.863175e+01
   1.385506e+02   2.965109e+01
   1.180297e+02   1.344611e+02
   1.808105e+01   1.770991e+02
  -1.114907e+02   1.426335e+02
  -1.316934e+02  -8.855885e+00
  -6.544656e+01  -1.100560e+02
  -3.236074e+01  -1.738069e+02
   7.035083e+01  -7.709063e+01
   8.936173e+01   3.437314e-01
  -2.562246e+01  -3.061046e+00
  -4.245140e+01   2.714348e+01
  -1.329294e+01   1.098885e+01
   6.832834e+01   2.363042e+01
   4.344179e+01   5.067155e+01
  -1.140031e+02   5.127653e+01
  -1.240498e+02  -4.856926e+01
  -9.728137e+01  -5.722979e+01
  -1.162405e+00  -8.339089e+01
   1.139369e+02  -4.108600e+01
   1.431255e+02   4.877749e+00
   3.075488e+01   8.217437e+01
  -6.407541e+01   4.040601e+01
  -6.714167e+01  -1.559621e+01
  -9.336961e+00  -6.210925e+01
   3.547928e+00  -2.348987e+01
   5.850730e+01   1.470910e+01
   3.161562e+01   3.343488e+01
   6.270112e+01   4.193186e+01
   3.042653e+01  -2.391089e+00
   3.149099e+01   3.279782e+01
   6.631427e+01   6.656375e+01
  -4.626920e+01   9.043474e+01
  -1.196678e+02   1.359171e+02
  -1.533368e+02  -2.283466e+00
  -8.727006e+01  -1.065195e+02
  -3.159125e+01  -1.524735e+02
   7.678497e+01  -4.679247e+01
   5.458265e+01   4.443806e+00
  -3.380439e+01   1.831593e+01
  -1.079938e+02  -1.962653e+01
  -5.228555e+01  -1.114218e+02
   8.806483e+01  -1.176428e+02
   1.846534e+02  -8.660289e+00
   1.670861e+02   3.772496e+01
   2.616767e+01   6.456248e+01
  -7.621368e+01   4.342503e+01
  -3.359080e+01  -5.675941e+00
   3.774789e+01  -2.497487e+01
   1.111595e+02   1.163960e+01
   3.633732e+01   1.132596e+02
  -1.015153e+02   1.175879e+02
  -1.655015e+02   7.981755e+01
  -1.325672e+02  -1.042865e+02
  -9.566900e+00  -2.308990e+02
   5.678166e+01  -1.235152e+02
   7.297226e+01   2.077794e+01
   5.941320e+01   1.144155e+02
   2.836452e+00   6.560565e+01
  -4.777524e+01   2.216390e+01
  -4.297041e+01  -2.861015e+01
   9.913189e-01   2.730052e+01
  -1.989798e+00   1.981556e+01
  -3.824222e+01  -7.569095e+01
  -6.233746e+01  -9.161905e+01
  -3.965399e+01  -9.059000e+01
   7.703857e+01  -7.877369e+01
   1.433586e+02   4.872154e+01
   1.037568e+02   4.750832e+01
   5.833041e+00   3.438158e+01
  -8.316895e+01  -1.813552e+01
  -8.441423e+01   2.946785e+01
  -1.238225e+01  -4.233490e+01
   5.761418e+01  -2.168464e+01
   9.426564e+00  -2.585176e+01
  -4.708313e+01   5.062654e+00
  -1.357699e+00   2.363177e+01
   7.587154e+01   1.746842e+01
   5.856739e+01   3.630065e+01
   3.385898e+01   7.678163e+01
  -9.257480e+01   8.551995e+01
  -1.326225e+02   5.541912e+01
  -1.382062e+02  -7.545856e+01
  -3.563894e+01  -1.323064e+02
   5.202161e+01  -1.486243e+02
   1.133023e+02  -2.677738e+01
   6.395890e+01   7.247701e+01
   6.421433e+00   3.590322e+01
   2.556679e+01  -1.472043e+01
  -6.399519e+00   1.473820e+01
   9.818272e+00   3.764710e+01
   3.070694e+01   5.847739e+01
  -1.747369e+01   2.045449e+01
  -6.379118e+01   8.743850e-01
  -8.354023e+01  -1.051214e+02
  -1.444429e+01  -1.057991e+02
   6.399683e+01  -4.785689e+00
   9.200213e+01   4.978863e+01
   4.059059e+01   8.642724e+01
  -7.418865e+01   8.273049e+01
  -8.676602e+01   1.224406e+01
  -2.625549e+01  -4.996801e+01
   1.285987e+01  -8.391736e+01
   4.009088e+01  -1.846010e+01
   6.438954e-01  -3.106813e+01
  -1.192042e+02   7.325574e+00
  -2.941372e+01  -3.755212e+01
   6.443824e+01  -5.862934e+01
   1.438330e+02  -3.141396e+01
   4.662950e+01   2.685488e+01
  -3.761286e+01   1.050545e+02
  -3.494712e+01   9.498499e+01
  -3.509665e+01  -2.012632e+01
  -4.069937e+01  -5.503782e+01
   1.312827e+01  -3.781380e+01
   3.072221e+01   3.100806e+01
   2.773469e+01   3.562587e+01
  -1.262504e+00   1.985535e+01
  -3.015136e+01   1.451455e+01
  -4.505013e+01  -1.027112e+01
  -1.669351e+00  -2.560179e+01
   2.157032e+00   4.056225e+01
   1.503731e+01   4.432017e-01
  -8.139038e-02  -4.629258e+01
   1.642339e+01  -8.648996e+01
   1.002286e+01  -3.279022e+01
   4.195330e+01   2.784786e+01
   1.850201e+01   8.101071e+01
  -3.608455e+01   3.423691e+01
  -4.190525e+01  -2.256631e+01
  -5.543677e+01  -8.999291e+00
   3.442835e+01  -2.182167e+01
   7.953657e+01   5.088198e+01
   5.158615e+01   7.225923e+00
   7.576638e+00   5.557221e+01
  -3.169088e+01   1.819230e+01
  -2.801838e+01  -1.795090e+01
   1.699729e+01   1.155599e+01
   4.584746e+01   2.027478e+01
  -6.541336e+01   8.457566e+01
  -4.770761e+01  -9.584291e+00
