
 $NMID
 id='ANONYMOUS ', fmtdat='(2E16.6)'
 volume=1.0
 tramp=1.0
 $END
  -4.660936e+03   2.298073e+02
  -2.623156e+03  -2.585882e+03
   3.604763e+02  -3.069519e+03
   2.186743e+03  -1.147024e+03
   1.098318e+03   6.241163e+02
  -6.733124e+02   7.644800e+02
  -1.068548e+03  -2.498003e+02
  -9.609742e+01  -1.128434e+03
   8.856457e+02  -8.683280e+02
   1.118050e+03   2.640518e+01
   5.751862e+02   8.990133e+02
  -1.898377e+02   9.503255e+02
  -7.054806e+02   1.654047e+02
  -4.546017e+02  -7.039394e+02
   2.606329e+02  -8.258728e+02
   7.004935e+02  -5.429584e+01
   3.719513e+02   7.185101e+02
  -3.489053e+02   6.734740e+02
  -6.248704e+02   9.931202e+01
  -4.623876e+02  -4.132118e+02
   3.084967e+01  -4.939594e+02
   3.213799e+02  -3.184569e+02
   2.661019e+02  -2.842189e+01
  -1.034808e+02   1.178588e+02
  -4.252477e+02  -1.672392e+02
  -2.665414e+02  -4.494084e+02
   4.653694e+02  -5.185088e+02
   9.236197e+02  -2.461285e+01
   4.886783e+02   5.857419e+02
  -3.299508e+02   5.470886e+02
  -8.025927e+02   5.646113e+01
  -3.841338e+02  -5.194079e+02
   3.015132e+02  -5.878021e+02
   5.567159e+02  -2.527029e+02
   5.168552e+02   2.905374e+02
   9.292176e+01   5.396021e+02
  -2.900297e+02   3.204088e+02
  -2.050232e+02  -2.625936e+02
   1.613695e+02  -4.792695e+02
   4.876514e+02  -7.789140e-01
   2.881229e+02   6.559566e+02
  -4.051487e+02   7.803911e+02
  -6.197183e+02   2.211052e+01
  -2.998706e+02  -5.519531e+02
   2.926380e+02  -4.162189e+02
   4.552603e+02   2.892253e+02
  -5.896950e+00   5.435761e+02
  -5.387121e+02   1.590343e+02
  -6.683978e+02  -3.560530e+02
  -2.525883e+02  -6.302463e+02
   4.180633e+02  -3.855820e+02
   6.780012e+02   2.040066e+01
   4.546201e+02   4.065721e+02
  -1.647193e+02   4.138464e+02
  -5.069442e+02   4.051737e+01
  -2.664492e+02  -2.528034e+02
   1.349804e+02  -1.433788e+02
   2.340679e+02   1.052403e+02
  -1.024655e+02   2.309221e+02
  -3.188443e+02  -3.566151e+01
  -1.627584e+02  -3.154892e+02
   1.989062e+02  -2.964543e+02
   3.242153e+02  -1.084831e+02
   1.887756e+02   1.207360e+02
  -4.427776e+01   2.304004e+02
  -2.321562e+02   3.006739e+02
  -3.423811e+02   2.508571e+02
  -2.879200e+02  -9.941082e+01
  -8.012700e+01  -4.488093e+02
   9.048405e+01  -4.007219e+02
   9.210099e+01  -1.439331e+02
   1.096642e+00   2.502710e+01
   5.334042e+01  -4.506765e+01
   1.599877e+02  -1.623325e+02
   2.590593e+02   5.777413e+01
   1.863005e+02   2.899335e+02
  -5.913513e+01   2.568867e+02
  -2.637974e+02   9.649376e+00
  -2.315687e+02  -2.378554e+02
  -3.844833e+01  -3.413673e+02
   2.794382e+02  -1.204852e+02
   3.533306e+02   1.394299e+02
   1.740330e+02   3.407133e+02
  -1.015815e+02   3.668154e+02
  -2.231893e+02   1.270395e+02
  -2.046203e+02  -3.591181e+01
  -6.901552e+01  -4.710224e+00
  -1.877710e+02   8.146392e+01
  -4.087270e+02  -1.897582e+01
  -3.753384e+02  -2.572608e+02
  -2.134391e+00  -4.471485e+02
   3.831873e+02  -3.998218e+02
   4.952595e+02  -2.265806e+02
   3.149078e+02   1.226517e+02
   2.105842e+01   2.811780e+02
  -1.065850e+02   2.816023e+02
  -7.785838e+01   3.073985e+01
   8.573388e+01  -8.897741e+01
   1.858736e+02  -6.847748e+00
   7.347593e+01   1.952992e+02
  -1.270636e+02   2.198569e+02
  -1.571571e+02  -3.628457e+01
  -4.088151e+00  -1.775229e+02
   2.456555e+02  -2.129649e+01
   1.783002e+02   2.305714e+02
  -3.670602e+01   3.707933e+02
  -2.481661e+02   2.366259e+02
  -3.552909e+02  -8.366122e+01
  -2.714601e+02  -2.801402e+02
  -4.673182e+01  -2.529732e+02
   1.269114e+02  -1.639259e+02
   1.729482e+02   1.298056e+01
   4.148719e+01   5.507196e+01
  -1.015020e+02  -2.258667e+01
  -2.311307e+01  -1.610752e+02
   1.465853e+02  -6.662855e+01
   2.086855e+02   1.123539e+01
   6.425351e+01   7.070526e+01
  -7.785976e+01   3.786794e+01
  -5.502835e+01  -1.069263e+02
   1.456746e+02  -1.000399e+02
   2.573121e+02   2.169294e+01
   2.496891e+02   1.375201e+02
   8.308947e+01   2.454313e+02
  -1.709065e+02   2.588020e+02
  -2.510056e+02   1.686656e+02
  -1.712283e+02  -6.441713e+01
   3.001357e+01  -1.173671e+02
   5.505096e+01   1.501261e+01
  -6.397561e+01   1.612918e+02
  -2.492578e+02   9.167491e+01
  -2.591091e+02  -8.168358e+01
  -7.167959e+01  -2.281941e+02
   8.347922e+01  -1.794596e+02
   1.526717e+02  -1.445490e+01
   4.450052e+01  -3.258002e+01
  -3.193898e+01  -7.000491e+00
  -5.533263e+01  -1.192026e+02
   8.444280e+01  -1.363508e+02
   2.496459e+02  -6.393560e+01
   2.037418e+02   1.304666e+02
   1.059846e+00   2.165946e+02
  -1.753761e+02   1.847957e+02
  -1.996478e+02   2.515580e+01
  -6.542689e+01  -1.252331e+02
   4.121045e+01  -6.107425e+01
   7.148976e+01  -4.303638e+01
  -7.389992e+00   5.102080e+01
  -2.876813e+01  -5.772012e+00
   7.399206e+00  -2.649848e+01
   7.445014e+01   8.915297e+00
   7.302725e+01   5.202899e+01
   3.313819e+01   2.040979e+02
  -1.116802e+02   1.647233e+02
  -2.490698e+02   4.806662e+01
  -2.534662e+02  -1.272212e+02
  -4.113368e+01  -2.437046e+02
   1.168428e+02  -1.499418e+02
   1.448471e+02  -3.641111e+01
   5.206290e+01   1.009010e+02
   4.592339e+01   3.037369e+01
   1.367483e+01   9.194899e+00
   5.779959e+01   6.056256e+00
   1.897457e+01   5.679107e+01
  -3.265837e+01   8.432426e+01
  -1.174935e+02   6.590459e+01
  -1.157003e+02  -9.601237e+00
  -1.422671e+01  -1.120343e+02
   1.558374e+02  -7.544614e+01
   2.335233e+02   6.349054e+01
   8.257191e+01   2.317227e+02
  -8.692303e+01   2.117497e+02
  -2.915597e+02   5.174931e+01
  -2.454723e+02  -8.384443e+01
  -7.808322e+01  -2.022359e+02
   7.490820e+01  -1.474281e+02
   9.841964e+01  -1.063773e+02
   3.471859e+01  -4.961161e+01
   7.254994e+01  -8.230442e+01
   1.302628e+02  -6.593712e+01
   1.012354e+02  -4.949825e+01
   1.343053e+02   9.004420e+01
   7.507666e+01   2.486361e+02
  -1.038832e+02   1.630646e+02
  -2.011533e+02   3.355807e+01
  -1.831883e+02  -9.999530e+01
  -8.375822e+01  -1.183164e+02
   6.630271e+01  -8.807350e+01
   4.063777e+01  -3.916371e+01
   3.032747e+01   2.037644e+01
   8.797014e+00   4.907078e+01
   7.063060e+01   3.372450e+01
   7.509141e+01   1.320695e+01
   4.160527e+01   1.304157e+01
  -5.686660e+01   5.817424e+01
  -1.660558e+02   2.745298e+01
  -1.127675e+02  -5.409713e+01
  -4.949147e+01  -8.607796e+01
   9.303912e+01  -1.032735e+02
   1.323403e+02  -4.497655e+01
   6.805635e+00   2.836995e+01
  -5.759533e+01   3.235723e+01
  -5.872690e+01  -5.796563e+00
  -3.625377e+01  -9.072883e+01
   6.637747e+01  -5.045977e+01
   3.722737e+01   1.926815e+01
   5.883959e+01   6.747928e+01
   4.237164e+01   3.434627e+01
   7.819562e+01   2.918409e+00
   3.553092e+01  -4.287836e+01
   9.368320e+00   6.381459e+01
  -2.540308e+01   1.532299e+02
  -1.523137e+02   1.866213e+02
  -1.664115e+02   6.452409e+01
  -1.367659e+02  -6.487589e+01
  -4.404218e+01  -1.133047e+02
   1.034992e+02  -7.434663e+01
   6.870455e+01   3.254211e+01
  -7.187614e+01   9.047791e+00
  -1.454025e+02  -9.370585e+00
  -6.605848e+01  -9.467895e+01
   5.661771e+01  -9.623407e+01
   1.789633e+02  -7.253447e+01
   1.606988e+02  -1.128659e+01
   2.140727e+01   5.605767e+01
  -5.995621e+01   6.992373e+01
  -7.714859e+01   2.093062e+01
   6.023191e+01  -5.743830e+01
   7.053641e+01   2.516171e+01
   5.711070e+01   1.213131e+02
  -1.357767e+02   1.462596e+02
  -1.563385e+02   6.734396e+01
  -1.275787e+02  -1.234314e+02
  -7.606460e+00  -2.339997e+02
   1.115516e+02  -1.857111e+02
   1.231928e+02   7.437308e-01
   7.262417e+01   9.571832e+01
  -3.515323e+01   1.550211e+02
  -4.618233e+01   2.901502e+01
  -1.367251e+00  -3.749929e+01
   1.188495e+01   1.629908e+01
   4.682913e-01   4.302408e+01
  -7.967969e+00  -1.221522e+01
  -8.177653e+01  -3.280471e+01
  -6.132794e+01  -1.025576e+02
   3.520151e+01  -8.639277e+00
   1.726104e+02   2.284845e+01
   1.164455e+02   8.556022e+01
   4.970129e+01   7.398273e+01
  -9.177792e+01   6.581573e+01
  -9.389351e+01   4.469061e+01
  -2.986915e+01  -1.475209e+01
   4.314510e+01  -4.480193e+00
   1.983373e+01   5.728719e+00
  -4.386895e+01   2.377170e+01
   2.082223e+01   1.491333e+01
   1.070602e+02  -1.215584e+01
   1.322381e+02   7.440863e+00
   5.415463e+01   9.608792e+01
  -1.220481e+02   1.197725e+02
  -2.267002e+02   6.755782e+01
  -1.364866e+02  -3.731885e+01
  -2.259527e+01  -1.309878e+02
   7.023959e+01  -1.672102e+02
   1.267758e+02  -5.325053e+01
   8.722156e+01  -1.396872e+01
   1.917152e+01   9.932767e+00
  -4.610025e+01   1.818139e+00
   2.389576e+01  -2.942752e+00
   3.979032e+01   4.338885e+01
  -2.249614e+00   8.675906e+01
  -2.960873e+01   5.449212e+01
  -9.211446e+01  -1.156280e+01
  -6.806720e+01  -9.909475e+01
  -1.082049e+01  -7.906001e+01
   7.181888e+01  -8.796052e+00
   1.162901e+02   1.223050e+02
  -6.775275e+00   1.140388e+02
  -5.561703e+01   5.824943e+01
  -8.507754e+01  -2.580345e+01
  -3.460401e+01  -5.795797e+01
   6.876492e+01  -3.544470e+01
   5.653848e+01  -4.138547e+01
  -9.602677e+00  -1.813302e+01
  -5.050931e+01   6.185944e+00
  -1.500385e+01  -4.318773e+01
   8.592085e+01  -9.588474e+01
   1.048927e+02  -9.286956e+00
   3.528050e+01   4.704456e+01
  -3.697259e+01   9.933310e+01
  -2.557144e+01   5.663417e+01
  -4.657524e+01  -1.286125e+01
   5.248921e+01  -5.574018e+01
   8.133085e+00  -2.992298e+01
   6.973315e+01   4.379838e+01
  -1.704796e+01   4.293751e+01
  -1.055014e+01   4.487451e+01
  -2.097352e+01  -2.111740e+01
  -1.603284e+01  -9.239789e+00
  -1.518817e+01   5.317063e+00
  -1.487348e+01   2.950964e+01
  -1.988732e+01  -2.888634e+01
   4.039232e-02  -9.095339e+01
  -1.749141e+00  -8.810204e+01
   3.500104e+01  -2.177836e+01
   3.805311e+01   4.934071e+01
   4.888222e+01   6.001570e+01
  -6.760130e-01   9.834534e+00
  -7.649594e+01  -5.530640e+01
  -1.384967e+01  -9.249714e+01
   5.395578e+01  -5.989603e+01
   1.030011e+02   8.707270e+00
   5.991459e+01   4.945152e+01
  -7.240403e+01   1.959295e+01
  -5.352804e+01   4.992110e+01
  -1.466757e+01  -1.809587e+01
   5.597949e+01   7.989761e+00
   6.913432e+01   1.082150e+01
  -7.219891e+00   2.644119e+01
  -1.392150e+02   5.107959e+01
