
 $NMID
 id='ANONYMOUS ', fmtdat='(2E16.6)'
 volume=1.0
 tramp=1.0
 $END
  -3.821430e+03   3.559331e+02
  -2.569833e+03  -2.053542e+03
   3.856658e+02  -2.585626e+03
   1.928953e+03  -1.142207e+03
   1.003772e+03   4.439843e+02
  -3.363014e+02   5.893391e+02
  -9.530416e+02  -3.248139e+02
  -2.293905e+01  -9.733184e+02
   7.203388e+02  -7.611242e+02
   9.014766e+02   4.387031e+01
   5.560606e+02   8.104926e+02
  -2.460184e+02   8.874273e+02
  -6.131311e+02   1.336410e+02
  -4.296340e+02  -7.039619e+02
   2.705257e+02  -7.405973e+02
   6.252890e+02  -4.013140e+01
   3.108436e+02   6.328027e+02
  -3.352840e+02   6.910151e+02
  -6.186478e+02   1.123929e+02
  -4.127791e+02  -3.605029e+02
  -2.621228e+01  -4.174387e+02
   2.241115e+02  -2.539846e+02
   2.049732e+02   1.855314e+01
  -1.748635e+02   7.380615e+01
  -3.799447e+02  -1.102646e+02
  -1.260679e+02  -4.022500e+02
   4.127797e+02  -4.476121e+02
   8.811280e+02   4.709659e+01
   4.407735e+02   5.704516e+02
  -3.331538e+02   4.531344e+02
  -7.140874e+02   6.357591e+00
  -3.561467e+02  -4.588345e+02
   2.732797e+02  -5.221168e+02
   5.809829e+02  -1.840395e+02
   3.693324e+02   2.380614e+02
   8.742628e+01   4.415341e+02
  -1.873517e+02   3.032314e+02
  -1.281106e+02  -1.866005e+02
   1.573217e+02  -4.453352e+02
   4.069624e+02   1.752102e+01
   2.822085e+02   6.167207e+02
  -2.556698e+02   7.269928e+02
  -6.017269e+02   7.170770e+01
  -3.085040e+02  -5.590554e+02
   2.835629e+02  -3.144145e+02
   3.539256e+02   3.103005e+02
  -6.829676e+01   4.935870e+02
  -5.138922e+02   1.576218e+02
  -6.175401e+02  -3.809459e+02
  -1.899264e+02  -5.919975e+02
   3.661107e+02  -3.256342e+02
   6.127861e+02   1.001225e+02
   3.948366e+02   3.355331e+02
  -1.803236e+02   3.186967e+02
  -4.312262e+02   2.462661e+01
  -2.651683e+02  -1.686036e+02
   1.343032e+02  -1.851206e+02
   1.765994e+02   1.338468e+02
  -1.282975e+02   2.347961e+02
  -3.770167e+02  -6.192383e+01
  -1.457249e+02  -2.906976e+02
   1.765812e+02  -2.623721e+02
   3.800062e+02  -9.088267e+01
   1.890497e+02   1.575549e+02
  -2.917316e+01   1.916424e+02
  -2.144505e+02   2.849291e+02
  -3.002646e+02   1.912588e+02
  -2.831869e+02  -1.403229e+02
  -1.476438e+02  -4.147580e+02
   6.602906e+01  -3.307654e+02
   1.317004e+02  -1.120759e+02
   4.403635e+01  -5.832328e+00
   3.854162e+01  -3.581268e+01
   2.057544e+02  -9.926203e+01
   2.992167e+02   3.845872e+01
   1.577718e+02   2.533542e+02
  -8.635841e+01   2.505570e+02
  -2.030772e+02   5.622403e-01
  -1.903885e+02  -2.151529e+02
   2.606851e+00  -2.584679e+02
   3.079897e+02  -1.635153e+02
   3.907765e+02   1.783633e+02
   2.015923e+02   3.400645e+02
  -1.129695e+02   3.251781e+02
  -2.029380e+02   1.412343e+02
  -1.321047e+02   2.587672e+01
  -6.720201e+01   2.150147e+01
  -2.020382e+02   4.827345e+01
  -3.779910e+02  -1.155153e+01
  -3.112617e+02  -2.723941e+02
  -4.396644e+01  -4.076397e+02
   2.770010e+02  -3.682937e+02
   4.642619e+02  -1.809337e+02
   2.826999e+02   8.726299e+01
   7.715390e+00   2.534787e+02
  -1.195693e+02   2.645448e+02
  -7.652865e+01   1.288724e+01
   1.115071e+02  -1.377774e+02
   1.954512e+02  -3.370832e+01
   8.759078e+01   1.748178e+02
  -1.243128e+02   2.160706e+02
  -1.536732e+02  -3.790327e+01
   2.429750e+01  -2.082260e+02
   2.056754e+02  -6.093472e+01
   1.619456e+02   2.642664e+02
  -4.447804e+00   3.285861e+02
  -2.394055e+02   2.314480e+02
  -3.586007e+02  -9.180404e+01
  -2.329800e+02  -2.601024e+02
  -1.501448e+02  -3.154027e+02
   1.094723e+02  -1.638809e+02
   2.047141e+02  -2.482341e+01
   1.314711e+01   6.891479e+01
  -3.383889e+01  -2.038082e+01
  -3.004489e+01  -9.784245e+01
   9.777413e+01  -1.397093e+02
   1.338367e+02   3.405128e+01
   7.356167e+01   5.870009e+01
  -5.082894e+01   9.404162e+00
  -4.657909e+01  -6.545986e+01
   8.154636e+01  -7.235350e+01
   2.727258e+02   2.344732e+01
   2.921724e+02   1.288804e+02
   6.734335e+01   2.490245e+02
  -1.264529e+02   2.191033e+02
  -2.575000e+02   1.444068e+02
  -1.553761e+02  -8.282282e+01
   9.257737e+00  -5.841317e+01
   8.564720e+01  -2.899669e+01
   3.311448e+00   1.194408e+02
  -1.896366e+02   6.091977e+01
  -2.047793e+02  -1.017630e+02
  -8.566622e+01  -2.202454e+02
   6.832077e+01  -1.529842e+02
   1.047948e+02  -2.240479e+01
   7.271777e+01   3.260262e+01
  -3.509435e+01  -3.629975e+01
  -3.202954e+01  -9.337424e+01
   1.055483e+02  -1.086710e+02
   2.112021e+02   5.240949e+00
   2.089186e+02   1.157511e+02
   6.561586e+01   2.378983e+02
  -8.630899e+01   1.834528e+02
  -2.040489e+02   1.304386e+01
  -7.297692e+01  -1.237449e+02
   5.017031e+01  -1.214696e+02
   1.377349e+02  -4.323644e+01
   8.747289e+00   3.402586e+01
   4.547269e+00   4.823799e+01
   3.681721e+01   2.053014e+01
   1.066188e+02   1.168351e+01
   1.422552e+02   6.902082e+01
   4.757813e+01   1.557830e+02
  -1.488350e+02   1.768421e+02
  -2.256779e+02   3.484896e+00
  -2.012252e+02  -1.085928e+02
  -2.998921e+01  -2.284480e+02
   1.420571e+02  -1.619413e+02
   1.269409e+02  -3.408046e+01
   6.577646e+01   6.589852e+01
   4.144454e+01   5.356039e+01
   3.969687e+01  -2.258848e+01
   6.501337e+01   1.615625e+01
   1.150693e+01   6.764895e+01
  -4.576220e+01   7.402605e+01
  -1.552044e+02   5.442153e+01
  -1.332793e+02  -4.493135e+01
   3.321744e+01  -1.031471e+02
   1.190301e+02  -7.055761e+01
   1.850312e+02   9.564389e+01
   1.044964e+02   2.144269e+02
  -1.076138e+02   1.988909e+02
  -2.978930e+02   1.037862e+02
  -2.451169e+02  -8.580512e+01
  -1.053665e+02  -2.010840e+02
   1.428568e+01  -1.511027e+02
   1.108103e+02  -1.226662e+02
   6.337745e+01  -4.927645e+01
   3.945632e+01  -9.426013e+01
   1.181938e+02  -5.935227e+01
   1.111757e+02   6.954624e+01
   5.516854e+01   1.704247e+02
   1.639437e+01   2.070114e+02
  -8.741049e+01   1.778410e+02
  -1.740816e+02  -1.014066e+01
  -1.677754e+02  -1.474594e+02
  -2.142917e+01  -1.651459e+02
   5.301500e+01  -1.069191e+02
   5.036720e+01  -1.654464e+01
   9.856804e+00   1.738971e+01
   6.386004e+00  -7.946458e+00
  -1.461100e+01   1.591932e+01
   8.236616e+01   2.321686e+01
   4.179677e+01   2.946204e+01
  -6.593703e+01   9.183498e+00
  -2.166507e+02  -3.016922e+01
  -1.703681e+02  -2.515120e+01
  -1.461486e+01  -1.210155e+02
   1.226109e+02  -9.333901e+01
   1.424433e+02  -1.185576e+01
   2.062555e+01   7.704803e+01
  -5.414336e+01  -6.813190e+00
  -9.760286e+01  -2.443222e+01
  -2.013325e+00  -4.826688e+01
   5.877741e+01  -9.694191e+01
   8.857713e+01   1.411979e+01
   5.611527e+01   9.653858e+01
   5.108343e+01   2.737362e+01
   5.421979e+01  -1.110499e+01
   7.327697e+01  -2.353914e+01
   1.211030e+01   3.324438e+01
  -2.597397e+01   1.413659e+02
  -8.864542e+01   1.411600e+02
  -1.714588e+02   1.119413e+01
  -9.435058e+01  -9.390948e+01
   5.287278e+01  -8.572339e+01
   9.520001e+01  -4.226505e+01
   6.856201e+01   3.627570e+00
  -5.685853e+01   1.857801e+01
  -1.215686e+02  -4.747385e+00
  -6.416087e+01  -1.150566e+02
   6.272872e+01  -9.734408e+01
   1.826866e+02  -5.292332e+01
   1.551040e+02   1.863430e+01
   6.493549e+01   1.228875e+02
  -7.600476e+01   7.311309e+01
  -4.090549e+01   1.826909e+01
   4.671020e+01   3.867024e+00
   6.618439e+01   1.588962e+01
   7.929884e+01   1.083256e+02
  -1.072132e+02   1.187911e+02
  -1.700572e+02   1.115365e+02
  -1.323774e+02  -9.502701e+01
   1.304961e+01  -1.931812e+02
   7.936678e+01  -1.550541e+02
   8.260978e+01   1.280078e+01
   5.565214e+01   9.635338e+01
   2.852105e+01   1.242909e+02
  -3.798468e+01  -3.907062e+00
  -3.657334e+01  -3.782974e+01
  -1.362920e+01   3.881611e+00
  -4.729727e+01   8.317136e-01
  -2.445801e+01   1.300594e+01
  -9.787751e+01  -7.682938e+01
  -5.040462e+01  -9.614184e+01
   5.922751e+00  -5.758625e+01
   1.527785e+02   4.032978e+01
   9.626155e+01   3.582848e+01
  -3.676756e+01   3.011721e+01
  -1.338209e+02   2.340349e+01
  -8.481904e+01  -1.705622e+00
  -2.156327e+01   2.579228e+01
   3.730318e+00  -2.301815e+01
   1.228096e+01  -3.609097e+01
  -1.205918e+01  -2.904856e+01
   2.122161e+01   2.657057e+01
   3.974364e+01  -4.406398e+01
   1.044746e+02   4.401211e+01
   4.458402e+01   8.244767e+01
  -8.291332e+01   1.364807e+02
  -1.729979e+02   5.104944e+01
  -1.044611e+02  -3.672453e+01
  -1.769179e+01  -1.946498e+02
   5.666322e+01  -1.784494e+02
   7.823119e+01  -8.358986e+01
   1.254873e+02   1.748787e+01
   4.391801e+01   1.934548e+01
   3.657027e+01   2.305426e+01
  -4.066939e+00  -2.368853e+01
   8.939401e+00   3.334361e+00
   2.157403e+01   9.448398e+01
  -3.676775e+01   7.163194e+01
  -8.358198e+01   9.476576e+00
  -9.496892e+01  -1.133562e+02
   3.731924e+01  -1.236018e+02
   6.521305e+01  -1.958886e+01
   8.890425e+01   5.819396e+01
   3.605615e+01   8.890345e+01
  -7.106750e+01   3.314305e+01
  -9.237197e+01   4.132174e+00
  -2.338690e+01  -5.447044e+01
   2.225873e+01  -3.978680e+01
   1.107456e+00  -1.486531e+01
  -4.809162e+01   9.715907e-01
  -6.975935e+01   2.228479e+01
  -3.617460e+00  -7.707131e+00
   1.234978e+02  -5.237607e+01
   1.091477e+02  -7.101224e+01
   6.427030e+01   7.905752e+00
  -3.685412e+01   7.525195e+01
  -1.239055e+01   8.894645e+01
  -2.774303e+01  -3.098760e+00
  -1.959177e+01  -7.123749e+01
   1.921432e+01  -1.719462e+01
   4.408007e+01   3.495393e+01
   3.566361e+01   2.556046e+01
   1.745395e+01   1.799657e+01
  -2.494514e+01   5.416693e+01
  -4.061278e+01  -1.639448e+01
  -3.782535e+01  -7.904215e-01
   4.761603e+00   5.590091e+00
   2.419174e+01  -8.377001e+00
  -9.609856e+00  -5.314914e+00
  -6.917860e-01  -6.280216e+01
   8.665278e+01   1.541416e+01
   9.080152e+00   6.610978e+01
  -6.311235e+00   7.400669e+01
  -3.617937e+01   4.181079e+01
  -7.121265e+01  -7.441565e+01
  -8.197522e+00  -1.016072e+02
   3.820768e+01  -1.219832e+00
   4.368912e+01   2.748853e+01
   8.331756e+00   4.589844e+01
  -4.293127e+01   5.741546e+01
  -9.529657e+01   6.326809e+01
   4.491403e+01  -1.066299e+01
   5.138597e+01  -1.209000e+01
   2.145781e+01   1.017628e+01
  -5.274863e+01  -1.214512e+01
  -1.205479e+02  -5.168817e-02
