
 $NMID
 id='ANONYMOUS ', fmtdat='(2E16.6)'
 volume=1.0
 tramp=1.0
 $END
  -5.119423e+03   1.416975e+02
  -2.874285e+03  -3.328492e+03
   8.653506e+02  -3.146688e+03
   2.561085e+03  -9.464878e+02
   1.143494e+03   8.507451e+02
  -9.430790e+02   7.542009e+02
  -1.104489e+03  -5.430057e+02
   4.248541e+01  -1.302272e+03
   9.706698e+02  -8.058192e+02
   1.165027e+03   1.272426e+02
   4.901282e+02   1.073746e+03
  -3.747432e+02   1.093575e+03
  -7.122350e+02   1.295106e+02
  -4.549394e+02  -8.016433e+02
   3.035814e+02  -8.707486e+02
   6.899823e+02  -2.973838e+00
   3.339631e+02   7.877131e+02
  -4.257904e+02   7.044245e+02
  -6.573238e+02   4.600318e+01
  -3.990515e+02  -4.580654e+02
  -1.115577e+01  -5.185677e+02
   2.540459e+02  -2.651008e+02
   2.574322e+02   2.368376e+00
  -1.043276e+02   1.041030e+02
  -4.380248e+02  -1.819804e+02
  -2.191072e+02  -5.227251e+02
   4.582466e+02  -4.220392e+02
   8.548076e+02   1.005741e+02
   4.328679e+02   5.895440e+02
  -4.702196e+02   5.180821e+02
  -8.341960e+02  -5.361181e+01
  -3.609026e+02  -6.104777e+02
   3.433848e+02  -5.594442e+02
   6.648437e+02  -1.674070e+02
   4.547367e+02   3.183718e+02
   1.640477e+01   5.355540e+02
  -2.480343e+02   3.856518e+02
  -2.199010e+02  -2.310677e+02
   1.774160e+02  -4.624263e+02
   5.081252e+02   2.080068e+01
   2.202532e+02   6.975965e+02
  -3.104852e+02   7.797876e+02
  -6.429693e+02   1.365401e+01
  -2.853734e+02  -5.808325e+02
   3.368440e+02  -3.573259e+02
   4.490588e+02   3.862400e+02
  -9.067130e+01   6.098256e+02
  -6.247358e+02   1.346887e+02
  -6.975123e+02  -4.295367e+02
  -1.587187e+02  -6.242410e+02
   4.373846e+02  -3.005843e+02
   6.877422e+02   9.823248e+01
   4.088258e+02   4.417690e+02
  -1.943665e+02   4.088618e+02
  -4.382808e+02   2.136384e+01
  -2.790075e+02  -2.267791e+02
   1.749890e+02  -9.523286e+01
   1.409457e+02   1.766428e+02
  -1.944979e+02   2.550521e+02
  -3.662655e+02  -1.359503e+02
  -1.166520e+02  -3.371927e+02
   2.164500e+02  -2.421978e+02
   3.255662e+02  -5.667023e+01
   1.574311e+02   1.317157e+02
  -3.705495e+01   2.472141e+02
  -2.352226e+02   2.725875e+02
  -3.270667e+02   2.029809e+02
  -2.753202e+02  -1.400795e+02
  -4.763363e+01  -4.062260e+02
   1.612964e+02  -4.058745e+02
   1.832853e+02  -1.099307e+02
   3.992675e+01   3.402269e+00
   2.489820e+01  -8.003887e+01
   2.309109e+02  -1.006940e+02
   3.541772e+02   6.019026e+01
   2.273260e+02   2.946799e+02
  -9.298479e+01   2.885816e+02
  -2.233296e+02   5.555882e+01
  -2.088551e+02  -2.403224e+02
   3.742553e+01  -3.276944e+02
   3.181972e+02  -1.324960e+02
   3.365877e+02   2.322541e+02
   1.485068e+02   3.815032e+02
  -1.190445e+02   3.076951e+02
  -2.475518e+02   1.037252e+02
  -1.543750e+02  -2.881490e+01
  -1.010368e+02   1.896507e+01
  -2.157005e+02   5.556373e+01
  -4.217126e+02  -6.249183e+01
  -3.429434e+02  -3.233845e+02
   6.337101e+01  -4.744434e+02
   3.633778e+02  -4.333469e+02
   5.299305e+02  -1.757639e+02
   3.678106e+02   8.246744e+01
   5.565933e+01   3.303696e+02
  -1.397913e+02   2.466913e+02
  -9.459675e+01   4.792446e+01
   8.920625e+01  -1.046452e+02
   2.386932e+02   1.016864e+01
   5.216060e+01   2.125888e+02
  -1.960908e+02   1.448718e+02
  -1.885128e+02  -1.011606e+02
   2.901744e+01  -2.675731e+02
   2.398967e+02  -5.406523e+01
   1.676544e+02   2.559888e+02
  -8.423610e+00   3.929038e+02
  -2.502557e+02   2.087898e+02
  -3.562783e+02  -1.221404e+02
  -2.940209e+02  -2.545071e+02
  -7.223426e+01  -2.432559e+02
   8.750109e+01  -1.578848e+02
   1.685185e+02  -2.628655e+00
   6.966053e+01   6.234268e+01
  -1.012124e+02  -4.502083e+01
  -3.575342e+01  -1.104112e+02
   1.248520e+02  -1.126309e+02
   2.188153e+02  -1.122044e+01
   7.384457e+01   8.691051e+01
  -5.839020e+01   1.467876e+00
  -8.956032e+01  -4.797131e+01
   1.377764e+02  -5.209872e+01
   3.343721e+02   5.901272e+00
   2.918717e+02   1.431525e+02
  -1.986222e+00   2.614505e+02
  -2.033373e+02   2.859025e+02
  -3.010024e+02   1.507871e+02
  -1.979886e+02  -7.431208e+01
   1.299066e+01  -9.615077e+01
   1.099280e+02   1.178126e+01
  -1.355798e+01   1.271706e+02
  -2.027776e+02   5.550028e+01
  -2.233584e+02  -8.534869e+01
  -1.084073e+02  -1.913283e+02
   1.081479e+02  -1.529416e+02
   1.461397e+02  -2.031120e+01
   9.913758e+01   6.733252e+01
  -1.728122e+01   2.120729e+01
  -5.082503e+01  -7.954589e+01
   5.712470e+01  -1.178841e+02
   2.302947e+02  -7.321008e+01
   1.627730e+02   1.285395e+02
  -2.496499e+01   2.647894e+02
  -1.373149e+02   1.771083e+02
  -1.982967e+02   1.245080e+01
  -5.456344e+01  -9.357283e+01
   2.000296e+01  -7.175523e+01
   9.667311e+01  -5.800718e+01
   2.990249e+01  -7.719969e+00
  -3.749011e+01   8.933217e+00
   8.815315e+00  -2.218684e+01
   1.212561e+02  -1.148394e+01
   1.038936e+02   7.086774e+01
   6.387398e+00   1.394414e+02
  -1.171049e+02   1.087508e+02
  -2.324526e+02   2.504826e+01
  -2.289381e+02  -1.871857e+02
  -4.325835e+01  -2.384887e+02
   9.808469e+01  -1.660186e+02
   1.562635e+02  -7.788302e+01
   6.370285e+01   7.346926e+01
   2.326930e+01   1.068239e+02
   6.206082e+01  -1.989541e+01
   1.147303e+02   1.564699e+01
   4.907768e+01   9.435976e+00
  -3.287488e+01   7.252827e+01
  -1.125810e+02   4.065011e+01
  -9.746228e+01  -6.671177e+01
   2.291630e+00  -1.173204e+02
   1.709366e+02  -9.676723e+01
   2.107144e+02   5.627456e+01
   8.535195e+01   1.671401e+02
  -7.358896e+01   2.589194e+02
  -3.003247e+02   6.205701e+01
  -2.840739e+02  -5.902949e+01
  -1.001252e+02  -1.884519e+02
   3.763209e+01  -1.783766e+02
   9.405220e+01  -5.608145e+01
   8.782921e+01  -8.289961e+01
   1.147770e+02  -1.358171e+02
   1.505168e+02  -4.227244e+01
   1.580231e+02   4.351745e+01
   1.107395e+02   2.413921e+02
   1.441566e+01   2.324292e+02
  -1.215612e+02   1.962518e+02
  -1.690493e+02   8.521896e+00
  -1.564480e+02  -1.532686e+02
   1.251878e+01  -1.864958e+02
   9.071454e+01  -5.065648e+01
   5.802116e+01   3.017236e+00
  -1.566376e+01   7.369732e+01
  -1.416228e+01   3.593859e+01
   2.847237e+01   1.354210e+01
   4.789957e+01   4.194283e+01
   2.318240e+01   4.578017e+01
  -8.067697e+01   4.750191e+01
  -1.358853e+02   2.933303e+01
  -9.963116e+01  -4.655053e+01
  -3.311149e+01  -9.467672e+01
   1.244918e+02  -5.189500e+01
   1.399873e+02  -4.290182e+01
   3.424293e+01   5.560545e+01
  -4.776151e+01   1.759076e+01
  -2.131496e+01  -5.853603e+00
  -4.647426e+01  -6.151080e+01
   6.212508e+01  -5.485238e+01
   7.502023e+01   1.403404e-01
   6.373644e+01   5.325241e+01
   2.564585e+01   4.707387e+01
   4.762908e+01   2.531727e+01
   8.539468e+01  -6.591029e+01
   3.792270e+00   4.823303e+01
  -3.125465e+01   1.807527e+02
  -1.291963e+02   1.691860e+02
  -1.694121e+02   1.602685e+01
  -1.279544e+02  -9.209611e+01
   9.784928e+00  -1.301150e+02
   1.124672e+02  -7.145381e+01
   1.061883e+02   2.065192e+01
  -8.924405e+01   3.002673e+01
  -1.527448e+02  -9.366691e+01
  -6.348296e+01  -9.201357e+01
   1.274081e+02  -8.506218e+01
   2.149772e+02  -5.803531e+01
   1.777900e+02   1.479515e+01
   2.206850e+01   9.645884e+01
  -5.621340e+01   3.488487e+01
  -3.441754e+01  -1.831832e+01
   3.202549e+01  -3.803603e+01
   9.523053e+01   6.419646e+01
   3.877647e+01   9.720801e+01
  -1.027529e+02   2.072799e+02
  -2.186658e+02   8.758985e+01
  -1.479601e+02  -1.126368e+02
  -2.475481e+01  -1.788225e+02
   1.181248e+02  -1.414601e+02
   1.240450e+02   1.412389e+01
   1.908891e+01   1.208522e+02
   1.299162e+00   1.024956e+02
  -7.325095e+01  -1.696066e+01
  -5.623746e+01  -3.400182e+01
  -2.206831e+01  -2.773319e+00
   1.756427e+01   3.006220e+01
  -2.810570e+01  -3.153568e+01
  -8.798470e+01  -1.073833e+02
  -3.101613e+01  -1.155600e+02
   7.191647e+01  -6.684119e+01
   1.203109e+02   6.844910e+01
   9.464436e+01   4.415501e+01
  -2.170231e+01   6.206634e+01
  -1.105565e+02   2.122480e+01
  -8.566357e+01  -1.129580e+01
   2.008237e+01  -1.458529e+01
   4.077901e+01  -1.690441e+01
  -1.263131e+01  -3.798364e+01
  -3.143497e+01  -7.920874e+00
   2.308144e+01   1.266231e+01
   1.233594e+02  -2.484580e+01
   1.405516e+02   4.575083e+01
  -4.613703e-01   9.859119e+01
  -1.148892e+02   1.134418e+02
  -2.141280e+02   7.272554e+01
  -1.422418e+02  -8.545138e+01
   1.416988e+01  -1.506275e+02
   1.049577e+02  -1.842802e+02
   1.024517e+02  -1.661258e+01
   6.076394e+01   1.249295e+01
   8.038308e+00   8.120894e+01
  -3.069288e+01  -8.674166e+00
   1.815346e+01  -1.128888e+01
   2.842549e+01   6.502302e+01
  -9.772255e+00   9.454199e+01
  -3.567316e+01   4.683897e+01
  -1.119870e+02  -4.028897e+01
  -7.400153e+01  -1.333334e+02
  -9.034799e+00  -1.409393e+02
   5.601584e+01  -4.522321e+01
   1.089580e+02   1.023766e+02
   6.148712e+01   9.755229e+01
  -9.275808e+01   3.466039e+01
  -8.244572e+01  -2.263555e+01
  -5.107490e+01  -6.632877e+01
   4.101326e+01  -2.895861e+01
   2.662468e+01  -7.191697e+01
  -5.209306e+01   5.468887e+00
  -9.038260e+01  -1.821339e+01
   1.377733e+01  -5.486168e+01
   6.555100e+01  -3.374217e+01
   1.261368e+02  -2.243123e+01
   5.722639e+01   3.363018e+01
   1.988811e+01   5.902482e+01
  -6.899267e+01   1.009503e+02
  -2.405507e+00  -8.140031e+00
   1.571663e+01  -5.185126e+01
   1.929139e+01   3.315643e+01
   1.761460e+01   1.563158e+01
   1.678939e+01   8.299538e+01
  -3.749355e+00  -1.099399e+01
  -3.557979e+01  -5.527966e+00
  -5.709348e+01  -7.283504e+00
   1.319467e+01   3.554313e+01
  -9.897501e-01  -3.611260e+01
  -1.221797e+01  -1.486661e+01
   2.548621e+01  -5.083280e+01
   3.785636e+00  -4.442961e+01
   1.762025e+01  -1.734630e-01
  -1.758766e+01   3.663720e+01
  -2.796872e-02   7.289995e+01
  -7.206190e+01   4.351870e+01
  -4.099226e+01  -6.275025e+01
   7.326942e+00  -1.251602e+02
   8.153286e+01  -4.744728e+01
   6.941736e+01   3.438953e+01
   2.122723e+00  -4.731528e+00
  -5.789689e+01   2.531716e+01
  -7.640815e+01   2.387234e+01
  -8.677406e+00   2.084973e+01
   4.859757e+01   1.235711e+01
   1.894325e+01   2.494771e+01
  -3.178445e+01   3.574571e+01
  -1.147078e+02   3.965332e+01
