
 $NMID
 id='ANONYMOUS ', fmtdat='(2E16.6)'
 volume=1.0
 tramp=1.0
 $END
  -3.721911e+03   2.976008e+02
  -2.492178e+03  -2.392167e+03
   6.218736e+02  -2.462565e+03
   2.096837e+03  -6.831162e+02
   8.992360e+02   7.039717e+02
  -6.073391e+02   6.000135e+02
  -7.758139e+02  -4.895957e+02
  -3.460206e+01  -9.249142e+02
   7.595084e+02  -6.867055e+02
   9.143005e+02   1.299777e+02
   3.745272e+02   8.600408e+02
  -2.348368e+02   8.334998e+02
  -6.806892e+02   1.129686e+02
  -3.075528e+02  -6.410643e+02
   2.853069e+02  -6.931393e+02
   5.569157e+02   3.828805e+00
   2.831808e+02   6.642105e+02
  -3.128379e+02   6.427741e+02
  -5.716985e+02   7.068331e+01
  -3.175030e+02  -3.383699e+02
   1.513280e-01  -4.369735e+02
   2.514343e+02  -2.141256e+02
   2.164039e+02   4.790324e+01
  -1.831041e+02   8.191136e+01
  -3.878947e+02  -1.778944e+02
  -1.385840e+02  -4.241674e+02
   5.124771e+02  -3.945086e+02
   8.004098e+02   5.159537e+01
   3.512402e+02   4.827225e+02
  -3.431811e+02   5.267550e+02
  -7.012989e+02  -4.187205e+01
  -2.747449e+02  -5.092669e+02
   2.501298e+02  -5.368281e+02
   5.316442e+02  -1.759631e+02
   4.335507e+02   1.584434e+02
   6.708681e+01   4.522140e+02
  -2.242602e+02   2.401787e+02
  -1.303809e+02  -2.320289e+02
   1.972632e+02  -3.667439e+02
   4.374134e+02   4.088527e+01
   1.849671e+02   6.823359e+02
  -3.619967e+02   6.371185e+02
  -5.706917e+02  -2.501613e+01
  -2.543001e+02  -4.923957e+02
   2.793152e+02  -3.078521e+02
   3.371611e+02   2.647198e+02
  -7.549054e+01   5.162566e+02
  -5.538122e+02   1.266478e+02
  -5.079466e+02  -3.865845e+02
  -1.782068e+02  -5.071746e+02
   3.371617e+02  -3.637218e+02
   6.184166e+02   7.032270e+01
   3.607950e+02   3.340276e+02
  -1.546835e+02   3.796018e+02
  -4.135235e+02   5.391594e+01
  -2.667152e+02  -1.818545e+02
   1.158936e+02  -9.361085e+01
   1.392823e+02   1.780250e+02
  -1.191796e+02   1.905576e+02
  -3.766671e+02  -1.407260e+01
  -1.523893e+02  -2.855214e+02
   2.226296e+02  -2.818857e+02
   3.154471e+02  -3.361468e+01
   1.926620e+02   8.758722e+01
  -4.046139e+01   2.007084e+02
  -2.200616e+02   3.254602e+02
  -4.120230e+02   2.435402e+02
  -2.449001e+02  -1.425560e+02
  -5.277098e+01  -4.066192e+02
   1.044286e+02  -3.475174e+02
   8.313512e+01  -9.756851e+01
   3.978145e+01  -8.029836e+00
   5.832094e+01  -8.516304e+01
   1.624980e+02  -9.344170e+01
   2.978720e+02   6.405294e+01
   1.748780e+02   2.886380e+02
  -7.609142e+01   2.460425e+02
  -2.436499e+02  -1.233684e+01
  -1.766118e+02  -2.566347e+02
   4.342369e+01  -3.129087e+02
   2.835506e+02  -1.033587e+02
   3.537442e+02   1.420916e+02
   1.731226e+02   3.651451e+02
  -1.029514e+02   2.928446e+02
  -1.991752e+02   8.062222e+01
  -1.386913e+02   3.176279e+01
  -9.181160e+01   4.449134e+01
  -2.747520e+02   7.471009e+01
  -3.780444e+02  -1.518269e+01
  -3.505066e+02  -2.808625e+02
   1.301079e+01  -4.410868e+02
   3.264794e+02  -3.534708e+02
   4.592772e+02  -1.877984e+02
   3.393676e+02   1.480387e+02
   3.689434e+01   2.711694e+02
  -1.161848e+02   2.508577e+02
  -9.654264e+01   4.784143e+01
   1.058690e+02  -6.815336e+01
   2.074475e+02   2.243359e+00
   5.890692e+01   2.116291e+02
  -1.618051e+02   1.947890e+02
  -2.150808e+02  -5.581681e+01
   4.153280e+01  -2.047041e+02
   2.083637e+02  -2.837093e+01
   1.033222e+02   2.427625e+02
  -1.581942e+01   3.515029e+02
  -2.952232e+02   1.947435e+02
  -3.287602e+02  -1.150125e+02
  -2.845748e+02  -2.938540e+02
  -1.086258e+02  -2.297107e+02
   1.381687e+02  -1.575679e+02
   1.601867e+02  -6.948179e+00
   2.203484e+01   1.701591e+01
  -5.384943e+01  -5.049865e+01
  -3.676561e+01  -1.708861e+02
   1.600273e+02  -1.007177e+02
   1.948904e+02  -3.520744e-01
   6.858121e+01   8.204363e+01
  -8.389694e+01  -3.556912e+00
  -7.450380e+01  -9.873739e+01
   1.080240e+02  -6.509808e+01
   2.193620e+02   2.798967e+01
   2.461702e+02   1.491358e+02
   4.824451e+01   2.733193e+02
  -1.783328e+02   2.683848e+02
  -2.656886e+02   1.408723e+02
  -1.403393e+02  -6.256735e+01
   8.648727e+00  -1.073171e+02
   1.277368e+02  -2.077001e+01
  -6.452710e+01   1.098211e+02
  -1.897378e+02   3.002125e+01
  -2.217041e+02  -1.228707e+02
  -7.852233e+01  -2.008589e+02
   8.908889e+01  -1.498243e+02
   1.161479e+02  -4.634766e+00
   9.606834e+01   4.720621e+01
  -3.620279e+01  -6.135270e+00
  -4.532702e+01  -9.141065e+01
   7.446020e+01  -1.267289e+02
   2.004569e+02  -1.582160e+01
   1.861585e+02   9.962527e+01
   5.963739e+01   1.898671e+02
  -1.411024e+02   1.404058e+02
  -1.827384e+02   5.155036e+01
  -5.961147e+01  -1.087410e+02
   5.962839e+01  -8.056016e+01
   2.313996e+01  -1.732707e+01
   1.647126e+01  -2.639500e+01
  -2.630146e+01   4.051550e+01
   1.185677e+01  -3.260284e+01
   3.695713e+01   3.016830e+01
   1.077231e+02   9.802823e+01
   1.248198e+01   1.769253e+02
  -1.473172e+02   1.450783e+02
  -1.954008e+02   7.182496e+00
  -1.763457e+02  -1.466248e+02
  -3.880363e+00  -2.213928e+02
   9.733543e+01  -2.016989e+02
   1.558088e+02  -5.339221e+01
   6.614596e+01   5.648100e+01
   1.123813e+01   4.239393e+01
   6.680223e+01  -5.075949e+01
   6.686027e+01  -2.272038e+00
   4.126063e+01   6.394563e+01
  -4.772213e+01   1.073818e+02
  -1.203560e+02   4.094991e+01
  -1.263885e+02  -3.057791e+01
   1.638715e+01  -7.592092e+01
   1.080730e+02  -7.647689e+01
   1.891935e+02   1.107465e+02
   1.200341e+02   1.725279e+02
  -1.009142e+02   2.133320e+02
  -2.391307e+02   8.099504e+01
  -2.495826e+02  -1.063707e+02
  -8.814043e+01  -2.082848e+02
   2.721859e+01  -1.635246e+02
   7.379946e+01  -8.141039e+01
   6.841643e+01  -1.065761e+02
   6.421448e+01  -1.635959e+02
   1.073437e+02  -1.040145e+02
   1.294106e+02  -1.667600e+01
   8.084780e+01   1.578075e+02
   2.710883e+01   2.094177e+02
  -9.109267e+01   1.746128e+02
  -1.484206e+02   5.937726e+00
  -1.426855e+02  -1.001209e+02
  -9.564578e+00  -1.308671e+02
   6.159892e+01  -7.031513e+01
   8.824640e+01   5.131298e+01
  -9.799537e+00   8.527229e+01
  -3.346669e+01   8.058455e+00
   3.532087e+01  -2.927974e+01
   5.656832e+01   5.016271e+01
   2.292732e+01   7.521337e+01
  -4.960461e+01   4.665175e+01
  -1.524510e+02  -1.718763e+01
  -1.326450e+02  -6.111409e+01
  -1.782353e+00  -1.072964e+02
   1.235448e+02  -8.851358e+01
   1.168127e+02  -4.708856e+01
   1.233013e+01   2.823755e+01
  -5.740770e+01   5.071699e+01
  -8.432414e+01   1.023455e+01
  -4.647848e+01  -8.332172e+01
   4.364053e+01  -8.351997e+01
   1.040204e+02   3.223932e+01
   2.959707e+01   6.346208e+01
   3.503581e+01   2.931117e+01
   6.362624e+01   4.586467e+00
   5.854028e+01  -3.621611e+01
   4.831981e+01   7.399222e+01
  -1.974839e+01   9.026388e+01
  -1.079675e+02   1.516471e+02
  -1.878677e+02   3.854778e+01
  -1.289522e+02  -1.333046e+02
   3.996529e+00  -9.579314e+01
   8.470095e+01  -6.461705e+01
   6.956507e+01   3.263469e+01
  -8.402556e+01   3.624328e+01
  -1.805334e+02  -5.332804e+01
  -5.876309e+01  -9.699029e+01
   8.102269e+01  -1.025384e+02
   2.238534e+02  -6.878773e+01
   1.339578e+02   2.412127e+01
   3.750902e+01   7.134694e+01
  -5.211612e+01   6.352774e+01
  -4.407932e+01  -5.015012e+01
   9.428629e+00  -4.306343e+01
   9.133774e+01  -1.940985e+01
   5.740061e+01   5.513661e+01
  -8.381866e+01   1.802267e+02
  -1.483948e+02   4.819209e+01
  -1.819627e+02  -9.643842e+01
  -3.865127e+00  -2.138166e+02
   7.685014e+01  -1.209822e+02
   1.284514e+02  -1.454518e+01
   9.973133e+01   1.011026e+02
  -5.994822e+00   1.069302e+02
  -7.299828e+01   3.066778e+01
  -8.852952e+01  -3.659913e+01
  -5.949093e+01   2.939542e+01
  -1.867136e+01   4.630667e+01
  -3.209987e+01  -2.820289e+01
  -6.159792e+01  -7.049560e+01
  -1.116035e+01  -1.203169e+02
   5.061414e+01  -7.417439e+01
   1.508458e+02   2.601165e+01
   1.546834e+02   8.513149e+01
   7.206471e+00   5.597572e+01
  -8.516388e+01   6.646856e+01
  -6.851884e+01   3.023227e+01
  -2.594450e+00  -1.671140e+01
   2.227460e+01   5.056539e-01
   3.834132e+01  -5.545384e+01
  -2.126733e+01  -7.714622e+00
   3.414019e+01   1.795908e+01
   9.590973e+01   4.050443e-01
   8.625103e+01   8.856702e-01
   5.972828e+00   1.142144e+02
  -1.380763e+02   9.516036e+01
  -1.986254e+02   4.082597e+01
  -9.808238e+01  -4.989332e+01
  -1.066690e+01  -1.579019e+02
   5.182760e+01  -1.176889e+02
   7.626206e+01  -9.500887e+01
   7.507946e+01  -3.814417e+00
   4.776815e+01   1.857429e+01
  -2.466136e+01   3.424520e+00
  -2.512177e+01   1.133731e+01
   1.729225e+01   6.472959e+01
  -2.402439e+01   9.470652e+01
  -5.626584e+01   6.636780e+01
  -9.163232e+01  -6.250529e+01
  -6.250277e+01  -1.547749e+02
  -1.884355e+01  -9.514187e+01
   4.943922e+01  -8.572594e+00
   1.226613e+02   8.487305e+01
   1.317965e+01   5.984325e+01
  -4.754763e+01   6.159692e+01
  -9.165100e+01  -1.846015e+01
  -5.244002e+01  -6.959355e+01
   6.740659e+01  -3.141361e+01
   3.307537e+01  -2.660520e+01
  -4.337599e+01  -9.665583e+00
  -4.856714e+01  -4.114064e+00
  -1.057096e+01  -2.079181e+01
   3.546142e+01  -7.266714e+01
   7.741489e+01  -2.437831e+01
   3.530725e+01  -1.408516e-01
   1.757343e+01   9.125055e+01
  -4.641196e+01   8.114288e+01
  -3.302542e+01   5.974144e+00
  -6.713449e+00  -6.889469e+01
  -4.002617e+01  -7.966615e+01
   5.986673e+01  -1.199996e+01
   2.290974e+01   5.128464e+01
   3.497647e-01   6.607021e+01
  -1.294039e+01  -7.178975e+00
  -4.412020e+01  -1.903512e+01
   2.308162e+01  -3.149885e+01
   2.878187e+01   2.790154e+01
   4.112760e+01   5.824040e-02
   1.443660e+01  -4.583651e+01
  -1.325619e+01  -6.304475e+01
   5.234836e+01  -1.644215e+01
   3.919375e+01   2.993848e+01
  -2.301003e+01   2.981324e+01
  -3.402774e+01   2.225687e+01
  -3.964542e+01  -2.430726e+00
  -4.398648e+01  -7.592367e+01
   3.558771e+01  -3.791805e+01
   9.842283e+01  -4.539987e+01
   3.096984e+01   8.204501e+01
  -4.540782e+01   1.635602e+01
  -1.025141e+02   1.244647e+01
  -1.397443e+01   4.196496e+00
   1.987045e+01  -7.726709e+00
   2.802415e+01   9.668024e+00
  -1.407874e+01   1.659219e+01
  -6.443765e+01   6.804216e+00
