
 $NMID
 id='ANONYMOUS ', fmtdat='(2E16.6)'
 volume=1.0
 tramp=1.0
 $END
   3.535249e+03  -1.287293e+02
   2.264123e+03   1.949477e+03
  -3.066954e+02   2.392125e+03
  -1.806633e+03   1.030340e+03
  -8.726563e+02  -2.990990e+02
   3.396670e+02  -4.384604e+02
   6.712976e+02   3.123266e+02
   4.856170e+01   6.861150e+02
  -6.135359e+02   6.421261e+02
  -7.982350e+02  -4.768710e+01
  -4.455095e+02  -7.048896e+02
   1.156380e+02  -7.532787e+02
   5.143375e+02  -1.610361e+02
   2.633062e+02   6.078251e+02
  -1.868642e+02   6.725078e+02
  -4.848967e+02   5.663698e-02
  -3.031504e+02  -5.670311e+02
   2.145114e+02  -5.864070e+02
   5.534576e+02  -1.272550e+02
   3.875940e+02   2.751725e+02
   6.247542e+01   4.308081e+02
  -1.381725e+02   2.599176e+02
  -1.491268e+02   2.372293e+01
   1.913657e+02  -2.551439e+01
   3.221604e+02   1.031059e+02
   1.149887e+02   3.923612e+02
  -4.137508e+02   3.533154e+02
  -7.729724e+02  -6.318222e+01
  -3.366979e+02  -3.895781e+02
   3.501643e+02  -3.873845e+02
   6.089705e+02   3.007321e+01
   3.168520e+02   4.203036e+02
  -2.646949e+02   4.639958e+02
  -5.181479e+02   2.003507e+02
  -3.948696e+02  -1.888771e+02
  -8.603168e+01  -4.022410e+02
   1.437231e+02  -2.029721e+02
   5.210950e+01   1.618640e+02
  -1.602289e+02   2.853351e+02
  -3.588297e+02  -6.065117e+01
  -1.072832e+02  -5.536939e+02
   3.235021e+02  -5.877473e+02
   4.275892e+02  -3.704675e+01
   1.500933e+02   4.417164e+02
  -2.477383e+02   2.409913e+02
  -2.545939e+02  -2.981453e+02
  -9.777908e-01  -5.100423e+02
   4.869505e+02  -1.354464e+02
   5.045930e+02   4.118700e+02
   2.449924e+02   5.392841e+02
  -3.240267e+02   3.506756e+02
  -6.305562e+02  -1.257540e+02
  -3.022698e+02  -3.197676e+02
   1.461828e+02  -2.886559e+02
   4.162725e+02  -9.526031e+01
   2.156433e+02   1.229656e+02
  -5.375453e+01   1.111804e+02
  -1.307090e+02  -1.407562e+02
   1.303885e+02  -1.771827e+02
   3.013181e+02   6.997150e+01
   2.087892e+02   2.506334e+02
  -2.087860e+02   2.468562e+02
  -2.783122e+02   1.117600e+02
  -2.109492e+02  -8.621966e+01
   1.793646e+00  -2.432772e+02
   1.852530e+02  -3.806288e+02
   2.725664e+02  -2.577873e+02
   2.789677e+02   1.217055e+02
   8.638441e+01   4.238592e+02
  -6.925264e+01   3.574927e+02
  -8.898937e+01   1.180396e+02
  -6.451792e+01   5.198655e+01
  -9.695525e+01   8.574602e+01
  -2.263469e+02   8.844429e+01
  -2.596808e+02  -6.179123e+01
  -1.191778e+02  -2.585914e+02
   7.003336e+01  -2.493176e+02
   1.982202e+02   1.892507e+00
   1.763077e+02   2.249654e+02
  -1.433437e+01   2.756527e+02
  -3.024723e+02   1.455973e+02
  -2.907926e+02  -2.186483e+02
  -1.421565e+02  -3.081433e+02
   2.956794e+01  -2.425599e+02
   1.442264e+02  -1.399307e+02
   1.874344e+02  -7.896922e+01
   1.153706e+02  -4.306118e+01
   2.451997e+02  -6.310041e+01
   3.798863e+02   6.187439e+01
   3.407288e+02   2.837959e+02
  -2.217834e+01   4.531438e+02
  -3.482385e+02   3.891719e+02
  -4.778454e+02   1.918536e+02
  -2.910146e+02  -1.089577e+02
  -4.851351e+01  -2.837033e+02
   1.229700e+02  -2.246856e+02
   4.649622e+01  -2.783433e+01
  -1.561824e+02   6.693723e+01
  -1.508435e+02  -2.108930e+01
  -6.345302e+01  -1.638161e+02
   1.158948e+02  -1.772514e+02
   1.233051e+02   5.449177e+01
  -2.028697e+01   1.901886e+02
  -1.782983e+02   3.199692e+01
  -1.706393e+02  -2.357769e+02
   3.165401e+01  -3.287804e+02
   2.523734e+02  -2.218033e+02
   3.855037e+02   3.373771e+01
   2.690239e+02   2.713184e+02
   8.570146e+01   2.356972e+02
  -9.554190e+01   1.942042e+02
  -1.202165e+02  -1.926247e+01
  -4.503744e+01   1.251254e+01
   7.445711e+01   6.112659e+01
   7.167680e+00   1.439296e+02
  -1.492416e+02   1.035566e+02
  -1.824408e+02  -4.992739e+01
  -3.599148e+01  -9.477119e+01
   6.183392e+01  -4.220545e+01
   5.145295e+01   1.190095e+02
  -1.210598e+02   8.035039e+01
  -2.384826e+02  -8.298859e+00
  -2.682988e+02  -1.393543e+02
  -4.342200e+01  -2.643886e+02
   1.788632e+02  -2.037527e+02
   2.788931e+02  -1.333943e+02
   1.477302e+02   3.010134e+01
  -5.444532e+00   5.972967e+01
  -9.542394e+01   1.487375e+00
   1.446436e+01  -8.915918e+01
   2.028453e+02  -7.462703e+01
   2.120299e+02   7.439555e+01
   6.900704e+01   2.017806e+02
  -9.109397e+01   1.246754e+02
  -1.332578e+02   1.345567e+01
  -1.037256e+02  -4.577840e+01
   6.429969e+00  -7.017254e+00
   4.458508e+01   6.660401e+01
  -1.054095e+02   1.019452e+02
  -2.302926e+02   1.374371e+01
  -1.891415e+02  -1.632533e+02
  -2.480921e+01  -2.288556e+02
   1.783761e+02  -1.140503e+02
   1.429393e+02  -2.207523e+01
   4.362972e+01   1.307107e+02
   6.520057e+00   8.398072e+01
  -8.656716e+01   4.572020e+01
  -5.492691e+00  -1.816109e+01
   1.387349e+01  -9.399457e+00
  -1.624853e+01  -6.263730e+00
  -1.141843e+02  -2.615055e+00
  -5.631423e+01  -1.318271e+02
  -5.291526e+00  -1.842423e+02
   1.595484e+02  -1.671708e+02
   2.196728e+02  -2.522061e+01
   2.009628e+02   1.360427e+02
   1.372182e+01   2.304299e+02
  -5.178096e+01   1.841032e+02
  -9.323304e+01   1.299425e+01
  -9.544036e+01  -8.253993e+01
  -3.463788e+01  -2.141312e+01
  -1.298929e+01   7.833625e+00
  -4.676654e+01   1.096849e+01
  -4.408878e+01  -7.006223e+01
   4.031529e+01  -8.881548e+01
   9.399693e+01  -3.450972e+01
   1.003105e+02   4.510242e+01
   7.437711e+00   1.218023e+02
  -1.190242e+02   8.753842e+01
  -1.663845e+02  -8.149925e+01
  -7.561674e+01  -1.910994e+02
   5.717297e+01  -2.095201e+02
   2.936514e+02  -1.145039e+02
   2.566518e+02   6.665832e+01
   1.125434e+02   1.572115e+02
  -4.507358e+01   1.325353e+02
  -1.210585e+02   1.120062e+02
  -8.396119e+01   5.294605e+01
  -5.605205e+01   1.333822e+02
  -5.487433e+01   7.824071e+01
  -1.285944e+02   2.165364e+01
  -7.621606e+01  -1.089742e+02
  -7.375717e+01  -1.991672e+02
   9.831549e+01  -1.847739e+02
   1.549141e+02  -2.972492e+01
   1.412722e+02   1.510581e+02
   4.370217e+01   1.432692e+02
  -3.884689e+01   7.921526e+01
  -4.786180e+01   2.378121e+00
  -2.433769e+01  -5.050028e+01
   4.297497e+01  -3.444416e+01
  -4.689913e+01  -7.144854e+00
  -6.139810e+01  -3.297981e+01
  -4.110168e+01  -4.271046e+01
   4.842699e+01  -3.198970e+01
   1.552392e+02  -1.227352e+00
   1.453733e+02   4.932890e+01
   4.709144e+00   1.310754e+02
  -1.128392e+02   7.049529e+01
  -1.618916e+02   7.512705e+01
  -1.604883e+01  -4.344543e+01
   1.803427e+01  -1.607117e+01
   4.775563e+01   6.154630e+01
   2.167071e+01   7.746537e+01
  -8.913045e+01   1.278019e+02
  -6.379685e+01  -2.141213e+01
  -1.130194e+01  -4.275538e+01
  -1.279581e+01  -4.923466e+01
  -3.826663e+01   2.024338e+01
  -3.139689e+01  -3.285203e+01
  -3.247292e+01  -5.933266e+01
   3.982710e+01  -1.181482e+02
   9.157290e+01  -1.600718e+02
   1.518828e+02  -2.115110e+01
   9.205487e+01   9.113100e+01
   7.032580e+00   1.213460e+02
  -4.309768e+01   4.774819e+01
  -2.167676e+01  -1.585216e+01
   6.937803e+01  -3.313008e+01
   1.421132e+02   3.775098e+01
   7.218978e+01   1.092652e+02
  -6.957172e+01   1.028665e+02
  -2.000924e+02   8.898825e+01
  -1.797504e+02  -8.941934e+00
  -3.413991e+01  -5.902602e+01
   5.827371e+01  -8.608889e+01
   2.289792e+01   2.680187e+00
  -3.647646e+01   2.625099e+01
  -9.203362e+01  -1.436781e+01
  -2.140413e+01  -1.133951e+02
   4.374864e+01  -1.547169e+02
   1.587207e+02  -8.822165e+01
   1.297256e+02   5.531131e+01
   4.639303e+01   1.566837e+02
  -5.048654e+01   1.632713e+02
  -9.183533e+01   4.029195e-01
  -5.879195e+01  -7.558353e+01
   2.111839e+01  -1.122070e+02
   1.016922e+01  -1.789523e+01
   4.428660e+01   4.472340e+01
  -2.754923e+01   4.709506e+01
   1.683987e+01  -1.517896e+01
   5.122155e+01   1.738340e+01
   6.195760e+01   9.610535e+01
   3.667490e+01   9.704420e+01
  -5.672188e+01   7.887084e+01
  -6.958625e+01  -3.906317e+01
  -9.463307e+01  -7.363107e+01
   1.636726e+01  -1.355779e+01
   7.024305e+01  -6.019051e+00
   9.153125e+01  -1.353068e+01
  -2.865710e-01   1.001883e+01
  -5.319529e+01   2.825119e+01
  -2.527612e+01  -1.768711e+00
  -1.016905e+00   9.593498e+00
   3.081789e+01  -3.448110e+01
  -4.109281e+01   3.189533e-01
  -8.287255e+01  -3.158882e+01
   9.004971e+00  -6.042938e+01
   1.339734e+02  -6.975270e+01
   2.239675e+02  -1.004774e+02
   1.126707e+02   5.910493e+01
   4.953535e+01   1.328506e+02
  -6.672524e+01   1.477798e+02
  -1.114810e+02   6.628523e+01
  -5.194591e+01  -2.465206e+01
  -6.090909e+01  -8.125472e+01
  -8.427800e+00  -2.800622e+01
  -8.375320e+00  -2.652723e+00
  -1.290592e+01  -3.829205e+01
  -4.840472e+01  -6.205530e+01
  -1.227488e+01  -4.723751e+01
   5.602455e+01  -3.976059e+00
   4.387198e+01   1.180235e+02
   4.375543e+00   1.464242e+02
  -6.529590e+01   2.918156e+01
  -1.236715e+02  -7.545107e+01
  -2.732888e+01  -1.172973e+02
   4.189542e+01  -6.533003e+01
   9.141181e+01  -6.181543e+01
   7.927860e+01   2.995022e+01
  -3.774811e+01   5.898080e+01
  -3.322196e+01   2.823746e+01
   2.565346e+01   3.418009e+01
   5.253879e+01  -3.738901e+01
   3.147808e+01   3.539838e+01
  -1.007712e+02   5.067801e+01
  -1.116591e+02   4.067003e+01
  -5.606949e+01  -4.684250e+01
   2.716446e+01  -9.786166e+01
   2.826795e+01  -5.260934e+01
   5.274928e+01  -5.935243e+01
   1.604189e+01   1.743671e+01
  -1.172281e+01   4.867728e+01
  -8.930851e+00  -4.363881e+01
  -2.963660e+01  -2.797926e+01
  -7.082450e+00  -6.520899e+01
   3.284602e+01   2.870938e+01
   5.442102e+01  -1.238511e+01
   2.398693e+01  -8.108294e+00
  -3.841148e+00  -4.404521e+01
   1.766497e+01  -2.051211e-01
  -1.249472e+01   4.298129e+00
   1.942097e+01   1.376586e+01
   1.856981e+00   7.354282e+00
  -5.024359e+01  -1.262913e+01
  -9.721903e+00  -1.525650e+01
   3.046283e+01  -1.425254e+01
   5.252318e+01   5.541355e+01
  -8.281980e+00   5.584979e+01
  -2.770072e+01  -8.539148e+00
  -3.142972e+01  -4.068481e+01
  -9.618638e+00   6.087793e+00
   2.201776e+01  -2.718258e+01
   5.331808e+01  -6.133528e+01
   6.404625e+01  -1.688924e+01
  -1.235484e+01  -2.207619e+01
  -1.607866e+01   9.501656e+00
  -1.433146e+01  -1.867650e+01
   5.329728e+01  -2.738058e+01
