
 $NMID
 id='ANONYMOUS ', fmtdat='(2E16.6)'
 volume=1.0
 tramp=1.0
 $END
  -3.126736e+03   1.005014e+02
  -1.987040e+03  -1.502224e+03
   1.075610e+02  -1.999328e+03
   1.333400e+03  -9.514565e+02
   8.647136e+02  -1.410061e+02
  -9.575719e+01   2.317457e+02
  -2.761874e+02  -2.391908e+02
   1.126016e+01  -5.591512e+02
   5.124167e+02  -4.200240e+02
   6.187602e+02   3.709670e+01
   3.452409e+02   5.420820e+02
  -6.379402e+01   6.904950e+02
  -3.299022e+02   1.160838e+02
  -1.438314e+02  -4.185653e+02
   1.848804e+02  -5.637299e+02
   3.042093e+02  -1.830538e+01
   1.984837e+02   4.842582e+02
  -1.827367e+02   5.329284e+02
  -4.641699e+02   2.032307e+02
  -3.494243e+02  -2.227071e+02
  -9.489471e+01  -3.472548e+02
   8.935021e+01  -2.580301e+02
   2.979961e+00  -3.999500e+01
  -1.893618e+02  -8.513069e+01
  -2.346913e+02  -2.562829e+02
   5.101007e+00  -3.434952e+02
   4.706553e+02  -1.567002e+02
   6.285413e+02   2.082868e+02
   2.359123e+02   3.527547e+02
  -3.421618e+02   2.556643e+02
  -5.115731e+02  -1.647108e+02
  -1.731480e+02  -4.632561e+02
   3.167452e+02  -3.009815e+02
   4.251015e+02  -1.509683e+02
   3.146666e+02   1.760332e+02
   3.059118e+00   2.609404e+02
  -2.660484e+01   1.720666e+02
   3.266006e+01  -1.191093e+02
   1.826688e+02  -8.280132e+01
   1.791170e+02   1.255323e+02
   1.239225e+01   5.038554e+02
  -3.099197e+02   4.206192e+02
  -4.091680e+02  -8.028383e+01
  -1.159082e+02  -3.462952e+02
   2.087090e+02  -1.187106e+02
   2.232623e+02   2.311890e+02
  -1.295910e+02   3.718235e+02
  -4.286015e+02   4.158512e+01
  -3.557181e+02  -3.945705e+02
  -1.384567e+02  -4.748248e+02
   2.785900e+02  -2.605390e+02
   5.432537e+02   4.303560e+01
   3.020052e+02   2.339220e+02
  -7.042593e+01   2.220477e+02
  -3.019216e+02   6.766201e+01
  -1.934388e+02  -4.263942e+01
   1.274587e+01  -2.299026e+00
   5.012005e+01   8.812748e+01
  -1.656965e+02   1.080771e+02
  -2.601758e+02  -4.156691e+01
  -1.386306e+02  -2.343710e+02
   1.635144e+02  -2.581973e+02
   3.339398e+02  -1.012014e+02
   2.851018e+02   1.478285e+02
  -1.412739e+01   2.893457e+02
  -2.445242e+02   3.876257e+02
  -3.672767e+02   1.601917e+02
  -2.393545e+02  -1.587547e+02
  -2.119778e+01  -3.691786e+02
  -3.129643e+01  -3.753532e+02
   4.104216e+01  -1.576771e+02
   1.071049e+02  -1.193292e+02
   1.183570e+02  -1.386663e+02
   2.197275e+02  -5.443021e+01
   2.409577e+02   1.362835e+02
   7.956322e+01   2.147906e+02
  -1.395516e+02   1.599817e+02
  -2.312958e+02  -3.881559e+01
  -1.195545e+02  -2.438319e+02
   3.060389e+01  -2.184189e+02
   2.449964e+02  -1.801043e+01
   2.626448e+02   1.577044e+02
   1.415185e+02   3.056143e+02
  -4.423550e+01   2.540829e+02
  -1.295173e+02   1.018833e+02
  -1.491117e+02   5.100442e+01
  -1.400481e+02   1.144327e+02
  -2.465450e+02   5.211375e+01
  -4.424327e+02  -7.248788e+01
  -3.204278e+02  -3.379088e+02
   5.053229e+01  -3.796362e+02
   4.191868e+02  -4.129186e+02
   4.265640e+02  -1.547011e+02
   3.114836e+02   1.151505e+02
   6.869624e+00   2.490774e+02
  -6.963826e+01   2.038462e+02
   9.323733e+00  -8.938682e+00
   1.433930e+02  -1.097853e+01
   1.485945e+02   5.198619e+01
   2.424918e+01   1.059374e+02
  -8.010458e+01   9.762377e+01
  -9.013519e+01  -3.550768e+01
   2.993588e+01  -1.249917e+02
   1.599383e+02   3.918924e+00
   1.429657e+02   2.643224e+02
  -2.144274e+01   3.326035e+02
  -2.125271e+02   1.713669e+02
  -3.423798e+02  -5.111651e+01
  -2.746014e+02  -2.079785e+02
  -6.633645e+01  -2.693874e+02
   1.364857e+02  -1.378873e+02
   1.609037e+02  -7.104319e+00
   7.616831e+01   5.873329e+01
  -7.060975e+01  -3.719414e+01
  -1.654635e+01  -1.423719e+02
   8.705332e+01  -7.614603e+01
   1.460204e+02   5.277383e+01
   4.588122e+01   8.105561e+01
  -1.307798e+02  -1.993784e+01
  -3.655810e+01  -1.158664e+02
   1.258150e+02  -1.199981e+02
   2.472141e+02   1.382858e+01
   2.203681e+02   1.042118e+02
   4.773514e+01   2.716284e+02
  -1.699751e+02   2.186753e+02
  -2.809290e+02   5.775862e+01
  -1.315255e+02  -5.970171e+01
   4.222693e+01  -9.113339e+01
   8.057061e+01  -1.878096e+01
  -8.216580e+01   7.409586e+01
  -1.856816e+02   2.652807e+01
  -1.883964e+02  -7.510929e+01
  -5.496690e+01  -1.933662e+02
   5.117547e+01  -1.548710e+02
   1.116591e+02  -2.273115e+01
   5.235333e+01   3.736637e+01
  -4.794700e+01  -2.728959e+01
   2.308229e+00  -1.010830e+02
   1.107308e+02  -1.594100e+02
   2.090724e+02  -3.833988e+00
   1.706196e+02   1.304964e+02
  -2.430030e+00   2.074491e+02
  -1.500456e+02   1.553045e+02
  -1.709546e+02  -1.584916e+00
  -3.857159e+01  -1.384125e+02
   3.529898e+01  -1.097130e+02
   5.718933e+01  -6.150198e+01
   2.410628e+01   3.192029e+01
  -2.287156e+01   8.577627e+00
   1.692537e+01  -2.463192e+01
   5.084507e+01   6.112018e+00
   8.744976e+01   1.272595e+02
   1.900935e+01   1.945827e+02
  -1.321438e+02   1.248339e+02
  -2.170283e+02  -9.684370e+00
  -1.802473e+02  -1.806635e+02
   1.343495e+01  -2.199522e+02
   1.155623e+02  -1.711890e+02
   1.082606e+02   5.217150e+00
   6.208018e+01   8.979376e+01
   3.959018e+01   1.056105e+01
   6.079886e+01  -3.845842e+01
   8.508490e+01   3.293768e+00
   5.375748e+01   7.422263e+01
  -4.542065e+01   6.723667e+01
  -1.180625e+02   5.488918e+01
  -1.210475e+02  -2.064422e+01
   4.819754e+01  -1.424486e+02
   1.294267e+02  -6.640811e+01
   2.180538e+02   6.032113e+01
   7.109669e+01   2.133114e+02
  -7.406588e+01   2.137590e+02
  -2.268694e+02   5.895443e+01
  -2.422685e+02  -1.123958e+02
  -1.079913e+02  -1.332134e+02
   9.927975e-01  -1.292827e+02
   1.106172e+02  -8.983958e+01
   7.616488e+01  -1.171104e+02
   3.501516e+01  -1.048876e+02
   8.929844e+01  -1.210719e+02
   1.130444e+02   1.636132e+01
   1.251704e+02   1.224755e+02
   1.395986e+01   2.149339e+02
  -1.097955e+02   1.398483e+02
  -1.698297e+02  -2.875767e+01
  -6.836255e+01  -1.197464e+02
   8.845833e+00  -1.347299e+02
   9.651688e+01  -1.194180e+02
   4.639776e+01   1.069689e+01
  -3.833425e+01   4.113692e+01
  -4.013864e+01   5.827104e+00
   3.554472e+01   1.626080e+01
   8.675762e+01   4.080319e+01
   3.468888e+01   6.135131e+01
  -6.863481e+01   2.187836e+01
  -1.735475e+02  -2.183275e+01
  -1.316724e+02  -5.280853e+01
  -7.848462e+00  -7.744938e+01
   1.722724e+02  -5.913189e+01
   1.582386e+02  -7.584535e+00
   3.046236e+01   5.699242e+01
  -7.658906e+01   3.440792e+01
  -2.072012e+01  -1.567993e+01
  -3.045299e+01  -3.715157e+01
   2.754870e+01  -4.657772e+01
   7.812201e+01   6.007499e+01
   2.922321e+01   7.491215e+01
   8.204686e+00   5.091826e+01
   1.415892e+01   4.312866e-01
   5.042513e+01  -3.865560e+01
   2.010718e+01   3.745780e+01
  -4.389969e+01   1.277175e+02
  -1.383673e+02   1.318406e+02
  -2.052339e+02   5.045010e+00
  -7.803335e+01  -9.414420e+01
   3.748846e+01  -1.578589e+02
   5.697658e+01  -5.177726e+01
   5.831081e+01   5.112565e+01
  -2.663369e+01   3.720351e+01
  -1.440329e+02  -6.445796e+01
  -7.304610e+01  -1.095219e+02
   8.985233e+01  -1.022751e+02
   1.640115e+02  -7.912486e+01
   1.391571e+02   6.169955e+01
  -5.154216e+00   8.314982e+01
  -7.518281e+01   7.153165e+01
   4.052941e+00   2.068405e+01
   7.041417e+01  -2.910023e+01
   5.770650e+01   4.280689e+01
  -4.039226e+00   1.136503e+02
  -1.001429e+02   1.539931e+02
  -1.437514e+02   7.575293e+01
  -7.408677e+01  -9.552270e+01
  -1.750529e+01  -1.849856e+02
   8.558695e+01  -1.362657e+02
   9.491224e+01  -4.843464e+00
   5.395634e+01   8.782222e+01
  -1.394763e+01   1.319704e+02
  -3.513889e+01  -2.974904e+01
  -5.973996e+01  -2.024777e+01
  -1.687858e+01   1.253117e+01
  -3.016229e+01  -1.628069e+01
  -2.713810e+01  -2.554188e+01
  -5.235403e+01  -1.135358e+02
  -1.315287e+01  -1.144537e+02
   6.502789e+01  -4.907053e-01
   1.184422e+02   4.662705e+01
   1.285066e+02   6.677396e+01
   1.871170e+01   1.329675e+01
  -4.695741e+01   2.473762e+01
  -7.707165e+01   3.322184e+01
  -2.191387e+00   3.030604e+01
   1.088386e+01  -3.718576e+01
   4.300580e+01  -4.966574e+01
  -1.573847e+01   4.018088e+01
  -1.826476e+01   1.643757e+01
   9.594401e+01   1.947953e+00
   6.201244e+01   5.756351e+01
  -2.936080e+01   1.642357e+01
  -9.202927e+01   8.503892e+01
  -2.188038e+02   5.543466e+01
  -1.276076e+02  -6.639671e+01
  -8.361724e+00  -1.638952e+02
   6.842290e+01  -1.500869e+02
   9.853346e+01  -6.274714e+01
   7.684008e+01  -1.601207e+00
   2.810578e+01   3.417440e+01
  -2.693309e+01  -1.739863e+01
   9.767795e-01  -1.334255e+01
   1.582311e+01   3.799560e+01
   3.414618e+01   9.801239e+01
  -1.972509e+01   5.489056e+01
  -7.650506e+01  -3.474218e+00
  -7.340722e+01  -8.009021e+01
  -8.067783e+00  -9.313522e+01
   7.138302e+01  -2.748645e+01
   1.088338e+02   4.524619e+01
   7.263636e+01   1.330795e+02
  -6.732367e+01   6.613613e+01
  -8.274878e+01  -1.157094e+01
  -4.111350e+01  -8.906604e+01
   2.122868e+01  -9.436031e+01
   4.125618e+01  -5.272890e+01
   3.520322e+00  -3.369167e+01
  -5.123213e+01  -1.528958e+01
  -3.857991e+00  -5.760902e+01
   9.078596e+01  -6.220668e+01
   1.247817e+02  -4.452668e+01
   6.666945e+01   3.029924e+01
  -3.489879e+01   9.134747e+01
  -4.268763e+01   6.707796e+01
  -5.545076e+01  -1.151737e+01
  -1.484958e+01  -6.684526e+01
   6.241897e+01  -1.581759e+01
   1.009489e+00  -2.219471e+01
   1.099151e+01   2.907291e+01
  -1.560214e+01   1.468831e+01
   3.030304e+00  -1.141975e+01
  -8.804807e+01  -5.640679e+01
   1.374464e+01  -1.350117e+01
   2.775409e+01   5.105143e+01
  -3.426903e+01   1.211862e+01
  -2.373715e+01  -3.034439e+01
   1.870981e+01  -2.369838e+01
   8.564271e+00  -1.683695e+01
   3.854987e+01   4.262197e+01
   4.560958e+00   3.834352e+01
  -2.704499e+01   3.771919e+01
  -8.145707e+01  -2.362235e+01
  -1.604460e+01  -6.921243e+01
   7.396535e+01  -4.302005e+01
   9.353259e+01  -2.266052e+01
   4.831659e+01   3.338797e+01
  -3.683394e+01   8.053585e+01
  -9.009196e+01   3.756707e+01
   3.077849e-01   2.486272e+01
   5.881791e+01   2.039900e+00
   2.621749e+01   3.015631e+01
  -3.299248e+01   6.834452e+01
  -5.175649e+01  -1.057514e+01
