
 $NMID
 id='ANONYMOUS ', fmtdat='(2E16.6)'
 volume=1.0
 tramp=1.0
 $END
  -4.313088e+03  -2.104562e+02
  -2.472220e+03  -2.547700e+03
   6.694388e+02  -2.683340e+03
   1.909518e+03  -7.316071e+02
   1.061318e+03   5.168258e+02
  -4.568718e+02   6.456177e+02
  -8.048835e+02  -3.190528e+02
   6.105387e+01  -9.663972e+02
   7.539052e+02  -8.290858e+02
   8.661295e+02   1.230115e+02
   4.544176e+02   7.061506e+02
  -1.202812e+02   9.216027e+02
  -5.795652e+02   1.545184e+02
  -4.061596e+02  -6.722632e+02
   2.721089e+02  -6.449751e+02
   5.996772e+02   5.248590e+00
   2.684123e+02   6.676982e+02
  -3.159908e+02   7.142100e+02
  -5.814989e+02   2.215850e+02
  -4.314712e+02  -3.185972e+02
  -4.279516e+01  -4.295039e+02
   2.191158e+02  -2.339945e+02
   2.083699e+02  -7.092650e+01
  -1.600165e+02   2.484463e+01
  -3.876652e+02  -1.847898e+02
  -1.754822e+02  -4.957990e+02
   5.089061e+02  -3.348658e+02
   8.254134e+02   1.830432e+02
   3.710599e+02   5.302046e+02
  -3.787796e+02   4.544988e+02
  -7.600145e+02  -6.810736e+01
  -2.765464e+02  -4.945299e+02
   2.613734e+02  -4.374431e+02
   5.517988e+02  -1.367285e+02
   3.950710e+02   2.197792e+02
   4.948627e+01   4.837555e+02
  -1.482654e+02   3.099093e+02
  -1.013622e+02  -1.903307e+02
   2.095231e+02  -4.099219e+02
   4.050430e+02   3.635339e+01
   1.833995e+02   6.648599e+02
  -3.324420e+02   6.303873e+02
  -5.447243e+02   3.923929e+01
  -2.107867e+02  -4.931940e+02
   2.913796e+02  -2.738150e+02
   3.117776e+02   3.547289e+02
  -2.795816e+01   5.761378e+02
  -5.315648e+02   1.234523e+02
  -6.038819e+02  -4.019982e+02
  -1.687158e+02  -6.224404e+02
   3.880489e+02  -4.056529e+02
   6.508073e+02   8.021534e+01
   3.823507e+02   4.102449e+02
  -1.413955e+02   3.286721e+02
  -4.458583e+02   2.340312e+00
  -2.527591e+02  -1.381513e+02
   6.101517e+01  -7.920963e+01
   8.623441e+01   1.512955e+02
  -1.579010e+02   1.761837e+02
  -3.522151e+02  -3.517299e+01
  -1.341862e+02  -2.967185e+02
   2.162390e+02  -2.848864e+02
   3.180637e+02  -1.217046e+02
   2.503015e+02   9.981749e+01
  -7.700718e+01   2.564890e+02
  -2.899028e+02   3.609621e+02
  -4.131662e+02   2.173762e+02
  -2.533474e+02  -1.559450e+02
  -4.142953e+00  -4.585205e+02
   1.101881e+02  -3.753695e+02
   1.557424e+02  -1.672306e+02
   7.488607e+01  -6.968595e+00
   7.822754e+01  -7.401874e+01
   2.495174e+02  -1.248331e+02
   2.425386e+02   7.568278e+01
   1.587493e+02   2.465395e+02
  -7.325306e+01   2.612345e+02
  -2.403526e+02   1.138386e+00
  -2.072322e+02  -2.531476e+02
   3.888044e+01  -3.113166e+02
   2.828978e+02  -1.285630e+02
   3.289303e+02   2.106297e+02
   1.627010e+02   4.125726e+02
  -8.643298e+01   3.394079e+02
  -2.669319e+02   1.555166e+02
  -1.485865e+02   1.697757e+01
  -1.518244e+02   2.296889e+01
  -2.591614e+02   5.478930e+01
  -3.903594e+02  -1.276204e+02
  -3.435187e+02  -3.120697e+02
   3.711294e+01  -4.879629e+02
   4.044260e+02  -3.752367e+02
   5.768511e+02  -1.771012e+02
   3.528968e+02   1.653969e+02
   6.871460e+01   2.766329e+02
  -1.200031e+02   2.885747e+02
  -1.137063e+02   5.194605e+01
   4.860390e+01  -9.273881e+01
   1.858996e+02   4.394927e+01
   9.357180e+00   1.893194e+02
  -1.403450e+02   1.169689e+02
  -1.435252e+02  -1.024358e+01
   2.621824e+01  -2.040185e+02
   1.707427e+02  -5.387707e+01
   1.862320e+02   2.733933e+02
  -6.224881e+01   3.667133e+02
  -2.707937e+02   1.617495e+02
  -3.300147e+02  -7.370785e+01
  -2.134125e+02  -3.025886e+02
  -6.928516e+01  -2.804693e+02
   1.363400e+02  -1.850150e+02
   1.886789e+02   5.751521e+00
   4.353876e+01   2.663060e+01
  -7.217581e+01  -1.697054e+01
   7.143145e+00  -1.049051e+02
   1.170081e+02  -7.806882e+01
   1.694734e+02   4.077089e+01
   4.050264e+01   6.741779e+01
  -5.751277e+01   1.557306e+01
  -5.586828e+01  -7.633419e+01
   1.375925e+02  -1.099118e+02
   3.074927e+02  -1.188062e+00
   2.604299e+02   1.768035e+02
   3.143155e+01   3.048728e+02
  -2.622407e+02   2.504583e+02
  -3.101106e+02   1.125920e+02
  -1.478604e+02  -1.933544e+01
   6.210819e+01  -1.635628e+02
   1.022439e+02   6.974972e+00
  -6.695161e+01   8.893555e+01
  -2.180079e+02   4.173912e+01
  -2.330160e+02  -1.183373e+02
  -6.666186e+01  -2.494574e+02
   1.036525e+02  -1.461807e+02
   1.825432e+02  -1.660363e+01
   3.781447e+01   3.612786e+01
  -4.804669e+01  -9.236794e+00
  -2.433171e+00  -9.365446e+01
   7.086814e+01  -1.565260e+02
   1.850345e+02  -1.490699e+01
   2.084408e+02   1.732850e+02
  -1.379642e-01   2.168709e+02
  -9.589625e+01   1.519230e+02
  -1.875116e+02   4.546202e+01
  -6.231787e+01  -1.085463e+02
   6.814117e+01  -8.341727e+01
   1.130474e+02  -1.160103e+01
  -5.966611e+00   6.629382e+01
  -2.833853e+01  -1.413873e+01
   6.055338e+01   7.781522e+00
   6.718891e+01   1.173010e+01
   8.863631e+01   3.582555e+01
   2.583088e+00   1.941225e+02
  -1.103797e+02   1.509169e+02
  -2.376460e+02  -3.100721e+01
  -2.101836e+02  -1.891442e+02
  -8.715533e+01  -2.337935e+02
   1.166863e+02  -1.750020e+02
   1.564517e+02  -2.859540e+01
   8.704539e+01   6.648214e+01
   3.012642e+01   3.496151e+01
   5.970963e+01  -1.415503e+01
   4.692750e+01  -1.413954e+01
   3.651803e+01   7.230232e+01
  -3.359010e+01   1.130867e+02
  -1.296462e+02   5.881519e+01
  -9.919124e+01  -5.722443e+01
   2.028057e+01  -1.178590e+02
   1.481110e+02  -1.344725e+02
   2.112029e+02   9.125394e+01
   1.452716e+02   2.314292e+02
  -1.754178e+02   2.177710e+02
  -3.014679e+02   1.013544e+02
  -2.829385e+02  -8.113348e+01
  -8.642051e+01  -1.945644e+02
   4.654273e+01  -1.723368e+02
   9.137353e+01  -7.635247e+01
   1.280022e+02  -8.001415e+01
   6.318206e+01  -1.131872e+02
   6.048335e+01  -1.329376e+02
   1.330056e+02   2.987680e+01
   1.553153e+02   1.537841e+02
   6.555126e+01   2.461869e+02
  -1.111256e+02   1.861921e+02
  -2.244268e+02   3.050297e+01
  -1.233844e+02  -1.473291e+02
   3.735328e+00  -1.627517e+02
   5.002811e+01  -1.063740e+02
   4.386680e+01  -1.536726e+01
  -2.612805e+01   8.105521e+01
   1.586000e+01  -1.269469e+01
   3.451274e+01   7.759315e-01
   6.990763e+01   4.335830e+01
   4.218001e+01   4.621722e+01
  -6.025653e+01   6.536113e+01
  -1.789628e+02  -2.971878e+00
  -1.112408e+02  -5.091295e+01
  -1.829780e+01  -6.676794e+01
   1.223443e+02  -8.751834e+01
   1.878435e+02   4.826707e+00
   4.841580e+01   2.085067e+01
  -7.977105e+01  -7.153696e+00
  -1.158234e+02  -4.050538e+01
  -1.190586e+01  -7.302513e+01
   8.442516e+01  -5.244950e+01
   4.196672e+01  -2.994141e+00
   6.632806e+01   2.996293e+01
   5.546130e+01   7.651649e+01
   3.704115e+01   4.458090e+00
   6.909199e+01  -7.655447e+00
   1.689954e+01   4.825561e+01
  -4.749387e+01   1.487034e+02
  -1.045570e+02   1.496902e+02
  -1.375378e+02   1.072926e+01
  -1.226793e+02  -8.845983e+01
   3.895452e+00  -1.596765e+02
   8.129607e+01  -8.624509e+01
   7.668985e+01  -1.265339e+01
  -1.171287e+01   1.978229e+01
  -1.219736e+02  -1.618149e+01
  -1.029070e+02  -1.401385e+02
   5.331422e+01  -1.347138e+02
   2.006800e+02  -5.189115e+01
   1.611887e+02   6.067381e+01
   7.531016e+01   1.007423e+02
  -8.067494e+01   5.027526e+01
  -5.520715e+01  -2.499266e+01
   7.724329e+01  -3.847775e+01
   9.791746e+01   2.873162e+01
   4.536223e+01   1.422549e+02
  -8.093352e+01   1.591647e+02
  -1.547626e+02   1.145170e+02
  -1.565568e+02  -7.208929e+01
  -7.234761e-01  -2.087623e+02
   9.869029e+01  -1.540440e+02
   8.671630e+01   3.461119e+00
   8.102026e+01   1.025719e+02
   4.800269e-01   8.535841e+01
  -4.656193e+01   7.581263e+00
  -8.908662e+01  -9.432731e+01
  -2.890039e+01  -3.910764e+01
   1.227074e+01   1.968615e+01
   6.104391e-01   1.120700e+01
  -6.550468e+01  -1.016108e+02
  -1.159230e+01  -9.479650e+01
   5.244171e+01  -5.341319e+01
   1.372497e+02   3.422457e+01
   1.105825e+02   6.443592e+01
  -6.949298e+00   5.302728e+01
  -9.568861e+01   1.634277e+01
  -6.852794e+01  -2.438032e+01
  -4.126979e+01  -1.607824e+01
   9.949183e+01  -4.580576e+00
   5.714197e+01  -3.401726e+01
  -2.366350e+01   1.543650e+01
  -2.428551e+01  -2.251403e+01
   3.248898e+01   5.821957e+01
   6.679354e+01   4.253046e+01
   1.509558e+01   6.959489e+01
  -1.342345e+02   1.165724e+02
  -1.700718e+02   8.932885e+01
  -1.287224e+02  -7.263197e+01
  -2.823733e+01  -1.539427e+02
   7.604325e+01  -1.614643e+02
   1.345429e+02  -4.259954e+01
   9.437715e+01   6.676904e+01
   1.312243e+00   7.053371e+01
   4.445680e+01  -2.335125e+01
   3.421941e+01   1.134630e+01
   5.929491e+01   3.041421e+01
   5.856817e+01   7.293690e+01
  -2.436075e+01   7.564040e+01
  -1.094274e+02  -2.098236e+01
  -7.666624e+01  -2.165998e+00
  -1.744457e+00  -1.503222e+02
   9.608506e+01  -3.643809e+01
   9.474145e+01   9.812391e+01
   2.462121e+01   8.711578e+01
  -8.379755e+01   8.274550e+01
  -1.241101e+02  -3.032768e+01
  -3.786223e+01  -7.616946e+01
   2.237455e+01  -5.966811e+01
   8.560224e+01  -3.839988e+01
  -4.471379e+01  -6.857828e+01
  -1.080370e+02   2.475137e+01
  -9.670253e+00  -1.487252e+01
   9.276947e+01  -3.454782e+01
   8.335853e+01  -6.774611e+01
   1.088438e+02   2.937373e+01
  -1.199161e+01   5.873771e+01
  -4.546499e+01   5.614329e+01
  -4.393734e+01  -1.996130e+00
  -6.796884e+01  -4.555783e+01
   2.563123e+01  -7.251766e+01
   5.531145e+01  -1.724652e+00
   2.522853e+01   4.300604e+01
  -1.981313e+01   8.387252e+01
  -7.025551e+01   6.202020e-01
  -1.041347e+01  -1.019539e+01
  -2.771961e+01  -2.436188e+01
   1.628157e+01   4.968881e+01
  -4.575201e+00   1.727005e+01
   4.175024e+01  -3.064791e+01
  -3.282675e+00  -3.382638e+01
   1.703003e+01  -2.763234e+01
   9.180034e+00   8.402427e+01
  -1.611626e+01   9.466650e+01
  -5.911326e+01  -2.274343e+00
  -3.234135e+01  -2.832082e+01
  -1.088353e+01  -9.858602e+01
   5.683819e+01  -1.754110e+01
   1.232657e+02   3.754594e+01
   6.214596e+01   5.940329e+01
  -2.834770e+01   4.489369e+01
  -4.110757e+01   6.196301e+01
  -5.469986e+00  -2.466547e+01
   3.730135e+01   1.353856e+01
   4.503464e+01   3.173674e+01
  -3.010825e+01  -5.021570e+00
  -8.525628e+01   3.685477e+01
