
 $NMID
 id='ANONYMOUS ', fmtdat='(2E16.6)'
 volume=1.0
 tramp=1.0
 $END
  -3.837292e+03   1.974936e+02
  -2.215577e+03  -2.082603e+03
   6.609686e+02  -2.529659e+03
   1.726389e+03  -8.522471e+02
   8.184631e+02   3.708156e+02
  -4.335601e+02   3.615937e+02
  -7.331166e+02  -4.011981e+02
   1.853025e+02  -8.338156e+02
   7.825059e+02  -6.978680e+02
   8.034480e+02   1.478431e+02
   3.630978e+02   7.322292e+02
  -2.462606e+02   7.072029e+02
  -4.759356e+02   4.649247e+01
  -2.992840e+02  -6.136166e+02
   2.167925e+02  -6.364168e+02
   5.042590e+02   4.418873e+01
   2.313099e+02   6.619821e+02
  -3.051059e+02   5.883662e+02
  -5.215103e+02   1.083993e+02
  -3.995925e+02  -2.808562e+02
   2.013699e-01  -3.841555e+02
   2.236377e+02  -2.367590e+02
   1.519620e+02   6.044088e+01
  -2.139481e+02   7.473118e+01
  -4.110488e+02  -2.173436e+02
  -1.301742e+02  -5.059361e+02
   4.882458e+02  -3.615667e+02
   7.682930e+02   1.627249e+02
   3.527337e+02   4.732989e+02
  -4.611631e+02   3.834425e+02
  -6.719210e+02  -1.332299e+02
  -2.712727e+02  -5.216097e+02
   2.804173e+02  -4.687162e+02
   4.730346e+02  -1.803091e+02
   3.142510e+02   2.503864e+02
   6.041448e+01   4.405423e+02
  -1.725775e+02   2.436525e+02
  -8.967508e+01  -2.644219e+02
   2.145356e+02  -3.822616e+02
   3.784337e+02   1.376391e+02
   1.294561e+02   6.075699e+02
  -3.476017e+02   5.678962e+02
  -5.167707e+02  -4.450666e+01
  -1.758929e+02  -5.105625e+02
   2.596880e+02  -2.597963e+02
   3.505816e+02   3.425581e+02
  -1.566342e+02   5.185775e+02
  -5.648470e+02   6.958984e+01
  -6.211313e+02  -4.133947e+02
  -1.529079e+02  -5.236446e+02
   3.861860e+02  -3.065862e+02
   5.627309e+02   2.756554e+01
   3.400205e+02   3.289281e+02
  -1.132154e+02   2.970591e+02
  -4.208620e+02   1.031484e+01
  -2.146595e+02  -1.281005e+02
   4.922094e+01  -6.925993e+01
   8.914714e+01   9.909961e+01
  -1.695708e+02   1.063098e+02
  -2.757749e+02  -8.309720e+01
  -1.053919e+02  -2.784878e+02
   2.399792e+02  -2.317835e+02
   3.383585e+02  -7.183448e+01
   2.141667e+02   6.047194e+01
   9.150379e+00   2.598267e+02
  -2.335502e+02   3.383660e+02
  -3.071781e+02   2.347425e+02
  -2.829803e+02  -8.791721e+01
  -1.263173e+02  -4.718561e+02
   1.496860e+02  -3.423367e+02
   5.272061e+01  -1.640032e+02
   5.319968e+01  -4.860868e+01
   7.666609e+01  -8.115834e+01
   2.148576e+02  -8.367572e+01
   2.147215e+02   8.869995e+01
   1.419402e+02   3.045822e+02
  -7.139687e+01   1.911024e+02
  -2.426382e+02   1.249745e+01
  -2.188251e+02  -2.366760e+02
   3.977627e+01  -3.290504e+02
   2.580349e+02  -1.159962e+02
   3.496735e+02   2.140779e+02
   1.815310e+02   3.273822e+02
  -8.068585e+01   2.654566e+02
  -1.636191e+02   1.223284e+02
  -1.213051e+02   6.481638e+01
  -1.230171e+02   1.063871e+02
  -2.493786e+02   6.264650e+01
  -4.001186e+02  -5.820956e+01
  -3.042272e+02  -3.207997e+02
   3.296115e+01  -4.465336e+02
   3.690191e+02  -4.250736e+02
   4.314255e+02  -1.612670e+02
   2.928512e+02   1.246390e+02
   5.158158e+01   2.952176e+02
  -9.765110e+01   2.029043e+02
  -5.300146e+01  -7.616947e+00
   1.473564e+02  -1.315903e+02
   1.967355e+02  -2.087147e+01
  -3.066558e+01   1.494769e+02
  -1.583243e+02   1.672431e+02
  -1.556491e+02  -7.853208e+01
   4.413566e+01  -1.429078e+02
   1.942668e+02  -1.639410e+01
   1.597906e+02   2.217166e+02
  -1.028018e+01   3.524536e+02
  -2.373709e+02   2.208202e+02
  -3.333220e+02  -4.606616e+01
  -2.941110e+02  -2.602993e+02
  -1.172220e+02  -2.751259e+02
   1.565954e+02  -1.883604e+02
   1.684747e+02  -2.555926e+01
   2.590843e+01   5.364090e+01
  -9.658627e+01  -5.790755e+01
  -2.446144e+01  -1.021164e+02
   1.210875e+02  -9.159126e+01
   2.005933e+02   1.468277e+01
   4.641258e+01   9.737115e+01
  -8.572519e+01   1.840162e+01
  -4.866843e+01  -9.453221e+01
   1.381724e+02  -7.943786e+01
   2.191851e+02  -1.801868e+01
   2.540473e+02   1.515145e+02
   5.160343e+01   2.766497e+02
  -1.742066e+02   2.675286e+02
  -2.487336e+02   8.662082e+01
  -1.541309e+02  -2.600210e+01
   3.899223e+01  -1.602281e+02
   1.255752e+02   6.186707e+00
  -6.622495e+01   7.303076e+01
  -1.690165e+02   7.019707e+01
  -1.922489e+02  -1.257146e+02
  -6.965344e+01  -2.009213e+02
   8.545715e+01  -1.678218e+02
   1.407007e+02  -4.139119e+01
   9.096867e+01   3.305577e+01
  -2.355175e+01  -3.048916e+01
  -5.065780e+01  -8.574673e+01
   4.207011e+01  -1.060994e+02
   2.089547e+02  -2.092891e+01
   2.314042e+02   1.133087e+02
  -4.297210e+00   2.245067e+02
  -1.546496e+02   1.212194e+02
  -1.848480e+02   1.675433e+01
  -6.729189e+01  -1.096483e+02
   5.972738e+01  -1.102997e+02
   9.206055e+01  -2.611973e+01
   2.948582e+01   3.930118e+01
  -4.112700e+01   8.251154e+00
   6.767215e+00  -3.922546e+01
   8.148165e+01   2.328172e+01
   1.186292e+02   5.342192e+01
  -1.411431e+01   1.935351e+02
  -9.391271e+01   1.273634e+02
  -2.681240e+02   4.547693e+01
  -1.905817e+02  -1.439565e+02
  -5.696955e+01  -2.151574e+02
   1.043316e+02  -1.688326e+02
   9.174625e+01  -1.843293e+00
   5.406542e+01   7.573876e+01
   3.540663e+01   6.363546e+00
   2.769888e+01  -6.355032e+00
   1.037071e+02   8.277953e-01
   3.037668e+01   6.560678e+01
  -3.646180e+01   1.432594e+02
  -1.170254e+02   1.074185e+02
  -9.931961e+01   3.820285e+00
  -1.541563e+01  -1.244765e+02
   1.417210e+02  -1.324946e+02
   2.003237e+02   7.633753e+01
   1.055676e+02   1.520596e+02
  -1.113476e+02   2.371927e+02
  -2.986745e+02   8.032800e+01
  -2.504255e+02  -1.056385e+02
  -8.710705e+01  -1.936958e+02
   4.410579e+01  -1.255505e+02
   1.371306e+02  -6.551291e+01
   9.609981e+01  -6.879777e+01
   6.483501e+01  -7.841236e+01
   9.146928e+01  -8.291412e+01
   1.229589e+02   1.406878e+00
   8.801534e+01   1.127654e+02
   3.470470e+01   2.256792e+02
  -1.118634e+02   1.434124e+02
  -1.836178e+02   1.902213e+01
  -1.526408e+02  -1.217009e+02
  -1.129469e+00  -1.256301e+02
   9.196661e+01  -7.225344e+01
   4.453340e+01   2.407126e+01
   2.590201e+00   5.311422e+01
  -2.279078e+01   3.809898e+00
   2.194576e+01  -1.468927e+01
   8.136151e+01  -2.058928e+01
   8.804550e+01   4.714411e+01
  -2.742902e+01   4.507975e+01
  -1.349162e+02  -5.648642e+00
  -1.506981e+02  -3.802472e+01
  -1.510553e+01  -5.673911e+01
   1.269801e+02  -1.358858e+02
   1.449916e+02  -3.264082e+01
   4.361017e+01   2.719886e+01
  -7.006569e+01   5.266028e+01
  -6.380671e+01  -4.658631e+01
  -1.968187e+01  -4.711153e+01
   6.012405e+01  -7.035370e+01
   4.810958e+01  -1.077265e+01
   4.178475e+01   7.179121e+01
   3.430889e+01   2.201080e+01
   7.145696e+01  -2.828011e+00
   1.007918e+02  -2.550223e+01
   7.114144e+01   5.303632e+01
  -5.069784e+01   1.547832e+02
  -1.035672e+02   9.450494e+01
  -1.716245e+02   8.027505e+01
  -1.263348e+02  -1.009866e+02
  -2.320724e+01  -1.179491e+02
   8.565803e+01  -3.766556e+01
   4.869639e+01  -5.304541e+00
  -4.518709e+01   6.343342e+01
  -1.359141e+02  -1.102393e+01
  -4.184269e+01  -7.832476e+01
   5.552783e+01  -7.686914e+01
   1.571996e+02  -5.405979e+01
   2.006175e+02   1.153521e+01
   1.147518e+01   7.508207e+01
  -6.189925e+01   9.438171e+01
  -5.909714e+01   1.637963e+01
   3.437416e+01  -4.311783e+01
   4.541721e+01   2.685837e+01
   5.229647e+01   1.255563e+02
  -1.173154e+02   1.761122e+02
  -1.444482e+02   8.967538e+01
  -1.366672e+02  -1.209910e+02
  -5.630206e+01  -1.267289e+02
   8.327139e+01  -1.653304e+02
   1.372976e+02   1.874294e+00
   4.464185e+01   1.159428e+02
   6.244201e-01   6.051308e+01
  -1.565885e+01   2.290066e+01
  -5.351463e+01  -1.391231e+01
  -2.359772e+01   1.310142e+01
  -4.185052e+01   2.315620e+01
  -5.343239e+01  -1.238760e+01
  -3.041024e+01  -8.290141e+01
  -2.012820e+01  -7.716387e+01
   6.791828e+01  -4.403436e+01
   9.415786e+01   5.066948e+01
   1.051087e+02   6.628091e+01
   2.933961e+01   2.172650e+01
  -6.178200e+01   4.008315e+01
  -9.572119e+01   8.424007e+00
   7.046389e+00   2.692277e+00
   4.149582e+01   1.273914e+01
   9.627825e+00  -1.141416e+00
  -2.197633e+01   1.701882e+01
   1.029057e+01  -3.654665e+01
   8.768736e+01  -1.385273e+01
   9.026686e+01   7.510370e+00
   5.752924e+01   9.975815e+01
  -1.388426e+02   1.200145e+02
  -1.647694e+02   2.946756e+01
  -1.259813e+02  -5.743032e+01
  -6.930285e+01  -1.465886e+02
   5.235515e+01  -1.448228e+02
   8.188829e+01  -5.176418e+01
   7.534705e+01   1.451213e+00
   2.885166e+01   1.135061e+01
  -8.596798e+00   2.179441e+01
   1.714882e+01  -1.452624e+00
   9.140701e+00   2.142877e+01
   2.603017e+01   8.486475e+01
  -4.604177e+01   5.776580e+01
  -8.829001e+01  -1.601592e-01
  -3.628326e+01  -9.967125e+01
   2.360871e+01  -1.244466e+02
   7.617001e+01  -3.575515e-01
   1.348969e+02   1.169750e+02
   2.435118e+01   8.533437e+01
  -5.539776e+01   8.809348e+01
  -1.015813e+02   8.890502e+00
  -6.481973e+01  -9.321455e+01
   2.321901e+01  -8.695571e+01
   3.177540e+01  -5.822483e+01
  -4.816175e+01   1.478686e+01
  -4.605796e+01   1.951616e+01
  -1.328645e+01  -1.704336e+01
   6.465131e+01  -4.733848e+01
   1.201842e+02  -2.129106e+01
   4.897648e+01   3.197363e+01
  -1.176492e+01   8.220934e+01
  -3.850719e+01   9.116072e+01
  -5.396457e+01  -2.005960e+01
  -1.884029e+00  -6.131286e+01
   6.977430e+00  -4.009434e+01
   4.974628e+01   1.025904e+01
   2.247863e+01   3.194133e+01
   4.929339e+00   5.797772e+01
  -6.462233e+01  -1.841470e+01
  -8.546406e+00  -2.848442e+01
  -6.634415e+00   1.841561e+01
   9.518323e+00   2.320502e+01
   3.067268e+01  -2.316658e+01
   1.635414e+01   3.249254e+00
   1.460963e+01  -6.725659e+01
   2.777895e+01  -2.677406e+01
   3.179013e+01   4.642711e+01
  -1.557766e+00   5.823348e+01
  -6.020920e+01   3.040685e+01
  -6.034578e+01  -7.187028e+01
  -3.796962e+01  -5.635500e+01
   6.695945e+01  -1.061245e+01
   4.674172e+01   5.304204e+00
   7.821929e+01   3.248167e+01
  -6.405657e+01   3.959526e+01
  -5.654382e+01   2.009591e+01
  -2.535331e+01   1.796785e+01
   1.507848e+01   1.530816e+01
   4.206628e+01  -1.436952e+00
  -5.740596e+01   4.095521e+00
  -7.108899e+01   3.566642e+01
