
 $NMID
 id='ANONYMOUS ', fmtdat='(2E16.6)'
 volume=1.0
 tramp=1.0
 $END
   3.674534e+03  -4.402321e+02
   2.230857e+03   1.983529e+03
  -3.804204e+02   2.427690e+03
  -1.492243e+03   9.126764e+02
  -8.246239e+02  -3.872672e+02
   4.106371e+02  -3.757466e+02
   5.906141e+02   3.438196e+02
   9.055744e+01   9.131346e+02
  -7.313632e+02   6.632540e+02
  -7.973129e+02  -2.764448e+01
  -4.078213e+02  -6.586115e+02
   1.359084e+02  -7.814831e+02
   5.204477e+02  -8.903582e+01
   3.339844e+02   5.222277e+02
  -2.179848e+02   6.430704e+02
  -5.162588e+02   8.551056e+00
  -2.452918e+02  -6.016889e+02
   2.508806e+02  -6.258277e+02
   5.109475e+02  -1.428869e+02
   4.119501e+02   3.330433e+02
   7.821076e+01   3.736214e+02
  -2.125710e+02   2.436508e+02
  -1.661783e+02  -5.721702e+01
   1.746652e+02  -6.848978e+01
   3.528142e+02   1.850118e+02
   1.541809e+02   3.970425e+02
  -4.471779e+02   3.206697e+02
  -7.607204e+02  -9.685808e+01
  -3.394058e+02  -5.388055e+02
   2.857894e+02  -4.456571e+02
   6.337186e+02   5.799001e+01
   2.825421e+02   4.068668e+02
  -2.621008e+02   4.813140e+02
  -5.194861e+02   2.005364e+02
  -4.179612e+02  -1.967492e+02
  -9.517388e+01  -4.177407e+02
   1.447439e+02  -2.752738e+02
   6.545637e+01   2.208945e+02
  -1.829799e+02   3.764538e+02
  -2.905160e+02  -4.579432e+01
  -1.042481e+02  -5.300906e+02
   3.281722e+02  -6.022421e+02
   4.564413e+02  -2.107326e+00
   2.268255e+02   3.750485e+02
  -2.003264e+02   2.811376e+02
  -3.443284e+02  -2.258345e+02
   2.611195e+01  -4.551343e+02
   4.939114e+02  -1.348461e+02
   5.608894e+02   3.952424e+02
   1.787012e+02   5.529547e+02
  -3.477809e+02   3.078448e+02
  -5.612677e+02  -7.846052e+01
  -3.855588e+02  -3.915750e+02
   1.525040e+02  -3.298726e+02
   3.861536e+02  -5.322129e+01
   2.254412e+02   1.616724e+02
  -8.757387e+01   1.023166e+02
  -1.260858e+02  -9.812939e+01
   1.306526e+02  -1.263286e+02
   3.339660e+02   2.629872e+01
   1.641210e+02   2.579997e+02
  -1.705959e+02   2.701276e+02
  -2.928147e+02   8.843099e+01
  -2.064060e+02  -1.104546e+02
   5.927354e+01  -2.836472e+02
   2.381817e+02  -2.870359e+02
   3.370908e+02  -2.034089e+02
   2.661574e+02   8.652089e+01
   5.871183e+01   3.821250e+02
  -9.874657e+01   3.577842e+02
  -6.360720e+01   1.641430e+02
   2.567045e+01   6.224501e+01
  -6.797166e+01   1.045746e+02
  -1.634825e+02   1.165818e+02
  -2.767270e+02  -8.399602e+01
  -1.432982e+02  -2.335403e+02
   4.055900e+01  -2.223217e+02
   2.388856e+02   2.399822e+01
   1.916313e+02   2.018724e+02
   4.294513e+01   2.596581e+02
  -2.632007e+02   1.134655e+02
  -3.181839e+02  -1.647154e+02
  -2.314336e+02  -3.061985e+02
   8.999850e+01  -3.209992e+02
   2.394952e+02  -1.316381e+02
   1.082898e+02  -3.157544e+01
   1.082736e+02  -3.349971e+01
   1.935972e+02  -5.909240e+01
   3.871104e+02   5.360306e+01
   2.900869e+02   2.803170e+02
   2.587207e+01   4.271765e+02
  -3.238086e+02   3.829579e+02
  -4.200024e+02   2.048803e+02
  -2.759480e+02  -1.122580e+02
  -2.868166e+01  -3.072023e+02
   1.241754e+02  -2.370175e+02
   3.970613e+01  -2.729651e+01
  -6.500004e+01   8.409546e+01
  -1.639239e+02   1.091539e+01
  -4.544265e+01  -1.499299e+02
   1.081770e+02  -1.661161e+02
   1.478600e+02   8.821796e+01
  -1.162654e+01   1.830126e+02
  -2.063614e+02  -5.117438e-01
  -1.382470e+02  -2.482630e+02
   3.775493e+01  -3.278894e+02
   2.400857e+02  -1.486674e+02
   3.212259e+02   1.011622e+02
   3.022362e+02   2.711743e+02
   7.512041e+01   2.278463e+02
  -1.074750e+02   1.316079e+02
  -1.704083e+02   1.105613e+01
  -3.983657e+00  -1.483638e+01
   7.554349e+01   6.493889e+01
   2.399946e+01   1.303081e+02
  -1.149050e+02   1.093244e+02
  -1.467263e+02   4.210203e+00
  -6.255774e+01  -6.857628e+01
   8.050497e+01  -2.457276e+01
   2.111998e+00   9.666135e+01
  -1.381532e+02   4.480569e+01
  -2.543457e+02  -5.019555e+01
  -2.514149e+02  -1.267559e+02
  -5.854608e+01  -2.219936e+02
   1.713837e+02  -2.563587e+02
   2.664702e+02  -1.530135e+02
   1.347746e+02   1.590431e+01
  -2.699295e+01   8.385241e+01
  -6.860778e+01   1.131240e+00
   6.658354e+01  -7.198411e+01
   1.762399e+02  -5.871579e+01
   1.949175e+02   9.329311e+01
   5.262245e+01   2.201208e+02
  -7.644476e+01   1.814709e+02
  -1.288976e+02   3.718884e+01
  -6.461384e+01  -1.508374e+01
   5.018243e+01   6.051184e+01
   7.876454e+01   6.133556e+01
  -4.265935e+01   1.452320e+02
  -2.103878e+02   2.082162e+01
  -1.849163e+02  -1.209570e+02
  -2.408917e+01  -2.312323e+02
   1.350499e+02  -1.769338e+02
   1.616844e+02   2.923072e+00
   4.261983e+01   6.278439e+01
  -5.695585e+01   5.092065e+01
  -1.092988e+02   9.140116e+00
  -2.183856e+01  -6.054108e+01
   1.941278e+01  -2.316045e+01
  -1.264658e+01   6.595788e+01
  -3.532529e+01  -1.581002e+01
  -9.572550e+01  -6.935145e+01
  -4.147890e+01  -1.706689e+02
   1.070589e+02  -1.610852e+02
   1.911808e+02  -2.504920e+01
   1.648228e+02   1.211074e+02
   3.840812e+01   2.373294e+02
  -1.055130e+02   1.435072e+02
  -1.275495e+02   2.922492e+01
  -8.498676e+01  -3.086151e+01
  -1.664611e+01  -5.652036e+01
  -7.053746e+01  -6.894683e+00
  -6.622075e+01  -1.775597e+00
  -2.159401e+01  -1.825820e+01
   2.125008e+01  -1.073340e+02
   7.331040e+01  -6.206621e+01
   1.043177e+02   1.200451e+01
   2.516181e+01   1.084178e+02
  -1.462977e+02   9.646837e+01
  -1.633122e+02  -8.070581e+00
  -8.985363e+01  -1.898465e+02
   9.287272e+01  -2.122639e+02
   2.990916e+02  -8.414107e+01
   2.868480e+02   8.050583e+01
   1.024784e+02   1.875592e+02
   4.817417e-01   1.442229e+02
  -6.911833e+01   9.611326e+01
  -7.080784e+01   7.132318e+01
  -5.054075e+01   1.110163e+02
  -6.720989e+01   9.789390e+01
  -9.497509e+01  -3.068730e+01
  -1.070663e+02  -1.343705e+02
  -4.675220e+01  -2.011938e+02
   3.060304e+01  -1.953621e+02
   2.067289e+02   2.017021e+01
   1.266982e+02   1.552583e+02
   3.514279e+01   1.497112e+02
  -3.639198e+01   1.253631e+02
  -6.043886e+01  -2.087672e+01
   3.869235e+00  -2.303781e+01
   4.869336e+01  -4.923466e+01
  -5.923099e+01  -4.661674e+01
  -1.105451e+02   1.076693e+01
  -2.859086e+01  -4.954614e+01
   3.327925e+01  -4.504495e+01
   1.527957e+02  -8.805415e+00
   1.508586e+02   8.057340e+01
  -2.095693e+01   8.858644e+01
  -1.377783e+02   6.324161e+01
  -1.119828e+02   2.821118e+01
  -3.784784e+01  -5.324153e+01
   8.290579e+01  -1.860967e+01
   1.029817e+02  -5.214809e+00
  -3.722518e+00   5.232736e+01
  -6.774941e+01   6.563257e+01
  -4.248754e+01  -6.046047e+00
  -2.041909e+01  -4.557948e+01
  -3.669567e+01  -4.873041e+01
  -5.565420e+01  -4.548922e+01
  -8.052463e+01  -1.835252e-01
  -3.966932e+01  -6.705614e+01
   4.971021e+01  -9.599855e+01
   1.316233e+02  -1.109406e+02
   1.284912e+02   1.123231e+01
   1.206395e+02   8.725532e+01
   3.955906e+00   9.819156e+01
  -6.194237e+01   3.341086e+01
  -7.382620e+01  -2.300642e+01
   2.170780e+01  -5.108299e+01
   2.015609e+02   1.092610e+01
   8.022037e+01   7.787769e+01
  -5.710272e+01   9.669159e+01
  -1.652659e+02   5.304197e+01
  -1.124711e+02  -2.616945e+01
  -3.843458e+01  -6.315171e+01
   5.411147e+01  -8.414693e+01
   8.011367e+01   1.902746e+00
  -3.053081e+01   8.204707e+00
  -5.928287e+01  -3.987921e+01
  -3.282440e+01  -9.003298e+01
   9.940150e+01  -1.534418e+02
   1.084156e+02  -5.614825e+01
   1.270754e+02   8.643165e+01
  -6.698117e+00   1.645417e+02
  -5.169877e+01   1.087531e+02
  -7.992281e+01  -1.822583e+00
  -7.277888e+01  -1.342750e+02
  -1.581876e+01  -1.006163e+02
  -9.302970e-01   8.537527e+00
   4.482130e+01   5.027609e+01
   5.577669e-01  -4.064884e+00
   4.263044e+01  -1.691305e+01
   9.085504e-01   4.474820e+00
   6.456847e+01   8.349662e+01
  -3.914775e-01   6.137394e+01
  -3.390866e+01   6.924243e+01
  -1.305932e+02  -3.743984e+01
  -9.608231e+01  -4.761678e+01
  -9.864407e+00  -5.958748e+01
   4.737667e+01  -4.947295e+01
   8.806236e+01  -2.842924e+01
  -3.059815e+01   1.706043e+00
  -1.079446e+01   6.648789e+01
  -3.019628e+01   1.058286e+01
   3.576285e+01  -1.355965e+01
  -4.038369e+01   4.096618e+01
  -1.031316e+02  -3.996118e+01
  -1.031465e+02  -3.300478e+01
   1.157955e+01  -3.707007e+01
   1.046453e+02  -1.016575e+02
   1.639422e+02  -5.688396e+01
   1.205941e+02   3.354055e+01
   3.900385e+01   1.241254e+02
   3.512720e+00   1.381576e+02
  -1.196130e+02   4.664241e+01
  -7.833663e+01  -3.451508e+00
  -9.019060e+00  -2.135414e+01
  -1.597959e+01  -1.073993e+01
  -5.799782e+00   3.278616e+01
  -2.752022e+01  -7.281679e+00
  -2.197713e+01  -1.147746e+02
   4.359396e+00  -1.000509e+02
   7.010749e+01   1.252823e+01
   1.118271e+02   1.072138e+02
  -1.741221e-01   1.456409e+02
  -4.721228e+01   1.934008e+01
  -7.553751e+01  -6.880970e+01
  -4.240063e+01  -1.082270e+02
   4.281022e+01  -3.497036e+01
   7.809568e+01   2.947913e+01
   4.723639e+01   3.821490e+01
  -2.685731e+01   9.721157e+01
  -3.547158e+01  -8.038960e+00
   3.502690e+01  -2.282003e+01
   8.439951e+01   9.529765e+00
  -5.499976e+01  -1.537446e+01
  -5.875807e+01   3.195598e+01
  -7.290090e+01   6.978958e+01
  -6.850779e+01  -1.346987e+00
   4.609785e+01  -9.501622e+01
   4.135397e+01  -5.152873e+01
   4.975962e+01   4.021543e+01
  -1.350575e+01   3.638846e+01
   1.623486e+00   6.619335e+01
  -3.780570e+01  -5.702169e+01
  -3.448786e+01  -5.281528e+01
   3.884959e+00  -2.017011e+01
   5.213974e+00   1.978680e+01
   9.143779e+00   6.372002e+00
  -1.954982e+01   1.740778e+01
   1.273207e+01  -4.433599e+01
  -4.000801e+01   9.767836e+00
   3.793226e+01   3.868840e+01
   6.529426e+00   5.417113e+01
  -6.442976e+01   6.680546e+00
  -3.393461e+01  -4.408146e+01
  -2.239309e+01  -6.702176e+01
   2.234870e+01  -2.822157e+01
   4.053850e+01   3.179067e+01
   9.705877e+00   3.472161e+01
  -7.922177e+01  -1.467711e+01
  -7.915684e+01  -2.667264e+01
  -8.239863e+00  -4.128697e+01
   1.439849e+01  -3.721121e+01
   3.768658e+01  -2.837425e+01
  -1.697200e+01  -6.191504e+01
  -1.322987e+01   1.374187e+01
  -1.940571e+01  -8.204776e+00
   2.415798e+01   2.299314e+01
   6.212252e+01   9.783625e+00
