
 $NMID
 id='ANONYMOUS ', fmtdat='(2E16.6)'
 volume=1.0
 tramp=1.0
 $END
   4.061985e+03   1.733679e+02
   2.308781e+03   2.583281e+03
  -8.941343e+02   2.678464e+03
  -2.172310e+03   1.034612e+03
  -1.044742e+03  -6.592838e+02
   5.728181e+02  -6.153661e+02
   8.846330e+02   4.634808e+02
   4.200573e+01   1.015495e+03
  -8.030986e+02   8.059929e+02
  -9.337276e+02  -1.474283e+02
  -4.722421e+02  -9.035451e+02
   2.686487e+02  -8.538717e+02
   7.131464e+02  -9.068476e+01
   3.704701e+02   7.419603e+02
  -2.642343e+02   7.499859e+02
  -6.711763e+02   3.580106e+01
  -2.989718e+02  -7.110949e+02
   3.087517e+02  -6.680462e+02
   6.080533e+02  -3.753540e+01
   4.739166e+02   4.348071e+02
  -2.119010e+01   4.305032e+02
  -2.682009e+02   2.340280e+02
  -1.942545e+02  -3.373841e+01
   1.831251e+02  -1.129050e+02
   3.896647e+02   1.122148e+02
   1.267059e+02   4.460060e+02
  -4.742242e+02   3.685014e+02
  -9.169770e+02  -1.091539e+02
  -3.656206e+02  -5.331907e+02
   4.222689e+02  -5.010275e+02
   6.979036e+02   9.048961e+01
   3.513214e+02   5.371236e+02
  -2.927531e+02   4.706504e+02
  -5.631227e+02   1.848194e+02
  -4.587092e+02  -2.394191e+02
  -1.352582e+01  -4.807333e+02
   1.930806e+02  -2.589213e+02
   1.464729e+02   2.180001e+02
  -1.575838e+02   3.836595e+02
  -4.255998e+02  -4.437033e+00
  -2.353974e+02  -6.599825e+02
   3.588997e+02  -6.671422e+02
   6.467299e+02   3.136135e+01
   2.202157e+02   5.701842e+02
  -2.659107e+02   3.425051e+02
  -3.637846e+02  -3.701494e+02
   7.176058e+01  -5.622877e+02
   6.035680e+02  -1.270578e+02
   5.692353e+02   3.998387e+02
   2.051354e+02   5.866187e+02
  -3.978378e+02   3.514759e+02
  -6.381108e+02  -8.121462e+01
  -3.777146e+02  -3.867847e+02
   1.228260e+02  -3.409233e+02
   4.358218e+02  -3.677426e+01
   2.797609e+02   1.321513e+02
  -6.993516e+01   1.336370e+02
  -1.353078e+02  -1.344141e+02
   1.384461e+02  -2.128938e+02
   3.385077e+02   4.052765e+01
   1.269520e+02   2.579748e+02
  -2.295449e+02   2.094894e+02
  -2.847716e+02   4.408450e+01
  -2.253627e+02  -1.249700e+02
   6.753919e+01  -2.294919e+02
   2.885622e+02  -3.584015e+02
   3.898074e+02  -1.896791e+02
   2.622434e+02   1.352278e+02
   6.341859e+01   4.620647e+02
  -1.799304e+02   3.750603e+02
  -1.259947e+02   1.155694e+02
   1.509820e+01  -3.626925e+01
  -3.393590e+01   1.312778e+02
  -2.061489e+02   9.643851e+01
  -2.805270e+02  -5.813927e+01
  -1.706427e+02  -2.852112e+02
   7.635848e+01  -2.901897e+02
   2.743554e+02   3.632501e+01
   1.995470e+02   2.699637e+02
  -8.097313e-01   2.984344e+02
  -2.955451e+02   1.027974e+02
  -3.331543e+02  -1.808586e+02
  -1.865614e+02  -3.235789e+02
   6.172196e+01  -3.077680e+02
   2.238372e+02  -1.450592e+02
   1.430913e+02  -9.681737e+00
   1.114036e+02  -6.039362e+01
   2.622077e+02  -7.534282e+01
   4.374963e+02   8.979836e+01
   3.078734e+02   3.225253e+02
   2.611584e+01   4.481233e+02
  -3.322267e+02   4.374105e+02
  -4.701284e+02   2.190363e+02
  -3.354818e+02  -9.028067e+01
  -2.938591e+01  -2.689886e+02
   1.557440e+02  -2.778902e+02
   6.504108e+01  -9.243909e+00
  -8.342752e+01   1.007295e+02
  -1.926157e+02  -1.757412e+01
  -3.360227e+01  -1.978429e+02
   1.670500e+02  -1.875293e+02
   1.819531e+02   7.140990e+01
  -2.271803e+00   2.255515e+02
  -2.045083e+02   2.005566e+01
  -2.002727e+02  -2.503035e+02
   4.914422e+01  -3.699566e+02
   2.350491e+02  -1.909901e+02
   2.986822e+02   7.387212e+01
   2.803448e+02   2.761653e+02
   1.167099e+02   2.702566e+02
  -1.132011e+02   1.974422e+02
  -1.983151e+02   5.552569e+01
  -2.764263e+01  -2.169695e+01
   6.168718e+01   3.429030e+01
   3.530425e+01   1.251815e+02
  -1.447720e+02   8.718532e+01
  -2.023922e+02  -1.654427e+01
  -7.329653e+01  -3.937759e+01
   5.786866e+01  -3.314388e+01
   5.113068e+01   8.227728e+01
  -1.122699e+02   9.991525e+01
  -3.009425e+02  -3.068452e+01
  -2.788418e+02  -1.212664e+02
  -2.972790e+01  -2.599694e+02
   1.974416e+02  -2.701053e+02
   3.070394e+02  -1.423957e+02
   2.249496e+02   4.570060e+01
  -5.956704e+01   1.122678e+02
  -9.386028e+01  -2.910223e+00
   5.279152e+01  -7.892261e+01
   1.922756e+02  -8.526719e+01
   2.181450e+02   1.388159e+02
   6.056282e+01   2.060646e+02
  -8.665405e+01   1.549048e+02
  -1.361805e+02   3.142770e+00
  -8.768288e+01  -2.438762e+01
   2.098851e+01   1.730185e+01
   5.679677e+01   9.264794e+01
  -5.539187e+01   1.442236e+02
  -2.041020e+02   3.180997e+01
  -2.158431e+02  -1.585012e+02
  -2.102716e+01  -2.196196e+02
   1.665158e+02  -1.681030e+02
   1.970044e+02   8.124108e+00
   8.531724e+01   1.098993e+02
  -6.157435e+01   1.034187e+02
  -1.113746e+02   1.274437e+01
  -2.986312e+01  -2.260032e+01
  -2.153288e+00   2.214586e+01
  -1.272224e+01  -1.218058e+00
  -9.876396e+01  -4.087285e+01
  -1.042822e+02  -1.167206e+02
  -5.154618e+00  -1.500067e+02
   8.538326e+01  -1.278187e+02
   2.340967e+02  -1.527133e+01
   2.261373e+02   1.687292e+02
   5.293893e+01   2.210908e+02
  -1.188387e+02   1.674592e+02
  -1.615999e+02   3.880272e+01
  -7.068283e+01  -4.045899e+01
  -1.913617e+01  -2.409946e+01
  -4.633487e+01   3.196942e+01
  -1.135769e+02   1.862208e+01
  -2.224055e+01  -4.500560e+01
   7.546639e+01  -1.041007e+02
   1.200096e+02  -8.612185e+01
   1.248957e+02   3.681720e+01
  -1.700407e+01   1.190067e+02
  -1.810490e+02   7.349455e+01
  -1.851301e+02  -5.647112e+01
  -1.176412e+02  -2.339501e+02
   1.467223e+02  -2.364708e+02
   2.946443e+02  -9.855511e+01
   2.851584e+02   1.365683e+02
   6.195377e+01   1.908726e+02
   2.912519e-01   1.615430e+02
  -8.477561e+01   8.788875e+01
  -5.604613e+01   3.070679e+01
  -5.624465e+01   7.292454e+01
  -1.129309e+02   1.031523e+02
  -1.065468e+02  -1.798367e+01
  -1.152360e+02  -1.452927e+02
  -1.029163e+01  -2.471052e+02
   4.941073e+01  -2.045615e+02
   1.661238e+02  -4.379166e+01
   1.602880e+02   1.270233e+02
   1.149188e+01   1.775584e+02
  -7.706246e+01   8.545704e+01
  -7.628869e+01   1.589335e+01
  -5.128279e+01  -8.439329e+01
  -7.514373e-01  -2.518716e+01
  -4.980242e+01   1.928635e+01
  -4.749052e+01  -1.592513e+01
  -5.313046e+01  -3.417811e+01
   5.353776e+01  -2.839076e+01
   1.734821e+02   6.735905e+00
   1.499026e+02   6.645362e+01
   1.266106e+01   6.697845e+01
  -1.279093e+02   4.307529e+01
  -9.501640e+01  -3.156199e+01
  -3.710911e+01  -3.183620e+01
   7.490550e+01  -1.459154e+01
   8.228160e+01   2.826509e+01
   3.533481e+00   9.600150e+01
  -8.620554e+01   7.697443e+01
  -7.681068e+01   9.656836e+00
  -4.861126e+01  -7.247761e+01
   1.636138e+01  -5.600522e+01
  -7.044803e+01  -1.652741e+01
  -1.183020e+02  -9.278403e+00
  -2.571496e+01  -4.846205e+01
   4.598411e+01  -2.047421e+02
   1.570860e+02  -9.174513e+01
   1.944324e+02  -9.656683e-01
   1.261421e+02   1.315299e+02
   9.648786e+00   1.628483e+02
  -8.151252e+01   6.594299e+01
  -8.893788e+01  -7.615650e+01
   6.979677e+01  -6.297670e+01
   1.444397e+02   2.375427e+01
   6.698805e+01   8.065578e+01
  -9.567657e+01   1.382542e+02
  -1.825779e+02   6.292799e+01
  -1.801349e+02  -8.227804e+01
  -3.745631e+01  -7.790432e+01
   5.759424e+01  -7.887373e+01
   6.049716e+01  -4.117640e+01
  -5.957646e+01   1.948528e+01
  -1.064413e+02  -2.438050e+01
  -2.299620e+01  -1.343289e+02
   1.369687e+02  -1.535534e+02
   1.823747e+02  -5.694557e+01
   1.161812e+02   1.006298e+02
  -1.915431e+00   1.856680e+02
  -8.142678e+01   1.516437e+02
  -1.093294e+02  -6.855674e+00
  -7.102431e+01  -9.839819e+01
  -5.264639e+00  -9.755705e+01
   4.875281e+01  -5.564371e+01
   6.276816e+01   4.279358e+01
   9.630881e+00   1.215053e+01
   1.120961e+01  -3.364404e+01
  -6.779235e+00   1.160012e+01
   3.201083e+01   7.318456e+01
   6.076009e+01   1.038071e+02
  -7.572771e+01   5.156723e+01
  -1.420756e+02  -5.089809e+01
  -1.591535e+02  -9.066739e+01
  -2.361382e+01  -6.566968e+01
   8.385820e+01  -2.567936e+01
   8.891120e+01  -1.644410e+01
   2.538282e+01   4.120733e+01
  -7.679939e+00  -5.690316e+00
   2.721054e+00   4.249604e+01
   5.842308e+01   2.587130e+01
  -8.687502e+00  -3.345023e+01
  -1.117518e+02  -5.125766e+01
  -1.273768e+02   1.011970e+01
  -5.799993e+01  -7.984838e+01
   1.590588e+02  -1.015214e+02
   1.867598e+02  -5.699218e+01
   1.367909e+02   9.602928e+01
   7.939685e+00   1.400339e+02
  -7.084064e+01   1.609544e+02
  -1.008218e+02   2.779578e+01
  -6.080615e+01  -1.078481e+01
  -9.932101e+00  -5.622812e+01
  -6.069423e+00   1.592223e+01
  -2.734544e+01  -1.396899e+01
  -4.288675e+01  -9.553735e+00
  -4.423902e+01  -5.357217e+01
   1.197624e+01  -6.071931e+01
   8.179289e+01   2.986684e+01
   7.906515e+01   1.298413e+02
  -3.584265e+01   1.590546e+02
  -6.173691e+01   3.390541e+01
  -1.124276e+02  -7.435081e+01
  -3.276456e+01  -9.860991e+01
   8.270325e+01  -2.214917e+01
   6.821155e+01   4.940499e+01
   4.472638e+01   1.070992e+02
  -2.996978e+01   7.954788e+00
  -4.066511e+01   6.084995e+01
   4.388636e+01   1.480732e+01
   8.820503e+01  -1.183815e+01
   3.716878e+01   1.363898e+00
  -6.062442e+01   4.569350e+01
  -1.085480e+02   7.371402e+01
  -5.603865e+01   5.686580e+00
   4.306558e+01  -1.102978e+02
   4.758189e+01  -7.419723e+01
   5.904312e+01   5.331454e+00
   9.218853e+00   2.962506e+01
  -3.879790e+01  -1.366504e+01
  -6.499130e+01  -4.336092e+00
  -4.400696e+01  -3.320079e+01
  -3.040359e+01  -2.224262e+01
   6.646026e+01   4.655517e+01
   2.241849e+01   3.880282e+01
   6.094034e+01   3.307631e+01
  -1.759108e+01   3.215255e+00
  -4.856287e+01   1.337936e+01
  -3.432297e+00   4.600182e+01
   1.388165e+00   1.672289e+01
  -2.057294e+01   2.042045e+01
  -2.015571e+01  -4.502200e+01
  -1.850106e+01  -8.745636e+00
   4.292062e+01  -1.290570e+01
   2.584807e+01   8.849246e+01
  -1.840014e+00   8.366056e+01
  -8.851050e+01   6.004662e+01
  -9.665611e+01   3.249217e+01
  -4.930661e+01  -6.078405e+01
   3.295701e+01  -6.174806e+01
   6.204841e+01  -9.281882e+00
   2.760615e+01  -6.488618e+00
  -5.917848e+01  -3.022526e+01
  -7.435622e+01   1.969012e+01
   5.449168e+01  -3.372384e+01
   1.073751e+02  -1.122465e+01
