
 $NMID
 id='ANONYMOUS ', fmtdat='(2E16.6)'
 volume=1.0
 tramp=1.0
 $END
  -3.351412e+03  -4.473829e+00
  -2.153182e+03  -1.861536e+03
   6.129323e+02  -2.272520e+03
   1.711668e+03  -1.106186e+03
   9.723563e+02   1.708321e+02
  -2.111866e+02   3.690451e+02
  -6.028394e+02  -2.601153e+02
  -6.675424e+01  -7.450855e+02
   5.644790e+02  -6.053996e+02
   7.435377e+02   1.776624e+01
   4.313137e+02   6.713370e+02
  -1.417913e+02   7.624584e+02
  -4.493968e+02   2.044209e+02
  -3.204991e+02  -4.686636e+02
   1.251618e+02  -6.679785e+02
   5.174566e+02  -8.644173e+00
   2.598036e+02   5.522992e+02
  -2.601447e+02   5.604468e+02
  -5.603161e+02   1.329677e+02
  -4.438613e+02  -3.210355e+02
  -8.691245e+01  -4.405770e+02
   1.843716e+02  -2.411362e+02
   1.401445e+02  -8.157362e+00
  -1.516530e+02  -4.333768e+01
  -2.806724e+02  -1.829665e+02
  -2.877611e+01  -3.823795e+02
   4.479097e+02  -3.521463e+02
   6.980201e+02   2.237652e+02
   2.890835e+02   4.158835e+02
  -2.520094e+02   2.896055e+02
  -5.757822e+02  -8.846553e+01
  -2.310432e+02  -3.807520e+02
   2.732868e+02  -3.939781e+02
   4.726441e+02  -1.622105e+02
   3.842548e+02   1.927461e+02
   2.195738e+01   3.198341e+02
  -1.087807e+02   2.001368e+02
  -1.325965e+01  -8.305952e+01
   1.695723e+02  -2.610719e+02
   2.600890e+02   4.167272e+01
   1.683615e+02   5.650065e+02
  -2.700315e+02   5.435334e+02
  -4.410559e+02   3.162085e+01
  -1.672256e+02  -3.809582e+02
   1.615838e+02  -1.949418e+02
   2.632860e+02   2.312754e+02
  -8.937085e+01   4.438994e+02
  -4.953927e+02   8.078679e+01
  -5.119652e+02  -4.059505e+02
  -1.124456e+02  -5.097660e+02
   3.098376e+02  -2.677846e+02
   5.673839e+02   9.593639e+01
   3.820616e+02   3.074157e+02
  -1.389811e+02   2.580139e+02
  -3.006303e+02   1.160183e+02
  -2.240973e+02  -1.009517e+02
   5.192928e+01  -7.327370e+01
   8.245159e+01   1.087960e+02
  -1.105796e+02   1.062666e+02
  -2.073873e+02  -5.093927e+01
  -1.173388e+02  -2.406101e+02
   1.758249e+02  -2.090917e+02
   2.875837e+02  -6.302489e+01
   1.699883e+02   1.155861e+02
  -2.230601e+01   2.721153e+02
  -3.037343e+02   3.396457e+02
  -3.029407e+02   2.016979e+02
  -2.715675e+02  -1.508550e+02
  -7.427886e+01  -4.098046e+02
   1.107212e+02  -3.536970e+02
   2.748757e+01  -1.630862e+02
   6.390277e+01  -7.024877e+01
   7.866237e+01  -1.376245e+02
   2.084397e+02  -6.177043e+01
   2.162816e+02   1.250735e+02
   9.461130e+01   2.492069e+02
  -6.219113e+01   2.362309e+02
  -1.939599e+02  -1.674057e+00
  -1.710213e+02  -2.044699e+02
  -1.222557e+01  -2.713353e+02
   2.420627e+02  -6.066397e+01
   2.796194e+02   1.606942e+02
   1.585178e+02   3.335391e+02
  -6.078575e+01   2.857945e+02
  -2.006946e+02   1.401519e+02
  -1.814980e+02   4.175040e+01
  -1.542823e+02   4.155100e+01
  -2.248639e+02   7.347040e+01
  -3.984675e+02  -1.334762e+02
  -3.308134e+02  -2.510856e+02
   3.917728e+01  -4.185813e+02
   3.583828e+02  -3.918125e+02
   4.301481e+02  -1.763817e+02
   2.939397e+02   1.067541e+02
  -7.049106e+00   2.707658e+02
  -1.024065e+02   1.906561e+02
  -4.497428e+01   3.495515e+01
   1.203627e+02  -6.535606e+01
   1.386985e+02   2.220772e+01
   3.087783e+01   1.403664e+02
  -9.544210e+01   1.699016e+02
  -8.626995e+01  -2.111153e+01
   1.930844e+01  -1.493710e+02
   1.554340e+02   1.458178e+01
   1.391302e+02   2.293958e+02
  -5.458652e+00   3.340020e+02
  -2.059749e+02   2.390348e+02
  -3.059236e+02  -8.640828e+01
  -2.840405e+02  -2.568237e+02
  -7.420189e+01  -2.329624e+02
   1.012272e+02  -1.280445e+02
   1.308873e+02  -4.603125e+01
   2.230905e+01  -2.820532e+01
  -4.410557e+01  -4.225931e+01
  -6.521376e+00  -9.827019e+01
   1.031772e+02  -4.445115e+01
   1.665430e+02   6.103964e+00
   7.115296e+00   5.728183e+01
  -7.632236e+01   1.447379e+01
  -4.320191e+00  -1.275938e+02
   1.747443e+02  -6.578677e+01
   2.617849e+02   6.932955e+01
   2.494060e+02   2.038731e+02
   2.975006e+01   2.413614e+02
  -2.119896e+02   2.046679e+02
  -2.719812e+02   1.097366e+02
  -9.130690e+01  -6.297141e+01
   2.516771e+01  -5.845758e+01
   6.500281e+01   1.236303e+01
  -4.043594e+01   1.283112e+02
  -1.840894e+02   3.983080e+01
  -2.250779e+02  -1.017520e+02
  -4.677297e+00  -1.553901e+02
   1.010269e+02  -1.708341e+02
   1.209639e+02  -8.111037e+00
   6.863310e+01   1.154889e+01
  -4.610210e+01  -2.944493e+01
  -4.614708e+01  -1.115957e+02
   7.677833e+01  -1.103452e+02
   1.920682e+02  -1.384671e+01
   1.615438e+02   1.159798e+02
   4.021721e+00   2.114459e+02
  -1.281659e+02   1.131609e+02
  -1.837786e+02  -2.116609e+00
  -7.132739e+01  -1.047883e+02
   4.383408e+01  -7.680303e+01
   9.194593e+01   1.174005e+01
  -7.867409e+00   1.752382e+01
  -6.469698e+01   3.744471e+00
  -1.272287e+01  -1.707549e+01
   8.002359e+01   2.595830e+01
   7.550102e+01   8.684066e+01
   3.092780e+01   1.263252e+02
  -1.543550e+02   1.334624e+02
  -2.530607e+02   1.633798e+00
  -1.749234e+02  -1.056888e+02
  -3.070934e+00  -2.455089e+02
   8.044813e+01  -1.377659e+02
   1.438908e+02  -1.689841e+01
   5.156242e+01   4.976010e+01
   7.956402e+00   3.100791e+01
   1.977373e+01  -2.526511e+01
   7.914891e+01   7.190995e+00
   2.963379e+00   7.186381e+01
  -6.078188e+01   1.079265e+02
  -7.838941e+01   6.406911e+01
  -1.068979e+02  -5.398233e+01
  -3.421961e+01  -1.251152e+02
   1.458151e+02  -6.945400e+01
   1.800076e+02   5.413763e+01
   6.287041e+01   2.444538e+02
  -1.184437e+02   1.693377e+02
  -2.606011e+02   8.497772e+01
  -2.567291e+02  -7.410216e+01
  -7.973330e+01  -1.225926e+02
   4.654317e+01  -1.382155e+02
   5.698224e+01  -7.859224e+01
   5.935000e+01  -9.813860e+01
   7.176658e+01  -1.013873e+02
   7.086219e+01  -8.028659e+01
   1.012421e+02   2.238994e+01
   1.220311e+02   1.190738e+02
   6.800016e+01   1.848142e+02
  -1.061164e+02   2.086158e+02
  -2.078198e+02   3.838722e+01
  -1.272338e+02  -1.041688e+02
   2.251272e-01  -1.531713e+02
   5.973533e+01  -9.473696e+01
   1.583557e+01   3.670675e+01
   9.193926e+00   7.571865e+01
   7.950322e+00   4.597050e+01
   6.376156e+00  -4.268218e+01
   5.914125e+01  -2.872529e+01
   5.850979e+01   6.211555e+01
  -6.697601e+01  -1.173497e+01
  -1.829170e+02  -4.641853e+00
  -1.554210e+02  -1.964542e+01
   1.627845e+01  -8.883214e+01
   1.409346e+02  -8.298063e+01
   1.385358e+02   3.302873e+00
   5.110026e+01   5.815920e+01
  -2.401331e+01   4.609572e+01
  -5.047533e+01  -3.308964e+01
  -3.170914e+00  -8.217433e+01
   3.514180e+01  -5.478804e+01
   6.070618e+01   8.480358e+00
   1.469956e+01   7.356648e+01
   6.131167e+01   5.169417e+01
   2.967050e+01   2.732932e+01
   2.366013e+01   9.971799e+00
  -7.351045e+00   4.838405e+01
  -4.420300e+01   1.277678e+02
  -1.559012e+02   1.647822e+02
  -2.192354e+02   1.112585e+01
  -1.042044e+02  -1.329657e+02
  -9.761344e+00  -1.299162e+02
   9.572570e+01  -8.394864e+01
   5.442200e+01   2.675127e+01
  -5.512319e+01   2.133425e+01
  -1.560705e+02  -4.033271e+01
  -7.094388e+01  -1.035907e+02
   1.160510e+02  -1.035386e+02
   1.687167e+02  -3.590417e+01
   1.785579e+02   5.953865e+01
  -4.273734e+00   9.020979e+01
  -6.798126e+01   6.876132e+01
  -2.506267e+01  -2.659961e+00
   1.672544e+01  -6.366618e+01
   8.061573e+01   4.467052e+01
   3.903136e+01   1.589179e+02
  -5.001091e+01   1.182498e+02
  -1.502754e+02   5.513595e+01
  -1.252887e+02  -9.159332e+01
  -1.323037e+01  -1.709418e+02
   4.252434e+01  -1.352685e+02
   9.884113e+01   2.904544e+00
   1.969858e+01   1.358560e+02
  -6.455551e+00   1.168362e+02
  -5.503777e+01   3.989782e+00
  -3.540568e+01  -1.162736e+01
  -1.582757e+01   2.429767e+01
  -2.158406e+01   1.260112e+01
  -5.317926e+01  -1.823083e+01
  -6.678926e+01  -1.102843e+02
  -3.185585e+01  -9.586612e+01
   1.016960e+02  -9.006865e+01
   1.484499e+02   4.548017e+01
   8.723668e+01   6.373354e+01
   2.113027e+01   7.023441e+01
  -1.146500e+02   2.297094e+01
  -1.031043e+02   2.442662e+01
  -1.854337e+00  -3.573486e+01
  -5.154253e+00  -2.617191e+01
   5.301754e+01  -1.310006e+01
  -5.289121e+01  -4.953998e+01
   1.398887e+01   4.658209e+01
   3.953906e+01  -2.683964e+00
   8.833464e+01   4.854544e+00
   3.887141e+01   5.368726e+01
  -8.313627e+01   6.247521e+01
  -1.661189e+02   3.284764e+01
  -1.196290e+02  -5.773588e+01
  -4.884582e+01  -1.716129e+02
   1.016715e+02  -1.405500e+02
   1.134732e+02  -3.843547e+01
   6.759674e+01   2.093520e+01
  -4.992927e-01   6.998802e+01
   5.362713e+00   1.206858e+01
  -2.359646e+00   1.133421e+01
   4.189879e+00   4.000901e+01
   3.766107e+01   4.249827e+01
  -3.122379e+01   8.602484e+01
  -6.936609e+01  -3.331051e+00
  -7.156361e+01  -1.115779e+02
   3.541580e+01  -1.002314e+02
   8.279720e+01  -1.934903e+01
   8.301968e+01   6.602569e+01
   6.396399e+01   8.795665e+01
  -4.446146e+01   5.015961e+01
  -1.174428e+02   2.250422e+01
  -7.997899e+01  -4.649147e+01
   5.844531e+01  -4.701411e+01
   1.008110e+02   2.475372e+00
  -4.841499e+01   4.299262e+01
  -8.330963e+01  -3.439129e+01
  -5.297398e+01  -6.302574e+01
   6.449717e+01  -5.879142e+01
   1.021598e+02  -7.570988e+01
   4.415222e+01   1.720339e+01
  -3.722984e+01   7.194205e+01
  -6.717044e+01   3.772677e+01
  -6.086370e+01   4.009492e+01
   1.753908e+01  -8.135913e+01
   3.287983e+00  -5.310424e+01
   5.755573e+01   5.605237e+01
  -8.677830e-01   4.871780e+01
   1.331568e+00   7.017750e+00
  -3.694458e+01   7.553978e+00
  -6.672835e+01  -1.972021e+00
  -5.939416e+01   4.746639e-01
  -7.547267e+00   1.381611e+01
  -9.454077e+00  -1.430585e+01
   5.284731e+01  -3.288153e+01
  -9.694343e+00  -4.902658e+01
   2.142407e-01  -4.159603e+01
   2.837893e+00   4.725370e+01
  -1.067341e+01   3.351857e+01
  -5.888879e+01  -2.764761e+01
  -5.281284e+01  -1.209037e+01
   4.315350e+01  -2.935066e+01
   3.919377e+01  -6.472082e+00
   9.839537e+01  -7.279046e+00
   1.212724e+01   3.029826e+01
  -3.193009e+01   2.814673e+01
  -2.327804e+01   3.599643e+01
  -4.831150e+01   6.788323e+01
   1.969274e+01   3.653557e+01
   5.168288e+01  -3.298586e+00
  -4.356805e+01  -2.209641e+00
  -6.375721e+01   4.727283e+01
