
 $NMID
 id='ANONYMOUS ', fmtdat='(2E16.6)'
 volume=1.0
 tramp=1.0
 $END
  -3.361805e+03  -2.732610e+02
  -2.243655e+03  -2.018170e+03
   2.222972e+01  -2.338165e+03
   1.349705e+03  -1.360078e+03
   9.925584e+02  -6.738783e+01
  -3.869890e+01   4.073563e+02
  -3.846051e+02  -1.296709e+02
  -5.685023e+01  -6.296274e+02
   5.235816e+02  -5.850110e+02
   7.229958e+02  -7.243071e+01
   3.707432e+02   5.403320e+02
  -1.900532e+01   6.780708e+02
  -3.147989e+02   1.555223e+02
  -3.309086e+02  -4.946297e+02
   5.877992e+01  -5.854835e+02
   4.558345e+02  -9.591302e+01
   2.846396e+02   5.267926e+02
  -1.537101e+02   5.996976e+02
  -4.660370e+02   2.440247e+02
  -4.715478e+02  -1.596335e+02
  -1.358192e+02  -3.688252e+02
   1.466647e+02  -2.509269e+02
   1.392430e+02  -6.006992e+01
  -1.409832e+02  -4.126005e+01
  -2.536919e+02  -2.629675e+02
   6.418323e+00  -3.442415e+02
   4.243234e+02  -1.491149e+02
   6.401121e+02   1.651159e+02
   2.406255e+02   4.274568e+02
  -3.631069e+02   2.932024e+02
  -5.578120e+02  -1.552282e+02
  -2.220755e+02  -3.588533e+02
   2.395837e+02  -3.542517e+02
   4.940441e+02  -1.058211e+02
   3.511915e+02   1.640353e+02
   8.466381e+01   3.450366e+02
  -8.109651e+01   1.878417e+02
  -5.373872e+01  -1.428103e+02
   1.179767e+02  -2.216440e+02
   2.481941e+02   1.159567e+02
   8.538553e+01   4.880118e+02
  -3.216396e+02   5.109976e+02
  -3.602654e+02   1.748149e+01
  -1.514748e+02  -4.100331e+02
   1.659676e+02  -2.132747e+02
   1.846010e+02   3.110012e+02
  -1.267873e+02   4.743104e+02
  -4.135811e+02   5.025920e+01
  -4.340482e+02  -3.920049e+02
  -1.278347e+02  -4.384682e+02
   2.672978e+02  -3.033758e+02
   5.055722e+02   7.599146e+01
   3.882519e+02   2.946499e+02
  -9.262497e+01   2.561420e+02
  -3.501595e+02   3.143021e+01
  -2.127196e+02  -4.038523e+01
   9.428255e+00  -7.276500e+01
   2.044290e+01   5.104104e+01
  -1.395685e+02   8.586673e+01
  -2.093371e+02  -6.863805e+01
  -1.344907e+02  -1.683953e+02
   1.970469e+02  -2.348499e+02
   3.289884e+02  -1.052342e+02
   2.471462e+02   1.106988e+02
  -7.724739e+01   2.800619e+02
  -3.011197e+02   3.089765e+02
  -3.286618e+02   9.674084e+01
  -2.165314e+02  -2.160004e+02
  -3.278181e+01  -3.789259e+02
   4.333031e+01  -3.105695e+02
  -3.379819e+01  -1.902951e+02
   9.893170e+00  -8.435404e+01
   1.199560e+02  -1.104874e+02
   2.736683e+02  -9.961145e+01
   2.108021e+02   1.363099e+02
   4.800228e+01   2.800849e+02
  -1.108812e+02   2.004519e+02
  -2.093805e+02  -6.712765e+01
  -1.468011e+02  -2.368832e+02
   3.329865e+01  -2.506571e+02
   2.693364e+02  -6.347975e+01
   3.434176e+02   1.648615e+02
   1.757180e+02   3.062127e+02
  -3.507326e+01   2.536394e+02
  -1.669328e+02   1.802757e+02
  -1.691952e+02   2.233553e+01
  -1.301396e+02   8.714806e+01
  -2.625640e+02   6.910164e+01
  -3.679567e+02  -5.309367e+01
  -3.344976e+02  -2.880128e+02
   1.504280e+01  -4.446100e+02
   4.398534e+02  -3.987146e+02
   4.533939e+02  -2.306135e+02
   2.656498e+02   6.030106e+01
   1.679294e+01   2.439634e+02
  -1.171447e+02   1.924311e+02
   8.384787e+00   5.407202e+01
   1.418462e+02  -3.928526e+01
   1.764362e+02   1.963342e+00
   2.162425e+01   1.568079e+02
  -1.173675e+02   9.968087e+01
  -1.312551e+02  -5.342103e+01
   4.753620e+01  -1.386231e+02
   1.874151e+02   9.671552e+00
   9.801354e+01   2.503756e+02
  -5.607350e+01   3.268112e+02
  -2.170487e+02   1.926125e+02
  -3.001186e+02  -4.317018e+01
  -2.860112e+02  -2.881648e+02
  -4.594384e+01  -2.720797e+02
   1.113228e+02  -1.607262e+02
   1.897181e+02  -3.362194e+00
   5.748877e+01  -8.455857e-01
  -7.856999e+01  -6.300062e+01
   1.546689e+01  -1.239749e+02
   1.642879e+02  -8.377780e+01
   1.457051e+02   3.316583e+01
   5.320184e+01   1.069462e+02
  -9.760504e+01  -2.452532e+00
  -4.964334e-01  -9.434811e+01
   1.283065e+02  -5.523922e+01
   2.820743e+02  -1.763806e+01
   2.524053e+02   1.639575e+02
   2.313993e+01   2.237801e+02
  -2.126123e+02   2.042688e+02
  -2.637649e+02   8.335855e+01
  -1.522855e+02  -6.879003e+01
   4.096820e+01  -7.174515e+01
   6.986684e+01  -4.484508e+00
  -4.742340e+01   1.096900e+02
  -1.785536e+02   3.563827e+01
  -1.681904e+02  -5.831769e+01
  -3.314051e+01  -2.025995e+02
   1.134900e+02  -1.486965e+02
   1.085174e+02  -3.061640e+01
   3.356796e+01   3.515992e+01
  -3.858780e+01  -4.077031e+01
  -3.573182e+01  -8.560646e+01
   7.855387e+01  -8.057784e+01
   1.748484e+02  -6.784636e+01
   1.818497e+02   1.372165e+02
   1.904667e+00   2.431118e+02
  -1.938196e+02   1.187050e+02
  -1.628245e+02   6.491560e+00
  -6.313440e+01  -9.594824e+01
   5.908946e+01  -8.355284e+01
   7.719103e+01  -7.017842e+01
   1.270789e+01   4.248362e+01
  -3.231350e+01   4.690996e+00
   1.425318e+01  -3.485433e+01
   7.984594e+01  -1.982038e+01
   9.179431e+01   1.120292e+02
   2.108850e+01   1.556679e+02
  -1.482760e+02   1.654611e+02
  -2.182549e+02  -1.914507e+01
  -2.084563e+02  -1.456064e+02
  -2.672543e+01  -2.247145e+02
   1.262483e+02  -1.737692e+02
   1.381557e+02   1.998600e+01
   7.296054e+01   6.412825e+01
   3.840603e+01   7.855573e+00
   1.000345e+02   2.019421e-01
   8.166892e+01  -1.777816e+01
   5.633252e+01   6.643169e+01
   1.156806e+00   9.977394e+01
  -1.181439e+02   4.283290e+01
  -1.293278e+02  -6.121538e+01
   3.712201e+01  -1.062620e+02
   1.573134e+02  -5.739025e+01
   2.200553e+02   1.159167e+02
   6.741189e+01   2.457574e+02
  -1.722963e+02   2.186151e+02
  -2.685193e+02   8.070774e+01
  -2.853664e+02  -1.191604e+02
  -9.826034e+01  -2.009771e+02
   6.391079e+01  -1.854633e+02
   1.029691e+02  -1.135503e+02
   9.140222e+01  -1.037928e+02
   2.755573e+01  -7.640537e+01
   9.592588e+01  -6.641358e+01
   1.388155e+02   1.769609e+01
   1.264744e+02   1.427058e+02
   5.122146e+01   2.755196e+02
  -8.123971e+01   1.483980e+02
  -1.503094e+02   3.015242e+01
  -1.653762e+02  -1.310140e+02
  -1.256641e+01  -1.679392e+02
   1.036465e+02  -8.724472e+01
   1.029428e+02   1.710374e+00
  -1.593605e+01   5.583394e+01
  -4.304596e+01   6.008355e+01
   3.227085e+01   1.795079e+00
   9.355638e+01   5.264396e+01
   3.009178e+01   2.542085e+01
  -7.219116e+01   5.793416e+01
  -1.895040e+02   4.613405e+00
  -1.553390e+02  -8.240726e+01
  -5.125690e+00  -1.126397e+02
   1.415151e+02  -8.865579e+01
   1.513086e+02  -6.973241e+00
   4.958528e+01   2.868194e+01
  -4.606609e+01   4.707004e+01
  -7.499308e+01  -1.166299e+01
  -3.944439e+01  -1.075756e+02
   3.305443e+01  -5.683759e+01
   7.271941e+01   1.245626e+01
   4.084644e+01   5.151374e+01
   4.598133e+01  -2.806100e-02
   3.080969e+00  -1.761405e+01
   7.132378e+01   2.134782e+01
   4.153364e+01   5.569622e+01
  -4.248131e+01   1.755098e+02
  -1.214972e+02   2.105939e+02
  -1.863293e+02  -2.355748e+01
  -1.267744e+02  -6.826181e+01
   2.086555e+00  -1.394741e+02
   7.641507e+01  -8.679173e+01
   5.567700e+01   3.436937e+01
  -5.879274e+01   3.127824e+01
  -1.421848e+02  -6.524009e+01
  -2.528312e+01  -5.989981e+01
   5.237212e+01  -1.052928e+02
   1.817747e+02  -7.784268e+01
   1.306123e+02   7.271484e+01
   4.182662e+01   8.702827e+01
  -6.882033e+01   5.188463e+01
  -2.434459e+01   1.278434e+01
   2.808637e+01  -1.109709e+01
   8.911682e+01   2.437253e+01
   4.444047e+01   9.300819e+01
  -7.838469e+01   1.396399e+02
  -1.807033e+02   8.231011e+01
  -1.302650e+02  -1.130809e+02
  -2.482446e+01  -1.981956e+02
   7.989591e+01  -1.402335e+02
   1.012892e+02   1.129336e+01
   3.687964e+01   9.588319e+01
  -1.241542e+01   8.729944e+01
  -6.147963e+01   2.756373e+01
  -3.481954e+01  -3.572270e+01
  -1.071922e+01  -2.317980e+01
  -1.361797e+01  -4.767477e+00
  -5.469394e+01  -1.540038e+01
  -7.564045e+01  -9.712591e+01
  -5.403493e+01  -1.020964e+02
   4.748954e+01  -6.683828e+01
   1.255613e+02   7.318495e+01
   1.075784e+02   7.077334e+01
   3.198719e+01   7.725161e+01
  -9.522700e+01   1.059175e+00
  -6.365832e+01   1.228619e+01
  -6.170429e+01  -1.151467e+01
   6.088214e+01  -3.269828e+01
   3.346835e+01   4.538175e+00
   9.714390e-01   1.223244e+01
   2.756431e+01  -1.288489e+01
   8.059860e+01  -3.075057e+00
   7.917506e+01  -2.407416e+00
   2.293956e+01   1.034476e+02
  -5.398396e+01   1.052319e+02
  -1.773865e+02   8.944638e+01
  -1.613120e+02  -7.647171e+01
  -2.695878e+01  -1.374825e+02
   7.330062e+01  -1.641826e+02
   1.906541e+02  -6.814513e+01
   3.259652e+01   2.482999e+01
   3.548050e+01   4.402588e+01
   1.852579e+00  -4.640077e+01
   1.077847e+01  -2.577606e+01
   3.029242e+01   3.272718e+01
   2.882036e+01   8.822263e+01
  -6.002220e+00   6.982063e+01
  -8.702878e+01   9.272494e+00
  -9.695903e+01  -1.077007e+02
  -2.223245e+01  -1.343407e+02
   4.033273e+01  -8.167734e+00
   9.291031e+01   7.154538e+01
   9.788552e+00   9.595267e+01
  -4.883912e+01   4.295213e+01
  -5.648335e+01  -3.423210e+01
  -4.145830e+01  -6.589953e+01
   4.150452e+01  -6.866748e+01
   6.906995e+01   7.870410e+00
  -2.594402e+00  -3.669316e+01
  -7.637754e+01   9.145026e+00
  -3.780818e+01  -5.737756e+00
   6.669936e+01  -1.228673e+02
   8.810658e+01  -4.126686e+01
   5.015659e+01   5.543679e+01
  -4.191039e+01   6.992406e+01
  -1.033664e+02   6.736423e+01
  -3.940118e+01  -3.022543e+01
  -3.510876e+01  -4.461842e+01
   5.454006e+01  -5.691638e+01
   2.346131e+01  -1.607589e+01
   4.356720e+01   8.074396e+01
   2.302244e+01   2.854802e+00
  -1.719877e+01  -3.606445e+00
  -3.480306e+01  -2.778145e+01
  -2.614011e+01   7.392685e+00
  -4.458810e+01   2.355643e+01
   5.809613e+01   1.765245e+01
   9.587454e+00  -4.935487e+01
   1.326299e+01  -3.061190e+01
   3.077972e+01  -7.247175e+00
   3.505763e+01   4.682358e+01
  -2.185258e+01   6.056941e+01
  -4.662333e+01   9.668963e+00
  -5.802578e+01  -5.956290e+01
   1.939774e+01  -6.762215e+01
   2.708314e+01  -3.426853e+01
   5.518040e+01   4.670627e+01
   5.555249e+01   7.721525e+01
  -4.395046e+01   7.444064e+01
  -6.439784e+01   2.332338e+01
  -2.601570e+01  -2.658852e+00
   3.555954e+01  -2.749819e+01
   3.972014e+01   7.676596e+01
  -1.247400e+01   5.307114e+01
  -8.017768e+01   5.646234e+01
