
 $NMID
 id='ANONYMOUS ', fmtdat='(2E16.6)'
 volume=1.0
 tramp=1.0
 $END
  -4.407849e+03   2.149390e+02
  -2.865612e+03  -2.584331e+03
   8.596870e+02  -2.818582e+03
   2.111251e+03  -1.103264e+03
   1.118139e+03   6.894301e+02
  -6.563731e+02   6.756727e+02
  -8.965276e+02  -2.368046e+02
  -8.945526e+01  -1.015456e+03
   7.888508e+02  -8.644395e+02
   9.613739e+02   5.368125e+01
   5.355004e+02   8.759393e+02
  -1.762505e+02   9.339689e+02
  -5.274147e+02   1.387609e+02
  -4.365413e+02  -6.793915e+02
   2.420815e+02  -8.153083e+02
   6.513843e+02  -4.339795e+01
   3.595559e+02   6.697557e+02
  -2.562343e+02   6.666905e+02
  -5.726621e+02   1.437085e+02
  -4.362452e+02  -3.764426e+02
  -4.979748e+01  -4.642145e+02
   2.689256e+02  -2.472747e+02
   1.722243e+02   2.737845e+01
  -1.573161e+02   7.103869e+01
  -4.254989e+02  -1.840553e+02
  -1.367649e+02  -4.133043e+02
   5.331600e+02  -3.303579e+02
   8.661285e+02   9.574537e+01
   4.151754e+02   5.400590e+02
  -3.916731e+02   4.826180e+02
  -7.563664e+02  -7.241602e+01
  -3.395553e+02  -4.490273e+02
   3.021801e+02  -5.286177e+02
   4.979662e+02  -1.856569e+02
   4.065172e+02   1.873916e+02
   7.208972e+01   4.706349e+02
  -1.563132e+02   2.994545e+02
  -1.650426e+02  -1.293669e+02
   9.967960e+01  -3.626517e+02
   4.003046e+02   7.603869e+01
   2.442621e+02   6.610014e+02
  -3.013834e+02   7.028652e+02
  -5.145692e+02   1.136183e+01
  -2.911578e+02  -5.289309e+02
   2.452702e+02  -3.376758e+02
   3.948446e+02   2.713226e+02
  -8.925626e+01   5.320016e+02
  -5.661992e+02   1.125484e+02
  -5.555282e+02  -2.845782e+02
  -2.022476e+02  -5.821735e+02
   3.192305e+02  -3.409314e+02
   6.484306e+02   7.133748e+01
   3.804538e+02   3.642120e+02
  -1.304065e+02   3.367693e+02
  -4.553742e+02   5.435032e+01
  -2.582241e+02  -1.659208e+02
   1.361271e+02  -1.322505e+02
   1.528372e+02   8.471154e+01
  -1.544106e+02   1.866257e+02
  -2.899273e+02  -3.116965e+01
  -1.510848e+02  -2.931988e+02
   1.851395e+02  -2.868780e+02
   3.384402e+02  -7.163403e+01
   2.326730e+02   1.378799e+02
  -3.256061e+01   2.200382e+02
  -2.358908e+02   3.853304e+02
  -3.813639e+02   1.918333e+02
  -2.970372e+02  -1.447557e+02
  -6.709228e+01  -4.237488e+02
   1.230276e+02  -4.581417e+02
   8.848891e+01  -1.213856e+02
   6.121403e+01  -6.151211e+01
   7.134641e+01  -9.939640e+01
   1.842894e+02  -1.094665e+02
   2.072834e+02   3.382234e+00
   1.897042e+02   2.831401e+02
  -8.189796e+01   2.324811e+02
  -2.005994e+02  -3.739158e+01
  -1.942176e+02  -2.625412e+02
   3.510375e+01  -3.010664e+02
   2.654689e+02  -1.227602e+02
   3.379524e+02   1.263057e+02
   2.193878e+02   2.995064e+02
  -6.972660e+01   3.011596e+02
  -2.458754e+02   9.374972e+01
  -1.087271e+02   1.620272e+01
  -1.025059e+02   9.232731e+00
  -2.186068e+02   6.864145e+01
  -4.037380e+02  -7.919867e+01
  -2.852529e+02  -2.642322e+02
   4.780821e+01  -4.603120e+02
   3.602831e+02  -4.135226e+02
   4.573762e+02  -2.180199e+02
   2.815196e+02   1.124486e+02
   4.220960e+01   2.948943e+02
  -1.127519e+02   2.796532e+02
  -7.704572e+01   8.718348e+00
   8.549914e+01  -1.020793e+02
   2.355202e+02  -6.040796e+00
   7.249803e+01   2.019981e+02
  -1.864643e+02   1.813165e+02
  -1.353880e+02  -7.534408e+01
   1.014825e+01  -1.501420e+02
   2.134898e+02  -5.856889e+00
   1.632218e+02   2.701479e+02
  -4.652344e+00   3.838441e+02
  -2.347503e+02   1.595146e+02
  -3.455541e+02  -6.575148e+01
  -2.538549e+02  -2.478695e+02
  -7.547554e+01  -2.604085e+02
   1.428211e+02  -1.186730e+02
   1.957000e+02  -3.798120e-01
   1.064926e+01   6.807584e+01
  -8.175400e+01  -2.142824e+01
  -1.604596e+01  -1.637642e+02
   1.241986e+02  -5.209407e+01
   1.752319e+02   1.599670e+00
   4.581631e+01   7.257480e+01
  -7.116773e+01   2.684802e-01
  -4.407845e+01  -9.355257e+01
   1.465872e+02  -1.030331e+02
   3.281288e+02   2.013545e+01
   2.248627e+02   1.601606e+02
   4.416469e+01   2.547078e+02
  -2.024627e+02   2.594461e+02
  -2.753102e+02   9.677899e+01
  -1.641579e+02  -3.375970e+01
   6.313525e+01  -1.135043e+02
   9.804191e+01   6.817199e+00
  -2.170557e+01   1.288732e+02
  -2.045947e+02   2.193025e+01
  -1.953645e+02  -1.204749e+02
  -6.541409e+01  -2.138956e+02
   1.059144e+02  -1.549902e+02
   1.814476e+02  -2.951872e+01
   6.630299e+01   1.100382e+01
  -2.497399e+01  -5.344261e+00
  -9.311475e+01  -8.211899e+01
   6.089555e+01  -7.821455e+01
   1.717107e+02  -3.771517e+01
   1.718216e+02   1.285142e+02
   3.570604e+01   2.174296e+02
  -1.598599e+02   1.867222e+02
  -1.935339e+02   1.973636e+01
  -7.078423e+01  -1.019126e+02
   3.289092e+01  -1.362895e+02
   8.085556e+01  -1.026867e+01
   5.089531e-01   3.602799e+01
  -6.385524e+00   3.849257e+00
   2.232248e+01  -4.873146e+01
   3.235379e+01   4.327205e+01
   6.560996e+01   9.455773e+01
   2.427302e+01   1.539911e+02
  -1.476134e+02   1.337393e+02
  -1.916792e+02   2.368288e+00
  -1.671506e+02  -1.592396e+02
  -4.487511e+01  -1.920163e+02
   8.141238e+01  -1.766182e+02
   1.622645e+02  -2.190506e+01
   3.021919e+01   4.769857e+01
   5.625151e+00   5.913763e+01
   5.079459e+01   3.577362e+00
   9.572413e+01  -2.830109e+01
   5.337172e+01   4.473302e+01
  -3.904023e+01   7.523570e+01
  -1.370476e+02   4.902903e+01
  -8.172893e+01  -4.842669e+01
   2.990585e+01  -8.474367e+01
   1.360533e+02  -9.013856e+01
   1.853200e+02   3.377989e+01
   8.048015e+01   1.950162e+02
  -1.041806e+02   2.682825e+02
  -2.444345e+02   6.985741e+01
  -2.236116e+02  -1.057663e+02
  -9.719966e+01  -1.580860e+02
   4.114669e+01  -8.883618e+01
   9.225794e+01  -3.395685e+01
   4.486095e+01  -5.420044e+01
   9.721284e+01  -1.344852e+02
   9.287844e+01  -5.605241e+01
   1.443262e+02   2.335993e+01
   1.494865e+02   2.023111e+02
  -5.824623e+00   2.289192e+02
  -1.043504e+02   1.292865e+02
  -1.659515e+02   2.861419e+01
  -1.024763e+02  -1.682884e+02
  -5.466834e+00  -1.473250e+02
   5.947608e+01  -1.193458e+02
   5.543382e+01   5.242067e+01
  -2.734074e+01   4.807006e+01
  -2.233561e+01   1.434964e+01
   4.314488e+01  -1.651521e+01
   7.405322e+01   2.398073e+01
  -1.140638e+01  -1.065343e+01
  -5.007564e+01   3.956961e+01
  -1.503218e+02  -2.727351e+01
  -1.121970e+02  -7.968968e+01
  -9.167879e+00  -7.639426e+01
   1.485766e+02  -5.986439e+01
   8.222141e+01   4.274124e+00
   4.061619e+01   2.299277e+01
  -6.782421e+01   2.003273e+01
  -7.536927e+01  -2.264400e+01
  -1.976180e+01  -5.959720e+01
   1.137989e+01  -6.541361e+01
   5.017729e+01  -2.629747e+01
   5.700779e+01   6.053930e+01
   3.783146e+01   3.283567e+01
   7.193143e+01   1.046336e+01
   5.852107e+01   1.535299e+01
   8.060333e+01   8.890565e+01
  -2.004051e+01   2.082009e+02
  -1.668174e+02   1.326480e+02
  -1.735995e+02  -1.631544e+01
  -9.981929e+01  -8.743386e+01
  -5.694214e+00  -1.461084e+02
   9.101888e+01  -4.698831e+01
   3.969628e+01   1.160544e+01
  -5.248987e+01   4.306704e+01
  -1.828628e+02  -3.638949e+01
  -7.483232e+01  -9.158718e+01
   7.584883e+01  -1.104128e+02
   2.301915e+02  -7.154565e+01
   1.651245e+02   4.765673e+01
   2.996101e+01   1.046882e+02
  -8.398139e+01   4.453526e+01
  -5.908766e+01   3.298177e+01
   4.436529e+01  -3.433235e+00
   1.280769e+02   2.417127e+01
   1.356136e+00   1.021704e+02
  -1.415485e+02   1.672570e+02
  -1.737156e+02   5.405891e+01
  -1.420098e+02  -9.467904e+01
   2.833128e+01  -2.001956e+02
   1.059127e+02  -1.454124e+02
   9.643574e+01  -1.329744e+01
   2.629437e+01   8.832182e+01
  -3.510349e+01   8.153311e+01
  -3.859478e+01   6.217811e+01
  -8.658522e+01  -2.406025e+01
  -2.816761e+01  -1.251151e+01
   3.459808e+01   4.846910e+00
  -1.582047e+01  -2.791648e+01
  -3.796620e+01  -9.437695e+01
  -6.597049e+01  -9.364399e+01
   7.870703e+01  -2.229382e+01
   1.028944e+02   6.502316e+01
   9.290007e+01   8.491326e+01
   2.667406e+00   5.689194e+01
  -1.145672e+02   1.025943e+01
  -1.044385e+02  -3.662974e+01
   6.184104e+00  -2.493990e+01
   2.304933e+01  -5.019170e+01
   9.239610e-01  -3.057008e+01
  -5.210664e+01   2.356372e+01
   7.722432e+00   2.905936e+01
   4.958710e+01   2.781920e+01
   1.066679e+02   2.230837e+01
  -1.863466e+00   8.313996e+01
  -1.358091e+02   1.512457e+02
  -2.087354e+02   6.839783e+01
  -1.263158e+02  -7.595883e+01
   2.435647e+01  -1.253921e+02
   9.243745e+01  -1.895093e+02
   1.114878e+02  -4.666431e+01
   1.088328e+02   5.048775e+00
   2.951007e+01   1.434306e-01
   1.278215e+01   2.513324e+01
   1.076092e+01   1.750753e+01
   4.794472e+00   2.497831e+01
   2.392388e+01   1.213641e+02
  -4.438800e+01   6.265451e+01
  -9.174123e+01  -2.501401e-01
  -9.597088e+01  -9.331028e+01
   3.969173e+00  -1.093784e+02
   5.405568e+01  -2.496211e+01
   9.608488e+01   1.391866e+02
  -8.065568e+00   9.256546e+01
  -1.047045e+02   6.153445e+01
  -1.534940e+02  -1.611128e+01
  -4.704912e+01  -6.054071e+01
   6.797942e+01  -7.479120e+01
  -6.268172e+00  -4.556940e-01
  -3.589193e+01   2.006469e+01
  -1.048578e+02   1.118596e+01
  -1.478838e+01   1.536319e+01
   4.547937e+01  -8.401144e+01
   1.022289e+02  -4.843435e+01
   2.993736e+01   7.831394e+00
  -3.075620e+01   7.672983e+01
  -6.367019e+01   7.100547e+01
  -4.966746e+01   4.925116e+01
  -7.887881e+00  -6.159626e+01
   6.250528e+01  -7.068385e+01
   7.734462e+01   5.147765e+01
   3.210625e+01   8.433057e+01
  -4.220623e+01   4.805257e+01
  -3.385298e+01  -1.746351e+00
  -3.828953e+01  -2.548197e+01
   1.119771e+01  -2.497540e+01
   1.703089e+00  -1.343576e+01
   2.007987e+01   2.395037e+01
   5.298360e+01  -5.829788e+01
   6.778137e+00  -4.318593e+01
   2.942428e+01   1.787887e+00
   4.552253e+01  -3.947344e+00
  -1.652054e+01   8.013705e+01
  -5.039012e+01   2.202397e+01
  -6.336671e+01  -6.056623e+01
   2.155444e+01  -5.482320e+01
   1.096859e+02  -6.847640e+01
   1.009171e+02   1.099690e+01
   3.822833e+01   5.199571e+00
  -2.812555e+01   7.866467e+01
  -5.338150e+01   6.996327e+01
   2.321537e+01  -1.045677e+01
   6.221709e+01  -1.213442e+01
   3.606982e+01  -3.154379e+01
  -2.960307e+01   8.774754e+00
  -7.966211e+01   4.681725e+01
