
 $NMID
 id='ANONYMOUS ', fmtdat='(2E16.6)'
 volume=1.0
 tramp=1.0
 $END
  -4.241526e+03  -3.491834e+01
  -2.704799e+03  -2.316177e+03
   5.033910e+02  -2.566398e+03
   2.080764e+03  -1.002796e+03
   1.006911e+03   3.848324e+02
  -5.726424e+02   4.315489e+02
  -8.022622e+02  -3.885962e+02
   3.973270e+01  -9.418521e+02
   7.082227e+02  -7.874940e+02
   8.454882e+02   2.729941e+01
   4.604775e+02   7.140003e+02
  -1.124836e+02   7.890815e+02
  -5.014100e+02   1.138394e+02
  -3.051047e+02  -6.355090e+02
   2.069042e+02  -6.769325e+02
   5.014585e+02  -5.361136e+00
   2.790337e+02   5.515468e+02
  -2.402636e+02   6.251920e+02
  -5.376735e+02   1.503006e+02
  -4.205951e+02  -2.942139e+02
  -1.020131e+02  -3.723811e+02
   2.120639e+02  -2.894664e+02
   1.272464e+02  -9.330716e+01
  -1.441013e+02   4.369745e+01
  -3.517967e+02  -1.219494e+02
  -1.369700e+02  -4.172022e+02
   4.700910e+02  -3.335378e+02
   7.233460e+02   7.286722e+01
   3.816668e+02   5.305429e+02
  -3.922950e+02   4.496789e+02
  -6.474974e+02  -3.508780e+01
  -3.071385e+02  -4.534902e+02
   2.524087e+02  -4.883305e+02
   5.311005e+02  -2.311170e+02
   3.293125e+02   1.761942e+02
   7.308011e+01   4.522014e+02
  -6.810314e+01   2.867615e+02
  -1.006854e+02  -2.162992e+02
   1.368738e+02  -3.562551e+02
   3.721669e+02   3.458022e+01
   1.909474e+02   6.095208e+02
  -2.788482e+02   6.184370e+02
  -5.535041e+02  -1.192329e+01
  -1.613227e+02  -4.243259e+02
   2.977082e+02  -2.518314e+02
   3.264657e+02   3.042070e+02
  -7.215931e+01   4.900716e+02
  -4.759959e+02   9.529082e+01
  -5.231994e+02  -3.617050e+02
  -1.838172e+02  -5.323924e+02
   3.253048e+02  -3.572053e+02
   5.767171e+02   4.702610e+01
   3.229128e+02   3.475354e+02
  -1.408072e+02   3.110044e+02
  -3.662197e+02   7.019423e+01
  -2.434406e+02  -1.264603e+02
   5.853777e+01  -1.013438e+02
   7.624055e+01   1.032298e+02
  -1.538051e+02   1.810062e+02
  -3.035363e+02  -3.357068e+01
  -1.562276e+02  -2.457682e+02
   1.698168e+02  -2.760959e+02
   3.501070e+02  -8.609361e+01
   2.542755e+02   7.731111e+01
  -3.615108e+01   2.679513e+02
  -2.102833e+02   3.398465e+02
  -3.108681e+02   1.973063e+02
  -2.804099e+02  -5.954915e+01
  -1.524396e+02  -4.091811e+02
   8.582194e+01  -3.776498e+02
   8.030466e+01  -9.951118e+01
   4.882579e+01  -4.654017e+01
   1.025632e+02  -1.013160e+02
   1.972274e+02  -8.756150e+01
   2.687416e+02   7.797317e+01
   1.407505e+02   3.027305e+02
  -6.435894e+01   2.515063e+02
  -1.839570e+02   3.537382e+00
  -1.623125e+02  -2.274567e+02
   7.371017e+01  -3.030511e+02
   2.690503e+02  -1.176958e+02
   3.849987e+02   1.564809e+02
   1.793569e+02   3.249361e+02
  -1.142326e+02   2.976515e+02
  -2.293117e+02   1.500197e+02
  -1.474803e+02   1.230556e+01
  -9.506155e+01   1.122437e+02
  -2.543564e+02   6.206566e+01
  -4.322614e+02  -8.477103e+01
  -3.437893e+02  -2.714535e+02
   1.072991e+01  -3.858838e+02
   3.812667e+02  -3.590052e+02
   5.093374e+02  -1.651940e+02
   3.161939e+02   1.151404e+02
   2.437434e+01   2.666411e+02
  -8.449374e+01   2.337672e+02
  -9.909949e+01   4.920359e+01
   1.173591e+02  -5.889147e+01
   1.627597e+02   6.569984e+00
   1.137159e+02   2.215491e+02
  -1.647417e+02   1.856026e+02
  -1.367335e+02  -1.453884e+01
   2.274108e+01  -2.100692e+02
   1.543635e+02  -4.155758e+01
   1.055966e+02   2.099649e+02
   1.345541e+01   3.562227e+02
  -2.454623e+02   2.039510e+02
  -3.645481e+02  -1.101676e+02
  -2.448971e+02  -2.234543e+02
  -9.705878e+01  -2.666376e+02
   1.183154e+02  -1.931771e+02
   1.971637e+02   4.308828e+00
   3.748507e+01   1.073277e+01
  -5.690104e+01  -2.630677e+01
  -2.915718e+01  -1.227676e+02
   1.052326e+02  -1.149122e+02
   1.703176e+02   9.418086e+00
   7.692877e+01   8.164046e+01
  -1.024564e+02   1.575895e+01
  -2.645626e+01  -5.869839e+01
   1.323236e+02  -6.192037e+01
   2.816678e+02  -2.368539e+01
   2.906712e+02   1.555765e+02
   1.424273e+01   2.685641e+02
  -1.654083e+02   2.588466e+02
  -3.439210e+02   1.225424e+02
  -1.885842e+02   7.427763e+00
   2.867148e+01  -1.145204e+02
   9.962889e+01  -6.268082e+00
  -6.073978e+01   1.154842e+02
  -1.916097e+02   4.282853e+01
  -2.328022e+02  -1.015895e+02
  -6.957617e+01  -1.900015e+02
   8.812937e+01  -1.202693e+02
   1.358753e+02  -2.980638e+01
   8.734501e+01   4.963870e+01
  -3.847922e+01   2.902196e+01
  -5.338490e+01  -9.400986e+01
   3.563232e+01  -6.698515e+01
   1.842160e+02  -6.759032e+01
   1.948856e+02   1.072714e+02
   4.495746e+01   1.887193e+02
  -1.576357e+02   1.719314e+02
  -1.685770e+02   2.216017e+00
  -6.180474e+01  -1.139993e+02
   2.199723e+01  -1.183652e+02
   5.026177e+01  -1.478332e+01
   1.034051e+00   1.939724e+01
  -1.229657e+01  -2.736597e+01
  -1.823990e+01  -3.267438e+00
   6.113409e+01  -1.430367e+00
   8.579719e+01   1.159364e+02
  -1.325022e+01   1.042705e+02
  -1.283777e+02   1.529643e+02
  -2.061323e+02  -1.558022e+00
  -1.748661e+02  -1.432378e+02
  -1.006346e+01  -2.186349e+02
   1.556475e+02  -1.289732e+02
   1.175909e+02   3.403346e+00
   7.542840e+01   4.093860e+01
   3.123024e+01   1.334848e+01
   6.912871e+01   1.510791e+01
   9.425140e+01   8.971481e-01
   1.509962e+01   5.529041e+01
  -2.852540e+01   6.086598e+01
  -1.189756e+02   6.501306e+01
  -8.052758e+01  -7.859579e+00
   8.036705e+01  -1.402535e+02
   1.688513e+02  -7.315252e+01
   1.882919e+02   7.562523e+01
   9.064753e+01   2.283758e+02
  -1.343174e+02   1.957728e+02
  -2.374047e+02   9.252874e+01
  -2.242362e+02  -6.864904e+01
  -1.270612e+02  -1.437941e+02
   4.517678e+01  -1.441633e+02
   1.470183e+02  -4.421390e+01
   4.791717e+01  -5.071357e+01
   9.401940e+01  -8.720290e+01
   9.451450e+01  -9.915892e+01
   1.141424e+02   3.075105e+01
   1.016385e+02   1.333878e+02
   1.416157e+01   2.390602e+02
  -1.416603e+02   1.811398e+02
  -1.310326e+02   4.043650e+01
  -1.485017e+02  -1.278668e+02
  -2.719225e+01  -1.506345e+02
   5.487959e+01  -8.588254e+01
   4.025931e+01  -9.777045e+00
  -4.055911e+00   1.123043e+01
   2.828627e+01   3.568210e+01
   3.209854e+01   3.393970e+01
   8.596368e+01   5.396804e+01
   1.655734e+01   5.084289e+01
  -7.246570e+01   5.505569e+01
  -1.560943e+02  -4.409373e+01
  -1.449486e+02  -4.248024e+01
   5.352663e+01  -1.204392e+02
   1.028951e+02  -1.016160e+02
   1.406701e+02   1.375894e+00
   4.814835e+01   3.463232e+01
  -3.902056e+01   8.374401e+01
  -3.272336e+01   1.522564e+01
   4.899057e+01  -9.318293e+01
   4.322393e+01  -6.390065e+01
   4.517837e+01   2.199891e+01
   4.136242e+01   8.517875e+01
   4.167469e+01   5.614959e+01
   2.916084e+01   2.617564e+01
   5.269804e+01   3.278122e+01
  -7.734436e-01   9.038586e+01
  -1.993284e+01   1.693155e+02
  -1.238666e+02   1.398699e+02
  -2.089829e+02   3.817945e+01
  -1.077053e+02  -7.402847e+01
   1.540244e+01  -1.130925e+02
   9.866389e+01  -8.211279e+01
   1.201824e+01   1.941620e+01
  -5.225509e+01  -1.855281e+01
  -1.401819e+02  -3.619158e+01
  -8.566575e+01  -1.038383e+02
   1.138832e+02  -1.248735e+02
   1.976190e+02  -4.302750e+01
   1.500746e+02   3.353956e+01
   3.395085e+01   8.693571e+01
  -5.929184e+01   1.046637e+02
  -6.592691e+01   1.769551e+01
  -2.725523e+00  -1.358787e+01
   6.826063e+01   2.202366e+01
   2.164577e+01   1.432965e+02
  -7.379879e+01   1.574508e+02
  -1.494481e+02   7.290851e+01
  -1.102939e+02  -1.404325e+02
  -3.070829e+01  -1.919284e+02
   9.297029e+01  -1.276238e+02
   8.863321e+01   2.693264e+01
   5.281071e+01   9.940667e+01
  -2.866704e+01   7.908934e+01
  -2.397184e+00   4.064580e+01
  -3.291028e+01  -3.638040e+01
  -3.637991e+01  -9.508006e+00
   1.884959e+01   3.779313e+01
  -1.936037e+01   1.886798e+00
  -4.125267e+01  -5.935272e+01
  -8.256465e+01  -7.922320e+01
   5.974633e+01  -3.507164e+01
   1.564782e+02   3.829677e+01
   1.412972e+02   4.157782e+01
  -1.176672e+01   5.931796e+01
  -1.014702e+02  -4.301980e+01
  -1.008853e+02   3.553014e+01
   2.968408e+01  -1.254733e+01
   2.653917e+01  -2.140017e+01
   1.771798e+01  -1.657018e+01
  -8.203562e+00   1.550852e+01
   2.111473e+01   2.548586e+01
   1.005156e+02  -4.337869e+01
   6.047255e+01   4.437683e+01
  -2.718373e-01   8.009791e+01
  -1.007423e+02   1.420599e+02
  -1.994795e+02   6.427075e+01
  -1.841774e+02  -1.175395e+02
  -4.288855e+01  -1.734081e+02
   9.949559e+01  -1.793826e+02
   9.603908e+01  -3.624912e+01
   9.001093e+01   6.191700e+00
   3.117610e+01   4.369561e+01
  -2.861644e+01   2.112487e+01
  -6.829057e-01   1.019535e+01
   1.793431e+01   8.679338e+01
   3.879542e+01   1.011207e+02
  -2.753948e+01   4.620161e+01
  -1.039875e+02  -1.187849e+01
  -9.296199e+01  -9.005062e+01
  -2.704469e+01  -1.303324e+02
   8.729624e+01  -2.428132e+01
   9.434278e+01   4.947945e+01
   2.177182e+01   1.274412e+02
  -9.365175e+01   4.639329e+01
  -6.306857e+01  -4.480904e+01
  -4.563001e+01  -2.633090e+01
   2.520697e+01  -4.407696e+01
   3.666953e+01  -3.171067e+01
  -3.876555e+01   3.300805e+00
  -3.643313e+01   1.820368e+01
   2.133058e+01  -1.050851e+01
   8.026985e+01  -7.369313e+01
   1.089638e+02  -1.630025e+01
   8.678385e+01  -7.722024e+00
  -1.327054e+01   1.133608e+02
  -2.891189e+01   6.206023e+01
  -4.023764e+01  -1.164770e+00
   1.941051e+00  -5.914547e+01
   5.936207e+00  -6.264951e+01
   5.289398e+01   3.780853e+01
   3.455049e+01   4.921959e+01
   3.256456e+00   4.211683e+01
  -4.005030e+01  -7.770380e-01
  -2.644083e+01  -5.856682e+01
  -4.944692e+01  -2.076108e+01
   1.632345e+01  -4.731005e+00
   1.256228e+01   3.871992e+01
  -2.111783e+01  -7.173032e+01
   1.244116e+01  -4.962655e+01
   6.198938e+01  -1.130754e+01
   4.569947e+01   1.547713e+01
   1.450972e+01   3.261030e+01
  -5.222813e+01   5.973067e+01
  -9.520414e+01  -5.080555e+01
  -3.277671e+01  -8.043447e+01
   3.637601e+01  -3.338071e+01
   9.749431e+01  -2.149011e+01
   4.102599e+01   6.183313e+01
  -3.821970e+01   4.788119e+01
  -9.113797e+01   1.392836e+01
  -6.097341e+01  -2.095996e+01
   7.951689e+00   2.571536e+01
   4.871116e+01  -2.152002e+01
  -6.235228e+01   1.904058e+01
  -6.619500e+01   3.072851e+01
