
 $NMID
 id='ANONYMOUS ', fmtdat='(2E16.6)'
 volume=1.0
 tramp=1.0
 $END
  -3.747287e+03   3.198222e+02
  -2.209374e+03  -2.141769e+03
   2.322213e+02  -2.234717e+03
   1.381435e+03  -9.700189e+02
   1.021742e+03   4.114433e+01
  -8.307403e+01   2.443414e+02
  -4.687450e+02  -9.958222e+01
  -1.836227e+01  -5.181730e+02
   5.125277e+02  -5.839593e+02
   6.807972e+02  -1.082625e+02
   3.831167e+02   5.750245e+02
  -5.994532e+01   6.605803e+02
  -3.250410e+02   2.434223e+02
  -3.056354e+02  -4.757479e+02
   1.460117e+02  -5.598585e+02
   4.451438e+02  -6.597023e+01
   3.337089e+02   4.945553e+02
  -1.672263e+02   5.839405e+02
  -5.205732e+02   2.078874e+02
  -4.169977e+02  -1.708508e+02
  -1.153004e+02  -3.945449e+02
   1.121319e+02  -2.420967e+02
   8.818504e+01  -1.170806e+02
  -7.291785e+01  -9.251887e+01
  -2.188097e+02  -2.547920e+02
  -3.311126e+01  -2.590859e+02
   3.972090e+02  -1.551659e+02
   5.786116e+02   1.428861e+02
   2.153670e+02   3.837700e+02
  -2.965208e+02   2.477506e+02
  -5.381158e+02  -9.128803e+01
  -1.574215e+02  -3.406619e+02
   2.698322e+02  -3.693438e+02
   4.482879e+02  -1.337484e+02
   2.911530e+02   1.892197e+02
   7.393952e+01   3.625076e+02
  -1.091707e+02   2.030518e+02
   2.192220e+01  -6.449636e+01
   1.640443e+02  -1.544786e+02
   2.206019e+02   1.080198e+02
   1.075318e+02   4.140492e+02
  -2.858115e+02   4.954771e+02
  -3.167548e+02  -7.404721e+01
  -1.847081e+02  -3.269581e+02
   1.746146e+02  -1.630245e+02
   1.868927e+02   2.593453e+02
  -5.555455e+01   3.659549e+02
  -3.666406e+02   1.066895e+02
  -4.418713e+02  -4.278870e+02
  -1.391065e+02  -4.938183e+02
   2.551179e+02  -2.616186e+02
   4.996441e+02   7.540951e+01
   2.907244e+02   1.791497e+02
  -5.472118e+01   2.558414e+02
  -2.939872e+02   6.996662e+01
  -2.227736e+02  -2.688575e+00
  -5.036422e+00  -3.440935e+01
   2.683004e+01   9.580591e+00
  -1.184061e+02   4.488136e+01
  -2.532701e+02  -1.034472e+02
  -1.373450e+02  -1.979234e+02
   1.938424e+02  -2.183036e+02
   3.345245e+02  -1.388111e+02
   2.295838e+02   1.085114e+02
  -3.166869e+01   2.501499e+02
  -2.251560e+02   3.333034e+02
  -3.465844e+02   1.058442e+02
  -2.541165e+02  -9.702348e+01
  -7.845048e+01  -3.570060e+02
   2.325653e+01  -3.091039e+02
   3.516404e+01  -1.922853e+02
   2.849853e+01  -5.763790e+01
   1.364810e+02  -7.898234e+01
   1.905113e+02  -3.560530e+01
   2.523557e+02   1.107474e+02
   9.370763e+01   2.519479e+02
  -1.037618e+02   1.784260e+02
  -1.717548e+02  -5.319555e+01
  -1.269675e+02  -2.576370e+02
   2.953460e+01  -2.325478e+02
   2.207241e+02  -3.863052e+01
   2.703163e+02   1.720867e+02
   1.087509e+02   3.154901e+02
  -7.989936e+01   2.369074e+02
  -1.537448e+02   1.191513e+02
  -9.861862e+01   4.261076e+01
  -1.294850e+02   3.256342e+01
  -1.984454e+02   3.071818e+01
  -3.826023e+02  -1.192844e+02
  -2.664049e+02  -2.940709e+02
  -9.422855e+00  -4.048301e+02
   3.228181e+02  -3.830788e+02
   4.303939e+02  -1.743180e+02
   2.707974e+02   7.068920e+01
   5.001317e+01   2.457146e+02
  -1.142325e+02   1.941137e+02
  -6.548718e+01   6.860242e+00
   8.879516e+01  -6.488159e+01
   1.539231e+02   3.318157e+00
   1.002445e+01   1.821332e+02
  -1.227263e+02   9.067642e+01
  -8.299047e+01  -8.878074e+01
   7.684355e+00  -1.388102e+02
   1.892353e+02  -2.213211e+01
   1.188030e+02   2.216441e+02
  -3.570440e+01   2.932046e+02
  -2.227965e+02   2.033204e+02
  -3.180716e+02  -9.420718e+01
  -1.970870e+02  -2.433769e+02
  -7.545093e+01  -2.385173e+02
   1.512115e+02  -1.736606e+02
   1.504314e+02  -1.346392e+01
   2.882398e+01  -2.401403e+00
  -4.727735e+00  -3.665927e+01
   1.174326e+01  -9.510799e+01
   1.018465e+02  -4.727339e+01
   1.321227e+02   3.845714e+01
  -2.286323e+01   5.196391e+01
  -5.450550e+01  -3.965337e+01
  -2.375625e+01  -9.226025e+01
   1.499414e+02  -7.215202e+01
   3.061681e+02  -2.052897e+01
   2.311919e+02   1.565769e+02
   2.788513e+01   2.542591e+02
  -1.761268e+02   2.479666e+02
  -2.625674e+02   8.863177e+01
  -1.395921e+02  -4.703903e+01
   1.170263e+01  -5.474457e+01
   2.479292e+01  -1.080124e+01
  -7.816522e+01   1.220729e+02
  -1.912555e+02   2.998594e+01
  -1.571504e+02  -1.043783e+02
  -4.619039e+01  -1.925432e+02
   1.355604e+02  -1.158203e+02
   1.027596e+02  -1.965524e+01
   3.194634e+01   5.549313e+01
  -2.486782e+01   6.436207e-01
  -1.858250e+01  -9.172524e+01
   8.292225e+01  -9.669171e+01
   1.789640e+02  -2.289812e+01
   1.243555e+02   1.276256e+02
  -6.651992e+00   1.553199e+02
  -1.409882e+02   1.108795e+02
  -1.945313e+02   1.688057e+01
  -4.447995e+01  -6.161868e+01
   5.842300e+01  -7.135258e+01
   2.485138e+01  -2.460787e+01
  -9.788521e+00   2.652080e+01
  -3.896575e+01  -1.646287e+01
  -7.641663e+00  -9.927039e+00
   1.098271e+02  -3.426836e+01
   9.151497e+01   1.046448e+02
  -2.673987e+01   1.755976e+02
  -1.628208e+02   8.952153e+01
  -2.346553e+02   9.523850e+00
  -1.613353e+02  -1.486180e+02
   1.379029e+00  -2.295968e+02
   1.022106e+02  -1.580210e+02
   1.348909e+02  -5.425901e+01
   5.761631e+01   7.771967e+01
   4.319674e+01   5.003695e+01
   8.692319e+01  -2.651396e+01
   8.033740e+01  -2.980443e+00
   5.155607e+01   9.469642e+01
  -3.773770e+01   8.280175e+01
  -1.048520e+02   9.724433e+01
  -1.221551e+02  -4.268211e+01
   1.065692e+01  -1.015559e+02
   1.106569e+02  -9.096166e+01
   1.699934e+02   6.481475e+01
   6.452229e+01   2.231899e+02
  -9.642299e+01   2.132779e+02
  -2.330145e+02   7.009629e+01
  -2.423329e+02  -7.932112e+01
  -6.223939e+01  -1.552171e+02
   7.610352e+01  -8.717229e+01
   1.224665e+02  -7.890186e+01
   7.408908e+01  -4.760414e+01
   6.645188e+01  -6.729066e+01
   6.906188e+01  -4.462411e+01
   1.000300e+02   7.858564e+01
   1.043797e+02   1.562808e+02
   4.238774e+01   2.201530e+02
  -1.234472e+02   1.690479e+02
  -1.687803e+02   3.142479e+01
  -1.128973e+02  -1.352157e+02
   5.171540e+01  -1.489867e+02
   5.597424e+01  -9.429876e+01
   6.646439e+01  -1.343720e+01
   2.894121e+01   9.119858e+01
  -2.058265e+01   7.696453e+01
   4.156573e+01  -7.507927e+00
   7.549161e+01   2.170275e+01
   5.286718e+01   4.355716e+01
  -3.971457e+01   3.471655e+01
  -1.448987e+02  -7.393446e+00
  -1.454224e+02  -2.124441e+01
  -4.415317e+01  -6.501414e+01
   1.242439e+02  -6.163657e+01
   1.541653e+02   3.011988e+01
   7.747523e+01   5.248053e+01
  -4.961004e+01   4.753489e+01
  -1.144306e+02  -3.006797e+01
   1.945296e+01  -3.794717e+01
   5.833321e+01  -8.120191e+01
   7.258560e+01   1.487542e+01
   9.515389e+01   8.768137e+01
   5.083129e+01   1.416676e+01
   5.951561e+01   5.365617e+00
   4.254101e+01  -2.251654e+01
   6.281739e+01   6.314143e+01
  -7.403430e+01   1.387416e+02
  -1.431424e+02   1.314689e+02
  -1.964108e+02   6.571741e+01
  -1.415754e+02  -1.387030e+02
  -2.003430e+00  -1.398129e+02
   7.391154e+01  -5.414027e+01
   6.513939e+01  -1.356452e+01
  -6.593656e+01   2.870795e+01
  -1.124099e+02  -3.708937e+01
  -8.089260e+01  -1.247812e+02
   9.153806e+01  -8.806394e+01
   1.699227e+02  -3.120589e+01
   1.637579e+02   2.409431e+01
   2.659892e+01   8.407764e+01
  -7.362625e+01   7.147911e+01
  -5.847797e+01   3.183054e+01
   6.357349e+01  -5.516808e+01
   6.695809e+01   6.554598e+01
   2.592447e+01   1.306798e+02
  -1.036900e+02   1.356259e+02
  -1.527792e+02   7.997993e+01
  -1.150206e+02  -9.071212e+01
   3.743587e+01  -2.083302e+02
   4.848924e+01  -1.450761e+02
   1.130703e+02   2.359177e+01
   5.627403e+01   1.500310e+02
  -7.551956e+00   1.115758e+02
  -7.764279e+01   4.789434e+01
  -3.186529e+01  -3.349602e+01
   6.738017e+00   3.470711e+01
  -1.811604e+01   3.694071e+01
  -4.655657e+01   3.004751e+01
  -5.493107e+01  -8.391370e+01
  -4.600964e+01  -6.041640e+01
   9.270016e+01  -6.096704e+01
   1.720913e+02   7.258135e+00
   1.585464e+02   4.297449e+01
  -1.620928e+01   4.201671e+01
  -8.654701e+01  -3.158149e+01
  -5.078919e+01   2.917884e+01
  -1.337225e+01  -5.631100e+01
   7.904021e+01   9.234864e+00
   6.499651e+01   1.879512e+01
   2.028417e+01   3.473432e+01
   1.293864e+01   1.451043e+01
   6.261671e+01   1.168932e+01
   4.908855e+01   2.381854e+01
   3.127356e+01   9.858661e+01
  -1.124223e+02   1.301506e+02
  -1.614954e+02   7.329164e+01
  -1.475993e+02  -9.545892e+01
  -3.957355e+01  -1.760906e+02
   9.168385e+01  -1.332143e+02
   8.751952e+01  -8.117564e+01
   8.559903e+01   1.543880e+01
  -5.605340e+00   1.663481e+00
   2.725470e+01   8.793737e+00
   2.946482e+01   2.377540e+01
  -3.571344e-02   7.911461e+01
   1.230414e+01   5.540662e+01
  -3.231112e+01   5.778218e+01
  -6.456685e+01  -8.566369e+00
  -4.977730e+01  -1.164907e+02
   2.281972e+01  -1.008603e+02
   6.098174e+01  -7.621510e+00
   8.266716e+01   6.128463e+01
   7.524946e+01   1.089036e+02
  -6.513521e+01   6.591736e+01
  -8.818747e+01   3.804633e+01
  -3.568689e+01  -6.748302e+01
   3.405178e+01  -6.006211e+01
   3.675522e+01  -5.925232e+01
  -8.699172e+01   5.437227e-01
  -8.181483e+01  -1.396728e+01
   1.577994e+01  -6.240731e+01
   7.374646e+01  -8.759551e+01
   1.192541e+02  -6.647913e+01
   7.030373e+01  -7.504820e+00
  -4.133099e+01   9.341070e+01
  -8.358409e+01   6.520231e+01
  -2.021058e+01  -1.552614e+01
   1.720030e+01  -5.548615e+01
   4.331355e+01  -5.274027e+01
   6.957446e+01   1.675818e+01
   2.119291e+01   1.935363e+01
  -2.500674e+00   4.549033e+01
  -1.184053e+01  -2.075003e+00
  -9.052149e+01  -1.141348e+01
   9.065010e-01  -4.680998e+01
  -2.583637e+01   1.646832e+01
   3.568445e+01  -5.661738e+00
   2.298231e+01  -1.408766e+01
   4.386895e+01  -7.024655e+01
   5.242056e+01  -1.868148e+01
  -1.028360e+00   3.547182e+01
   5.364031e+00   7.568133e+01
  -4.467970e+01   3.576946e+01
  -5.722036e+01  -4.591921e+01
  -2.609682e+01  -8.526207e+01
   5.872876e+01   2.233433e+00
   9.883409e+01  -9.857715e+00
   2.818081e+01   3.191207e+01
  -3.774027e+01   5.923334e+00
  -6.182370e+01   1.794354e+01
  -2.487558e+01  -2.218194e+00
   4.388065e+01  -1.529483e+01
   3.500940e+01  -8.535923e+00
  -5.005691e+00   3.891389e+01
  -9.031035e+01   4.032964e+00
