
 $NMID
 id='ANONYMOUS ', fmtdat='(2E16.6)'
 volume=1.0
 tramp=1.0
 $END
   3.856725e+03   2.390517e+02
   2.473801e+03   2.119100e+03
  -2.589416e+02   2.469451e+03
  -1.613445e+03   1.298013e+03
  -9.166913e+02  -1.874677e+02
   2.703895e+02  -3.623980e+02
   6.139176e+02   2.284434e+02
   1.148988e+02   7.608685e+02
  -6.625356e+02   7.092992e+02
  -8.122787e+02   3.348167e+01
  -4.610595e+02  -6.940704e+02
   1.102978e+02  -7.502637e+02
   4.284307e+02  -1.836981e+02
   3.727917e+02   6.096974e+02
  -1.851306e+02   6.817054e+02
  -4.937762e+02   4.929029e+01
  -3.062609e+02  -5.557305e+02
   2.266383e+02  -6.546073e+02
   5.284371e+02  -2.298518e+02
   4.019044e+02   2.522410e+02
   1.200113e+02   4.029204e+02
  -1.578067e+02   2.776696e+02
  -1.704275e+02   6.312306e+01
   1.668087e+02  -5.883705e+00
   3.182663e+02   1.711323e+02
   8.863566e+01   3.690258e+02
  -4.555876e+02   2.611200e+02
  -7.249334e+02  -1.226429e+02
  -3.369149e+02  -4.804338e+02
   3.990586e+02  -3.378479e+02
   6.069640e+02   5.493774e+01
   2.366870e+02   4.002929e+02
  -3.103547e+02   4.689270e+02
  -5.639783e+02   1.890313e+02
  -4.296267e+02  -1.992903e+02
  -7.563070e+01  -4.585526e+02
   1.455164e+02  -2.930572e+02
   4.742696e+01   1.302399e+02
  -1.109205e+02   3.257781e+02
  -3.318227e+02  -3.839792e+01
  -1.376973e+02  -5.771340e+02
   3.181801e+02  -6.020611e+02
   4.805098e+02   7.567720e+01
   1.580290e+02   4.885618e+02
  -2.054773e+02   2.471606e+02
  -2.727322e+02  -3.486159e+02
   6.445985e+01  -4.941764e+02
   5.317656e+02  -1.166478e+02
   4.936161e+02   3.014920e+02
   1.701859e+02   5.204440e+02
  -3.081349e+02   3.070072e+02
  -5.777867e+02  -7.267539e+01
  -3.564867e+02  -3.351600e+02
   1.216449e+02  -2.696661e+02
   3.745449e+02  -4.718197e+01
   2.307635e+02   9.492785e+01
  -2.666403e+01   7.263754e+01
  -6.885380e+01  -7.597045e+01
   1.597730e+02  -1.217304e+02
   2.648034e+02   5.278274e+01
   1.862977e+02   2.336947e+02
  -1.943093e+02   2.207105e+02
  -3.387706e+02   8.354015e+01
  -2.223120e+02  -7.730680e+01
  -8.593013e+00  -2.663547e+02
   2.591180e+02  -3.318052e+02
   3.774551e+02  -2.088434e+02
   2.599522e+02   1.093416e+02
   4.316263e+01   4.159331e+02
  -4.482966e+01   4.296513e+02
  -8.300987e+01   1.419109e+02
  -1.838197e+01   2.811884e+01
  -1.331379e+02   7.312843e+01
  -2.451299e+02   7.309676e+01
  -2.791088e+02  -9.571698e+01
  -1.056227e+02  -2.851799e+02
   8.526476e+01  -1.673447e+02
   2.460680e+02  -8.242680e+00
   1.503927e+02   2.425812e+02
  -4.003060e+01   2.721424e+02
  -2.696129e+02   1.010799e+02
  -3.448500e+02  -1.467348e+02
  -1.776332e+02  -3.651144e+02
   7.791848e+01  -2.694610e+02
   1.851154e+02  -1.700982e+02
   1.436585e+02  -6.462737e+01
   1.006148e+02  -7.339738e+01
   2.518287e+02  -7.997800e+01
   4.216641e+02   5.565800e+01
   2.846211e+02   3.021834e+02
  -2.470866e+01   4.276837e+02
  -3.872178e+02   3.793938e+02
  -4.784598e+02   2.082872e+02
  -2.610124e+02  -1.135406e+02
   9.360479e-01  -2.130935e+02
   1.164644e+02  -2.405977e+02
   5.598577e+01  -3.234871e+01
  -1.096641e+02   4.613959e+01
  -1.564304e+02  -7.334439e+01
  -1.757391e+01  -1.483853e+02
   1.715222e+02  -1.268221e+02
   2.082440e+02   8.444800e+01
  -1.315263e+01   1.623222e+02
  -1.865190e+02   1.060615e+01
  -1.449789e+02  -2.264216e+02
   3.284690e+01  -3.593481e+02
   2.385415e+02  -2.016914e+02
   3.388072e+02   8.051904e+01
   2.758846e+02   2.066597e+02
   2.293191e+01   3.125915e+02
  -1.126277e+02   1.412519e+02
  -1.825551e+02  -2.212788e+01
  -3.059451e+01  -3.484255e+01
   5.214185e+01   7.954066e+01
  -2.044698e+01   1.051381e+02
  -1.285997e+02   7.893223e+01
  -1.503057e+02  -2.098500e+01
  -5.735541e+01  -7.155337e+01
   7.573513e+01  -1.479490e+01
   4.494489e+01   6.642865e+01
  -1.510349e+02   5.876720e+01
  -2.505823e+02  -2.152770e-01
  -3.004789e+02  -1.438385e+02
  -5.902228e+01  -2.410625e+02
   1.906622e+02  -2.335345e+02
   2.264011e+02  -1.165832e+02
   1.583132e+02   7.464538e+01
  -1.386012e+00   7.577222e+01
  -7.718512e+01  -1.877036e+01
   3.624998e+01  -1.125060e+02
   1.709804e+02  -1.642622e+01
   1.605618e+02   7.850002e+01
   8.228351e+01   1.943639e+02
  -6.467818e+01   1.040235e+02
  -1.503931e+02   4.028153e+01
  -7.389777e+01  -2.690425e+01
   7.010248e+01   1.834650e+01
   2.194814e+01   5.279809e+01
  -7.215357e+01   1.297793e+02
  -1.891178e+02   3.513147e+01
  -1.977315e+02  -1.655092e+02
  -3.206112e+00  -1.846065e+02
   1.349060e+02  -1.823928e+02
   2.052353e+02   1.845777e+00
   1.162033e+02   1.491487e+02
  -5.434338e+01   1.021581e+02
  -8.020501e+01   2.184350e+01
  -5.413758e+00   5.628323e+00
   1.708956e+01  -3.992852e+01
  -8.843952e+00   2.740060e+01
  -7.909306e+01   9.902001e+00
  -1.029160e+02  -1.098523e+02
  -2.450331e+01  -1.650400e+02
   1.488553e+02  -1.780847e+02
   2.743921e+02   1.678997e+01
   1.738105e+02   1.560914e+02
   4.948369e+01   2.268247e+02
  -1.039804e+02   1.766188e+02
  -1.319931e+02   4.351208e+01
  -6.451693e+01  -4.367194e+01
  -2.085023e+01  -4.468044e+01
  -6.614483e+01   2.126109e+01
  -8.672597e+01   2.018942e+00
  -2.642643e+01  -5.903566e+01
  -2.106003e+01  -1.279460e+02
   1.502729e+02  -7.625748e+01
   1.497153e+02   5.232383e+01
  -1.881402e+01   1.233523e+02
  -1.605806e+02   9.201294e+01
  -1.475769e+02  -6.405191e+01
  -9.078628e+01  -2.162506e+02
   9.274884e+01  -2.503192e+02
   2.558057e+02  -1.047264e+02
   2.324846e+02   6.911183e+01
   8.590659e+01   1.751119e+02
  -8.534869e+01   1.573919e+02
  -1.320187e+02   8.510501e+01
  -2.719628e+01   1.054250e+02
  -5.737641e+01   9.103203e+01
  -5.867414e+01   1.236245e+02
  -1.484958e+02  -2.945102e+01
  -1.198578e+02  -1.560368e+02
  -3.667914e+01  -2.416430e+02
   1.041566e+02  -1.576138e+02
   1.617418e+02  -3.119725e+01
   1.097479e+02   9.769528e+01
   2.789168e+01   1.763462e+02
  -7.815794e+01   1.171771e+02
  -3.184345e+01   2.082982e+00
  -1.510034e+01  -3.001354e+01
   4.085624e+01  -4.076355e+01
  -1.063446e+01  -1.379930e+01
  -9.266906e+01  -6.858170e+01
  -3.202433e+01  -5.803007e+01
   5.191288e+01  -3.398614e+01
   1.892730e+02  -6.598000e+00
   1.743488e+02   5.880722e+01
   3.848055e+01   1.102706e+02
  -1.255643e+02   1.063265e+02
  -1.536115e+02   1.951203e+01
  -6.679225e+01  -7.226097e+01
   4.894424e+01  -7.539521e+01
   6.901967e+01   2.362633e+01
   2.950340e+01   7.803522e+01
  -6.951659e+01   4.850806e+01
  -3.360084e+01  -3.969969e+00
  -7.580864e+00  -2.301727e+01
  -6.230542e+01  -3.040752e+01
  -7.209923e+01   2.664369e+01
  -7.139179e+01   9.687614e+00
  -4.877813e+01  -9.545574e+01
   2.022976e+01  -1.381144e+02
   1.445818e+02  -1.625596e+02
   1.987936e+02  -1.785258e+01
   1.020159e+02   7.193695e+01
   2.013705e+00   1.040655e+02
  -6.701293e+01   7.374073e+01
  -6.090933e+01   3.919367e+01
   4.238293e+01  -4.861932e+01
   1.903179e+02   9.870042e+00
   6.140869e+01   1.401329e+02
  -1.124873e+02   1.056220e+02
  -1.839275e+02   5.291608e+01
  -1.980409e+02  -7.665709e+01
  -5.619404e+01  -7.146220e+01
   1.015449e+02  -5.986970e+01
   9.601051e+01  -3.563570e+01
  -6.740563e+01   4.626149e+01
  -1.254230e+02  -2.545899e+01
  -4.455798e+00  -1.195532e+02
   1.071652e+02  -1.840084e+02
   1.401129e+02  -5.960136e+01
   8.474359e+01   5.473931e+01
   2.717110e+00   1.952799e+02
  -1.114112e+02   1.530748e+02
  -1.073044e+02  -5.273595e-01
  -3.354235e+01  -1.752809e+02
  -2.601515e+01  -8.061628e+01
   7.361946e+01  -3.002527e+01
   4.505855e+01   1.003744e+01
   3.843960e+01   1.623066e+01
   1.165550e+01   1.587568e+01
   4.978264e+01   3.363048e+01
   7.893540e+01   7.988223e+01
   7.443184e+01   1.174037e+02
  -5.622586e+01   6.636819e+01
  -1.497630e+02  -1.899161e+01
  -1.352280e+02  -3.789135e+01
  -2.281798e+01  -3.341729e+01
   7.966516e+01  -2.166434e+01
   9.371944e+01  -1.253074e+01
   4.209898e+01   3.988762e+00
  -6.317078e+01   2.025534e+01
  -6.270796e+01   8.501219e+00
   1.524692e+01  -1.319521e+01
  -3.301610e+00   1.121333e+01
  -5.522565e+01  -1.121232e+01
  -7.266867e+01   2.342521e+01
   1.990844e+01  -8.989251e+01
   6.887624e+01  -8.490188e+01
   1.543198e+02  -1.034492e+02
   1.802145e+02   3.439766e+01
   5.349550e+00   1.334159e+02
  -8.635971e+01   1.774453e+02
  -1.406243e+02   5.804205e+01
  -6.848494e+01  -1.807980e+01
  -3.896927e+01  -2.394256e+01
   1.266603e+01  -3.017060e+01
  -3.289460e+01   1.826409e+01
  -3.854156e+01  -6.369827e+01
  -2.972567e+01  -8.701374e+01
   6.045997e+01  -7.947370e+01
   1.023475e+02   2.028455e+01
   7.270055e+01   9.064931e+01
  -6.716664e+00   9.198852e+01
  -5.097350e+01  -1.190591e+01
  -1.502989e+02  -8.059740e+01
  -2.937136e+01  -8.941639e+01
   7.162991e+01  -6.867170e+01
   9.283064e+01   4.349620e+01
   2.128106e+01   2.588032e+01
  -6.187361e+01   7.559142e+01
  -5.189752e+01   1.750826e+01
   4.202018e+01   2.117663e+00
   7.206413e+01   3.824276e+00
  -9.017480e+00   2.653964e+01
  -7.839618e+01   7.779372e+01
  -1.223224e+02   6.529339e+01
  -1.093161e+02  -8.051697e+00
   1.050518e+01  -6.528171e+01
   5.990102e+01  -7.309639e+01
   3.495496e+01   1.282815e+01
  -2.697075e+01   7.686673e+01
  -3.308460e+01   5.729419e+01
  -2.103460e+01  -1.994713e+01
  -4.524206e+01  -6.121294e+01
  -8.557461e+00  -5.544224e+01
   7.174969e+01   1.599839e+01
   3.350563e+01   3.330592e+01
   5.294124e+00  -1.179139e+01
  -8.501524e+00   2.326145e+01
  -7.422540e+00  -3.745417e+00
   1.872721e+01   3.939466e+01
   3.281105e+01   2.942552e+01
  -3.180288e+01   3.699233e+01
   2.959645e+00  -3.034958e+01
  -5.415098e+01  -3.608177e+01
   2.954837e+01   1.140225e+01
   1.672976e+01   6.713456e+01
   7.881872e+00   5.828988e+01
  -5.843172e+01   2.274699e+01
  -8.457366e+01  -1.493260e+01
  -6.249592e+01  -4.732326e+01
   1.967281e+01  -7.811231e+01
   7.989668e+01  -2.396309e+01
   2.076558e+01   1.974298e+01
  -2.060214e+01   3.153190e+01
  -2.466101e+01   2.937091e+01
  -1.923829e+01  -3.493740e+01
   7.278407e+01  -7.378535e+00
