
 $NMID
 id='ANONYMOUS ', fmtdat='(2E16.6)'
 volume=1.0
 tramp=1.0
 $END
  -4.684514e+03  -4.183583e+01
  -2.736580e+03  -2.984083e+03
   6.554228e+02  -2.966575e+03
   2.115060e+03  -1.270575e+03
   1.020731e+03   8.090467e+02
  -6.528763e+02   7.424621e+02
  -1.045459e+03  -4.324996e+02
  -6.486846e+01  -1.133302e+03
   9.508993e+02  -8.528964e+02
   1.067525e+03   7.166686e+01
   5.215554e+02   9.321753e+02
  -2.742392e+02   9.692986e+02
  -6.596996e+02   1.535123e+02
  -4.906501e+02  -7.867744e+02
   2.713913e+02  -8.094917e+02
   6.930144e+02   2.635242e+00
   3.222577e+02   7.336576e+02
  -2.815399e+02   6.780214e+02
  -5.923659e+02   1.274225e+02
  -4.234578e+02  -3.913237e+02
   2.957712e+01  -4.924147e+02
   3.038995e+02  -2.531553e+02
   2.521540e+02   1.038455e+01
  -1.569583e+02   1.539623e+02
  -4.364449e+02  -1.313846e+02
  -2.381953e+02  -4.691718e+02
   4.329343e+02  -4.113782e+02
   8.544273e+02   3.892785e+01
   4.474331e+02   5.416284e+02
  -3.821575e+02   5.842219e+02
  -7.573228e+02  -2.691450e+01
  -3.931237e+02  -5.065093e+02
   2.190910e+02  -5.493129e+02
   5.683820e+02  -2.151024e+02
   4.981907e+02   2.463721e+02
   1.025652e+02   5.514154e+02
  -2.219530e+02   2.933447e+02
  -1.673699e+02  -2.463027e+02
   2.052801e+02  -4.446405e+02
   4.579087e+02   6.591134e+00
   2.042981e+02   7.430039e+02
  -3.288280e+02   7.437370e+02
  -6.466554e+02   5.325756e+01
  -2.925716e+02  -5.545455e+02
   3.025400e+02  -3.451140e+02
   4.106997e+02   3.290973e+02
  -2.086785e+01   5.759579e+02
  -5.517019e+02   1.463732e+02
  -6.601772e+02  -4.103696e+02
  -1.886106e+02  -6.161086e+02
   4.124171e+02  -3.627494e+02
   6.781993e+02   5.584786e+01
   3.247332e+02   4.219482e+02
  -1.656019e+02   3.608870e+02
  -4.414388e+02   5.799682e+01
  -2.484624e+02  -2.343927e+02
   1.380698e+02  -8.711533e+01
   1.173746e+02   1.304289e+02
  -1.974173e+02   2.156562e+02
  -3.515968e+02  -8.299333e+01
  -1.066167e+02  -2.990053e+02
   2.364927e+02  -2.929673e+02
   3.573644e+02  -4.716890e+01
   2.141412e+02   7.601181e+01
   2.423346e+01   2.358035e+02
  -2.195979e+02   3.074310e+02
  -3.549736e+02   2.408568e+02
  -3.367513e+02  -1.547026e+02
  -9.683807e+01  -4.746208e+02
   1.096742e+02  -4.374063e+02
   1.387648e+02  -1.234282e+02
   4.243806e+01   2.876175e+01
   3.630906e+01  -9.731247e+01
   1.996501e+02  -1.282117e+02
   3.205565e+02   2.985911e+01
   1.594840e+02   2.883430e+02
  -7.471625e+01   2.640954e+02
  -2.409678e+02   4.881398e+01
  -2.485143e+02  -2.869817e+02
  -4.092879e+00  -3.116985e+02
   2.568496e+02  -1.587879e+02
   4.066176e+02   1.678716e+02
   1.534163e+02   3.578309e+02
  -8.345725e+01   3.249580e+02
  -2.300343e+02   1.610553e+02
  -1.567788e+02   7.516976e+00
  -1.110577e+02   2.152671e+01
  -2.261325e+02   7.649412e+01
  -4.308208e+02  -2.331847e+01
  -4.013832e+02  -3.009651e+02
  -1.027554e+01  -4.799338e+02
   4.227803e+02  -4.199234e+02
   5.182666e+02  -1.661226e+02
   3.121649e+02   8.785893e+01
   4.526867e+01   2.976279e+02
  -8.184110e+01   2.470552e+02
  -6.808034e+01   5.720476e+01
   8.961057e+01  -8.283447e+01
   1.586490e+02   5.479138e+01
   5.799061e+01   1.848704e+02
  -1.916524e+02   1.846175e+02
  -2.181342e+02  -2.560101e+01
  -3.646332e+00  -1.687392e+02
   2.088322e+02  -5.440323e+01
   1.725277e+02   2.068237e+02
  -1.734748e+01   3.594490e+02
  -1.802011e+02   2.132771e+02
  -3.536978e+02  -1.861025e+01
  -2.524994e+02  -2.446488e+02
  -5.331761e+01  -2.827178e+02
   1.129008e+02  -1.493060e+02
   1.741806e+02  -9.355953e+00
   7.925355e+01   3.390335e+01
  -8.589355e+01  -4.247781e+01
   1.578871e+01  -1.079615e+02
   1.113714e+02  -1.164181e+02
   1.503709e+02   3.256855e+01
   7.974539e+01   9.472028e+01
  -9.785160e+01  -9.950499e+00
  -2.238006e+01  -9.898558e+01
   1.074534e+02  -1.024092e+02
   3.173942e+02   2.880623e+01
   2.976298e+02   1.231719e+02
   8.020133e+01   2.164378e+02
  -1.702412e+02   3.085243e+02
  -3.043084e+02   1.337249e+02
  -1.722436e+02  -4.575187e+01
   1.011012e+01  -1.252533e+02
   8.484857e+01  -1.326397e+01
  -2.457885e+01   9.060345e+00
  -1.768379e+02   6.863021e+01
  -2.185954e+02  -6.901166e+01
  -4.888023e+01  -2.013768e+02
   1.024142e+02  -1.991324e+02
   1.221705e+02  -2.930109e+01
   6.142487e+01   5.705632e+01
  -6.972713e+01   3.977630e+00
  -4.601938e+01  -6.040704e+01
   6.610139e+01  -1.380690e+02
   2.155515e+02  -6.333972e+01
   2.101842e+02   5.345408e+01
   1.870463e+01   2.292965e+02
  -1.620717e+02   1.941011e+02
  -2.395203e+02   5.354727e+01
  -1.082259e+02  -1.262409e+02
   6.282019e+01  -1.199511e+02
   8.981050e+01  -6.229074e+00
   5.313892e+01   2.376681e+01
  -4.500535e+01   7.026161e+00
  -2.221796e+00   1.539323e-01
   4.178955e+01  -6.486223e+01
   6.458275e+01   7.844698e+01
   3.967123e+01   1.059438e+02
  -1.274078e+02   1.637663e+02
  -3.030196e+02   3.683598e+00
  -1.924200e+02  -1.362062e+02
  -9.416685e+01  -2.485144e+02
   1.042750e+02  -2.069648e+02
   1.166322e+02   4.873219e+00
   7.499171e+01   4.872831e+01
   2.765484e+01   1.933530e+01
   7.898825e+01  -5.734585e+01
   9.229280e+01  -2.461270e+00
   7.071356e+01   6.755689e+01
  -3.381639e+01   1.027282e+02
  -5.942067e+01   6.001921e+01
  -1.053874e+02  -1.760736e+01
   2.021221e+01  -1.322559e+02
   1.655414e+02  -7.276182e+01
   1.828814e+02   2.865624e+01
   1.249341e+02   1.513022e+02
  -1.240268e+02   2.203561e+02
  -2.777328e+02   1.276386e+02
  -3.125655e+02  -9.352806e+01
  -8.916337e+01  -1.470387e+02
   2.504198e+01  -1.520118e+02
   9.062452e+01  -6.999143e+01
   8.316666e+01  -6.086021e+01
   3.090990e+01  -1.213470e+02
   9.807645e+01  -4.173239e+01
   1.441542e+02   2.175923e+01
   1.316426e+02   1.597241e+02
   5.409646e+01   1.599376e+02
  -6.828246e+01   1.637177e+02
  -2.267924e+02   8.883720e+00
  -1.671694e+02  -9.874048e+01
  -1.879187e+01  -1.458801e+02
   7.185168e+01  -9.546407e+01
   6.235022e+01   4.007952e+01
   2.234691e-01   7.417926e+01
  -2.724651e+01   3.228518e+01
  -2.164591e+01   1.461428e+01
   6.633515e+01   4.073153e+01
   2.767211e+01   3.645314e+01
  -7.844223e+01   8.579573e+00
  -1.708747e+02   5.239650e+00
  -1.071099e+02  -6.112422e+01
  -3.287177e+01  -6.851019e+01
   7.362475e+01  -8.191405e+01
   1.727373e+02  -3.847768e+01
   5.405570e+01   2.657330e+01
  -5.088153e+01   6.671432e+01
  -6.476564e+01  -2.690799e+01
  -5.494535e+01  -8.237302e+01
   2.224186e+01  -7.531077e+01
   5.066139e+01  -2.261902e+01
   7.079911e+01  -1.970620e+01
   5.342393e+01   6.369604e+01
   6.830164e+01   1.537862e+01
   1.022124e+02  -9.548579e+00
   8.130524e+01   9.153492e+01
  -4.126984e+01   1.174303e+02
  -1.060943e+02   1.225561e+02
  -1.379415e+02   2.792472e+01
  -1.295744e+02  -1.173534e+02
  -6.746093e+01  -1.547333e+02
   4.156402e+01  -5.677683e+01
   5.285641e+01  -1.601302e+01
  -4.411633e+01   2.815439e+00
  -1.320353e+02  -4.477129e+01
  -7.621423e+01  -9.442994e+01
   8.116341e+01  -1.106300e+02
   1.824544e+02  -3.861560e+01
   1.970188e+02   2.160410e+01
   3.723696e+00   7.972725e+01
  -4.335669e+01   9.456417e+01
  -2.597999e+01   4.063173e+01
   2.178027e+01  -1.449497e+01
   7.358737e+01   1.236515e+01
   3.936446e+01   1.384400e+02
  -1.096895e+02   1.859513e+02
  -1.817329e+02   7.834841e+01
  -1.089916e+02  -1.197484e+02
  -5.314879e+01  -2.221315e+02
   8.374701e+01  -1.739518e+02
   1.212039e+02   9.695172e+00
   8.239995e+01   1.188282e+02
   5.203070e+01   1.343611e+02
  -3.594110e+01   8.254822e+01
  -6.747313e+01  -5.150532e+01
   2.135014e+00   3.239184e+01
   7.289742e+00   1.570785e+01
  -3.254692e+01   7.933155e+00
  -8.511483e+01  -8.761209e+01
  -5.848372e+01  -1.483943e+02
   2.697741e+01  -7.684462e+01
   1.623938e+02   3.039922e+01
   1.621061e+02   5.359878e+01
   3.685897e+01   9.268955e+01
  -1.151943e+02  -4.118327e+00
  -1.091228e+02   2.864644e+01
  -5.356433e+00   1.940345e+01
   3.225124e+01  -3.342160e+01
   2.179312e+01  -3.085164e+00
   3.737929e+01  -1.412748e+01
   5.185932e+01   2.051915e+00
   4.230587e+01  -3.205833e+01
   5.534986e+01   3.255248e+01
   9.318208e+00   1.106461e+02
  -1.305406e+02   1.225031e+02
  -1.966589e+02   4.669375e+01
  -1.622002e+02  -8.944567e+01
  -1.866379e+01  -1.453139e+02
   1.229896e+02  -1.324343e+02
   1.381409e+02  -6.574514e+01
   9.354587e+01  -2.638096e+01
   4.431376e+01   4.165070e+01
   3.428341e+01  -2.227257e+01
   3.828948e+01  -2.734765e+01
   6.264661e+01   5.855472e+01
   3.705719e+01   7.974227e+01
  -5.926300e+01   9.953465e+01
  -1.146529e+02  -1.943029e+01
  -7.352074e+01  -1.141187e+02
  -6.156906e+00  -1.155782e+02
   8.003384e+01  -3.318023e+01
   8.475993e+01   8.509328e+01
   1.531426e+01   7.133840e+01
  -4.608313e+01   6.163736e+01
  -6.004590e+01  -2.574928e+01
  -1.246349e+01  -5.609474e+01
   2.938413e+01  -7.554011e+01
   2.375060e+01  -2.069054e+01
  -5.361834e+01   1.987970e+01
  -7.768237e+01  -1.267604e+01
  -2.523938e+01  -1.724347e+01
   5.554726e+01  -8.219380e+01
   1.051775e+02  -6.872790e+01
   8.119964e+01  -1.454034e+01
   1.715928e+01   6.752729e+01
  -3.688042e+01   9.537816e+01
  -1.409358e+01  -2.066287e+00
  -2.428722e+01  -6.837045e+01
   3.266051e+01  -4.026706e+01
   3.394092e+01  -5.449563e+00
   2.143950e+01   5.921064e+01
   6.423298e-01   3.296596e+01
  -5.729777e+01   2.809049e+00
  -4.698154e+01   2.032056e-02
  -2.217749e+01   8.867792e+00
   2.589498e+00  -5.959368e+00
   3.031371e+01   7.290000e+00
   2.715663e+01  -3.070614e+01
   1.844045e+01  -5.550633e+01
   5.095847e+01  -2.980088e+01
   2.496791e+01   5.440581e+01
   3.279107e+00   7.427803e+01
  -5.855801e+01   2.566878e+01
  -8.465817e+01  -1.782958e+01
  -4.512564e+00  -4.343605e+01
   7.609211e+01  -4.625877e+01
   6.159481e+01   6.054821e+00
   6.453678e+01   5.351256e+01
  -3.142470e+01   2.870548e+01
  -1.739605e+01  -1.977086e+01
  -6.309484e+01   6.967524e-01
   5.275698e+01   1.962926e+01
  -2.750916e+00   3.444423e+01
  -1.857466e+01   5.095770e+01
  -8.118659e+01   1.746691e+01
