
 $NMID
 id='ANONYMOUS ', fmtdat='(2E16.6)'
 volume=1.0
 tramp=1.0
 $END
   4.429985e+03   2.536613e+02
   2.413634e+03   2.922304e+03
  -8.735058e+02   3.001863e+03
  -2.196011e+03   7.016410e+02
  -7.302062e+02  -8.707720e+02
   8.353560e+02  -6.688587e+02
   1.004481e+03   5.701789e+02
  -8.254559e+01   1.205279e+03
  -8.825908e+02   7.923374e+02
  -1.030785e+03  -1.456360e+02
  -4.283552e+02  -9.859611e+02
   3.589104e+02  -9.327141e+02
   7.162747e+02  -6.641528e+01
   4.140565e+02   8.511214e+02
  -3.358503e+02   8.505899e+02
  -6.601715e+02  -3.672579e+01
  -2.808480e+02  -7.602013e+02
   3.396625e+02  -6.777631e+02
   6.274846e+02  -1.048054e+02
   3.801326e+02   3.191980e+02
   3.183940e+00   4.481779e+02
  -2.507535e+02   2.638498e+02
  -2.441894e+02  -1.513423e+01
   1.599331e+02  -1.787243e+02
   3.977843e+02   1.188147e+02
   2.753322e+02   4.879721e+02
  -5.167118e+02   4.759626e+02
  -9.265840e+02  -7.192133e+01
  -4.649176e+02  -5.848823e+02
   4.452394e+02  -5.263590e+02
   8.285202e+02   4.133112e+01
   3.897244e+02   5.186723e+02
  -3.013177e+02   5.333631e+02
  -6.244870e+02   2.579689e+02
  -4.535225e+02  -2.497051e+02
  -6.450144e+00  -4.700563e+02
   2.493672e+02  -3.198566e+02
   1.944570e+02   2.853444e+02
  -1.908981e+02   5.302831e+02
  -5.527869e+02   1.087362e+00
  -2.376615e+02  -7.906730e+02
   3.977074e+02  -8.003317e+02
   6.445900e+02   2.014829e+01
   2.787304e+02   6.340001e+02
  -3.156583e+02   3.356591e+02
  -3.927672e+02  -3.146238e+02
   8.805875e+01  -5.780209e+02
   5.927700e+02  -1.082056e+02
   6.376877e+02   3.989871e+02
   2.435622e+02   6.297965e+02
  -4.547126e+02   2.650506e+02
  -6.362691e+02  -8.438299e+01
  -3.545327e+02  -3.626290e+02
   1.463091e+02  -3.606338e+02
   4.165343e+02  -3.301955e+00
   2.246777e+02   1.936764e+02
  -1.377673e+02   6.663944e+01
  -1.090970e+02  -1.602216e+02
   1.901779e+02  -1.844728e+02
   3.684764e+02   8.372795e+01
   1.527733e+02   3.194470e+02
  -2.193044e+02   2.930691e+02
  -2.727456e+02   1.257474e+02
  -2.234016e+02  -1.983988e+01
  -3.183851e+01  -2.455802e+02
   2.044123e+02  -4.135718e+02
   3.637364e+02  -2.578842e+02
   3.130373e+02   1.201992e+02
   5.842877e+01   4.674536e+02
  -1.378374e+02   4.165628e+02
  -1.701253e+02   9.195014e+01
  -1.120703e+01  -6.322530e+01
  -9.297105e+00   1.143878e+02
  -1.933996e+02   1.782574e+02
  -2.610806e+02  -3.640098e+01
  -1.171364e+02  -2.759273e+02
   6.695679e+01  -2.970267e+02
   2.357348e+02  -1.982912e+00
   2.565538e+02   2.472809e+02
  -3.535177e+00   2.926155e+02
  -3.033157e+02   1.912103e+02
  -3.690390e+02  -1.622702e+02
  -2.415685e+02  -3.929422e+02
   9.084796e+01  -3.712274e+02
   2.455450e+02  -1.443771e+02
   1.222844e+02  -1.953462e+01
   9.875985e+01  -1.987900e+01
   1.819863e+02  -5.416585e+01
   3.513415e+02  -8.097108e+00
   3.590233e+02   2.869849e+02
   5.792487e+01   4.538520e+02
  -3.513333e+02   4.217015e+02
  -5.428154e+02   2.043468e+02
  -3.366752e+02  -5.834666e+01
  -7.113009e+01  -3.394761e+02
   1.337204e+02  -2.757787e+02
   1.464927e+02  -2.294909e+01
  -9.641176e+01   1.225967e+02
  -2.537335e+02  -2.095006e+01
  -7.780537e+01  -1.658762e+02
   1.767298e+02  -2.070015e+02
   1.707565e+02   6.502574e+01
  -2.822877e+01   2.181468e+02
  -2.081004e+02   3.830467e+01
  -1.159508e+02  -2.120911e+02
   5.273278e+00  -2.986521e+02
   2.236636e+02  -2.092792e+02
   3.652685e+02   7.394955e+00
   3.277835e+02   2.296220e+02
   1.464592e+02   2.457862e+02
  -8.248327e+01   1.907704e+02
  -2.284678e+02   3.878969e+01
  -6.667779e+01  -5.686542e+01
   1.109059e+02   4.481132e+00
   7.117538e+01   1.342035e+02
  -1.377333e+02   1.003236e+02
  -1.729859e+02   4.590266e+01
  -8.623261e+01  -7.110315e+01
   9.571658e+01  -9.921591e+00
   3.758100e+01   5.653401e+01
  -7.871908e+01   1.078466e+02
  -2.697924e+02  -2.160861e+01
  -2.582861e+02  -1.084784e+02
  -7.588166e+01  -2.736661e+02
   1.835377e+02  -3.017018e+02
   2.309743e+02  -1.254893e+02
   1.561939e+02   5.743170e+01
  -4.641028e+01   1.468423e+02
  -6.840710e+01   2.337019e+01
   2.061463e+01  -8.694314e+01
   1.673554e+02  -5.998466e+01
   2.064714e+02   1.306577e+02
   1.017054e+02   2.125766e+02
  -7.874118e+01   1.517651e+02
  -1.654088e+02   3.079282e+01
  -7.620035e+01  -6.370289e+01
   2.604780e+01   7.461802e-01
   8.815654e+01   7.049439e+01
   2.799564e+00   1.509993e+02
  -2.068738e+02   4.274549e+01
  -2.083714e+02  -1.077157e+02
  -4.147460e+00  -2.811462e+02
   1.488553e+02  -1.627239e+02
   2.218613e+02  -7.644356e+00
   5.624836e+01   9.343057e+01
  -5.954033e+01   8.713533e+01
  -7.198429e+01  -6.476773e+00
  -2.561348e+01  -5.963630e+01
   1.704654e+01  -4.293939e+01
   1.249548e+01   5.939569e+01
  -9.564512e+01   8.767044e+00
  -6.409238e+01  -8.894632e+01
  -1.851766e+01  -1.277952e+02
   1.019165e+02  -1.867401e+02
   2.463646e+02  -4.659144e+01
   1.983310e+02   1.254891e+02
   6.233356e+01   2.317281e+02
  -9.236203e+01   1.578675e+02
  -1.377613e+02   3.740251e+01
  -7.824851e+01  -3.758266e+01
  -6.965922e+00  -6.751368e+01
  -5.911419e+01   1.374181e+01
  -8.782297e+01   5.720807e+01
  -3.847539e+01  -5.813757e+01
   2.094366e+01  -5.185660e+01
   8.745102e+01  -8.983019e+01
   1.138949e+02   1.672315e+01
   1.084700e-01   9.311273e+01
  -1.191649e+02   1.092808e+02
  -2.374665e+02  -7.052775e+01
  -7.913791e+01  -2.028918e+02
   7.368226e+01  -2.695174e+02
   3.059816e+02  -1.296768e+02
   2.896644e+02   6.347319e+01
   1.691033e+02   1.739824e+02
   2.185183e+01   1.709892e+02
  -1.077240e+02   9.136520e+01
  -9.721165e+01   1.040003e+02
  -8.059559e+01   7.017838e+01
  -9.417238e+01   3.691881e+01
  -1.011498e+02  -1.198057e+01
  -1.526541e+02  -9.820271e+01
  -4.305099e+01  -1.562559e+02
   8.092591e+01  -1.817537e+02
   2.226067e+02  -4.495806e+01
   9.778535e+01   1.060870e+02
  -1.346231e+00   1.731594e+02
  -7.852995e+01   8.190980e+01
  -7.978150e+01   3.189424e+01
  -1.335911e+01  -4.063003e+01
  -4.562715e+00  -7.653147e+00
  -3.240116e+01  -5.239148e+01
  -6.816754e+01  -2.884472e+01
  -3.596691e+01  -2.400578e+01
   7.701796e+01  -2.089164e+01
   1.434599e+02   2.183409e+01
   1.645167e+02   6.925739e+01
   5.675172e+01   8.437064e+01
  -1.304683e+02   1.029558e+02
  -1.520170e+02   1.129839e+01
  -2.255183e+01  -3.186792e+01
   6.085736e+01  -5.465102e+01
   9.468216e+01   6.373914e+00
   1.507481e+01   7.729858e+01
  -5.498867e+01   4.375680e+01
  -6.811065e+01   1.478419e+01
  -7.111741e+01  -6.560096e+01
  -3.847496e+01  -5.382778e+01
  -3.806919e+01   2.000165e+01
  -6.100358e+01  -4.042593e+01
  -4.544575e+01  -4.323204e+01
   3.992092e+01  -1.181350e+02
   1.129937e+02  -1.127820e+02
   1.392910e+02  -1.863104e+01
   1.146040e+02   9.905718e+01
   1.012752e+01   9.967670e+01
  -8.534067e+01   8.530115e+01
  -7.883173e+01  -3.570452e+01
   5.059056e+01  -2.955967e+01
   1.206189e+02   2.872727e+01
   2.599970e+01   8.749634e+01
  -5.602669e+01   1.143723e+02
  -1.478568e+02   2.686164e+01
  -1.359275e+02  -1.925287e+01
  -4.273300e+01  -7.408422e+01
   4.553441e+01  -7.922743e+01
   2.284083e+01   1.973931e+01
  -1.446261e+01   8.743059e+00
  -1.200027e+02  -2.153400e+01
  -2.731651e+01  -1.150201e+02
   9.271853e+01  -1.465405e+02
   1.508169e+02  -3.582879e+01
   1.216595e+02   1.397864e+02
  -8.095369e+00   1.911741e+02
  -9.455061e+01   1.235458e+02
  -1.219999e+02  -9.036544e+00
  -5.804893e+01  -1.329996e+02
   1.595216e+01  -9.622085e+01
   8.373434e+01  -3.165328e+01
   3.397023e+01   3.736014e+01
   4.881354e+01   3.732990e+01
  -1.630465e+01  -1.185618e+01
   3.408555e+01   2.119733e+00
   3.702289e+01   8.230689e+01
   5.604742e+01   8.294823e+01
  -1.705846e+01   2.921793e+01
  -1.505307e+02  -3.876813e+01
  -1.270509e+02  -1.077871e+02
   2.340588e+00  -3.512485e+01
   6.707416e+01  -4.408133e+01
   8.105829e+01  -3.529969e+01
  -7.554283e+00   4.726249e+01
  -3.546385e+01   1.344754e+01
  -1.468370e+01   3.681038e+01
   3.756750e+01   1.305738e+01
  -8.417975e+00   3.578487e+01
  -7.419759e+01  -1.396080e+01
  -1.080332e+02  -5.720493e+01
  -6.653987e+00  -6.810188e+01
   1.292054e+02  -1.256884e+02
   1.863453e+02  -3.376278e+01
   9.846895e+01   1.002352e+02
  -9.473201e+00   2.242053e+02
  -1.029765e+02   1.993482e+02
  -1.113787e+02   3.885871e+01
  -1.259017e+02   1.158978e+01
  -4.982344e+01   9.282014e-01
  -1.716911e+01   9.002068e+00
  -7.572921e+00  -2.498708e+01
  -3.995510e+01  -2.493716e+01
   6.913159e-01  -6.407156e+01
   7.183353e+00  -6.539796e+01
   1.000354e+02   1.014635e+01
   3.916798e+01   1.193423e+02
   3.020145e+01   1.290009e+02
  -4.891855e+01  -2.733546e+01
  -1.045612e+02  -7.213812e+01
  -2.396354e+01  -8.373344e+01
   6.915048e+01  -6.516426e+01
   1.021668e+02   3.305654e+01
   5.376942e+01   3.334449e+01
  -6.602797e+01   5.747829e+01
  -1.948067e+01   6.758835e-01
   4.185085e+01   2.779711e+01
   8.581336e+01   6.389270e-01
  -9.465364e+00   1.465840e+01
  -9.674397e+01   7.383504e+01
  -1.240037e+02   5.338971e+01
  -9.314095e+01   2.007631e+01
   1.160218e+01  -8.307513e+01
   2.964731e+01  -6.151165e+01
   6.737027e+01  -2.118007e+01
  -1.120152e+01   4.223778e+01
  -4.487581e+01   3.436804e+01
  -2.148655e+01  -4.040443e+01
  -1.686187e+01  -8.107939e+01
   2.756490e+01  -2.357284e+01
   4.277653e+01  -1.916298e+01
   2.025101e+01   4.569214e+01
   1.476185e+01  -1.655785e+01
   3.179592e+01  -3.294613e+01
  -1.542302e+01  -8.925185e-01
  -2.367930e+01   1.929910e+01
  -3.137522e+01   3.277965e+01
  -5.005079e+01   3.834128e+01
  -2.359438e+01  -3.421384e+01
   4.314306e+01  -6.339626e+01
   4.029220e+01  -6.297463e+01
   3.817856e+01   2.207919e+01
  -1.461412e+01   2.484437e+01
  -5.738815e+01   2.257409e+01
  -8.940344e+01   2.261716e+01
  -7.000364e+01  -2.404997e+01
   2.254041e+01  -3.487332e+01
   6.773427e+01  -2.980690e+01
   4.810974e+01  -1.235643e+01
   1.348394e+01   1.764533e+01
  -5.923311e+01  -1.319046e+01
   2.043278e+01  -2.285322e+01
   7.853057e+01  -2.264624e+01
