
 $NMID
 id='ANONYMOUS ', fmtdat='(2E16.6)'
 volume=1.0
 tramp=1.0
 $END
   4.371006e+03  -2.232074e+02
   2.222630e+03   2.480421e+03
  -6.853542e+02   2.546317e+03
  -1.751970e+03   9.155020e+02
  -9.385687e+02  -5.093611e+02
   3.635203e+02  -3.541182e+02
   6.348623e+02   4.362801e+02
  -5.843368e+01   8.450669e+02
  -7.872423e+02   6.421017e+02
  -8.241221e+02  -1.785672e+01
  -4.123822e+02  -7.361869e+02
   1.144163e+02  -8.349948e+02
   4.963236e+02  -1.348360e+02
   3.267305e+02   6.409995e+02
  -2.251635e+02   6.599297e+02
  -5.414934e+02  -1.552982e+01
  -3.425423e+02  -6.375568e+02
   1.950204e+02  -6.102424e+02
   5.671860e+02  -1.393717e+02
   3.693212e+02   2.584186e+02
   8.732420e+01   4.102964e+02
  -1.658245e+02   2.361900e+02
  -1.143266e+02   6.581461e+01
   1.010117e+02  -2.050415e+01
   3.801256e+02   2.284939e+02
   1.627387e+02   4.356327e+02
  -5.420877e+02   3.487805e+02
  -7.858870e+02  -1.334217e+02
  -2.938337e+02  -4.658428e+02
   4.708219e+02  -4.218874e+02
   7.160526e+02   1.445407e+02
   2.954411e+02   4.755048e+02
  -2.758311e+02   4.989392e+02
  -5.490104e+02   2.028543e+02
  -3.754965e+02  -1.711058e+02
  -6.092812e+01  -4.092164e+02
   1.483053e+02  -2.226372e+02
   9.134683e+01   1.629545e+02
  -1.825578e+02   3.641717e+02
  -3.417460e+02  -3.652846e+01
  -1.064788e+02  -6.407447e+02
   2.346565e+02  -6.399239e+02
   5.276043e+02   2.037334e+01
   2.074929e+02   4.561780e+02
  -2.247684e+02   2.303663e+02
  -3.249214e+02  -2.700671e+02
   1.130318e+02  -5.066318e+02
   5.271321e+02  -8.450522e+01
   5.787615e+02   4.671263e+02
   1.604686e+02   5.872789e+02
  -3.808844e+02   3.775750e+02
  -5.691498e+02  -8.834749e+01
  -3.631581e+02  -3.056190e+02
   7.477925e+01  -3.343281e+02
   3.460729e+02  -1.154450e+02
   2.892793e+02   1.108181e+02
  -1.012935e+02   8.441748e+01
  -1.458700e+02  -1.180072e+02
   1.765225e+02  -1.510390e+02
   3.321713e+02   2.598456e+01
   1.572172e+02   2.488407e+02
  -1.800542e+02   2.602300e+02
  -3.178638e+02   9.502777e+01
  -1.857385e+02  -7.189574e+01
   5.392545e+01  -2.756175e+02
   2.174601e+02  -3.721947e+02
   3.950750e+02  -2.371476e+02
   2.779130e+02   1.456717e+02
   3.601589e+01   3.816244e+02
  -7.071027e+01   3.761086e+02
  -1.029965e+02   1.484197e+02
  -3.447399e+01   4.700848e+01
  -2.190224e+01   8.076712e+01
  -2.566806e+02   1.313502e+02
  -2.740406e+02  -7.278913e+01
  -1.325717e+02  -2.955944e+02
   7.177189e+01  -2.230582e+02
   2.471077e+02   5.570483e+01
   1.693287e+02   2.702821e+02
  -1.120781e+01   3.380941e+02
  -2.941492e+02   1.252573e+02
  -3.671721e+02  -1.542414e+02
  -1.162812e+02  -3.812367e+02
   8.718225e+01  -2.400109e+02
   2.001674e+02  -8.679061e+01
   1.494662e+02  -3.742561e+01
   1.100118e+02  -3.951721e+01
   2.099416e+02  -8.916223e+01
   3.849432e+02   9.435103e+01
   3.678771e+02   3.286563e+02
  -1.496814e+01   4.806804e+02
  -3.364230e+02   3.762370e+02
  -5.344453e+02   1.914263e+02
  -3.396022e+02  -5.312246e+01
  -2.791985e+01  -3.508473e+02
   1.335253e+02  -2.512245e+02
   4.919620e+01  -2.192624e+01
  -1.193505e+02   1.295251e+02
  -1.755201e+02  -3.854058e+01
  -4.469511e+01  -1.666371e+02
   1.578865e+02  -1.591010e+02
   1.815423e+02   7.239491e+01
  -1.793288e+00   1.684632e+02
  -1.770194e+02   2.204031e+01
  -1.338153e+02  -2.660289e+02
   2.127121e+01  -3.515313e+02
   2.278279e+02  -2.022685e+02
   3.265928e+02   7.176003e+01
   3.362701e+02   2.789217e+02
   8.975920e+01   2.666228e+02
  -1.523253e+02   1.780468e+02
  -1.645327e+02   1.670846e+01
  -2.366528e+01  -4.277397e+01
   8.245830e+01   3.139085e+00
   7.666795e+00   1.108451e+02
  -1.430064e+02   7.556253e+01
  -1.483883e+02   2.044795e+01
  -3.297654e+01  -6.845807e+01
   7.242257e+01  -5.312021e+01
   9.656167e+01   6.119120e+01
  -1.362396e+02   9.832592e+01
  -2.921919e+02  -4.279919e+00
  -2.887967e+02  -1.795502e+02
  -8.289166e+01  -2.767464e+02
   2.378538e+02  -2.785595e+02
   3.093743e+02  -1.069170e+02
   1.505789e+02   6.505790e+01
  -4.033587e+01   1.179805e+02
  -1.083712e+02  -3.907507e+01
   6.128192e+01  -6.261670e+01
   2.037912e+02  -1.019213e+01
   1.885631e+02   1.205475e+02
   7.056465e+01   1.910661e+02
  -9.773572e+01   2.004705e+02
  -1.371275e+02   4.329737e+01
  -4.031091e+01  -3.476906e+01
   3.564561e+01  -3.268382e+00
   2.035931e+01   9.819716e+01
  -9.709993e+01   9.424180e+01
  -1.417509e+02   6.504528e+01
  -1.824006e+02  -1.579608e+02
  -3.074535e+00  -2.143502e+02
   1.840708e+02  -1.985248e+02
   1.999177e+02  -7.808204e+00
   7.219265e+01   1.031452e+02
  -4.231203e+01   9.818498e+01
  -8.120997e+01   4.750600e+01
  -1.964275e+01  -2.207535e+01
   6.166698e+01  -1.010589e+01
   2.219804e+00   2.121049e+01
  -8.005214e+01   6.571646e+01
  -9.442419e+01  -7.064579e+01
   2.217103e+00  -1.596581e+02
   8.611340e+01  -1.490210e+02
   2.050110e+02   1.581433e+00
   2.080177e+02   1.524067e+02
   4.557515e+01   2.384714e+02
  -6.394516e+01   1.615640e+02
  -1.480630e+02   1.116254e+01
  -7.839237e+01  -2.159529e+01
   5.834327e+00  -5.076423e+01
  -5.170753e+01   4.076959e+01
  -1.169443e+02  -1.866847e+01
  -6.952353e+01  -9.391732e+01
   4.307901e+01  -1.142494e+02
   1.576289e+02  -7.424708e+01
   8.073421e+01   8.386107e+01
  -1.266951e+01   1.551937e+02
  -1.235970e+02   8.873722e+01
  -2.363165e+02  -3.070304e+01
  -8.055940e+01  -1.838690e+02
   1.176275e+02  -2.313230e+02
   2.553155e+02  -1.220223e+02
   2.533457e+02   7.539512e+01
   1.283367e+02   2.046543e+02
  -9.669269e+00   1.474989e+02
  -1.109407e+02   1.057914e+02
  -7.120174e+01   7.325054e+01
  -8.258967e+01   1.250633e+02
  -1.216733e+02   7.675945e+01
  -1.247034e+02  -1.178973e-01
  -1.400841e+02  -1.699415e+02
  -3.275337e+01  -2.602185e+02
   7.396954e+01  -1.930698e+02
   2.044874e+02  -7.301150e-01
   1.615862e+02   7.130591e+01
  -1.750523e+01   1.926119e+02
  -7.047587e+01   8.417613e+01
  -7.408956e+01  -1.127824e+01
   2.491692e+01  -5.175962e+01
   7.404411e-01  -4.255459e+01
  -4.246354e+01  -3.481833e+01
  -6.683457e+01  -2.400729e+00
  -5.840858e+01   1.556093e+01
   6.490412e+01  -3.724004e+01
   1.340684e+02  -2.092950e+01
   1.545890e+02   5.589587e+01
   2.412055e+01   9.419196e+01
  -1.211537e+02   7.215771e+01
  -1.592792e+02   1.162022e+01
  -5.962082e+01  -3.530483e+01
   5.857722e+01  -3.705248e+01
   8.963753e+01   5.288435e+01
   5.959892e+00   7.741154e+01
  -8.180096e+01   7.076476e+01
  -6.525878e+01   2.298708e+01
   7.706724e-02  -3.332893e+01
  -3.340731e+01  -8.103265e+01
  -7.357633e+01  -9.444495e+00
  -4.829512e+01  -2.383509e+01
  -3.111688e+01  -4.439351e+01
   9.514713e+01  -1.375682e+02
   1.322661e+02  -1.302546e+02
   1.788827e+02  -2.930565e+01
   9.994370e+01   1.559645e+02
   2.810095e+01   1.424975e+02
  -1.006802e+02   8.051840e+01
  -8.302242e+01  -6.006856e+00
   5.877187e+01   9.221840e+00
   1.460215e+02   6.962235e+01
   9.119385e+01   9.152006e+01
  -6.945239e+01   1.151459e+02
  -1.824507e+02   6.037549e+01
  -1.607127e+02  -1.314363e+01
  -4.037862e+01  -5.968028e+01
   3.135310e+01  -6.847409e+01
   4.944202e+01  -1.833391e+01
  -4.640462e+01   3.146856e+01
  -8.050555e+01  -5.180595e+01
  -4.604722e+01  -8.895948e+01
   8.941465e+01  -1.493369e+02
   1.600003e+02  -1.035763e+02
   1.394159e+02   6.856008e+01
  -2.994143e+01   2.204666e+02
  -6.145132e+01   1.363616e+02
  -5.441638e+01  -9.963443e+00
  -4.865796e+01  -1.387756e+02
   2.166337e+01  -1.155728e+02
   5.906328e+01  -2.119416e+01
   5.919921e+01   4.837693e+01
   5.063421e+01   1.769441e+01
   1.640380e+01   7.504812e+00
   1.668514e+01  -4.139977e+01
   6.732632e+01   8.734161e+01
   2.109633e+01   7.596025e+01
  -5.715695e+01   2.661147e+01
  -1.545645e+02   7.729181e+00
  -1.641739e+02  -5.901226e+01
  -3.567363e+01  -3.403362e+00
   5.630628e+01  -3.888586e+00
   6.609112e+01   2.407276e+01
   1.112006e+01  -2.787764e+01
  -5.720493e+01   2.041091e+01
  -5.089047e+01   4.327120e+01
   3.588258e+01   5.992529e+00
   2.433663e+01  -3.476086e+01
  -9.850442e+01   2.150144e+01
  -6.291361e+01   2.371163e+01
   1.481264e+01  -5.318152e+01
   1.366707e+02  -7.264395e+01
   1.844695e+02  -5.887743e+01
   1.645883e+02   9.167874e+01
   4.355682e+01   1.908956e+02
  -1.013353e+02   1.233904e+02
  -1.164257e+02   5.207099e+01
  -1.045371e+02   1.098037e+01
  -1.297683e+01  -2.448701e+01
   4.292441e+01   4.048659e+01
  -2.185481e+01   6.508016e+00
  -2.932241e+01  -1.005852e+02
   1.616360e+01  -1.417648e+02
   1.124479e+01  -3.503311e+01
   1.208462e+02   3.070699e+01
   8.699905e+01   1.014791e+02
   1.933915e+01   6.943264e+01
  -7.848268e+01   2.469510e+01
  -1.296872e+02  -5.141140e+01
  -1.777804e+01  -1.328893e+02
   9.238085e+01  -6.497019e+01
   1.252834e+02   9.797372e-01
   4.632205e+01   4.360486e+01
  -1.979282e+01   7.875756e+01
  -2.764120e+01  -2.681884e+01
   5.963052e+00   1.306545e+01
   3.803087e+01  -5.437524e+00
   1.888046e+01   5.335108e+01
  -9.471661e+01   6.765245e+01
  -1.224283e+02   3.470282e+01
  -6.176528e+01  -8.503972e+00
   2.633969e+01  -7.906684e+01
   6.545963e+01  -6.564503e+01
   5.524143e+01   2.119783e+01
  -3.650543e+00   3.908237e+01
  -3.363732e+01   7.911440e+01
  -4.177271e+01  -4.983416e+01
  -6.052359e+01  -4.885779e+01
   2.549560e+01  -4.928325e+01
   6.636268e+01   9.938584e+00
   6.330931e+01  -2.044082e+01
   3.529868e+01  -1.737169e+01
   1.127829e+01  -4.218283e+00
  -2.369525e+01  -8.664239e+00
  -4.493782e+01   3.493750e+01
  -1.699038e+00   5.569507e+01
  -1.655059e+01   2.961572e+01
  -5.564629e+01  -2.116558e+01
   7.768643e-01  -7.856774e+01
   1.709542e+01  -2.013824e+00
   5.353417e+01   4.475102e+01
   3.269126e+01   6.710256e+01
  -3.526693e+01   6.367903e+01
  -8.213016e+01   1.158637e+00
  -1.742760e+01  -5.838897e+01
   2.722126e+01  -5.791290e+01
   1.299820e+02  -3.190593e+01
   3.681338e+01  -5.598634e+00
  -3.369822e+01  -8.352506e+00
  -3.550968e+01  -3.796197e+01
   1.911551e+01  -1.832170e+01
   9.768674e+01  -3.014887e+01
