
 $NMID
 id='ANONYMOUS ', fmtdat='(2E16.6)'
 volume=1.0
 tramp=1.0
 $END
   3.802857e+03   1.124325e+02
   2.415780e+03   2.205898e+03
  -1.687736e+02   2.337451e+03
  -1.717779e+03   1.250348e+03
  -9.546623e+02  -1.847301e+02
   2.099599e+02  -3.402438e+02
   5.935301e+02   2.472039e+02
  -3.864387e+01   6.889568e+02
  -5.764539e+02   5.652999e+02
  -7.650727e+02   3.122945e+01
  -4.811935e+02  -6.802885e+02
   8.692981e+01  -7.698060e+02
   4.728981e+02  -2.130270e+02
   3.184176e+02   4.958493e+02
  -1.443164e+02   6.856218e+02
  -5.161193e+02   6.492006e+01
  -3.087486e+02  -5.240655e+02
   1.674034e+02  -6.770746e+02
   4.847941e+02  -2.601824e+02
   3.837605e+02   2.538403e+02
   6.924325e+01   4.085128e+02
  -1.818930e+02   2.467967e+02
  -1.742769e+02   1.038148e+02
   1.115259e+02   8.540101e+01
   2.656801e+02   2.447922e+02
   8.259463e+01   3.530506e+02
  -5.094152e+02   2.134919e+02
  -7.336934e+02  -1.109079e+02
  -3.743505e+02  -4.405675e+02
   3.126674e+02  -3.030649e+02
   6.150147e+02   5.944791e+01
   2.312962e+02   3.773387e+02
  -3.163965e+02   3.759707e+02
  -4.857450e+02   1.783086e+02
  -3.893666e+02  -1.550616e+02
  -1.022710e+02  -3.297517e+02
   2.296062e+01  -2.418516e+02
   1.117635e+02   1.296867e+02
  -1.901370e+02   2.876784e+02
  -2.706078e+02  -6.280517e+01
  -1.787352e+02  -4.776722e+02
   2.426276e+02  -5.943174e+02
   4.858899e+02   3.704174e-01
   2.136287e+02   3.757703e+02
  -1.249124e+02   1.584883e+02
  -2.080748e+02  -2.504143e+02
   1.756538e+02  -4.093147e+02
   4.577962e+02  -6.611542e+01
   5.059884e+02   3.940149e+02
   1.788983e+02   4.973358e+02
  -3.548321e+02   2.709662e+02
  -6.665887e+02  -5.697165e+01
  -3.719468e+02  -3.219440e+02
   5.120623e+01  -2.882822e+02
   3.580553e+02  -8.136319e+01
   2.779213e+02   1.045984e+02
  -5.525685e+01   7.976540e+01
  -7.187236e+01  -1.118419e+02
   1.140418e+02  -1.126155e+02
   2.905744e+02   8.253996e+01
   1.143783e+02   2.767811e+02
  -1.803991e+02   2.104395e+02
  -3.093760e+02   6.063800e+01
  -2.408786e+02  -9.839462e+01
   5.492914e+01  -2.592281e+02
   2.115117e+02  -3.599058e+02
   3.342037e+02  -1.664299e+02
   2.444554e+02   1.624405e+02
   2.958293e+01   3.586441e+02
  -3.467911e+01   2.965841e+02
  -6.229147e+01   1.362611e+02
  -8.282795e+01   7.967604e+01
  -7.976141e+01   8.317484e+01
  -2.265195e+02   6.971197e+01
  -2.249231e+02  -1.075084e+02
  -1.139907e+02  -2.393054e+02
   8.488294e+01  -2.244741e+02
   2.663097e+02   4.986572e+01
   1.570851e+02   2.457990e+02
  -6.796769e+01   2.345875e+02
  -2.489311e+02   9.083872e+01
  -3.226078e+02  -1.981211e+02
  -1.333757e+02  -3.689386e+02
   1.039733e+02  -2.893058e+02
   1.995918e+02  -1.847966e+02
   1.176081e+02  -3.237462e+01
   1.549639e+02  -4.125096e+01
   2.306707e+02  -7.021430e+00
   3.920138e+02   1.208784e+02
   3.115677e+02   3.061890e+02
  -5.893376e+00   4.188935e+02
  -3.789796e+02   3.297055e+02
  -5.450724e+02   1.825030e+02
  -3.244774e+02  -1.081964e+02
  -5.632195e+01  -3.010169e+02
   7.380448e+01  -2.133499e+02
   2.055789e+01  -7.172504e+01
  -7.850158e+01   4.483212e+01
  -1.613640e+02  -3.558876e+01
  -3.692178e+01  -1.238428e+02
   7.980671e+01  -9.378903e+01
   1.540320e+02   4.777551e+01
  -1.517815e+01   1.304077e+02
  -1.798547e+02  -2.089471e+01
  -1.216384e+02  -2.636611e+02
   5.397563e+01  -3.143281e+02
   2.388886e+02  -2.238513e+02
   3.470407e+02   7.605502e+01
   2.405900e+02   1.775184e+02
   1.023841e+02   3.015970e+02
  -1.103003e+02   1.710810e+02
  -1.534670e+02   6.962239e+00
  -5.829237e+01  -3.766081e+01
   4.068128e+01   7.724106e+01
  -1.910791e+01   9.599147e+01
  -1.086519e+02   7.597843e+01
  -1.663700e+02  -3.751224e+01
   9.265342e+00  -4.956777e+01
   8.136631e+01   3.483519e-01
   5.071481e+00   3.359626e+01
  -1.703872e+02   8.804561e+01
  -2.587712e+02  -2.016392e+01
  -2.281852e+02  -1.697433e+02
  -1.852372e+01  -2.267797e+02
   2.364003e+02  -2.642213e+02
   2.785914e+02  -1.461029e+02
   1.515125e+02   6.550407e+01
  -2.675094e+01   9.461022e+01
  -6.346023e+01  -1.420664e+01
   3.633187e+01  -6.626783e+01
   1.773282e+02  -4.393967e+01
   2.242899e+02   8.096024e+01
   7.694397e+01   2.202271e+02
  -1.090862e+02   1.278040e+02
  -1.492729e+02   2.617614e+01
  -4.831246e+01  -2.922665e+01
   3.143329e+01   7.905719e+00
   3.657060e+01   7.954057e+01
  -1.170310e+02   1.462671e+02
  -1.891525e+02   2.718300e+00
  -1.883192e+02  -1.530250e+02
   1.613194e+01  -2.332532e+02
   1.352928e+02  -1.602419e+02
   1.725816e+02  -3.713403e+00
   6.851954e+01   8.387394e+01
  -4.842030e+01   5.487575e+01
  -5.890833e+01   2.379241e+01
   1.438996e-01  -3.820705e+01
   3.865902e+01   9.284890e+00
  -8.022385e+00   7.274805e-01
  -2.695234e+01   2.019994e+01
  -1.235786e+02  -1.017563e+02
  -8.488303e-01  -1.590288e+02
   1.296354e+02  -1.124989e+02
   2.049689e+02   1.636000e+01
   1.863627e+02   1.560687e+02
   9.550004e+01   2.484411e+02
  -9.733775e+01   1.627852e+02
  -1.071434e+02   4.788730e+01
  -9.046915e+01  -5.017669e+01
  -3.568350e+01  -1.998829e+01
  -7.464126e+01   1.973038e+01
  -6.876042e+01  -5.771210e+01
  -1.814177e+01  -5.035661e+01
   5.136667e+01  -1.256552e+02
   1.175105e+02  -6.560473e+01
   7.671883e+01   6.699744e+01
   1.154943e+01   1.125250e+02
  -1.820413e+02   9.732538e+01
  -2.409391e+02  -7.758146e+01
  -1.064602e+02  -2.045558e+02
   9.086532e+01  -2.485066e+02
   2.499670e+02  -8.762457e+01
   2.161944e+02   1.190205e+02
   9.827556e+01   1.986674e+02
  -2.097584e+01   1.716064e+02
  -7.793801e+01   4.918655e+01
  -7.578358e+01   8.997225e+01
  -8.248333e+01   9.507691e+01
  -6.966076e+01   4.274023e+01
  -1.183818e+02  -2.607019e+01
  -1.035035e+02  -1.717372e+02
  -2.184597e+01  -2.185927e+02
   1.015937e+02  -1.594083e+02
   2.075305e+02   1.284787e+01
   1.333088e+02   1.125514e+02
   2.295064e+01   1.957184e+02
  -6.774325e+01   9.032756e+01
  -2.669801e+01  -2.424619e+01
  -1.889041e+01  -8.210359e+01
   4.525322e+01  -3.170311e+00
  -3.224472e+01  -4.700268e+01
  -5.681906e+01   2.876215e-01
  -4.125141e+01  -4.111566e+01
   8.968934e+01  -3.955475e+01
   1.844764e+02   1.566524e+01
   1.494863e+02   7.812710e+01
   3.595723e+01   1.265039e+02
  -9.941971e+01   1.401296e+02
  -1.334002e+02  -2.538093e+01
  -6.400311e+01  -9.241065e+01
   4.417188e+01  -7.482112e+01
   7.663013e+01   1.890675e+01
   8.625201e+00   2.377308e+01
  -2.672987e+01   8.707458e+01
  -6.410349e+01   1.448053e+01
  -2.342311e+01  -7.242357e+01
  -3.217871e+01  -5.315757e+01
  -4.967620e+01  -1.075075e+01
  -9.580217e+01  -1.284305e+01
  -6.313756e+01  -4.561522e+01
   4.311199e+01  -1.428309e+02
   1.091770e+02  -1.398355e+02
   1.579165e+02  -5.950822e+01
   8.405864e+01   9.262638e+01
  -4.099398e+01   1.318908e+02
  -9.964550e+01   4.517480e+01
  -6.597706e+01  -3.755746e+01
   9.700490e+01  -7.823493e+01
   1.425070e+02   5.687929e+01
   9.826904e+01   1.224819e+02
  -1.156345e+02   9.946418e+01
  -1.868984e+02   8.209463e+01
  -1.727340e+02  -2.191172e+01
  -2.294790e+01  -5.337210e+01
   8.847581e+01  -6.307031e+01
   3.421067e+01   1.154806e+01
  -4.949515e+01   2.723062e+01
  -1.047946e+02  -3.710161e+01
  -6.809718e+01  -1.430836e+02
   7.786153e+01  -1.342372e+02
   2.103820e+02  -6.919516e+01
   1.352661e+02   7.553970e+01
   3.557866e+01   2.136342e+02
  -5.137792e+01   1.436808e+02
  -9.100154e+01  -1.782588e+01
  -4.048863e+01  -9.207978e+01
   3.328696e+01  -1.045360e+02
   4.038153e+01   6.630833e+00
   6.857055e+01   5.099139e+01
   1.286969e+01   5.303559e+00
  -1.357571e+01  -2.133403e+01
   4.399547e+01   2.001128e+01
   5.338536e+01   8.623863e+01
   2.902845e+01   1.286993e+02
  -6.032922e+01   4.085144e+01
  -9.593285e+01  -7.180324e+01
  -1.221562e+02  -7.417992e+01
  -1.227747e+01  -3.052546e+01
   1.356311e+02   3.595475e+01
   8.850903e+01   3.654512e-01
   3.435058e+01   1.920684e+01
  -5.304209e+01  -9.016468e+00
  -3.986110e+01  -2.273147e+01
   1.444940e+01  -8.076422e+00
   1.159395e+01   3.011281e+01
  -8.994710e+01  -1.716376e+00
  -1.054871e+02  -2.066326e+01
  -2.746654e+00  -9.301041e+01
   1.221769e+02  -1.221174e+02
   1.635430e+02  -8.256337e+01
   1.673224e+02   9.379800e+01
   1.773768e+01   2.070198e+02
  -9.844038e+01   1.287354e+02
  -1.695360e+02   1.119180e+02
  -2.494045e+01   5.283508e+00
   1.118917e+00  -5.340183e+01
   2.114283e+01  -6.914502e+00
  -5.013381e+00   2.961162e+01
  -6.715759e+01  -4.908655e+01
  -5.970436e+00  -6.882944e+01
   4.180352e+01  -5.975800e+01
   8.120407e+01   1.845678e+01
   8.993655e+01   1.115456e+02
   2.440721e+01   1.474354e+02
  -8.614543e+01   2.908182e+01
  -1.348166e+02  -6.807714e+01
  -4.233573e+01  -1.254879e+02
   7.627451e+01  -6.112382e+01
   1.008363e+02   1.994396e+01
   3.694379e+01   5.552285e+01
  -2.548652e+01   7.264839e+01
  -2.752255e+01   5.382825e+01
   2.400499e+01  -5.259979e+00
   3.883928e+01  -2.355295e+01
   4.462829e-02   8.641437e+00
  -5.903964e+01   5.060462e+01
  -1.495906e+02   6.071537e+01
  -5.811640e+01  -4.874115e+01
   2.597511e+01  -8.722611e+01
   6.962601e+01  -1.192361e+02
   2.435287e+01  -2.569551e+00
  -4.961144e+01   5.076260e+01
   8.223271e-01   2.094722e+01
  -4.529620e+01   1.921985e+01
  -2.395622e+01  -6.224682e+01
   2.589542e+01  -2.284067e+01
   5.925155e+01   5.151431e+00
   1.608892e+01   4.100771e+01
   1.816861e+01   7.072741e+00
   2.466361e+01  -4.436320e+01
  -6.051158e+00  -6.808515e+00
   1.037829e+01   2.896682e+01
  -2.894998e+01   3.250304e+01
  -5.199893e+01   4.678620e-01
  -4.543732e+01  -7.062167e+01
  -9.537979e+00  -6.597757e+01
   3.173167e+01  -2.986660e+01
   7.585043e+01   4.441155e+01
   2.839991e+01   3.743105e+01
  -4.966214e+01   2.652508e+01
  -9.195847e+01   2.304354e+01
  -6.845685e+01  -7.638431e+01
   2.075137e+01  -4.412397e+01
   2.128853e+01  -4.136394e+01
   2.663771e+01  -4.903894e+00
  -1.725161e+01  -2.213225e+01
  -4.449285e+01   3.634471e+01
   2.196141e+01  -3.273319e+01
   2.135038e+01   1.464688e+01
