
 $NMID
 id='ANONYMOUS ', fmtdat='(2E16.6)'
 volume=1.0
 tramp=1.0
 $END
  -3.073127e+03  -7.330517e+01
  -2.094315e+03  -1.357380e+03
   2.202995e+01  -1.847229e+03
   1.246197e+03  -1.258619e+03
   1.034697e+03  -1.120617e+02
   2.743002e+01   2.842471e+02
  -3.402718e+02  -3.711072e+01
  -1.473266e+02  -4.666286e+02
   2.921654e+02  -5.329666e+02
   5.489659e+02  -1.706753e+02
   5.230584e+02   4.794120e+02
   1.424352e+02   6.695806e+02
  -2.527622e+02   3.215988e+02
  -2.956636e+02  -3.371551e+02
  -1.239827e+01  -4.797247e+02
   3.400270e+02  -1.095358e+02
   3.340398e+02   3.743620e+02
  -1.117535e+02   5.996781e+02
  -4.026492e+02   2.850303e+02
  -3.870614e+02  -9.866627e+01
  -1.784667e+02  -3.048952e+02
   6.454808e+01  -2.637058e+02
   7.200056e+00  -2.212781e+02
  -8.444381e+01  -1.638912e+02
  -1.730593e+02  -2.241724e+02
  -1.704850e+01  -2.277717e+02
   3.573280e+02  -1.207649e+02
   5.754083e+02   1.000443e+02
   2.736739e+02   2.816040e+02
  -2.274420e+02   2.152765e+02
  -4.394724e+02  -1.280211e+02
  -1.954183e+02  -2.269658e+02
   1.945188e+02  -3.159953e+02
   4.171533e+02  -1.496042e+02
   2.856595e+02   7.194118e+01
   1.211714e+02   2.757982e+02
   4.821682e+01   2.331467e+02
  -4.072022e+00  -3.409474e+01
   8.850911e+01  -1.704147e+02
   1.547361e+02   5.097481e+01
   1.140100e+02   3.956371e+02
  -8.869500e+01   4.408039e+02
  -2.585143e+02   7.588749e+01
  -2.244053e+02  -2.900537e+02
   6.258041e+01  -1.737103e+02
   1.443352e+02   1.835728e+02
  -9.105899e+01   2.945814e+02
  -3.424124e+02   6.615933e+01
  -4.460983e+02  -3.064400e+02
  -1.150840e+02  -4.550844e+02
   2.759295e+02  -2.554635e+02
   4.819492e+02   2.002025e+01
   4.222168e+02   2.536220e+02
   2.157689e+01   2.602250e+02
  -2.777149e+02   8.236619e+01
  -2.199124e+02  -2.171587e+01
  -2.393632e+01  -6.693678e+01
   6.464384e+01   4.092458e+01
  -4.765449e+01   5.514165e+01
  -2.319830e+02  -8.403441e+01
  -1.140923e+02  -1.968355e+02
   9.853245e+01  -2.319792e+02
   3.265133e+02  -6.169697e+01
   2.134115e+02   1.066493e+02
   1.206359e+00   2.996534e+02
  -2.605774e+02   3.229887e+02
  -2.800174e+02   1.389120e+02
  -2.369972e+02  -1.161441e+02
  -4.868503e+01  -3.276520e+02
   1.645755e+01  -2.708558e+02
   8.184710e+01  -2.105733e+02
   7.714703e+01  -1.308555e+02
   1.647939e+02  -7.016538e+01
   2.271558e+02  -6.649018e+00
   2.228042e+02   1.172136e+02
   8.213017e+01   2.513990e+02
  -7.783816e+01   1.629213e+02
  -1.615609e+02  -1.528621e+01
  -6.457621e+01  -2.079644e+02
   4.852079e+01  -2.255080e+02
   1.948849e+02  -5.615702e+01
   2.718577e+02   1.746527e+02
   1.065489e+02   2.784540e+02
  -4.270867e+01   2.357041e+02
  -1.397870e+02   1.513301e+02
  -1.947377e+02   1.149552e+02
  -1.881061e+02   3.157305e+01
  -2.625382e+02   7.868788e+00
  -3.269197e+02  -1.062164e+02
  -2.624606e+02  -3.204390e+02
   2.034073e+01  -4.384837e+02
   3.234276e+02  -3.691193e+02
   4.086812e+02  -1.653370e+02
   2.485336e+02   6.742753e+01
   2.052093e+01   2.300215e+02
  -3.139455e+01   2.150611e+02
  -4.147761e+01   5.028181e+01
   7.299025e+01  -6.133174e+01
   1.538031e+02   7.392237e+01
   3.212958e+01   1.427092e+02
  -4.837762e+01   1.106088e+02
  -9.353535e+01   5.034231e+00
   2.422086e+00  -1.111855e+02
   1.360903e+02   8.714783e+00
   1.593074e+02   2.482001e+02
  -2.689814e+01   3.378084e+02
  -2.062094e+02   1.860717e+02
  -3.385710e+02  -5.861862e+01
  -2.885162e+02  -2.656531e+02
  -4.171561e+01  -2.468466e+02
   1.616619e+02  -1.326974e+02
   1.060227e+02   1.537970e+01
   3.893226e+01  -9.835652e+00
  -2.300375e+01  -4.928017e+01
   3.177192e+01  -1.039362e+02
   6.995647e+01  -5.932157e+01
   1.053188e+02   8.345849e+00
   3.849402e+00   8.059613e+01
  -7.366011e+01   1.539867e+01
  -2.486965e+01  -1.416769e+02
   1.363783e+02  -7.600709e+01
   2.899570e+02  -1.968080e+01
   2.709479e+02   1.859617e+02
   3.179218e+01   2.177636e+02
  -2.256634e+02   2.362067e+02
  -2.767652e+02   1.289013e+02
  -1.095359e+02  -1.304330e+01
   4.466397e+01  -4.050155e+01
   3.680953e+01  -1.891474e+01
  -6.209461e+01   5.943825e+01
  -1.597611e+02   1.494584e+01
  -1.495065e+02  -8.705905e+01
  -5.837255e+01  -1.935872e+02
   3.102527e+01  -1.111947e+02
   1.329340e+02  -2.925945e+01
   5.430819e+01   9.904977e+00
  -3.413751e+01  -3.563042e+01
  -2.851066e+01  -8.946992e+01
   9.484755e+01  -1.194361e+02
   1.743314e+02  -1.764932e+01
   1.883088e+02   1.295539e+02
   1.079759e+01   1.800445e+02
  -1.473575e+02   1.288744e+02
  -1.230500e+02   9.844799e+00
  -5.809053e+01  -1.005678e+02
   2.552969e+01  -8.045168e+01
   7.070001e+01  -4.648155e+01
   1.416181e+01   1.115880e+01
   2.003492e+01   6.819489e+00
   4.144912e+01  -2.486968e+01
   6.371792e+01  -1.769482e+00
   9.189416e+01   5.464023e+01
  -1.271898e+01   1.951037e+02
  -1.258678e+02   1.418749e+02
  -1.705729e+02  -3.546684e+01
  -2.051707e+02  -1.544394e+02
  -1.540217e+01  -2.094343e+02
   8.861783e+01  -1.407136e+02
   1.477407e+02  -2.159891e+01
   6.697886e+01   5.845229e+01
   4.733130e+01  -1.288047e+00
   3.923931e+01  -2.366470e+01
   1.250478e+02   2.881693e+01
   4.649323e+01   8.644628e+01
  -5.619816e+01   1.085216e+02
  -1.092276e+02   5.408750e+01
  -8.602697e+01  -5.110819e+01
  -1.975878e+00  -1.140654e+02
   1.495947e+02  -3.682372e+01
   1.914445e+02   7.146083e+01
   8.583972e+01   2.474915e+02
  -1.121095e+02   2.258918e+02
  -2.391377e+02   1.042223e+02
  -2.176945e+02  -9.839394e+01
  -1.244662e+02  -1.401578e+02
  -1.751381e+01  -1.626121e+02
   6.598243e+01  -5.722017e+01
   8.922210e+01  -1.018516e+02
   1.098824e+02  -7.754227e+01
   9.703771e+01  -6.429545e+01
   9.135435e+01  -3.468377e+00
   6.617806e+01   1.219637e+02
   7.008863e+00   2.021189e+02
  -8.836910e+01   1.820087e+02
  -1.689363e+02   1.161498e+01
  -9.346629e+01  -1.381282e+02
  -1.576439e+01  -1.493854e+02
   8.680179e+01  -4.749420e+01
   2.775301e+01  -3.787509e+00
  -1.188625e+01   7.714696e+01
  -1.619512e+01   2.585313e+01
   3.704758e+01   3.760099e+01
   5.012493e+01   6.293748e+01
   2.711508e+01   3.444735e+01
  -1.064767e+02  -8.932450e+00
  -1.702809e+02  -1.983420e+01
  -1.032865e+02  -3.335376e+01
   7.400956e+00  -8.283029e+01
   1.238112e+02  -7.359512e+01
   1.297103e+02  -8.386475e+00
   2.889442e+01   7.290269e+01
  -3.060544e+01   3.813569e+01
  -8.241880e+01   3.326691e+00
  -4.369559e+00  -4.950744e+01
   5.298287e+01  -1.007817e+02
   4.543143e+01  -2.414499e+01
   1.007358e+02   4.039650e+01
   5.441993e+01   6.193699e+01
   6.427159e+01  -5.855420e+01
   5.430962e+01  -2.081748e+01
   5.230984e+01   4.987115e+01
  -1.986269e+01   1.388743e+02
  -1.295674e+02   1.241300e+02
  -1.382241e+02   4.374174e+01
  -1.164004e+02  -8.946795e+01
  -6.062488e+01  -1.067090e+02
   5.911150e+01  -3.027067e+01
   5.485650e+01   3.680262e+00
  -4.789305e+01   6.359075e+01
  -1.353973e+02  -7.338860e+01
  -5.212541e+01  -1.461824e+02
   7.215425e+01  -1.180926e+02
   1.844547e+02  -5.155565e+01
   1.685815e+02   6.349621e+01
   2.979469e+01   6.983708e+01
  -2.941253e+00   4.821803e+01
  -3.296844e+01  -2.056432e+01
   4.344096e+01  -2.868936e+01
   9.167967e+01  -1.254672e+00
   5.592613e+01   1.271079e+02
  -5.963404e+01   1.548725e+02
  -1.338973e+02   9.506814e+01
  -8.276939e+01  -6.326024e+01
  -9.328621e-01  -2.227151e+02
   9.526051e+01  -1.153998e+02
   7.429615e+01  -1.827315e+01
   1.206655e+01   1.482594e+02
   5.105840e+01   8.252721e+01
  -1.311172e+01  -4.883295e+00
  -5.506128e+01  -2.254319e+01
   1.217712e+01  -2.192560e+00
   6.408662e+00   2.432588e+01
  -5.546365e+01  -1.888979e+01
  -6.976699e+01  -3.203840e+01
  -6.280936e+01  -1.016464e+02
   2.679001e+01  -6.986688e+01
   1.056845e+02   1.579787e+01
   1.062316e+02   4.249471e+01
   2.661013e+00   4.253906e+01
  -7.736188e+01   3.128966e+01
  -9.583031e+01   2.002681e+01
   7.065190e-02   1.227257e+01
   2.191410e+01  -1.517588e+01
   1.797243e+01  -3.553122e+01
  -2.789120e+01   1.956630e+01
  -3.870516e+01  -3.471625e+01
   4.930345e+01   1.519055e+01
   7.984850e+01  -2.832190e+00
   2.633689e+01   7.905721e+01
  -1.187780e+02   5.489330e+01
  -1.434301e+02   8.517418e+01
  -1.792797e+02  -7.849189e+01
  -4.812129e+01  -1.608049e+02
   8.893300e+01  -1.294989e+02
   1.280513e+02  -6.464698e+01
   7.374577e+01   6.351699e-01
   1.440377e+00   5.903867e+01
   1.263346e+01  -1.737688e+01
   1.715540e+01  -2.079675e+01
   2.105309e+01   7.512835e+01
   7.548147e+00   3.867687e+01
  -4.644824e+01   5.988126e+01
  -7.595477e+01  -1.980168e+01
  -1.105945e+02  -9.404356e+01
  -1.970458e+01  -1.071503e+02
   8.866477e+01  -3.432913e+01
   6.901560e+01   7.832819e+01
   5.222987e+01   1.260174e+02
  -5.803367e+01   5.007880e+01
  -7.799258e+01  -1.541912e+01
  -7.974139e+01  -6.921859e+01
   3.946117e+01  -4.396809e+01
   3.383297e+01  -4.703075e+01
  -1.784826e+01   1.747569e+01
  -6.592273e+01  -2.752116e+01
  -4.190769e+01  -4.526041e+01
   5.275291e+01  -4.032966e+01
   9.565994e+01  -4.028620e+01
   1.122348e+02   2.789472e+01
  -6.843127e+00   1.003500e+02
  -2.674096e+01   1.004316e+02
  -2.791485e+01   3.455753e+01
  -7.889141e+00  -5.108987e+01
  -1.390870e+01  -6.749246e+01
   3.045859e+01  -8.830621e-01
   1.218368e+01   1.292310e+02
   8.376109e+00   5.226687e+01
  -2.881361e+01   7.613619e+00
  -2.756728e+01  -3.943128e+01
  -1.479297e+01   8.647236e+00
   2.349043e+00   3.245381e+01
   3.647977e+01   3.931424e+01
   2.601134e+00   9.798210e+00
   1.540657e+01  -5.280120e+01
   5.739444e+01  -4.238682e+01
   2.712044e+01   1.230723e+01
   5.874646e+00   2.678508e+01
  -4.959062e+01   3.123974e+01
  -5.038271e+01  -4.099616e+01
   7.269438e+00  -1.187909e+02
   3.002755e+01  -3.484758e+01
   6.889792e+01   9.627695e+00
   3.315414e+01   4.144946e+01
  -1.429350e+01  -1.135905e+01
  -5.414639e+01   5.387522e+01
  -5.598552e+01  -1.185798e+01
   3.229005e+01  -3.428357e+00
   1.508541e+01   4.409195e+01
  -3.439115e+01   3.387318e+01
  -8.704515e+01   1.447364e+01
