
 $NMID
 id='ANONYMOUS ', fmtdat='(2E16.6)'
 volume=1.0
 tramp=1.0
 $END
  -4.373731e+03   8.084980e-01
  -2.617338e+03  -2.197243e+03
   3.853032e+02  -2.681835e+03
   1.973388e+03  -1.168609e+03
   1.048329e+03   5.247778e+02
  -5.430340e+02   5.059462e+02
  -7.681036e+02  -3.535641e+02
  -3.033333e+01  -1.000890e+03
   7.306284e+02  -7.408199e+02
   9.661442e+02   4.797383e+00
   5.666913e+02   8.591506e+02
  -1.749457e+02   9.436971e+02
  -5.695536e+02   2.626063e+02
  -4.180923e+02  -6.247475e+02
   1.314368e+02  -7.323819e+02
   5.957039e+02  -5.400825e+01
   2.315023e+02   6.770230e+02
  -2.381407e+02   7.034237e+02
  -6.039876e+02   1.321337e+02
  -4.163714e+02  -3.092382e+02
  -2.930901e+01  -4.047971e+02
   2.672548e+02  -2.644570e+02
   1.856393e+02  -3.779493e+01
  -8.595755e+01   8.110990e+01
  -3.868663e+02  -5.232146e+01
  -2.189154e+02  -3.546649e+02
   4.093445e+02  -5.020202e+02
   8.380532e+02   9.620640e+01
   4.518860e+02   5.059400e+02
  -3.888665e+02   4.987386e+02
  -7.236908e+02  -9.733860e+00
  -3.500040e+02  -4.146984e+02
   2.369887e+02  -5.151288e+02
   5.290332e+02  -2.317703e+02
   3.449126e+02   2.301982e+02
   8.970334e+01   4.416662e+02
  -7.734308e+01   3.203662e+02
  -1.283156e+02  -1.526870e+02
   9.662872e+01  -3.985390e+02
   3.914769e+02  -3.351635e+01
   2.741367e+02   6.085417e+02
  -2.706102e+02   7.042025e+02
  -5.882954e+02   4.738729e+01
  -2.388591e+02  -5.032496e+02
   2.397149e+02  -3.274272e+02
   3.659651e+02   2.751045e+02
  -3.585715e+01   5.014917e+02
  -5.003640e+02   1.838892e+02
  -5.582202e+02  -4.548263e+02
  -1.943258e+02  -6.368860e+02
   3.686729e+02  -3.765656e+02
   6.403999e+02   4.923593e+01
   3.862878e+02   3.931326e+02
  -1.497009e+02   3.835148e+02
  -4.186372e+02   6.702264e+01
  -2.506677e+02  -1.598811e+02
   1.377196e+02  -1.034379e+02
   1.933634e+02   1.720159e+02
  -1.637028e+02   1.860252e+02
  -3.228780e+02  -6.269653e+01
  -1.334467e+02  -3.001257e+02
   1.882190e+02  -2.496272e+02
   3.680604e+02  -8.609671e+01
   1.529692e+02   3.130376e+01
  -3.938757e+01   2.050514e+02
  -2.270793e+02   3.460268e+02
  -2.734063e+02   2.420719e+02
  -3.109276e+02  -1.296649e+02
  -7.417575e+01  -4.217523e+02
   1.148315e+02  -3.861304e+02
   1.111139e+02  -1.070216e+02
   4.907540e+01  -2.816207e+01
   6.242419e+01  -1.267685e+02
   1.971339e+02  -8.343635e+01
   2.719153e+02   4.219471e+01
   1.175250e+02   2.597247e+02
  -2.074732e+01   2.866857e+02
  -1.882701e+02  -1.776225e+00
  -1.606482e+02  -2.213599e+02
  -6.325228e+00  -2.907819e+02
   2.110404e+02  -1.142643e+02
   3.316453e+02   1.477147e+02
   2.084563e+02   3.032926e+02
  -7.816286e+01   3.034229e+02
  -2.074578e+02   1.037896e+02
  -1.102096e+02   2.316920e+01
  -7.866579e+01   3.027805e+01
  -2.239896e+02   8.461897e+01
  -4.078949e+02  -1.019943e+02
  -3.360607e+02  -2.846715e+02
  -4.700449e+00  -3.892565e+02
   3.325387e+02  -3.825908e+02
   4.543831e+02  -2.041929e+02
   3.731300e+02   9.058685e+01
   5.928182e+01   2.643113e+02
  -1.560647e+02   2.673943e+02
  -7.808299e+01   6.832901e+01
   1.172410e+02  -1.267741e+02
   1.754426e+02   3.854716e+00
   7.028015e+01   2.007045e+02
  -1.536718e+02   1.749394e+02
  -1.479018e+02  -5.566520e+01
   2.132000e+01  -2.177418e+02
   1.878492e+02  -2.314368e+01
   1.640326e+02   2.506643e+02
  -2.012347e+01   3.756604e+02
  -2.010128e+02   2.498393e+02
  -3.250694e+02  -7.158312e+01
  -2.951078e+02  -1.824392e+02
  -1.245573e+02  -2.514856e+02
   7.891481e+01  -1.635458e+02
   1.992550e+02  -5.374615e+01
   3.543210e+01   3.481745e+01
  -1.092429e+02  -1.894194e+01
  -4.865285e+01  -1.091896e+02
   9.365657e+01  -1.306389e+02
   1.767083e+02   5.330534e+01
   6.777303e+01   6.754040e+01
  -8.728019e+01   1.862723e+01
  -4.304509e+01  -5.884914e+01
   8.170901e+01  -9.503943e+01
   3.217177e+02  -5.085797e+01
   2.869497e+02   1.262523e+02
   8.062006e+01   2.842322e+02
  -1.856403e+02   2.776425e+02
  -2.402561e+02   1.237126e+02
  -1.906122e+02  -2.217526e-01
   6.216569e+01  -1.062604e+02
   7.333887e+01   2.897817e+01
  -5.939312e+01   8.031100e+01
  -2.585014e+02   7.075823e+01
  -1.928056e+02  -7.300603e+01
  -9.714082e+01  -2.507256e+02
   1.104678e+02  -1.238492e+02
   1.249573e+02  -6.707924e+01
   1.024985e+02   8.952785e+00
   1.123725e+01  -3.059235e+01
  -2.317456e+01  -9.421534e+01
   8.630241e+01  -1.080423e+02
   1.798274e+02  -9.319917e+01
   1.670002e+02   8.864427e+01
   3.372300e+00   1.834916e+02
  -1.579754e+02   9.876171e+01
  -1.786592e+02   1.091520e+01
  -5.837548e+01  -9.497655e+01
   6.200315e+01  -8.638342e+01
   7.371823e+01  -2.435845e+01
   2.217542e+01  -6.683977e+00
  -7.441506e+00   1.595340e+00
   2.334909e+01   7.539515e+00
   8.597558e+01  -2.838620e+01
   5.669361e+01   4.886346e+01
   3.600441e+01   1.493598e+02
  -1.329514e+02   1.669801e+02
  -2.698359e+02   6.841464e+01
  -1.740381e+02  -1.897768e+02
  -3.755629e+01  -2.213872e+02
   1.360168e+02  -1.877490e+02
   1.369430e+02  -3.771966e+01
   6.182991e+01   4.660444e+01
   2.064874e+01   3.698369e+01
   5.637148e+01  -1.678629e+01
   1.226945e+02  -2.004358e+01
   5.498466e+01   7.513040e+01
  -1.597424e+01   6.860172e+01
  -1.020248e+02   6.984960e+01
  -5.382751e+01  -4.936023e+01
   2.857074e+01  -8.533571e+01
   1.432845e+02  -9.266134e+01
   2.060449e+02   3.746610e+01
   1.027190e+02   1.934836e+02
  -1.158409e+02   2.311192e+02
  -2.548115e+02   1.092219e+02
  -2.229505e+02  -8.844144e+01
  -1.011999e+02  -1.529084e+02
   3.659713e+01  -1.130346e+02
   8.950577e+01  -1.108267e+02
   3.930817e+01  -1.217377e+02
   5.646610e+01  -8.542259e+01
   8.792127e+01  -8.331624e+01
   1.249262e+02   8.448384e+00
   9.921280e+01   1.643815e+02
   4.474172e+01   2.052804e+02
  -7.102478e+01   1.811752e+02
  -1.790846e+02   5.566805e+01
  -1.537235e+02  -1.324278e+02
  -3.740462e+01  -1.712179e+02
   5.341366e+01  -1.169294e+02
   6.222415e+01   1.597271e+01
  -6.714713e+00   3.159821e+01
  -4.081350e+01   4.546110e+01
   3.900607e+01  -1.174374e+01
   7.514598e+01   1.001819e+01
   5.581096e+01   1.721914e+01
  -7.133133e+01   2.836130e+01
  -1.391735e+02  -1.820790e+00
  -1.497824e+02  -7.903484e+01
  -3.827685e+01  -1.368532e+02
   9.251477e+01  -7.584700e+01
   1.435392e+02  -7.454306e+01
   5.868673e+01   3.304964e+01
  -4.316023e+01   5.267829e+01
  -7.692753e+01  -1.511817e+01
  -2.538890e+01  -5.299381e+01
   7.549048e+01  -4.288360e+01
   8.517622e+01  -1.724222e+00
   9.886025e+01   4.014477e+01
   3.496994e+01   5.309536e+01
   6.944345e+01   3.283767e+01
   9.020581e+01  -1.850404e+01
   2.221972e+01   8.330282e+01
  -2.821142e+01   1.653907e+02
  -8.364611e+01   1.633063e+02
  -1.716454e+02   6.768632e+01
  -1.144942e+02  -7.291381e+01
   1.895799e+01  -1.397793e+02
   8.591531e+01  -5.640511e+01
   5.231810e+01  -2.484341e+01
  -7.329661e+01   4.474454e+01
  -1.523752e+02  -2.974461e+01
  -1.072557e+02  -1.051820e+02
   3.677197e+01  -9.033695e+01
   1.665073e+02  -5.128084e+01
   1.692711e+02   3.850648e+01
   9.241574e+01   7.407966e+01
  -4.789133e+01   4.754424e+01
  -9.780223e+01  -1.926561e+00
   3.208042e+01   2.199798e+01
   9.625490e+01   1.254615e+01
   5.589577e+01   1.208913e+02
  -7.861358e+01   1.502220e+02
  -1.522642e+02   7.074788e+01
  -1.059992e+02  -5.497948e+01
  -6.969135e+01  -2.247666e+02
   1.082786e+02  -1.561798e+02
   1.024971e+02  -5.084856e+00
   5.310591e+01   1.232314e+02
   2.814642e+00   8.915903e+01
  -4.687983e+01   6.163298e+00
  -6.686648e+01  -5.941770e+01
  -5.737283e+00   1.710828e+01
  -9.187610e+00   2.726819e+01
   1.778314e+01  -1.403786e+01
  -5.354453e+01  -9.168506e+01
  -6.107161e+01  -1.294578e+02
   4.564967e+01  -7.106312e+01
   8.941002e+01   4.807494e+01
   1.287326e+02   5.205232e+01
   7.356920e+01   3.907125e+01
  -7.793490e+01   8.234662e+01
  -4.367631e+01   5.221770e+01
  -8.346677e+00  -3.438302e+01
   6.933643e+01  -4.181814e+01
   8.824068e+00  -1.476688e+01
  -2.724070e+01   1.033229e+01
   2.263187e+01   6.351579e+01
   5.714759e+01   2.447560e+01
   1.101844e+02   2.968456e+01
   7.723248e+00   7.113754e+01
  -1.181026e+02   1.098788e+02
  -1.957441e+02   4.333530e+01
  -1.590411e+02  -3.923688e+01
  -1.066535e+01  -1.606280e+02
   9.642350e+01  -1.633675e+02
   1.080274e+02  -4.958504e+01
   7.731509e+01   1.536960e+01
   2.798276e+01   3.152537e+01
   4.227839e+01   5.918030e+01
   3.866012e+01  -7.216049e+00
   4.208359e+01   6.125890e+01
   6.067410e+01   8.330715e+01
  -3.984221e+01   7.335393e+01
  -7.807299e+01  -2.947435e+01
  -4.923447e+01  -8.955535e+01
  -2.678095e+01  -9.362834e+01
   8.833059e+01  -6.282047e+01
   1.309323e+02   8.669866e+01
   4.065390e+01   7.975070e+01
  -6.655211e+01   7.430382e+01
  -9.801324e+01   5.618845e+00
  -4.664393e+01  -8.657858e+01
   1.591681e+01  -4.924156e+01
   3.952935e+01  -3.688433e+01
  -5.631731e+01   1.827072e+00
  -5.248660e+01  -2.478999e+01
  -1.763356e+01   7.840734e+00
   4.050907e+01  -3.430444e+01
   1.105449e+02  -5.546087e+01
   6.061651e+01   1.279666e+01
  -5.905055e+00   8.752809e+01
  -4.007979e+01   7.122795e+01
  -5.663006e+01  -9.249586e-01
  -1.929953e+01  -7.454542e+01
   3.785663e+01  -5.436219e+01
   5.790001e+01  -3.034006e+01
   3.888606e+01   5.978992e+01
   9.213743e+00   2.770276e+01
  -2.679681e+01  -3.769196e+01
  -1.992233e+01  -8.129800e+00
  -2.474664e+01  -1.167840e+01
  -1.442439e+01  -1.593742e+00
  -1.350977e+01  -6.686002e+00
  -1.588393e+01  -6.320077e+01
   1.098722e+01  -6.838682e+01
   2.257785e+01  -1.455018e+01
   5.965570e+00   4.447250e+01
  -1.356877e+00   5.092923e+01
  -7.763393e+01  -1.748158e+01
  -5.265560e+01  -3.703035e+01
   3.277511e-01  -5.700987e+01
   4.325945e+01  -5.040739e+01
   1.108974e+02   2.852753e+00
   3.058302e+01   6.003136e+01
  -5.992655e+01   7.144977e+00
  -7.998580e+01   3.017206e+01
  -4.683770e+00   2.657929e+01
   2.055781e+01   1.726497e+01
  -1.097091e+01   1.620038e+01
  -5.920812e+01   8.959371e+00
  -9.809018e+01  -1.409649e+00
