
 $NMID
 id='ANONYMOUS ', fmtdat='(2E16.6)'
 volume=1.0
 tramp=1.0
 $END
  -3.276636e+03  -1.548472e+02
  -2.080891e+03  -1.883411e+03
   1.633727e+02  -1.988219e+03
   1.194823e+03  -1.070701e+03
   6.669852e+02  -2.309858e+02
  -1.476723e+02   1.014624e+02
  -3.182279e+02  -2.569218e+02
  -3.671324e+01  -5.567103e+02
   4.242494e+02  -5.476055e+02
   6.141794e+02  -4.879893e+01
   4.289839e+02   5.628805e+02
   1.791934e+01   6.530537e+02
  -3.511137e+02   1.202607e+02
  -2.331379e+02  -3.904349e+02
   9.553577e+01  -5.053032e+02
   3.691359e+02  -5.138018e+01
   2.853794e+02   4.913982e+02
  -7.162045e+01   5.453642e+02
  -4.592503e+02   2.953632e+02
  -3.771863e+02  -1.521785e+02
  -1.001038e+02  -3.038489e+02
   1.134448e+02  -2.469964e+02
   7.162698e+01  -8.317748e+01
  -1.939035e+02  -3.857863e+01
  -3.416366e+02  -2.122623e+02
  -3.056514e+00  -3.722382e+02
   4.970369e+02  -1.179119e+02
   5.852617e+02   2.016901e+02
   2.073338e+02   3.861920e+02
  -3.880827e+02   2.382123e+02
  -6.134558e+02  -1.676175e+02
  -2.057724e+02  -3.963563e+02
   2.266468e+02  -3.684382e+02
   4.168172e+02  -5.661218e+01
   2.860958e+02   1.717007e+02
   5.765848e+01   3.071672e+02
  -3.558124e+01   1.453440e+02
   4.491761e+01  -1.446918e+02
   2.302849e+02  -1.562114e+02
   2.761616e+02   1.603096e+02
   8.737319e+01   5.663513e+02
  -3.111374e+02   4.972646e+02
  -3.754270e+02  -4.247348e+01
  -1.168715e+02  -4.171965e+02
   2.135476e+02  -1.258900e+02
   1.898759e+02   3.113206e+02
  -1.629306e+02   3.873529e+02
  -4.124768e+02   7.148066e+01
  -5.605988e+02  -3.462246e+02
  -1.631694e+02  -5.124017e+02
   3.511659e+02  -2.641525e+02
   5.113967e+02   4.824438e+01
   3.308565e+02   2.423926e+02
  -8.733511e+01   2.398188e+02
  -2.993225e+02   6.283090e+01
  -1.545212e+02  -3.914852e+01
   1.669506e+01  -2.694105e+01
   3.290285e+01   7.994142e+01
  -1.630238e+02   1.076898e+02
  -1.796161e+02  -1.014170e+02
  -9.497519e+01  -1.530565e+02
   1.565654e+02  -2.245314e+02
   3.010647e+02  -1.273537e+02
   2.354935e+02   8.825514e+01
  -2.335812e+01   2.484862e+02
  -2.152424e+02   3.603511e+02
  -3.247429e+02   1.708804e+02
  -2.701756e+02  -1.117048e+02
  -4.436201e+01  -3.645394e+02
   7.249554e+01  -3.127207e+02
   1.362402e+01  -1.376441e+02
  -3.562092e+01  -9.799190e+01
   1.101025e+02  -1.000969e+02
   2.711343e+02  -1.088885e+02
   2.358798e+02   1.338774e+02
   7.220275e+01   2.554009e+02
  -1.152328e+02   1.662181e+02
  -2.462101e+02  -3.832472e+01
  -1.334854e+02  -2.560729e+02
   8.853303e+01  -2.532698e+02
   2.617281e+02  -3.344294e+01
   2.522029e+02   9.821891e+01
   1.477555e+02   2.493737e+02
  -3.017212e+01   2.148133e+02
  -1.251484e+02   1.255540e+02
  -1.293758e+02   7.782707e+01
  -1.933210e+02   8.059894e+01
  -2.671758e+02   6.114325e+01
  -3.945667e+02  -8.834805e+01
  -3.507724e+02  -2.518254e+02
   1.680990e+01  -4.020579e+02
   3.621052e+02  -4.156967e+02
   4.654259e+02  -1.789169e+02
   3.232144e+02   7.200509e+01
   6.932511e+01   2.593722e+02
  -1.059359e+02   1.922565e+02
  -3.869191e+01   5.534375e+01
   7.988648e+01  -6.180337e+01
   1.089205e+02   2.530848e+01
  -1.291034e+01   1.619661e+02
  -1.271154e+02   6.221489e+01
  -1.437955e+02  -9.318845e+01
   3.487113e+01  -1.304996e+02
   1.513284e+02  -4.142066e+01
   1.409345e+02   2.412247e+02
  -3.612676e+01   3.882597e+02
  -1.882082e+02   2.057468e+02
  -3.134158e+02  -7.461814e+01
  -3.104276e+02  -2.610619e+02
  -1.025998e+02  -2.707378e+02
   1.262907e+02  -1.368209e+02
   1.586767e+02   9.682285e+00
   4.695145e+01   8.772513e+00
  -6.749633e+01  -2.976774e+01
  -2.804255e+01  -1.345162e+02
   1.728243e+02  -3.949090e+01
   1.072419e+02   3.700940e+01
   3.792211e+01   6.164227e+01
  -1.090783e+02   4.874796e+00
  -3.495644e+01  -1.221357e+02
   1.198951e+02  -8.091177e+01
   3.161288e+02  -4.633560e+01
   3.022873e+02   1.768709e+02
   9.922145e+01   2.517730e+02
  -2.474819e+02   2.555372e+02
  -2.256960e+02   1.399755e+02
  -1.217296e+02  -2.698203e+01
   3.914055e+01  -8.223582e+01
   5.352746e+01  -1.604187e+01
  -4.502366e+01   7.112772e+01
  -1.919753e+02   4.684650e+01
  -1.868433e+02  -1.028104e+02
  -2.600129e+01  -1.966337e+02
   1.209558e+02  -1.960942e+02
   7.912541e+01  -7.736488e+00
   2.981222e+01   1.256558e+01
  -5.947320e+01   6.122012e+00
  -1.331013e+01  -8.360238e+01
   4.943988e+01  -1.440770e+02
   2.196075e+02  -3.694886e+01
   1.891470e+02   1.102167e+02
   9.367077e+00   2.123402e+02
  -1.655080e+02   2.045854e+02
  -2.188819e+02   1.462585e+01
  -7.318376e+01  -9.996098e+01
   4.649596e+01  -1.353745e+02
   5.195926e+01  -4.157774e+01
  -4.027627e+01   2.381027e+01
  -4.899711e+01  -6.575064e+00
  -4.381329e+00  -1.849425e+01
   2.865348e+00  -4.731319e+01
   1.105077e+02   1.041765e+02
   6.504202e+01   1.557828e+02
  -1.555848e+02   1.702765e+02
  -2.198941e+02   1.243868e+01
  -2.090170e+02  -1.236078e+02
  -8.415305e+01  -2.112053e+02
   8.406082e+01  -1.264931e+02
   1.127660e+02  -5.413110e+01
   8.905564e+01   1.609761e+01
   3.400131e+01   3.007401e+01
   5.766967e+01  -8.216030e+00
   9.315228e+01  -4.810327e+00
   9.076709e+01   7.609398e+01
  -5.139731e+01   1.037452e+02
  -1.194306e+02   8.253604e+01
  -9.312336e+01  -1.424171e+01
  -5.756548e+00  -1.446722e+02
   1.521590e+02  -7.990918e+01
   1.937597e+02   6.736361e+01
   1.018719e+02   2.139208e+02
  -1.322605e+02   2.036186e+02
  -2.425721e+02   7.381447e+01
  -2.530862e+02  -8.681724e+01
  -9.072516e+01  -1.970738e+02
   3.665035e+01  -1.325312e+02
   6.837085e+01  -5.281669e+01
   4.576983e+01  -3.750330e+01
   7.802874e+01  -9.789921e+01
   1.000508e+02  -9.106213e+01
   1.211652e+02  -6.853685e+00
   1.170374e+02   1.442151e+02
  -1.744730e+01   2.030700e+02
  -8.129660e+01   1.759316e+02
  -1.305640e+02   2.161141e+01
  -1.244111e+02  -1.187600e+02
   7.999715e-01  -1.077246e+02
   5.363302e+01  -5.054114e+01
   1.032019e+01  -1.877697e+01
  -9.656525e-01   7.381347e+01
  -5.133859e-01   2.876500e+01
   5.804554e+01   6.780417e+00
   1.115621e+02   2.892445e+01
   4.277198e+01   2.711021e+01
  -7.221275e+01   5.363968e+01
  -1.857550e+02  -2.746711e+00
  -1.568193e+02  -3.369759e+01
  -1.764165e+01  -1.177672e+02
   8.697000e+01  -1.146086e+02
   1.009167e+02  -1.933763e+01
   5.208988e+01   5.294915e+01
  -1.050283e+02   4.851267e+01
  -9.717726e+01  -3.253192e+01
   1.035941e+01  -8.175321e+01
   4.880753e+01  -6.858639e+01
   3.054151e+01   9.567902e+00
   5.599385e+01   4.688814e+01
   1.111004e+02   4.103434e+01
   3.530209e+01   5.003963e+00
   6.285899e+01  -4.260346e-01
   4.606261e+01   9.251940e+01
  -9.239758e+00   1.465249e+02
  -1.344681e+02   1.809177e+02
  -2.053449e+02   3.689879e+01
  -1.030957e+02  -8.757865e+01
   1.103777e+01  -1.194712e+02
   6.516621e+01  -7.772552e+01
   9.521278e+01   3.644875e+01
  -3.149764e+01   4.344305e+01
  -1.508223e+02  -1.175900e+01
  -9.319511e+01  -6.749905e+01
   4.736371e+01  -9.621086e+01
   1.396104e+02  -3.798977e+01
   1.474187e+02  -2.339509e+01
   2.251603e+01   7.832440e+01
  -4.851461e+01   7.782852e+01
  -3.473335e+01  -4.419912e-01
   7.123189e+01  -1.260523e+01
   8.644985e+01   3.942656e+01
   4.707333e+01   1.523622e+02
  -6.462064e+01   1.625329e+02
  -1.777338e+02   6.156647e+01
  -1.314835e+02  -7.779842e+01
  -3.172325e+01  -2.144139e+02
   8.926991e+01  -1.504330e+02
   1.129763e+02   9.878618e+00
   5.179702e+01   1.178264e+02
  -4.162823e+00   1.353720e+02
  -4.207977e+01  -1.000967e+01
  -3.834018e+01   6.165949e+00
  -4.343254e+01  -4.177121e+00
  -1.747839e+01  -4.103787e+00
  -2.082598e+01   1.987180e+01
  -6.761409e+01  -9.719085e+01
  -2.046046e+01  -1.206991e+02
   4.753025e+01  -4.396134e+01
   1.211594e+02   2.169881e+01
   8.657405e+01   1.172749e+02
   5.445254e+01   5.444345e+01
  -8.835191e+01   1.645777e+01
  -4.752234e+01   1.274057e+00
  -2.270103e+01  -2.558539e+01
   3.683262e+01   6.107559e+01
  -1.102176e+00   2.584020e+01
  -6.099178e-01  -1.398052e+01
  -1.561974e+01  -1.196753e+00
   2.397863e+01  -9.472008e+00
   1.215412e+02   2.580981e+01
   3.799130e+01   7.428014e+01
  -9.389552e+01   1.186827e+02
  -1.612063e+02   6.605705e+01
  -1.557301e+02  -5.165986e+01
  -4.262705e+01  -1.320424e+02
   7.084294e+01  -1.378077e+02
   9.762936e+01  -9.972666e+01
   5.826568e+01   5.387567e+01
   2.325004e+00   1.259882e+01
   1.365043e+01  -3.848283e+00
   2.279243e+01   1.516337e+01
   2.168100e+00   6.483589e+01
   1.707175e+01   7.609367e+01
  -4.459267e+01   8.729935e+01
  -7.738726e+01  -1.772627e+01
  -8.803517e+01  -9.450860e+01
   8.247456e+00  -9.597648e+01
   3.220456e+01  -5.645020e+01
   8.454383e+01   8.707768e+01
   8.443793e+01   6.027492e+01
  -5.935413e+01   6.200322e+01
  -1.043619e+02   2.174948e+01
  -1.034007e+02  -4.259911e+01
   4.111813e+01  -4.429609e+01
   3.554400e+01  -1.984514e+01
  -4.099646e+01  -1.464421e+01
  -4.871113e+01   1.473741e+01
  -3.720352e+00  -2.558606e+01
   3.919409e+01  -7.750947e+01
   1.108725e+02  -3.168844e+01
   4.255165e+01   1.622981e+01
  -1.825704e+01   4.942955e+01
  -5.694562e+01   7.828559e+01
  -4.579013e+01  -1.027791e+01
  -3.170489e+00  -2.258214e+01
   2.305960e+01  -5.286804e+01
  -4.187619e+00  -1.890134e+01
   2.196330e+01   2.507653e+01
  -2.171197e+01   6.376980e+01
   7.224118e-01  -2.875341e+00
  -3.604435e+01  -2.325884e+01
  -3.199233e+01   1.259462e+00
   2.018039e+01   2.377995e+01
   1.036247e+01  -4.894123e+00
   1.304658e+01  -5.678453e+01
  -1.458548e+01  -7.475168e+01
   2.868956e+01  -3.335833e+01
  -2.406240e+01   7.741484e+01
  -7.651800e-02   5.831616e+01
  -1.638326e+01   6.841199e+00
  -2.142982e+01  -4.570294e+01
  -6.253728e+01  -8.144383e+01
   4.385045e+01  -5.448647e+01
   1.099431e+02  -4.558496e+01
   4.032566e+01  -1.356865e+00
   3.106681e+01   6.605604e+00
  -3.235803e+01   3.769795e+01
   3.546725e+01   5.412984e+00
   1.000188e+01  -1.305854e+01
   5.212015e+01  -1.189300e+01
  -3.519778e+01   3.744682e+01
  -7.498694e+01   2.475473e+01
