
 $NMID
 id='ANONYMOUS ', fmtdat='(2E16.6)'
 volume=1.0
 tramp=1.0
 $END
  -4.379660e+03  -2.756100e+02
  -2.488618e+03  -2.506795e+03
   1.138294e+03  -2.526994e+03
   2.159426e+03  -7.831223e+02
   8.835727e+02   7.853884e+02
  -7.162655e+02   5.893277e+02
  -8.398366e+02  -4.391554e+02
   1.431643e+01  -1.081755e+03
   8.499941e+02  -7.959809e+02
   9.852414e+02   1.150106e+02
   3.995044e+02   9.747095e+02
  -3.045649e+02   8.624892e+02
  -6.633982e+02   2.156928e+01
  -3.518866e+02  -8.165611e+02
   3.384363e+02  -6.826530e+02
   6.587949e+02   3.471565e+01
   3.075566e+02   7.301517e+02
  -3.321282e+02   6.409407e+02
  -6.284434e+02   5.527419e+01
  -4.253431e+02  -3.989432e+02
   2.334276e+01  -4.451468e+02
   3.025136e+02  -2.612179e+02
   2.207954e+02  -2.455298e+00
  -1.604452e+02   1.209162e+02
  -4.278643e+02  -1.365526e+02
  -2.095337e+02  -4.431609e+02
   4.787810e+02  -4.068118e+02
   8.669305e+02   6.959343e+01
   3.939408e+02   5.523077e+02
  -4.290508e+02   5.269107e+02
  -7.729707e+02  -9.295786e+01
  -3.193714e+02  -4.736491e+02
   3.012398e+02  -5.747297e+02
   5.975289e+02  -1.835424e+02
   3.878201e+02   2.197270e+02
   4.763495e+01   5.447045e+02
  -2.269049e+02   2.688528e+02
  -1.752698e+02  -2.584188e+02
   1.821441e+02  -4.369513e+02
   4.391713e+02  -1.079787e+01
   2.809912e+02   6.811763e+02
  -3.220593e+02   6.619691e+02
  -6.383874e+02  -3.043167e+01
  -2.401332e+02  -6.356601e+02
   3.180363e+02  -3.692850e+02
   4.208900e+02   3.392522e+02
  -2.301254e+01   5.351904e+02
  -5.077839e+02   1.829423e+02
  -5.811141e+02  -3.851743e+02
  -1.998711e+02  -6.870448e+02
   4.131244e+02  -3.900400e+02
   6.682941e+02   1.370789e+02
   3.422352e+02   4.160148e+02
  -2.330477e+02   3.836819e+02
  -4.413957e+02  -9.945348e+00
  -2.333492e+02  -2.172811e+02
   1.721945e+02  -1.644664e+02
   1.554288e+02   1.864139e+02
  -1.413022e+02   1.983380e+02
  -4.177241e+02  -8.735294e+01
  -1.427889e+02  -2.574495e+02
   1.699287e+02  -2.856946e+02
   3.823565e+02  -1.223829e+02
   1.542791e+02   1.347870e+02
  -3.079137e+01   2.270770e+02
  -1.574865e+02   3.378011e+02
  -3.602423e+02   1.598997e+02
  -2.917302e+02  -1.987029e+02
  -5.918890e+01  -3.981484e+02
   1.194824e+02  -3.194407e+02
   1.324369e+02  -9.183091e+01
   1.405123e+01   2.688261e+01
  -2.193546e+00  -8.205960e+01
   2.036653e+02  -1.460865e+02
   2.607991e+02   5.086731e+01
   1.707376e+02   2.863507e+02
  -9.294908e+01   2.617256e+02
  -2.257058e+02  -8.413670e-01
  -1.713635e+02  -2.537093e+02
   3.570542e+01  -2.757343e+02
   3.049835e+02  -1.144424e+02
   3.577207e+02   1.549395e+02
   2.359339e+02   3.379487e+02
  -1.236768e+02   2.732383e+02
  -1.943353e+02   7.329270e+01
  -1.524687e+02  -1.013495e+01
  -6.717021e+01   2.758010e+01
  -2.106033e+02   7.334105e+01
  -3.566541e+02  -7.015187e+01
  -3.480502e+02  -3.264975e+02
   6.631922e+00  -4.350441e+02
   2.937682e+02  -3.784589e+02
   4.170416e+02  -1.715085e+02
   3.564077e+02   1.215961e+02
   4.320200e+01   2.837086e+02
  -1.320322e+02   2.367583e+02
  -1.132952e+02   2.531059e+01
   8.692635e+01  -1.323259e+02
   1.901590e+02  -1.374241e+01
   4.785617e+01   2.139732e+02
  -1.147290e+02   1.643321e+02
  -1.828506e+02  -5.491396e+01
   7.691917e+01  -1.918033e+02
   1.758005e+02  -4.567831e+01
   1.482597e+02   2.776372e+02
  -3.768051e+01   3.304326e+02
  -2.332878e+02   1.657477e+02
  -2.933994e+02  -7.841670e+01
  -2.624916e+02  -2.344460e+02
  -7.520080e+01  -2.425738e+02
   1.101797e+02  -1.866257e+02
   1.628774e+02  -8.920291e+00
   6.451131e+01   2.012635e+01
  -8.673941e+01  -2.861007e+00
   5.216858e-01  -9.563463e+01
   9.567830e+01  -5.795818e+01
   1.653761e+02   1.077620e+01
   3.087664e+01   7.747981e+01
  -7.033129e+01   1.017277e+01
  -1.111607e+02  -1.042807e+02
   8.294942e+01  -8.323697e+01
   2.547188e+02  -2.128002e+01
   3.020314e+02   1.194497e+02
   1.678897e+01   2.422278e+02
  -1.823857e+02   2.843403e+02
  -3.027871e+02   1.165206e+02
  -1.673781e+02  -8.032106e+01
   2.463692e+01  -1.075564e+02
   1.140370e+02  -5.383709e+01
  -3.461127e+01   6.896574e+01
  -2.191752e+02   8.074874e+01
  -1.940105e+02  -6.389956e+01
  -6.982882e+01  -1.803551e+02
   1.180693e+02  -1.860023e+02
   1.150381e+02  -3.548173e+01
   1.091553e+01   4.123411e+01
  -1.894863e+01  -1.801948e+01
  -6.644680e+01  -7.027221e+01
   9.095860e+01  -8.487230e+01
   2.063685e+02  -3.565756e+01
   1.710726e+02   1.205740e+02
   5.156016e+00   2.029016e+02
  -1.447316e+02   1.871583e+02
  -1.903203e+02  -5.922406e+01
  -5.090102e+01  -1.312019e+02
   5.055373e+01  -1.286466e+02
   1.090655e+02  -2.730786e+01
   2.330119e+01   3.521174e+01
  -2.721783e+01   2.289990e+01
   3.410973e-01  -3.112836e+01
   7.251089e+01   1.356174e+01
   1.156530e+02   4.205110e+01
  -7.821984e+00   1.303895e+02
  -1.628901e+02   1.207915e+02
  -2.582310e+02   4.427361e+01
  -1.592851e+02  -1.743608e+02
  -6.060563e+01  -2.590496e+02
   1.318830e+02  -1.984078e+02
   1.759686e+02  -3.015853e+01
   5.510008e+01   3.801938e+01
   5.367524e+01   3.750423e+01
   3.589087e+01  -2.848018e+01
   9.983567e+01  -2.374286e+01
   6.498083e+01   7.591786e+01
  -6.586396e+00   1.063483e+02
  -1.252886e+02   2.644533e+01
  -1.120349e+02  -3.357553e+01
   1.575820e+00  -1.152652e+02
   1.365853e+02  -9.040258e+01
   1.835402e+02   6.838058e+01
   7.310391e+01   1.771019e+02
  -4.845569e+01   2.047305e+02
  -2.135456e+02   7.351422e+01
  -2.203674e+02  -7.212685e+01
  -1.205657e+02  -1.202536e+02
   3.890513e+01  -1.095507e+02
   6.052176e+01  -1.105742e+02
   6.989645e+01  -9.360374e+01
   9.329568e+01  -7.070001e+01
   9.559100e+01  -7.433635e+01
   1.431971e+02   8.703321e+00
   1.156708e+02   1.519965e+02
   4.291574e+01   2.052307e+02
  -9.732719e+01   1.837042e+02
  -1.863950e+02   2.644415e+01
  -1.301179e+02  -1.297713e+02
  -4.815569e+01  -1.309109e+02
   5.773685e+01  -8.639295e+01
   8.730894e+01  -1.121501e+01
  -1.858595e+01   3.634981e+01
  -5.265333e+01  -5.877459e+00
   2.508617e+01   3.002952e+00
   9.105948e+01   7.069595e+00
   1.218450e+01   3.121648e+01
  -6.716262e+01   3.090657e+01
  -1.445244e+02  -4.091242e+01
  -1.187390e+02  -8.356593e+01
  -1.424272e+01  -7.846351e+01
   1.147642e+02  -9.869958e+01
   1.873344e+02  -2.794848e+01
   8.381771e+01   6.731812e+01
  -5.678642e+01   2.690104e+01
  -1.186238e+02   5.638917e+00
  -5.006171e+01  -9.989704e+01
   3.829522e+01  -6.354371e+01
   8.155115e+01   1.318459e+01
   2.186403e+01   6.994942e+01
   3.854132e+01   3.258791e+01
   6.904436e+01   4.282319e+01
   6.409095e+01  -4.086345e+01
   6.718986e+01   8.585781e+01
  -4.422521e+01   9.360069e+01
  -1.080670e+02   1.352840e+02
  -1.880953e+02   1.001040e+01
  -1.063703e+02  -7.675206e+01
   9.431257e+00  -1.291987e+02
   6.380364e+01  -6.166664e+01
   8.163503e+01   3.998144e+01
  -2.394628e+01   9.036742e+00
  -8.271501e+01  -2.701198e+01
  -3.463871e+01  -1.255603e+02
   7.269439e+01  -1.186803e+02
   1.659171e+02  -6.213818e+01
   1.963390e+02   7.102531e+01
   8.416116e+01   1.216594e+02
  -6.503577e+01   9.063496e+01
  -4.232944e+01   4.482844e+01
   4.007012e+01  -3.712539e+01
   8.906954e+01   1.196281e+01
   3.356053e+01   1.026344e+02
  -7.083996e+01   1.347499e+02
  -1.935605e+02   5.799207e+01
  -1.201892e+02  -7.421936e+01
  -2.424621e+01  -2.777810e+02
   1.116362e+02  -1.219765e+02
   1.422230e+02   1.883884e+01
   5.983396e+01   1.158831e+02
  -3.198955e+01   1.124207e+02
  -4.472340e+01  -2.770713e+01
  -1.643515e+01  -1.327563e+01
   1.876729e+01  -1.623968e+01
  -1.396161e+01   5.144913e+01
  -3.113485e+01  -2.304632e+00
  -4.793851e+01  -8.130691e+01
  -2.134520e+01  -1.010471e+02
   6.541909e+01  -3.672614e+01
   1.709149e+02   4.387070e+01
   1.035860e+02   6.878172e+01
   1.016811e+01   3.952233e+01
  -8.915211e+01  -5.293746e+00
  -9.292239e+01  -7.408801e-01
  -2.836007e+01   2.160461e+01
   4.783166e+01  -2.811431e+01
   1.816276e+01  -6.724534e+00
  -4.105596e+01   1.363902e+01
  -2.398089e+01   3.041896e+01
   6.174172e+01   1.857675e+01
   6.460031e+01   3.957756e+01
   2.282274e+01   1.084884e+02
  -1.476616e+02   1.176809e+02
  -1.760958e+02   5.794377e+01
  -1.685876e+02  -6.334801e+01
  -5.048876e+01  -1.324891e+02
   6.805450e+01  -1.353194e+02
   1.176219e+02  -8.927718e+01
   5.834741e+01   3.783922e+01
   4.167510e+01   4.119203e+01
  -1.766273e+01  -1.004843e+01
   7.984675e+00  -2.538137e+01
   3.107218e+01   4.217040e+01
  -2.388691e+00   5.707667e+01
  -1.789019e+01   6.154525e+01
  -9.004991e+01  -9.972202e+00
  -6.456855e+01  -9.928245e+01
  -6.077899e+00  -1.322018e+02
   1.355543e+02  -6.585758e+01
   1.297662e+02   9.950394e+01
   3.317423e+01   6.083533e+01
  -4.143653e+01   3.952455e+01
  -8.042509e+01  -1.134760e+01
  -5.757438e+00  -2.995664e+01
   1.967929e+01  -5.677385e+01
   3.269277e+00   1.703721e+01
  -7.476221e+01  -1.490313e+00
  -7.260616e+01   4.894960e+00
  -5.242987e+01  -2.845733e+01
   2.855906e+01  -6.324749e+01
   1.091171e+02  -7.135934e+01
   7.389994e+01   3.183984e+01
  -2.789492e+01   4.185783e+01
  -5.335311e+01   7.374919e+01
  -4.343718e+01  -1.639878e+01
   1.414955e+01  -6.727045e+01
   1.370898e+01  -5.448809e+01
   2.416732e+01  -1.411470e+01
   2.171579e+01   2.926181e+01
   1.568597e+00   2.134080e+01
  -3.387109e+01  -2.230298e+01
   1.331234e+00  -5.291128e+01
   4.019337e+00   3.469778e+01
  -1.879240e+01   1.572811e+01
   1.080226e+01  -1.576045e+00
   3.392841e+00  -6.056734e+01
   3.764030e+01  -3.119341e+01
   1.925703e+01   1.276246e+01
   3.205111e+01   2.848997e+01
  -4.424069e+01   4.209978e+01
  -4.607440e+01   2.039430e+00
  -5.697405e+01  -7.204981e+01
  -1.047892e+01  -6.119451e+01
   5.899428e+01  -5.047425e+01
   1.034853e+02   3.190715e+01
   5.552538e+01   3.353836e+01
  -4.965875e+01   5.106116e+01
  -1.036435e+02  -1.159665e+01
  -4.572453e+01   8.791252e+00
   2.528141e+01   8.913259e+00
   8.894412e+00   3.469571e+01
  -4.654821e+01   6.102465e+01
  -4.636109e+01   4.392719e+00
