
 $NMID
 id='ANONYMOUS ', fmtdat='(2E16.6)'
 volume=1.0
 tramp=1.0
 $END
   4.361153e+03   1.791383e+02
   2.455552e+03   2.797112e+03
  -1.000670e+03   3.032711e+03
  -2.315367e+03   1.010803e+03
  -1.021322e+03  -8.072639e+02
   7.488825e+02  -6.319597e+02
   1.019574e+03   5.163918e+02
   9.158121e+00   1.125224e+03
  -9.882603e+02   8.095647e+02
  -1.056226e+03  -1.396859e+02
  -4.755685e+02  -9.815474e+02
   2.811530e+02  -9.530533e+02
   7.036291e+02  -6.462961e+01
   3.989906e+02   8.436589e+02
  -3.243508e+02   7.998042e+02
  -6.148147e+02  -1.819177e+01
  -2.608885e+02  -7.336514e+02
   4.750593e+02  -6.718568e+02
   5.734764e+02  -3.804845e+01
   3.856370e+02   3.514780e+02
   5.521939e-01   5.087632e+02
  -2.976002e+02   2.292104e+02
  -2.246868e+02   2.954446e+01
   1.164875e+02  -1.361288e+02
   3.879316e+02   8.768076e+01
   2.486464e+02   4.842817e+02
  -5.039902e+02   4.722248e+02
  -8.752449e+02  -2.599033e+01
  -4.043190e+02  -5.811411e+02
   4.053477e+02  -5.031824e+02
   7.595066e+02   6.908682e+01
   3.342360e+02   5.106585e+02
  -3.110740e+02   4.945653e+02
  -5.983186e+02   1.506484e+02
  -4.235158e+02  -2.700855e+02
  -7.310158e+01  -5.216635e+02
   2.218089e+02  -2.698158e+02
   1.954429e+02   2.547117e+02
  -1.989609e+02   4.305203e+02
  -5.056521e+02  -1.972339e+01
  -3.063054e+02  -6.878621e+02
   3.765357e+02  -6.877140e+02
   5.986641e+02   4.043770e+01
   2.663782e+02   5.699992e+02
  -3.402827e+02   3.765394e+02
  -4.087192e+02  -3.472134e+02
   9.643862e+01  -5.971601e+02
   6.520361e+02  -1.462126e+02
   5.877892e+02   4.443970e+02
   1.412002e+02   5.737878e+02
  -3.917288e+02   3.774745e+02
  -6.304288e+02  -1.086875e+02
  -3.520731e+02  -3.436049e+02
   1.406017e+02  -3.916178e+02
   4.822765e+02  -2.435794e+01
   2.209414e+02   2.076373e+02
  -1.705653e+02   9.677059e+01
  -1.602257e+02  -1.914484e+02
   2.232060e+02  -1.975259e+02
   3.633924e+02   1.938867e+02
   1.413783e+02   2.867242e+02
  -2.356251e+02   2.292981e+02
  -3.517191e+02   9.792763e+01
  -1.970638e+02  -4.389057e+01
  -3.585829e+01  -1.953386e+02
   2.185159e+02  -3.627145e+02
   3.534534e+02  -2.098495e+02
   3.177245e+02   1.747618e+02
   8.978536e+00   5.034971e+02
  -1.558604e+02   4.112215e+02
  -1.267079e+02   2.097116e+01
   7.990734e+00  -3.164663e+01
  -5.347255e+00   7.239489e+01
  -1.977290e+02   1.004922e+02
  -2.869034e+02  -1.210403e+01
  -2.189209e+02  -2.790319e+02
   4.899635e+01  -2.762933e+02
   2.581941e+02   1.819279e+00
   2.363689e+02   2.665925e+02
  -8.475260e+00   2.777965e+02
  -2.834315e+02   1.163545e+02
  -3.886098e+02  -1.672738e+02
  -1.622329e+02  -3.674702e+02
   6.922134e+01  -3.204893e+02
   2.294728e+02  -9.384705e+01
   1.892879e+02   4.592532e+01
   9.032627e+01  -2.209761e+01
   2.387254e+02  -9.207024e+01
   3.779899e+02   2.757997e+01
   3.635979e+02   3.185722e+02
   1.421193e+01   4.765863e+02
  -3.527187e+02   4.412523e+02
  -4.912582e+02   1.651638e+02
  -3.846767e+02  -9.532190e+01
  -6.197901e+01  -2.895545e+02
   1.768435e+02  -2.290176e+02
   9.600912e+01  -8.098134e-01
  -1.132809e+02   1.060217e+02
  -1.931665e+02   2.715440e+01
  -6.380431e+01  -2.040720e+02
   1.862956e+02  -2.520549e+02
   2.194710e+02   5.597012e+01
   6.320683e+00   2.193044e+02
  -1.981283e+02   4.084714e+01
  -1.657679e+02  -2.493031e+02
   6.583645e+01  -3.142175e+02
   2.207853e+02  -1.551804e+02
   3.464414e+02   6.179613e+01
   2.649847e+02   2.353021e+02
   5.558872e+01   2.529606e+02
  -1.034157e+02   1.769330e+02
  -1.883345e+02   3.304496e+01
  -4.663492e+01  -7.597396e+01
   1.023239e+02   5.654436e+01
   3.610207e+01   1.337207e+02
  -1.562632e+02   9.169383e+01
  -1.783004e+02   4.386669e+00
  -8.691754e+00  -1.114214e+02
   7.835860e+01  -2.130435e+01
   3.763054e+01   1.173347e+02
  -9.826990e+01   8.438639e+01
  -2.560823e+02   9.845630e+00
  -2.580910e+02  -1.500671e+02
  -7.536011e+01  -2.273296e+02
   1.437704e+02  -2.776018e+02
   2.282182e+02  -1.273713e+02
   1.171795e+02   9.375876e+01
  -3.274969e+01   9.997836e+01
  -8.380166e+01   1.166067e+01
   2.924525e+01  -1.064687e+02
   1.738271e+02  -5.351536e+01
   2.369571e+02   1.234780e+02
   5.027647e+01   2.472662e+02
  -7.447625e+01   1.687943e+02
  -1.284848e+02   1.631059e+01
  -3.515401e+01  -3.121460e+00
   3.230489e+01  -4.393424e+01
   3.976247e+01   5.902825e+01
  -4.911230e+01   1.188017e+02
  -2.118827e+02   2.774671e+01
  -1.905270e+02  -1.220432e+02
   2.111733e+01  -1.950531e+02
   1.669064e+02  -1.677543e+02
   1.746878e+02   3.690580e+00
   6.391529e+01   1.070046e+02
  -9.392997e+01   1.330244e+02
  -8.014326e+01   5.929458e+01
  -3.216494e+01  -1.999727e+01
   3.064087e+01  -1.571581e+01
  -3.576853e+01   5.732604e+01
  -1.330581e+02   1.892750e+01
  -6.222986e+01  -8.574956e+01
  -1.034554e+01  -1.407251e+02
   1.139408e+02  -1.470747e+02
   2.499914e+02   3.787249e+01
   2.090629e+02   1.084239e+02
   6.013014e+01   2.851294e+02
  -1.231580e+02   1.778195e+02
  -1.431707e+02   4.960650e+01
  -8.002489e+01  -5.968441e+01
  -1.790971e+01  -5.396530e+01
  -7.815013e+01  -3.740538e+01
  -7.725687e+01  -2.995892e+01
  -2.462203e+01  -7.836497e+01
   4.747104e+01  -7.701040e+01
   9.539691e+01  -9.276326e+01
   7.069689e+01   1.706216e+01
   8.194933e-02   9.974443e+01
  -1.177455e+02   8.380755e+01
  -1.648314e+02  -4.723838e+01
  -1.140731e+02  -1.598332e+02
   1.186467e+02  -2.670104e+02
   2.261577e+02  -6.654459e+01
   3.049240e+02   3.706200e+01
   1.097962e+02   1.577805e+02
  -3.180008e+01   1.606573e+02
  -9.371989e+01   3.453573e+01
  -8.606297e+01   4.778426e+01
  -1.127254e+02   9.335126e+01
  -1.308538e+02   8.143712e+01
  -1.165775e+02  -6.455724e+01
  -1.136579e+02  -1.528878e+02
  -3.909284e+01  -2.305545e+02
   8.061889e+01  -2.029661e+02
   1.741184e+02  -2.225019e+01
   1.871294e+02   1.031180e+02
   3.828792e+00   1.590537e+02
  -6.190570e+01   1.074026e+02
  -2.511290e+01  -3.531779e-01
   2.868139e+01  -4.733339e+01
   1.488911e+01  -5.245503e+01
  -5.165790e+01  -5.846232e+01
  -7.823122e+01  -6.621789e+01
  -2.129133e+01   2.181480e+00
   8.706529e+01  -3.076191e+01
   1.902110e+02   5.398201e+00
   1.798471e+02   9.608369e+01
   5.358817e+01   9.259069e+01
  -8.421256e+01   3.959616e+01
  -1.673046e+02   1.082362e+01
  -3.062193e+01  -5.449894e+01
   6.639335e+01  -2.733641e+01
   8.278804e+01   4.829976e+00
   9.990045e+00   1.307376e+01
  -8.385062e+01   3.854322e+01
  -4.542194e+01  -2.324349e+01
  -2.717543e+01  -3.470536e+01
  -2.328205e+01  -4.410566e+01
  -5.899879e+01  -1.748845e+01
  -5.601113e+01  -4.645701e+00
  -1.474747e+01  -7.451941e+01
   3.134467e+01  -1.439956e+02
   8.434491e+01  -1.183851e+02
   2.040823e+02  -4.548409e+01
   9.005233e+01   9.305297e+01
   7.954911e+00   1.278000e+02
  -9.728653e+01   6.274626e+01
  -7.577897e+01  -2.544664e+01
   9.459923e+01  -2.770430e+01
   1.380883e+02   5.147110e+01
   6.217706e+01   9.857317e+01
  -6.231478e+01   9.884398e+01
  -2.070262e+02   1.293865e+01
  -1.650818e+02  -3.942757e+01
  -5.393430e+01  -1.338116e+02
   7.227810e+01  -6.798446e+01
   5.666526e+01  -3.580288e+00
  -4.366120e+01   4.422838e+01
  -4.579728e+01  -5.333261e+01
  -4.861711e+00  -9.937226e+01
   1.247189e+02  -1.293705e+02
   1.750336e+02  -8.244569e+01
   1.297238e+02   9.385575e+01
   9.530077e+00   1.658431e+02
  -3.289172e+01   1.533270e+02
  -9.244168e+01  -9.590256e+00
  -8.109186e+01  -1.459831e+02
   2.664399e+01  -1.665126e+02
   6.962023e+01  -1.074921e+01
   4.077859e+01   8.649906e+00
   4.709114e+01  -1.054823e+01
   2.125909e+01  -3.049280e+01
   7.096940e+01   7.527608e+00
   5.469701e+01   1.132389e+02
   8.876319e+01   1.522413e+02
  -5.008628e+01   3.717406e+01
  -1.550493e+02  -2.111104e+01
  -9.287441e+01  -4.686637e+01
   1.965288e+01  -3.530554e+01
   6.352284e+01  -5.377871e+01
   6.194170e+01  -1.434429e+01
   5.626993e+01   4.104252e+01
  -3.468603e+01   4.668659e+01
  -2.572962e+01   4.023474e+01
   4.847982e+01   3.451260e+01
  -1.282215e+00   1.519268e+01
  -9.180269e+01   1.202953e+00
  -1.111645e+02  -7.910628e+01
  -1.992248e+01  -1.226896e+02
   1.152009e+02  -1.136699e+02
   1.853655e+02  -3.344637e+01
   1.856142e+02   1.020715e+02
   1.660445e+01   1.675778e+02
  -9.499459e+01   1.330818e+02
  -1.071401e+02   3.694401e+01
  -1.012217e+02   5.480336e+01
  -4.829825e+01  -4.072660e+01
  -7.754052e+00   3.742845e+01
  -5.420166e+01   4.708371e+01
  -9.421402e+00  -5.037910e+01
  -2.345227e+01  -6.253357e+01
   3.335007e+01  -5.895131e+01
   6.629874e+01   3.789646e+01
   5.458999e+01   7.593870e+01
   6.131072e+00   1.004867e+02
  -8.163787e+01   2.721166e+01
  -6.371513e+01  -8.671735e+01
  -9.303916e+00  -1.033575e+02
   4.676543e+01  -3.434108e+01
   5.699662e+01   4.163459e+01
   4.238479e+01   6.294173e+01
  -7.135176e+01   5.648473e+01
  -4.199394e+01   3.777290e+01
   6.920798e+01  -1.590226e+01
   7.966453e+01  -1.412588e+01
   2.328535e+01   3.472255e+01
  -8.245134e+01   8.277959e+01
  -1.066906e+02   2.335083e+01
  -2.486898e+01  -2.007410e+01
   2.077291e+01  -3.006775e+01
   6.526779e+01  -4.797417e+01
   1.784600e+01  -2.707992e+01
  -1.495058e+00   8.828425e+01
  -4.333780e+01   2.294624e+01
   1.143142e+00   1.634584e+01
   1.538257e+01  -4.590103e+01
   1.168743e+01  -3.816287e+01
   2.160849e+01   3.883242e+01
   3.444713e+01   2.261202e+01
   8.950802e+01  -2.591829e+01
   2.439731e+01  -1.377309e+01
   1.694623e+00   3.296593e+01
  -6.516089e+01   4.915236e+01
  -3.183711e+01   4.839523e+01
  -2.466292e+01   5.455007e+00
  -3.904625e+01  -7.235378e+01
   9.313916e+00  -5.753281e+01
   5.642004e+01  -1.487630e+01
   2.126457e+01   6.626979e+01
   3.656282e+01   1.703119e-01
  -1.729236e+01   2.185033e+01
  -9.387667e+01  -2.801060e+01
  -6.516742e+01  -5.498344e+01
   4.210929e+01  -2.423974e+01
   6.587475e+01  -1.068649e+00
   1.922818e+01  -2.580409e+00
  -2.655969e+01  -3.135255e+01
  -6.017650e+01  -2.968186e+00
   3.669484e+01  -2.717245e+01
   1.222202e+02  -2.065664e+01
