
 $NMID
 id='ANONYMOUS ', fmtdat='(2E16.6)'
 volume=1.0
 tramp=1.0
 $END
   4.591015e+03   9.983556e+00
   2.501729e+03   2.533336e+03
  -5.114648e+02   2.789598e+03
  -2.117543e+03   9.243427e+02
  -9.731840e+02  -7.218761e+02
   7.162254e+02  -5.766869e+02
   8.963189e+02   5.114824e+02
  -2.400800e+01   1.099357e+03
  -8.455021e+02   8.753616e+02
  -9.437275e+02  -9.649043e+01
  -4.342274e+02  -9.065604e+02
   2.759107e+02  -9.002288e+02
   7.105582e+02  -1.338723e+02
   3.856145e+02   7.344538e+02
  -2.434993e+02   7.835087e+02
  -6.899317e+02  -2.908194e+01
  -2.800291e+02  -7.108685e+02
   3.686025e+02  -6.787311e+02
   5.763518e+02  -5.406716e+01
   4.085205e+02   3.199448e+02
  -1.106893e+01   4.975660e+02
  -2.674475e+02   2.701218e+02
  -2.481482e+02   1.559031e+01
   1.405869e+02  -1.154101e+02
   4.444211e+02   1.105406e+02
   1.703558e+02   4.846621e+02
  -4.460437e+02   4.523567e+02
  -8.583967e+02  -7.271834e+01
  -4.952227e+02  -5.714226e+02
   4.267121e+02  -5.483348e+02
   7.660625e+02  -4.199395e+01
   4.074358e+02   5.103955e+02
  -3.183784e+02   5.673085e+02
  -5.921166e+02   2.403796e+02
  -4.012250e+02  -2.283238e+02
  -6.919035e+01  -4.793429e+02
   1.848431e+02  -2.994695e+02
   1.578211e+02   2.538644e+02
  -9.103408e+01   4.962305e+02
  -5.022732e+02  -4.144194e+01
  -2.369301e+02  -6.837635e+02
   3.616381e+02  -7.468063e+02
   6.765973e+02  -1.309784e+01
   2.738100e+02   6.036615e+02
  -3.335519e+02   3.659560e+02
  -3.999657e+02  -3.517154e+02
   6.817724e-01  -5.592759e+02
   6.114857e+02  -1.714189e+02
   5.980260e+02   3.906778e+02
   2.226215e+02   6.028833e+02
  -3.876186e+02   4.428491e+02
  -6.412577e+02  -4.513582e+01
  -3.921786e+02  -4.014707e+02
   1.418399e+02  -3.700558e+02
   4.912453e+02  -6.742202e+01
   2.175303e+02   2.038359e+02
  -1.717124e+02   1.311285e+02
  -1.509842e+02  -1.877365e+02
   1.511353e+02  -1.886033e+02
   3.666121e+02   6.133141e+01
   1.579533e+02   3.032559e+02
  -1.429120e+02   2.375308e+02
  -3.344811e+02   1.215610e+02
  -2.414080e+02  -8.580393e+01
  -2.385144e+00  -2.328094e+02
   2.116295e+02  -3.925607e+02
   3.035370e+02  -2.454633e+02
   3.195565e+02   1.541652e+02
   9.623745e+01   4.172380e+02
  -1.836049e+02   4.224573e+02
  -7.405670e+01   1.384607e+02
  -4.074828e-01   1.369433e+00
  -2.426085e+01   1.500874e+02
  -1.802199e+02   1.460165e+02
  -3.072932e+02  -2.529444e+00
  -1.955235e+02  -2.903763e+02
   3.228836e+01  -2.624861e+02
   2.380902e+02   1.480359e+01
   2.607936e+02   2.587885e+02
  -3.894984e+01   3.277095e+02
  -2.847603e+02   1.696237e+02
  -4.273621e+02  -1.231237e+02
  -2.078263e+02  -3.544044e+02
   9.838345e+01  -2.989359e+02
   2.501269e+02  -1.043701e+02
   1.179365e+02  -8.182273e+00
   9.548142e+01  -3.603550e+01
   2.367250e+02  -7.891431e+01
   4.616004e+02  -2.071958e+01
   3.531729e+02   2.517543e+02
   1.492843e+00   4.004086e+02
  -3.076381e+02   4.116847e+02
  -4.718330e+02   2.172904e+02
  -3.272579e+02  -1.370242e+02
  -4.514657e+01  -2.840107e+02
   1.123696e+02  -2.741116e+02
   3.441161e+01  -5.161799e+00
  -1.458318e+02   1.607800e+02
  -2.078268e+02  -5.065060e+01
  -8.509575e+01  -2.318754e+02
   1.695976e+02  -1.940590e+02
   2.096486e+02   3.911661e+01
  -3.253174e+01   1.983196e+02
  -1.904085e+02   4.131287e+01
  -2.208253e+02  -2.621079e+02
   4.003344e+01  -3.653925e+02
   2.136542e+02  -2.266403e+02
   3.390158e+02   5.443671e+01
   2.450765e+02   2.230662e+02
   1.032595e+02   2.259789e+02
  -9.467608e+01   1.110870e+02
  -1.816962e+02   5.344845e+01
  -5.784451e+01  -3.157708e+01
   5.046259e+01   6.833163e+01
   6.020453e+00   1.375012e+02
  -1.128982e+02   1.139712e+02
  -1.506062e+02   3.781212e+01
  -6.201428e+01  -8.742434e+01
   6.230794e+01  -2.778108e+01
   6.726414e+01   8.341527e+01
  -1.231977e+02   1.061660e+02
  -3.311019e+02   3.580574e+01
  -2.442670e+02  -1.201093e+02
  -2.721479e+01  -3.162572e+02
   2.074873e+02  -2.723686e+02
   2.951652e+02  -1.252645e+02
   1.822895e+02   6.736318e+01
  -4.073410e+01   1.342219e+02
  -1.083886e+02   3.820505e+01
   3.066701e+01  -1.010337e+02
   2.090928e+02  -1.308578e+02
   2.496028e+02   5.973239e+01
   6.522340e+01   2.335117e+02
  -9.365224e+01   1.756149e+02
  -1.427592e+02   6.068460e+01
  -7.952067e+01  -4.162972e+01
   2.249571e+01   1.415380e+01
   9.534165e+01   7.759428e+01
  -1.915214e+01   1.374773e+02
  -2.227226e+02   4.029814e+01
  -1.645116e+02  -1.271799e+02
  -5.203870e+01  -2.234022e+02
   1.618684e+02  -1.798438e+02
   2.107588e+02   2.877740e+01
   5.822346e+01   1.156398e+02
  -4.739446e+01   1.752213e+02
  -9.140250e+01   4.295114e+01
  -4.530227e+01  -3.101669e+01
   5.952026e+01   6.840615e+00
   5.085367e+00   9.698469e+00
  -7.142212e+01   2.262353e+01
  -9.547790e+01  -7.715410e+01
  -8.642943e+00  -1.325269e+02
   1.071139e+02  -1.331299e+02
   2.727775e+02  -5.543508e+01
   2.310263e+02   1.354386e+02
   4.959907e+01   2.407426e+02
  -1.141130e+02   1.954003e+02
  -1.367304e+02   1.799542e+01
  -8.043444e+01  -6.125167e+01
  -7.580550e+00  -2.439670e+00
  -5.712264e+01   5.128566e+01
  -1.298243e+02   2.045144e+01
  -2.609916e+01  -6.021392e+01
   5.047550e+01  -8.625004e+01
   7.587728e+01  -8.008939e+01
   7.908669e+01   4.022403e+01
   2.167253e+01   1.076702e+02
  -1.169486e+02   7.704855e+01
  -2.236201e+02  -1.747794e+01
  -1.214917e+02  -1.861117e+02
   7.519565e+01  -1.686949e+02
   2.547642e+02  -8.867387e+01
   2.329529e+02   1.950581e+00
   1.013248e+02   2.035657e+02
  -1.764795e+01   1.144854e+02
  -9.005591e+01   6.987024e+01
  -8.583716e+01   8.901540e+01
  -6.260942e+01   4.315408e+01
  -9.816786e+01   8.573372e+01
  -8.329940e+01  -1.536010e+01
  -1.076807e+02  -1.587927e+02
  -1.546418e+01  -2.654166e+02
   7.316881e+01  -2.097614e+02
   2.010017e+02  -6.236774e+01
   1.167187e+02   1.157570e+02
   5.790132e+01   1.405293e+02
  -6.977670e+01   9.296470e+01
  -6.303391e+01   1.100069e+01
  -2.219233e+01  -1.704130e+01
   1.268036e+01  -2.122883e+01
  -7.555529e+01  -2.024652e+01
  -6.793917e+01  -4.241980e+01
  -4.994095e+01  -4.605729e+01
   6.808856e+01  -5.944807e+01
   1.583543e+02   7.861309e+00
   1.939544e+02   2.477195e+01
   4.156606e+01   1.236264e+02
  -6.993234e+01   6.881055e+01
  -1.244644e+02   4.467417e+01
  -6.610430e+01  -3.129761e+01
   1.179060e+02  -3.503233e+01
   8.732536e+01   2.167398e+01
   5.627167e+00   6.020298e+01
  -6.096712e+01   5.990098e+01
  -4.922251e+01   4.907503e+00
  -7.389027e+01  -8.952876e+01
  -4.980432e+01  -5.253205e+01
  -5.390851e+01   6.984145e+00
  -6.414749e+01   2.564766e+01
  -7.948079e+01  -4.904881e+01
   4.762772e+01  -1.557929e+02
   8.781490e+01  -1.361413e+02
   1.632587e+02  -4.418825e+01
   1.233654e+02   8.878516e+01
  -1.272490e+01   1.171428e+02
  -8.779722e+01   8.056834e+01
  -9.412836e+01   1.364634e+01
   1.282518e+01  -2.902820e+01
   1.160241e+02   6.074959e+01
   8.785090e+01   1.263734e+02
  -1.274028e+02   1.487785e+02
  -1.943720e+02   7.369844e+01
  -1.619334e+02  -3.951583e+01
  -5.574911e+01  -6.638994e+01
   5.383073e+01  -9.627201e+01
   7.379805e+01  -1.179045e+01
  -4.906972e+00   5.801813e+01
  -8.389062e+01  -3.729818e+00
  -5.225658e+01  -9.801637e+01
   4.427609e+01  -1.064427e+02
   1.262402e+02  -9.821632e+01
   1.301975e+02   9.992976e+01
   3.520321e+00   1.863746e+02
  -7.482565e+01   1.275811e+02
  -9.210923e+01  -1.974337e+01
  -5.953395e+01  -1.420779e+02
  -3.890870e+01  -1.028004e+02
   3.184528e+01  -2.510490e+01
   4.627635e+01   1.809975e+01
   4.444296e+01  -5.402543e+00
   2.103960e+01  -7.169185e+00
   3.633887e+01   5.310517e+01
   3.916401e+01   1.085667e+02
  -1.112739e+01   1.003048e+02
  -5.816605e+01   2.383613e+01
  -1.698952e+02  -9.212624e+00
  -9.623970e+01  -1.068633e+02
   3.614524e+01  -7.482159e+01
   1.009892e+02   6.620726e+00
   1.265395e+02   1.954449e+01
  -1.971775e+01   6.435906e+00
  -4.197538e+01   4.671814e+01
   4.087749e+00   1.363375e+01
  -4.081747e+00   2.790498e+01
  -7.110168e+00  -2.589144e+01
  -7.800502e+01  -1.541761e+01
  -9.521546e+01  -1.843943e+01
  -1.983010e+01  -1.115924e+02
   9.728101e+01  -1.218374e+02
   2.186853e+02  -7.735669e+01
   1.560018e+02   5.880385e+01
   6.197819e+01   1.499160e+02
  -1.429390e+02   2.072972e+02
  -1.155444e+02   3.176059e+01
  -4.221801e+01  -1.383436e+01
  -3.073512e+00  -5.939556e+01
   8.370721e+00   2.345566e+01
  -2.942675e+01   1.031587e+01
  -1.184922e+01  -3.706503e+01
  -3.302582e+01  -1.082944e+02
   3.850709e+01  -5.417601e+01
   9.453629e+01   6.501891e-01
   8.039024e+01   8.538484e+01
  -2.095296e+01   8.955705e+01
  -7.961562e+01   3.834458e+01
  -3.999470e+01  -1.052358e+02
  -4.980678e+01  -8.617771e+01
   6.518553e+01  -4.793267e+01
   8.570168e+01   1.436569e+01
   5.160396e+01   3.971184e+01
  -3.341126e+01   4.329247e+01
  -4.980133e+01   2.370367e+01
   5.167378e+01   3.104676e+01
   7.598965e+01   5.724806e+00
   2.999409e+01   1.527910e+01
  -4.596890e+01   4.002968e+01
  -1.231564e+02   8.965447e+01
  -5.588674e+01  -9.274975e+00
   3.311602e+01  -7.794680e+01
   6.043466e+01  -8.950617e+01
   6.768659e+01  -2.258854e+01
  -1.011848e+01   3.607446e+01
  -2.150919e+01   8.114013e+00
   8.217975e-01  -4.665062e+01
   8.423471e+00  -6.876239e+01
  -1.390555e+01  -2.363772e+01
   3.346208e+01  -1.082599e+01
   5.584907e+01   2.799647e+01
   3.321175e+00   1.759860e+01
   9.324503e+00  -2.941634e+01
   2.742528e+01  -2.092119e+01
  -7.437658e+01   5.796010e+01
  -3.577582e+01   5.023597e+01
  -4.363826e+01   4.724678e+01
  -1.451073e+01  -3.878309e+01
   1.126485e+01  -4.573574e+01
   3.795317e+01  -1.643722e+01
   6.546726e+01   2.559140e+01
   1.612884e+01   4.627205e+01
  -4.824436e+01   4.622005e+01
  -7.743529e+01  -1.615438e+01
  -4.388313e+01  -5.941390e+01
   5.067280e+01  -9.090290e+01
   1.039508e+02  -4.686154e+01
   1.271902e+01  -1.491176e+00
  -5.570064e+01   1.185078e+01
  -1.879514e+01  -4.714906e+01
   4.220236e+01  -7.697997e+01
   1.031134e+02   2.714190e+00
