
 $NMID
 id='ANONYMOUS ', fmtdat='(2E16.6)'
 volume=1.0
 tramp=1.0
 $END
   4.298416e+03  -3.693988e+01
   2.360119e+03   2.372569e+03
  -3.018748e+02   2.344642e+03
  -1.545480e+03   1.274558e+03
  -9.690264e+02  -2.042653e+02
   2.845755e+02  -4.061795e+02
   7.164056e+02   2.976489e+02
   6.109423e+01   8.865358e+02
  -6.252485e+02   6.768204e+02
  -8.673037e+02  -1.548617e+01
  -4.692609e+02  -6.985212e+02
   1.508171e+02  -7.776468e+02
   5.225760e+02  -1.339132e+02
   3.388716e+02   5.739584e+02
  -1.925368e+02   6.405934e+02
  -4.925604e+02   6.472789e+01
  -3.295202e+02  -6.145790e+02
   1.773398e+02  -6.439290e+02
   5.903326e+02  -1.994039e+02
   3.769116e+02   2.965814e+02
   5.808864e+01   3.864785e+02
  -1.740150e+02   2.299055e+02
  -1.063951e+02   5.099634e+01
   1.747125e+02   2.810563e+01
   3.336464e+02   1.737132e+02
   1.173742e+02   3.803433e+02
  -3.955457e+02   2.717914e+02
  -7.346774e+02  -1.221797e+02
  -3.244566e+02  -4.748075e+02
   4.218502e+02  -3.792247e+02
   6.388617e+02   8.396873e+01
   2.625903e+02   4.543167e+02
  -2.351885e+02   4.411651e+02
  -4.776395e+02   2.261307e+02
  -3.644074e+02  -1.961666e+02
  -8.869804e+01  -4.194193e+02
   1.725008e+02  -2.330516e+02
   3.905185e+01   1.785563e+02
  -1.725499e+02   2.983799e+02
  -3.246263e+02  -1.203750e+02
  -9.116450e+01  -5.644867e+02
   3.096018e+02  -6.085023e+02
   4.824151e+02  -7.549440e+00
   2.028651e+02   4.192234e+02
  -2.112812e+02   2.576884e+02
  -2.909961e+02  -3.172723e+02
   8.307756e+01  -4.573767e+02
   5.126472e+02  -9.598867e+01
   5.847340e+02   3.554406e+02
   1.759828e+02   5.116585e+02
  -3.426052e+02   3.708204e+02
  -5.797779e+02  -5.771298e+01
  -4.030399e+02  -3.345432e+02
   7.913155e+01  -2.987319e+02
   3.563175e+02  -6.123095e+01
   2.119660e+02   9.664773e+01
  -7.786808e+01   3.762526e+01
  -8.982479e+01  -6.997002e+01
   1.352610e+02  -1.236428e+02
   2.741425e+02   6.632308e+01
   1.540373e+02   2.333766e+02
  -1.563334e+02   2.410753e+02
  -3.754498e+02   8.175654e+01
  -2.365455e+02  -1.126146e+02
  -2.341329e+01  -2.777958e+02
   2.754730e+02  -3.497958e+02
   3.214119e+02  -1.543705e+02
   2.429032e+02   1.539029e+02
   8.078254e+01   3.627560e+02
  -7.472540e+01   2.775810e+02
  -1.059309e+02   9.921235e+01
  -4.596721e+01   4.728602e+01
  -7.514919e+01   1.317938e+02
  -2.531216e+02   9.035303e+01
  -2.667532e+02  -4.244153e+01
  -1.218988e+02  -2.806725e+02
   6.726304e+01  -2.248644e+02
   1.847133e+02   3.872223e+00
   1.787826e+02   1.917417e+02
  -5.696326e+01   2.839949e+02
  -2.877213e+02   8.824790e+01
  -3.144879e+02  -1.511416e+02
  -1.781685e+02  -2.672931e+02
   6.170992e+01  -2.622692e+02
   1.766713e+02  -1.076364e+02
   1.354606e+02  -4.292389e+01
   1.334853e+02  -5.155173e+01
   2.077140e+02  -9.004795e+01
   3.675235e+02   6.351654e+01
   3.122214e+02   2.704529e+02
  -1.387327e+01   4.626852e+02
  -4.041485e+02   3.876044e+02
  -4.700233e+02   1.994300e+02
  -3.570732e+02  -1.073885e+02
   9.603400e+00  -2.418722e+02
   1.117868e+02  -2.382563e+02
   6.673359e+01  -5.171482e+01
  -9.364152e+01   9.903058e+01
  -1.672756e+02  -6.634102e+01
  -3.127755e+01  -2.244921e+02
   1.640434e+02  -1.580057e+02
   1.270277e+02   6.481870e+01
  -2.798223e+01   1.273499e+02
  -1.485438e+02   3.311540e-01
  -1.860572e+02  -2.036850e+02
   1.714742e+01  -3.576144e+02
   2.166537e+02  -1.945355e+02
   3.592636e+02   3.397913e+01
   2.943461e+02   2.431862e+02
   9.077460e+01   2.445431e+02
  -1.591433e+02   1.495600e+02
  -1.714526e+02  -1.106812e+01
  -4.506814e+01  -5.988555e+00
   2.813968e+00   3.544264e+01
   2.612413e+01   1.153318e+02
  -1.098650e+02   9.476919e+01
  -1.848017e+02  -2.581784e+01
  -4.223406e+01  -1.093134e+02
   8.255883e+01   3.239202e+00
   1.083398e+02   1.075897e+02
  -1.175331e+02   7.651317e+01
  -2.791330e+02   1.403638e+01
  -3.022152e+02  -1.195659e+02
  -8.264594e+01  -2.377111e+02
   1.439684e+02  -2.346014e+02
   2.887255e+02  -1.085188e+02
   1.648616e+02   3.646792e+01
  -3.555021e+01   6.586857e+01
  -7.102517e+01  -1.341056e+01
   7.367157e+00  -9.736384e+01
   1.725650e+02  -2.297044e+01
   2.053085e+02   9.218882e+01
   8.983466e+01   1.983038e+02
  -1.197550e+02   1.185770e+02
  -9.014765e+01   7.163565e+01
  -7.034599e+01  -2.966903e+01
   5.355490e+01  -2.541747e+00
   5.910642e+01   5.173375e+01
  -6.566870e+01   1.021714e+02
  -1.867106e+02   2.557811e+01
  -1.620189e+02  -1.412394e+02
   2.598164e+01  -2.098013e+02
   2.077707e+02  -1.620019e+02
   1.840566e+02  -4.397937e+01
   5.110756e+01   8.144954e+01
  -7.005606e+01   9.373356e+01
  -8.319588e+01   1.483514e+01
  -1.446095e+00   7.256171e+00
   8.701680e-01  -2.134247e+00
  -1.469724e+01   2.362261e+01
  -7.068338e+01   1.935090e+01
  -1.203077e+02  -7.138871e+01
  -3.199560e+01  -1.759223e+02
   1.033929e+02  -1.623983e+02
   2.303225e+02  -7.087873e+00
   1.565202e+02   1.670345e+02
   2.779296e+01   2.566049e+02
  -1.303608e+02   1.613097e+02
  -1.283673e+02   6.792950e+00
  -5.049755e+01  -8.404696e+01
  -3.481178e+01  -5.099019e+01
   1.436046e+01   2.155004e+01
  -9.790307e+01   6.285850e-01
  -7.680179e+01  -5.063275e+01
   1.711649e+01  -8.691624e+01
   8.549609e+01  -9.607530e+01
   1.053647e+02   5.661171e+00
  -1.751319e+01   9.566267e+01
  -1.802006e+02   7.494514e+01
  -1.919767e+02  -8.180177e+01
  -1.157171e+02  -1.721891e+02
   1.062196e+02  -2.294244e+02
   2.577339e+02  -1.104670e+02
   2.924931e+02   1.042560e+02
   6.767532e+01   1.550456e+02
  -1.280459e+01   1.329800e+02
  -9.421259e+01   8.433737e+01
  -1.044096e+02   7.203117e+01
  -9.678159e+01   9.381192e+01
  -1.082141e+02   6.745586e+01
  -7.687233e+01  -2.252107e+01
  -1.172174e+02  -1.873675e+02
  -2.488586e+01  -2.246729e+02
   7.026546e+01  -2.032816e+02
   1.876965e+02  -1.668403e+00
   1.521526e+02   1.028663e+02
   1.842540e+01   1.471552e+02
  -1.055865e+02   9.712731e+01
  -1.020199e+02   1.394780e+01
   9.860865e+00  -8.410722e+01
   3.768696e+01  -2.405686e+01
   7.029122e+00   3.269569e+01
  -8.374276e+01  -1.430538e+01
  -7.191202e+01  -1.371043e+01
   3.149855e+01  -3.991965e+01
   1.536411e+02   6.519860e-01
   1.388680e+02   4.253712e+01
   4.244464e+00   1.004870e+02
  -1.287917e+02   1.138661e+02
  -1.559367e+02   5.075583e+00
  -5.459100e+01  -4.963464e+01
   6.187827e+01  -8.266259e+01
   9.817818e+01   1.171406e+01
   1.124904e+01   7.889165e+01
  -6.090108e+01   8.760440e+01
  -3.931686e+01  -2.755846e+01
  -3.320035e+01  -3.261910e+01
  -8.898348e+01  -9.442415e+01
  -4.100144e+01  -2.528826e+01
  -6.949113e+01   2.052244e+01
  -4.200363e+01  -8.379812e+01
   9.964162e+00  -1.542430e+02
   1.310591e+02  -1.619069e+02
   1.758228e+02  -2.174242e+01
   1.116569e+02   1.208667e+02
   4.372128e+01   1.169012e+02
  -1.000341e+02   6.143039e+01
  -1.265803e+02  -4.572659e+00
   5.876178e+01  -2.190671e+01
   1.287382e+02   2.411018e+01
   6.702563e+01   1.013564e+02
  -8.108951e+01   1.121763e+02
  -1.814473e+02   7.620868e+01
  -1.723153e+02  -3.722978e+01
  -7.719458e+01  -7.808038e+01
   1.054459e+02  -8.817636e+01
   2.652925e+01  -4.186735e+01
  -3.494390e+01   3.585889e+01
  -6.396776e+01  -7.665252e+00
  -3.945632e+01  -9.573098e+01
   8.523969e+01  -1.491730e+02
   1.424339e+02  -1.103569e+02
   1.508245e+02   8.474877e+01
   3.237614e+01   1.654981e+02
  -4.701774e+01   1.711473e+02
  -1.386660e+02   1.695958e+01
  -7.626668e+01  -1.276958e+02
   7.370760e+00  -7.449483e+01
   4.193851e+00  -2.408438e+01
   2.312200e+01   5.343279e+01
   3.052704e+01  -2.733263e+01
   3.278960e+01  -2.955668e+01
   2.638528e+01   1.392937e+01
   8.666554e+01   6.996493e+01
   5.415220e+01   1.226709e+02
  -3.690342e+01   1.311404e+01
  -1.205620e+02  -5.508695e+01
  -1.366178e+02  -3.020736e+01
  -2.042524e+01  -2.969712e+01
   6.210818e+01   1.666293e+00
   5.454357e+01   3.701157e+00
  -1.955666e+00  -4.913873e+01
  -3.608429e+01  -3.914522e+00
  -2.336513e+01  -1.022131e+01
   2.331318e+01   3.258269e-01
  -4.304652e+01   2.149649e+01
  -8.252297e+01  -1.558427e+01
  -7.378526e+01  -5.503787e+01
   6.934002e+00  -8.351093e+01
   1.060157e+02  -1.294669e+02
   2.067318e+02  -5.207095e+01
   2.038293e+02   6.952880e+01
   4.856184e+01   1.426047e+02
  -7.038207e+01   1.361089e+02
  -1.138196e+02   5.670407e+01
  -4.882311e+01  -1.451933e+01
   1.019345e+00  -1.720588e+01
  -3.650292e+01  -4.471647e+01
  -2.240742e+01   1.640939e+01
  -5.597971e+01  -6.127594e+01
  -3.441298e+01  -8.123917e+01
   2.274248e+01  -9.341205e+01
   1.416583e+02   1.233439e+01
   7.522625e+01   9.969346e+01
  -4.573235e+01   5.899513e+01
  -1.003983e+02  -8.978528e-01
  -1.063509e+02  -1.063403e+02
  -6.300121e+01  -1.093776e+02
   7.833756e+01  -3.669425e+01
   9.392710e+01  -3.197399e+01
   5.734114e+01   3.345489e+01
  -2.641939e+01   1.823050e+01
   1.138390e+00   1.811728e+01
   3.668852e+01  -3.359849e+01
   7.569207e+01   4.480551e+01
   9.559671e+00   2.077503e+01
  -7.072130e+01   6.940157e+01
  -1.130456e+02   5.971247e+01
  -3.976312e+01  -2.710825e+01
   2.147791e+01  -4.689995e+01
   7.345506e+01  -8.661065e+01
   5.250016e+01   7.515765e+00
   5.757366e+00   6.181908e+01
   2.828025e+01   5.722722e+01
   1.730953e+01  -1.746913e+01
  -9.016332e-01  -7.332033e+01
  -2.955616e+01   1.041830e+01
   5.701693e+01  -1.764266e+01
   7.724063e+01   2.715122e+01
   8.569180e+00  -3.457524e+01
  -1.418623e+01   7.168839e+00
   1.216049e+01   2.230546e+01
  -2.139489e+01   3.900143e+01
  -2.155903e+01   3.256431e+01
  -1.504196e+01  -1.237357e+01
  -4.158828e+01  -1.404749e+01
  -1.282870e+01  -7.107516e+01
   6.451857e+01  -4.646198e+01
   2.765597e+01  -4.770948e+00
  -2.971209e+01   2.110240e+01
  -4.179404e+01   5.246156e+01
  -1.100350e+02  -2.377804e+01
  -9.760041e+01  -1.691905e+01
   1.909466e+01  -3.879054e+01
   6.499019e+01  -2.460399e+01
   4.372561e+01  -2.894519e+01
  -2.037892e+01   3.760404e+00
  -4.067790e+01   1.151095e+01
   1.376029e+01   6.036987e+00
   9.977729e+01  -2.557046e+01
