
 $NMID
 id='ANONYMOUS ', fmtdat='(2E16.6)'
 volume=1.0
 tramp=1.0
 $END
  -3.424134e+03  -2.941379e+02
  -2.214200e+03  -1.711635e+03
   4.315472e+02  -2.095965e+03
   1.476794e+03  -1.006705e+03
   8.589240e+02   2.128651e+01
  -1.753233e+02   3.283825e+02
  -4.981391e+02  -1.781969e+02
  -1.974386e+01  -5.999346e+02
   5.113164e+02  -5.485124e+02
   6.710736e+02   2.056157e+01
   3.876134e+02   5.596305e+02
  -1.077647e+02   7.159688e+02
  -3.851687e+02   1.461921e+02
  -2.944690e+02  -4.431437e+02
   1.855698e+02  -5.285386e+02
   4.157758e+02  -4.177870e+00
   2.531923e+02   5.456734e+02
  -1.951601e+02   5.360834e+02
  -4.505895e+02   2.085678e+02
  -3.794035e+02  -2.609866e+02
  -9.595633e+01  -3.347161e+02
   1.387013e+02  -2.322221e+02
   1.079251e+02  -6.722338e+01
  -1.612926e+02  -9.465643e+00
  -3.238860e+02  -1.932055e+02
  -4.816258e+01  -3.600976e+02
   4.070416e+02  -2.714010e+02
   6.182856e+02   1.787068e+02
   3.018160e+02   3.889290e+02
  -3.331222e+02   2.632112e+02
  -5.986320e+02  -1.515225e+02
  -1.882525e+02  -3.783707e+02
   1.811213e+02  -3.832433e+02
   4.562443e+02  -1.213026e+02
   3.293335e+02   1.566507e+02
   6.195818e+01   2.810319e+02
  -8.078808e+01   1.841998e+02
  -1.985254e+01  -1.365258e+02
   1.439134e+02  -2.473910e+02
   2.698076e+02   7.654089e+01
   1.759843e+01   4.755876e+02
  -2.073988e+02   5.000939e+02
  -4.002004e+02   1.542133e+01
  -1.800045e+02  -3.907288e+02
   1.652987e+02  -1.324167e+02
   2.719578e+02   3.022552e+02
  -5.978389e+01   4.057397e+02
  -4.462976e+02   7.668079e+01
  -4.450451e+02  -4.021381e+02
  -9.490167e+01  -5.111794e+02
   3.257628e+02  -3.000895e+02
   4.832099e+02   4.708614e+01
   3.579730e+02   2.420727e+02
  -4.771349e+01   2.366984e+02
  -3.507477e+02   7.339408e+01
  -2.206101e+02  -9.759375e+01
  -7.131255e+00  -4.746446e+01
   6.123685e+01   1.180240e+02
  -1.244783e+02   9.278793e+01
  -2.272505e+02  -5.813153e+01
  -1.164600e+02  -1.872135e+02
   1.681965e+02  -2.133337e+02
   3.019437e+02  -1.334528e+02
   2.071215e+02   1.155144e+02
  -3.825412e+01   2.808243e+02
  -2.592539e+02   3.317443e+02
  -2.900105e+02   1.718919e+02
  -2.579242e+02  -1.535848e+02
  -6.781317e+01  -3.841743e+02
   2.983190e+00  -2.376658e+02
   6.730792e+01  -1.381173e+02
   5.653638e+01  -4.905380e+01
   1.572363e+02  -1.161576e+02
   2.112997e+02  -7.125504e+01
   2.603250e+02   8.816724e+01
   6.602497e+01   2.238285e+02
  -9.692929e+01   1.889779e+02
  -1.527513e+02  -1.576567e+01
  -1.249589e+02  -2.058306e+02
   5.151868e+01  -2.330953e+02
   2.222629e+02  -4.725038e+01
   3.058647e+02   1.757082e+02
   1.096024e+02   2.672509e+02
  -3.720202e+01   2.381443e+02
  -1.733188e+02   8.689446e+01
  -1.527389e+02   3.573812e+01
  -1.303533e+02   6.301879e+01
  -2.201309e+02   5.439626e+01
  -3.950661e+02  -9.498558e+01
  -2.859271e+02  -2.698321e+02
   5.936113e+00  -4.165180e+02
   3.276411e+02  -3.398383e+02
   4.400869e+02  -1.522388e+02
   2.964790e+02   1.071581e+02
   6.581377e+01   2.346480e+02
  -7.253983e+01   1.720107e+02
  -4.431645e+01   1.022215e+01
   8.191256e+01  -5.559423e+01
   1.364948e+02   4.218417e+01
   1.505137e+01   8.960676e+01
  -8.843895e+01   1.064474e+02
  -1.112485e+02  -4.947522e+01
   1.416567e+01  -1.110642e+02
   1.510780e+02   2.783893e+00
   8.172572e+01   1.941004e+02
  -1.837311e+01   3.094287e+02
  -1.739805e+02   1.473026e+02
  -2.760797e+02  -1.232624e+02
  -2.567899e+02  -2.647392e+02
  -8.857412e+01  -2.186399e+02
   8.779522e+01  -1.059835e+02
   1.373598e+02   1.058586e+00
   6.090847e+01   4.603307e+01
  -4.360561e+01  -4.278993e+01
  -6.511377e+00  -9.473767e+01
   1.093091e+02  -7.715226e+01
   1.481289e+02   4.716016e+01
   2.354841e+01   6.869796e+01
  -9.977571e+01  -2.980368e+01
  -2.292261e+01  -6.491997e+01
   1.483564e+02  -6.697234e+01
   2.567952e+02   6.356093e+00
   2.369768e+02   1.795327e+02
   5.499053e+00   2.278856e+02
  -1.974919e+02   2.245785e+02
  -2.428110e+02   7.962059e+01
  -1.133968e+02  -6.026000e+01
  -3.397922e+00  -1.729525e+01
   8.150030e+01   1.689849e+01
  -3.411698e+01   9.625718e+01
  -1.476582e+02   5.657982e+01
  -1.335727e+02  -1.158605e+02
  -1.606179e+01  -1.566579e+02
   6.568989e+01  -1.410362e+02
   1.421090e+02  -2.934100e+01
   4.051514e+01   5.918234e+01
  -3.525514e+01  -1.546377e+01
  -3.162248e+01  -1.214647e+02
   7.100813e+01  -1.000463e+02
   1.493877e+02   9.702481e+00
   1.441593e+02   7.032475e+01
  -2.402902e+01   1.725168e+02
  -1.217805e+02   1.226945e+02
  -1.913637e+02   1.350887e+01
  -1.312340e+01  -6.807707e+01
   5.591796e+01  -4.325886e+01
   9.596876e+01  -3.241543e+01
  -2.674664e+00   9.560084e+00
  -3.855564e+01  -4.239651e+01
   9.538603e+00  -3.089886e+01
   7.346428e+01   1.885458e+01
   9.173454e+01   5.208174e+01
   2.967402e+00   1.519345e+02
  -1.307261e+02   1.278122e+02
  -2.023523e+02   5.940082e+00
  -1.442809e+02  -1.733174e+02
   8.476099e+00  -2.394789e+02
   8.845707e+01  -1.280649e+02
   1.184451e+02  -2.214801e+00
   7.122449e+01   2.712090e+01
   2.822171e+01   1.008529e+01
   9.258442e+01  -4.096705e-01
   9.993466e+01  -2.085926e+01
   9.321768e+01   7.055588e+01
  -8.336304e+00   1.090553e+02
  -1.189315e+02   4.859859e+01
  -1.069994e+02  -2.372124e-01
  -5.564567e+00  -1.065837e+02
   1.349809e+02  -4.869476e+01
   1.793964e+02   4.685708e+01
   1.123240e+02   1.789161e+02
  -1.137065e+02   1.724745e+02
  -2.266013e+02   6.531199e+01
  -2.554690e+02  -9.473589e+01
  -8.501508e+01  -1.512977e+02
   6.087736e+01  -1.276851e+02
   9.081531e+01  -4.260914e+01
   8.068830e+01  -6.415230e+01
   7.462520e+01  -4.825863e+01
   1.020392e+02  -7.883804e+01
   9.874337e+01   6.564146e+01
   5.111030e+01   1.424839e+02
  -2.585092e+01   1.897530e+02
  -8.253983e+01   1.436815e+02
  -1.490752e+02   1.715540e+01
  -9.959022e+01  -1.208512e+02
  -2.939253e+01  -1.549424e+02
   7.350576e+01  -7.411484e+01
   5.740051e+01  -1.406155e+01
   2.537355e+01   5.140477e+01
  -2.789099e+01   4.561566e+01
  -2.185697e+01   3.637922e+00
   9.603222e+01   1.746918e+01
   3.829814e+01   4.323656e+01
  -5.649216e+01   2.064317e+01
  -1.478229e+02   3.354953e+01
  -1.566468e+02  -5.690994e+01
   2.082535e+01  -1.106582e+02
   1.196945e+02  -8.433644e+01
   1.493939e+02   1.064461e+01
   5.889623e+01   2.410996e+01
  -5.133562e+01   4.060513e+01
  -9.071083e+01  -7.498104e+00
  -2.522810e+01  -5.377994e+01
   5.187048e+01  -5.969395e+01
   3.515945e+01   2.924494e+01
   3.898834e+01   4.595624e+01
  -1.984189e+01   5.389433e+01
   7.514518e+01   1.596675e+01
   4.729231e+01  -1.867258e+01
   6.236187e+01   5.574580e+01
  -2.049859e+01   1.474140e+02
  -1.076135e+02   1.139330e+02
  -1.268627e+02   1.657011e+00
  -7.359863e+01  -1.183781e+02
   1.235519e+01  -1.254781e+02
   4.694311e+01  -8.289102e+01
   5.931419e+01   4.225097e+01
  -6.254670e+01   6.893887e+00
  -1.275071e+02  -9.006868e+01
  -6.596926e+01  -8.299254e+01
   1.026992e+02  -7.065765e+01
   1.920934e+02  -8.553215e+01
   1.516074e+02   6.960134e+01
   5.007047e+01   7.559723e+01
  -1.379958e+02   1.052355e+02
  -4.159101e+01  -2.405786e+01
   5.093886e+01  -3.961479e+01
   7.739361e+01  -3.629418e+00
  -1.168351e+01   1.356772e+02
  -1.352626e+02   1.466116e+02
  -1.613434e+02   7.589813e+01
  -1.200151e+02  -1.205940e+02
  -3.197466e+01  -1.798114e+02
   9.749774e+01  -1.184759e+02
   1.033172e+02   8.027097e+00
   4.515937e+01   1.122433e+02
   1.890310e+01   1.192546e+02
  -8.609567e-01   3.525697e+00
  -6.614506e+00  -9.668109e+00
  -7.584002e+00  -2.600306e+01
  -6.343941e+01   8.370418e+00
  -3.348799e+01   6.279156e+00
  -2.375328e+01  -5.483031e+01
  -4.450390e+01  -1.038947e+02
   5.608062e+01  -2.041407e+01
   1.200768e+02   4.270688e+01
   1.510368e+02   6.740765e+01
  -1.412201e+01   1.013195e+02
  -5.215581e+01   1.799996e+01
  -1.061769e+02   1.648766e+00
  -1.383211e+01  -4.410064e+01
   5.852258e+01  -1.265424e+01
   4.765626e+01  -1.824071e+00
  -1.428874e+01   1.330582e+00
  -2.553125e+00   1.352676e+01
   4.347740e+01  -1.820956e+01
   1.016027e+02  -1.373038e+01
  -1.305121e+01   6.809991e+01
  -1.162552e+02   1.154416e+02
  -1.852636e+02   7.515147e+01
  -1.726445e+02  -5.025381e+01
  -7.271152e+01  -1.567169e+02
   1.191827e+02  -1.325011e+02
   9.944774e+01  -4.665431e+01
   7.671489e+01   5.279167e+01
   6.223549e+00   3.445538e+01
   2.116234e+01  -4.820306e+01
   3.264238e+00  -8.354576e+00
   3.441303e+01   3.951278e+01
   2.726618e+01   1.169568e+02
  -3.205137e+01   7.294192e+01
  -7.640782e+01  -3.399596e+01
  -3.157989e+01  -7.555794e+01
   6.662297e+00  -3.942427e+01
   1.028169e+02   2.413723e+01
   5.231749e+01   8.919200e+01
  -1.356613e+01   6.481050e+01
  -7.098146e+01   1.066482e+01
  -1.017556e+02   1.194661e+01
  -1.075056e+01  -3.156093e+01
   3.872126e+01  -6.624368e+01
   3.206597e+01  -1.444087e+01
  -5.729796e+01   1.728519e+01
  -6.363877e+01  -4.210029e+00
   1.794489e+01  -2.374942e+01
   7.217227e+01  -4.655142e+01
   1.190492e+02  -2.595754e+01
   9.491675e+01  -4.800551e+00
  -1.185125e+01   6.094014e+01
  -5.187377e+01   5.425233e+01
  -1.217375e+01   4.839949e+00
   1.749254e+01  -4.472255e+01
   2.244754e+01  -6.226443e+01
   3.678594e+01  -4.828689e+00
   3.903723e+01   6.739334e+01
   1.865230e+01   3.138387e+01
  -8.166148e+01   1.111964e+01
  -2.151299e+01  -1.631856e+01
  -2.569804e+00   1.303274e+01
   6.530622e+00   1.750768e+01
  -1.058926e+01  -1.975821e+01
   5.743905e+00  -5.758186e+00
  -1.506205e+01  -3.683393e+01
   5.229082e+01  -1.528295e+00
   4.384017e+01   2.688182e+01
  -4.021772e-01   5.408356e+01
  -2.807511e+01   3.743727e+00
  -5.864432e+01  -6.330305e+01
  -1.834597e+01  -5.776833e+01
   4.725537e+01  -3.750663e+01
   1.120944e+02   1.795402e+01
   3.612511e+01   1.445845e+01
  -3.910620e+01   3.445275e+01
  -6.831050e+01   2.107854e+01
  -2.895008e+00   3.041494e+01
   5.264752e+00  -1.436779e+00
   2.701227e+01  -4.645816e+00
   7.474175e+00   1.954682e+01
  -8.521448e+01   1.895852e+01
