
 $NMID
 id='ANONYMOUS ', fmtdat='(2E16.6)'
 volume=1.0
 tramp=1.0
 $END
   2.618477e+03   4.302148e+02
   1.290098e+03   1.550069e+03
  -3.892216e+01   1.579318e+03
  -9.103849e+02   8.404380e+02
  -6.053254e+02  -7.273970e+01
   1.809997e+02  -1.516015e+02
   3.816355e+02   1.846990e+02
  -6.976878e+01   4.667808e+02
  -3.736686e+02   3.957176e+02
  -4.171212e+02   2.087631e+01
  -3.001272e+02  -4.518342e+02
  -1.028140e+01  -4.847811e+02
   2.316529e+02  -1.017423e+02
   2.036102e+02   3.094299e+02
  -6.097415e+01   4.027594e+02
  -2.590750e+02   6.610073e+01
  -1.259774e+02  -3.208424e+02
   1.391855e+02  -3.200146e+02
   3.450572e+02  -1.308327e+02
   1.771217e+02   1.431478e+02
   5.544960e+01   2.158867e+02
  -6.427291e+01   1.874093e+02
  -1.407993e+02   7.062738e+01
   8.400977e+01   2.413497e+01
   1.738968e+02   1.026776e+02
   5.754804e+01   2.150200e+02
  -2.715249e+02   1.725631e+02
  -5.102326e+02   1.426419e+00
  -2.530385e+02  -2.643247e+02
   2.257890e+02  -1.899430e+02
   3.655633e+02   7.671408e+01
   2.132606e+02   2.195116e+02
  -2.169201e+02   3.116586e+02
  -3.003533e+02   1.477714e+02
  -2.382927e+02  -9.289926e+01
  -4.031494e+01  -2.079973e+02
   6.277754e+01  -1.328087e+02
   1.466516e+01   7.408072e+01
  -6.965390e+01   1.892020e+02
  -1.664514e+02  -9.987495e+01
  -9.223018e+01  -3.842704e+02
   1.470414e+02  -3.691161e+02
   2.910115e+02  -4.408310e+01
   1.434743e+02   2.307567e+02
  -9.767826e+01   1.366670e+02
  -2.169249e+02  -2.033915e+02
   3.246604e+01  -2.863240e+02
   3.085583e+02   7.456844e+00
   3.293910e+02   2.271546e+02
   1.294435e+02   3.465585e+02
  -1.806281e+02   2.224999e+02
  -3.989763e+02   1.496152e+01
  -2.566606e+02  -1.768180e+02
   6.872974e+01  -1.830408e+02
   2.315236e+02  -6.169710e+01
   1.634950e+02   6.968084e+01
  -4.797187e+01   1.278993e+01
  -2.699519e+01  -5.955053e+01
   7.975699e+01  -3.851018e+01
   1.422101e+02   1.075227e+02
   8.666196e+01   1.470138e+02
  -1.300170e+02   1.051988e+02
  -2.060204e+02   5.225571e+01
  -1.537912e+02  -6.628501e+00
   6.203329e-01  -1.227434e+02
   1.716712e+02  -2.505811e+02
   2.202964e+02  -1.222768e+02
   2.138093e+02   7.253933e+01
   8.534556e+01   2.620778e+02
  -1.901585e+01   2.936151e+02
  -1.066223e+01   1.290424e+02
  -4.927107e+01   7.631831e+01
  -5.593185e+01   6.401225e+01
  -1.858622e+02   7.300625e+01
  -1.657066e+02  -5.794724e+01
  -1.085742e+02  -1.479059e+02
   6.036386e+01  -1.101498e+02
   1.184524e+02  -2.169562e+01
   8.717366e+01   1.496814e+02
   2.305911e+01   1.813389e+02
  -1.669317e+02   5.587727e+01
  -2.120755e+02  -1.131435e+02
  -1.183865e+02  -2.070269e+02
   8.693815e+01  -1.794444e+02
   1.222618e+02  -1.052622e+02
   9.075492e+01   1.178894e+01
   9.989491e+01  -5.204346e+01
   1.497995e+02  -3.068815e+01
   2.739354e+02   6.498092e+01
   2.406445e+02   1.612859e+02
   2.091845e+01   3.091625e+02
  -2.410211e+02   2.230323e+02
  -3.559122e+02   1.425194e+02
  -2.135623e+02  -4.449048e+01
  -1.095676e+01  -1.771684e+02
   3.824567e+01  -1.655309e+02
   1.506249e+01  -3.935980e+01
  -8.463620e+01   5.251403e+01
  -1.100345e+02  -6.998248e+00
   1.617834e+01  -1.338649e+02
   1.254972e+02  -8.013912e+01
   7.925258e+01   5.187833e-01
  -3.780561e+01   1.057998e+02
  -1.293518e+02  -8.119879e+00
  -7.904979e+01  -1.527771e+02
   3.427553e+01  -2.294128e+02
   1.276659e+02  -1.379968e+02
   1.717196e+02   1.640497e+01
   1.975392e+02   1.170281e+02
   1.647334e+01   1.657190e+02
  -7.716665e+01   8.808986e+01
  -1.338579e+02  -1.308469e+01
  -1.824996e+00  -2.044102e+01
   3.452598e+01   4.728392e+01
   4.386575e+00   1.145877e+02
  -9.634416e+01   4.770000e+01
  -5.712287e+01  -1.674503e+01
  -1.366976e+01  -6.690803e+01
   9.159859e+01  -3.293706e+01
   2.040825e+01   6.280291e+01
  -9.409508e+01   7.576820e+01
  -1.915531e+02  -2.754807e+01
  -1.540945e+02  -9.601015e+01
   7.133796e+00  -1.864915e+02
   1.256313e+02  -1.373105e+02
   1.529018e+02  -4.922639e+01
   1.143775e+02   4.187311e+00
   5.032557e+01   8.895530e+01
  -2.463568e+01   5.670526e+00
   4.439745e+01  -4.660512e+01
   1.159029e+02  -2.861178e+01
   1.097183e+02   4.299361e+01
   6.516869e+01   1.254518e+02
  -6.663979e+01   7.013035e+01
  -9.572817e+01   2.603368e+01
  -4.783516e+01  -1.533418e+01
   3.011852e+01   1.756269e+00
   9.281345e+00   6.418529e+01
  -3.869418e+01   6.732099e+01
  -1.286906e+02   1.805335e+01
  -8.773043e+01  -9.933886e+01
  -2.360605e+01  -1.129330e+02
   9.736568e+01  -9.556027e+01
   1.050670e+02  -3.068190e+01
   1.262767e+01   5.288854e+01
  -5.669992e+01   9.008211e+01
  -6.853178e+01   2.395824e+01
  -5.065879e+00  -1.312937e+01
   6.249512e+00   2.632234e+01
  -6.043439e+00   9.451142e+00
  -6.022033e+01   2.746037e-01
  -9.224898e+01  -2.713441e+01
  -2.375030e+01  -1.084216e+02
   6.180387e+01  -1.128876e+02
   1.758013e+02  -2.123129e+01
   1.440276e+02   9.205647e+01
   4.904543e+01   1.529086e+02
  -6.750085e+01   1.133483e+02
  -7.039406e+01   3.238015e+01
  -2.063783e+01   1.846825e+01
   1.215636e+01  -5.615258e+00
  -5.994983e+01  -1.730521e+01
  -1.549824e+01  -7.449893e+00
  -3.058124e+01  -4.461451e+01
   3.302065e+01  -5.211331e+01
   7.252275e+01  -3.317350e+01
   4.182644e+01   8.735779e+00
   4.751566e+01   4.099195e+01
  -1.227351e+02   4.214276e+01
  -9.859183e+01  -3.256400e+01
  -8.499319e+01  -1.336780e+02
   1.019929e+02  -1.543284e+02
   1.642345e+02  -5.807828e+01
   1.777496e+02   4.570990e+01
   4.776694e+01   1.024396e+02
  -6.752215e+01   7.942254e+01
  -4.602651e+01   1.067664e+02
  -4.078734e+01   6.642121e+01
  -4.794338e+01   6.343378e+01
  -4.195752e+01   5.073076e+01
  -1.045925e+02   7.086631e+00
  -6.555451e+01  -9.951062e+01
   4.084109e+00  -1.547834e+02
   8.475669e+01  -1.056039e+02
   8.440441e+01   3.323855e-01
   1.152340e+02   4.347282e+01
   6.871144e+00   7.284653e+01
  -2.462591e+01   5.374911e+01
  -3.896548e+01   3.890433e+01
  -1.411284e+01  -1.402304e+01
  -2.291732e+01  -1.980323e+01
  -3.827488e+01  -1.599011e+01
  -5.445888e+01   2.455765e+00
  -7.331119e+01  -1.998163e+01
   5.127297e+01  -2.240054e+01
   1.310701e+02  -1.429190e+01
   7.575660e+01   1.736126e+01
  -2.537530e+00   1.017004e+02
  -7.246018e+01   4.487168e+01
  -6.617296e+01   1.295367e+01
  -2.711985e+01  -2.079753e+01
   5.594017e+01   1.056171e+01
   2.726222e+01   1.443033e+01
  -1.295864e+01   3.509942e+01
  -1.256323e+01   3.349395e+01
   1.109223e+01   1.372799e+01
  -2.060289e+01  -1.813938e+01
   4.404800e+00  -7.697435e+00
  -6.332224e+01   3.775152e+01
  -4.492013e+01  -6.306206e+01
  -1.539321e+01  -5.976076e+01
   2.459787e+01  -9.245466e+01
   1.120309e+02  -1.057473e+02
   1.079920e+02  -3.827783e+01
   6.980739e+01   8.431551e+01
   9.518408e+00   4.137120e+01
  -3.020038e+01   2.852062e+00
  -4.357411e+01   1.207547e+00
   4.882951e+01   2.533378e+01
   8.122760e+01   6.267107e+01
   3.939085e+01   4.443944e+01
  -9.202991e+01   4.331162e+01
  -1.096110e+02   1.597333e+01
  -6.781224e+01   7.112374e+00
  -4.513453e+01  -1.813860e+01
   2.815826e+01  -6.844022e+01
   1.687650e+01  -4.519577e+00
  -4.242718e+01   4.858754e+01
  -6.707838e+01  -1.555327e+01
  -3.991356e+01  -4.597731e+01
   6.768215e+01  -8.727818e+01
   4.729096e+01  -2.419321e+01
   6.950821e+01   7.285849e+01
   2.458357e+01   7.445646e+01
  -3.527655e+01   8.687369e+01
  -5.879879e+01  -1.503903e+01
  -4.323035e+01  -1.197939e+02
  -2.386489e+01  -5.534880e+01
   3.312120e+01   1.341237e+00
   6.316446e+01  -1.555460e+01
   1.461494e+01  -2.394575e+00
  -5.865832e+01   8.166329e+00
  -2.371251e+01   2.046434e+01
   8.416643e+00   7.800328e+01
   2.196210e+01   4.683685e+01
  -9.649673e+00   1.208384e+01
  -8.172554e+01  -1.827701e+01
  -8.736763e+01  -2.403960e+01
   1.216459e+01  -5.912322e+01
   6.091955e+01  -1.101957e+01
   9.081956e+00  -2.571295e+01
  -2.377069e+01  -2.246550e+01
  -3.898123e+01   1.118126e+01
   4.829375e+01   9.833931e+00
   1.188005e+01   5.087241e+01
  -1.914404e+01  -1.483475e+00
  -5.305545e+00  -5.056628e+00
  -2.409008e+01  -2.001945e+01
  -2.619360e+01  -4.726066e+01
   6.132994e+01  -7.156374e+01
   1.059398e+02  -2.054975e+01
   6.613621e+01  -1.083453e+01
   4.882392e+00   9.182172e+01
  -3.411459e+01   1.121947e+02
  -7.629224e+01   5.716504e+01
  -1.575937e+01   8.688391e+00
   1.325203e+01  -3.314626e+01
  -2.054135e+01  -1.159443e+01
   5.390178e+01   6.465219e+00
  -4.416913e+00  -7.898854e+00
   4.719362e+00  -6.967611e+01
  -2.897865e+01  -4.694066e+01
   7.641680e+01  -1.352823e-01
   4.205270e+01   8.137929e+01
   2.729572e+01   7.162134e+01
  -6.122615e+01   4.288319e+01
  -7.615938e+01  -6.870369e+01
  -3.181726e+01  -4.238427e+01
   4.639130e+01  -7.600170e+01
   5.204390e+01  -5.539352e+01
  -1.655454e+01   4.155307e+01
  -5.557674e+01   5.237269e+01
  -3.684469e+01   3.205731e+01
   5.577609e+01  -2.113761e+01
   4.910274e+01   1.621956e+01
  -1.274501e+01  -8.064767e+00
  -4.884115e+01   3.409716e+01
  -7.981951e+01   7.498493e+01
  -3.964145e+01  -2.928135e+01
   4.632082e+00  -8.045801e+01
   4.346391e+01  -1.168136e+02
   2.610060e+01  -2.567553e+01
   7.698754e+00   3.062928e+01
  -6.253784e+00   3.923009e+01
  -8.051133e+00   1.233174e+00
  -2.202766e+01   1.182825e+00
  -2.498065e+01  -3.071776e+01
  -2.810412e+00  -7.052128e+00
   2.841859e+01   3.937116e+00
   3.235364e+00  -4.018856e+01
  -6.635505e+00   7.079785e+00
  -1.720362e+01  -9.805630e+00
   1.660415e+01  -2.406451e-01
   1.088858e+01   1.470411e+01
  -2.925788e+01   3.384933e+01
   1.294709e+01  -2.174353e+01
   1.079476e+01  -5.288749e+01
   2.536915e+01  -2.692564e+01
   5.236108e+00  -9.166875e+00
  -2.529306e+01   2.787959e+01
  -3.013011e+01   2.670144e+01
  -6.950591e+01  -1.834950e+01
  -1.619856e+01  -2.937711e+00
   1.775449e+01  -3.084255e+01
   7.301232e+01   3.715842e+01
   1.919318e+01   1.513563e+01
  -1.170208e+01   1.648136e+01
  -1.409917e+01   3.460853e+01
   5.413233e+01  -2.013733e+01
   1.037113e+02  -5.616808e+00
