
 $NMID
 id='ANONYMOUS ', fmtdat='(2E16.6)'
 volume=1.0
 tramp=1.0
 $END
  -4.597938e+03  -1.551621e+01
  -2.693036e+03  -2.659298e+03
   1.032426e+03  -2.911003e+03
   2.477595e+03  -8.543200e+02
   1.029059e+03   7.343308e+02
  -7.891854e+02   7.638523e+02
  -1.027896e+03  -4.501290e+02
   5.644253e+01  -1.171388e+03
   9.828896e+02  -8.670788e+02
   9.846142e+02   2.142712e+02
   4.106222e+02   9.769198e+02
  -2.804208e+02   1.012577e+03
  -7.607629e+02   6.524510e+01
  -3.637266e+02  -8.413786e+02
   3.306664e+02  -8.292358e+02
   6.459048e+02   5.954160e+01
   2.961629e+02   7.817904e+02
  -4.020882e+02   7.302366e+02
  -7.068545e+02   7.218895e+01
  -3.697480e+02  -4.296336e+02
   4.045254e+01  -4.939227e+02
   2.191086e+02  -2.489240e+02
   2.343703e+02  -1.123357e-01
  -9.868273e+01   6.697316e+01
  -4.166806e+02  -1.080228e+02
  -2.214838e+02  -4.274058e+02
   4.975434e+02  -4.602636e+02
   9.189300e+02   1.015702e+02
   4.369018e+02   5.616253e+02
  -4.499451e+02   4.602874e+02
  -7.363636e+02  -4.359117e+01
  -4.062498e+02  -5.167466e+02
   3.439450e+02  -5.444400e+02
   6.187584e+02  -1.967971e+02
   4.580489e+02   2.897065e+02
   4.666426e+01   5.406313e+02
  -2.683240e+02   2.597238e+02
  -1.717219e+02  -2.447583e+02
   1.444264e+02  -4.589954e+02
   5.290063e+02  -5.668205e+00
   2.859426e+02   7.200705e+02
  -3.053917e+02   7.595390e+02
  -6.342376e+02  -9.697486e+00
  -3.292935e+02  -6.317103e+02
   3.153220e+02  -3.361146e+02
   4.106955e+02   3.333823e+02
  -9.733162e+01   5.837455e+02
  -6.196431e+02   1.353237e+02
  -6.086918e+02  -4.072416e+02
  -1.624693e+02  -6.117133e+02
   3.977700e+02  -4.078213e+02
   6.114801e+02   1.175994e+02
   3.811144e+02   4.511446e+02
  -2.060942e+02   4.174892e+02
  -4.851715e+02   5.051418e+01
  -2.562691e+02  -2.298925e+02
   1.910102e+02  -1.006963e+02
   1.546593e+02   1.809213e+02
  -2.195114e+02   2.070064e+02
  -4.135200e+02  -1.032643e+02
  -1.909790e+02  -3.180929e+02
   2.468631e+02  -2.997693e+02
   3.740272e+02  -8.130723e+01
   2.261660e+02   9.346308e+01
  -3.311199e+01   1.506507e+02
  -2.461262e+02   3.284568e+02
  -3.386791e+02   1.974578e+02
  -3.217983e+02  -1.232966e+02
  -6.987865e+01  -4.648287e+02
   1.242255e+02  -4.412570e+02
   1.837646e+02  -1.242444e+02
   7.687659e-01   3.908454e+01
  -5.829894e+00  -9.177321e+01
   1.452945e+02  -1.137863e+02
   3.035203e+02   1.715075e+01
   1.901354e+02   2.911040e+02
  -1.324047e+02   2.934744e+02
  -2.599576e+02  -2.158086e+01
  -2.105642e+02  -2.533261e+02
   6.926617e+00  -3.116976e+02
   2.988948e+02  -1.392719e+02
   3.943836e+02   2.028235e+02
   1.607011e+02   3.910171e+02
  -1.013056e+02   3.561324e+02
  -2.432236e+02   1.357072e+02
  -2.044141e+02  -3.639245e+01
  -7.615199e+01   1.992637e+01
  -2.190678e+02   6.283029e+01
  -3.835574e+02  -3.414773e+01
  -3.135804e+02  -3.237562e+02
  -1.668752e+01  -4.521663e+02
   3.331460e+02  -4.133041e+02
   5.289983e+02  -1.437046e+02
   3.592712e+02   1.138297e+02
   3.981204e+00   3.411668e+02
  -2.174566e+02   2.414486e+02
  -5.265434e+01   1.144761e+01
   9.167443e+01  -1.591776e+02
   1.958498e+02   3.638694e+00
   9.052842e+01   1.904187e+02
  -1.643499e+02   2.499450e+02
  -2.595815e+02  -7.169212e+01
   3.759753e+01  -2.221845e+02
   1.883683e+02  -5.412302e+01
   1.708189e+02   2.044007e+02
  -6.415615e+00   3.638300e+02
  -2.317587e+02   1.953334e+02
  -3.570131e+02  -7.113716e+01
  -2.976637e+02  -2.332374e+02
  -1.027818e+02  -2.882007e+02
   1.561655e+02  -2.215417e+02
   2.131829e+02  -2.607244e+00
   1.012407e+02   6.226984e+01
  -6.636960e+01  -2.110804e+01
  -4.632139e+01  -1.070950e+02
   1.013971e+02  -9.132976e+01
   1.650383e+02  -2.287794e+01
   4.930285e+01   5.819247e+01
  -9.222118e+01   2.208964e+01
  -7.043034e+01  -7.216873e+01
   1.386615e+02  -1.115520e+02
   2.457332e+02   1.117984e+00
   2.312366e+02   8.205451e+01
   1.028171e+02   2.542619e+02
  -1.965874e+02   3.060900e+02
  -2.909456e+02   1.044828e+02
  -1.812866e+02  -8.050472e+01
   4.870035e+01  -1.469381e+02
   1.033313e+02  -2.453192e+01
  -4.443960e+00   1.349173e+02
  -2.079086e+02   7.019630e+01
  -2.503605e+02  -1.578321e+02
  -9.950011e+01  -2.081753e+02
   8.588980e+01  -1.531795e+02
   1.305348e+02  -1.715509e+01
   7.669242e+01   5.832497e+01
  -6.400624e+01  -2.471567e+01
  -2.713105e+01  -7.249257e+01
   5.745536e+01  -1.502232e+02
   2.020353e+02  -1.489703e+01
   2.194978e+02   1.490550e+02
   2.478520e+01   2.298791e+02
  -1.755339e+02   1.765047e+02
  -2.149343e+02   3.785206e+01
  -5.983888e+01  -1.577140e+02
   7.967196e+01  -1.282606e+02
   6.135429e+01  -2.973697e+01
   4.078124e+01   3.727357e+01
  -3.786909e+01   1.303937e+01
   5.421280e+01   9.009197e+00
   5.245811e+01   4.764975e+01
   6.214465e+01   5.839935e+01
  -5.243417e+00   2.152720e+02
  -1.427616e+02   1.579740e+02
  -2.199965e+02   4.275615e+00
  -2.464028e+02  -1.358809e+02
  -1.853164e+01  -2.304654e+02
   1.289019e+02  -1.820746e+02
   1.601965e+02  -5.407400e+00
   4.454929e+01   6.360669e+01
   4.324555e+01   7.224633e+01
   3.790054e+01   2.385484e+01
   5.631099e+01   3.451163e+01
   4.842222e+01   3.072602e+01
  -4.493635e+01   6.053860e+01
  -9.489721e+01   4.068828e+01
  -1.016194e+02  -5.034260e+01
   3.037212e+01  -7.194104e+01
   1.617990e+02  -5.805737e+01
   2.104116e+02   2.101305e+01
   6.558205e+01   2.050013e+02
  -1.085893e+02   2.012906e+02
  -2.653559e+02   9.195621e+01
  -2.527595e+02  -7.321331e+01
  -9.610995e+01  -1.742906e+02
   4.407054e+01  -1.790366e+02
   8.591125e+01  -7.912768e+01
   8.448259e+01  -9.946513e+01
   7.887947e+01  -1.015859e+02
   8.238735e+01  -7.477505e+01
   1.044482e+02   2.037951e+01
   1.433798e+02   1.624909e+02
   4.590625e+01   2.289145e+02
  -1.018667e+02   1.970097e+02
  -1.747339e+02   2.116225e+01
  -1.178142e+02  -1.249029e+02
  -2.611414e+01  -1.823319e+02
   6.409618e+01  -7.177373e+01
   6.554996e+01  -9.454373e+00
  -7.463694e+00   3.547906e+01
   2.497029e+01   8.602436e+01
   3.779746e+01   3.542527e+01
   7.375060e+01   1.602243e+01
   5.901519e+01  -7.514753e+00
  -7.846539e+01   1.764710e+01
  -1.571266e+02   3.059091e+01
  -1.834761e+02  -5.362205e+01
  -3.130163e+01  -1.103212e+02
   1.135474e+02  -7.242199e+01
   1.609616e+02  -1.112628e+01
   3.674339e+01  -3.013852e+01
  -6.986513e+01   5.197964e+01
  -8.570270e+01  -7.018501e+01
  -2.406637e+01  -1.149748e+02
   7.736663e+01  -1.651820e+01
   5.987226e+01   1.859864e+00
   3.983894e+01   5.875749e+01
   7.261443e+01   6.491725e+01
   3.059500e+01   5.757861e+01
   1.008070e+02  -1.642079e+01
   4.899896e+01   7.659921e+01
   1.115404e+01   1.465966e+02
  -1.430331e+02   1.029479e+02
  -1.819721e+02   2.643480e+01
  -1.034048e+02  -7.561938e+01
   2.091847e+01  -1.053841e+02
   7.690521e+01  -7.771381e+01
   6.413692e+01   3.361546e+01
  -6.260219e+01   2.784776e+01
  -1.687887e+02  -3.515323e+01
  -8.469062e+01  -8.822910e+01
   8.713867e+01  -1.034407e+02
   2.117138e+02  -2.860877e+01
   1.713416e+02   5.005566e+01
   1.444816e+01   5.661767e+01
  -2.956148e+01   7.105027e+01
  -5.513095e+01   3.392262e+01
   3.624086e+01  -4.102488e+01
   4.020829e+01   4.229291e+01
   2.737143e+01   1.229108e+02
  -5.283911e+01   1.251938e+02
  -1.498063e+02   8.438488e+01
  -1.353066e+02  -1.296928e+02
   7.548580e-01  -1.735215e+02
   1.099762e+02  -1.413859e+02
   9.200720e+01   1.793412e+01
   1.068500e+02   1.111077e+02
  -5.711627e+01   1.413818e+02
  -8.208641e+01   7.393090e+00
  -4.249309e+01  -6.457998e+01
   9.737240e+00   3.979946e+00
  -1.907137e+00   2.942963e+01
  -3.229455e+01  -1.667849e+01
  -4.463083e+01  -9.711799e+01
  -1.926103e+01  -1.125633e+02
   1.721949e+01  -9.650212e+00
   7.793377e+01   1.774218e+01
   1.199612e+02   3.408688e+01
   2.489538e+01   2.981412e+01
  -8.139929e+01   4.949254e+01
  -9.713916e+01   1.392021e+01
  -2.688428e+01  -1.452372e+01
   3.920261e+01  -4.469796e+01
   2.035703e+00  -2.440968e+01
  -2.496801e+01   1.641576e+00
   1.135785e+01   1.268373e+01
   7.104172e+01   3.205502e+01
   1.034050e+02  -9.961727e-01
   6.358551e+00   7.962256e+01
  -1.079735e+02   6.703939e+01
  -1.830749e+02   4.165445e+01
  -1.452205e+02  -3.575643e+01
  -7.222448e+01  -1.794168e+02
   6.772654e+01  -1.856376e+02
   1.238149e+02  -4.284460e+01
   1.191338e+02   3.068040e+01
   8.653173e+00   5.874666e+01
   1.408047e+01   2.556786e+01
  -3.694045e+00   8.224651e+01
   1.257237e+01   7.812863e+01
   5.856714e+01   9.033362e+01
  -3.218250e+01   5.229321e+01
  -3.546253e+01  -2.826710e+01
  -8.483358e+01  -9.810077e+01
  -3.430389e+00  -9.250691e+01
   8.634206e+01  -3.064519e+01
   1.198184e+02   1.010388e+02
   3.173106e+01   1.253153e+02
  -6.252604e+01   5.812832e+01
  -9.839488e+01  -1.650061e+01
  -5.713532e+01  -6.587222e+01
   2.945449e+01  -2.198672e+01
  -2.994195e+00  -4.590350e+01
  -2.229547e+01  -6.054301e+00
  -6.538512e+01  -2.936516e+01
  -1.200212e+01  -3.130278e+01
   9.650884e+01  -8.097834e+01
   1.357095e+02  -6.455091e+01
   6.763795e+01  -9.314476e+00
  -1.046721e+01   1.170701e+02
  -7.119785e+01   8.705538e+01
  -5.520082e+01  -1.933756e+00
  -1.904510e+01  -9.342788e+01
   5.422439e+00  -3.380136e+01
   9.583922e+00   3.864583e+01
   2.695858e+01   4.394307e+01
   5.557740e+00   4.864169e+01
  -4.284182e+01  -3.943688e+01
  -3.177690e+01  -4.121490e+01
  -5.106884e+01   2.220829e+01
  -1.702941e+01   4.770203e-01
   1.744166e+01  -6.769721e+00
  -9.850120e+00  -4.839051e+01
   4.499128e+01  -1.803754e+01
   5.455402e+01  -2.940829e+01
   4.617723e+01   1.970916e+01
   4.233202e+00   6.513617e+01
  -4.876739e+01   2.654390e+01
  -2.538104e+01  -6.002512e+00
  -3.384235e+00  -1.428715e+01
   5.243411e+01  -1.324706e+01
   7.473162e+01   2.519190e+01
   6.543167e+01   5.124907e+01
  -2.349070e+01   4.258541e+01
  -9.488013e+01   3.474584e+01
  -2.664198e+01  -3.798123e+00
   3.671254e+01   1.319961e+01
   2.064472e+01   8.758307e-01
  -4.545108e+01   4.179621e+01
  -9.866139e+01   2.057392e+01
