
 $NMID
 id='ANONYMOUS ', fmtdat='(2E16.6)'
 volume=1.0
 tramp=1.0
 $END
  -4.535857e+03  -1.501421e+02
  -2.717181e+03  -2.564470e+03
   5.342400e+02  -3.029541e+03
   2.314590e+03  -7.881736e+02
   1.047214e+03   8.434893e+02
  -7.691896e+02   7.209678e+02
  -9.635357e+02  -4.074671e+02
  -3.112192e+01  -1.189812e+03
   9.268598e+02  -8.494186e+02
   1.124689e+03   1.158898e+02
   5.134746e+02   9.914824e+02
  -2.918219e+02   1.013285e+03
  -7.389336e+02   1.203535e+02
  -4.554333e+02  -7.636187e+02
   2.554918e+02  -8.684511e+02
   7.121393e+02   2.152852e+01
   3.150295e+02   7.614620e+02
  -4.308935e+02   7.044792e+02
  -6.418703e+02   5.780106e+01
  -3.934394e+02  -3.813789e+02
   2.583829e+01  -4.910359e+02
   2.975793e+02  -2.625025e+02
   2.291130e+02   2.284012e+01
  -1.239987e+02   1.338944e+02
  -4.374428e+02  -9.886412e+01
  -2.202543e+02  -4.928810e+02
   4.169432e+02  -4.934025e+02
   9.155032e+02   1.266143e+02
   5.644380e+02   5.637592e+02
  -4.460429e+02   5.878041e+02
  -7.606554e+02  -1.036818e+01
  -4.126612e+02  -4.974724e+02
   2.683100e+02  -5.816057e+02
   6.486590e+02  -1.868050e+02
   4.810103e+02   2.329454e+02
   1.061384e+02   5.389490e+02
  -2.729783e+02   3.855611e+02
  -2.350873e+02  -1.896266e+02
   1.628181e+02  -4.885471e+02
   5.046706e+02   4.748344e+00
   3.452435e+02   7.141572e+02
  -3.307288e+02   7.995871e+02
  -6.288188e+02   2.350771e+01
  -2.986889e+02  -6.287445e+02
   3.002556e+02  -3.747863e+02
   4.738695e+02   3.414501e+02
  -6.003183e+01   5.464376e+02
  -6.357825e+02   2.076003e+02
  -6.646286e+02  -4.516228e+02
  -1.941511e+02  -6.231992e+02
   4.416711e+02  -3.927223e+02
   6.879760e+02   7.532429e+01
   3.553307e+02   4.496575e+02
  -1.902904e+02   4.209277e+02
  -4.858774e+02   1.053198e+02
  -2.079221e+02  -2.661778e+02
   1.704695e+02  -1.420865e+02
   1.188112e+02   2.118514e+02
  -2.075406e+02   2.144624e+02
  -3.950967e+02  -8.038837e+01
  -1.644819e+02  -3.447135e+02
   1.853473e+02  -2.750292e+02
   3.782076e+02  -1.078285e+02
   2.512183e+02   1.183541e+02
  -4.632691e+01   2.387976e+02
  -2.842856e+02   3.875474e+02
  -3.217298e+02   2.625267e+02
  -3.136910e+02  -1.714149e+02
  -1.162143e+02  -4.703388e+02
   1.254499e+02  -3.819693e+02
   6.056363e+01  -1.292422e+02
  -5.295437e+00  -1.940312e+01
   2.741416e+01  -3.577334e+01
   1.969978e+02  -1.400890e+02
   3.302668e+02   4.669942e+01
   1.530207e+02   2.539652e+02
  -6.466701e+01   2.595396e+02
  -1.991657e+02   4.022073e+01
  -2.289948e+02  -2.655848e+02
  -2.070248e+00  -3.111867e+02
   2.742142e+02  -1.374236e+02
   3.967178e+02   1.753436e+02
   1.855520e+02   4.077632e+02
  -1.314942e+02   3.481043e+02
  -2.851690e+02   1.223799e+02
  -1.933484e+02  -3.230186e+01
  -6.839082e+01   1.140752e+01
  -2.116340e+02   8.320592e+01
  -4.137233e+02   2.303502e+01
  -3.368139e+02  -2.753613e+02
  -1.635570e+01  -4.444413e+02
   3.454442e+02  -4.564022e+02
   5.115096e+02  -1.978269e+02
   3.648472e+02   1.275271e+02
   6.721571e+01   2.963517e+02
  -1.421025e+02   2.606041e+02
  -7.108506e+01   2.980391e+01
   1.482291e+02  -1.206354e+02
   2.349189e+02   5.315304e+00
   6.616269e+01   2.308597e+02
  -1.378694e+02   2.215654e+02
  -1.893747e+02  -3.431621e+01
  -1.067445e+01  -1.841952e+02
   1.942301e+02  -2.832818e+01
   1.950998e+02   2.507524e+02
  -6.655973e+01   3.529237e+02
  -2.349629e+02   2.328304e+02
  -3.325229e+02  -5.170042e+01
  -3.238162e+02  -2.227130e+02
  -1.146850e+02  -2.061616e+02
   9.954479e+01  -1.281721e+02
   1.958671e+02  -1.638970e+01
   3.960555e+01   6.454916e+01
  -8.473663e+01  -4.708591e+01
  -5.609512e+01  -1.298282e+02
   1.183422e+02  -8.293064e+01
   2.013190e+02  -4.611491e+00
   9.480779e+01   3.340689e+01
  -1.024082e+02   1.948415e+01
  -4.912180e+01  -8.989472e+01
   1.922647e+02  -4.518814e+01
   2.561316e+02   2.901765e+01
   2.642510e+02   1.623829e+02
   4.763675e+01   2.679721e+02
  -1.929497e+02   2.790353e+02
  -2.943902e+02   9.815666e+01
  -1.605539e+02  -5.453510e+01
   1.872635e+01  -1.257622e+02
   4.785700e+01   8.229809e-02
  -2.852116e+01   8.700313e+01
  -1.847117e+02   9.250928e+01
  -2.553227e+02  -1.073448e+02
  -8.588040e+01  -2.263984e+02
   6.402479e+01  -1.848062e+02
   1.312094e+02  -2.323161e+01
   7.726015e+01   2.776226e+01
  -6.244768e+01   1.404711e+01
  -2.542268e+01  -8.241894e+01
   6.847277e+01  -9.979457e+01
   2.024903e+02  -2.739371e+00
   1.860397e+02   1.215989e+02
  -1.214623e+00   1.831045e+02
  -1.379782e+02   1.679680e+02
  -1.939723e+02   1.567189e+01
  -7.429587e+01  -1.415702e+02
   7.584262e+01  -1.422425e+02
   1.156873e+02  -1.250843e+01
   1.427428e+01   2.884471e+01
  -8.109730e+00   2.544026e+01
  -1.352912e+01  -5.828352e+01
   9.141862e+01  -3.167224e+00
   9.567721e+01   1.054514e+02
  -2.889770e+01   1.659306e+02
  -1.075149e+02   1.666654e+02
  -2.103543e+02   5.566078e+01
  -2.454954e+02  -1.359155e+02
  -7.033946e+01  -2.327120e+02
   1.318795e+02  -1.173282e+02
   1.130457e+02  -7.465754e+01
   4.339357e+01   3.387077e+01
   2.968334e+01   3.263086e+01
   6.613442e+01  -2.375642e+01
   8.494162e+01  -2.122986e+01
   5.589227e+01   3.517450e+01
  -2.975541e+01   5.248030e+01
  -4.824200e+01   8.625049e+01
  -1.101249e+02  -5.786873e+01
   2.384957e+01  -6.820845e+01
   1.429184e+02  -9.779631e+01
   1.750285e+02   1.709165e+01
   1.464539e+02   1.693303e+02
  -1.350081e+02   2.046143e+02
  -2.982099e+02   1.119926e+02
  -2.902384e+02  -8.150939e+01
  -1.072157e+02  -2.006621e+02
   5.258486e+01  -1.641223e+02
   8.190938e+01  -5.742779e+01
   2.383282e+01  -9.545304e+01
   9.413655e+01  -7.660489e+01
   8.133793e+01  -1.097245e+02
   1.500751e+02   8.223049e+00
   1.283735e+02   1.434864e+02
   2.836924e+01   1.927120e+02
  -9.402466e+01   1.844883e+02
  -1.943312e+02   5.207874e+00
  -1.260419e+02  -1.375405e+02
  -7.982344e+00  -1.723592e+02
   6.915358e+01  -1.108273e+02
   5.109788e+01   3.658177e+01
  -1.204353e+01   1.119551e+01
  -2.268939e+01   4.016547e+01
   4.999134e+01  -9.990508e+00
   8.839639e+01   3.948304e+01
  -5.816184e+00   5.440278e+01
  -2.915421e+01   5.071713e+01
  -1.394770e+02  -6.301456e-01
  -1.591997e+02  -2.076914e+01
   4.813861e+00  -1.058517e+02
   1.178351e+02  -7.006128e+01
   1.504619e+02   1.541713e+01
   7.046195e+01   3.598951e+01
  -3.845085e+01   5.162588e+01
  -9.610912e+01  -2.025037e+01
  -3.506925e+00  -7.253489e+01
   5.955760e+01  -8.712088e+01
   9.045276e+01   1.933192e+01
   4.048207e+01   5.452808e+01
   3.239452e+01   4.450688e+01
   7.237948e+01  -3.440039e+01
   7.765978e+01  -2.068849e+01
   2.909464e+01   7.001653e+01
  -4.712658e+01   1.882575e+02
  -1.241187e+02   1.332203e+02
  -1.503225e+02   2.976656e+01
  -1.420844e+02  -6.863101e+01
   4.474967e+00  -9.578165e+01
   6.198559e+01  -1.114919e+02
   6.804544e+01  -1.203671e+01
  -4.952732e+01  -3.238455e+01
  -1.665559e+02  -5.676845e+01
  -6.398759e+01  -8.714984e+01
   1.107712e+02  -5.519709e+01
   1.686269e+02  -3.587619e+01
   1.731937e+02   3.995125e+01
   4.118717e+01   6.211537e+01
  -5.621439e+01   7.879243e+01
  -3.499189e+01   2.583386e+01
   1.568080e+01  -5.312553e+01
   1.043869e+02   4.572866e+01
   7.457244e+01   1.018868e+02
  -7.641313e+01   1.483242e+02
  -2.043901e+02   8.465068e+01
  -1.143428e+02  -1.104677e+02
   1.187508e+01  -1.721855e+02
   1.163016e+02  -1.649102e+02
   9.798711e+01   3.673219e+01
   5.742283e+01   1.061609e+02
   1.693895e+01   8.941976e+01
  -6.662361e+01   3.135962e+00
  -3.092738e+01  -7.342508e+01
  -8.027189e+00  -3.235015e+01
   1.269794e+01   1.157709e+01
  -2.737421e+01  -3.823528e+01
  -3.555102e+01  -3.977659e+01
  -3.711680e+01  -8.494223e+01
   5.183835e+01  -5.062534e+01
   1.584464e+02   6.739838e+01
   1.075235e+02   8.867534e+01
   2.234044e+01   1.037092e+02
  -1.168791e+02   3.400904e+00
  -4.954825e+01  -2.349686e+00
   1.331590e+01  -2.926156e+01
   5.290404e+01  -1.239198e+01
   1.654748e+01  -4.171914e+01
  -3.098259e+01  -2.684267e+01
  -3.106641e+00  -8.324749e-01
   5.378980e+01   5.599362e-01
   9.229158e+01  -7.144377e+00
   1.573742e+01   1.012857e+02
  -1.555997e+02   1.241567e+02
  -1.822678e+02   7.190182e+01
  -1.271905e+02  -4.269615e+01
  -7.860249e+01  -1.882424e+02
   9.370956e+01  -1.790106e+02
   1.256404e+02  -3.444993e+01
   7.685534e+01   1.483829e+01
   1.418491e+01   7.858885e+01
  -2.547213e+01   3.022676e+01
   1.416572e+01   6.472282e+00
  -1.542327e+01   4.672931e+01
  -1.980300e+01   5.352398e+01
  -3.571128e+01   4.551036e+01
  -9.350977e+01  -3.801096e+01
  -9.383071e+01  -1.299849e+02
  -3.012919e+01  -1.140737e+02
   8.282610e+01  -5.226816e+01
   9.110691e+01   1.051341e+02
   1.588669e+01   1.478992e+02
  -6.497826e+01   5.723797e+01
  -8.866019e+01   5.503370e+00
  -2.885664e+01  -4.596609e+01
   4.338924e+01  -3.458894e+01
   4.013131e+01  -3.858131e+01
  -2.265470e+01   1.216028e+01
  -1.075883e+02  -8.519406e+00
  -4.324669e+01  -1.158638e+01
   7.503049e+01  -6.569495e+01
   1.454027e+02  -7.315140e+01
   5.243185e+01   2.308560e+01
  -2.023471e+01   7.056321e+01
  -6.093107e+01   6.777491e+01
  -3.954424e+01   4.481997e+01
  -4.205142e+01  -4.360067e+01
   2.766917e+01  -6.312102e+01
   2.391918e+01   3.905094e+01
   2.063500e+01   9.810576e+00
  -1.946453e+01  -3.721139e-01
  -2.706716e+01  -2.183026e+01
  -9.166641e+01  -4.922357e+00
   2.226125e+01   3.262264e+01
   8.797721e+00   3.807325e+01
  -2.190047e+01  -1.883075e+01
   2.183080e+01  -2.429380e+01
   4.459510e+01  -4.787528e+01
  -5.519315e+00   1.126072e+01
   3.203370e+01   5.997548e+01
   8.723525e+00   9.461102e+01
  -6.015033e+01   2.400310e+01
  -3.828578e+00  -1.861896e+01
  -1.883150e+01  -3.711340e+01
   7.277070e+01  -6.667223e+01
   7.652585e+01   6.226379e+01
   3.658953e+01   3.061042e+01
  -2.784388e+01   1.512679e+01
  -6.572765e+01   1.386341e+00
  -1.318864e+01  -1.696318e+01
   4.379987e+00  -1.733241e+01
   3.407416e+01   9.028647e+00
  -2.179466e+01   4.480401e+01
  -7.999244e+01   2.017827e+01
