
 $NMID
 id='ANONYMOUS ', fmtdat='(2E16.6)'
 volume=1.0
 tramp=1.0
 $END
   4.368886e+03   8.151542e+01
   2.908510e+03   2.620667e+03
  -6.057470e+02   2.796826e+03
  -2.187702e+03   9.005950e+02
  -1.240369e+03  -5.525312e+02
   7.101412e+02  -5.998283e+02
   9.068396e+02   3.612446e+02
   8.018310e+00   1.081561e+03
  -8.643064e+02   8.204297e+02
  -1.055885e+03  -3.478299e+01
  -4.674895e+02  -9.111418e+02
   3.241688e+02  -9.642955e+02
   7.499720e+02  -1.511326e+02
   4.304349e+02   7.915309e+02
  -2.991074e+02   9.085378e+02
  -7.118588e+02   2.075720e+01
  -2.914220e+02  -7.362366e+02
   3.366442e+02  -7.419102e+02
   6.512461e+02  -1.412029e+02
   4.609332e+02   4.084487e+02
  -1.061604e+00   5.145280e+02
  -2.848310e+02   2.431235e+02
  -1.885368e+02  -1.799243e+01
   1.793776e+02  -6.200266e+01
   4.748789e+02   1.303833e+02
   2.355299e+02   4.768228e+02
  -4.505509e+02   5.037194e+02
  -8.878961e+02  -9.332612e+01
  -5.090341e+02  -6.382454e+02
   4.247859e+02  -5.453622e+02
   8.059433e+02   4.516470e+01
   4.004810e+02   5.026512e+02
  -2.491977e+02   5.798171e+02
  -6.258164e+02   2.363999e+02
  -4.496157e+02  -2.494888e+02
  -5.598342e+01  -5.116994e+02
   2.209619e+02  -3.002320e+02
   2.010782e+02   2.730562e+02
  -2.442679e+02   4.596605e+02
  -4.800715e+02  -6.767885e+01
  -3.272828e+02  -6.724396e+02
   2.837279e+02  -7.207902e+02
   6.388063e+02  -1.206174e+01
   3.124297e+02   5.715375e+02
  -3.459405e+02   3.521468e+02
  -4.485897e+02  -3.546577e+02
   7.956185e+01  -6.496396e+02
   5.887667e+02  -1.510178e+02
   6.775608e+02   4.699592e+02
   1.829052e+02   6.702146e+02
  -3.966900e+02   4.178860e+02
  -6.887825e+02  -1.233268e+02
  -3.807363e+02  -4.174990e+02
   1.690336e+02  -3.908176e+02
   4.744337e+02   9.722061e+00
   2.908173e+02   2.361002e+02
  -1.001330e+02   1.138157e+02
  -1.956158e+02  -1.431807e+02
   1.691863e+02  -2.254498e+02
   3.721576e+02   5.929526e+01
   1.643767e+02   3.559934e+02
  -1.538948e+02   2.916546e+02
  -3.427821e+02   1.209600e+02
  -2.554221e+02  -8.228456e+01
   7.007842e+00  -2.555938e+02
   2.234190e+02  -3.496547e+02
   4.204922e+02  -2.465133e+02
   2.843191e+02   1.598665e+02
   8.232164e+01   4.525419e+02
  -1.122738e+02   4.149536e+02
  -1.514108e+02   7.038711e+01
  -3.494657e+01  -6.940465e+00
  -6.523313e+01   8.391642e+01
  -1.606893e+02   1.142796e+02
  -3.334412e+02  -3.635520e+00
  -1.842182e+02  -3.154565e+02
   7.949515e+01  -2.641681e+02
   2.410714e+02   9.651509e+00
   2.329192e+02   2.469084e+02
   5.959132e+00   3.605570e+02
  -3.128506e+02   1.403401e+02
  -4.224266e+02  -1.518506e+02
  -2.140824e+02  -4.150001e+02
   1.158127e+02  -3.394796e+02
   2.145971e+02  -1.528372e+02
   1.575350e+02   1.333003e+01
   1.169529e+02  -5.872123e+01
   2.155237e+02  -8.213663e+01
   4.395521e+02   1.065371e+02
   3.391002e+02   2.280871e+02
   1.674023e+01   5.325850e+02
  -3.720383e+02   3.816006e+02
  -5.194029e+02   1.814604e+02
  -3.897684e+02  -1.358553e+02
  -1.179795e+01  -3.656035e+02
   1.506487e+02  -2.987152e+02
   1.324519e+02  -5.668661e+01
  -1.577609e+02   1.507450e+02
  -2.105618e+02   1.040698e+01
  -7.294655e+01  -2.169321e+02
   1.423855e+02  -2.270251e+02
   2.107977e+02   7.985969e+01
  -2.105474e+01   1.975602e+02
  -2.459686e+02   3.997055e+01
  -1.682777e+02  -2.754368e+02
   5.789382e+01  -4.211290e+02
   2.426650e+02  -1.734828e+02
   3.536728e+02   7.427357e+01
   3.155933e+02   2.983148e+02
   8.583240e+01   3.122199e+02
  -1.782859e+02   1.709271e+02
  -2.344339e+02   4.127201e+01
  -6.611723e+01  -4.141138e+01
   5.934319e+01   5.662474e+01
   4.578400e+01   1.461952e+02
  -9.851559e+01   1.274516e+02
  -2.008521e+02   4.526391e+00
  -6.105336e+01  -6.671612e+01
   6.518924e+01   3.479602e+00
   4.790900e+01   6.786808e+01
  -1.645793e+02   7.607464e+01
  -2.948885e+02   1.899456e+01
  -3.114554e+02  -1.270496e+02
  -1.031307e+02  -2.778875e+02
   2.000245e+02  -3.044203e+02
   3.081875e+02  -1.635564e+02
   2.242488e+02   7.300629e+01
  -4.053949e+00   8.701877e+01
  -1.003325e+02   1.526999e+01
   8.898267e+00  -1.408280e+02
   1.951953e+02  -4.228757e+01
   2.434999e+02   1.207147e+02
   4.416275e+01   2.033592e+02
  -9.596715e+01   1.850767e+02
  -1.596309e+02   2.563996e+01
  -5.861453e+01  -7.421549e+01
   6.022806e+01  -5.520211e+00
   5.034813e+01   1.173053e+02
  -1.089748e+02   1.291774e+02
  -1.869898e+02   6.345590e-01
  -2.550797e+02  -7.703773e+01
  -2.557207e+01  -2.532237e+02
   1.871650e+02  -2.011294e+02
   2.030591e+02  -3.151517e+01
   9.761666e+01   1.261606e+02
  -8.694930e+01   1.016827e+02
  -1.398045e+02   2.033743e+01
  -5.313923e+00  -5.322759e+01
   5.946344e+01  -7.854084e+01
   1.928328e+01   2.160870e+01
  -9.131935e+01   5.978521e+00
  -9.604290e+01  -5.628942e+01
  -5.568560e+01  -1.987328e+02
   1.592488e+02  -1.716916e+02
   2.267197e+02   3.143415e+01
   1.941918e+02   1.871383e+02
   2.650437e+01   2.384061e+02
  -1.074673e+02   1.909783e+02
  -1.341516e+02   5.170443e+00
  -3.695191e+01  -5.381659e+01
  -2.862163e+01  -1.058008e+02
  -4.247372e+01  -9.787419e+00
  -8.162091e+01   5.338484e+01
  -5.056561e+01  -4.282280e+01
   4.823067e+01  -7.768560e+01
   1.320683e+02  -3.922775e+01
   8.300045e+01   5.344607e+01
   6.711661e+00   7.557520e+01
  -1.475072e+02   7.530158e+01
  -2.207014e+02  -6.951243e+01
  -1.177016e+02  -2.735686e+02
   9.031128e+01  -2.707932e+02
   3.104971e+02  -7.699438e+01
   2.959686e+02   7.881998e+01
   7.897323e+01   1.533279e+02
  -3.240982e+01   2.042683e+02
  -7.372025e+01   1.076115e+02
  -1.006934e+02   7.375087e+01
  -9.851521e+01   9.608971e+01
  -9.409032e+01   8.417451e+01
  -1.344697e+02  -3.065803e+01
  -1.182013e+02  -1.683251e+02
  -2.124511e+01  -2.494885e+02
   5.246328e+01  -1.908743e+02
   2.113148e+02  -1.885478e+01
   1.433009e+02   1.243700e+02
   4.286089e+01   1.738646e+02
  -9.337851e+01   7.890554e+01
  -6.000760e+01  -1.005726e+01
  -1.938398e+01  -7.654554e+01
  -7.859324e+00   1.268227e+01
  -4.293479e+01   8.305070e+00
  -7.525054e+01  -2.904319e+01
  -5.634183e+01  -5.684042e+01
   5.233503e+01  -6.774049e+01
   1.460437e+02  -1.872040e+01
   1.071292e+02   7.103645e+01
   3.790141e+01   1.138056e+02
  -1.261690e+02   7.890101e+01
  -1.786661e+02  -1.588089e+01
  -8.853629e+01  -5.972682e+01
   6.061714e+01  -6.078167e+01
   3.471789e+01   3.171250e+01
   1.209540e+01   1.445946e+01
  -7.688464e+01   6.185483e+01
  -8.008251e+01   4.976149e-01
  -6.284641e+01  -8.263155e+01
  -4.422195e+01  -7.778742e+01
  -4.861612e+01  -3.570217e+00
  -4.232075e+01  -1.606133e+01
  -3.976123e+01  -5.361154e+01
   2.207694e+01  -1.611201e+02
   1.046968e+02  -1.534462e+02
   2.015784e+02  -4.038369e+01
   1.729591e+02   1.197091e+02
  -1.789826e+01   1.378869e+02
  -1.134350e+02   7.663584e+01
  -8.653173e+01   2.895377e+01
   6.079856e+01  -2.817257e+01
   1.624247e+02   2.610152e+01
   9.283946e+01   1.484974e+02
  -1.135558e+02   1.314861e+02
  -2.201756e+02   8.108596e+01
  -1.526220e+02  -4.729819e+01
  -1.844143e+01  -7.449540e+01
   3.281204e+01  -3.378951e+01
   9.482227e+01  -3.066007e+01
  -5.832368e+01   3.247654e+01
  -1.238064e+02  -3.028253e+01
  -7.613586e+01  -8.834821e+01
   1.058464e+02  -1.700555e+02
   1.300910e+02  -5.004109e+01
   1.283926e+02   8.399577e+01
   2.704853e+01   1.660158e+02
  -1.047373e+02   1.210783e+02
  -1.426515e+02  -1.766066e+01
  -7.045383e+01  -1.281314e+02
   5.100219e+01  -1.493291e+02
   4.356358e+01   1.960151e+01
   4.341278e+01   6.367033e+01
   1.360952e+01   7.384163e+01
  -3.238221e+01  -1.868309e+01
   9.058888e+00  -1.723233e+01
   7.897991e+01   1.240059e+02
   4.796206e+01   1.051635e+02
  -1.555643e+01   6.299607e+01
  -1.248305e+02  -2.358868e+01
  -1.412868e+02  -9.135522e+01
  -7.400711e+01  -4.205813e+01
   1.222166e+02  -3.249222e+01
   1.463389e+02   1.605969e+01
   5.849308e+01   2.361594e+01
  -2.436389e+01   3.721010e+01
  -5.287164e+00   6.875976e+00
   2.650200e+01   4.749498e+01
   3.989447e+00   1.910177e+01
  -8.352661e+01  -2.207827e+01
  -1.429565e+02  -2.893594e+00
  -4.004325e+00  -1.207138e+02
   1.130945e+02  -7.325928e+01
   2.102058e+02  -5.400412e+01
   1.710687e+02   4.803086e+01
   1.779119e+01   1.760676e+02
  -1.101692e+02   1.766802e+02
  -1.282668e+02   5.689414e+01
  -5.385523e+01  -7.727217e+01
  -3.487827e+01  -2.714258e+01
   1.321707e+01   2.209749e+01
  -5.535427e+00  -7.367242e+00
   6.361065e+00  -3.606789e+01
  -2.942021e+01  -7.483434e+01
   2.824092e+01  -7.990409e+01
   9.473797e+01  -2.652727e+01
   6.089304e+01   1.268222e+02
   3.263400e+01   1.313660e+02
  -6.664935e+01   3.998275e+01
  -1.114384e+02  -1.019784e+02
  -8.280372e+01  -1.037953e+02
   1.169859e+02  -8.538963e+01
   1.321833e+02  -1.460335e+01
   5.183279e+01   5.122110e+01
  -1.153733e+01   5.621385e+01
  -5.799046e+01   2.886728e+00
   1.201626e+01  -2.828985e+01
   2.411074e+01  -7.559321e+00
   8.577837e+00   3.190863e+01
  -9.755308e+01   6.824750e+01
  -8.154084e+01   8.321212e+01
  -3.026378e+01  -2.410176e+01
   2.350304e+01  -7.938184e+01
   2.816419e+01  -8.988097e+01
   1.073040e+01  -2.951437e+01
   3.253107e+01   8.775534e+01
  -3.067867e+01   5.999888e+01
  -2.585180e+01  -3.741235e+01
  -5.779761e+01  -6.387513e+01
  -2.603209e+00  -1.897720e+01
   2.731034e+01   3.469554e+01
   1.565320e+01   3.616209e+00
   3.282958e+01  -5.827802e+00
   2.024374e+01   1.077592e+01
  -2.759710e+01   2.197088e+01
  -2.978062e+01   3.715706e+01
   6.467800e-01   5.689170e+01
  -5.671572e+01   2.321547e+01
  -6.044754e+01  -4.221238e+01
   3.515845e+00  -8.028012e+01
   4.894214e+01  -2.026458e+01
   4.926738e+01   3.543385e+01
   2.727984e+01   5.117467e+01
  -5.031148e+01   6.101228e+01
  -1.028719e+02  -1.307961e+01
  -7.271820e+01  -4.372943e+01
   2.583349e+01  -3.482390e+01
   6.142896e+01  -1.850398e-01
   1.377697e+01   1.142987e+01
  -5.341493e+00  -9.317658e+00
  -2.486158e+01  -1.091067e+01
   1.367528e+01  -5.737161e+01
   1.037812e+02   3.699994e+00
