
 $NMID
 id='ANONYMOUS ', fmtdat='(2E16.6)'
 volume=1.0
 tramp=1.0
 $END
  -3.924439e+03   5.530213e+01
  -2.392005e+03  -2.364023e+03
   6.592725e+02  -2.234722e+03
   1.850782e+03  -7.132937e+02
   7.670301e+02   5.582449e+02
  -6.191534e+02   4.453891e+02
  -8.580686e+02  -4.520694e+02
   9.676699e+01  -1.093943e+03
   8.729389e+02  -7.165538e+02
   9.229072e+02   1.135433e+02
   4.288288e+02   8.803607e+02
  -2.443745e+02   8.766897e+02
  -6.708404e+02   1.091121e+02
  -3.229975e+02  -7.653299e+02
   3.212107e+02  -7.764544e+02
   6.345050e+02   1.149364e+00
   2.959564e+02   7.446612e+02
  -3.404193e+02   6.342277e+02
  -6.076002e+02   1.601013e+01
  -3.990080e+02  -3.770496e+02
  -6.140926e+00  -4.352508e+02
   2.598032e+02  -1.889223e+02
   2.234559e+02   4.968069e+01
  -1.753546e+02   1.364312e+02
  -4.475840e+02  -9.760736e+01
  -2.417212e+02  -5.156205e+02
   4.378216e+02  -4.618313e+02
   8.819447e+02   6.098762e+01
   4.203416e+02   5.714699e+02
  -4.297068e+02   5.733458e+02
  -7.882273e+02  -3.801409e+00
  -3.797856e+02  -4.864326e+02
   3.174876e+02  -5.279275e+02
   6.475715e+02  -2.150182e+02
   4.424998e+02   2.380556e+02
   9.457700e+00   4.801610e+02
  -2.273630e+02   2.255195e+02
  -1.695917e+02  -3.206869e+02
   2.615906e+02  -4.951061e+02
   5.134498e+02   3.564698e+01
   3.170534e+02   7.200259e+02
  -2.957473e+02   6.603604e+02
  -6.620818e+02   7.030585e+00
  -2.958580e+02  -5.679832e+02
   3.724348e+02  -2.902081e+02
   4.171901e+02   2.933644e+02
  -9.539388e+01   5.713813e+02
  -5.980095e+02   1.532504e+02
  -5.726947e+02  -4.241644e+02
  -1.668432e+02  -5.846292e+02
   3.520430e+02  -4.021259e+02
   6.177665e+02   6.526509e+01
   3.497845e+02   3.633150e+02
  -1.450217e+02   3.147998e+02
  -4.568876e+02   3.846270e+01
  -2.112718e+02  -1.714719e+02
   1.469553e+02  -9.511294e+01
   1.674915e+02   1.872446e+02
  -1.516387e+02   1.849077e+02
  -3.367618e+02  -1.132915e+02
  -1.538412e+02  -2.897841e+02
   1.438754e+02  -2.386688e+02
   3.276141e+02  -1.351676e+02
   2.325487e+02   2.009770e+01
   2.519514e+01   2.264986e+02
  -1.966760e+02   3.200567e+02
  -3.228900e+02   2.298051e+02
  -2.760650e+02  -1.743756e+02
  -3.572656e+01  -4.299454e+02
   1.483723e+02  -3.190468e+02
   1.290542e+02  -5.930217e+01
  -2.656425e+00   1.207719e+01
   4.024021e+01  -1.140803e+02
   2.364040e+02  -1.498300e+02
   3.285990e+02   4.340668e+01
   1.708345e+02   2.893232e+02
  -7.135785e+01   2.876870e+02
  -2.392699e+02   3.665407e+01
  -2.010118e+02  -2.306414e+02
   6.765932e+00  -3.203342e+02
   2.860409e+02  -1.449837e+02
   3.771489e+02   1.685942e+02
   2.026111e+02   3.356313e+02
  -1.138870e+02   3.173717e+02
  -2.435459e+02   1.351273e+02
  -1.111831e+02   3.279811e+01
  -6.145657e+01   3.411903e+01
  -2.463654e+02   1.041090e+02
  -4.133108e+02  -3.740199e+01
  -3.289639e+02  -2.647716e+02
  -3.802967e+01  -4.098216e+02
   2.392351e+02  -4.462513e+02
   5.424004e+02  -2.139132e+02
   3.510524e+02   7.991029e+01
   1.904439e+01   2.980734e+02
  -1.280635e+02   2.354010e+02
  -1.152461e+02   3.188915e+01
   1.264017e+02  -1.474020e+02
   1.868430e+02  -9.924700e+00
   4.413538e+01   1.998603e+02
  -1.490437e+02   1.645973e+02
  -1.723693e+02  -9.527578e+01
   4.014084e+01  -1.821699e+02
   1.706500e+02  -1.902818e+01
   1.581115e+02   2.704901e+02
  -2.756093e+01   3.393266e+02
  -1.789085e+02   2.422459e+02
  -3.158080e+02  -2.180098e+01
  -2.596210e+02  -2.114479e+02
  -9.633016e+01  -3.091237e+02
   1.323443e+02  -1.893470e+02
   2.020424e+02  -3.349750e+01
   5.915456e+01   2.696548e+01
  -9.372297e+01  -7.633569e+01
  -1.558612e+01  -1.391161e+02
   8.577514e+01  -1.290389e+02
   1.939953e+02   1.826323e+01
   8.668412e+01   8.044195e+01
  -8.491956e+01   4.587984e+00
  -5.263909e+01  -7.989387e+01
   8.926173e+01  -9.504563e+01
   2.426406e+02  -4.553036e+01
   3.064484e+02   1.364805e+02
   8.695405e+01   2.592281e+02
  -1.786362e+02   2.739264e+02
  -2.637692e+02   1.398172e+02
  -1.538294e+02  -5.658873e+01
   2.314547e+01  -1.107498e+02
   1.515303e+02  -1.737768e+01
  -6.502584e+00   1.094942e+02
  -1.525519e+02   5.989567e+01
  -1.971054e+02  -9.773729e+01
  -7.195761e+01  -2.061375e+02
   1.050560e+02  -1.637784e+02
   1.655731e+02   9.961739e-01
   9.363082e+01   3.354295e+01
  -5.675739e+01   3.387946e+01
  -1.824574e+01  -1.257351e+02
   7.127047e+01  -1.470667e+02
   2.005195e+02  -4.199146e+01
   2.410155e+02   1.059327e+02
   5.728950e+01   1.916127e+02
  -1.329776e+02   1.540925e+02
  -1.900466e+02   2.895344e+01
  -7.242294e+01  -1.445401e+02
   3.923508e+01  -8.451837e+01
   9.270683e+01  -5.786588e+01
   3.316474e+01   9.722441e+00
  -4.860455e+01   1.975321e+01
  -2.537969e+01   1.749010e+01
   6.029656e+01  -2.251428e+01
   7.871250e+01   1.057096e+02
   3.999986e+01   1.586006e+02
  -1.614600e+02   1.451041e+02
  -2.221886e+02   1.680241e+01
  -1.895741e+02  -1.500254e+02
  -5.779679e+01  -2.048981e+02
   8.086503e+01  -1.745787e+02
   1.315660e+02  -2.678956e+01
   1.034112e+02   8.407465e+01
   3.547951e+01   3.533449e+01
   7.623101e+01  -3.505068e+01
   9.445995e+01  -2.173272e+01
   5.761728e+01   6.726000e+01
  -5.645104e+01   1.109839e+02
  -9.640005e+01   4.280021e+01
  -8.041984e+01   9.353706e+00
  -3.794653e+00  -1.267140e+02
   9.945915e+01  -1.028353e+02
   1.924982e+02   6.167967e+01
   1.135378e+02   1.966634e+02
  -6.013203e+01   3.072773e+02
  -2.389178e+02   9.592107e+01
  -2.801485e+02  -1.165317e+02
  -1.377731e+02  -1.750757e+02
   1.724544e+01  -1.621491e+02
   7.624210e+01  -7.249534e+01
   1.117502e+02  -9.716363e+01
   7.064906e+01  -1.174683e+02
   7.126240e+01  -8.884976e+01
   1.207674e+02   4.575154e+01
   1.452815e+02   1.819282e+02
   8.752332e+00   2.683698e+02
  -1.197348e+02   1.976411e+02
  -1.724372e+02  -7.940535e+00
  -1.334834e+02  -1.298317e+02
  -8.327869e+01  -1.891173e+02
   6.171052e+01  -1.022658e+02
   7.696645e+01   1.030601e+01
  -2.877162e+01   6.171491e+01
   9.787593e+00   3.338256e+01
   3.933805e+01  -1.056241e+01
   6.935045e+01   1.840145e+01
   5.607723e+01   3.622922e+01
  -6.182582e+01   7.938284e+01
  -1.121665e+02   2.122187e+01
  -1.385475e+02  -4.739820e+01
  -7.278117e+01  -1.134263e+02
   1.051019e+02  -1.469150e+02
   1.778639e+02   1.924457e+01
   5.810153e+01   9.307805e+01
  -5.790732e+01   5.452640e+01
  -3.907166e+01  -7.689843e+01
  -2.559800e-01  -9.667268e+01
   4.699022e+01  -6.635024e+01
   6.605200e+01   1.388365e+01
   2.166119e+01   2.365491e+01
   4.007752e+01   2.830397e+01
   1.434632e+01  -2.901836e+00
   5.976442e+01  -4.420275e+00
   8.577527e+01   4.376839e+01
  -9.595933e+00   1.585425e+02
  -6.550697e+01   1.322478e+02
  -1.680390e+02   4.270805e+01
  -1.054103e+02  -9.772127e+01
   4.813231e+00  -1.566738e+02
   1.379277e+02  -9.869648e+01
   3.564714e+01  -1.911830e+01
  -6.792503e+01   7.452635e+01
  -9.343551e+01  -3.409936e+01
  -8.524212e+01  -6.381926e+01
   9.744060e+01  -1.101877e+02
   1.689599e+02  -3.166578e+01
   1.749142e+02   1.167476e+01
   1.019931e+01   7.721482e+01
  -6.149755e+01   7.760546e+01
  -5.133701e+01  -4.766237e+00
   2.737651e+01  -3.939518e+01
   6.853314e+01   4.134317e+01
   1.403170e+01   6.549043e+01
  -6.222796e+01   1.301843e+02
  -1.791139e+02   5.768656e+01
  -1.466275e+02  -8.508217e+01
  -4.818084e+01  -1.850075e+02
   7.398846e+01  -1.772374e+02
   7.338866e+01   1.496187e+01
   6.471008e+01   1.059978e+02
  -1.527422e+01   1.071307e+02
  -2.951172e+01   3.229134e+01
  -5.067065e+01  -3.864656e+01
  -8.891055e+00  -3.185707e+01
  -2.304348e+01   3.973989e+01
  -2.093104e+01   7.977358e-02
  -4.789692e+01  -1.289120e+02
  -3.562824e+01  -1.050299e+02
   3.372589e+01  -7.214999e+01
   1.570138e+02   3.146125e+01
   1.447626e+02   8.372856e+01
   1.982862e+01   6.568109e+01
  -9.953960e+01   1.845917e+01
  -8.663686e+01   2.484760e+01
  -3.321824e+01   8.812504e+00
   7.128658e+01  -6.708010e+00
   5.025470e+01   2.229719e+00
  -6.792233e+01  -4.028580e+01
  -1.313864e+01   4.001971e+01
   7.048205e+01  -4.726648e+00
   7.999352e+01   1.850620e+01
  -2.105883e+01   9.618262e+01
  -1.268912e+02   1.610860e+02
  -1.757616e+02   4.105237e+01
  -1.911614e+02  -1.613049e+01
  -4.200249e+01  -1.474849e+02
   8.501601e+01  -1.113088e+02
   9.650047e+01  -4.604780e+01
   5.963956e+01   2.204266e+00
   3.883284e+01   6.366989e+01
  -1.304082e+01  -7.419422e+00
   1.282577e+01   1.867534e+01
   3.632752e+01   6.242796e+01
  -4.505517e+01   1.055270e+02
  -8.350820e+01   2.210168e+01
  -8.416345e+01  -5.223983e+01
  -5.922881e+01  -1.161991e+02
   2.310497e+01  -9.902232e+01
   6.906713e+01  -2.594540e+01
   1.351867e+02   5.525851e+01
   5.338917e+01   1.064704e+02
  -9.122416e+01   3.566368e+01
  -1.196559e+02   5.005473e+00
  -3.748579e+01  -7.407238e+01
   3.083332e+01  -2.313265e+01
   2.689970e+01  -5.640355e+01
  -4.134832e+01  -1.190753e+01
  -3.446264e+01   4.285443e+00
  -2.313723e+00   2.253188e+01
   3.722973e+01  -6.847761e+01
   8.300404e+01  -4.127849e+01
   8.812241e+01   2.596357e+01
  -1.736461e-02   8.506349e+01
  -5.081127e+01   8.130468e+01
  -1.233201e+01  -2.572818e+01
   2.026601e+01  -5.819500e+01
   2.045365e+01  -4.996791e+01
   4.163593e+01   5.587068e+01
   3.843550e+01   5.646873e+01
   1.719002e+01   4.582951e+01
  -6.130123e+01  -9.629837e+00
  -5.076996e+01  -1.100972e+01
  -1.872928e+01   3.326160e+01
   1.075230e+00   2.402353e+01
   3.458000e+01  -8.160465e+00
   2.798011e+01  -5.691667e+01
  -4.010825e+00  -3.698106e+01
   5.261814e+01   2.616839e+00
   3.984988e+01   5.822752e+01
   2.432114e+01   7.693067e+01
  -3.850056e+01   3.500137e+01
  -3.801395e+01  -2.437314e+01
  -7.590812e+01  -4.915004e+01
   4.715792e+01  -3.360063e+01
   9.068630e+01   6.978234e+00
   4.625298e+01   2.986439e+01
  -1.756680e+01   4.444951e+01
  -5.561744e+01   3.067124e+01
  -3.315192e+00   4.947111e+00
   7.796186e+00  -1.853817e+01
   3.418992e+01   1.843414e+01
  -3.884813e+01   4.354354e+01
  -1.028197e+02   9.562665e+00
