
 $NMID
 id='ANONYMOUS ', fmtdat='(2E16.6)'
 volume=1.0
 tramp=1.0
 $END
  -4.090396e+03  -3.720287e+02
  -1.909256e+03  -2.711805e+03
   8.490303e+02  -2.575726e+03
   2.045522e+03  -4.423177e+02
   6.310302e+02   6.179703e+02
  -8.071173e+02   5.408823e+02
  -8.075532e+02  -4.638595e+02
   1.814442e+02  -9.432768e+02
   9.329754e+02  -6.508835e+02
   8.382236e+02   2.101651e+02
   2.473411e+02   8.173183e+02
  -3.447566e+02   8.070485e+02
  -6.426968e+02  -2.852085e+01
  -2.819210e+02  -6.811827e+02
   3.111296e+02  -6.103589e+02
   5.597680e+02   1.115608e+02
   1.454746e+02   6.547921e+02
  -3.472940e+02   4.774843e+02
  -4.856301e+02   2.753719e+00
  -2.575249e+02  -3.828265e+02
   3.249649e+01  -3.939462e+02
   2.675485e+02  -1.584113e+02
   1.713806e+02   4.469720e+01
  -1.586440e+02   1.027902e+02
  -4.136274e+02  -1.078241e+02
  -1.554937e+02  -4.799876e+02
   5.042818e+02  -4.149026e+02
   8.367699e+02   9.831601e+01
   3.296122e+02   5.992797e+02
  -4.613614e+02   3.914201e+02
  -6.532496e+02  -1.427489e+02
  -2.816769e+02  -4.931367e+02
   2.823802e+02  -4.409075e+02
   5.411896e+02  -1.512217e+02
   3.803423e+02   2.603061e+02
  -1.564907e+01   4.610813e+02
  -2.670452e+02   1.839381e+02
  -1.535365e+02  -2.078807e+02
   2.562242e+02  -4.167905e+02
   4.752523e+02   3.938423e+01
   2.796063e+02   7.174424e+02
  -3.035415e+02   6.757853e+02
  -5.618054e+02  -1.188075e+02
  -1.991255e+02  -5.509333e+02
   3.368697e+02  -2.872552e+02
   3.907419e+02   3.175971e+02
  -1.025016e+02   4.904502e+02
  -5.472131e+02   1.453072e+02
  -5.137481e+02  -3.697615e+02
  -1.319861e+02  -5.145997e+02
   3.890935e+02  -3.227297e+02
   6.167878e+02   1.075929e+02
   2.684130e+02   3.680383e+02
  -1.882974e+02   3.475552e+02
  -4.330309e+02  -4.219844e+01
  -1.963359e+02  -2.367726e+02
   1.861747e+02  -9.919527e+01
   1.389816e+02   1.470720e+02
  -1.876639e+02   1.651839e+02
  -3.318870e+02  -9.515392e+01
  -1.053282e+02  -2.957472e+02
   2.423520e+02  -2.411805e+02
   2.651333e+02  -3.249286e+01
   2.018766e+02   7.418236e+01
  -4.828050e+01   2.353664e+02
  -1.959759e+02   3.199196e+02
  -3.578924e+02   2.171993e+02
  -3.310173e+02  -1.296121e+02
  -1.128406e+02  -3.627142e+02
   6.497799e+01  -3.639514e+02
   1.083269e+02  -9.559798e+01
   1.143284e+01   3.595332e+01
  -3.984257e+00  -9.983199e+01
   1.834423e+02  -1.273346e+02
   2.858976e+02   8.677035e+01
   1.422405e+02   2.624559e+02
  -4.951841e+01   2.238768e+02
  -2.125802e+02  -1.924219e+01
  -1.690737e+02  -2.432265e+02
   1.758299e+01  -2.931664e+02
   2.737563e+02  -8.562884e+01
   3.338201e+02   1.981068e+02
   1.497433e+02   3.631169e+02
  -1.274034e+02   3.106876e+02
  -2.435471e+02   1.038799e+02
  -1.147958e+02  -1.160944e+01
  -5.710852e+01   2.242736e+01
  -2.671520e+02   7.701977e+01
  -3.077450e+02  -9.893372e+00
  -2.654602e+02  -2.920908e+02
   7.345111e+00  -4.030079e+02
   3.273593e+02  -3.841759e+02
   4.161003e+02  -1.305761e+02
   2.937096e+02   1.492985e+02
   7.626500e+01   3.037783e+02
  -1.821349e+02   2.458895e+02
  -6.549206e+01  -3.366618e+01
   1.083070e+02  -1.084781e+02
   2.281457e+02  -3.433165e+00
   8.167374e+01   1.757103e+02
  -1.727691e+02   1.521471e+02
  -1.223439e+02  -6.791430e+01
   9.092592e+00  -2.005847e+02
   1.655382e+02  -1.125767e+01
   1.378772e+02   2.324125e+02
  -3.771111e+01   3.140509e+02
  -2.202874e+02   2.284411e+02
  -2.641976e+02  -1.965160e+01
  -2.355912e+02  -2.005409e+02
  -1.248870e+02  -2.492362e+02
   1.313948e+02  -1.239652e+02
   1.707425e+02   1.509637e+01
   4.701098e+01   3.174382e+01
  -5.923538e+01  -3.504088e+01
  -4.084333e-01  -9.122916e+01
   1.412390e+02  -8.932880e+01
   1.692900e+02  -2.511072e+01
   7.117361e+01   1.091324e+02
  -4.298910e+01   2.544543e+00
  -8.241992e+00  -4.162487e+01
   1.173388e+02  -6.615624e+01
   2.670593e+02  -2.318401e+01
   2.234623e+02   1.171734e+02
   9.262757e+00   2.315136e+02
  -1.562199e+02   2.344629e+02
  -2.527968e+02   1.625196e+02
  -1.519050e+02  -6.763841e+01
   4.756598e+01  -8.785239e+01
   9.207521e+01  -3.456914e+01
  -4.531416e+01   1.134788e+02
  -1.870614e+02   4.216118e+01
  -2.094303e+02  -1.010794e+02
  -6.642379e+01  -1.727382e+02
   1.014488e+02  -1.287735e+02
   1.868691e+02  -4.104207e+01
   5.339081e+01   2.137049e+01
  -4.130657e+01   2.135532e+01
  -2.734826e+01  -8.434216e+01
   4.827350e+01  -1.317307e+02
   1.547183e+02  -4.269900e+01
   1.319310e+02   8.570425e+01
  -5.279579e+00   1.939158e+02
  -1.540368e+02   1.607706e+02
  -1.836678e+02   8.861278e+00
  -4.958800e+01  -1.110226e+02
   7.217336e+01  -9.015738e+01
   4.047329e+01  -1.208666e+01
   3.065018e+01   3.357844e+01
  -4.216233e+00   2.510353e+01
   1.118555e+01   6.431333e+00
   4.956522e+01   1.331067e+00
   5.660267e+01   7.802199e+01
   2.838228e+01   1.650937e+02
  -1.117156e+02   1.179250e+02
  -2.177136e+02   4.378541e+01
  -1.627375e+02  -1.266481e+02
  -6.992782e+01  -2.373715e+02
   1.300729e+02  -1.512694e+02
   1.225237e+02  -3.373292e+01
   5.838662e+01   7.677973e+01
   1.116078e+00   5.300461e+01
   2.458098e+01   7.820350e+00
   6.361976e+01  -9.575068e+00
   4.021897e+01   4.640220e+01
  -3.723811e+01   9.509793e+01
  -5.167978e+01   5.152512e+01
  -8.272285e+01  -8.848794e+00
  -1.188881e+01  -1.011703e+02
   7.894322e+01  -9.358479e+01
   1.696852e+02   6.767776e+01
   8.941945e+01   1.261157e+02
  -5.503092e+01   2.006527e+02
  -2.109956e+02   9.369280e+01
  -2.407569e+02  -6.592093e+01
  -1.011413e+02  -1.484282e+02
   8.512134e+01  -1.278053e+02
   7.552663e+01  -8.025697e+01
   9.093358e+01  -1.137232e+02
   7.750839e+01  -5.596573e+01
   4.131262e+01  -7.650702e+01
   1.472300e+02   2.162173e+01
   1.300004e+02   1.496920e+02
   5.001265e+01   2.016497e+02
  -9.249352e+01   1.301610e+02
  -1.724115e+02  -2.726555e+01
  -7.894166e+01  -1.218753e+02
  -2.820465e+01  -1.454410e+02
   4.902923e+01  -1.283879e+02
   1.063904e+02   1.160182e+01
  -6.007471e+00   7.070185e+00
  -1.335923e+01   3.949890e+01
   7.224582e+01   3.586745e+01
   9.815526e+01   3.701636e+01
   6.031558e+01   8.419369e+01
  -4.978877e+01   4.217614e+01
  -1.621852e+02   1.428845e+01
  -1.312969e+02  -2.090184e+01
   2.747979e+01  -9.468490e+01
   1.161057e+02  -3.057122e+01
   1.369932e+02   1.400152e+01
   5.615575e+01   4.549806e+01
  -3.135017e+01   3.261472e+01
  -1.181124e+02  -4.360933e+01
  -6.503584e+00  -5.736108e+01
   5.011247e+01  -4.389141e+01
   9.385358e+01  -9.558042e+00
   5.118275e+01   4.941876e+01
   4.926274e+01   5.724863e+01
   7.733202e+01   2.692630e+01
   4.079044e+01   2.070873e+01
   2.491957e+01   3.075242e+01
  -3.317350e+01   9.942611e+01
  -7.731540e+01   1.402939e+02
  -1.416682e+02   6.153879e+01
  -8.826456e+01  -8.954573e+01
  -8.252410e+00  -1.247421e+02
   4.518589e+01  -5.265451e+01
   3.888189e+01   1.619197e+01
  -4.332551e+01   4.022846e+01
  -1.358155e+02  -3.038154e+01
  -1.066480e+02  -6.848719e+01
   6.034143e+01  -8.498642e+01
   1.493323e+02  -4.082339e+01
   1.411570e+02   2.807921e+00
   3.305140e+01   6.392585e+01
  -5.086856e+01   6.520931e+01
  -5.856911e+01  -4.739460e+00
   6.087048e+00  -2.601854e+01
   5.826100e+01  -1.771346e+00
   4.458334e+01   9.696114e+01
  -9.815430e+01   1.492722e+02
  -2.021251e+02   4.344801e+01
  -1.352687e+02  -7.023210e+01
   2.878542e+01  -1.956695e+02
   8.002308e+01  -1.248477e+02
   9.957363e+01   5.375692e+01
   2.175272e+01   9.244364e+01
  -1.456129e+01   8.969032e+01
  -3.876118e+01   4.521501e+01
  -4.330275e+01  -5.353976e+01
  -3.286984e+01  -3.510160e+01
  -1.860252e+00   3.768554e+01
  -3.121637e+00  -3.240745e+00
  -2.587562e+01  -1.018394e+02
  -2.656868e+01  -1.047440e+02
   2.054427e+01  -6.566896e+01
   1.278437e+02   4.073117e+01
   1.255501e+02   6.584863e+01
   1.237691e+01   4.793147e+01
  -1.341063e+02   2.898546e+01
  -8.100374e+01  -3.177324e+00
  -2.547107e+01   5.309148e+00
   4.959901e+01  -4.618904e+01
   2.822392e+01  -2.854312e+01
  -3.414075e+01   1.905564e+01
   2.740078e+01   4.146913e+01
   4.764977e+01   3.005589e+00
   6.096000e+01   4.022487e+00
  -1.071463e+01   3.590552e+01
  -7.264458e+01   7.386771e+01
  -1.333194e+02   3.559091e+01
  -8.676485e+01  -7.231399e+01
  -1.800471e+01  -1.161809e+02
   4.591535e+01  -1.167393e+02
   9.078299e+01  -2.537333e+01
   7.090328e+01  -1.859438e+01
   1.862376e+01   1.820198e+01
   3.651969e+00   9.966331e+00
  -2.068967e+01   7.408712e+00
   1.659244e+01   2.787612e+01
   6.680571e+00   8.178124e+01
  -5.283636e+01   3.930459e+01
  -8.926637e+01  -3.767579e+01
  -7.117991e+01  -1.076454e+02
  -2.708323e+01  -1.564240e+02
   6.445734e+01  -3.584256e+01
   4.867121e+01   6.723442e+01
  -3.464338e+01   1.212684e+02
  -9.217770e+01   5.262619e+01
  -8.293430e+01  -2.609645e+01
  -4.419564e+01  -1.357039e+01
   1.209038e+01  -5.491685e+01
   3.371860e+01  -4.017108e+01
  -3.188237e+01  -1.722702e+00
  -8.145771e+01   2.344869e+01
  -6.399870e+00  -1.879698e+01
   2.919918e+01  -6.609912e+01
   1.037229e+02  -7.946020e+01
   4.630989e+01   4.615257e+01
  -4.576080e+01   3.494625e+01
  -3.467919e+01   4.603077e+01
  -3.851847e+01   2.437596e+01
   3.554652e+01  -6.274779e+01
   1.100402e+01  -3.930837e+01
   2.090668e+01   2.063019e+01
   5.039161e+01   6.134084e+01
  -1.585798e+00  -2.586461e+00
  -8.339483e+00   7.824905e+00
  -8.307382e+01   2.293277e+01
  -3.658497e+01   3.638645e+01
  -2.406326e+01  -3.748786e+00
   7.559014e+00  -1.544652e+01
   1.075052e+01  -3.233710e+01
   3.148920e+01  -8.578408e+01
   2.530874e+01   2.794761e+01
   6.880934e+00   7.653617e+01
   5.147780e+00   4.647816e+01
  -5.501525e+01  -5.628113e+00
  -2.553916e+01  -5.698421e+01
   3.210324e+00  -2.903659e+01
   2.689920e+01  -3.066995e+01
   8.579337e+01   5.537767e+01
   8.695138e+01   2.657090e+01
  -2.819923e+01   9.565448e+01
  -2.597117e+01   1.325042e+01
  -2.092983e+01  -1.344929e+01
   6.101541e+00  -2.708231e+01
   8.727559e-01   1.104247e+01
  -7.482492e+01   3.883308e+01
  -4.425367e+01   7.908302e+00
