
 $NMID
 id='ANONYMOUS ', fmtdat='(2E16.6)'
 volume=1.0
 tramp=1.0
 $END
  -2.684540e+03  -3.849354e+01
  -1.499378e+03  -1.547885e+03
   4.251926e+02  -1.851359e+03
   1.463424e+03  -6.448354e+02
   6.450954e+02   2.002824e+02
  -3.018319e+02   4.239326e+02
  -6.386887e+02  -2.091547e+02
  -1.235629e+02  -5.778611e+02
   5.022752e+02  -5.716726e+02
   6.126180e+02   4.355491e+01
   3.953814e+02   5.244681e+02
  -3.853664e+01   5.904747e+02
  -3.968968e+02   1.063078e+02
  -2.701730e+02  -4.686944e+02
   9.666171e+01  -5.195245e+02
   3.865317e+02  -5.149059e+01
   2.554792e+02   4.742551e+02
  -1.535227e+02   3.920987e+02
  -3.702983e+02   1.413652e+02
  -2.846397e+02  -1.843086e+02
  -3.640994e+01  -2.378514e+02
   1.511397e+02  -1.996009e+02
   7.698135e+01  -2.719683e+01
  -1.090780e+02  -3.054767e+01
  -2.656425e+02  -3.896839e+01
  -1.277674e+02  -2.411895e+02
   2.788467e+02  -2.352138e+02
   5.070680e+02   3.085347e+01
   2.793177e+02   2.961757e+02
  -2.043977e+02   3.153442e+02
  -4.428950e+02  -1.507772e+01
  -2.444014e+02  -2.658943e+02
   1.144762e+02  -3.089938e+02
   3.369332e+02  -1.532715e+02
   3.232028e+02   1.383761e+02
   8.191847e+01   3.100729e+02
  -1.098162e+02   2.000228e+02
  -6.611331e+01  -9.957795e+01
   1.104344e+02  -2.340483e+02
   2.545701e+02   4.315793e+01
   1.882256e+02   3.917584e+02
  -1.491914e+02   5.210262e+02
  -3.500225e+02   7.601797e+01
  -2.306028e+02  -3.188434e+02
   1.829110e+02  -2.151744e+02
   2.114518e+02   1.841637e+02
   7.276485e+00   3.230649e+02
  -4.106816e+02   1.706933e+02
  -4.221546e+02  -2.438702e+02
  -1.988415e+02  -4.275998e+02
   2.006907e+02  -3.040234e+02
   4.772926e+02   5.433647e+01
   2.943384e+02   2.026539e+02
  -1.023239e+02   2.880191e+02
  -2.538972e+02   8.373425e+01
  -1.570100e+02  -8.005633e+01
   8.459251e+01  -6.255241e+01
   5.313946e+01   6.045173e+01
  -5.043179e+01   1.058990e+02
  -2.067533e+02  -1.797003e+01
  -5.031604e+01  -1.401760e+02
   1.188162e+02  -1.445679e+02
   2.553395e+02  -5.747338e+01
   1.310132e+02   6.411561e+01
   7.300943e+00   1.468333e+02
  -1.781768e+02   2.220162e+02
  -2.235236e+02   1.547255e+02
  -2.310262e+02  -1.273744e+02
  -7.044794e+01  -2.749617e+02
   4.598578e+01  -2.375931e+02
   8.643752e+01  -1.150789e+02
   2.165504e+01  -2.895197e+01
   1.353422e+01  -2.833665e+01
   1.551616e+02  -7.858029e+01
   1.956004e+02   2.269949e+01
   1.169624e+02   1.511990e+02
  -4.101943e+01   1.605187e+02
  -1.468206e+02   4.962906e+00
  -1.118762e+02  -1.551798e+02
   3.419253e+01  -1.925539e+02
   1.925160e+02  -9.944633e+01
   2.096042e+02   1.508698e+02
   1.363734e+02   2.156686e+02
  -3.582406e+01   2.201750e+02
  -1.697184e+02   7.648729e+01
  -1.244281e+02   2.867399e+01
  -9.136143e+01   2.865400e+01
  -1.700206e+02   7.126868e+01
  -2.291368e+02  -2.542541e+01
  -2.388458e+02  -1.896911e+02
   1.218815e+01  -3.141900e+02
   2.558249e+02  -2.668460e+02
   3.600409e+02  -1.685490e+02
   2.208307e+02   3.917278e+01
  -1.770439e+00   1.829224e+02
  -9.557514e+01   1.604770e+02
  -4.825423e+00   1.950335e+01
   6.848283e+01  -6.280726e+01
   1.319935e+02   2.712960e+01
   1.388159e+01   9.654273e+01
  -4.624606e+01   1.093611e+02
  -7.863172e+01  -8.033605e+00
   2.114506e+01  -9.465637e+01
   1.628256e+02  -9.759401e+00
   1.293099e+02   1.300845e+02
   7.263908e+00   2.062820e+02
  -1.662530e+02   9.667986e+01
  -2.027625e+02  -7.899462e+01
  -2.345861e+02  -1.637492e+02
  -8.419375e+01  -2.104013e+02
   9.938426e+01  -1.115496e+02
   9.232094e+01  -3.153783e+01
   1.921386e+01  -4.156336e+00
  -5.461075e+01  -3.297959e+01
   3.619271e+01  -4.774777e+01
   8.208282e+01  -4.459574e+01
   8.241532e+01  -3.023913e+01
   1.403243e+01   1.985224e+01
  -7.320515e+01   1.642582e+01
  -2.018528e+01  -2.558021e+01
   7.868101e+01  -5.522011e+01
   2.078174e+02   1.672031e+01
   1.713311e+02   1.434524e+02
   5.098278e+01   1.265602e+02
  -1.508090e+02   1.509397e+02
  -1.845646e+02   9.875550e+01
  -1.195523e+02  -2.707656e+01
  -3.288846e+01  -9.179544e+01
   3.400702e+01   1.374188e+01
   3.935958e-01   3.550934e+01
  -1.798006e+02   6.356780e+01
  -1.630853e+02  -4.430908e+01
  -5.163537e+01  -1.387673e+02
   4.317523e+01  -1.326754e+02
   7.443392e+01  -3.164817e+00
   4.910046e+01   1.626827e+01
  -1.259931e+01  -5.755867e+01
  -9.205822e+00  -5.395174e+01
   5.863655e+01  -1.144179e+01
   1.039295e+02  -2.696459e+01
   1.376531e+02   5.583441e+01
   4.771923e+00   1.216311e+02
  -1.030838e+02   1.411000e+02
  -1.337704e+02   1.834623e+01
  -1.769557e+01  -5.771222e+01
   1.905906e+01  -1.015729e+02
   7.544844e+01   3.976096e+00
   1.153829e+00   4.045169e+01
  -2.777273e+01  -1.890847e+00
   2.901158e+01  -2.819415e+01
   6.711851e+01   2.993345e+01
   2.999025e+01   5.667164e+01
   3.407779e+01   1.005719e+02
  -9.898955e+01   1.311434e+02
  -1.764828e+02  -2.289875e+01
  -1.333581e+02  -6.710751e+01
  -4.727782e+01  -1.627465e+02
   2.861556e+01  -1.187919e+02
   7.241872e+01  -1.360768e+01
   9.109079e+01   2.930130e+01
   4.094285e+01   6.148843e+01
   3.962501e+01   7.561287e+00
   7.102909e+01   2.309350e+00
   1.326528e+01   3.911664e+01
  -5.737390e+01   8.400317e+01
  -7.745998e+01   2.275761e+01
  -7.389085e+01  -2.920833e+01
   9.999906e+00  -7.696933e+01
   1.219411e+02  -9.725286e+01
   1.346478e+02   1.514885e+01
   5.796405e+01   1.034308e+02
  -5.081499e+01   1.188573e+02
  -2.004343e+02   1.990232e+01
  -2.123103e+02  -3.773873e+01
  -8.233943e+01  -8.976550e+01
  -4.586966e+01  -9.118550e+01
   9.536642e+01  -9.713538e+01
   5.374973e+01  -6.841262e+01
   6.562658e+01  -8.257741e+01
   9.691758e+01  -7.889669e+01
   7.330552e+01   5.332497e+00
   7.305956e+01   1.015879e+02
   1.130805e+01   1.621072e+02
  -9.377414e+01   8.760858e+01
  -1.209923e+02  -3.553253e+00
  -9.412307e+01  -6.000566e+01
  -2.331340e+01  -1.462592e+02
   4.806722e+01  -7.405121e+01
   4.449387e+01  -3.084651e+01
   1.496240e+01   4.414515e+01
   1.055162e+01   2.708699e+01
  -1.068972e+00   4.461402e+01
   6.098675e+01   4.187206e+01
   4.060058e+01   1.610219e+01
  -7.125196e+01   6.774446e+01
  -9.579115e+01  -1.382924e+01
  -9.748282e+01  -2.313899e+01
  -2.778666e+01  -5.663861e+01
   6.273019e+01  -2.071657e+01
   9.301841e+01   4.846881e+00
   5.235991e+00   2.278277e+01
  -5.076595e+01   3.700723e+01
  -6.921966e+01  -3.398902e+01
  -2.000350e+01  -7.535639e+01
   5.888417e+01  -1.401639e+01
   4.202670e+01  -2.645403e+01
   6.409545e+00   3.009815e+01
   2.635680e+01   2.255365e+01
   3.398383e+01  -2.538590e+01
   2.698639e+00   1.247996e+01
   4.640842e+00   3.660938e+01
  -2.928186e+01   7.555461e+01
  -8.404625e+01   9.373582e+01
  -1.066152e+02   7.899922e+00
  -3.598765e+01  -3.564640e+01
  -1.784020e+00  -7.099495e+01
   5.518971e+01  -5.865492e+01
   4.626619e+01  -1.387552e+01
  -8.696090e+01  -1.128946e+01
  -1.138782e+02  -4.300612e+01
  -6.631189e+01  -7.119342e+01
   3.336742e+01  -8.674392e+01
   1.223010e+02  -5.075816e+01
   8.703583e+01  -1.709209e+01
  -2.313431e+00   3.207147e+01
  -1.672782e+01   7.186089e+01
  -1.226441e+01   2.563964e+01
   1.892651e-01  -2.063178e+01
   1.749003e+01  -1.791927e+01
   3.999771e+01   8.920659e+01
  -1.354276e+01   1.296353e+02
  -9.508049e+01   1.353879e+01
  -9.563918e+01  -6.575400e+01
   2.991661e+01  -1.062865e+02
   9.000549e+01  -8.785912e+01
   9.757742e+01   4.979282e+01
   7.014320e+01   1.017404e+02
  -4.139429e+00   4.955853e+01
  -1.640481e+01   3.357983e+01
  -3.306088e+01  -1.883712e+01
  -8.303577e+00  -2.774393e+01
  -1.742485e+01   6.386283e+00
   1.968344e+01  -4.185316e+01
  -3.497652e+01  -4.717941e+01
  -4.662303e+01  -5.115127e+01
   1.410385e+01  -3.506539e+01
   8.279877e+01   2.578633e+01
   5.609745e+01   5.751995e+01
  -6.740514e+00   6.326879e+01
  -3.253381e+01  -6.875743e-01
  -7.518458e+01  -1.454247e+01
  -1.570320e-01  -3.669453e+00
   1.260616e+01  -2.952558e+01
   3.996679e+01  -1.215019e+01
   6.642440e+00  -1.693751e+00
   2.876881e+01   4.155311e+01
   7.788726e+01  -2.332818e+01
   7.350557e+01   4.796560e+01
  -1.032516e+01   5.868281e+01
  -9.174302e+01   1.936776e+01
  -1.191798e+02   4.746769e+01
  -1.389217e+02  -7.221982e+01
  -5.149093e+01  -8.048440e+01
   8.481893e+01  -8.215794e+01
   1.294283e+02  -3.268100e+01
   7.884647e+01  -1.347453e+01
   1.698899e+01   6.422595e+01
  -5.450172e+00  -7.174429e-01
   2.487412e+01  -5.583039e+01
  -6.754194e+00   6.752216e+00
   2.599155e+01   6.773402e+01
  -3.233207e+01   2.996105e+01
  -4.821482e+01   2.968545e+00
  -6.671881e+01  -6.054935e+01
  -2.060856e+01  -4.027403e+01
   4.378577e+01  -6.042496e+01
   1.052531e+02   8.434326e+01
   2.092273e+01   5.881395e+01
  -4.316347e+01   7.655658e+01
  -7.060845e+01   3.204941e+00
  -5.769264e+00  -2.229520e+01
   4.443981e+01  -1.594827e+01
   2.982335e+01  -6.309646e+01
   2.336526e-01  -2.438117e+00
  -3.996262e+01   1.192992e+01
  -3.589459e+01   9.719453e+00
   5.477609e+01  -6.391987e+01
   1.059698e+02  -2.684766e+01
   4.753279e+01   3.588309e+01
  -1.968618e+01   5.390544e+01
  -2.860604e+01   9.543023e+01
  -1.824943e+01   3.370574e+00
  -3.781672e+00  -1.627313e+01
   1.734387e+01  -5.133202e+01
  -1.930195e+00  -2.294639e+00
   4.342343e+00   4.073101e+01
   1.331698e+01   2.598214e+01
  -1.989331e+01   1.338774e+00
  -1.772363e+01  -2.186055e+00
   1.186832e+01   1.524164e+01
   2.722582e+01  -1.470790e+01
  -1.366847e+01   1.952927e+01
   3.148814e+01  -2.954475e+01
   2.099591e+01  -4.456801e+01
   1.378285e+01  -3.379759e+01
  -1.357409e+01   2.100960e+01
   2.904591e+01   1.618983e+01
  -1.397429e+01  -1.770776e+00
  -7.509647e+00  -3.925956e+01
  -2.596688e+01  -1.853173e+01
   3.319426e+01  -1.789769e+01
   7.414759e+01   2.670303e+01
   2.103891e+01  -4.865232e+01
  -2.110101e+01   6.484635e+00
  -6.353888e+01  -3.590879e+00
  -1.415675e+01   2.081934e+01
   3.658729e+01   2.178334e+01
   2.927677e+00  -1.904275e+01
   1.353407e+00   2.078893e+01
  -5.768946e+01   1.258453e+01
