
 $NMID
 id='ANONYMOUS ', fmtdat='(2E16.6)'
 volume=1.0
 tramp=1.0
 $END
   3.853093e+03  -1.527224e+01
   2.433061e+03   2.285990e+03
  -3.471212e+02   2.362474e+03
  -1.690654e+03   1.098047e+03
  -8.445870e+02  -2.366982e+02
   3.623452e+02  -3.379118e+02
   5.560989e+02   3.766794e+02
  -6.797477e+01   7.512119e+02
  -6.606043e+02   5.248030e+02
  -8.028541e+02  -3.382143e+01
  -4.072620e+02  -6.885179e+02
   1.826667e+02  -8.031340e+02
   4.629831e+02  -6.168466e+01
   2.779870e+02   5.926584e+02
  -2.244470e+02   5.479001e+02
  -4.637016e+02   1.924563e+01
  -2.293046e+02  -5.975188e+02
   2.649837e+02  -6.210851e+02
   4.500652e+02  -2.053374e+02
   4.031606e+02   2.461816e+02
   4.872360e+01   3.654485e+02
  -1.403810e+02   1.865762e+02
  -1.215872e+02   5.502218e+01
   1.041087e+02   3.285049e+01
   3.485085e+02   2.122413e+02
   9.739884e+01   3.993708e+02
  -4.569939e+02   3.001151e+02
  -7.495875e+02  -1.169029e+02
  -2.845060e+02  -4.979819e+02
   4.056232e+02  -3.246982e+02
   6.437046e+02   8.279644e+01
   2.707064e+02   4.165457e+02
  -2.990146e+02   4.192345e+02
  -4.673144e+02   1.272345e+02
  -2.983593e+02  -1.867335e+02
  -3.219880e+01  -3.879875e+02
   1.131103e+02  -2.376260e+02
   9.231885e+01   1.928046e+02
  -1.921197e+02   2.889673e+02
  -3.100486e+02  -3.349671e+01
  -1.563365e+02  -6.155432e+02
   2.922646e+02  -5.157382e+02
   4.242761e+02  -5.811368e+00
   1.619305e+02   4.621343e+02
  -2.508541e+02   1.950771e+02
  -2.559741e+02  -2.966923e+02
   1.023864e+02  -5.037175e+02
   5.916775e+02  -5.070460e+01
   5.406730e+02   4.034824e+02
   6.576106e+01   4.893238e+02
  -3.476645e+02   2.751417e+02
  -5.441284e+02  -7.610809e+01
  -3.530738e+02  -3.887655e+02
   1.027321e+02  -2.765862e+02
   3.241047e+02  -3.217654e+01
   2.705898e+02   6.150361e+01
  -4.068405e+01   5.039605e+01
  -1.122958e+02  -1.110388e+02
   1.741714e+02  -7.944073e+01
   3.089803e+02   8.608061e+01
   1.326477e+02   2.316250e+02
  -1.987353e+02   2.420183e+02
  -3.646208e+02   9.752573e+01
  -2.007613e+02  -8.587847e+01
   3.596819e+01  -2.699146e+02
   2.372844e+02  -3.174001e+02
   3.669441e+02  -1.571397e+02
   2.563960e+02   1.920752e+02
   4.218421e+01   4.004091e+02
  -8.146990e+01   3.500703e+02
  -6.733970e+01   1.580120e+02
  -5.454843e+01   4.351410e+01
  -9.417906e+01   7.339381e+01
  -1.907546e+02   8.505124e+01
  -2.822184e+02  -1.229460e+02
  -6.193952e+01  -2.264789e+02
   8.611849e+01  -2.346239e+02
   2.406282e+02  -1.430757e-01
   1.514472e+02   2.772286e+02
   1.201128e+01   2.704521e+02
  -2.605784e+02   9.528053e+01
  -3.078764e+02  -1.728078e+02
  -2.143678e+02  -3.408710e+02
   9.886664e+01  -2.947263e+02
   1.716500e+02  -1.103255e+02
   1.290024e+02  -4.349165e+00
   1.116729e+02  -3.886872e+01
   2.744753e+02  -1.112316e+02
   4.292212e+02   6.975320e+01
   2.907064e+02   3.145716e+02
  -3.347703e+01   4.008434e+02
  -3.363156e+02   3.897859e+02
  -4.279522e+02   1.930088e+02
  -3.061880e+02  -9.206311e+01
   1.561014e+01  -2.285266e+02
   1.657276e+02  -1.976561e+02
   5.356583e+01  -6.025407e+01
  -1.202931e+02   6.669529e+01
  -1.592165e+02  -3.437935e+01
   2.254429e+01  -1.772348e+02
   1.413925e+02  -1.395721e+02
   1.590169e+02   8.410708e+01
  -5.132437e+01   1.625363e+02
  -1.718923e+02   6.200146e+01
  -1.394338e+02  -2.826702e+02
   1.165368e+01  -3.195792e+02
   2.494978e+02  -2.089271e+02
   3.718135e+02   2.908237e+01
   2.844045e+02   2.790724e+02
   6.540010e+01   2.888887e+02
  -1.133823e+02   1.722701e+02
  -1.643655e+02  -1.045351e+00
  -6.820643e+01  -3.875430e+01
   8.396972e+01   2.818922e+01
   5.189419e+01   1.260329e+02
  -1.058970e+02   8.127245e+01
  -1.804322e+02  -1.832496e+00
  -4.676585e+01  -7.391712e+01
   9.344731e+01   6.742536e+00
   6.586736e+01   4.809376e+01
  -1.148567e+02   1.172443e+02
  -3.322809e+02  -3.766844e+01
  -2.665751e+02  -1.290876e+02
  -2.237684e+01  -3.063628e+02
   2.367082e+02  -2.888534e+02
   2.546373e+02  -1.350534e+02
   1.616277e+02   5.279218e+01
  -5.032741e+01   1.416877e+02
  -7.736815e+01   1.486223e+01
   5.121651e+01  -5.068175e+01
   1.915018e+02  -5.648331e+00
   1.845245e+02   1.673580e+02
   7.801033e+01   2.333195e+02
  -1.128808e+02   1.478035e+02
  -1.280915e+02  -1.939869e+00
  -6.007543e+01  -7.809414e+01
   6.027245e+01   8.718488e+00
   8.258276e+01   1.007546e+02
  -1.318712e+02   1.044107e+02
  -2.547134e+02   3.157170e+01
  -2.227373e+02  -1.385185e+02
  -1.512682e+01  -2.027257e+02
   1.183604e+02  -1.843670e+02
   1.425576e+02  -2.025457e+01
   3.403654e+01   9.110948e+01
  -3.568471e+01   1.034203e+02
  -6.059762e+01   5.364422e+01
  -2.910468e+00  -3.557056e+01
   3.286066e+01   2.337380e+01
  -1.404741e+01  -1.798010e-01
  -6.669046e+01  -5.774159e+00
  -1.264143e+02  -6.695530e+01
   7.272561e+00  -1.417676e+02
   1.632500e+02  -1.429634e+02
   2.597010e+02   8.482543e+00
   2.071738e+02   1.690313e+02
   3.849959e+01   2.535190e+02
  -1.584651e+02   1.826148e+02
  -1.045843e+02   3.242250e+01
  -3.383438e+01  -7.132153e+01
  -2.057327e+01  -3.620536e+01
  -2.789994e+01   6.104081e+00
  -7.000020e+01   9.445393e+00
  -7.483335e+01  -4.021833e+01
   6.160072e+01  -9.612377e+01
   1.008562e+02  -5.488904e+01
   9.695778e+01   5.960185e+01
  -1.394934e+01   1.334327e+02
  -1.642082e+02   8.189680e+01
  -2.285229e+02  -6.325367e+01
  -5.919858e+01  -2.176790e+02
   1.279754e+02  -2.569280e+02
   2.946393e+02  -2.428708e+01
   2.665148e+02   7.685689e+01
   9.857252e+01   1.556354e+02
  -6.636028e+01   1.273749e+02
  -7.190346e+01   3.646164e+01
  -4.684022e+01   5.726178e+01
  -4.373088e+01   1.000246e+02
  -6.776296e+01   9.466108e+01
  -1.654341e+02   6.848815e+00
  -1.352747e+02  -1.784438e+02
  -5.755030e+01  -2.350462e+02
   1.192343e+02  -1.780488e+02
   1.827716e+02   2.023929e+01
   1.316636e+02   1.486674e+02
  -1.535328e+00   9.631087e+01
  -1.096004e+02   7.037250e+01
  -8.091441e+01   1.854273e+01
   1.284731e+01  -4.405859e+01
   2.267217e+01  -7.580900e+01
  -2.261896e+01  -4.382960e+01
  -6.082125e+01  -1.570891e+01
  -7.079618e+01  -4.978201e+01
   7.996398e+01  -2.058918e+01
   1.601446e+02   1.460346e+01
   1.388712e+02   7.142644e+01
   5.264713e+00   6.733272e+01
  -1.066007e+02   4.517835e+01
  -1.234502e+02  -1.340403e+00
  -2.451144e+01  -2.584383e+01
   6.439999e+01  -1.286482e+01
   8.837971e+01   2.176777e+01
   1.400955e+01   1.076820e+02
  -3.344168e+01   8.535344e+01
  -7.064895e+01   2.308743e+01
  -2.906664e+01  -4.209167e+01
  -6.541661e+01  -5.169629e+00
  -3.617817e+01   5.403176e+01
  -6.871503e+01   9.252672e+00
  -3.049345e+01  -1.858221e+01
   5.550839e+01  -1.615041e+02
   1.217919e+02  -1.213603e+02
   1.723522e+02   1.131523e+01
   1.218372e+02   8.540857e+01
  -1.420870e+01   8.967228e+01
  -9.918511e+01   1.072868e+02
  -2.273566e+01   7.795905e+00
   5.044753e+01  -2.401951e+00
   1.443068e+02   4.917545e+01
   5.682603e+01   1.043156e+02
  -6.238453e+01   1.023902e+02
  -2.000883e+02   1.809569e+01
  -1.676874e+02  -2.031549e+01
  -4.343895e+01  -1.314784e+02
   6.468333e+01  -8.028239e+01
   6.372633e+01  -1.623563e+01
  -3.858466e+01   6.079811e+01
  -1.022811e+02   2.616571e+01
  -4.171157e+01  -1.294337e+02
   9.564744e+01  -1.447826e+02
   1.289928e+02  -8.727047e+01
   8.911412e+01   1.085142e+02
   5.209059e+01   1.964576e+02
  -7.038795e+01   1.154099e+02
  -1.095327e+02   2.527595e+01
  -4.119292e+01  -1.375570e+02
  -3.726897e+00  -1.147694e+02
   5.087375e+01  -1.084755e+01
   2.163678e+01   2.089199e+01
  -3.416633e-01  -2.562467e+01
  -1.897193e+01  -6.090382e+01
   7.327105e+00   3.292950e+00
   2.403108e+01   1.069571e+02
   3.936025e+01   1.046401e+02
  -6.994094e+01   3.581404e+01
  -1.008992e+02  -2.301683e+01
  -1.259665e+02  -5.991110e+01
  -2.557123e+01  -5.038668e+01
   8.637494e+01   5.423612e+00
   6.881850e+01  -1.861559e+01
   1.782179e+01   4.880880e+01
  -2.889390e+01  -1.661524e+01
  -3.158831e+01   9.468914e+00
   3.137871e+01   1.286306e+01
  -3.169915e+01  -2.900283e+01
  -4.326183e+01  -2.411459e-01
  -1.074250e+02  -2.794571e+01
  -2.896545e+01  -7.406981e+01
   9.981443e+01  -1.326083e+02
   1.646829e+02  -2.430886e+01
   1.622294e+02   4.273504e+01
  -2.014183e+01   1.883365e+02
  -9.650307e+01   1.531707e+02
  -1.511837e+02   7.897378e+01
  -9.586496e+01  -9.834462e+00
   1.389197e+01  -1.222318e+01
  -8.837884e+00  -1.302905e+01
  -2.048320e+01  -1.330559e+01
  -5.852602e+01  -6.403927e+01
  -1.508902e+01  -1.042219e+02
   2.178911e+01  -4.603704e+01
   4.818633e+01   2.106781e+01
   5.776045e+01   1.103157e+02
  -4.855447e+00   8.495863e+01
  -4.586722e+01  -8.927301e+00
  -1.118668e+02  -6.579413e+01
  -3.143727e+01  -4.259373e+01
   5.715359e+01  -4.369741e+01
   8.676317e+01   2.340074e+01
   5.383493e+01   6.417232e+01
  -3.210793e+01   5.305351e+01
  -1.406053e+01   1.338998e+00
   3.090110e+01  -4.649848e+00
   7.758748e+01  -1.563921e+00
   5.058606e+01   5.568186e+01
  -9.924252e+01   7.795812e+01
  -1.042670e+02   6.411642e+01
  -7.954229e+01  -1.587577e+01
   2.657589e+00  -7.460539e+01
   4.870636e+01  -9.004413e+01
   5.364698e+01   5.197253e+01
   5.491537e+00   5.569096e+01
  -3.452970e+01   4.648358e+01
  -8.394583e+01   6.629451e-01
  -3.764697e+01  -3.658573e+01
   2.945352e+01  -3.887939e+01
   4.783201e+01   3.809599e+01
   1.368787e+01   6.063473e+01
   9.446184e+00   2.078877e+01
   1.422726e+01  -2.209455e+01
  -7.248785e+00  -4.492545e+01
  -5.313065e+00   1.571680e+01
   2.015494e+01   6.692783e+01
  -7.472966e+00   4.086799e+01
  -3.716588e+01  -5.672051e+01
  -2.517953e+01  -7.860898e+01
   3.866501e+01  -2.728627e+01
   2.116838e+01   3.072713e+01
   3.177063e+01   6.838134e+01
  -7.063536e+01   5.345488e+01
  -9.903274e+01  -3.710652e+01
  -5.071763e+01  -3.293632e+01
   3.445885e+01  -5.158199e+01
   6.173375e+01  -4.184948e+01
   1.990458e+01  -1.397724e+01
  -3.452092e+01  -3.938743e+01
  -3.342956e+01   9.828977e+00
   2.780381e+01  -5.478400e+01
   1.297706e+02   2.256503e+00
