
 $NMID
 id='ANONYMOUS ', fmtdat='(2E16.6)'
 volume=1.0
 tramp=1.0
 $END
  -3.931252e+03   1.679869e+02
  -2.543492e+03  -2.247137e+03
   2.993240e+02  -2.748548e+03
   1.986922e+03  -1.086584e+03
   9.446110e+02   3.228030e+02
  -3.680164e+02   5.083614e+02
  -6.983026e+02  -2.754738e+02
  -3.802468e+01  -8.560597e+02
   7.036718e+02  -6.923203e+02
   9.037455e+02   7.260884e+01
   4.769359e+02   6.603268e+02
  -1.554531e+02   8.437348e+02
  -5.009449e+02   2.208265e+02
  -3.373466e+02  -6.204944e+02
   2.193610e+02  -6.993272e+02
   5.341101e+02   2.735967e+01
   3.150032e+02   6.272010e+02
  -2.905733e+02   6.660541e+02
  -5.535442e+02   1.029894e+02
  -4.006357e+02  -2.964398e+02
  -5.380488e+01  -3.885020e+02
   1.894304e+02  -2.591842e+02
   1.710674e+02   5.839230e+00
  -8.870715e+01   2.735804e+01
  -3.497062e+02  -1.674809e+02
  -1.349739e+02  -4.765238e+02
   4.378914e+02  -3.977724e+02
   7.114563e+02   1.151135e+02
   3.521612e+02   4.724562e+02
  -3.620458e+02   3.528894e+02
  -6.426681e+02  -8.574147e+01
  -2.761666e+02  -4.624964e+02
   2.759666e+02  -4.184047e+02
   5.009874e+02  -1.670247e+02
   3.961452e+02   2.310950e+02
   6.288553e+01   4.300409e+02
  -1.071032e+02   2.629398e+02
  -1.444394e+02  -1.344816e+02
   1.966881e+02  -3.462036e+02
   3.641797e+02   3.144305e+01
   2.109950e+02   5.994325e+02
  -3.133658e+02   6.303255e+02
  -4.917222e+02   2.777564e+01
  -2.482384e+02  -4.851740e+02
   2.790594e+02  -2.642355e+02
   3.144525e+02   2.762912e+02
  -1.588119e+02   4.973814e+02
  -5.178370e+02   4.522136e+01
  -5.133757e+02  -4.641840e+02
  -1.708846e+02  -5.671262e+02
   3.268221e+02  -2.643297e+02
   5.235475e+02   9.465334e+01
   4.014264e+02   3.850268e+02
  -8.675103e+01   2.873316e+02
  -4.023438e+02   8.082741e+01
  -2.643827e+02  -1.053394e+02
   7.199403e+01  -8.354409e+01
   1.062856e+02   9.513325e+01
  -1.567690e+02   1.731799e+02
  -3.499557e+02  -5.270517e+01
  -1.523481e+02  -2.495855e+02
   1.626544e+02  -2.477271e+02
   3.626567e+02  -7.262683e+01
   2.132241e+02   6.602857e+01
  -1.761349e+01   2.350244e+02
  -2.567236e+02   3.617995e+02
  -2.828731e+02   1.930392e+02
  -2.818911e+02  -1.242099e+02
  -8.001049e+01  -3.964847e+02
   5.726550e+01  -3.978592e+02
   8.480603e+01  -1.693990e+02
   6.228544e+01  -2.385134e+01
   5.153917e+01  -7.139323e+01
   2.268717e+02  -1.140548e+02
   2.747453e+02   1.171215e+02
   1.138510e+02   2.428271e+02
  -7.395167e+01   2.295659e+02
  -2.210933e+02  -1.196043e+01
  -1.633717e+02  -2.295941e+02
   1.873744e+01  -3.052011e+02
   2.624257e+02  -9.033947e+01
   3.476176e+02   1.760408e+02
   2.339838e+02   3.265393e+02
  -4.971496e+01   3.249297e+02
  -2.424272e+02   1.706510e+02
  -1.715092e+02   1.866998e+01
  -1.183125e+02   2.717739e+01
  -2.860536e+02   7.236469e+01
  -4.300397e+02  -1.057086e+02
  -3.477291e+02  -2.871384e+02
   3.237979e+00  -4.290670e+02
   3.463633e+02  -4.494152e+02
   4.330969e+02  -2.221265e+02
   3.596574e+02   9.160825e+01
   5.326802e+01   2.701756e+02
  -1.492598e+02   2.359577e+02
  -1.779207e+01   2.886015e+01
   6.529488e+01  -5.786831e+01
   1.504613e+02   5.264296e+01
   1.708404e+01   1.614600e+02
  -1.635686e+02   1.166548e+02
  -1.162845e+02  -4.335777e+01
   2.604573e+01  -1.635966e+02
   2.040745e+02   2.066511e+01
   1.422603e+02   2.484248e+02
  -1.983526e+01   3.283606e+02
  -1.928023e+02   1.947585e+02
  -3.607650e+02  -4.516283e+01
  -3.071114e+02  -2.422909e+02
  -7.602002e+01  -3.082597e+02
   1.097209e+02  -1.620064e+02
   1.425675e+02   5.112683e+00
   4.729165e+01   4.818563e+01
  -7.340470e+01  -5.103175e+01
  -5.165673e+01  -1.451676e+02
   1.139331e+02  -8.439657e+01
   1.887409e+02   2.650766e+01
   4.150738e+01   7.479907e+01
  -6.044618e+01  -1.278965e+00
  -1.218223e+01  -1.090052e+02
   1.213372e+02  -8.827290e+01
   2.821918e+02   1.748152e+01
   2.532395e+02   1.702469e+02
   3.050264e+01   2.544740e+02
  -2.028658e+02   2.478766e+02
  -2.720720e+02   1.554493e+02
  -1.835839e+02  -4.713948e+01
   1.853810e+01  -1.726270e+02
   4.874379e+01  -3.616909e+01
  -2.932986e+01   1.170650e+02
  -1.814538e+02   3.329927e+01
  -2.030896e+02  -1.139772e+02
  -8.842025e+01  -2.006148e+02
   9.520067e+01  -1.550144e+02
   1.369498e+02   3.150504e+01
   3.115127e+01   5.109100e+01
  -3.677336e+01   4.233577e+01
  -6.758994e-01  -9.327255e+01
   9.966895e+01  -1.462223e+02
   1.881255e+02  -4.465600e+01
   2.150468e+02   1.359878e+02
   1.742613e+01   2.114722e+02
  -1.763050e+02   1.338858e+02
  -2.028914e+02   1.972524e+01
  -8.419402e+01  -8.629505e+01
   3.937722e+01  -1.340927e+02
   6.106420e+01  -9.210401e+01
  -2.139358e+00   1.891312e+01
  -4.063877e+01   6.210658e+00
   1.041133e+01  -1.468013e+01
   7.726073e+01   1.536125e+01
   9.581256e+01   7.779539e+01
   6.800430e+00   1.644704e+02
  -1.373520e+02   1.717058e+02
  -2.747249e+02   2.071256e+01
  -2.411065e+02  -1.549238e+02
  -3.740267e+01  -2.570345e+02
   1.503737e+02  -1.990306e+02
   1.709752e+02  -4.273632e+01
   7.021089e+01   3.917452e+01
   2.023349e+01   3.630513e+01
   2.622187e+01  -7.726566e+00
   8.382402e+01   4.647802e+00
   2.822116e+01   6.708052e+01
  -5.242426e+01   9.832555e+01
  -1.029833e+02   3.520185e+01
  -8.022209e+01  -5.215904e+01
   5.864156e+00  -1.156908e+02
   1.634120e+02  -8.625789e+01
   2.433314e+02   6.176368e+01
   1.098819e+02   2.043823e+02
  -1.329597e+02   2.416198e+02
  -2.860258e+02   1.194463e+02
  -3.089337e+02  -1.106871e+02
  -1.184795e+02  -1.285971e+02
   1.830624e+01  -1.395454e+02
   8.932542e+01  -9.594166e+01
   7.767130e+01  -1.036108e+02
   5.603419e+01  -4.811832e+01
   1.124332e+02  -5.092663e+01
   1.487737e+02   3.193707e+01
   1.394732e+02   1.851577e+02
   2.036944e+01   2.159609e+02
  -9.114158e+01   1.768329e+02
  -1.880847e+02  -3.065504e+01
  -1.465941e+02  -1.355956e+02
  -6.080851e+01  -1.843359e+02
   6.605755e+01  -7.767610e+01
   6.019797e+01   1.303836e+01
  -1.588347e+01   2.493146e+01
  -1.937577e+01   2.973063e+01
   1.939042e+01  -1.869042e+01
   4.812126e+01   7.834750e+00
  -8.788809e+00   7.834178e+01
  -4.432875e+01   8.686985e+01
  -1.798538e+02   5.804301e+01
  -1.321185e+02  -5.539990e+01
  -1.163754e+01  -7.110115e+01
   1.039850e+02  -3.880761e+01
   1.476999e+02  -2.490261e+01
   3.510566e+01   2.454148e+01
  -5.208893e+01   3.984093e+01
  -8.330217e+01  -2.614568e+01
  -2.898907e+01  -7.395110e+01
   4.837274e+01  -8.224139e+01
   5.746821e+01  -3.524287e+01
   9.073643e+01   7.004340e+01
   6.280593e+01   5.838751e+01
   8.965149e+01  -1.602421e+01
   9.059834e+01   1.823954e+01
   4.073914e+01   7.900411e+01
  -4.557449e+01   1.457002e+02
  -1.172098e+02   2.045256e+02
  -1.319614e+02   5.908274e+01
  -1.234950e+02  -8.232150e+01
   7.750408e+00  -1.096028e+02
   1.113213e+02  -1.113694e+02
   4.711555e+01  -2.720749e+01
  -9.833427e+01   4.020435e+01
  -1.418889e+02  -1.734338e+01
  -1.051146e+02  -1.991231e+01
   1.018144e+02  -8.837845e+01
   1.440998e+02   1.160898e+01
   1.371933e+02   2.729708e+01
   4.925332e+01   8.376894e+01
  -8.849222e+01   9.401287e+01
  -2.434417e+01  -1.946480e+01
   4.136186e+01  -1.572613e+01
   8.505381e+01   7.850962e+00
   5.501349e+01   1.158494e+02
  -7.604621e+01   1.723477e+02
  -1.634757e+02   7.224219e+01
  -1.710560e+02  -7.449001e+01
  -4.703069e+01  -1.973432e+02
   1.181783e+02  -1.582482e+02
   1.101404e+02   6.713389e+01
   4.295383e+01   1.382600e+02
  -1.090877e+01   9.227002e+01
  -7.335227e+01   2.709032e+01
  -4.961743e+01  -5.336343e+01
  -2.897101e+01   1.940372e+01
   2.659823e+01  -5.300716e+00
  -5.154801e+01  -1.746263e+01
  -8.955820e+01  -6.993929e+01
  -6.089803e+01  -7.480253e+01
   6.758693e+01  -8.862868e+01
   1.432939e+02   3.989609e+01
   1.079263e+02   8.655112e+01
   3.264044e+01   5.371496e+01
  -7.569460e+01   4.051807e+01
  -6.952684e+01  -3.219675e+01
  -1.939865e+01  -1.381088e+01
   5.732035e+01  -4.257648e+00
   1.302093e+01  -2.448939e+01
   3.330700e+01   1.363647e+01
  -3.013961e+01   3.761702e+01
   6.612495e+01   3.098780e+00
   5.311627e+01   4.790922e+01
   1.911996e+01   7.664802e+01
  -1.065971e+02   1.092790e+02
  -2.027310e+02   5.049325e+01
  -1.749532e+02  -5.764708e+01
  -2.225785e+01  -1.509434e+02
   9.984058e+01  -1.328022e+02
   1.469238e+02  -4.856298e+01
   1.287228e+02  -4.434009e+00
   3.617538e+01   2.104221e+01
  -2.275214e+01  -3.552947e+00
   3.626892e+00   1.047577e+01
  -6.821352e+00   3.586371e+01
   5.067244e+01   9.355816e+01
  -4.216196e+01   1.057723e+02
  -8.122533e+01  -3.795238e+01
  -6.944614e+01  -8.510654e+01
   1.938924e+01  -7.811431e+01
   7.212435e+01  -1.499823e+01
   1.290793e+02   8.394652e+01
   3.573159e+01   1.001366e+02
  -3.034530e+01   3.986437e+01
  -1.301689e+02   1.101627e+01
  -1.801619e+01  -7.332548e+01
   6.597427e+01  -6.973960e+01
   1.616115e+01  -3.491420e+01
  -3.156079e+01   1.109945e+01
  -9.431721e+01   2.572599e+01
  -1.462560e+01  -4.516228e+01
   8.578572e+01  -5.083651e+01
   1.240218e+02  -6.438965e+01
   3.468315e+01   3.276026e+01
  -1.307251e+01   5.545325e+01
  -5.085964e+01   8.759561e+01
  -6.675943e+01   1.180166e+01
   4.183236e+00  -5.264735e+01
   4.083131e+01  -6.439159e+01
   2.925604e+01   1.398297e+01
   3.621099e+01   2.901797e+01
  -2.430616e+01   6.121790e+01
  -1.623536e+01   8.476003e+00
  -2.859757e+01  -5.058047e+01
  -3.189869e+01   8.985605e+00
   2.642134e+01   2.439879e+01
  -2.443292e+01  -7.000001e+00
   3.003325e+01  -3.983057e+01
   1.574808e+01  -7.948865e+01
   6.709521e+01  -6.292881e+01
   2.098810e+01   7.246064e+01
   1.798126e+01   8.773403e+01
  -4.920500e+01   3.664194e+01
  -6.658071e+01  -6.092958e+01
  -2.091752e+01  -4.668686e+01
   5.045977e+01  -2.660132e+01
   9.537078e+01   7.431006e+01
   2.496089e+01   7.185495e+01
  -2.850890e+01   5.538553e+01
  -6.947792e+01  -3.707750e+01
  -1.308811e+01  -2.755289e+01
   3.450697e+01   1.921995e+01
   4.160058e+01   3.126031e+01
  -2.939399e+01   2.329996e+01
  -8.956515e+01   2.810395e+00
