
 $NMID
 id='ANONYMOUS ', fmtdat='(2E16.6)'
 volume=1.0
 tramp=1.0
 $END
  -2.910172e+03   1.194452e+02
  -2.013895e+03  -2.080752e+03
   1.396527e+02  -2.055923e+03
   1.337028e+03  -1.069509e+03
   7.558645e+02   1.069796e+02
  -3.040897e+02   2.990854e+02
  -6.406234e+02  -1.817788e+02
  -2.803435e+01  -7.897872e+02
   5.808443e+02  -6.180659e+02
   6.733678e+02  -1.469611e+01
   4.028938e+02   5.914732e+02
  -1.437858e+02   6.000437e+02
  -4.024112e+02   8.099517e+01
  -2.337932e+02  -5.513696e+02
   2.348439e+02  -5.524019e+02
   4.516704e+02  -2.036286e+01
   2.697139e+02   5.205410e+02
  -2.056333e+02   5.227594e+02
  -4.842934e+02   2.266193e+02
  -3.828145e+02  -2.156835e+02
  -4.793451e+01  -3.309523e+02
   1.058096e+02  -1.718431e+02
   8.686720e+01  -8.679301e+00
  -1.958309e+02   7.536795e+00
  -3.306425e+02  -1.703080e+02
  -1.070272e+02  -3.693143e+02
   4.318789e+02  -2.478649e+02
   6.241166e+02   1.291467e+02
   2.489158e+02   4.688896e+02
  -3.818444e+02   2.955553e+02
  -5.784232e+02  -8.376137e+01
  -2.331178e+02  -4.791947e+02
   3.045921e+02  -3.811445e+02
   4.351280e+02  -1.574902e+02
   3.206137e+02   1.902079e+02
   4.215743e+01   3.473281e+02
  -1.078716e+02   1.980430e+02
   3.138325e+00  -1.779260e+02
   2.046490e+02  -3.124471e+02
   3.113215e+02   8.585812e+01
   8.593504e+01   5.834348e+02
  -3.088346e+02   4.940855e+02
  -4.664199e+02  -1.461217e+01
  -1.217589e+02  -3.982356e+02
   2.564250e+02  -1.690397e+02
   2.358265e+02   3.001808e+02
  -1.401605e+02   4.544298e+02
  -5.054668e+02   2.395349e+01
  -4.929151e+02  -3.788266e+02
  -1.140991e+02  -5.159910e+02
   3.105998e+02  -2.541392e+02
   4.811305e+02   7.956429e+01
   3.201709e+02   3.279849e+02
  -1.278692e+02   2.798550e+02
  -3.469705e+02   4.326569e+01
  -1.566324e+02  -1.005474e+02
   7.191854e+01  -4.296884e+01
   7.669602e+01   1.410858e+02
  -1.476498e+02   1.017186e+02
  -2.944509e+02  -5.923791e+01
  -1.504880e+02  -2.230080e+02
   1.985103e+02  -2.426256e+02
   3.189138e+02  -1.448188e+02
   2.198516e+02   7.925736e+01
   3.570786e-01   2.338381e+02
  -2.318668e+02   3.487670e+02
  -3.518268e+02   1.714095e+02
  -2.309351e+02  -1.634780e+02
  -1.569038e+01  -3.519832e+02
   8.649745e+01  -2.731008e+02
   4.206084e+01  -1.163902e+02
   1.846219e+01  -6.918008e+01
   5.404266e+01  -1.219471e+02
   1.945211e+02  -5.822446e+01
   2.694993e+02   5.632547e+01
   9.571026e+01   2.704342e+02
  -7.938325e+01   2.254919e+02
  -1.935728e+02  -3.266514e+01
  -1.960061e+02  -2.375215e+02
   9.696524e+00  -2.279171e+02
   2.575680e+02  -7.537085e+01
   3.247315e+02   1.755319e+02
   1.357396e+02   3.473831e+02
  -1.066821e+02   2.571679e+02
  -1.589435e+02   1.565060e+02
  -1.018303e+02   6.268237e+01
  -1.449818e+02   2.672910e+01
  -2.166322e+02   7.872748e+01
  -4.121846e+02  -5.030940e+01
  -2.714394e+02  -2.308381e+02
  -7.526778e+00  -3.979419e+02
   3.320157e+02  -3.743064e+02
   3.625509e+02  -1.882167e+02
   2.612272e+02   3.762059e+01
   4.217855e+01   1.836431e+02
  -9.906081e+01   1.981527e+02
  -1.818265e+01  -3.678836e+01
   1.264933e+02  -4.258262e+01
   1.294665e+02   2.625066e+01
   2.476735e+01   1.429614e+02
  -1.509362e+02   6.285437e+01
  -8.045922e+01  -9.370306e+01
   2.511228e+01  -1.419182e+02
   2.254057e+02  -2.275236e+01
   1.719150e+02   2.266983e+02
  -2.592177e+01   3.668675e+02
  -1.949115e+02   1.695627e+02
  -2.884288e+02  -1.433513e+01
  -2.948695e+02  -2.099812e+02
  -1.029368e+02  -2.647669e+02
   1.155042e+02  -1.292752e+02
   1.207043e+02   1.529487e+01
   4.676702e+01   3.237772e+01
  -1.158380e+02  -7.690685e+01
  -1.007096e+01  -1.319495e+02
   1.390197e+02  -7.268551e+01
   1.548084e+02   2.424060e+01
   4.915821e+01   5.713847e+01
  -7.908737e+01  -1.429988e+01
  -5.191155e+01  -9.874970e+01
   8.238573e+01  -1.242251e+02
   2.941516e+02   2.772196e+01
   2.414143e+02   1.359575e+02
   5.483516e+01   2.128561e+02
  -1.612805e+02   2.521554e+02
  -2.719257e+02   9.162739e+01
  -1.426592e+02  -3.332659e+01
   1.993118e+01  -9.101532e+01
   1.105711e+02   4.885021e+01
  -7.711708e+01   1.106032e+02
  -1.878765e+02   1.957132e+01
  -1.812330e+02  -1.058745e+02
  -2.832653e+01  -1.590868e+02
   8.838077e+01  -1.036499e+02
   1.034281e+02  -2.072780e+01
   5.981960e+01   1.048728e+01
  -3.413718e+01  -2.004254e+01
   6.604086e-01  -6.648694e+01
   1.112090e+02  -1.324634e+02
   1.838722e+02  -1.565856e+01
   1.702420e+02   1.634014e+02
   7.046540e+01   1.794083e+02
  -1.516432e+02   1.505522e+02
  -1.587986e+02   9.406912e+00
  -4.842578e+01  -9.898798e+01
   7.273928e+01  -7.279355e+01
   4.217362e+01  -6.426283e+01
  -3.760046e+00   2.041038e+01
  -6.674450e+01  -3.506750e+00
   5.653930e+01  -3.332637e+01
   9.869316e+01  -5.235042e+01
   8.840547e+01   6.159749e+01
   3.588967e+01   1.351640e+02
  -1.336157e+02   1.602713e+02
  -1.951108e+02   1.100945e+01
  -1.899792e+02  -1.637464e+02
  -2.658311e+01  -2.345503e+02
   8.799221e+01  -1.175835e+02
   1.414719e+02  -1.300913e+01
   6.026013e+01   3.037610e+01
   4.416124e+01   4.916920e+01
   7.102778e+01   2.546412e-01
   7.434884e+01  -5.360753e+00
   5.603939e+01   6.483949e+01
  -4.254152e+01   1.154361e+02
  -1.098438e+02   5.887670e+01
  -5.508557e+01  -3.529591e+01
   1.661382e+01  -7.780884e+01
   1.287067e+02  -9.529076e+01
   2.237000e+02   5.008022e+01
   1.269345e+02   1.873511e+02
  -6.774073e+01   2.278750e+02
  -2.513720e+02   5.100378e+01
  -2.109473e+02  -3.762919e+01
  -1.270557e+02  -1.978786e+02
   5.049819e+01  -1.158142e+02
   1.249886e+02  -6.246899e+01
   6.975718e+01  -3.108531e+01
   4.682266e+01  -1.172642e+02
   4.340920e+01  -9.369434e+01
   1.362503e+02  -2.183844e+01
   1.555136e+02   1.285618e+02
   4.396693e+01   2.057835e+02
  -1.276155e+02   1.483254e+02
  -1.527093e+02  -3.858701e+00
  -1.267434e+02  -1.001134e+02
  -6.222862e+01  -1.293329e+02
   8.720175e+01  -8.813883e+01
   5.436937e+01   3.991388e+01
   1.687281e+01  -4.130992e+00
  -3.881215e+01   2.836148e+01
   4.479365e+01   1.965995e+01
   9.705489e+01   1.417497e+01
   2.861578e+01   5.214751e+01
  -9.525785e+01   5.397427e+01
  -1.624122e+02  -1.562380e+01
  -1.585505e+02  -5.908436e+01
   8.349219e+00  -8.068149e+01
   1.155815e+02  -9.289521e+01
   1.134002e+02  -1.206357e+01
   4.862840e+01   2.766726e+01
  -6.780055e+01   4.530938e+01
  -5.089024e+01  -1.383204e+01
  -3.634800e+00  -6.808643e+01
   5.290245e+01  -8.847433e+01
   4.604041e+01   9.457781e+00
   1.051458e+01   4.291994e+01
   1.967296e+01   3.535689e+01
   4.834468e+01  -4.733484e+00
   7.128534e+01   1.408020e+01
   7.766812e+01   3.351238e+01
  -3.028704e+00   1.212127e+02
  -1.228480e+02   1.418123e+02
  -1.605575e+02   1.173923e+01
  -1.276892e+02  -5.351750e+01
  -3.474277e+01  -1.231597e+02
   7.760251e+01  -5.810947e+01
   1.576936e+01   1.012572e+01
  -7.317919e+01   1.453675e+01
  -1.296040e+02  -1.153616e+01
  -1.030743e+02  -6.395302e+01
   9.615077e+01  -8.664011e+01
   1.917416e+02  -6.063693e+00
   1.843489e+02   2.960179e+01
   5.241856e+01   1.119653e+02
  -6.247399e+01   6.060171e+01
  -2.770473e+01  -1.657728e+00
   1.153899e+01  -2.388640e+01
   1.290626e+02  -4.164021e+01
   5.730233e+01   8.440722e+01
  -8.348379e+01   1.371733e+02
  -1.439838e+02   3.673164e+01
  -1.101969e+02  -1.105293e+02
   1.437551e+01  -1.587570e+02
   9.997162e+01  -1.190840e+02
   1.395898e+02   1.341660e+01
   6.287760e+01   1.282444e+02
  -2.349056e+00   1.347547e+02
  -5.693579e+01   2.909629e+01
  -3.847479e+01  -3.859468e+01
  -1.049762e+01  -1.938569e+01
  -1.621983e+00   3.934972e+01
  -7.336679e+01  -2.114542e+01
  -3.802785e+01  -7.846683e+01
  -4.449712e+01  -1.005351e+02
   7.648704e+01  -1.078659e+02
   1.185277e+02   5.526019e+01
   1.143314e+02   2.585976e+01
  -4.299762e+01   2.023842e+01
  -8.339566e+01   5.366324e+01
  -1.382242e+02   1.358382e+01
  -1.949251e+01  -1.215468e+01
   5.549548e+01  -7.068576e+01
   6.816351e+01  -2.011059e+01
  -2.590031e+01   2.103435e+01
   3.147832e+01  -2.463069e+01
   5.435224e+01  -1.370631e+01
   8.868586e+01   4.343154e+01
   6.145438e-01   4.473169e+01
  -7.912922e+01   1.318381e+02
  -1.693166e+02   1.136365e+02
  -1.254740e+02  -1.592539e+01
  -2.623961e+01  -1.348323e+02
   7.539945e+01  -1.448690e+02
   1.303265e+02  -8.924620e+01
   6.510074e+01   1.264424e+01
   5.440087e+01   9.294452e+00
  -2.941543e+01   5.576810e-01
   4.000698e+00   3.596825e+01
   4.973428e+01   7.261608e+01
   3.050597e+01   4.652040e+01
   2.056613e+01   2.594035e+01
  -7.250373e+01  -3.564434e+01
  -6.798999e+01  -5.279687e+01
  -2.156457e+01  -9.531045e+01
   6.885351e+01  -1.321355e+01
   8.134770e+01   6.190580e+01
   2.841443e+01   1.035321e+02
  -7.559595e+01   1.784148e+00
  -8.604200e+01  -3.025535e+00
  -5.387936e+01  -2.921444e+01
   3.398293e+01  -5.168615e+01
   2.456012e+01  -2.413556e+01
  -1.893497e+01   9.499868e-01
  -5.756941e+01   5.935445e+00
  -3.470622e+01   1.015706e+00
   6.623456e+01  -8.003225e+01
   1.085220e+02  -5.282866e+01
   6.035986e+01  -1.952090e+00
  -3.156454e+00   9.115302e+01
  -3.730901e+01   6.249708e+01
  -3.337325e+01   1.167130e+01
   2.545194e-01  -2.023385e+01
   4.206755e+01  -5.564024e+01
   9.562003e+00   2.782486e+01
   9.247454e+00   3.815005e+01
  -4.167550e+01   3.148818e+01
  -7.605269e+01  -3.018173e+01
  -4.612323e+01  -2.298749e+01
  -9.074647e+00  -5.279612e+00
   3.745439e+01   1.637027e+01
  -2.140591e+01   2.416549e+01
   3.015724e+01  -4.100183e+01
   2.081145e+01  -4.176595e+01
   5.283716e+01  -6.911424e+01
   4.634082e+01   4.605790e+01
   1.253077e+01   6.799834e+01
  -5.050598e+01   3.633980e+01
  -4.783462e+01  -1.480196e+01
  -3.577093e+01  -3.297450e+01
   4.306830e+01  -2.807469e+01
   1.097801e+02   4.257239e+01
   5.391996e+01   7.193646e+01
  -5.320967e+00   5.355837e+01
  -5.406100e+01  -1.334505e+01
  -2.647442e+01   1.216798e+01
   5.041293e+01  -3.650686e+00
   1.170548e+01   3.227441e+01
  -1.621740e+01   1.456367e+01
  -8.746617e+01   7.123858e-01
