
 $NMID
 id='ANONYMOUS ', fmtdat='(2E16.6)'
 volume=1.0
 tramp=1.0
 $END
  -1.803304e+03   8.198114e+00
  -1.280076e+03  -1.146649e+03
   1.660160e+02  -1.315119e+03
   1.008154e+03  -5.251658e+02
   6.578850e+02   1.612345e+02
  -2.626867e+02   1.994581e+02
  -4.503818e+02  -2.192946e+02
  -1.063908e+02  -4.423407e+02
   3.892025e+02  -3.663904e+02
   4.676615e+02  -1.219074e+01
   2.439217e+02   4.322074e+02
  -2.121902e+00   4.248564e+02
  -2.010090e+02   3.350700e+01
  -1.981790e+02  -3.650654e+02
   1.374713e+02  -3.584262e+02
   2.743852e+02  -2.294223e+01
   4.960797e+01   3.773838e+02
  -2.039682e+02   3.428752e+02
  -2.526063e+02   9.188837e+01
  -1.104835e+02  -1.558278e+02
  -3.946256e+01  -2.185587e+02
   1.278213e+02  -1.331847e+02
   1.036582e+02   1.816315e+01
  -1.009413e+02   2.008547e+01
  -1.961230e+02  -6.133925e+01
  -4.844122e+00  -2.227792e+02
   2.691314e+02  -1.458785e+02
   4.452955e+02   3.918540e+01
   1.465393e+02   2.803852e+02
  -1.212451e+02   2.107501e+02
  -3.631684e+02  -4.730139e+01
  -1.508778e+02  -2.383454e+02
   1.335668e+02  -2.210578e+02
   2.575575e+02  -8.847719e+01
   1.761839e+02   1.225709e+02
   5.906331e+01   1.632940e+02
  -5.544696e+01   1.433332e+02
  -3.104792e+01  -7.586158e+01
   9.936870e+01  -1.465582e+02
   2.127589e+02   7.887710e+01
   2.087462e+01   3.543623e+02
  -1.543142e+02   3.957444e+02
  -2.747218e+02   5.150188e+01
  -1.047874e+02  -2.423435e+02
   1.738296e+02  -1.345046e+02
   1.443061e+02   1.475862e+02
  -5.486597e+01   2.790346e+02
  -3.433069e+02   4.928115e+01
  -3.279209e+02  -2.201708e+02
  -7.150324e+01  -2.768125e+02
   1.798046e+02  -1.638507e+02
   3.511946e+02   5.152350e+01
   1.459394e+02   1.486207e+02
  -7.053786e+01   1.218414e+02
  -2.109980e+02   4.450937e+01
  -1.159289e+02  -1.097256e+02
   5.071654e+01  -3.216139e+01
   7.626971e+01   7.889188e+01
  -9.833206e+01   8.076320e+01
  -1.666582e+02   3.297185e+01
  -2.600444e+01  -1.803465e+02
   1.405466e+02  -1.229096e+02
   1.895432e+02  -3.455289e+01
   1.063932e+02   1.083669e+02
  -3.239932e+01   1.457672e+02
  -2.066086e+02   1.624730e+02
  -1.736132e+02   7.018967e+01
  -9.156157e+01  -8.391037e+01
  -7.591953e+01  -1.986022e+02
   1.041200e+02  -2.093102e+02
   7.337599e+01  -7.398092e+01
   5.174346e+00   1.448683e+00
   3.145966e+01  -5.071561e+01
   1.043989e+02  -6.380037e+01
   9.037365e+01   7.896745e+01
   2.433117e+01   1.564157e+02
  -9.922258e+01   1.272884e+02
  -1.494486e+02   1.038639e+01
  -3.248745e+01  -1.371251e+02
   2.286018e+01  -1.288788e+02
   1.637907e+02   1.573626e+01
   1.466634e+02   1.628593e+02
   8.355017e+01   1.716662e+02
  -2.747637e+01   1.941650e+02
  -9.141106e+01   6.807779e+01
  -1.047960e+02  -3.657051e+00
  -7.861707e+01  -8.200549e+00
  -1.376670e+02   3.958073e+01
  -1.812111e+02  -3.834515e+01
  -1.742797e+02  -1.825727e+02
   1.254588e-02  -2.430961e+02
   2.127188e+02  -2.141481e+02
   2.510513e+02  -5.800723e+01
   1.906161e+02   3.163623e+01
  -4.807844e+00   1.131820e+02
  -2.554369e+01   7.275821e+01
  -7.462454e+00   3.106894e+01
   8.805307e+01  -6.086224e+00
   8.808654e+01  -1.459074e+01
   7.905569e+00   1.105141e+02
  -5.087331e+01   7.643536e+01
  -7.338852e+01  -1.878111e+01
   1.284450e+01  -9.319366e+01
   1.019150e+02   1.493565e+00
   5.324177e+01   1.296084e+02
  -5.011088e+01   1.634638e+02
  -1.218992e+02   1.390188e+02
  -1.466408e+02  -9.930912e+00
  -1.556478e+02  -1.257129e+02
  -4.033651e+01  -1.391492e+02
   9.565091e+01  -8.148016e+01
   9.077010e+01  -2.740875e+01
   3.834443e+01  -4.122281e+00
  -5.798118e+01  -3.585709e+01
  -2.579342e+01  -7.855168e+01
   5.432833e+01  -3.502050e+01
   4.374509e+01   5.598512e+01
   3.567189e+01   4.512702e+01
  -4.534961e+01   1.355314e+01
   2.680163e+01  -6.695760e+01
   1.337568e+02  -7.613702e+01
   1.330092e+02  -3.669656e+01
   9.300717e+01   1.107162e+02
  -1.441492e+00   1.081324e+02
  -1.370249e+02   1.013167e+02
  -1.440640e+02   5.152198e+01
  -4.804429e+01  -4.243679e+01
  -1.431336e+01  -4.055577e+01
   4.368988e+00  -1.530824e+00
  -2.027699e+01   1.817119e+01
  -1.063048e+02   5.745340e+01
  -1.139985e+02  -3.470720e+01
  -7.352163e+01  -1.024215e+02
   4.469184e+01  -8.812269e+01
   8.151561e+01   2.322800e-01
   5.949284e+00   9.279974e+00
  -1.891743e+01  -2.682361e+01
  -1.975629e+01  -1.139732e+02
   4.735926e+01  -6.290740e+01
   1.019712e+02   6.592658e+00
   8.151326e+01   9.272957e+01
   1.029916e+01   1.440942e+02
  -1.059393e+02   9.873723e+01
  -1.084180e+02   2.628240e+01
  -3.426909e+01  -8.327398e+01
   5.463607e+01  -5.480623e+01
   2.494556e+01  -1.543857e+01
   3.890934e+01  -1.182896e+00
  -2.503519e+01   3.938311e+01
   6.023513e+01   3.418502e+01
   5.097933e+01   2.287276e+01
   2.952341e+01   5.567693e+01
   3.430093e+00   1.031013e+02
  -5.927262e+01   7.262147e+01
  -1.087212e+02   5.180368e+00
  -9.635246e+01  -1.194092e+02
  -3.231412e+01  -1.387057e+02
   6.909157e+01  -9.087960e+01
   9.227282e+01  -3.660434e+01
   3.541922e+01  -1.922945e+00
  -3.160085e+00   2.876616e+01
   1.990298e+01   2.672181e+01
   3.792159e+01   7.280652e+00
   4.093743e+01   4.078777e+01
  -2.334424e+01   8.221383e+01
  -5.202642e+01   2.260179e+01
  -5.028234e+01  -4.213136e+01
   2.783129e+01  -6.085285e+01
   1.076046e+02  -4.436194e+01
   1.458205e+02   5.076160e+01
   4.542509e+01   1.082623e+02
  -4.105678e+01   9.635269e+01
  -1.261806e+02   5.344631e+01
  -1.699295e+02  -7.167679e+01
  -5.515877e+01  -7.622513e+01
   3.001542e+01  -8.164790e+01
   1.544691e+01  -7.312032e+01
   3.562720e+01  -4.487012e+01
   5.574674e+01  -7.167726e+01
   2.543171e+01  -5.033657e+01
   8.007344e+01   1.211155e+01
   2.171545e+01   8.552146e+01
   1.472829e+01   1.273596e+02
  -6.431827e+01   9.640345e+01
  -8.620399e+01  -1.647164e+00
  -4.899498e+01  -6.422967e+01
  -2.805394e+00  -6.648989e+01
   2.331892e+01  -7.028792e+01
   3.280528e+01  -1.292093e+01
   1.625215e+01  -4.859286e+01
   1.214611e+01  -2.067184e+01
  -2.041856e+01  -1.953210e+01
   5.540038e+01   2.449754e+01
   4.442430e+01   5.151949e+01
  -3.008891e+01  -1.617512e+01
  -8.387566e+01   7.766164e+00
  -6.452831e+01  -3.318942e+01
   1.087930e+01  -4.638572e+01
   3.235040e+01  -7.315699e+01
   1.038002e+02   6.016821e+00
   7.331718e+01   2.710317e+01
  -2.138365e+01   2.966034e+01
  -8.418411e+00   1.218277e+01
  -2.202937e+01  -4.165561e+01
   3.033365e+01  -4.112442e+01
   2.493473e+01  -1.828179e+01
   2.050553e+01  -5.170179e+00
   2.628707e+00  -6.666853e+00
   1.850392e+01  -4.320293e+00
   3.199445e+01  -2.319213e+01
   6.044754e+01   5.054332e+01
  -2.620962e+01   7.913032e+01
  -8.719868e+01   7.753899e+01
  -7.650418e+01  -1.897643e+00
  -6.514211e+01  -7.755051e+01
  -4.627726e+01  -6.662181e+01
   5.558307e+01  -3.596138e+01
   1.835811e+01  -2.739334e+01
  -5.715882e+01   3.772409e+01
  -5.118868e+01  -7.057761e+01
  -2.313333e+01  -7.544645e+01
   3.392083e+01  -7.879869e+01
   1.124864e+02  -3.476495e+01
   1.094337e+02  -2.579278e+00
   5.249809e+01   5.818693e+01
  -7.280064e+01   4.609549e+01
  -3.533654e+00   1.093853e+01
   2.179634e+01  -1.684715e+01
   6.060261e+01   3.231431e+01
   7.562499e+00   6.424022e+01
  -4.127493e+01   4.358323e+01
  -8.133163e+01   2.562710e+01
  -7.505408e+01  -5.726608e+01
  -1.551409e-01  -8.561557e+01
   7.717519e+01  -6.357029e+01
   4.531278e+01   9.113784e+00
   2.128564e+01   5.688355e+01
  -1.245389e+01   6.323729e+01
  -3.647520e+01   2.260717e+00
  -2.713491e+01  -4.062097e+01
  -1.125854e+01   2.719778e+01
  -3.612271e+00  -1.015393e+01
   7.896476e+00   1.164639e+01
  -1.277095e+01  -7.406852e+01
  -1.918526e+01  -4.992311e+01
   2.298814e+01   6.267334e+00
   9.462203e+01   4.820788e+01
   6.758143e+01   3.063547e+01
  -2.341210e+01   4.232651e+01
  -6.392898e+01  -4.661837e-01
   2.210254e+01   2.477671e+01
  -3.025330e+01  -1.712492e+01
   2.992863e+01   7.105952e+00
  -1.404995e+01   8.149393e+00
   1.776852e+01  -3.739436e+01
   1.790167e+01  -1.533752e+00
   6.500268e+01  -1.031122e+01
   3.500058e+01   1.834095e+00
   2.210444e+01   5.618045e+01
  -5.173769e+01   3.172648e+01
  -1.001846e+02   1.368023e+01
  -1.004999e+02  -1.017856e+01
  -6.238121e+01  -8.729499e+01
   2.553088e+01  -7.624015e+01
   5.712381e+01  -7.269534e+01
   8.962778e+01   1.978939e+00
  -6.592958e+00   5.636575e+00
  -4.806674e+01   2.705836e+01
  -2.420832e+01  -9.167682e+00
   2.367338e+01   1.345846e+01
  -4.637061e+01   5.505715e+01
  -1.872779e+01   1.104826e+01
  -6.737636e+00  -1.674871e-01
  -9.994618e+01  -7.087062e+01
  -4.425402e+01  -7.003783e+01
   5.947541e+01  -3.654489e+01
   3.534671e+01  -8.657343e+00
   5.701595e+01   7.735094e+01
  -2.221008e+01   3.420068e+01
  -4.440677e+01  -5.393379e+01
  -3.305089e+01  -3.985895e+01
   3.204373e+01  -4.005799e+01
   2.882211e+01   2.847792e+01
  -4.133296e+01   8.547236e+00
  -3.115564e+01   4.830410e+00
   6.678694e+00  -3.635441e+01
   6.543043e+01  -2.726016e+01
   8.396198e+01  -2.083182e+01
   3.499388e+01   1.408233e+01
  -1.010314e+01   2.330152e+01
  -9.350133e-02   3.662482e+01
  -2.052748e+01  -2.738540e+01
  -2.888273e+00  -7.739478e+00
   2.917725e+01  -3.982808e+01
  -9.076425e-01   5.594089e+00
   2.694673e+00  -1.047180e+00
  -9.352172e+00   2.374169e+01
  -4.185511e+00  -1.461818e+01
  -2.121707e+01   1.474124e-01
   4.934866e+00   3.260531e+01
  -1.778383e+01  -4.117148e+00
   2.566148e+01  -1.187719e+01
   5.087965e+01   5.614415e+00
  -6.455841e+00  -3.744822e+01
   1.979108e+01  -9.783108e-01
   7.161599e+01   4.610303e+01
  -2.129986e+01  -2.393793e+01
  -1.625329e+00   3.149040e+01
   5.135470e+00  -3.681335e+01
  -4.442724e+00  -2.422999e+01
   5.150145e+01  -1.580010e+01
   2.971334e+01  -4.003411e+00
   5.713133e+00   5.253750e+01
  -5.999172e+01   6.157639e+01
  -8.445119e+01  -1.325125e+01
  -3.187156e+00  -4.067003e+00
   3.268694e+01  -3.853951e+01
   3.538284e+01   2.529242e+01
   1.181781e+01   5.240625e+01
  -6.083513e+01   7.204219e+00
