
 $NMID
 id='ANONYMOUS ', fmtdat='(2E16.6)'
 volume=1.0
 tramp=1.0
 $END
  -4.275622e+03   2.358145e+02
  -2.643626e+03  -2.480407e+03
   3.335161e+02  -2.849939e+03
   1.910804e+03  -1.014085e+03
   1.150760e+03   5.152185e+02
  -5.078002e+02   5.916526e+02
  -7.900067e+02  -3.927227e+02
  -9.686340e+01  -1.038038e+03
   7.003117e+02  -7.886156e+02
   9.069218e+02   2.222021e+01
   4.850219e+02   8.018138e+02
  -1.182122e+02   8.261837e+02
  -6.041337e+02   1.715045e+02
  -4.529309e+02  -6.528705e+02
   2.417297e+02  -7.426024e+02
   6.330868e+02  -4.245302e+01
   3.117833e+02   6.578694e+02
  -2.871532e+02   7.246885e+02
  -5.855607e+02   1.622903e+02
  -4.900217e+02  -3.619478e+02
  -8.487216e+01  -4.401495e+02
   2.801925e+02  -2.854159e+02
   2.301998e+02  -6.426405e+01
  -1.333028e+02   9.199353e+01
  -3.872825e+02  -1.333032e+02
  -1.878063e+02  -4.464427e+02
   4.462887e+02  -3.474132e+02
   7.926110e+02   1.566936e+01
   4.076490e+02   5.408841e+02
  -3.400179e+02   4.609536e+02
  -7.312450e+02  -5.674839e+01
  -4.012762e+02  -4.657639e+02
   2.602815e+02  -4.865788e+02
   5.284304e+02  -1.878236e+02
   4.259647e+02   2.567772e+02
   6.268421e+01   4.191417e+02
  -1.773450e+02   2.818612e+02
  -1.429337e+02  -1.978232e+02
   1.745935e+02  -4.341412e+02
   4.113449e+02   3.735914e+01
   2.065715e+02   6.411297e+02
  -4.137575e+02   6.502345e+02
  -5.542587e+02   4.975128e+01
  -2.721671e+02  -5.121679e+02
   2.621479e+02  -2.696276e+02
   3.693015e+02   2.845268e+02
  -2.076271e+01   5.055169e+02
  -4.912344e+02   1.580132e+02
  -6.580596e+02  -3.590412e+02
  -1.790315e+02  -6.084534e+02
   3.917802e+02  -3.571392e+02
   5.903003e+02   8.227285e+01
   3.636691e+02   3.343489e+02
  -1.141069e+02   2.785110e+02
  -4.023641e+02   6.974470e+01
  -2.381094e+02  -1.916236e+02
   9.801924e+01  -1.424692e+02
   1.632660e+02   1.423659e+02
  -1.519639e+02   1.736049e+02
  -3.659100e+02  -3.229672e+01
  -1.856013e+02  -2.944029e+02
   1.679482e+02  -2.887687e+02
   3.436575e+02  -7.817050e+01
   2.628304e+02   1.301596e+02
  -4.853198e+01   2.945652e+02
  -2.705276e+02   3.505698e+02
  -3.186229e+02   2.058944e+02
  -2.354553e+02  -1.962057e+02
  -8.429780e+01  -4.391795e+02
   7.573120e+01  -3.422213e+02
   1.091314e+02  -1.204202e+02
   6.440962e+01  -3.173062e+01
   4.751714e+01  -1.328943e+02
   2.264781e+02  -1.155283e+02
   2.931567e+02   7.768578e+01
   1.878427e+02   2.648246e+02
  -9.752797e+01   2.549935e+02
  -2.325477e+02   4.411671e+01
  -1.996134e+02  -2.537514e+02
  -4.572893e+01  -2.946308e+02
   2.711766e+02  -1.271477e+02
   3.630245e+02   1.919091e+02
   1.789172e+02   3.468314e+02
  -7.247451e+01   3.021789e+02
  -2.164287e+02   1.396709e+02
  -1.334339e+02   2.562377e+01
  -1.438291e+02   5.692223e+01
  -2.020092e+02   6.967932e+01
  -4.441591e+02  -3.189554e+01
  -3.407030e+02  -2.331894e+02
  -1.334369e+01  -4.325644e+02
   3.917769e+02  -4.068473e+02
   4.848191e+02  -2.041044e+02
   3.516658e+02   9.705447e+01
   6.523915e+01   3.125057e+02
  -1.415511e+02   2.797276e+02
  -9.621201e+01   5.698564e+01
   1.020815e+02  -1.048794e+02
   1.772448e+02   2.228533e+01
   5.858509e+01   1.851078e+02
  -1.292633e+02   1.578015e+02
  -1.911475e+02  -1.963255e+01
  -2.921452e+00  -1.956396e+02
   1.711006e+02  -3.137548e+01
   2.034940e+02   1.838760e+02
  -2.531222e+01   3.120604e+02
  -2.124003e+02   1.918052e+02
  -3.563181e+02  -2.007278e+01
  -2.687790e+02  -2.530314e+02
  -7.823206e+01  -2.222209e+02
   9.623151e+01  -1.627752e+02
   1.882824e+02  -2.249591e+01
   8.165628e+01   2.763222e+01
  -5.091264e+01  -5.348586e+01
  -4.952467e+01  -1.129178e+02
   1.173833e+02  -1.290038e+02
   1.556265e+02   1.878812e+01
   3.989871e+01   8.520170e+01
  -8.982521e+01   1.720981e+01
  -1.100532e+02  -7.300400e+01
   1.320544e+02  -1.091829e+02
   2.864230e+02  -1.301571e+01
   2.808447e+02   1.499853e+02
   7.577855e+01   2.679283e+02
  -2.012562e+02   2.333774e+02
  -2.458147e+02   1.526371e+02
  -1.877235e+02  -5.028636e+01
   3.180634e+01  -1.198140e+02
   7.539567e+01  -1.657829e+01
   1.373451e+01   1.121352e+02
  -1.680758e+02   8.689013e+01
  -2.079340e+02  -5.781887e+01
  -8.369358e+01  -1.964801e+02
   8.789379e+01  -1.342453e+02
   1.231345e+02  -2.767240e+01
   3.903535e+01   3.250663e+01
  -2.064703e+01   8.391164e+00
  -3.914089e+01  -9.790657e+01
   1.024730e+02  -1.407879e+02
   2.140422e+02  -5.622071e+01
   1.880610e+02   1.413254e+02
  -1.126023e+01   2.238247e+02
  -1.578799e+02   1.857344e+02
  -1.611073e+02   5.083563e+01
  -5.787475e+01  -1.536517e+02
   6.227109e+01  -1.010289e+02
   6.725520e+01  -3.951761e+01
   4.188700e+01   6.853374e+00
  -3.479931e+01   6.855577e+01
  -4.629244e+01  -1.231688e+01
   4.872993e+01  -2.936920e-01
   1.155169e+02   9.452628e+01
   1.277781e+01   1.591399e+02
  -1.002512e+02   1.692304e+02
  -2.421808e+02   3.944280e+01
  -2.157062e+02  -1.384818e+02
  -5.721115e+01  -2.180112e+02
   1.119850e+02  -1.918022e+02
   1.435086e+02  -5.381148e+00
   7.778674e+01   4.875632e+01
   1.209865e+01   4.043958e+01
   7.538226e+01  -8.002589e+00
   7.038274e+01  -5.690713e+01
   7.967094e+01   7.299210e+01
  -8.559076e+01   7.167904e+01
  -1.187471e+02   1.065735e+01
  -8.869081e+01  -4.412234e+01
  -2.197144e+01  -8.708746e+01
   1.329775e+02  -8.659833e+01
   2.122207e+02   3.471895e+01
   9.540667e+01   2.156212e+02
  -9.599363e+01   2.141045e+02
  -2.883489e+02   1.005700e+02
  -2.293380e+02  -7.698770e+01
  -7.897824e+01  -1.565406e+02
  -8.781687e+00  -1.762964e+02
   7.909697e+01  -9.185086e+01
   8.564049e+01  -5.403173e+01
   5.204272e+01  -6.841781e+01
   7.536341e+01  -1.034430e+02
   1.144791e+02   2.240413e+01
   1.180667e+02   1.478455e+02
   8.694406e+01   2.170910e+02
  -1.195266e+02   1.652130e+02
  -1.756804e+02  -3.615979e+00
  -1.517781e+02  -1.066382e+02
  -1.967090e+01  -1.704954e+02
   5.710701e+01  -6.776486e+01
   9.433031e+01  -8.837469e+00
   4.954050e+01   7.919898e+01
  -1.740987e+01   1.285646e+01
   3.278960e+01   1.383224e+01
   7.276170e+01   2.472842e+01
   3.044728e+01   4.810298e+01
  -7.391498e+01   6.484274e+01
  -1.736190e+02   8.140435e+00
  -1.272150e+02  -4.758693e+01
  -3.604602e+00  -1.003722e+02
   1.081909e+02  -6.031069e+01
   1.401285e+02  -3.645919e+01
   3.805488e+01   8.577885e+00
  -3.530276e+01   6.592650e+01
  -9.485204e+01  -8.321002e+00
  -2.547867e+01  -5.425186e+01
   6.370130e+01  -6.770764e+01
   5.460835e+01   2.379595e+01
   3.588579e+01   7.990642e+01
   7.096138e+01   5.662367e+01
   6.563677e+01   2.070277e+01
   2.323039e+01   3.041211e+00
   5.481704e+01   6.690606e+01
  -3.769903e+01   1.306100e+02
  -1.319981e+02   1.327255e+02
  -1.605501e+02   5.796851e+01
  -1.522106e+02  -8.623657e+01
  -2.080435e+01  -1.433138e+02
   1.176624e+02  -1.104117e+02
   6.549735e+01   1.565517e+01
  -1.930212e+01   1.942631e+01
  -1.255457e+02  -2.168489e+01
  -8.176590e+01  -6.916481e+01
   5.510619e+01  -1.287387e+02
   1.626990e+02  -9.651944e+01
   2.082791e+02  -2.452129e+00
   6.180237e+01   9.391857e+01
  -6.315351e+01   6.239257e+01
  -5.569269e+01   2.480461e+01
   3.455057e+01  -4.068042e+01
   1.095733e+02  -1.037606e+01
   1.492454e+01   1.010958e+02
  -9.463816e+01   1.572951e+02
  -1.761828e+02   7.737280e+01
  -1.084882e+02  -7.999330e+01
  -2.815900e+01  -1.725723e+02
   6.412854e+01  -1.942073e+02
   8.824811e+01  -2.311666e+01
   5.480167e+01   1.281843e+02
  -2.948031e+01   1.561717e+02
  -3.063477e+01   2.190800e+01
  -6.847535e+01  -3.977674e+01
   6.151194e+01  -2.597760e+01
  -1.957709e+00   3.897682e+01
  -4.697082e+01   1.709902e+01
  -3.463078e+01  -9.159954e+01
  -3.116800e+01  -7.516230e+01
   4.777082e+01  -3.043115e+01
   1.619890e+02   3.817146e+01
   1.160937e+02   4.771398e+01
   4.247479e+01   6.279126e+01
  -9.295122e+01   3.995723e+01
  -7.973443e+01   7.036096e+00
  -2.305179e+01  -3.007174e+01
   1.657622e+01  -6.538492e+01
   2.032403e+01  -3.859454e+01
  -3.444490e+01  -4.029846e+01
  -3.461478e+01   1.766927e+01
   6.922711e+01   1.360616e+01
   7.810524e+01   2.110720e+01
   6.022630e+00   5.065126e+01
  -1.406725e+02   1.006465e+02
  -1.712645e+02   3.189282e+01
  -1.596892e+02  -5.260287e+01
  -5.621476e+01  -1.818495e+02
   7.452241e+01  -1.149229e+02
   1.128378e+02  -6.710678e+01
   1.072930e+02   1.494014e+01
   6.124024e+01   6.798341e+01
   2.227014e+01   4.499585e+01
  -1.494601e+01  -1.718778e+01
   5.959313e+01   2.827379e+01
   5.905575e+01   5.544264e+01
  -2.197061e+01   4.556595e+01
  -1.040153e+02  -1.631035e+01
  -9.145038e+01  -1.242683e+02
  -1.028064e+01  -9.806441e+01
   7.644899e+01  -3.008517e+01
   8.019624e+01   9.654130e+01
   6.093773e+01   7.623231e+01
  -5.807078e+01   7.961668e+01
  -7.909245e+01  -1.443367e+01
  -5.796620e+01  -6.921756e+01
   3.007050e+01  -4.563186e+01
   7.346259e+01  -2.769674e+01
  -2.240572e+01   9.575186e+00
  -7.817905e+01   1.931497e+00
  -2.555098e+01  -3.868865e+01
   2.644762e+01  -8.592073e+01
   1.077414e+02  -3.634334e+01
   5.464868e+01   3.531861e+00
   3.152824e+01   8.228356e+01
  -6.648012e+01   6.965079e+01
  -2.683200e+01   1.779056e+01
  -1.991123e+01  -9.194540e+01
   1.821538e+01  -4.622110e+01
   2.252397e+01   5.499985e+00
   3.949051e+01   7.069676e+01
  -9.034815e+00   5.074634e+01
  -6.518375e+01   3.301836e+01
  -6.106756e+01  -4.306572e+01
  -3.961228e+01   2.431657e+01
   1.453423e+01   3.970768e+01
   2.542970e+01  -5.441489e+00
  -4.564599e+00  -1.252080e+01
   2.249557e+01  -3.663892e+01
  -5.254923e-01  -4.956095e+01
   5.156011e+01   4.890370e+01
   1.410774e+00   7.507329e+01
  -2.081394e+01  -1.498453e+01
  -1.183566e+01  -5.679856e+01
  -4.036508e+01  -7.277015e+01
   4.990016e+01  -5.007590e+01
   9.806358e+01  -5.164198e+01
   9.183845e+00   4.592291e+01
  -4.047717e+01   6.179356e+01
  -6.190212e+01   3.486665e+01
  -2.690632e+01   5.719427e+01
   1.236676e+01   2.000999e+01
  -3.010285e+01   4.993768e+01
  -5.930319e+01   2.982156e+01
  -1.006076e+02   3.069359e+01
