
 $NMID
 id='ANONYMOUS ', fmtdat='(2E16.6)'
 volume=1.0
 tramp=1.0
 $END
   3.366572e+03  -4.067999e+02
   2.438167e+03   1.325010e+03
   1.571249e+02   2.080583e+03
  -1.140029e+03   1.331545e+03
  -9.777869e+02   2.705024e+02
  -2.108476e+02  -2.397102e+02
   3.844199e+02   3.217803e+01
   1.246747e+02   6.218412e+02
  -3.523580e+02   6.383518e+02
  -6.574876e+02   1.606142e+02
  -4.991173e+02  -3.921951e+02
  -9.311686e+01  -6.381388e+02
   2.722694e+02  -2.141497e+02
   2.558103e+02   3.427592e+02
  -4.432062e+01   4.319240e+02
  -3.572704e+02   1.202442e+02
  -2.821459e+02  -4.391855e+02
   8.057061e+01  -5.701164e+02
   3.921389e+02  -1.898862e+02
   4.310861e+02   1.913036e+02
   1.846265e+02   3.525977e+02
  -6.715661e+01   2.592643e+02
  -6.121484e+01   7.282620e+01
   1.830488e+02   1.120168e+02
   2.294444e+02   2.678933e+02
   4.045316e+00   3.303132e+02
  -3.834325e+02   8.530279e+01
  -5.592236e+02  -1.216490e+02
  -2.354754e+02  -3.217129e+02
   2.965260e+02  -2.427528e+02
   4.603478e+02   1.176623e+02
   2.374038e+02   3.184569e+02
  -2.197799e+02   4.149043e+02
  -4.161250e+02   1.351134e+02
  -3.315383e+02  -1.624058e+02
  -1.498554e+02  -3.032398e+02
  -7.908771e+00  -2.299718e+02
  -1.012543e+01   2.304026e+01
  -1.703405e+02   1.607166e+02
  -2.052352e+02  -1.228758e+02
  -2.278345e+01  -4.311207e+02
   1.891564e+02  -4.110507e+02
   3.619628e+02  -6.448732e+01
   1.273785e+02   3.485407e+02
  -1.365459e+02   1.651859e+02
  -2.053057e+02  -2.384607e+02
   1.128533e+02  -4.055527e+02
   3.964068e+02  -1.050899e+02
   4.816981e+02   3.480562e+02
   1.819806e+02   4.742007e+02
  -2.946456e+02   2.328397e+02
  -5.028642e+02  -4.582533e+01
  -2.646525e+02  -2.336000e+02
   5.268570e+01  -1.992193e+02
   1.962295e+02  -6.704280e+01
   2.501838e+02   2.112264e+01
   1.630615e+01   5.436922e+00
  -8.302539e+01  -1.378796e+01
   1.424188e+01  -5.238239e+01
   2.731711e+02  -2.887790e+01
   1.323353e+02   1.695483e+02
  -1.472757e+02   2.612564e+02
  -2.962023e+02   1.224247e+02
  -2.248863e+02  -8.044882e+01
  -2.243695e+01  -3.176561e+02
   2.587141e+02  -3.335041e+02
   3.193169e+02  -1.239948e+02
   2.167952e+02   1.321432e+02
   4.092784e+01   3.145934e+02
   1.036311e+01   2.599976e+02
  -4.999972e+01   2.158421e+02
  -3.576441e+01   1.183689e+02
  -1.407284e+02   1.030005e+02
  -2.284999e+02   8.213590e+01
  -2.176576e+02  -9.228906e+01
  -8.030902e+01  -2.494000e+02
   1.137796e+02  -2.223612e+02
   1.536610e+02   2.416871e+01
   1.393923e+02   2.497321e+02
  -3.699126e+01   2.518512e+02
  -2.783423e+02   7.778751e+01
  -3.102311e+02  -1.685305e+02
  -2.096279e+02  -3.342825e+02
   4.511841e+01  -2.770273e+02
   1.222315e+02  -1.452262e+02
   1.214399e+02  -1.164997e+02
   1.656716e+02  -9.161046e+01
   3.005960e+02  -4.307234e+01
   4.216487e+02   9.755146e+01
   3.388494e+02   2.692612e+02
   3.626584e+00   4.008426e+02
  -4.050219e+02   3.814105e+02
  -4.561242e+02   1.400089e+02
  -2.440953e+02  -1.109481e+02
  -6.176998e+01  -2.111456e+02
   1.133463e+02  -1.786465e+02
   1.223536e+01  -3.717275e+00
  -8.429347e+01   9.754520e+01
  -1.496198e+02   1.109989e+01
   7.812705e+00  -1.155700e+02
   8.556559e+01  -1.141048e+02
   9.686427e+01   3.736889e+01
   2.316757e+01   1.223911e+02
  -1.428159e+02   7.258786e+00
  -1.729422e+02  -2.252685e+02
   2.451625e+01  -3.022259e+02
   2.248581e+02  -2.245006e+02
   3.276513e+02   7.124133e+01
   2.807270e+02   2.393390e+02
   6.774197e+01   3.065712e+02
  -1.251117e+02   1.403252e+02
  -1.664160e+02   1.796442e-02
  -3.760476e+00   1.926078e+00
   3.272988e+01   3.851690e+01
  -2.362154e+01   9.165486e+01
  -7.510100e+01   1.078262e+02
  -1.561558e+02  -8.161449e+00
  -4.050005e+00  -1.000186e+02
   1.069922e+02  -1.225838e+01
   4.216168e+01   8.810588e+01
  -1.873676e+02   1.053893e+02
  -2.795024e+02  -2.214423e+01
  -2.554204e+02  -1.764515e+02
  -7.229139e+01  -2.432946e+02
   1.558012e+02  -2.489006e+02
   2.528050e+02  -8.467024e+01
   1.430344e+02   2.892163e+00
  -2.057326e+01   4.597122e+01
  -5.994256e+01  -5.101059e+00
   5.533560e+01  -5.459816e+01
   2.002860e+02  -7.376692e+00
   1.447516e+02   9.568869e+01
   1.441779e+01   1.662225e+02
  -9.172591e+01   1.157951e+02
  -9.264550e+01   2.484121e+01
  -2.066460e+01  -4.693059e+01
   4.404346e+01   3.343394e+01
   2.325231e+01   1.322913e+02
  -1.016951e+02   8.027903e+01
  -1.716355e+02  -3.742769e+01
  -2.040421e+02  -1.112323e+02
   1.423402e+01  -1.968235e+02
   1.432503e+02  -1.212165e+02
   1.723948e+02   3.154994e+00
   3.540453e+01   9.244697e+01
  -5.390783e+01   7.630334e+01
  -4.097622e+01   4.268989e+01
   4.150916e+01  -1.873670e+01
   3.610939e+01   2.543110e+01
  -2.685231e+01  -2.933574e+01
  -9.634779e+01   3.606449e+00
  -1.441765e+02  -8.880569e+01
  -9.341107e+00  -1.755943e+02
   1.475730e+02  -1.448374e+02
   2.317080e+02  -2.523359e+00
   1.935089e+02   1.584373e+02
   4.530055e+01   2.714104e+02
  -1.336386e+02   1.422327e+02
  -1.056974e+02   2.823149e+01
  -7.473139e+01  -3.857192e+01
  -8.469430e+01  -3.628526e+01
  -3.492198e+01   2.567685e+01
  -8.215464e+01   2.771059e+01
  -5.749980e+01  -7.454776e+01
   4.161265e+01  -1.192237e+02
   1.216984e+02  -7.863129e+01
   1.518299e+02   6.094027e+01
  -2.424815e+01   8.965421e+01
  -1.051376e+02   1.031346e+02
  -1.807466e+02  -7.267542e+01
  -5.848618e+01  -1.934023e+02
   6.101072e+01  -2.356962e+02
   2.535595e+02  -1.228752e+02
   2.578677e+02   7.015496e+01
   1.132688e+02   1.103559e+02
  -3.801382e+01   1.484562e+02
  -2.757893e+01   7.620859e+01
  -5.172498e+01   5.275032e+01
  -7.179028e+01   6.754752e+01
  -8.790531e+01   8.721810e+01
  -1.672768e+02  -1.645272e+01
  -1.502300e+02  -1.675896e+02
  -5.232212e+01  -2.597703e+02
   1.181754e+02  -1.626072e+02
   1.656051e+02  -8.317803e+00
   8.161031e+01   1.334659e+02
   3.193189e+01   1.227424e+02
  -9.743763e+01   5.618910e+01
  -7.406078e+01  -1.147483e+01
  -1.586172e+01  -5.566970e+01
   2.361574e+01  -6.818248e+01
  -4.236297e+01  -2.539142e+01
  -7.866008e+01  -5.042980e+01
  -9.122753e+01  -7.917392e+01
   7.012087e+01  -4.043957e+01
   1.897716e+02   6.933752e+00
   1.381125e+02   3.914105e+01
  -4.876557e+01   8.098675e+01
  -1.247375e+02   3.991932e+01
  -1.625208e+02  -1.197741e+01
  -5.569726e+01  -4.693406e+01
   6.537155e+01  -5.374895e+01
   4.319386e+01   4.005186e+00
   3.442945e+00   2.839202e+01
  -2.441114e+01   2.059747e+01
  -6.395878e+01   9.535313e+00
  -2.172327e+01  -4.308706e+01
  -6.648959e+01  -5.858843e+01
  -5.792903e+01   1.105023e+01
  -2.622026e+01   2.013401e+00
  -3.774358e+01  -7.494792e+01
   2.133376e+01  -1.681803e+02
   1.275920e+02  -1.575276e+02
   1.495186e+02   2.283084e+01
   1.347803e+02   1.055513e+02
   7.732564e-01   1.541670e+02
  -1.117697e+02   6.772599e+01
  -7.542747e+01  -1.491980e+01
   4.570633e+01   2.552521e+01
   1.610697e+02   4.200498e+01
   8.903607e+01   1.130013e+02
  -7.550379e+01   5.768239e+01
  -1.524548e+02   4.381844e+01
  -1.759313e+02  -5.239855e+01
  -6.236227e+01  -9.733207e+01
   5.376958e+01  -1.281222e+01
   2.530622e+01  -1.913473e+01
  -7.080628e+00   1.608003e+01
  -8.305611e+01  -1.766871e+01
  -5.428356e+01  -1.106839e+02
   6.056127e+01  -1.952507e+02
   1.537414e+02  -9.195740e+01
   1.153032e+02   7.247703e+01
   5.548385e+01   1.717083e+02
  -5.004328e+01   1.465412e+02
  -8.521647e+01  -8.174944e+00
  -6.275484e+01  -1.189430e+02
   2.600278e+01  -9.068416e+01
   2.325517e+01  -6.763583e-01
   4.725699e+01   1.363155e+01
   3.202413e+01  -4.937462e-02
  -1.555989e+01   2.675352e+00
   9.952790e+00   4.522442e+01
   4.211687e+01   1.053964e+02
   2.435399e+01   7.072421e+01
  -2.326181e+01   9.771402e+00
  -1.175398e+02  -4.247700e+01
  -1.378763e+02  -3.712292e+01
  -1.699189e+01  -1.173580e+01
   1.093306e+02   3.994167e+01
   7.592595e+01  -6.790407e+00
   5.637638e-01   2.501720e+01
  -4.485795e+01   4.209376e+01
  -4.378067e+01  -6.452865e-01
   8.375682e-01  -1.061840e+01
  -2.446115e+01   8.356909e+00
  -1.121390e+02  -2.951210e+01
  -1.104481e+02  -3.339304e+01
  -6.973349e+01  -9.273417e+01
   1.050255e+02  -1.081458e+02
   2.143817e+02  -8.226588e+01
   1.712535e+02   3.928615e+01
   3.280945e+01   1.634936e+02
  -4.955715e+01   1.602233e+02
  -1.431184e+02   8.185161e+01
  -8.340655e+01  -2.215352e+01
  -4.528773e+01  -4.916940e+01
   1.661576e+00  -3.323943e+01
  -2.090867e+01  -1.251551e+01
  -3.365632e+01  -1.838737e+01
   3.001023e+00  -7.838410e+01
   5.273686e+01  -9.343963e+01
   7.716829e+01   2.361510e+01
   9.985391e+01   9.723558e+01
   1.087407e+01   1.037492e+02
  -1.193709e+02   1.692188e+01
  -1.176579e+02  -2.979559e+01
  -1.030106e+01  -1.098346e+02
   5.921179e+01  -6.499789e+01
   1.129177e+02   1.495008e+01
   8.187907e+01   6.601302e+01
  -1.551474e+01   5.091627e+01
  -3.517544e+01   2.395180e+01
   1.394694e+01   1.341090e+01
   3.706135e+01   7.265752e+00
   5.396054e+01  -7.985100e+00
  -5.185782e+01   1.091935e+02
  -7.804475e+01   5.904296e+01
  -8.136721e+01  -1.044990e+01
  -1.907892e+01  -1.395599e+02
   5.457030e+01  -7.958527e+01
   4.897762e+01  -3.753057e+01
   5.850690e+00   5.609075e+01
  -1.911870e+01   6.070610e+01
  -8.963668e+01   1.228354e+01
   2.125609e-01  -8.875994e+01
  -1.433128e+01  -2.371023e+01
   5.738326e+01  -1.782537e+01
   3.618716e+01   2.836788e+01
   6.411062e+01   4.015622e+01
  -4.449362e+01  -3.251812e+01
   2.259855e+01   1.268924e+01
  -3.708687e+01   2.753491e+01
  -1.682011e+01   2.047073e+01
  -8.309140e+01   2.771516e+01
  -9.420272e+01  -4.853860e+01
  -2.533431e+01  -4.796372e+01
   1.684396e+01  -1.512050e+01
   9.362919e+01   3.446781e+01
   2.365720e+01   2.365577e+01
  -6.372407e+01   3.982183e+01
  -9.284350e+01   1.350013e+01
  -3.423103e+01  -5.724584e+01
   1.131376e+01  -2.582427e+01
   8.842730e+01  -1.657135e+01
  -2.666559e+01  -2.348362e+01
  -1.415285e+01   2.852553e+01
  -3.994164e+01  -1.069561e+00
   2.572353e+01  -2.962532e+01
   3.382100e+01   1.229612e+01
