
 $NMID
 id='ANONYMOUS ', fmtdat='(2E16.6)'
 volume=1.0
 tramp=1.0
 $END
  -2.415829e+03   6.274549e+01
  -1.609983e+03  -1.056423e+03
  -1.645649e+02  -1.913965e+03
   9.627767e+02  -1.135181e+03
   9.159007e+02  -1.717377e+02
   1.458170e+02   3.397487e+02
  -4.027301e+02   1.213394e+02
  -2.231976e+02  -3.896917e+02
   3.129377e+02  -4.580159e+02
   5.698007e+02  -1.006597e+02
   4.169150e+02   4.223387e+02
   6.114397e+01   4.754437e+02
  -2.793877e+02   1.716893e+02
  -2.138684e+02  -3.081986e+02
   2.994829e+01  -4.762379e+02
   3.321798e+02  -9.217016e+01
   2.532344e+02   4.328753e+02
  -2.985734e+01   5.010981e+02
  -3.581064e+02   3.391520e+02
  -4.028037e+02  -1.584735e+02
  -1.334715e+02  -2.831959e+02
   1.241097e+02  -2.015438e+02
   2.828922e+01  -8.981603e+01
  -1.284953e+02  -7.819636e+01
  -2.042581e+02  -1.865315e+02
   2.703633e+01  -2.924554e+02
   3.035288e+02  -1.325299e+02
   3.818171e+02   1.388164e+02
   1.940460e+02   2.447132e+02
  -2.906477e+02   1.681284e+02
  -3.706341e+02  -1.207917e+02
  -1.691269e+02  -2.508751e+02
   2.003964e+02  -2.951762e+02
   3.816358e+02  -8.140431e+01
   2.723790e+02   1.369847e+02
   5.007680e+01   2.551652e+02
   1.642182e+01   1.419792e+02
   6.983011e+01  -5.504523e+01
   1.565080e+02  -8.699855e+01
   1.072802e+02   1.111395e+02
   2.018405e+01   3.034841e+02
  -2.076194e+02   3.201496e+02
  -1.678477e+02  -7.466714e+00
  -9.484377e+01  -2.359511e+02
   8.832383e+01  -1.354718e+02
   1.322255e+02   2.068850e+02
  -5.784545e+01   3.239930e+02
  -4.135838e+02   6.057388e+01
  -4.559955e+02  -2.321921e+02
  -1.631361e+02  -4.104631e+02
   2.484463e+02  -2.506711e+02
   3.866182e+02  -1.269155e+01
   2.830389e+02   1.523852e+02
  -6.775754e+00   1.824431e+02
  -2.207833e+02   1.539465e+02
  -1.537528e+02  -1.695363e+00
  -3.714325e+01  -4.633655e+00
   3.395604e+01   7.927416e+01
  -7.888613e+01   3.765577e+01
  -1.555872e+02  -1.369568e+01
  -1.241748e+02  -1.768396e+02
   1.168730e+02  -2.126533e+02
   3.124780e+02  -8.642218e+01
   2.334422e+02   1.384266e+02
  -2.934090e+01   2.993390e+02
  -2.734225e+02   2.856532e+02
  -3.384614e+02   1.371818e+02
  -1.855210e+02  -1.595338e+02
  -1.117048e+02  -3.167805e+02
   6.338161e+01  -2.571079e+02
  -2.026554e+01  -1.354881e+02
   6.667837e+01  -1.102561e+02
   1.005064e+02  -8.849485e+01
   1.989823e+02  -3.740809e+01
   1.931891e+02   1.182443e+02
   9.634161e+01   2.099681e+02
  -1.212564e+02   1.751216e+02
  -1.923400e+02  -6.425459e+01
  -1.343666e+02  -1.909302e+02
   6.753713e+01  -1.703727e+02
   1.976531e+02  -4.844742e+01
   2.561662e+02   1.587701e+02
   1.395759e+02   2.516258e+02
  -4.063374e+01   2.143012e+02
  -1.368938e+02   1.278289e+02
  -1.107307e+02   5.652612e+01
  -1.004253e+02   5.253472e+01
  -1.587192e+02   1.968193e+01
  -3.354183e+02  -1.050298e+02
  -2.579536e+02  -2.640165e+02
  -1.441599e+00  -3.819048e+02
   2.952050e+02  -3.067375e+02
   4.120044e+02  -1.581163e+02
   2.315557e+02   6.470593e+01
   1.772362e+01   2.289818e+02
  -8.417801e+01   2.234495e+02
  -2.714869e+01  -1.839722e+01
   4.982775e+01  -2.285860e+01
   7.830889e+01  -5.686233e+00
   9.614221e+01   9.594828e+01
  -5.607723e+01   1.078863e+02
  -7.472157e+01  -1.785680e+01
   3.818910e+01  -1.157627e+02
   1.321861e+02   3.252089e+01
   1.222151e+02   1.934116e+02
  -2.152889e+01   2.627765e+02
  -1.840284e+02   1.655563e+02
  -2.857564e+02  -5.762741e+01
  -2.400840e+02  -2.407290e+02
  -3.706266e+01  -2.450701e+02
   1.087300e+02  -9.621396e+01
   1.051787e+02  -3.983311e+01
   3.186484e+01  -2.360790e+00
  -2.188148e+01  -5.398363e+01
   6.807022e+00  -6.849167e+01
   9.754792e+01  -5.484168e+01
   1.354322e+02   3.687088e+01
   5.002008e+01   3.978235e+01
  -9.162309e+01  -1.372803e+01
  -1.254496e+01  -9.328659e+01
   1.315734e+02  -6.513485e+01
   2.721327e+02   4.270481e+01
   2.226262e+02   9.879752e+01
   3.177693e+01   2.415657e+02
  -1.474398e+02   1.838150e+02
  -1.856068e+02   8.106317e+01
  -1.066431e+02  -2.221938e+01
  -1.230217e+01  -3.646703e+01
   5.660079e+01   1.374028e+01
  -4.645823e+01   1.034626e+02
  -1.455897e+02   2.089922e+01
  -1.524924e+02  -7.167417e+01
  -5.628354e+01  -1.280816e+02
   9.752658e+01  -1.302182e+02
   1.081459e+02  -1.474570e+01
   3.980517e+01   2.825291e+01
  -1.709988e+01  -4.778733e+01
  -3.460294e+00  -1.030240e+02
   1.074151e+02  -9.482761e+01
   1.827048e+02  -3.434306e+01
   1.492285e+02   1.103028e+02
   6.501343e+00   1.639302e+02
  -1.232593e+02   1.423470e+02
  -1.174594e+02   5.034478e+01
  -7.807356e+01  -8.861886e+01
   4.274705e+01  -8.726335e+01
   7.816851e+01   7.951917e+00
  -2.079710e+01  -1.563418e+01
  -5.228382e+00  -6.001134e+00
   3.581011e+01  -1.119731e+01
   5.280325e+01  -4.856447e+00
   1.187937e+02   1.078495e+02
   2.396288e+01   1.675068e+02
  -1.295813e+02   1.405477e+02
  -2.164788e+02  -3.133376e+01
  -9.686639e+01  -1.614271e+02
  -2.143723e+01  -1.841098e+02
   9.383572e+01  -9.789685e+01
   9.620130e+01  -4.469277e+01
   2.673186e+01   3.172137e+01
   5.289279e+01   2.898851e+01
   9.449351e+01   1.884157e+01
   7.923125e+01   9.136322e+00
   1.941827e+01   7.921163e+01
  -4.328632e+01   9.653568e+01
  -1.837657e+02   8.488657e+01
  -9.708939e+01  -7.470210e+01
   7.891125e+00  -1.287889e+02
   1.476679e+02  -8.531694e+01
   2.236601e+02   8.727880e+01
   6.699756e+01   2.012108e+02
  -1.060336e+02   2.112337e+02
  -2.150608e+02   1.480718e+01
  -2.278949e+02  -4.878573e+01
  -8.633639e+01  -1.179938e+02
   5.967271e+01  -1.219428e+02
   4.699642e+01  -9.183315e+01
   4.300519e+01  -4.735729e+01
   4.650954e+01  -5.995293e+01
   8.737860e+01  -1.244551e+02
   1.414570e+02  -7.653620e+00
   8.957050e+01   9.585327e+01
  -2.505695e+01   1.819544e+02
  -8.410186e+01   1.677662e+02
  -1.962783e+02  -1.701091e+01
  -1.040846e+02  -1.156172e+02
  -1.861563e+01  -1.348813e+02
   7.506624e+01  -3.965220e+01
   6.666335e+01   2.525152e+01
  -2.400448e+00   6.851450e+01
  -4.047255e+01  -1.672300e+01
   5.396549e+01  -5.349308e+01
   9.244012e+01  -1.126134e+01
   3.296433e+01   5.915545e+01
  -8.099237e+01   5.750552e+01
  -1.736369e+02  -3.455588e+01
  -1.049168e+02  -8.643051e+01
   3.703198e+01  -1.587629e+02
   9.222821e+01  -4.739879e+01
   1.226996e+02  -1.865211e+01
   2.789467e+01   4.165237e+01
  -8.472849e+01   4.794447e+01
  -8.424145e+01  -2.412472e+01
  -4.531477e-01  -4.718172e+01
   8.084393e+01  -4.942574e+01
   6.146426e+01   1.270896e+01
   3.793982e+01   7.258125e+01
   5.648998e+01  -7.348173e+00
   4.804383e+01   1.762046e+01
   4.479819e+01   1.661173e+01
   5.789078e+01   9.236071e+01
  -1.894641e+01   1.233990e+02
  -1.035088e+02   1.218134e+02
  -1.920716e+02   1.877289e+01
  -1.184364e+02  -1.103494e+02
  -1.692591e+01  -1.036168e+02
   6.647693e+01  -3.998071e+01
   8.862106e+01   1.961165e+00
  -3.813895e+01   1.167728e+01
  -1.043019e+02  -1.834118e+01
  -6.393497e+01  -1.075225e+02
   7.622946e+01  -8.563379e+01
   1.580607e+02  -7.303611e+01
   1.092227e+02   2.421540e+01
   2.057441e+01   1.632338e+02
  -7.769840e+01   7.640247e+01
  -1.066981e+01  -4.096754e+01
   4.791044e+01  -3.691995e+01
   8.235709e+01  -3.030465e+01
   1.252764e+01   1.020130e+02
  -8.468079e+01   1.687313e+02
  -1.465943e+02   2.473948e+01
  -1.022577e+02  -9.202106e+01
   2.691400e+01  -1.622538e+02
   9.769997e+01  -1.409997e+02
   8.996532e+01   4.367098e+01
   4.933088e+01   1.018282e+02
  -2.590837e+01   7.371028e+01
  -2.605132e+01   3.150044e+00
  -3.335331e+01   1.728121e+00
   1.424878e+01   3.227442e+00
   3.830926e+01   3.269822e+01
  -2.540967e+01  -1.653553e+01
  -6.543173e+01  -1.066624e+02
  -1.747025e+01  -8.435100e+01
   3.863635e+01  -8.448534e+01
   8.119171e+01   2.050870e+01
   9.766941e+01   6.532807e+01
  -1.020757e+01   7.450049e+01
  -9.416405e+01   2.176211e+01
  -7.618523e+01  -2.659001e+01
  -5.441453e+01  -1.879504e+01
   8.428918e+00  -3.529781e+00
   1.242371e+01   1.900065e+01
  -3.249453e+01  -2.516308e+01
   1.990890e+01  -2.402986e+01
   6.817539e+01  -2.736750e+01
   1.113796e+02   1.880588e+01
   3.947232e+01   6.558465e+01
  -8.149700e+01   1.349138e+02
  -1.276221e+02   7.125566e+01
  -1.465657e+02  -4.870490e+00
  -4.309301e+01  -8.908542e+01
   9.435703e+01  -1.522131e+02
   1.175802e+02  -6.873602e+01
   6.267246e+01  -1.365866e+01
   2.970285e+01   2.631102e+01
  -3.344141e+01   1.441316e+01
  -1.749345e+01  -1.198637e+01
   2.809923e+01   9.512855e+00
   2.483587e+01   6.436951e+01
  -4.428578e+01   6.850277e+01
  -7.750408e+01  -1.072771e+01
  -1.113038e+02  -7.771065e+01
  -1.083715e+01  -1.300539e+02
   5.090219e+01   3.346522e+00
   9.172151e+01   5.376598e+01
   8.867399e+01   1.024481e+02
  -4.410873e+01   9.848471e+01
  -1.102798e+02   2.810382e+01
  -6.056782e+01  -3.519280e+01
   1.668357e+01  -1.041053e+02
   3.721231e+01  -2.689638e+01
  -3.831697e+01   7.408351e+00
  -3.089569e+01   2.657360e+01
  -1.034052e+01  -2.633831e+01
   5.380465e+01  -5.554595e+01
   8.553138e+01  -4.066043e+01
   5.958229e+01   1.804833e+01
   9.965581e+00   6.367102e+01
  -4.144550e+01   1.055450e+02
  -6.188152e+01   1.845301e+01
   1.754984e+01   8.951661e+00
  -5.844685e+00  -2.806581e+01
   2.067259e+00  -2.397808e+01
   2.714127e+01   2.875953e+01
  -2.747446e+01   2.334597e+01
  -4.593978e+01   1.321587e+01
  -2.621787e+00  -6.902722e+00
  -4.728585e+00  -1.946094e+01
   2.657477e+01   1.658682e+01
  -9.581948e-01   1.486761e+01
  -2.632319e+01  -5.816734e+01
   2.709737e+01  -1.792391e+01
   2.705392e+01   4.964462e+00
   4.846151e+01   4.876510e+01
   3.666641e+01   3.291713e+01
  -1.386782e+01   1.518299e+01
  -4.251723e+01  -6.575509e+00
  -4.878898e+00  -4.377387e+01
   5.462645e+01  -4.083540e+01
   7.184031e+01  -3.499081e+00
   2.505367e+01   5.879054e+01
  -6.540809e+01   1.988013e+01
  -6.334735e+01   5.453284e+01
  -2.528178e+01   4.158580e+01
   3.274292e+01  -1.015097e+01
  -1.990206e+01   1.277222e+01
  -2.514530e+01   2.123720e+01
  -3.901322e+01  -1.205953e+01
