
 $NMID
 id='ANONYMOUS ', fmtdat='(2E16.6)'
 volume=1.0
 tramp=1.0
 $END
  -2.906390e+03   6.271008e+02
  -2.230045e+03  -1.168602e+03
   4.492868e+00  -1.949261e+03
   8.089729e+02  -1.171319e+03
   8.359263e+02  -3.055929e+02
  -2.542061e-01   1.986349e+02
  -4.084863e+02  -7.066225e+01
  -8.642382e+01  -4.956779e+02
   3.446859e+02  -6.012864e+02
   5.936301e+02  -1.167831e+02
   3.871167e+02   4.089668e+02
   4.507191e+01   5.521014e+02
  -2.891134e+02   1.916107e+02
  -2.143717e+02  -3.813608e+02
   7.594843e+01  -5.077794e+02
   3.391468e+02  -5.347914e+01
   3.060510e+02   4.416827e+02
  -3.661413e+01   5.352983e+02
  -3.765896e+02   2.601511e+02
  -3.819596e+02  -1.138380e+02
  -1.230664e+02  -2.880453e+02
   4.998855e+01  -2.499988e+02
   5.143849e+01  -4.011127e+01
  -1.693714e+02  -6.593429e+01
  -2.126750e+02  -2.108027e+02
   1.312137e+01  -3.380716e+02
   4.032189e+02  -1.785276e+02
   5.290460e+02   6.977986e+01
   2.324522e+02   2.585819e+02
  -2.787603e+02   1.835602e+02
  -4.273595e+02  -7.345089e+01
  -1.644459e+02  -2.725122e+02
   1.829807e+02  -3.028235e+02
   3.834859e+02  -1.235113e+02
   2.871952e+02   1.460530e+02
   8.566314e+01   2.950681e+02
  -6.261379e+01   1.518609e+02
   4.961158e+01  -1.678146e+02
   1.987902e+02  -1.700342e+02
   1.942272e+02   1.200203e+02
   9.204368e+01   4.469857e+02
  -2.143688e+02   4.203061e+02
  -3.191596e+02   3.152398e+01
  -8.638923e+01  -2.528963e+02
   1.764274e+02  -1.700706e+02
   1.832484e+02   2.203589e+02
  -2.931271e+01   3.281272e+02
  -3.880575e+02   9.772539e+01
  -3.738023e+02  -2.470576e+02
  -1.626086e+02  -3.883265e+02
   2.799820e+02  -2.285138e+02
   4.950003e+02   1.926475e+01
   3.047362e+02   1.920131e+02
  -1.120349e+01   1.639619e+02
  -2.355008e+02   3.321628e+01
  -1.884996e+02  -2.908207e+01
  -2.396086e+01  -3.802896e+01
   3.477945e+01   2.908708e+01
  -8.951133e+01   8.164023e+01
  -2.061896e+02  -5.553474e+01
  -1.260296e+02  -1.492119e+02
   1.059720e+02  -2.022964e+02
   2.607401e+02  -1.195194e+02
   2.558144e+02   4.681809e+01
  -2.392511e+01   3.076627e+02
  -2.241769e+02   3.352103e+02
  -2.672129e+02   1.917108e+02
  -2.427537e+02  -8.429343e+01
  -8.230348e+01  -2.689877e+02
  -2.001327e+01  -2.499941e+02
   6.281900e+01  -1.499409e+02
  -2.170801e+01  -5.540705e+01
   1.083446e+02  -1.316979e+02
   2.405130e+02  -2.430718e+01
   2.115817e+02   7.663693e+01
   8.075530e+01   2.531769e+02
  -9.516717e+01   1.598813e+02
  -1.789915e+02  -7.112095e+01
  -1.056067e+02  -2.381151e+02
   3.886578e+01  -2.602510e+02
   2.363953e+02  -9.683982e+01
   2.856580e+02   1.396440e+02
   1.688065e+02   2.438833e+02
  -3.894181e+01   2.447737e+02
  -9.987918e+01   1.050482e+02
  -1.353271e+02   1.103139e+02
  -1.347025e+02   1.034005e+02
  -2.073368e+02   5.525473e+01
  -3.362725e+02   7.149201e-01
  -3.051020e+02  -2.209202e+02
  -3.716393e+01  -3.775599e+02
   3.004979e+02  -3.966464e+02
   3.810821e+02  -2.105193e+02
   1.983590e+02   8.855680e+01
   1.952264e+01   1.820520e+02
  -6.699039e+01   1.873730e+02
   8.500519e+00   5.684051e+01
   6.725141e+01  -3.947792e+01
   1.333455e+02  -4.790638e+00
  -3.649645e+01   1.515797e+02
  -6.498963e+01   1.307171e+02
  -7.953384e+01   3.512431e+01
  -2.020859e+01  -1.095645e+02
   1.445864e+02  -3.464408e+01
   1.248905e+02   1.353767e+02
   1.617762e+01   2.486207e+02
  -1.846265e+02   2.132475e+02
  -2.574904e+02  -2.126053e+01
  -2.657731e+02  -2.032232e+02
  -8.003452e+01  -2.554332e+02
   1.038690e+02  -1.634728e+02
   1.650660e+02  -1.776131e-01
   2.350696e+01   6.338322e+01
  -2.029635e+01  -4.984329e+01
  -4.967980e+00  -1.051757e+02
   7.996543e+01  -4.512168e+01
   1.407344e+02   2.238635e+01
   3.555737e+01   4.940076e+01
  -7.003869e+01   9.099452e+00
  -7.767800e+00  -5.650882e+01
   1.190709e+02  -7.910995e+01
   2.831925e+02  -2.022216e+01
   2.383617e+02   1.256322e+02
   7.243283e+01   1.998186e+02
  -1.791421e+02   2.280711e+02
  -2.578518e+02   9.641135e+01
  -9.169569e+01  -3.748833e+00
  -4.148032e+00  -1.877017e+01
   2.896235e+01   3.302917e+01
  -5.208153e+01   6.760024e+01
  -1.742891e+02   3.837164e+01
  -1.437658e+02  -8.620377e+01
  -4.248667e+01  -1.631151e+02
   6.948568e+01  -1.047721e+02
   1.313569e+02  -4.460015e+01
   7.612397e+01   4.241770e+01
  -3.606132e+01  -2.135056e+01
  -2.519646e+01  -9.249407e+01
   8.979638e+01  -5.909244e+01
   1.840339e+02  -2.222372e+01
   1.878662e+02   5.752019e+01
   4.747388e+01   2.190693e+02
  -9.907911e+01   1.559982e+02
  -1.267141e+02  -3.799606e+00
  -3.531849e+01  -1.246754e+02
   3.837025e+01  -5.293654e+01
   5.877989e+01  -7.483927e+00
  -2.640944e+01   4.000878e+01
  -2.406044e+01   7.742189e+00
   2.906755e+01  -6.510731e+00
   7.736828e+01  -2.412220e+01
   8.911473e+01   6.073717e+01
   4.183486e+01   1.680546e+02
  -1.184240e+02   1.699769e+02
  -2.168595e+02   2.634329e+01
  -1.902032e+02  -1.206244e+02
  -2.450513e+01  -2.261392e+02
   7.819240e+01  -1.386476e+02
   9.407401e+01  -9.341839e+01
   6.779676e+01   7.335167e+00
   2.239953e+01   3.341692e+01
   3.547698e+01   2.896067e+01
   8.091335e+01  -3.387214e+01
   6.700786e+01   3.442585e+01
  -4.135839e+01   8.946921e+01
  -5.841049e+01   4.137439e+01
  -1.309704e+02  -2.506257e+01
   1.817501e+01  -1.310700e+02
   1.013850e+02  -9.975788e+01
   2.146671e+02   6.187701e+01
   7.640465e+01   1.848401e+02
  -1.186264e+02   1.912773e+02
  -2.282423e+02   4.079808e+01
  -1.998864e+02  -7.208858e+01
  -8.189630e+01  -1.231310e+02
   4.969002e+01  -1.099587e+02
   1.200180e+02  -7.881966e+01
   6.621159e+01  -9.079118e+01
   7.650850e+00  -9.074996e+01
   2.763612e+01  -9.374030e+01
   1.303109e+02   1.686200e+01
   7.193227e+01   1.242157e+02
   1.155400e+00   1.692407e+02
  -7.865749e+01   1.751210e+02
  -1.567113e+02   4.416654e+01
  -1.388357e+02  -1.178507e+02
  -6.590778e+00  -1.323567e+02
   4.133809e+01  -7.334439e+01
   4.076286e+01   3.145494e+01
  -4.510236e+00   4.228221e+01
  -1.227806e+01   5.629303e+01
   3.079918e+01  -1.151567e+01
   6.562022e+01   2.629886e+01
   7.986600e+01   6.325531e+01
  -2.914105e+01   6.090193e+01
  -1.350494e+02   3.627212e+01
  -1.420981e+02  -3.757983e+01
   1.703893e+01  -8.141354e+01
   9.487531e+01  -8.597064e+01
   1.301219e+02  -1.635359e+01
   2.784496e+01   2.795942e+01
  -5.048313e+01   4.025482e+01
  -8.481801e+01   2.195188e+01
  -1.603135e+00  -9.056633e+01
  -1.605933e+01  -6.506194e+01
   5.314880e+01  -1.194715e+01
   5.881748e+01   3.697956e+01
   2.664251e+01   3.006962e+01
   5.266739e+01   3.477276e+01
   8.078722e+01   1.290582e+01
   4.751677e+01   8.148071e+01
  -4.352762e+01   1.491840e+02
  -1.178619e+02   1.444176e+02
  -1.799506e+02   4.211736e+01
  -1.116516e+02  -6.226715e+01
  -2.637355e+01  -9.357738e+01
   1.621508e+01  -6.543855e+01
   7.314103e+01  -6.612598e+00
  -6.954127e+01   9.377227e+00
  -9.507113e+01  -2.654718e+01
  -7.100732e+01  -4.723428e+01
   4.356356e+01  -9.426709e+01
   1.476958e+02  -6.315618e+01
   1.191479e+02  -9.375813e+00
   6.440503e+01   6.949479e+01
  -1.585274e+01   6.221307e+01
  -7.897366e+01  -4.774758e+01
   1.619637e+01  -4.710296e+01
   7.889485e+01  -3.922768e+01
   2.975876e+01   1.063275e+02
  -4.800659e+01   1.534318e+02
  -1.495266e+02   6.948675e+01
  -1.324952e+02  -6.844797e+01
  -9.724586e-01  -1.344611e+02
   7.109687e+01  -1.595581e+02
   1.439012e+02   9.617752e+00
   2.689429e+01   1.023329e+02
  -4.780923e+00   7.829543e+01
  -5.886082e+01   2.223480e+01
  -5.952861e+01  -3.068331e+01
   2.914524e+01  -3.264731e+01
   2.964912e+01   2.140957e+00
   2.755650e+01  -1.421313e+01
  -1.067280e+02  -3.242216e+01
  -2.163815e+01  -1.661725e+02
   2.568909e+01  -4.524987e+00
   8.487677e+01   1.855753e+01
   9.081754e+01   5.887406e+01
   8.754315e+00   3.154467e+01
  -9.012267e+01   3.710967e+01
  -6.488442e+01  -1.193696e+01
  -8.460458e+00  -2.005646e+01
   2.345374e+01  -1.477860e+01
   2.567955e+01  -9.804695e+00
  -2.107855e+01   1.911942e+01
  -2.198574e+01   4.562776e+00
   4.855181e+01  -1.553860e+01
   9.086242e+01   1.640825e+01
  -7.834330e+00   5.217496e+01
  -9.265987e+01   9.202957e+01
  -1.342508e+02   8.826876e+01
  -1.396143e+02   7.957257e+00
  -1.261086e+01  -1.325410e+02
   1.575992e+01  -1.246979e+02
   1.092292e+02  -4.902914e+01
   7.929644e+01  -4.516570e+00
  -7.936395e+00   2.066567e+01
   1.433938e+01   1.708357e+01
  -1.318492e+01  -2.611695e+01
   3.925380e+01   7.113611e+01
   4.569669e+01   8.020178e+01
  -2.661495e+01   5.691712e+01
  -9.303608e+01  -1.018620e+01
  -9.652618e+01  -1.220336e+02
   1.741245e+01  -9.945231e+01
   7.687503e+01  -3.355341e+01
   1.060411e+02   5.918893e+01
   2.236144e+01   1.034556e+02
  -7.689246e+01   7.860056e+01
  -8.461143e+01  -2.350198e+01
  -2.676716e+01  -5.047717e+01
   2.069405e+01  -2.781288e+01
   4.305020e-01  -4.543597e+01
  -4.699811e+01  -1.011780e+01
  -2.940564e+01   2.374139e+01
  -2.114074e+01  -2.084706e+01
   8.623912e+01  -7.108006e+01
   8.395867e+01  -5.199060e+01
   6.066426e+01   3.560082e+01
   1.753842e+01   7.660558e+01
  -5.296260e+01   7.989721e+01
  -3.221150e+01   2.686748e+01
   1.594853e+01  -5.837847e+01
   2.257940e+01  -2.096856e+01
   9.325376e+00   2.582917e+00
   2.236685e+01   3.534139e+01
  -1.508641e+01   4.002001e+01
   2.555276e+00   7.691822e+00
   4.438174e+00  -1.508956e+01
  -3.804937e+01  -3.701484e+01
   1.707354e+01   4.632710e+01
  -3.990890e+00  -3.143310e+01
  -2.017565e+00  -4.979733e+01
   2.256715e+01  -3.295763e+01
   5.692652e+01  -3.260775e+01
   5.186140e+01   5.335918e+01
   1.667628e+01   6.029304e+01
  -2.967821e+01   2.576681e+01
  -5.004340e+01  -2.854278e+01
   6.046999e+00  -4.598444e+01
   3.412104e+01  -3.233742e+01
   1.127408e+02   5.195637e+00
   5.460424e+01   3.689071e+01
  -3.773460e+01   5.577399e+01
   2.410341e+00   2.568055e+01
   8.602665e+00   5.753565e+01
   4.515852e+01   7.687119e-01
   3.175416e+01  -2.883939e-02
   3.352874e+00   9.052381e+00
  -4.724822e+01   2.552360e+01
