
 $NMID
 id='ANONYMOUS ', fmtdat='(2E16.6)'
 volume=1.0
 tramp=1.0
 $END
  -3.650051e+03   7.085979e+01
  -2.367852e+03  -2.031653e+03
   3.616770e+02  -2.410794e+03
   1.534053e+03  -9.369551e+02
   8.030136e+02   4.992321e+02
  -3.429490e+02   5.836491e+02
  -6.428558e+02  -1.698961e+02
  -1.236164e+02  -8.007574e+02
   5.288036e+02  -6.518239e+02
   7.792078e+02  -2.206225e+01
   4.343393e+02   6.845322e+02
  -1.065183e+02   7.330289e+02
  -4.625181e+02   1.983946e+02
  -3.752477e+02  -4.816731e+02
   1.316388e+02  -6.638339e+02
   5.200100e+02  -7.395254e+01
   2.786544e+02   5.051490e+02
  -2.074983e+02   6.049704e+02
  -5.046573e+02   1.558434e+02
  -4.001123e+02  -2.296181e+02
  -3.703018e+01  -3.751626e+02
   1.782901e+02  -2.410203e+02
   1.896389e+02   1.805942e+01
  -1.343403e+02   2.388868e+01
  -3.335043e+02  -1.054019e+02
  -1.467417e+02  -3.573122e+02
   3.237699e+02  -3.777229e+02
   6.761422e+02   5.749853e+01
   3.653106e+02   3.854568e+02
  -2.385179e+02   3.846995e+02
  -5.831490e+02   4.368524e+01
  -3.004192e+02  -3.334842e+02
   1.583675e+02  -4.148269e+02
   4.240130e+02  -1.828953e+02
   3.746770e+02   1.718294e+02
   7.593716e+01   3.725889e+02
  -1.590511e+02   2.728972e+02
  -1.278903e+02  -1.448576e+02
   3.113689e+01  -3.139895e+02
   3.391652e+02   1.254311e+01
   1.898585e+02   5.055995e+02
  -1.697446e+02   5.800850e+02
  -4.049584e+02   5.112390e+01
  -2.210259e+02  -3.728207e+02
   1.575136e+02  -2.907047e+02
   3.228920e+02   1.947165e+02
   1.895801e+01   4.073432e+02
  -4.056537e+02   1.223008e+02
  -4.899814e+02  -3.081645e+02
  -1.451040e+02  -4.827741e+02
   2.967248e+02  -3.008157e+02
   4.874971e+02  -2.785085e+00
   3.620429e+02   2.770415e+02
  -1.053205e+02   3.029762e+02
  -3.515359e+02   2.988202e+01
  -2.339138e+02  -1.198331e+02
   4.823240e+01  -8.476366e+01
   1.555751e+02   1.133367e+02
  -8.842159e+01   1.534740e+02
  -2.724681e+02  -1.156339e+01
  -1.552309e+02  -2.261360e+02
   1.409180e+02  -2.484557e+02
   2.918653e+02  -7.033615e+01
   2.049456e+02   7.983584e+01
  -3.885850e+01   2.098043e+02
  -1.717359e+02   2.706352e+02
  -2.997904e+02   2.037282e+02
  -2.608049e+02  -1.133116e+02
  -3.614974e+01  -3.469091e+02
   6.772992e+01  -3.407063e+02
   5.643578e+01  -8.685060e+01
  -4.150743e+01  -6.393890e+01
   2.765467e+01  -6.117481e+01
   1.985514e+02  -9.488123e+01
   2.107779e+02   3.208665e+01
   1.645275e+02   1.970468e+02
  -4.070646e+01   2.085699e+02
  -2.129574e+02   3.954591e-01
  -2.158851e+02  -1.935209e+02
  -1.272894e+01  -2.733535e+02
   2.177914e+02  -8.785779e+01
   3.160008e+02   1.340090e+02
   1.268178e+02   3.012614e+02
  -4.907277e+01   2.607381e+02
  -2.524386e+02   1.084098e+02
  -1.406717e+02   3.063656e-01
  -5.543125e+01   3.653792e+00
  -2.179688e+02   2.470274e+01
  -3.151336e+02  -5.566622e+01
  -3.071247e+02  -1.698565e+02
  -7.276165e+01  -3.587426e+02
   3.023904e+02  -3.382791e+02
   4.125574e+02  -1.105712e+02
   2.511809e+02   1.063097e+02
   8.405538e+01   2.622744e+02
  -1.070536e+02   2.023832e+02
  -8.500240e+01  -3.458872e+00
   7.045034e+01  -8.990887e+01
   1.192838e+02   2.388656e+00
   8.082943e+01   1.325295e+02
  -1.082655e+02   1.456762e+02
  -1.598010e+02  -2.031620e+01
   3.426342e+01  -1.438780e+02
   1.334569e+02  -4.639497e+01
   1.095330e+02   2.350628e+02
  -3.662090e+00   2.733446e+02
  -2.291037e+02   1.811905e+02
  -2.926518e+02  -1.630980e+01
  -2.720659e+02  -2.078221e+02
  -4.473161e+01  -2.274189e+02
   7.523687e+01  -8.696614e+01
   1.610670e+02  -2.028096e+01
   1.717405e+01   3.823552e+01
  -9.775470e+01  -2.484356e+01
  -1.089621e+01  -1.226948e+02
   1.119021e+02  -1.037015e+02
   1.848413e+02  -9.042881e-02
   5.607547e+01   7.348759e+01
  -1.170028e+02   2.137114e+01
  -4.494002e+01  -7.323437e+01
   7.783215e+01  -8.968782e+01
   2.295262e+02  -2.125087e+01
   2.124439e+02   9.356703e+01
   9.205249e+01   2.169298e+02
  -1.528738e+02   2.808759e+02
  -2.595386e+02   8.869471e+01
  -1.557016e+02  -4.445142e+01
   4.014382e+01  -7.933411e+01
   5.751809e+01  -1.658075e+01
  -3.373100e+01   9.024963e+01
  -1.795353e+02   7.401738e+01
  -1.559670e+02  -5.547360e+01
  -5.027366e+01  -1.697572e+02
   8.863116e+01  -1.275939e+02
   1.312658e+02  -2.853805e+01
   1.031289e+02   5.906886e+01
  -2.115104e+01   2.233251e+01
  -1.157435e+01  -8.794455e+01
   5.110803e+01  -1.109800e+02
   1.680853e+02  -7.693308e+01
   1.624920e+02   7.562246e+01
   3.273433e+01   1.728130e+02
  -1.247582e+02   1.450320e+02
  -1.540107e+02   3.590864e+01
  -5.428152e+01  -1.036317e+02
   5.220044e+01  -1.059346e+02
   7.734673e+01   5.624442e+00
   3.614230e+01   7.426721e+00
  -4.282908e+00   3.505131e+01
  -9.367379e+00  -1.741408e+01
   4.341512e+01  -1.644221e+01
   1.120953e+02   8.160153e+01
   3.773936e+01   1.199181e+02
  -1.329588e+02   1.209892e+02
  -1.603118e+02   2.262734e+01
  -1.385425e+02  -1.168034e+02
  -4.626303e+01  -2.002454e+02
   8.393936e+01  -1.898509e+02
   1.488828e+02  -8.301274e+00
   8.109840e+01   6.542419e+01
   1.577172e+01   6.279680e+01
  -3.357818e+00  -3.909712e+01
   6.799709e+01   1.429081e+01
   5.537580e+01   3.999807e+01
  -5.921462e+00   6.174724e+01
  -1.084376e+02   6.456416e+01
  -6.189244e+01   1.327454e+01
   1.052679e+01  -9.858965e+01
   1.557895e+02  -6.505399e+01
   1.568331e+02  -4.288774e+00
   3.952533e+01   1.917664e+02
  -1.347880e+02   1.614270e+02
  -1.539421e+02   9.707988e+01
  -2.058404e+02  -6.728279e+01
  -8.128541e+01  -1.181683e+02
   7.203783e+01  -1.344411e+02
   1.178111e+02  -4.079095e+01
   5.742851e+01  -5.867758e+01
   7.945487e+01  -7.230310e+01
   4.392982e+01  -4.984369e+01
   9.689164e+01  -2.495627e+01
   1.014788e+02   1.315186e+02
   5.711040e+01   1.902657e+02
  -5.366530e+01   1.706215e+02
  -1.211434e+02  -1.287352e+01
  -9.318705e+01  -7.237668e+01
  -1.625238e+01  -1.005737e+02
   5.177530e+01  -8.678594e+01
   1.351308e+00   4.306321e+00
   1.478522e+01   5.483084e+01
  -1.641849e+01   3.521695e+01
   6.012221e+01  -1.094283e+01
   5.550959e+01   8.940102e+00
   6.867590e+00   4.059135e+01
  -6.150944e+01   6.784210e+01
  -2.050677e+02   5.042576e+00
  -1.565315e+02  -5.016128e+01
  -1.174927e+01  -1.135075e+02
   1.148331e+02  -9.795019e+01
   1.580591e+02  -3.074469e+01
   4.458382e+01   4.326733e+01
  -6.491692e+01   5.361610e+01
  -8.566674e+01  -6.925926e+00
  -4.635913e+01  -4.976414e+01
   8.873282e+01  -4.751072e+01
   6.559040e+01   7.748985e+00
   5.312575e+01   5.801952e+01
   1.990068e+01   5.183167e+01
   3.519386e+01   2.494276e+01
   3.919333e+01   4.986161e+00
   2.480765e+01   4.544765e+01
  -2.225365e+01   1.055891e+02
  -9.304629e+01   1.224002e+02
  -1.235046e+02   6.960973e+01
  -1.236405e+02  -4.510787e+01
  -1.466299e+01  -8.969835e+01
   8.939537e+01  -4.441467e+01
   7.273877e+01   2.630180e+01
  -6.483618e+01   7.324130e+01
  -1.039101e+02  -3.089327e+01
  -3.630896e+01  -1.215554e+02
   6.534826e+01  -1.017687e+02
   1.329041e+02  -3.030882e+01
   1.195050e+02   3.039178e+00
  -7.551564e+00   7.096440e+01
  -7.251501e+01   7.615102e+01
  -7.366422e+01  -1.884329e+01
   5.530692e+01  -4.728673e+01
   8.930362e+01   9.766092e+00
   3.176033e+01   1.329161e+02
  -5.743883e+01   1.302829e+02
  -1.158419e+02   6.533612e+01
  -1.059315e+02  -6.281342e+01
  -1.512133e+01  -1.388069e+02
   8.232965e+01  -1.316494e+02
   8.586569e+01  -3.467400e+01
   2.670821e+01   8.768427e+01
   1.575587e+01   8.420638e+01
  -6.202076e+01  -5.458171e+00
  -5.883655e+01   1.966839e+00
  -1.432385e+01  -3.456645e+01
  -3.458404e+00   7.152872e+01
  -2.557184e+01  -2.843285e+00
  -1.051115e+01  -8.701221e+01
  -5.103164e+01  -1.182591e+02
   2.681193e+01  -2.369341e+01
   8.949052e+01  -1.805502e+01
   9.772317e+01   5.755336e+01
   2.929202e+01   5.813504e+01
  -8.889287e+01   2.310992e+01
  -9.803079e+01  -3.463749e+01
   1.378140e+01  -3.547892e+01
   2.244098e+01  -2.600968e+01
  -9.050309e+00  -2.735599e+01
  -3.123204e+01   2.449248e+01
   7.216527e+00  -2.272353e+01
   7.733655e+01  -1.974345e+01
   5.602256e+01   4.818695e+01
   4.962476e+00   7.546322e+01
  -8.179346e+01   4.315328e+01
  -1.202855e+02   5.515414e+01
  -1.396364e+02  -4.687004e+01
  -6.126532e+01  -1.317055e+02
   8.330148e+01  -1.233848e+02
   1.217836e+02  -5.694699e+01
   7.459581e+01   2.477408e+01
   1.409638e+01   6.272186e+01
   2.048899e+01   1.525956e+01
  -5.820320e+01   3.791939e+00
   8.604690e+00   3.237263e+01
  -2.320719e+01   5.747250e+01
  -6.975581e+01   4.088678e+01
  -6.858052e+01  -6.402477e+01
  -7.622546e+01  -9.889694e+01
  -2.299429e+00  -1.101798e+02
   6.880727e+01  -4.127174e+01
   6.393660e+01   3.771786e+01
   5.003831e+01   8.466677e+01
  -1.019817e+02   5.269194e+01
  -7.818247e+01  -3.141796e+01
  -7.224184e+01  -4.758003e+01
   1.422358e+01  -3.999588e+01
   3.236031e+01  -2.265085e+01
  -4.559601e+01   3.554364e+01
  -5.178435e+01   1.543301e+01
  -3.380801e+00  -2.868624e+01
   5.757934e+01  -7.165339e+01
   1.005293e+02  -4.692270e+01
   6.340963e+01  -5.669482e+00
   1.693375e+01   4.501360e+01
  -5.521884e+01   8.007549e+01
  -4.324185e+01  -2.829117e+01
   2.091650e+01  -1.926242e+01
   3.278853e+01  -3.348125e+01
   2.610256e+01   4.295799e+01
   3.416140e+01   5.005726e+01
  -1.582733e+01   7.874187e+01
  -6.227770e+01  -2.738506e+01
  -1.566347e+01   4.827911e+00
  -3.261613e+01  -3.592743e+00
  -2.935360e-01  -2.330797e+01
   1.631616e+01   9.130633e+00
   3.535386e+00  -9.145488e+00
  -2.633775e+01  -9.094648e+00
   3.392398e+01  -1.552176e+01
   2.489018e+01   6.850921e+01
   1.026501e+00   7.370055e+01
  -4.598205e+01  -9.181228e+00
  -3.673153e+01  -3.014543e+01
   1.564944e+01  -4.231233e+01
   7.478228e+01  -1.262967e+01
   4.824459e+01   2.284816e+01
   5.484372e+01   3.491419e+01
  -1.485103e+01   7.512542e+01
  -6.751724e+01   8.765683e+00
  -3.802357e+01  -8.816557e+00
   2.907593e+01  -1.898638e+00
   8.522321e+01   2.676721e+01
  -3.993814e+01   1.539876e+01
  -6.369497e+01   8.972808e+00
