
 $NMID
 id='ANONYMOUS ', fmtdat='(2E16.6)'
 volume=1.0
 tramp=1.0
 $END
   2.472968e+03   1.149689e+02
   1.784440e+03   1.375583e+03
   6.524290e+01   1.781436e+03
  -8.315437e+02   1.139038e+03
  -7.608859e+02   2.870890e+02
  -7.883672e+01  -2.074358e+02
   2.208486e+02  -5.074713e+01
   1.830708e+01   4.804952e+02
  -3.171361e+02   5.355479e+02
  -4.903180e+02   1.355101e+02
  -4.003373e+02  -3.974293e+02
  -6.161106e+01  -5.327563e+02
   2.492181e+02  -2.092994e+02
   2.286820e+02   2.776062e+02
  -4.972257e+01   4.094422e+02
  -3.639592e+02   9.066904e+01
  -3.015359e+02  -3.984357e+02
   5.710622e+01  -5.020890e+02
   3.465467e+02  -2.527675e+02
   3.168645e+02   1.093181e+02
   1.215894e+02   2.609610e+02
  -9.612089e+01   2.440970e+02
   2.611458e+00   1.208019e+02
   1.192749e+02   6.669822e+01
   2.371732e+02   2.203908e+02
  -2.043312e+01   3.036983e+02
  -3.865768e+02   1.539040e+02
  -4.072061e+02  -1.034176e+02
  -2.044321e+02  -2.960471e+02
   2.054521e+02  -1.690842e+02
   3.969388e+02   7.301749e+01
   1.511755e+02   2.953240e+02
  -2.288822e+02   3.229048e+02
  -3.605233e+02   1.222853e+02
  -2.859897e+02  -1.415055e+02
  -7.678447e+01  -2.598512e+02
   5.440871e+01  -2.284385e+02
  -4.766686e+01   5.601484e+01
  -1.067120e+02   1.288648e+02
  -1.996429e+02  -8.034417e+01
  -5.353856e+01  -4.111695e+02
   2.612002e+02  -3.429451e+02
   2.998192e+02  -5.099732e+01
   9.829852e+01   2.593251e+02
  -9.689251e+01   1.221223e+02
  -1.423378e+02  -2.165958e+02
   7.839976e+01  -3.488509e+02
   3.651011e+02  -7.786636e+01
   4.184084e+02   2.403721e+02
   1.519430e+02   3.454571e+02
  -2.687718e+02   2.019909e+02
  -3.604709e+02  -6.408477e+00
  -2.226368e+02  -2.007854e+02
   5.232638e+01  -2.328492e+02
   2.018567e+02  -6.268939e+01
   1.608752e+02   3.884730e+01
   5.601654e+00   4.108140e+01
  -4.734502e+01  -6.738156e+01
   6.130076e+01  -5.790522e+01
   2.054894e+02   6.968083e+01
   1.183726e+02   1.562574e+02
  -1.395223e+02   1.849407e+02
  -2.737337e+02   1.082737e+02
  -2.067860e+02  -9.960965e+01
   2.469957e+01  -2.473362e+02
   2.297422e+02  -2.621548e+02
   2.981983e+02  -1.214268e+02
   2.348534e+02   1.193619e+02
   4.725484e+01   2.967135e+02
  -3.847042e+00   2.857124e+02
   3.591105e+00   1.735538e+02
  -5.495343e+01   1.271186e+02
  -8.282687e+01   5.725988e+01
  -1.985482e+02   3.931762e+01
  -1.599025e+02  -9.645240e+01
  -7.393940e+01  -2.263451e+02
   8.199160e+01  -1.959198e+02
   1.667901e+02   3.480489e+01
   8.280528e+01   1.936437e+02
  -3.470910e+01   2.000853e+02
  -1.682277e+02   2.826029e+01
  -2.273162e+02  -1.008308e+02
  -1.882827e+02  -2.264432e+02
   4.416731e+00  -2.115771e+02
   1.327820e+02  -1.235078e+02
   1.206967e+02  -7.333016e+01
   1.400429e+02  -8.670971e+01
   2.704233e+02   9.333712e+00
   3.177850e+02   1.187881e+02
   2.524285e+02   2.636241e+02
  -2.861478e+01   3.264820e+02
  -2.967097e+02   3.255327e+02
  -3.438956e+02   9.700228e+01
  -2.471719e+02  -1.196525e+02
  -1.409114e+01  -2.130069e+02
   3.381915e+01  -1.932527e+02
   2.262990e+01  -6.498956e+01
  -8.724048e+01   5.988407e+01
  -1.353780e+02  -3.678081e+01
   4.379817e+00  -1.288875e+02
   9.040685e+01  -1.142612e+02
   9.680747e+01   4.690059e+01
  -2.389858e+01   7.076804e+01
  -9.712805e+01  -1.685883e+01
  -1.251083e+02  -2.231420e+02
   7.656493e+01  -2.845456e+02
   2.036920e+02  -1.542882e+02
   2.658401e+02   3.949490e+01
   2.097885e+02   2.130401e+02
   7.675753e+01   2.030453e+02
  -8.557328e+01   1.336123e+02
  -1.500313e+02   1.783547e+01
  -5.092432e+01  -2.037096e+01
   5.592657e+01   2.042726e+01
   1.775644e+01   9.018985e+01
  -8.180487e+01   5.975123e+01
  -1.488165e+02  -1.009033e+01
  -3.129938e+01  -8.093812e+01
   2.329214e+01   2.982950e+01
  -8.895940e+00   9.821665e+01
  -1.569226e+02   9.257689e+01
  -2.825607e+02  -2.955981e+01
  -2.044565e+02  -1.583844e+02
  -4.813091e+01  -2.088213e+02
   1.683861e+02  -1.808263e+02
   2.013685e+02  -6.143294e+01
   1.113073e+02   1.667466e+01
  -4.203077e+00   3.395794e+01
  -8.067377e+00   1.731978e+01
   1.743811e+01  -3.879405e+01
   1.434435e+02  -3.058445e+00
   1.265871e+02   6.087433e+01
   5.018412e+01   1.731019e+02
  -2.333861e+01   1.345175e+02
  -1.087815e+02  -5.711956e+01
  -3.778779e+01  -3.325580e+01
   6.097504e+01   4.514904e+00
   3.042422e+01   1.394835e+02
  -4.344469e+01   1.257563e+02
  -1.604141e+02   5.160994e+01
  -1.505872e+02  -1.517836e+02
  -8.233779e+00  -1.604396e+02
   1.373613e+02  -1.654315e+02
   1.393044e+02  -2.540443e+00
   5.832343e+01   7.757493e+01
  -3.990895e+01   6.002915e+01
  -6.864588e+01  -2.401963e+01
   2.372431e+00  -7.410562e+00
   7.174222e+01   1.491464e+01
  -3.158445e+01   4.572557e+00
  -7.318394e+01   1.049650e+01
  -1.079202e+02  -5.599197e+01
  -5.936035e+01  -1.220466e+02
   7.757770e+01  -1.244709e+02
   1.745814e+02  -4.458357e+01
   1.974365e+02   1.255730e+02
   4.931859e+01   2.157839e+02
  -5.828172e+01   1.531830e+02
  -9.387827e+01   2.413808e+01
  -3.653957e+01  -3.941312e+01
  -3.236130e+01  -2.081918e+01
  -9.254493e+01   2.907365e+01
  -9.164836e+01  -1.812018e+01
  -6.180303e+01  -4.887221e+01
   2.563087e+01  -7.760408e+01
   1.130614e+02  -8.198311e+01
   1.096142e+02   4.600360e+01
   7.956380e+00   9.031112e+01
  -1.347164e+02   7.356994e+01
  -1.622426e+02  -1.925601e+01
  -1.123561e+02  -1.279847e+02
   6.418935e+01  -1.621078e+02
   1.830518e+02  -5.952325e+01
   1.922098e+02   8.184121e+01
   9.896129e+01   7.653625e+01
  -2.376059e+01   1.143953e+02
  -7.440542e+01   3.068197e+01
  -4.892348e+01   7.697142e+01
  -3.170594e+01   7.230004e+01
  -1.040264e+02   4.848980e+01
  -1.197519e+02  -1.260316e+01
  -9.274086e+01  -1.089135e+02
  -2.805204e+00  -1.734782e+02
   1.225609e+02  -1.252730e+02
   9.973408e+01   3.874946e+00
   7.779554e+01   9.148589e+01
   2.216155e+01   1.272398e+02
  -8.856814e+01   5.289718e+01
  -3.789885e+01  -1.367444e+01
   1.535821e+01  -2.358251e+01
   3.545356e+01  -5.848179e+01
  -4.979074e+01  -3.868033e+01
  -7.315832e+01   4.618837e+01
  -8.670277e+01  -4.417021e+01
   8.117658e+01  -7.134226e+01
   1.594138e+02  -8.094455e+00
   1.248147e+02   4.225783e+01
  -2.690443e+01   6.433454e+01
  -1.136552e+02   4.515925e+01
  -9.611258e+01   5.076325e+00
  -8.256920e+00   2.001922e+01
   4.954187e+01  -3.935100e+01
   4.609497e+01   2.916570e+01
  -8.952810e+00   7.209185e+01
  -5.491676e+01   7.440104e+01
  -8.471862e+01   2.761547e+01
  -4.464742e+01  -7.377545e+01
  -2.008005e+01  -3.057885e+01
  -1.728757e+01  -3.098714e+00
  -8.449261e+01  -5.212746e+01
  -3.477522e+01  -7.501978e+01
   9.802554e+00  -1.225750e+02
   1.140423e+02  -1.250661e+02
   1.598296e+02  -2.778660e+01
   1.294754e+02   1.232949e+02
   2.979488e+01   1.252341e+02
  -9.261221e+01   5.058475e+01
  -7.683731e+01  -2.596329e+01
   2.490813e+01  -1.546083e+01
   1.061534e+02   5.054201e+01
   5.565652e+01   7.638953e+01
  -6.434298e+01   5.328845e+01
  -1.785692e+02   6.053056e+01
  -1.116915e+02  -4.760768e+01
  -2.693584e+01  -7.418828e+01
   7.059234e+01  -6.233238e+01
   6.213476e+01   1.033253e+01
  -3.761144e+01   1.602555e+01
  -3.383232e+01   1.152681e+00
  -2.509370e+01  -9.658978e+01
   5.758721e+01  -1.470606e+02
   1.168996e+02  -8.263449e+01
   1.185126e+02   5.183784e+01
   4.299373e+01   1.364433e+02
  -5.564738e+01   1.091972e+02
  -9.684867e+01  -2.805922e+00
  -3.054202e+01  -8.100235e+01
   6.807735e+00  -5.633388e+01
   6.169649e+01   8.451997e+00
   3.607250e+01   3.564700e+01
   7.910255e+00   2.102777e+01
  -2.262632e+01  -6.025843e+01
   4.658230e+01   1.002901e+01
   4.071171e+01   9.268072e+01
   2.543259e+01   1.140124e+02
  -9.643396e+01   4.113532e+00
  -8.433439e+01  -4.570900e+01
  -1.103302e+02  -5.820286e+01
  -3.215212e+01  -6.122811e+01
   5.387198e+01  -2.287517e+01
   1.095431e+02  -3.938561e+01
  -1.643439e+01   3.090567e+01
   5.363608e+00   4.054958e+01
  -5.487352e+01  -6.530372e+00
  -1.491395e+00   3.308550e+01
  -1.288042e+01  -3.338453e+01
  -3.415198e+01  -2.923727e+00
  -1.689760e+01   2.041154e+01
  -1.196931e+01  -8.524167e+01
   7.209580e+01  -9.181509e+01
   1.146354e+02  -3.400365e+01
   1.603239e+02   4.244505e+01
   6.768714e+00   1.046903e+02
  -6.378446e+01   1.243565e+02
  -1.362278e+02   1.043927e+02
  -7.017075e+01  -5.903811e+01
   4.570479e+00  -6.148579e+01
   3.397911e+01  -1.429849e+00
  -4.622040e+00  -1.668608e+01
  -2.613535e+01  -4.652125e+00
   1.124716e+01  -7.721531e+01
   1.041763e+01  -8.178050e+01
   6.418606e+01   3.792171e+01
   9.023163e+01   8.609223e+01
   3.974521e+01   5.271884e+01
  -7.807428e+01   2.067676e+01
  -7.797966e+01  -7.117377e+01
  -6.410633e+01  -6.362940e+01
   5.761922e+01  -4.100855e+01
   8.189353e+01   1.672619e+01
   5.609833e+01   7.204625e+01
  -2.805340e+01   3.046512e+01
  -2.735342e+01   4.470899e+01
   1.794062e+01  -1.280604e+01
   2.434203e+01  -7.289345e+00
   8.135669e+00  -1.667700e+01
  -3.915173e+01   1.538064e+01
  -6.833048e+01   6.221800e+01
  -5.369476e+01   3.435698e+01
  -3.478650e+01  -7.154067e+01
   3.404497e+01  -8.817182e+01
  -3.587238e+00  -2.991944e+00
   2.034785e+01   3.846978e+01
  -2.885179e+01   2.811317e+01
  -6.982236e+00  -4.979121e+01
   5.262956e+00  -5.467336e+01
   1.115307e+01  -5.924416e+01
   4.130728e+01  -3.329153e+00
   1.777783e+01   1.674837e+01
   8.578790e+00   4.458840e+01
   1.529757e+01  -3.646117e+01
  -3.285750e+01  -3.036979e+01
   1.297933e+01   2.269299e+01
   3.784900e+01   5.739451e+01
  -9.400944e+00   5.755212e+01
  -5.058312e+01  -4.388864e+01
  -3.608557e+01  -4.388131e+01
   5.790882e+01  -1.257526e+01
   7.092946e+01   5.687914e+01
   3.984733e+01   7.755044e+01
  -2.743420e+01   3.015324e+01
  -6.291580e+01   5.362784e+00
  -5.114930e+01  -6.200019e+01
  -9.038551e+00  -5.950603e+01
   4.301606e+01  -6.107568e+01
  -1.471284e+01  -2.210812e+01
   2.228068e+01  -1.723081e+01
   3.087393e-01   1.236349e+01
   2.525768e+01  -1.132855e+01
   4.238126e+01  -3.402112e+01
