
 $NMID
 id='ANONYMOUS ', fmtdat='(2E16.6)'
 volume=1.0
 tramp=1.0
 $END
  -3.041078e+03   8.735851e+01
  -1.987668e+03  -1.912463e+03
   1.387769e+02  -2.014939e+03
   1.332533e+03  -1.065301e+03
   8.714897e+02   1.203043e+02
  -7.522996e+01   3.515819e+02
  -5.178464e+02  -9.937910e+01
   3.646688e+01  -7.201269e+02
   4.102843e+02  -5.281536e+02
   7.042164e+02  -2.269413e+01
   3.910140e+02   5.408371e+02
  -9.385170e+01   6.573413e+02
  -3.928465e+02   1.091787e+02
  -2.626371e+02  -4.631765e+02
   1.594741e+02  -5.671875e+02
   4.115219e+02  -3.546522e+01
   2.494654e+02   5.108823e+02
  -1.716396e+02   5.841748e+02
  -4.984848e+02   2.509666e+02
  -4.676992e+02  -2.913755e+02
  -9.825578e+01  -3.605937e+02
   2.052432e+02  -2.601550e+02
   1.156834e+02  -1.098169e+02
  -1.526014e+02  -4.015947e+01
  -1.955223e+02  -1.944838e+02
  -8.932291e+00  -3.008688e+02
   3.937233e+02  -1.705452e+02
   5.592803e+02   1.297571e+02
   3.228709e+02   3.684895e+02
  -3.350662e+02   2.818612e+02
  -4.603600e+02  -9.564767e+01
  -2.601987e+02  -3.632737e+02
   2.502693e+02  -3.523046e+02
   4.749542e+02  -1.193200e+02
   2.857113e+02   2.024132e+02
   6.615470e+01   2.841435e+02
  -5.804393e+01   2.061957e+02
   6.273182e+00  -9.962554e+01
   1.495336e+02  -1.362796e+02
   2.215426e+02   1.538662e+02
   5.614361e+01   4.827311e+02
  -2.305358e+02   4.110071e+02
  -3.435694e+02   2.371422e+01
  -1.202534e+02  -3.236665e+02
   1.344352e+02  -1.869100e+02
   1.682778e+02   2.423189e+02
  -7.000231e+01   3.995028e+02
  -4.218128e+02   9.813740e+01
  -4.142643e+02  -3.416973e+02
  -1.467328e+02  -4.807102e+02
   2.720851e+02  -2.437318e+02
   4.786620e+02   5.746383e-01
   2.591021e+02   2.236544e+02
  -5.069938e+01   2.427619e+02
  -3.193423e+02   2.552079e+01
  -1.443210e+02  -5.260827e+01
   1.118180e+01  -8.929544e+01
   8.736212e+01   5.584546e+01
  -6.900278e+01   1.055788e+02
  -2.756690e+02  -7.466272e+01
  -1.166850e+02  -1.840716e+02
   1.170402e+02  -2.545146e+02
   3.058237e+02  -1.350768e+02
   2.096614e+02   1.043516e+02
  -2.693420e+01   2.635910e+02
  -2.473886e+02   2.919532e+02
  -2.857784e+02   1.111417e+02
  -2.264083e+02  -1.245182e+02
  -2.495261e+01  -3.279614e+02
   4.575468e+01  -2.845755e+02
   1.641354e+01  -1.295876e+02
   5.588323e+01  -6.126470e+01
   8.764594e+01  -4.922299e+01
   1.980806e+02  -6.528613e+01
   2.397614e+02   1.323731e+02
   1.078132e+02   2.443183e+02
  -1.025638e+02   1.960705e+02
  -1.843587e+02  -3.689466e+01
  -8.028985e+01  -1.781509e+02
   2.746261e+01  -2.231237e+02
   2.006371e+02  -1.041838e+02
   2.859737e+02   1.627899e+02
   1.643638e+02   3.219931e+02
  -6.314282e+01   2.411072e+02
  -1.503728e+02   1.339514e+02
  -1.681091e+02   2.544828e+01
  -9.444427e+01   6.918394e+01
  -2.077139e+02  -8.139588e+00
  -3.602611e+02  -4.343335e+01
  -3.583715e+02  -3.109465e+02
   8.587827e+00  -3.655563e+02
   3.535468e+02  -3.212307e+02
   4.361879e+02  -1.061638e+02
   1.810683e+02   4.617025e+01
   5.717687e+01   2.616314e+02
  -6.909983e+01   2.159988e+02
   2.044140e-01   1.127964e+01
   8.728496e+01  -2.750545e+01
   1.672428e+02   4.376570e+01
   2.014010e+01   9.726805e+01
  -9.870661e+01   9.541108e+01
  -1.384017e+02  -2.160492e+00
   1.946832e+01  -1.087320e+02
   1.786812e+02  -1.339702e+01
   1.455560e+02   2.117080e+02
   1.093709e+01   2.959518e+02
  -2.127672e+02   1.474760e+02
  -2.866679e+02  -5.974478e+01
  -2.359613e+02  -2.134127e+02
  -7.343081e+01  -2.353033e+02
   1.238786e+02  -1.123865e+02
   1.032141e+02   3.503675e+00
   3.456288e+01   1.363800e+00
  -9.778266e+01  -5.645559e+01
  -3.010723e+01  -9.812008e+01
   8.991799e+01  -7.226233e+01
   1.777295e+02   4.410944e+01
   2.703130e+01   5.711820e+01
  -6.883947e+01   1.156842e+01
  -3.932911e+01  -5.872874e+01
   8.961097e+01  -1.042375e+02
   2.720762e+02   1.140756e+01
   1.856606e+02   1.697188e+02
  -2.372638e+01   1.929749e+02
  -1.516085e+02   2.206577e+02
  -2.052477e+02   5.388067e+01
  -1.224080e+02  -6.008683e+01
   2.199375e+01  -8.259829e+01
   9.047537e+01  -1.883424e+01
  -3.962801e+01   7.643022e+01
  -1.797685e+02   6.440212e+01
  -1.659187e+02  -1.091424e+02
  -7.588959e+01  -1.975559e+02
   8.411177e+01  -1.498279e+02
   1.154937e+02  -6.778349e+00
   7.802667e+01   5.756179e+01
  -4.454943e+01  -3.487814e+01
  -3.578975e+01  -7.191651e+01
   6.968969e+01  -1.215197e+02
   1.519903e+02  -1.921889e+01
   1.573105e+02   1.558343e+02
  -2.193919e+00   2.112533e+02
  -1.325123e+02   8.999114e+01
  -1.837420e+02   1.191411e+01
  -1.942747e+01  -1.156385e+02
   2.510231e+01  -8.882780e+01
   8.947501e+01   2.196438e+01
   4.655934e+01   3.965739e+01
  -7.084913e+01   3.730105e+01
   2.471493e+01   6.559340e+00
   8.633024e+01   4.961403e+01
   9.353513e+01   6.125537e+01
   2.010877e+01   1.825742e+02
  -1.329519e+02   1.574506e+02
  -1.568975e+02   2.818656e+01
  -1.831001e+02  -1.262824e+02
   1.615620e+01  -2.088462e+02
   6.637593e+01  -1.444243e+02
   9.376204e+01  -5.149906e+01
   7.517080e+01   4.409235e+01
   4.893370e+01   3.216699e+01
   5.851091e+00   6.408226e-01
   9.196706e+01   3.663947e+01
   6.347642e+01   8.803786e+00
  -6.558891e+01   1.144923e+02
  -1.120326e+02   3.367996e+01
  -1.024434e+02  -4.794550e+01
   3.896701e+01  -8.431978e+01
   1.438699e+02  -1.029546e+02
   2.131732e+02   8.046804e+01
   6.852637e+01   1.595779e+02
  -1.041438e+02   1.814086e+02
  -2.397040e+02   5.600451e+01
  -1.817631e+02  -8.252644e+01
  -9.195405e+01  -1.708133e+02
   2.857006e+01  -8.793157e+01
   8.911819e+01  -8.558043e+01
   5.262549e+01  -8.715119e+01
   3.608143e+01  -1.085111e+02
   8.937021e+01  -3.401468e+01
   1.176064e+02   2.318695e+01
   1.267643e+02   1.578005e+02
   1.362143e+01   1.764730e+02
  -7.451281e+01   1.443608e+02
  -1.599886e+02  -1.797499e+01
  -1.329306e+02  -1.558824e+02
   4.898757e+00  -1.662686e+02
   5.506511e+01  -7.136252e+01
   1.092745e+02  -2.076608e+01
   4.669820e+00   7.214600e+01
  -4.287843e+01   2.018469e+01
   3.495698e-01  -6.409739e+00
   6.319418e+01   6.598218e+01
   6.491370e+01   2.979956e+01
  -6.902656e+01   2.360526e+01
  -1.240502e+02   2.743206e+01
  -1.415956e+02  -3.167759e+01
  -1.849381e+01  -5.412590e+01
   8.182810e+01  -6.762568e+01
   1.077539e+02  -2.656086e+01
   2.859163e+01   4.745303e+00
  -7.805136e+01   4.658770e+01
  -4.445455e+01  -9.942116e-02
  -2.440204e+01  -4.429909e+01
   6.508707e+01  -1.065729e+02
   6.640974e+01  -5.466869e+00
   2.816550e+01   7.186302e+01
   3.170658e+01   4.159659e+01
   9.056056e+01  -1.719135e+00
   8.270984e+01   6.723991e+00
   8.487109e+01   8.799537e+01
  -6.221809e+01   1.193159e+02
  -1.234370e+02   1.270293e+02
  -1.455380e+02   7.120103e+01
  -1.190392e+02  -1.177522e+02
   2.962745e+00  -8.179964e+01
   9.894424e+01  -5.036171e+01
   3.461503e+01   1.255325e+01
  -2.761339e+01   3.096984e+01
  -1.293772e+02  -4.989717e+01
  -6.485142e+01  -5.240951e+01
   7.865333e+01  -1.079312e+02
   1.584312e+02  -1.638362e+01
   1.426081e+02   1.816831e+01
   1.179632e+01   4.535873e+01
  -4.395148e+01   8.253942e+01
  -7.746776e+01   2.038876e+01
   2.367924e+01  -2.881835e+00
   8.179201e+01   1.718400e+01
   2.980992e+01   7.612809e+01
  -1.084652e+02   1.579323e+02
  -1.785184e+02   1.026141e+02
  -7.236688e+01  -1.183395e+02
  -1.012564e+01  -1.874635e+02
   8.951352e+01  -1.559758e+02
   1.187969e+02   2.945436e+01
   1.048426e+01   1.222267e+02
   7.487515e-01   1.133601e+02
  -6.437344e+01  -6.395982e+00
  -5.874019e+00  -3.142336e+01
  -1.053228e+01  -2.557536e+01
   1.483519e+01  -4.380104e+00
  -2.421543e+01  -3.938201e+00
  -2.422392e+01  -6.463987e+01
  -1.861495e+01  -1.095017e+02
   3.532081e+01  -7.319679e+00
   1.255228e+02   4.497518e+01
   1.148751e+02   6.815896e+01
  -3.197526e+01   5.114381e+01
  -1.196500e+02  -1.330011e+01
  -1.115565e+02   1.165216e+00
  -1.502348e+01  -2.365645e+01
   1.249632e+01   2.319126e+01
   3.714922e+01   1.207764e+01
  -5.197470e+00  -8.396376e+00
  -3.215993e+01  -4.639991e+01
   7.975291e+01  -1.954322e+01
   1.130556e+02   1.537755e+01
  -4.605206e+00   1.220848e+02
  -1.395985e+02   6.748727e+01
  -1.764548e+02   6.215253e+01
  -1.453104e+02  -5.485809e+01
  -7.681456e+01  -1.693324e+02
   9.736763e+01  -1.632456e+02
   1.041240e+02  -6.111569e+01
   6.917144e+01  -2.375478e+01
  -2.460163e+01   6.838167e+01
  -9.145775e-01  -1.759433e+01
   2.412697e+01   2.590266e+01
   4.361186e+01   6.034932e+01
   3.632626e+01   6.954203e+01
  -2.902443e+01   4.694958e+01
  -5.130137e+01  -6.316956e+01
  -6.468574e+01  -9.842356e+01
   7.371145e+00  -2.709175e+01
   6.882508e+01  -1.615900e+01
   1.121840e+02   1.121713e+02
   3.463909e+01   7.905023e+01
  -7.633088e+01   3.601882e+01
  -1.158307e+02  -2.158306e+01
   2.052783e+01  -4.528663e+01
   2.621614e+01  -1.559524e+01
   4.366827e+01  -4.104529e+01
  -2.593802e+01  -5.430392e+01
  -1.410373e+01   2.451925e+00
  -2.465281e+01   1.223452e+00
   6.153592e+01  -5.715265e+00
   1.046879e+02   2.154263e+01
   6.440333e+01   2.728869e+01
  -2.649167e+01   7.325914e+01
  -5.445759e+01   6.846213e+01
  -7.093109e+01   1.864635e+01
   7.768380e+00  -3.010419e+01
   2.493084e+01  -3.305892e+01
  -3.663186e+00   2.494729e+01
   5.137248e+00   4.769541e+01
  -2.319669e+00   8.147365e+01
  -3.061677e+01   5.447683e-01
  -5.226491e+01   1.095009e+01
  -1.663283e+01   2.286992e+01
  -5.571022e+00  -2.491069e+00
  -2.421452e+01   4.255870e+01
  -3.031213e+01   1.016225e+01
  -6.537426e+00  -3.337627e+01
   1.171385e+01  -2.435591e+00
   3.498652e+01   1.639504e+01
   1.479682e+01   9.033914e+01
  -6.188116e+01  -4.646250e+01
  -3.508120e+01  -3.480343e+01
   1.564206e+01  -6.486396e+01
   4.468033e+01  -5.251925e+01
   7.675428e+01   1.378703e+01
   2.207352e+01   4.104405e+01
  -6.519861e-01   5.252734e+01
  -5.499226e+01   1.885580e+01
  -1.932837e+01   2.545148e+01
  -4.352535e+00   1.573596e+01
   4.130525e+01  -2.998522e+01
  -4.896008e+01   3.682019e+01
  -7.452993e+01   2.066315e+01
