
 $NMID
 id='ANONYMOUS ', fmtdat='(2E16.6)'
 volume=1.0
 tramp=1.0
 $END
   2.947392e+03  -2.909072e+01
   1.935652e+03   1.362116e+03
   5.219114e+01   1.530521e+03
  -7.938657e+02   9.856064e+02
  -7.830553e+02   4.459355e+02
  -2.783360e+02  -7.856773e+01
   1.615094e+02   1.485823e+01
   9.976645e+01   3.813408e+02
  -3.953374e+02   4.626280e+02
  -4.622320e+02   1.042606e+02
  -2.864045e+02  -4.269750e+02
  -1.096966e+02  -5.688218e+02
   1.115314e+02  -2.211644e+02
   1.518056e+02   2.838750e+02
  -1.485457e+02   3.995341e+02
  -3.434411e+02   8.741380e+01
  -2.289413e+02  -4.169780e+02
   5.013127e+01  -5.568332e+02
   3.806474e+02  -3.726237e+02
   4.697927e+02   1.233012e+02
   1.775624e+02   2.937478e+02
  -6.607498e+01   2.397853e+02
  -2.255786e+01   8.679766e+01
   2.011533e+02   1.480575e+02
   2.673692e+02   3.317496e+02
  -9.492024e+01   3.833167e+02
  -4.628167e+02   7.687052e+01
  -4.968989e+02  -2.458789e+02
  -1.509752e+02  -3.439233e+02
   3.411765e+02  -7.882752e+01
   3.922188e+02   1.613471e+02
   4.959835e+01   3.370515e+02
  -2.430823e+02   2.732238e+02
  -3.876766e+02   5.348670e+01
  -2.610108e+02  -9.818997e+01
  -7.423956e+01  -2.963934e+02
   2.720745e+01  -1.320407e+02
  -1.173284e+02   4.729853e+01
  -1.844964e+02   1.001270e+02
  -8.004893e+01  -1.922562e+02
   7.140376e+01  -4.243629e+02
   2.341249e+02  -3.294541e+02
   1.937411e+02   7.351356e+01
   7.066466e+01   2.370550e+02
  -1.252534e+02   7.681127e+01
  -1.257482e+02  -2.300028e+02
   1.292817e+02  -2.723977e+02
   3.449609e+02  -1.801697e+00
   3.683300e+02   3.034181e+02
   1.330168e+02   4.549362e+02
  -2.650146e+02   2.626287e+02
  -4.747715e+02  -5.387627e+01
  -2.860187e+02  -1.850538e+02
   3.410048e+01  -1.555560e+02
   2.595719e+02  -6.926606e+01
   2.037948e+02   1.346934e+01
   3.350545e+01   6.524074e+00
   1.255749e+01  -1.972092e+01
   7.698053e+01  -1.705806e+01
   1.831349e+02   5.865619e+01
   1.484050e+02   1.178693e+02
  -1.024976e+02   2.455870e+02
  -3.124617e+02   1.250723e+02
  -2.859009e+02  -1.167865e+02
   3.572920e+01  -3.389242e+02
   2.993895e+02  -3.627227e+02
   3.679683e+02  -1.681579e+02
   2.327564e+02   1.279808e+02
   2.148247e+01   3.521423e+02
   1.783456e+01   3.245534e+02
  -1.213788e+01   1.659407e+02
  -2.767376e+01   9.481151e+01
  -1.556606e+02   1.487770e+02
  -2.220007e+02  -8.376412e+00
  -2.541987e+02  -1.945315e+02
  -7.038516e+01  -2.087951e+02
   8.492043e+01  -1.539376e+02
   1.441188e+02   5.754421e+01
   7.473253e+01   3.106050e+02
  -8.476909e+01   2.310502e+02
  -2.167029e+02  -4.712526e+00
  -2.146398e+02  -1.796049e+02
  -1.334185e+02  -3.094955e+02
   3.902903e+01  -2.648318e+02
   1.125900e+02  -1.423549e+02
   1.383245e+02  -9.144421e+01
   1.544326e+02  -1.056210e+02
   2.855925e+02  -3.316514e+01
   3.987130e+02   1.047158e+02
   2.886379e+02   3.269715e+02
  -2.406099e+01   4.407571e+02
  -4.029784e+02   3.883499e+02
  -4.867797e+02   1.319067e+02
  -2.489509e+02  -1.072761e+02
  -1.069114e+00  -2.061971e+02
   1.306130e+02  -1.819749e+02
  -1.204744e+01  -4.738356e+01
  -1.254270e+02   1.542162e+01
  -1.310841e+02  -6.685911e+01
   2.156530e+01  -9.989132e+01
   7.522608e+01  -6.929090e+01
   1.189572e+02   8.813912e+01
  -4.265631e+01   1.132281e+02
  -1.624910e+02  -3.645502e+01
  -9.166763e+01  -2.442307e+02
   6.032547e+01  -2.759154e+02
   2.538435e+02  -2.026963e+02
   3.646682e+02   3.840065e+01
   3.084622e+02   3.046889e+02
  -1.032186e+01   2.845553e+02
  -1.174656e+02   1.264631e+02
  -1.553387e+02  -1.035213e+01
   3.659724e+00   7.808684e+00
  -6.647697e+00   6.959806e+01
  -6.828457e+01   3.179577e+01
  -1.136631e+02   1.750679e+01
  -1.464047e+02  -3.980294e+01
   8.121824e+00  -2.698942e+01
   8.213095e+01   3.511565e+01
   4.291892e+01   9.502416e+01
  -1.714918e+02   7.910527e+01
  -2.987499e+02  -3.072190e+01
  -2.620146e+02  -1.922732e+02
  -3.775698e+00  -2.975472e+02
   2.071104e+02  -1.686113e+02
   2.292775e+02  -9.625773e+01
   9.039817e+01   5.858947e+01
  -2.449929e+01   5.871917e+01
  -2.562514e+01   1.083443e+01
   4.653206e+01  -4.135563e+01
   1.943021e+02   3.151510e+01
   1.879361e+02   1.076037e+02
   6.162202e+01   1.461949e+02
  -7.274346e+01   6.989275e+01
  -8.678245e+01   2.498690e+01
  -3.545832e+01  -2.541809e+01
   4.881166e+01   5.309541e+01
   1.495301e+01   9.450151e+01
  -1.160661e+02   6.721465e+01
  -2.020602e+02  -1.946812e+01
  -1.835120e+02  -1.364486e+02
  -1.360097e+01  -1.872238e+02
   1.649937e+02  -1.338388e+02
   1.431004e+02   6.121474e+00
   3.426039e+01   6.850268e+01
  -5.477885e+01   7.513697e+01
  -1.058619e+02   9.732768e+00
  -2.017878e+01  -4.420519e+01
   3.695096e+01  -6.733834e-01
   4.501608e+00   4.914861e+01
  -1.018375e+02  -2.394206e+01
  -9.459558e+01  -1.037928e+02
   1.512126e+01  -2.044625e+02
   1.648725e+02  -1.200275e+02
   2.549822e+02   3.101166e+01
   2.228036e+02   1.837571e+02
   2.680809e+01   1.849670e+02
  -9.957839e+01   1.237728e+02
  -1.245090e+02   1.889217e+01
  -8.651767e+01  -2.584268e+01
  -2.325940e+01  -1.332166e+00
  -7.944309e+01  -2.076563e+01
  -8.201947e+01  -1.633258e+01
  -9.034968e+01  -3.500747e+01
   4.145212e+01  -9.499406e+01
   1.083814e+02  -3.611877e+01
   1.072053e+02   3.165567e+01
  -3.280353e+01   1.397573e+02
  -1.667445e+02   8.640096e+01
  -2.099940e+02  -5.582828e+01
  -3.862829e+01  -2.339679e+02
   1.433796e+02  -2.255320e+02
   2.406269e+02  -5.911535e+01
   2.404446e+02   1.390750e+02
   1.004296e+02   1.541876e+02
  -4.872042e+01   1.830274e+02
  -8.608638e+01   1.684433e+01
  -2.958791e+01   7.942593e+01
  -5.725622e+01   9.786230e+01
  -5.313298e+01   1.097008e+02
  -1.023843e+02  -1.173732e+00
  -9.642448e+01  -1.564321e+02
  -1.825450e+01  -2.081847e+02
   8.869099e+01  -1.514030e+02
   1.582909e+02  -2.656537e+01
   9.459145e+01   1.278002e+02
   9.567191e-01   1.580001e+02
  -4.253696e+01   4.294224e+01
  -6.669759e+01  -7.390242e+00
  -4.053493e+01  -2.117359e+01
   3.048968e+01  -7.595974e+01
  -3.091516e+01   1.349309e+00
  -8.322909e+01  -6.352220e+01
  -6.898938e+01  -5.087698e+01
   6.834856e+01  -2.617630e+01
   1.435291e+02  -1.031071e+01
   1.244033e+02   9.465077e+01
   1.730293e+01   1.080645e+02
  -8.906962e+01   8.069482e+01
  -1.358009e+02  -6.175795e+00
  -3.290706e+01  -6.488093e+01
   1.664488e+01  -3.022261e+01
   5.594423e+01  -6.056804e+00
   3.841473e+01   6.574589e+01
  -1.565224e+01   1.187900e+01
  -7.692444e+01  -2.769019e+01
  -5.167111e+01  -3.658805e+01
  -3.714779e+01   4.828461e+00
   6.330152e+00  -1.058097e+01
  -4.611359e+01  -9.292365e+00
  -4.206287e+01  -4.684221e+01
   6.323470e+01  -1.826654e+02
   1.086004e+02  -1.401145e+02
   1.851520e+02  -3.072757e+01
   1.112547e+02   9.325733e+01
  -2.346242e+01   7.135786e+01
  -6.272067e+01   6.658443e+01
  -6.274371e+01  -4.192355e+01
   3.278243e+01   2.185855e-01
   1.161246e+02   2.322114e+01
   1.047993e+02   4.423289e+01
  -9.189143e+01   1.075626e+02
  -1.475746e+02   3.909537e+01
  -1.373381e+02  -5.568771e+01
  -2.128961e+01  -7.463920e+01
   6.633794e+01  -5.574785e+01
   3.794955e+01   2.904950e+01
  -3.708929e+01   3.756046e+01
  -9.475592e+01  -1.788170e+01
  -6.882113e+01  -9.005263e+01
   9.033524e+01  -1.516568e+02
   1.323081e+02  -7.035265e+01
   1.332026e+02   5.713273e+01
   1.408715e+01   1.815613e+02
  -7.870376e+01   1.379625e+02
  -9.016183e+01  -4.774082e+01
  -2.635549e+01  -1.234857e+02
  -1.015672e+01  -1.118432e+02
   8.046710e+01   4.652367e+00
   3.373900e+01   3.650408e+01
  -8.914758e+00   3.087114e+01
   1.967268e+01   2.968591e+00
   3.945390e+01   4.744019e+01
   4.607610e+01   8.727533e+01
  -1.152407e+01   8.252192e+01
  -7.933693e+01   3.577754e+01
  -1.367978e+02  -5.641650e+01
  -9.432961e+01  -6.477704e+01
  -1.485308e+01  -8.787250e+01
   8.706432e+01   2.689986e+01
   8.830716e+01   6.091121e+00
   3.421945e+01   4.101401e+00
  -2.361856e+00   1.352514e+01
  -6.274480e+01   2.179151e+01
   1.697044e+01  -2.506565e+01
   2.020329e+01   3.217176e+00
  -7.611229e+01  -2.157454e+01
  -7.131948e+01  -3.482440e+01
  -2.198620e+00  -5.095287e+01
   1.052532e+02  -1.132335e+02
   1.830554e+02  -6.797443e+01
   1.434994e+02   6.750999e+01
   6.027203e+01   1.611316e+02
  -5.784883e+01   1.691698e+02
  -1.031673e+02   1.166862e+02
  -6.666536e+01   1.146423e+00
  -2.706248e+01  -4.012725e+01
  -3.948534e+01  -6.840078e+00
  -1.649355e+01  -1.357504e+01
  -3.514750e+01  -3.347873e+01
  -2.443471e+01  -8.038951e+01
   2.050259e+01  -7.001870e+01
   7.620865e+01   9.753122e-01
   6.700891e+01   8.625828e+01
  -1.276642e+01   8.891872e+01
  -8.725176e+01   9.604407e+00
  -7.397018e+01  -5.420418e+01
  -5.005829e+01  -1.140436e+02
   8.736996e+01  -5.000701e+01
   8.810274e+01   4.286941e+01
   4.021443e+01   5.953943e+01
  -1.844450e+01   6.457100e+01
  -1.418019e+01   3.800210e+01
   4.603149e+01   3.861505e+01
   7.658510e+01  -2.730052e+01
   1.132151e+01   1.139294e+01
  -9.702522e+01   6.112127e+01
  -7.304039e+01   4.971409e+01
  -1.081258e+02  -4.838118e+00
   8.861513e+00  -6.173048e+01
  -1.589850e+01  -1.025730e+02
   7.399275e+01  -2.316523e+01
   2.487343e+01   5.932011e+01
  -3.714449e+01   5.194350e+01
  -4.738762e+01  -1.583793e+01
  -1.724427e+01  -9.769571e+01
   1.534160e+01  -3.891906e+01
   2.141094e+01   1.744652e+01
   3.433283e+01   1.517599e+01
   3.457367e+01   3.316009e+00
  -4.401329e+00   7.748310e+00
   1.588530e+01  -2.407423e+01
   4.003816e+00   6.218200e+01
  -1.319623e+01   4.397199e+01
   1.476303e+01   2.470939e+00
  -5.044131e+01  -4.710620e+01
  -8.160782e+00  -7.205320e+01
   1.800077e+01  -8.501931e+00
   5.952815e+01   5.363411e+01
   2.105015e+01   8.811777e+01
  -4.167486e+01   5.526916e+01
  -4.522162e+01  -3.228528e+01
  -3.373044e+01  -2.634686e+01
  -4.789102e+01  -2.655631e+01
   3.767243e+01  -3.345501e+01
   5.407698e+01  -1.694040e+01
  -2.434549e+01   4.761340e+01
  -4.949630e+01  -1.413118e+01
   2.566317e+01  -2.180293e+01
   7.461096e+01  -2.892482e+01
