
 $NMID
 id='ANONYMOUS ', fmtdat='(2E16.6)'
 volume=1.0
 tramp=1.0
 $END
   3.389893e+03  -1.271048e+02
   1.955568e+03   2.232674e+03
  -2.085802e+02   2.324868e+03
  -1.560852e+03   1.092232e+03
  -9.582768e+02  -1.004936e+02
   2.467693e+02  -4.899375e+02
   6.644570e+02   2.312979e+02
   5.427771e+01   8.506948e+02
  -5.823678e+02   7.263680e+02
  -7.407840e+02   2.627453e+01
  -4.018334e+02  -6.531620e+02
   6.476577e+01  -7.381646e+02
   3.857474e+02  -1.875805e+02
   3.215063e+02   5.013576e+02
  -1.649414e+02   6.063294e+02
  -4.886052e+02   5.125647e+01
  -2.728551e+02  -5.691597e+02
   1.721980e+02  -6.552142e+02
   5.360467e+02  -2.483697e+02
   4.254809e+02   2.688089e+02
   8.981304e+01   4.097927e+02
  -1.922968e+02   2.599363e+02
  -1.408657e+02   6.247384e+01
   1.472160e+02   2.784423e+01
   2.767238e+02   2.220195e+02
   4.801719e+01   3.925644e+02
  -4.576176e+02   1.794018e+02
  -6.255575e+02  -1.406704e+02
  -3.076674e+02  -4.496476e+02
   3.217387e+02  -2.747920e+02
   5.543072e+02   1.483654e+02
   2.086285e+02   4.103649e+02
  -2.532914e+02   3.877831e+02
  -5.148180e+02   1.306902e+02
  -3.860612e+02  -1.901592e+02
  -1.089104e+02  -3.689794e+02
   1.079276e+02  -2.644770e+02
   2.591511e+01   9.848435e+01
  -1.966424e+02   2.269956e+02
  -2.793226e+02  -1.047941e+02
  -2.781132e+01  -4.859225e+02
   2.828917e+02  -5.054503e+02
   3.961767e+02  -1.437810e+01
   1.564196e+02   2.947929e+02
  -2.109366e+02   1.528913e+02
  -2.180939e+02  -2.672841e+02
   7.715938e+01  -4.266323e+02
   4.329311e+02  -5.219136e+01
   5.390532e+02   4.090283e+02
   1.508153e+02   4.996338e+02
  -3.403875e+02   3.329598e+02
  -5.407608e+02  -8.662994e+01
  -3.340217e+02  -3.023771e+02
   4.815397e+01  -2.747245e+02
   3.527607e+02  -4.838571e+01
   2.529080e+02   5.360352e+01
  -5.201339e+01   5.520332e+01
  -6.503506e+01  -9.102708e+01
   1.279092e+02  -9.897179e+01
   2.894992e+02  -2.557181e+01
   1.014738e+02   2.436308e+02
  -1.825016e+02   2.456728e+02
  -3.509559e+02   7.608813e+01
  -2.291665e+02  -1.083944e+02
   4.599082e+01  -2.968248e+02
   2.908735e+02  -3.918854e+02
   3.623367e+02  -1.256060e+02
   2.085793e+02   1.343841e+02
   1.762754e+01   3.651845e+02
  -2.479195e+01   3.070746e+02
  -4.528057e+01   1.429336e+02
  -2.129616e+01   1.321366e+02
  -8.581650e+01   1.067414e+02
  -2.470862e+02   7.787434e+01
  -2.099046e+02  -8.693122e+01
  -4.353426e+01  -2.570844e+02
   9.374670e+01  -1.759125e+02
   1.928963e+02   4.427052e+01
   1.352670e+02   2.238344e+02
  -1.220452e+01   2.734608e+02
  -2.590747e+02   3.216025e+01
  -3.519035e+02  -1.870478e+02
  -1.172272e+02  -3.055720e+02
   7.800064e+01  -2.984407e+02
   1.698710e+02  -1.231832e+02
   1.350644e+02  -1.742278e+01
   1.718708e+02  -1.500217e+01
   2.673064e+02  -5.434532e+01
   3.914614e+02   1.403629e+02
   2.789750e+02   2.651033e+02
  -3.277106e+01   4.658272e+02
  -3.790606e+02   3.456011e+02
  -4.841004e+02   8.271848e+01
  -2.823042e+02  -1.092031e+02
   1.061935e+01  -2.651793e+02
   1.521098e+02  -1.874443e+02
   6.281106e+01  -1.765916e+01
  -1.363442e+02   6.672689e+01
  -1.712385e+02  -5.546111e+01
  -3.536336e+01  -1.872623e+02
   1.364422e+02  -1.304388e+02
   1.335324e+02   5.263015e+01
  -2.294806e+01   1.652788e+02
  -1.679425e+02   2.087473e+01
  -1.674584e+02  -2.431617e+02
  -6.656200e+00  -3.327996e+02
   2.610927e+02  -2.146273e+02
   3.570490e+02   8.178235e+01
   2.832391e+02   2.512771e+02
   4.559372e+01   2.831284e+02
  -1.319015e+02   1.033034e+02
  -1.493847e+02   1.331073e+01
  -2.098254e+01  -2.590842e+01
   2.651938e+01   1.065585e+02
   4.580833e+01   1.538847e+02
  -1.405360e+02   7.216662e+01
  -1.642619e+02  -4.833167e+01
  -1.954790e+01  -7.846086e+01
   4.952351e+01   1.514914e+01
   1.546435e+01   7.847733e+01
  -1.727518e+02   1.150857e+02
  -3.413354e+02  -2.852806e+01
  -2.572025e+02  -2.029817e+02
  -5.126269e+01  -2.737100e+02
   1.931631e+02  -2.432682e+02
   2.889403e+02  -1.019573e+02
   1.772520e+02   7.249267e+01
  -2.815240e+01   9.340343e+01
  -5.309873e+01   4.086728e+01
   4.446287e+01  -1.180330e+02
   1.503121e+02  -2.819337e+01
   2.037848e+02   9.689727e+01
   3.463884e+01   2.160842e+02
  -1.174228e+02   1.080748e+02
  -1.383763e+02   3.877943e+01
  -4.195511e+01  -5.186191e+01
   6.257401e+01   4.234007e+01
   6.772164e+01   9.215947e+01
  -5.374323e+01   1.333629e+02
  -2.238365e+02   1.095004e+01
  -2.198834e+02  -1.056011e+02
   1.453547e+01  -1.760881e+02
   1.589102e+02  -1.772504e+02
   2.128249e+02   1.250730e+01
   4.870969e+01   1.056730e+02
  -9.724913e+01   1.255192e+02
  -6.234215e+01   3.358489e+00
   8.023734e+00  -3.656635e+01
   4.358871e+01   4.043839e+01
   3.874160e+01   6.806934e+01
  -9.971196e+01   9.749535e+00
  -1.101309e+02  -7.059986e+01
   1.495688e+00  -2.366525e+02
   1.478487e+02  -1.360526e+02
   2.471434e+02   7.774114e+00
   1.486373e+02   1.588475e+02
   4.576438e+01   2.343446e+02
  -1.230319e+02   1.507967e+02
  -1.510383e+02   2.625378e+01
  -5.978622e+01  -5.789572e+01
  -3.888898e+01  -2.212540e+01
  -6.616413e+01  -2.144207e+00
  -3.755769e+01   1.339585e+01
  -5.869758e+01  -5.371131e+01
   5.621349e+01  -1.198807e+02
   1.311078e+02  -7.099411e+01
   1.177368e+02   3.160913e+01
  -2.642480e+00   1.503733e+02
  -1.693558e+02   8.938851e+01
  -1.912086e+02  -8.035773e+01
  -2.622734e+01  -2.118120e+02
   1.336184e+02  -1.981869e+02
   2.864896e+02  -7.478495e+01
   2.426903e+02   1.687342e+02
   1.023280e+02   1.975130e+02
  -5.011068e+01   1.216625e+02
  -1.133112e+02   3.059892e+00
  -4.125130e+01   6.989260e+01
  -4.147620e+01   2.666160e+01
  -8.236219e+01   8.230541e+01
  -1.338551e+02  -1.539209e+01
  -1.342798e+02  -1.772547e+02
  -2.177287e+01  -2.322313e+02
   1.468026e+02  -1.663653e+02
   1.730995e+02   1.234831e+01
   1.589877e+02   1.431633e+02
  -1.281875e+01   1.815342e+02
  -7.767572e+01   9.619614e+01
  -8.498984e+01  -3.694479e+00
   1.259795e+01  -2.970488e+01
   3.797120e+01  -1.792712e+01
  -5.453826e+00  -1.556401e+01
  -7.021457e+01  -4.784269e+01
  -7.872133e+01  -7.795037e+01
   6.440867e+01  -3.306848e+01
   1.960480e+02  -2.309809e+01
   1.732382e+02   7.357972e+01
   8.961618e+00   1.186044e+02
  -1.728445e+02   7.108441e+01
  -1.652513e+02  -1.028900e+01
  -4.422260e+01  -1.553794e+01
   6.673260e+01  -6.676219e+01
   6.232629e+01   5.314104e+01
   2.369018e+01   4.776809e+01
  -2.145721e+01   4.128025e+01
  -6.881846e+01  -6.330782e+00
  -5.035642e+01  -8.225960e+01
  -2.659667e+00  -2.899180e+01
  -6.489086e+01  -3.212211e-01
  -6.870686e+01   4.206306e+00
  -6.683061e+01  -8.367159e+01
   6.086670e+01  -1.728849e+02
   1.030261e+02  -1.457272e+02
   1.928145e+02   1.443266e+00
   1.354835e+02   9.214998e+01
  -1.363213e+00   1.370604e+02
  -1.027066e+02   6.646148e+01
  -2.886809e+01  -4.784523e+01
   4.258050e+01  -7.797195e+00
   1.436190e+02   2.890461e+01
   1.195732e+02   1.090235e+02
  -1.474819e+02   8.929209e+01
  -2.103190e+02   3.993614e+01
  -1.449858e+02  -2.928002e+01
   6.769974e+00  -1.152390e+02
   4.702149e+01  -6.538571e+01
   1.092840e+01   4.633039e+00
  -3.608797e+01   1.991883e+01
  -1.016021e+02  -3.162323e+01
  -2.875587e+01  -1.216906e+02
   8.459058e+01  -1.356192e+02
   1.946528e+02  -1.182708e+02
   1.035521e+02   7.580257e+01
   4.437726e+01   2.009846e+02
  -1.237745e+02   1.364013e+02
  -9.304185e+01   8.257860e+00
  -7.477057e+01  -1.031399e+02
  -1.291866e+01  -1.250186e+02
   6.928455e+01  -1.683753e+01
   7.356032e+01   4.545232e+00
   2.897688e+01   1.523213e+01
  -1.762275e+01  -6.768517e+00
  -8.271377e+00  -4.779539e+00
   8.278349e-01   9.120294e+01
   4.007071e+01   1.176584e+02
  -5.660893e+01   9.985723e+01
  -1.165257e+02  -1.648360e+01
  -1.095847e+02  -5.348553e+01
  -3.304758e+01  -6.866000e+01
   1.090861e+02  -9.526229e+01
   1.047898e+02   5.902934e+00
   2.560526e+01   2.956067e+01
  -1.037371e+01   6.685781e+01
  -1.939548e+01   7.508288e+00
   1.246087e+01  -2.746011e+01
  -8.245245e+00   1.150047e+01
  -9.749229e+01   2.420847e+01
  -9.738847e+01  -5.326571e+01
   1.759881e+01  -9.240254e+01
   1.349171e+02  -1.023937e+02
   2.129963e+02  -5.215592e+01
   1.459335e+02   7.627714e+01
   2.393799e+01   1.623396e+02
  -8.644204e+01   1.513201e+02
  -1.445879e+02   9.556411e+01
  -1.022284e+02  -3.167764e+01
   1.509208e+01  -3.885318e+01
  -4.305884e+00   1.233370e+01
  -1.658086e+01   1.366108e+01
  -7.760506e+01  -7.753321e+01
  -3.559447e+01  -9.551036e+01
   3.813415e+01  -6.949338e+01
   7.814837e+01  -8.624721e-01
   4.213329e+01   1.147236e+02
  -3.392898e+00   1.066506e+02
  -7.953254e+01   5.469156e+01
  -8.810328e+01  -7.189393e+01
  -7.221128e+01  -9.550912e+01
   9.665868e+01  -9.937216e+01
   9.409610e+01   2.002605e+01
   6.582087e+01   5.329103e+01
  -4.579786e+01   6.170722e+01
  -3.604454e+01   2.974047e+01
   3.051019e+01  -3.944155e+00
   7.812033e+01   1.988338e+01
   2.203507e+01   2.000033e+01
  -8.698978e+01   5.150344e+01
  -1.287021e+02   3.949995e+01
  -9.375132e+01   2.238818e+01
   3.422929e+00  -9.477779e+01
   4.951570e+01  -3.144241e+01
   8.331404e+01  -1.071735e+01
   5.368591e-01   5.350533e+01
  -9.353157e+00   5.643158e+01
  -5.305530e+01  -3.423365e+01
  -1.965959e+01  -9.094512e+01
  -2.541937e+00  -5.938123e+01
   2.470951e+01  -2.735163e+01
   7.681974e+01  -9.804420e+00
  -2.940703e+00   3.819552e+01
  -4.202636e+00  -2.027086e+01
   1.527389e+01   7.138300e+00
   5.844412e+00   6.297664e+01
  -3.529099e+01   8.794799e+01
  -5.984618e+01   7.103642e+00
  -5.638760e+01  -3.543352e+01
  -2.616221e+01  -5.525643e+01
   3.663248e+01  -3.302283e+01
   7.865056e+01   5.042066e+01
  -9.113760e+00   1.001568e+02
  -6.195650e+01   7.356259e+01
  -1.103239e+02  -2.122787e+01
  -6.843972e+01  -1.099378e+00
  -1.742671e+01  -4.958807e+01
   2.524577e+01  -1.367821e+01
   5.811889e+01  -3.618024e+00
  -1.413829e+01   1.070466e+01
  -4.227034e+01  -2.608605e+01
   3.882520e+01  -4.523483e+01
   7.507500e+01  -5.363985e+00
