
 $NMID
 id='ANONYMOUS ', fmtdat='(2E16.6)'
 volume=1.0
 tramp=1.0
 $END
  -2.748337e+03   3.485502e+02
  -1.843129e+03  -1.010686e+03
  -3.851341e+02  -1.846869e+03
   7.990958e+02  -1.183201e+03
   8.039699e+02  -2.943170e+02
   1.414875e+02   1.977137e+02
  -2.940833e+02   2.735822e+01
  -1.630779e+02  -4.041295e+02
   2.534226e+02  -4.653523e+02
   5.100327e+02  -1.627824e+02
   4.402998e+02   3.645749e+02
   8.378653e+01   4.616632e+02
  -1.529286e+02   2.010685e+02
  -2.257954e+02  -2.383936e+02
  -9.629869e-01  -3.688078e+02
   2.677783e+02  -1.417896e+02
   2.517416e+02   3.432995e+02
  -3.024793e+01   5.002565e+02
  -3.292204e+02   2.346734e+02
  -4.594284e+02  -6.810287e+01
  -1.195577e+02  -2.841807e+02
   6.923369e+01  -2.404851e+02
   6.060746e+01  -1.413143e+02
  -1.108271e+02  -1.708261e+02
  -1.514910e+02  -1.796484e+02
   6.482252e+01  -2.766469e+02
   3.464868e+02  -1.253939e+02
   3.533275e+02   4.252693e+01
   1.632985e+02   1.295899e+02
  -2.108329e+02   1.350587e+02
  -3.678811e+02  -7.821360e+01
  -1.118426e+02  -2.045561e+02
   1.737654e+02  -2.652804e+02
   3.066536e+02  -1.095250e+02
   2.951677e+02   1.553503e+02
   1.282812e+02   2.573026e+02
   3.845312e+01   1.750670e+02
   2.039051e+01  -4.027229e+01
   1.071812e+02  -8.299125e+01
   1.444005e+02   1.451639e+02
   6.760616e+01   3.792193e+02
  -1.474415e+02   3.409262e+02
  -2.150488e+02   6.133073e+01
  -4.928255e+01  -1.552932e+02
   4.899949e+01  -1.053592e+02
   7.488355e+01   1.689648e+02
  -7.479705e+01   3.029042e+02
  -2.866435e+02   4.381832e+01
  -4.019106e+02  -2.514583e+02
  -1.570383e+02  -3.610134e+02
   1.889785e+02  -1.838572e+02
   3.687059e+02  -2.855092e+01
   2.530193e+02   1.275523e+02
  -5.406498e+01   1.749582e+02
  -2.023767e+02   8.239966e+01
  -1.904913e+02  -2.394598e+01
  -3.152103e+01  -9.358338e+00
   3.366581e+01  -1.918219e+00
  -3.890334e+01   7.613113e+01
  -1.749144e+02  -3.193915e+01
  -1.164673e+02  -1.110672e+02
   1.122823e+02  -2.326893e+02
   2.614965e+02  -9.902040e+01
   2.188190e+02   6.150898e+01
  -5.521698e+01   2.550147e+02
  -2.437382e+02   2.867354e+02
  -2.222972e+02   6.271709e+01
  -1.649362e+02  -8.234232e+01
  -2.141049e+01  -2.475973e+02
  -4.755220e+01  -2.158632e+02
  -6.976190e+00  -2.168541e+02
   7.979795e+01  -1.406494e+02
   1.648741e+02  -7.879227e+01
   1.821830e+02  -3.594603e+01
   1.558781e+02   1.037007e+02
   8.243726e+01   2.014122e+02
  -9.168381e+01   1.013625e+02
  -1.341093e+02  -4.689383e+01
  -5.626625e+01  -1.359750e+02
   6.310455e+01  -1.639539e+02
   1.985532e+02  -6.787224e+01
   2.213105e+02   1.439350e+02
   1.793098e+02   2.503529e+02
  -5.453670e+01   2.581797e+02
  -1.135955e+02   1.308654e+02
  -1.228922e+02   8.590093e+01
  -1.082483e+02   7.626343e+01
  -2.443776e+02   7.507964e+01
  -3.239674e+02  -8.853992e+01
  -2.950850e+02  -2.247615e+02
   2.670686e+01  -3.798544e+02
   3.037060e+02  -2.651036e+02
   3.552865e+02  -7.540051e+01
   2.081016e+02   6.335900e+01
   2.270590e+01   2.004888e+02
  -3.755317e+01   1.381051e+02
   4.165822e+01   1.309188e+01
   1.262052e+02  -3.556700e+01
   7.113051e+01   1.009399e+01
  -9.811439e+00   1.147659e+02
  -6.137118e+01   1.086942e+02
  -1.012171e+02  -2.880582e+01
   3.089808e+00  -7.849606e+01
   6.929008e+01  -6.297032e+00
   8.413901e+01   1.712090e+02
  -2.159876e+01   2.838652e+02
  -1.781385e+02   2.131821e+02
  -2.887381e+02  -4.268030e+01
  -2.341738e+02  -2.226526e+02
  -2.540160e+01  -1.922166e+02
   1.418789e+02  -8.142231e+01
   1.082302e+02   1.144546e+01
   3.688736e+01   2.191550e+01
  -1.163933e+01  -1.726942e+01
  -1.055058e+01  -7.211029e+01
   1.164120e+02  -5.364893e+01
   1.205238e+02   2.998555e+01
   3.233092e+01   3.739774e+01
  -3.571362e+01   8.919235e+00
  -1.266583e+01  -8.567458e+01
   1.313726e+02  -3.502354e+01
   2.613994e+02   1.799345e+01
   2.214582e+02   1.108158e+02
   1.975893e+01   1.971690e+02
  -1.512329e+02   1.854058e+02
  -2.130995e+02   9.235668e+01
  -1.253265e+02  -3.522163e+01
   7.507579e+00  -5.262171e+01
   7.942231e+01   4.649741e+01
  -1.299050e+00   4.982446e+01
  -1.027289e+02   3.294565e+01
  -1.485837e+02  -8.951543e+01
  -6.715088e+01  -1.950335e+02
   7.993520e+01  -1.033687e+02
   1.180076e+02   3.705910e+01
   3.468038e+01   2.997114e+01
  -3.778145e+01  -3.040956e+01
  -3.638154e+01  -7.569669e+01
   8.553681e+01  -1.137993e+02
   1.703120e+02  -3.498729e+00
   1.586679e+02   1.559181e+02
  -1.563976e+01   1.679460e+02
  -1.275100e+02   1.019135e+02
  -1.305014e+02   9.720969e+00
  -8.152280e+01  -9.711152e+01
   6.921719e+01  -8.969998e+01
   6.596663e+01  -2.612205e+01
   1.921155e+01  -8.259715e+00
  -7.452774e+01   8.019640e+00
   2.287597e+01  -6.566613e+01
   7.950696e+01   3.132548e+01
   6.397831e+01   4.007902e+01
   1.375865e+00   1.484234e+02
  -1.468299e+02   1.123373e+02
  -1.777486e+02  -9.474744e+00
  -1.372326e+02  -7.289316e+01
  -4.380306e+01  -1.787577e+02
   7.053172e+01  -1.096894e+02
   1.027722e+02  -3.336162e+01
   6.740389e+01   2.827013e+01
   3.457702e+01   3.904628e+01
   3.829235e+01  -8.809708e+00
   8.427354e+01   2.034764e+01
   7.795411e+01   7.681657e+01
  -5.141228e+01   9.983482e+01
  -1.008041e+02   7.543883e+01
  -1.114450e+02  -7.196016e+01
   8.286905e+00  -6.832232e+01
   9.708936e+01  -1.221689e+01
   1.384226e+02   2.677545e+01
   6.483226e+01   1.216419e+02
  -8.159259e+01   1.318735e+02
  -1.838578e+02   7.079354e+01
  -2.129415e+02  -6.102266e+01
  -8.261257e+01  -1.080780e+02
   1.566192e+01  -1.008276e+02
   6.616461e+01  -5.302560e+01
   2.227215e+01  -8.392448e+01
   3.654826e+01  -5.464332e+01
   1.086570e+02  -8.658211e+01
   9.968394e+01   2.088210e+01
   8.466947e+01   1.124185e+02
   7.218965e+00   1.567785e+02
  -9.826087e+01   1.252209e+02
  -7.212268e+01  -1.360563e+01
  -9.542623e+01  -1.047825e+02
  -8.704295e+00  -1.452234e+02
   3.699867e+01  -6.824860e+01
   7.419902e+01  -1.593133e+01
   2.285677e+01   2.594664e+01
  -4.577839e+00   3.237637e+01
   2.823412e+00   5.087784e+00
   3.096126e+01  -2.189250e+00
   5.735101e+01   5.840474e+01
  -2.884785e+01   5.516897e+01
  -1.421625e+02   1.810840e+01
  -1.189892e+02  -5.672399e+01
   3.673284e+01  -7.981232e+01
   1.254527e+02  -5.388784e+01
   8.810573e+01   3.014083e+01
  -6.807876e+00   4.367433e+01
  -4.111063e+01  -4.615949e+00
  -6.109354e+01  -3.114362e+00
   7.196977e+00  -4.198724e+01
   2.523115e+01  -1.874967e+01
   5.810727e+01  -3.056763e+01
   4.043995e+01   4.913363e+01
   5.633955e+01   3.707056e+01
   9.216661e+01   1.950845e+01
   5.857147e+01  -2.936118e+01
   4.492174e+01   8.707194e+01
  -2.943996e+01   9.074075e+01
  -8.659350e+01   1.094596e+02
  -1.973060e+02   1.658904e+01
  -8.925422e+01  -9.153097e+01
  -3.184573e+01  -1.029164e+02
   1.057781e+02  -5.023783e+01
   1.561928e+01   2.793214e+01
  -7.186757e+01   1.862912e+01
  -1.111638e+02   1.825796e+01
  -8.297046e+01  -7.445735e+01
   8.455653e+01  -6.939295e+01
   1.624866e+02  -1.795910e+01
   1.308211e+02   3.663548e+01
   3.692118e+01   6.066781e+01
  -6.175102e+01   4.486706e+01
  -3.103697e+01   1.233060e+01
   7.140412e+00  -1.214227e+01
   7.267246e+01   2.836552e+01
   4.238942e+01   7.329559e+01
  -6.042799e+01   1.339520e+02
  -1.100462e+02   6.025611e+01
  -4.465605e+01  -6.675319e+01
   5.711335e+00  -1.543696e+02
   4.290345e+01  -1.748448e+02
   1.008171e+02  -4.858233e+01
   2.296201e+01   6.687472e+01
  -2.067121e+01   8.473325e+01
  -4.016410e+01   5.165410e+00
  -4.631165e+01  -2.971331e+01
  -3.164240e+01   2.052133e+01
   1.833449e+01  -3.116036e+01
  -4.570673e+01  -2.652266e+01
  -1.496393e+01  -7.763311e+01
  -1.542012e+01  -1.075353e+02
   6.159032e+01  -1.474064e+00
   1.348801e+02   3.150225e+01
   8.580626e+01   5.142177e+01
   8.202286e+00   6.591677e+01
  -6.963125e+01   2.883461e+01
  -6.225649e+01   1.159351e+01
  -3.632784e+00  -1.562394e+01
   1.887544e+00  -2.920863e+01
   1.637229e+01   3.619307e+00
  -2.542859e+01   2.599671e+01
   5.270809e+01   2.120640e+01
   3.465822e+01   3.644912e+01
   6.097144e+01   1.040790e+00
   1.140645e+01   3.232751e+01
  -1.029485e+02   9.008185e+01
  -1.498371e+02   6.022501e+01
  -1.497103e+02  -4.207967e+01
  -2.643755e+00  -1.402555e+02
   1.046313e+02  -1.214249e+02
   1.323509e+02  -7.927486e+01
   1.241919e+02   4.169614e+01
   1.316473e+01   6.069335e+01
  -1.803899e+01   3.526788e+01
   2.036701e+01   1.530110e+01
   5.769307e+01   5.284841e+01
   3.363074e+01   6.763422e+01
  -2.341575e+00   4.461444e+01
  -9.797583e+01  -1.734472e+01
  -6.960663e+01  -8.748763e+01
   6.511297e+00  -1.097988e+02
   1.137174e+02  -5.163222e+01
   8.238942e+01   8.615103e+01
   4.300719e+01   1.036831e+02
  -6.499429e+01   6.205593e+01
  -1.059420e+02   3.143619e+01
  -3.507909e+01  -4.176386e+01
   3.162225e+01  -4.194095e+01
   4.948019e+01  -1.521251e+01
  -4.757049e+01   1.115787e+01
  -5.193910e+01   4.525954e+01
   9.253241e-01  -1.870846e+01
   9.348973e+01  -8.441420e+01
   1.154315e+02  -5.299289e+01
   7.067503e+01  -2.098839e+01
   1.295910e+00   6.409752e+01
  -3.618195e+01   5.762685e+01
  -2.447519e+01  -7.285889e+00
   2.060638e+01  -2.806436e+01
   4.027009e+01  -2.486488e+00
   1.352605e+01   2.402156e+01
   3.577835e+01   5.811774e+01
  -2.609260e+01   3.583021e+01
  -5.351155e+01   3.518181e+01
   9.736142e+00  -1.890172e+00
  -3.407179e+01   1.094738e+01
   6.723330e+01  -2.656468e+01
   2.532774e+01  -1.532297e+00
   1.495711e+00  -5.260060e+01
   1.550893e+01  -1.341769e+01
   6.119391e+01  -1.820438e+01
   7.997055e+00   3.951272e+01
   2.224372e+01   7.674902e+01
  -3.528552e+01   1.851181e+01
  -6.023864e+01  -2.745563e+01
  -4.709820e+01  -5.355524e+01
   2.316069e+01  -3.728062e+01
   6.962425e+01   4.456496e+01
   4.182928e+01   5.728153e+01
   5.228701e+01   3.852075e+01
  -3.146135e+01   2.644846e+01
  -3.272555e+01   1.554624e+01
  -5.339812e-01  -6.080198e+00
  -8.071386e+00   7.390487e-01
   1.548080e+00   9.270336e+00
  -1.021966e+02   2.327954e+01
