
 $NMID
 id='ANONYMOUS ', fmtdat='(2E16.6)'
 volume=1.0
 tramp=1.0
 $END
   2.656809e+03  -4.495991e+01
   1.919721e+03   1.112225e+03
  -2.641842e+02   1.360393e+03
  -8.956668e+02   1.050360e+03
  -6.218889e+02   2.388523e+02
  -4.594077e+01  -6.325198e+00
   3.345255e+02   1.651866e+02
  -5.317949e+00   4.250511e+02
  -3.208172e+02   4.272893e+02
  -4.913766e+02   5.978061e+01
  -3.297978e+02  -4.208425e+02
  -2.514637e+01  -5.054007e+02
   1.769773e+02  -1.099550e+02
   9.293850e+01   3.666668e+02
  -6.914831e+01   3.484976e+02
  -3.262464e+02   9.264073e+01
  -2.466929e+02  -4.177140e+02
   8.732121e+01  -5.044424e+02
   3.616322e+02  -2.531473e+02
   3.537907e+02   1.148536e+02
   1.035737e+02   2.747730e+02
  -1.119248e+02   1.893493e+02
  -4.496317e+01   4.700623e+01
   1.944224e+02   9.931097e+01
   2.040108e+02   2.612627e+02
   1.475213e+00   3.078865e+02
  -4.271187e+02   1.083110e+02
  -5.555979e+02  -1.572188e+02
  -1.876806e+02  -3.124287e+02
   2.763336e+02  -1.456933e+02
   4.221075e+02   1.458582e+02
   1.579110e+02   3.130636e+02
  -2.414799e+02   3.081375e+02
  -3.860037e+02   1.141207e+02
  -2.537344e+02  -1.264908e+02
  -1.171947e+02  -2.152981e+02
  -2.690010e+01  -1.426066e+02
  -3.757512e+01   1.065408e+02
  -2.048740e+02   6.844551e+01
  -1.949544e+02  -1.224453e+02
   2.086677e+01  -4.810807e+02
   2.469956e+02  -4.056434e+02
   2.450500e+02   1.445591e+01
   6.980903e+01   2.575303e+02
  -1.844144e+02   1.420431e+02
  -1.248239e+02  -2.293120e+02
   9.396469e+01  -3.188903e+02
   3.801985e+02  -6.784392e+01
   3.722425e+02   3.113233e+02
   1.358689e+02   4.036175e+02
  -2.331216e+02   2.403391e+02
  -4.215063e+02  -2.193296e+01
  -2.977836e+02  -1.766590e+02
   2.592071e+00  -1.700261e+02
   2.219650e+02  -7.661179e+01
   1.877096e+02   5.945814e+01
   2.699933e+01   3.403234e+01
  -1.447372e+01  -8.169276e+01
   1.026377e+02  -7.424209e+01
   2.034842e+02   6.160973e+01
   1.629384e+02   1.627307e+02
  -1.291713e+02   2.318637e+02
  -2.439987e+02   1.662960e+02
  -2.583920e+02  -6.333018e+01
  -2.038416e+01  -2.588184e+02
   2.005861e+02  -3.565333e+02
   2.632755e+02  -1.737144e+02
   2.499156e+02   1.499819e+02
   5.722168e+01   2.958586e+02
  -3.696402e+01   2.708566e+02
   3.314945e+01   1.355429e+02
  -1.187591e+01   8.604575e+01
  -1.088666e+02   8.491523e+01
  -2.455472e+02   3.809088e+01
  -2.391780e+02  -7.780033e+01
  -7.498407e+01  -1.817262e+02
   4.365339e+01  -1.701563e+02
   1.964457e+02   9.439302e+00
   1.439438e+02   2.016620e+02
  -1.710489e+01   2.469144e+02
  -2.028819e+02   5.919169e+01
  -2.995283e+02  -1.147384e+02
  -1.498783e+02  -2.599818e+02
   4.237230e+01  -2.337247e+02
   1.110219e+02  -1.374223e+02
   1.251847e+02  -9.003640e+01
   1.536968e+02  -1.073609e+02
   2.483615e+02  -5.020472e+01
   3.761705e+02   7.593816e+01
   2.790661e+02   1.857479e+02
   1.755037e+00   3.519230e+02
  -3.230620e+02   3.419570e+02
  -3.559869e+02   1.605251e+02
  -2.525067e+02  -8.729603e+01
  -3.289010e+01  -1.917498e+02
   7.978232e+01  -1.486450e+02
   4.518619e+01  -3.218247e+01
  -1.046732e+02   4.014967e+01
  -8.230675e+01   7.663930e+00
  -4.518449e+01  -1.080756e+02
   6.432934e+01  -1.010451e+02
   1.069557e+02   4.808751e+01
  -2.003475e+01   1.171094e+02
  -1.474947e+02   1.742502e+01
  -1.055898e+02  -1.640014e+02
   4.570109e+00  -3.021653e+02
   1.728414e+02  -2.204354e+02
   2.835685e+02   1.388274e+01
   2.518508e+02   2.041302e+02
   4.547515e+01   2.947671e+02
  -1.204480e+02   1.476542e+02
  -1.048409e+02   6.595127e+00
  -3.983249e+01  -1.304264e+01
   2.133279e+01   7.753178e+01
   1.111042e+01   8.278571e+01
  -1.055387e+02   5.451557e+01
  -1.145372e+02   2.270847e+01
  -4.257292e+01  -4.717052e+01
   6.464910e+01   2.957594e+01
   5.693715e+01   9.864291e+01
  -1.187477e+02   8.950748e+01
  -2.788472e+02  -3.405778e+01
  -2.313036e+02  -1.578357e+02
  -4.377940e+01  -2.475649e+02
   1.862419e+02  -2.352351e+02
   2.580738e+02  -9.812503e+01
   1.373656e+02   2.364343e+01
  -4.120779e+00   7.437905e+01
  -6.207349e+01  -1.071779e+01
   6.815542e+00  -8.394264e+01
   1.771719e+02   1.050948e+01
   1.956808e+02   9.538286e+01
   6.661660e+01   1.927739e+02
  -4.463098e+01   1.092402e+02
  -1.025059e+02   4.662586e+00
  -6.372916e+01  -4.284555e+01
   3.549115e+01  -7.070065e+00
   6.257546e+01   6.009018e+01
  -4.674578e+01   8.903533e+01
  -1.602325e+02   3.194888e+01
  -1.994462e+02  -4.580383e+01
  -2.194194e+01  -1.394671e+02
   1.229300e+02  -1.377137e+02
   1.520120e+02  -1.851415e+01
   6.361059e+01   5.840505e+01
  -4.470887e+01   4.459502e+01
  -9.782336e+01   3.985147e+00
  -2.591157e+01   5.932822e+00
   2.435526e+01   9.488774e+00
   6.405472e-01   4.188810e-01
  -8.133856e+01   4.834683e+00
  -1.079936e+02  -5.021926e+01
   5.598004e+00  -1.429809e+02
   7.563047e+01  -1.039466e+02
   2.043799e+02  -3.369539e+01
   1.823886e+02   1.042689e+02
   1.138363e+01   1.865214e+02
  -1.041713e+02   1.357572e+02
  -1.069225e+02   2.391495e+01
  -4.916402e+01  -7.097681e+01
  -2.178175e+01   6.433778e+00
  -4.285749e+01  -1.491764e+01
  -7.400728e+01   2.819088e+01
  -6.366995e+01  -4.951721e+01
   1.518104e+01  -9.966229e+01
   1.136523e+02  -6.959454e+01
   1.506745e+02   8.201526e+00
  -1.101323e+01   9.411917e+01
  -1.304036e+02   9.998065e+01
  -1.857582e+02  -6.313012e+01
  -7.767383e+01  -1.666441e+02
   1.186065e+02  -2.160334e+02
   2.155790e+02  -6.337122e+01
   1.823164e+02   8.068492e+01
   9.104119e+01   1.411941e+02
  -5.880214e+01   1.521329e+02
  -8.118014e+01   7.228760e+01
  -3.088686e+01   6.007641e+01
  -2.426672e+01   6.716377e+01
  -5.611954e+01   6.790038e+01
  -9.650322e+01  -4.977738e+01
  -1.443570e+02  -1.647652e+02
  -1.620423e+01  -1.875637e+02
   9.371048e+01  -1.592171e+02
   1.207152e+02  -1.266583e+01
   1.275916e+02   7.679577e+01
  -8.063550e+00   1.624661e+02
  -6.533566e+01   8.059921e+01
  -5.672069e+01  -2.828738e+01
  -2.970835e+01  -4.286940e+01
   3.709618e+01  -2.551313e+01
  -4.080727e+01   9.772511e+00
  -8.398972e+01   8.288749e+00
  -4.914741e+01  -6.452254e+01
   7.978896e+01  -5.619346e+01
   1.357291e+02  -1.746947e+01
   1.304432e+02   7.514619e+01
   3.043556e+01   7.911973e+01
  -1.454302e+02   5.153697e+01
  -1.211576e+02  -1.455176e+01
  -5.595801e+01  -4.076199e+01
   3.368876e+01  -1.316751e+01
   9.858475e+01  -1.041537e+00
   1.029198e+01   6.917459e+01
  -2.541876e+01   2.856993e+01
  -7.197449e+01   1.297373e+01
  -1.043716e+02  -1.720743e+01
  -3.731415e+01  -1.405192e+01
  -6.110061e+01  -3.770609e+01
  -6.983708e+01  -6.009001e+00
  -3.521748e+01  -7.140561e+01
   3.025311e+01  -1.038611e+02
   1.025762e+02  -1.238732e+02
   1.044191e+02  -7.890636e-01
   1.115605e+02   7.864863e+01
   6.877835e+00   9.162986e+01
  -7.721486e+01   6.678630e+01
  -6.070806e+01  -8.348437e+00
   5.914514e+01  -1.018515e+01
   1.438639e+02   3.792427e+00
   9.795528e+01   5.073287e+01
  -3.424439e+01   1.053590e+02
  -1.602928e+02   7.145746e+01
  -1.730437e+02  -4.158000e+01
   6.704137e+00  -9.753868e+01
   8.819640e+01  -4.691061e+01
   4.434697e+01   8.097436e+00
  -3.813675e+01   1.894360e+01
  -5.958266e+01   2.843680e+01
  -4.844090e+01  -9.321492e+01
   6.282068e+01  -1.609842e+02
   8.519105e+01  -2.383635e+01
   1.434884e+02   2.723938e+01
  -6.057198e+00   1.069104e+02
  -5.402554e+01   1.017969e+02
  -1.016632e+02   1.833325e+00
  -6.621925e+01  -7.149200e+01
   1.666327e+01  -6.723642e+01
   7.798904e+01  -1.327519e+01
   6.924952e+01   3.252680e+01
  -8.177135e+00   3.038941e+01
  -8.826563e+00  -2.086023e+01
   5.236835e+01   2.894543e+01
   5.897638e+01   6.604618e+01
   6.025747e+01   1.167599e+02
  -6.464777e+01   2.788101e+01
  -8.492230e+01  -1.849874e+01
  -1.498118e+02  -7.803243e+01
  -5.799059e+01  -4.444794e+01
   6.346496e+01  -1.191943e+01
   5.690212e+01  -2.628704e+01
   1.518356e+01   1.209805e+01
   2.222802e+01   1.353218e+01
  -6.167658e+01   2.735085e-01
  -7.206304e+00  -2.196069e+01
  -3.808250e+01  -8.915735e+00
  -3.069778e+01  -2.842890e+01
  -1.027397e+02   3.343585e+01
  -3.456417e+01  -9.899312e+01
   4.507294e+01  -1.052396e+02
   1.208504e+02  -5.525139e+01
   1.110313e+02   5.148980e+01
   3.178345e+01   1.257621e+02
  -6.425704e+01   1.268238e+02
  -1.051569e+02   6.257566e+01
  -9.251696e+01  -3.147150e+01
  -7.582245e+00  -1.890991e+01
  -2.613354e+01  -2.099480e+01
  -5.866252e+01  -3.281191e+01
  -1.521586e+01  -2.586521e+01
  -1.112746e+01  -1.158596e+02
   3.941775e+01  -7.003866e+01
   5.532303e+01   2.149906e+01
   7.850945e+01   6.463441e+01
  -1.509012e+01   8.003505e+01
  -4.545987e+01   5.292095e+01
  -9.222580e+01  -6.057171e+01
  -4.274474e+01  -7.514359e+01
   4.623411e+01  -8.347281e+01
   1.319342e+02  -1.116688e+01
   5.811404e+01   6.028787e+01
   2.509705e+01   2.814024e+01
  -6.390349e+01   1.146598e+01
   1.187218e+01  -5.040295e+01
   5.746751e+01  -3.356234e+01
   3.502475e+01   6.054678e+00
  -7.808581e+01   7.662830e+01
  -8.530090e+01   7.185007e+01
  -6.406975e+01   1.465514e+00
   8.046463e+00  -9.338504e+01
   4.559452e+01  -1.113176e+02
   3.927702e+01  -5.931310e+00
   8.677607e+00   4.058201e+01
  -4.238456e+00   3.868415e+01
  -2.678358e+01  -1.936302e+00
  -2.049745e+01  -3.783872e+01
  -3.990864e+01  -3.672422e+01
   7.942271e+00   3.229826e+01
   5.538193e+01   2.961909e+01
  -5.873956e-01   4.437124e+01
  -5.992023e+01  -5.703266e+00
  -2.489693e+01  -2.465428e+01
   4.461916e+00   2.077559e+01
   2.709070e+01   2.196018e+01
  -1.671837e+01   2.423214e+01
  -4.483382e+01  -7.189650e+01
   2.862193e+00  -4.631350e+01
   5.522078e+01  -7.343804e+01
   6.086501e+01  -9.379343e+00
   3.455954e+00   6.172117e+01
  -2.927203e+01   7.566669e+01
  -7.296549e+01   1.292830e+01
  -7.852424e+01  -3.846480e+01
   1.786312e+01  -7.590718e+01
   4.251376e+01  -6.366874e+01
   4.286975e+01  -1.442230e+01
  -2.871056e+01   1.193424e+01
  -4.495797e+01  -1.571958e+01
  -1.743546e+01  -2.954849e+01
   4.705121e+01  -2.142219e+01
