
 $NMID
 id='ANONYMOUS ', fmtdat='(2E16.6)'
 volume=1.0
 tramp=1.0
 $END
   2.271088e+03   2.418827e+02
   1.486950e+03   1.229454e+03
   2.391971e+02   1.503315e+03
  -8.991801e+02   9.357323e+02
  -7.008900e+02   3.485009e+02
  -2.058081e+02  -1.808141e+02
   2.408796e+02  -7.895218e+01
  -4.105910e+01   3.006259e+02
  -2.399560e+02   3.694925e+02
  -3.609121e+02   1.114031e+02
  -2.915853e+02  -2.975462e+02
  -5.979329e+01  -4.134824e+02
   1.652127e+02  -1.291610e+02
   1.433039e+02   2.802423e+02
  -6.243323e+01   3.625735e+02
  -2.460901e+02   1.097555e+02
  -2.298782e+02  -3.365674e+02
   4.760486e+01  -4.875940e+02
   3.206206e+02  -2.694557e+02
   3.175841e+02   1.187452e+02
   1.123495e+02   2.097278e+02
  -5.709011e+01   1.768734e+02
   2.431725e+01   8.579527e+01
   1.289038e+02   1.718674e+02
   1.404551e+02   2.425962e+02
  -7.598545e+01   1.851969e+02
  -3.866798e+02   3.015687e+01
  -3.980576e+02  -2.139766e+02
  -8.589012e+01  -2.278853e+02
   1.917312e+02  -1.001820e+02
   3.146916e+02   1.832247e+02
   9.531682e+01   2.358262e+02
  -2.341134e+02   2.296634e+02
  -3.263027e+02   6.602989e+01
  -1.617105e+02  -1.622086e+02
  -5.310539e+01  -1.444839e+02
  -4.541508e+01  -1.335579e+02
  -1.039998e+02   2.012966e+01
  -1.474891e+02   6.214899e+00
  -1.078762e+02  -1.825444e+02
   7.711156e+01  -3.085294e+02
   1.668771e+02  -2.493013e+02
   2.052720e+02   6.036975e+01
  -6.341505e+00   2.003238e+02
  -1.023382e+02   2.081386e+01
  -5.243530e+01  -1.983853e+02
   1.198213e+02  -2.355098e+02
   2.958381e+02   1.947550e+01
   3.225232e+02   3.491711e+02
   1.008821e+02   3.431980e+02
  -2.179344e+02   1.655248e+02
  -3.991578e+02   1.977613e+00
  -2.479214e+02  -1.774371e+02
   5.469958e+01  -1.013984e+02
   1.783397e+02  -2.587156e+01
   1.465466e+02  -8.706167e+00
   2.118918e+01   2.615221e+01
   1.963713e+01  -2.590898e+01
   9.535789e+01  -7.285170e+00
   1.812230e+02   6.894428e+01
   4.556620e+01   1.980294e+02
  -1.178230e+02   1.820309e+02
  -2.967045e+02   6.055561e+01
  -2.074846e+02  -9.896525e+01
   2.780505e+01  -2.116127e+02
   2.268728e+02  -2.628275e+02
   2.502297e+02  -8.988070e+01
   1.722405e+02   1.012670e+02
   3.240830e+01   2.042624e+02
  -1.996628e+01   2.444099e+02
   2.045578e+01   1.962976e+02
  -4.458918e+01   1.337606e+02
  -1.436762e+02   1.169214e+02
  -1.975120e+02   2.561660e+01
  -1.655408e+02  -1.184892e+02
  -4.861537e+01  -1.574109e+02
   1.307454e+02  -1.400666e+02
   1.296542e+02   6.187091e+01
   1.094756e+02   2.224631e+02
  -7.452119e+01   1.709331e+02
  -1.805753e+02   3.310092e+01
  -2.200706e+02  -1.824834e+02
  -6.993806e+01  -2.236191e+02
   1.927031e+01  -1.672462e+02
   7.340450e+01  -1.431762e+02
   9.539191e+01  -7.714746e+01
   1.255601e+02  -1.037243e+01
   1.787527e+02  -2.575411e+01
   3.113967e+02   1.652885e+02
   2.509466e+02   2.358781e+02
  -3.842235e+01   3.195202e+02
  -3.007366e+02   2.684909e+02
  -3.319916e+02   9.897973e+01
  -1.458409e+02  -6.109633e+01
  -2.656937e+00  -1.547625e+02
   4.201879e+01  -7.795389e+01
  -2.888243e+01  -1.631650e+01
  -7.964029e+01   2.527926e+01
  -8.873271e+01  -1.995988e+01
  -1.817825e+01  -1.369762e+02
   8.950319e+01  -7.444212e+01
   5.341709e+01   1.158442e+01
  -3.511175e+00   7.610928e+01
  -1.003604e+02  -3.112575e+01
  -1.215505e+02  -1.470503e+02
   4.426864e+01  -2.496328e+02
   1.891265e+02  -1.705491e+02
   2.508782e+02   6.296323e+01
   2.103606e+02   2.185221e+02
   2.374017e+01   2.079909e+02
  -1.425240e+02   7.652339e+01
  -1.121325e+02   5.105110e+00
  -1.911086e+01  -1.903043e+01
   1.728847e+01   6.219274e+01
  -1.485333e+01   5.574488e+01
  -1.217074e+02   3.311043e+01
  -1.402733e+02  -1.077939e+01
  -5.093050e+01  -8.216997e+01
   5.256024e+01   2.857210e+01
   6.488494e+00   1.026005e+02
  -1.178659e+02   9.586624e+01
  -2.451232e+02   2.036209e+00
  -1.504467e+02  -1.903099e+02
   2.643987e+01  -1.961967e+02
   1.734849e+02  -1.667829e+02
   1.582391e+02  -6.921484e+01
   1.118348e+02   2.313300e+01
  -1.509161e+01   5.177690e+01
  -1.368128e+01  -2.160629e+01
   7.142873e+01  -7.780850e+01
   1.473298e+02  -9.224536e+00
   1.192433e+02   8.438037e+01
   3.214274e+01   1.436976e+02
  -9.401915e+01   1.425914e+02
  -1.047069e+02   3.434514e+01
  -5.162628e+00  -3.296739e+01
   1.872666e+01   6.247587e+01
   1.710631e+01   8.620649e+01
  -9.752497e+01   1.080092e+02
  -1.607557e+02  -3.044182e+01
  -1.168941e+02  -1.032758e+02
   1.890906e+01  -1.492577e+02
   8.426222e+01  -8.766843e+01
   1.101142e+02  -1.794921e+01
   2.024007e+01   6.531910e+01
  -8.663979e+01   6.609784e+01
  -3.779413e+01   1.848235e+00
   3.526550e+01  -3.082833e+01
   5.281555e+01  -2.693332e+01
   2.247087e+01   1.760077e+01
  -2.433867e+01   2.257836e+01
  -6.497213e+01  -7.177829e+01
  -1.787727e+01  -1.305914e+02
   1.140337e+02  -1.252976e+02
   1.833234e+02   2.781157e+01
   1.403637e+02   1.257236e+02
  -1.577175e-02   1.696974e+02
  -1.293931e+02   1.087432e+02
  -7.845741e+01   3.441461e+01
  -3.932646e+01  -2.386769e+01
  -4.099146e+01  -1.075326e+01
  -9.864330e+00  -1.253504e+01
  -8.711540e+01   1.338660e+01
  -1.910029e+01  -4.364395e+01
   3.095669e+01  -8.757736e+01
   1.032151e+02  -5.843356e+01
   6.739248e+01   2.686228e+01
  -1.888121e+01   8.062315e+01
  -1.664509e+02   4.024196e+01
  -1.882484e+02  -4.080192e+01
  -3.204212e+01  -1.568717e+02
   1.072263e+02  -1.839615e+02
   2.029417e+02  -4.498205e+01
   1.863204e+02   6.833363e+01
   5.539320e+01   1.334182e+02
  -3.994131e+01   1.319000e+02
  -6.589627e+01   1.824224e+01
  -7.662889e+01   7.078604e+01
  -2.204624e+01   8.703355e+01
  -8.915058e+01   4.462897e+01
  -1.156355e+02  -1.885083e+01
  -8.118488e+01  -1.168400e+02
  -4.035709e+00  -1.782883e+02
   9.626012e+01  -1.367533e+02
   8.128076e+01   4.439156e+01
   1.141641e+02   1.093593e+02
  -3.274753e+00   1.757760e+02
  -6.594833e+01   9.309500e+01
  -3.088420e+01  -2.246342e+01
  -2.853986e+01  -8.882314e+01
  -9.098326e+00  -3.774267e+01
  -2.945260e+01  -2.293885e+01
  -7.141633e+01  -3.563438e+01
  -4.157543e+01  -6.882577e+01
   5.825891e+01  -1.118807e+01
   1.180455e+02  -1.670898e+01
   1.060303e+02   5.163066e+01
  -5.672382e+01   7.937159e+01
  -7.396603e+01   5.595727e+01
  -7.828913e+01  -2.178147e+01
  -6.203731e+01  -5.554174e+01
   6.363283e+01  -5.749707e+01
   9.568269e+01   1.427256e+01
   6.001318e+00   5.320387e+01
  -6.918352e+01   4.802784e+01
  -3.957239e+01   2.322910e+01
  -6.719706e+01  -7.837768e+01
  -2.727059e+01  -2.563581e+01
  -3.301330e+01   1.901741e+01
  -5.173187e+01  -3.931127e+01
  -2.380576e+01  -7.486911e+01
   5.488403e+01  -1.159609e+02
   1.011129e+02  -9.514896e+01
   1.559352e+02  -3.435328e+01
   1.287540e+02   9.517241e+01
  -2.016461e+01   8.089732e+01
  -7.072895e+01   3.959164e+01
  -6.682638e+00  -2.654273e+01
   6.414702e+01  -4.157904e+01
   1.012263e+02   4.272822e+01
   6.605384e+01   9.046439e+01
  -7.930580e+01   5.537363e+01
  -1.343110e+02   1.330280e+01
  -6.353208e+01  -3.927637e+01
  -6.015033e+01  -8.523024e+01
   7.724663e+01  -6.454012e+01
   3.329180e+01  -3.841494e+00
  -2.116187e+01   6.460586e+01
  -7.969799e+01   1.371818e+01
   1.395357e+01  -1.172633e+02
   6.264945e+01  -1.284094e+02
   7.383868e+01  -6.043104e+01
   6.827919e+01   4.398138e+01
  -1.763151e+00   1.560910e+02
  -1.051324e+02   1.032369e+02
  -7.157445e+01   4.066542e+01
  -3.899509e+01  -1.054441e+02
   8.644964e+00  -1.211069e+02
   4.392621e+01  -2.595158e+01
   4.080632e+01   4.978903e+01
   2.198549e+01   1.760650e+01
  -2.852992e+01  -1.706143e+01
   1.902302e+01  -1.137323e+00
   1.087409e+01   1.083315e+02
   5.259175e+01   5.759688e+01
  -4.861282e+01   2.868466e+01
  -1.215167e+02  -3.420920e+01
  -1.032489e+02  -1.748950e+01
  -6.687935e+00  -7.516595e+01
   7.394561e+01  -2.458986e+01
   6.749998e+01   2.630158e+01
   1.512933e+01   2.645403e+01
  -7.986038e+00  -2.453759e+01
  -1.794258e+01   2.260743e+01
   7.691804e+00   1.123969e+01
   2.799508e+01  -7.367418e+00
  -5.461357e+01   1.234216e+01
  -7.163950e+01  -3.275136e+01
  -1.267089e+01  -5.178051e+01
   9.275326e+01  -9.623848e+01
   1.464278e+02  -2.771940e+01
   1.093755e+02   3.846044e+01
   2.876704e+01   1.241230e+02
  -8.528102e+01   1.237237e+02
  -1.069934e+02   2.871284e+01
  -5.270520e+01  -8.200823e+00
  -1.165893e+01  -3.076335e+01
  -6.788788e+00  -3.509778e+00
  -2.026388e+01  -1.666537e+01
  -1.886974e+01  -2.080782e+01
  -3.142439e+01  -7.370617e+01
   1.755579e+01  -6.620940e+01
   4.855423e+01   3.356644e+00
   3.991124e+01   6.225135e+01
   1.010357e+01   4.579218e+01
  -5.940322e+01  -1.012163e+00
  -5.157947e+01  -3.227366e+01
  -4.838555e+01  -4.710988e+01
   3.151376e+01  -6.657733e+01
   7.943726e+01   1.557365e+01
   9.443039e+00   5.262234e+01
   6.827553e+00   5.548231e+01
  -9.673413e+00   4.689108e+00
   3.296483e+01  -4.215417e+01
   7.703512e+01  -4.995194e+00
   1.847531e+01   5.998515e+01
  -8.330696e+01   5.568914e+00
  -9.339837e+01   1.724154e+01
  -7.487475e+01  -3.067606e+00
   9.418425e-02  -5.773770e+01
   4.504670e+01  -7.245253e+01
   2.079124e+01  -4.582455e+01
  -1.122785e+01   5.718192e+01
  -5.698311e+01   3.756012e+01
  -3.169144e+01   6.035030e-01
  -2.821167e+01  -4.564324e+01
  -2.641701e+01  -5.807820e+01
  -1.014590e+01   7.009629e+00
  -4.814469e-01  -1.935721e+01
   5.226158e+01  -7.741278e+00
  -6.146989e-01  -2.679711e+01
   7.229090e-02   1.195036e+00
   1.151524e+00   3.162475e+01
   5.230704e+01   1.883613e+01
  -3.221519e+01   1.457869e+01
  -4.795678e+01  -2.534408e+01
  -3.533883e+01  -4.806573e+01
   1.993007e+01  -1.736588e+01
   3.142772e+01   3.573667e+01
   2.638105e+00   6.622522e+01
  -1.925761e+00   1.989843e+01
  -1.009436e+02  -2.075366e+01
  -7.622933e+00  -1.749210e+01
  -2.637162e+00  -4.808404e+01
   9.044093e+01  -5.608484e+01
  -2.063700e+01   2.537166e+01
  -2.286380e+01  -1.617009e+01
  -3.416045e+01   1.132263e+01
   2.664637e+01  -3.645617e+01
   4.939006e+01  -2.878939e+01
