
 $NMID
 id='ANONYMOUS ', fmtdat='(2E16.6)'
 volume=1.0
 tramp=1.0
 $END
  -2.214782e+03  -3.015069e+01
  -1.448260e+03  -1.109458e+03
  -2.011027e+02  -1.307614e+03
   6.838601e+02  -1.091342e+03
   7.625460e+02  -3.729671e+02
   1.676088e+02   8.712192e+01
  -1.605738e+02   7.093065e+01
  -1.691405e+02  -2.597699e+02
   2.410190e+02  -3.645920e+02
   3.587816e+02  -1.071371e+02
   3.684667e+02   2.871171e+02
   6.481230e+01   3.613294e+02
  -8.179446e+01   1.097540e+02
  -1.206414e+02  -2.574016e+02
   2.658397e+01  -2.890629e+02
   2.452629e+02  -6.323690e+01
   2.087751e+02   3.166440e+02
  -9.813584e+01   5.098832e+02
  -3.263376e+02   2.910592e+02
  -3.438591e+02  -1.052923e+02
  -1.165758e+02  -2.581273e+02
   5.979049e+01  -1.595456e+02
   2.856864e+01  -1.136842e+02
  -1.266558e+02  -1.257259e+02
  -1.675137e+02  -2.329887e+02
   7.091769e+01  -2.112982e+02
   3.679674e+02  -4.482676e+01
   4.606234e+02   1.912432e+02
   5.744858e+01   1.595998e+02
  -2.201414e+02   7.007981e+01
  -2.965350e+02  -1.462983e+02
  -1.586507e+01  -2.338056e+02
   2.206015e+02  -1.942165e+02
   2.582067e+02  -2.831509e+01
   1.780355e+02   8.083616e+01
   5.955936e+01   1.325827e+02
   5.059275e+01   6.799691e+01
   1.215058e+02  -5.127423e+01
   1.382334e+02  -1.967574e+01
   9.987513e+01   1.630295e+02
  -1.553754e+02   2.415055e+02
  -1.672614e+02   1.951851e+02
  -1.857777e+02  -6.887611e+00
   1.546834e+01  -6.467382e+01
   1.095062e+01  -3.788495e+01
   3.250935e+01   2.294295e+02
  -1.254401e+02   2.228995e+02
  -3.248533e+02  -3.214280e+01
  -3.213385e+02  -3.210467e+02
  -9.048711e+01  -3.119814e+02
   1.567571e+02  -1.588907e+02
   3.975078e+02   5.619923e+01
   2.366836e+02   1.671768e+02
  -5.392098e+00   9.023697e+01
  -1.375365e+02   9.447276e+01
  -1.072076e+02   9.656054e+00
   2.796552e+01   3.392023e+01
   1.066024e+01   3.128383e+00
  -4.894212e+01   6.550889e+00
  -1.584165e+02  -3.141328e+01
  -1.152192e+02  -1.231260e+02
   1.128458e+02  -1.615100e+02
   2.436765e+02  -1.119300e+02
   2.027912e+02   3.817179e+01
  -3.045138e+01   2.165381e+02
  -2.750929e+02   2.804934e+02
  -3.234775e+02   3.027407e+01
  -1.554741e+02  -1.398624e+02
  -3.193469e+01  -2.286251e+02
   7.369339e-01  -2.367542e+02
   1.348983e+01  -1.593107e+02
   6.747038e+01  -8.960582e+01
   1.413597e+02  -1.011920e+02
   1.884820e+02  -3.097318e-01
   8.116809e+01   1.712404e+02
  -7.370224e+00   1.589771e+02
  -7.628297e+01   4.725130e+01
  -1.007786e+02  -1.157741e+02
  -2.565082e+01  -2.281186e+02
   2.941334e+01  -1.447082e+02
   1.226727e+02  -2.971271e+01
   1.991042e+02   1.581017e+02
   7.192227e+01   1.919805e+02
  -2.053533e+01   1.799538e+02
  -9.335683e+01   1.281254e+02
  -1.023458e+02   8.251835e+01
  -1.410928e+02   7.907588e+01
  -2.427056e+02   4.492372e+01
  -3.329455e+02  -8.872935e+01
  -2.231528e+02  -2.876344e+02
   4.246126e+00  -2.671462e+02
   3.407929e+02  -3.072161e+02
   3.681953e+02  -1.101883e+02
   2.048603e+02   1.037150e+02
   3.044128e+01   1.722985e+02
  -4.423814e+01   9.393375e+01
   3.269485e+01   5.152498e+01
   1.092810e+02   4.279147e+01
   5.602542e+01   2.359374e+01
  -3.026846e+01   8.905899e+01
  -9.867643e+01   7.139092e+01
  -5.988049e+01  -6.890573e+01
   6.740116e+01  -1.063212e+02
   9.252355e+01   4.196579e+01
   1.031353e+02   1.625171e+02
  -7.761709e+01   2.923838e+02
  -2.051854e+02   1.386160e+02
  -2.321500e+02  -5.537888e+01
  -1.890913e+02  -2.006158e+02
  -4.421201e+01  -1.543766e+02
   1.359452e+02  -1.221829e+02
   1.551401e+02   7.457488e+00
   1.213826e+01   2.819827e+01
  -2.877962e+01  -4.892008e+01
   2.740585e+01  -5.645899e+01
   8.501960e+01  -3.103478e+01
   1.227933e+02   2.811194e+01
  -5.840170e+00   2.964209e+01
  -9.275134e+01  -9.125269e+00
  -3.265642e+01  -1.070995e+02
   8.895375e+01  -7.040707e+01
   2.148018e+02   3.952516e+01
   2.082719e+02   1.248385e+02
   4.671267e+01   2.088179e+02
  -1.684040e+02   1.863198e+02
  -2.349703e+02   8.219146e+01
  -4.306832e+01   3.087611e+00
  -4.158863e+00  -4.255693e+01
   2.697152e+01   1.778280e+01
  -3.480964e+01   6.612941e+01
  -1.153560e+02  -7.197156e+00
  -1.229391e+02  -7.998868e+01
  -3.106773e+01  -1.302395e+02
   7.575708e+01  -4.904098e+01
   9.498475e+01  -1.875027e+01
   2.613767e+01  -3.187345e+00
  -2.956598e+01  -1.915254e+01
   2.283570e+01  -1.184550e+02
   8.664270e+01  -7.337336e+01
   1.838142e+02   8.306895e+00
   1.304865e+02   1.340868e+02
  -1.828020e+01   1.665631e+02
  -1.244988e+02   8.521744e+01
  -1.060441e+02   8.928108e+00
  -1.811441e+01  -6.547757e+01
   5.000426e+01  -5.177387e+01
   4.116606e+01  -1.928676e+01
   8.337813e+00   6.691987e+00
  -4.462619e+01   8.816024e+00
  -2.434434e+01  -7.497726e+01
   4.878972e+01  -1.099324e+01
   1.129882e+02   1.024379e+02
   4.482868e+01   1.382612e+02
  -1.280390e+02   1.302873e+02
  -1.920032e+02   1.027352e+01
  -1.588039e+02  -1.525115e+02
  -2.765722e+01  -1.657632e+02
   6.115311e+01  -8.662597e+01
   6.972639e+01  -2.200212e+00
   6.087683e+01  -1.801545e+01
   6.923613e+01   3.835598e+00
   4.748926e+01   9.496523e+00
   4.321755e+01  -2.056014e+01
   6.616057e+01   4.652836e+01
  -4.805925e+01   5.230182e+01
  -1.447616e+02   4.859642e+01
  -6.538313e+01  -2.583351e+01
   4.536993e+01  -1.136477e+02
   1.308618e+02  -2.859438e+01
   1.597995e+02   8.546803e+01
   3.366635e+01   2.259956e+02
  -1.151264e+02   1.400362e+02
  -2.266936e+02   5.494919e+01
  -1.992021e+02  -9.516747e+01
  -5.017345e+01  -1.348618e+02
   5.143147e+01  -6.881000e+01
   8.410832e+01  -6.064198e+01
   5.907174e+01  -4.012369e+01
   2.013287e+01  -9.244482e+01
   3.629993e+01  -3.796329e+01
   1.213221e+02   2.915712e+01
   8.976449e+01   1.350589e+02
   1.759442e+01   1.946618e+02
  -6.511152e+01   1.236866e+02
  -1.178537e+02  -3.946962e+01
  -5.306984e+01  -1.202664e+02
  -1.569032e+01  -1.010283e+02
   6.070792e+01  -5.496883e+01
   1.808775e+01   1.501662e+01
  -3.501483e+01   7.060548e+00
  -3.482515e+01   4.030865e+01
   5.643116e+01   2.119644e+01
   3.991171e+01  -2.083493e+01
   2.258214e+01  -1.749437e+00
  -5.725271e+01  -5.281282e+00
  -1.114425e+02  -1.263255e+01
  -1.268671e+02  -3.284741e+01
  -2.673878e+01  -7.978641e+01
   1.190335e+02  -2.058496e+01
   1.380902e+02  -2.355489e+01
   8.398465e+00   8.809908e+01
  -6.059166e+01   1.530312e+01
  -5.930391e+01   9.131129e+00
  -3.390571e+00  -9.084853e+01
   8.117404e+01  -6.962740e+01
   5.479332e+01  -6.543540e+00
   3.738218e+01   3.817028e+01
   1.604520e+01   6.600773e+01
   6.906677e+01  -8.107083e+00
   5.053330e+01  -2.938314e+01
   1.560682e+01   6.205453e+01
   1.835913e+01   8.818285e+01
  -8.814652e+01   1.131049e+02
  -1.100424e+02  -1.540786e+01
  -9.122452e+01  -9.468714e+01
  -2.621790e+00  -6.878824e+01
   6.928560e+01  -6.070389e+01
   4.543580e+01  -9.906571e+00
  -5.707366e+01  -6.919312e+00
  -1.324193e+02  -4.730133e+01
  -6.778682e+01  -8.153826e+01
   8.201526e+01  -1.146769e+02
   1.406277e+02  -1.193013e+01
   1.135483e+02   1.810325e+01
   4.324815e+01   5.578867e+01
  -6.979797e+01   4.025441e+01
  -5.301149e+00  -2.235445e+01
   2.817739e+01  -2.432302e+01
   2.839841e+01  -2.042971e+01
   5.705763e+01   9.157528e+01
  -7.354020e+01   7.803050e+01
  -8.851426e+01   1.080192e+02
  -7.419735e+01  -3.697054e+01
   6.493754e+00  -1.350979e+02
   3.903289e+01  -8.925095e+01
   8.627893e+01   6.313499e+00
   4.332654e+01   7.801032e+01
  -2.848175e+01   8.809799e+01
  -4.056479e+01   4.631200e-01
  -3.356360e+01  -4.542961e+01
   8.835426e+00   2.737746e+01
   2.558097e+01   3.852354e+01
  -1.883305e+01  -4.991868e+01
  -1.488074e+01  -6.826568e+01
   5.801634e+00  -1.060027e+02
   6.901991e+01  -6.550952e+00
   1.248311e+02   2.994514e+01
   1.104462e+02   6.481716e+01
  -2.639538e+01   4.012364e+01
  -9.521989e+01   3.038710e+01
  -6.006242e+01  -1.385786e+01
   2.524459e+01  -5.245989e+01
  -3.549697e+01  -1.222122e+01
  -3.268071e+01  -4.124307e+01
  -2.185233e+01  -9.418118e+00
  -1.369434e+01  -1.089777e+01
   3.062930e+01   4.524896e+01
   6.606556e+01  -4.694197e+01
   3.265780e+01   6.199915e+01
  -4.830309e+01   1.145242e+02
  -1.921062e+02   3.819030e+01
  -8.086819e+01  -6.340879e+01
  -6.218483e+00  -1.531898e+02
   1.303356e+02  -5.830507e+01
   7.527527e+01  -7.713227e+01
   6.832994e+01   2.313207e+01
  -7.927820e+00  -1.300472e+01
  -2.460400e+00  -9.322014e+00
  -7.521835e+00   3.205157e+01
   3.336779e+01   7.348133e+01
   2.749290e+01   6.276848e+01
   1.794367e+00   3.535884e+01
  -5.316735e+01   3.735263e+01
  -2.891094e+01  -8.673437e+01
   3.535772e+00  -7.593246e+01
   4.993072e+01  -5.111325e+01
   8.942056e+01   3.343393e+01
   2.705972e+01   8.467725e+01
  -7.814912e+01   7.970731e+01
  -8.535267e+01   1.163897e+01
  -5.323084e+01  -6.705225e+01
   1.994748e+01  -5.161048e+01
   9.634420e+00  -4.310344e+01
  -3.536027e+01   1.606302e+01
  -5.701480e+01  -1.073560e+01
   5.907155e+00   3.092246e+00
   6.415484e+01  -4.345255e+01
   7.450667e+01  -4.220328e+01
   5.049273e+00   3.549200e+01
  -4.464858e+00   3.693389e+01
  -5.104597e+01   7.045848e+01
  -5.524559e+01   2.756243e+01
  -4.553866e+01  -4.804694e+01
   2.403177e+01  -1.885373e+01
   5.560039e+01  -2.179271e+00
   2.368342e+01   3.119493e+01
   5.874589e+00   1.029326e+01
  -2.484255e+01  -9.179199e+00
  -2.261703e+01  -3.147936e+01
  -3.154145e+01   1.012215e+01
  -1.767770e+01   5.591664e+01
   3.540491e+01   2.029610e+01
   3.916801e+00  -3.369606e+01
   6.545266e+00  -5.597115e+01
  -1.551017e+01   1.363026e+01
   4.858279e+01   4.081839e+01
  -3.297190e+01   4.714651e+01
  -1.876541e+01  -2.413016e+01
  -4.571395e+01  -1.740744e+01
  -6.383596e+00  -4.319983e+01
   5.454721e+01  -4.501928e+01
   6.623290e+01  -2.066628e+01
   5.921584e+01   2.009251e+01
   1.414536e+01   5.684476e+01
  -2.632235e+01   5.329897e+01
  -8.353330e+00   1.549976e+01
   1.486324e+01  -1.486010e+01
   3.176764e+01  -4.137128e+01
   9.903917e+00  -1.913030e+01
  -5.036212e+01   1.178156e+01
