
 $NMID
 id='ANONYMOUS ', fmtdat='(2E16.6)'
 volume=1.0
 tramp=1.0
 $END
  -1.227465e+03   1.259208e+02
  -9.420907e+02  -3.990358e+02
  -2.359001e+01  -9.953309e+02
   5.175955e+02  -9.472296e+02
   4.483368e+02  -4.672116e+02
   1.850259e+02  -1.810261e+02
  -1.596435e+01  -3.166356e+01
   3.645324e+01  -2.353255e+02
   1.005687e+02  -2.444330e+02
   2.618366e+02  -9.132531e+01
   2.631060e+02   1.616672e+02
   1.136781e+02   2.301161e+02
  -3.633872e+01   8.503441e+01
  -1.075862e+02  -1.285941e+02
  -4.801702e+01  -1.901715e+02
   9.363851e+01  -1.184471e+02
   1.352061e+02   1.804669e+02
  -3.680254e+00   3.706770e+02
  -1.959283e+02   1.700666e+02
  -1.972490e+02  -3.083841e+01
  -9.891909e+01  -1.588014e+02
   2.093600e+00  -1.487083e+02
  -2.645215e+01  -1.031536e+02
  -1.254179e+02  -1.406946e+02
  -1.355731e+02  -2.193574e+02
   5.073193e+01  -1.590741e+02
   2.831546e+02  -1.109865e+01
   2.658659e+02   1.245510e+02
   7.639603e+01   4.715425e+01
  -1.509243e+02   6.064212e+01
  -2.646911e+02  -7.396477e+01
  -9.367166e+01  -1.175784e+02
   1.312615e+02  -1.420672e+02
   2.134015e+02  -4.793964e+01
   1.637058e+02   4.174924e+01
   8.391108e+01   8.442376e+01
   1.071008e+02   8.230645e+01
   8.817295e+01   1.199793e+01
   6.693431e+01  -4.754388e+01
   4.937380e+00   1.234222e+02
  -1.897254e+01   2.268702e+02
  -7.233947e+01   2.289331e+02
  -1.104442e+02   7.530949e+00
  -6.332088e+00  -8.280775e+01
  -5.665077e+00  -6.187237e+01
   3.676121e+01   1.610276e+02
  -6.867127e+01   1.879354e+02
  -1.967157e+02   3.756944e+01
  -2.577279e+02  -1.862238e+02
  -1.010753e+02  -2.192837e+02
   1.390560e+02  -1.438482e+02
   2.141195e+02   4.079637e+01
   1.682468e+02   8.948697e+01
   4.434042e+01   2.197099e+01
  -1.203745e+02   7.193397e+01
  -1.045795e+02  -1.522563e+01
  -7.120717e+01   7.668092e+01
   7.547357e+00   1.353320e+01
  -7.302667e+01  -2.405966e+01
  -1.117357e+02  -3.456576e+01
  -9.909072e+01  -5.740236e+01
   1.114759e+02  -9.470260e+01
   1.809528e+02  -8.642777e+01
   1.385153e+02   1.663431e+01
   8.241285e+00   1.863261e+02
  -1.404621e+02   2.229261e+02
  -1.906767e+02   1.145948e+02
  -1.273353e+02  -3.826612e+01
  -6.371202e+01  -1.186832e+02
  -4.610721e+01  -1.849450e+02
  -4.493126e+00  -1.442285e+02
   3.353962e+01  -7.276817e+01
   1.112655e+02  -7.436669e+01
   1.704502e+02   1.131653e+01
   1.371650e+02   7.302834e+01
   3.058664e+01   1.474394e+02
  -4.182344e+01   5.916491e+01
  -1.265421e+02  -1.030025e+01
  -4.201358e+01  -1.321833e+02
   2.467923e+01  -1.359757e+02
   9.789815e+01  -1.782504e+01
   1.641642e+02   7.362156e+01
   1.501420e+02   1.060173e+02
   1.766649e+00   1.346612e+02
  -3.996824e+01   1.017503e+02
  -8.449388e+01   6.169807e+01
  -9.467839e+01   5.730586e+01
  -1.797990e+02  -6.184139e+00
  -2.129715e+02  -1.685162e+01
  -1.387656e+02  -1.725824e+02
   1.524588e+01  -2.417521e+02
   1.966405e+02  -2.053534e+02
   2.416543e+02  -1.187481e+02
   1.312804e+02   1.779049e+01
  -5.248899e+00   1.435744e+02
  -3.123591e+01   1.008949e+02
   1.536766e+01   7.191714e+01
   9.232158e+01  -3.537972e-01
   4.548840e+01   6.438209e+01
   7.769496e+00   6.409648e+01
  -7.396585e+01   3.443123e+01
  -8.082164e+00  -5.717977e+01
   1.461297e+01  -7.445422e+01
   6.324856e+01  -3.447008e+01
   9.623889e+01   1.120250e+02
   2.145393e+01   2.381275e+02
  -1.280820e+02   1.376000e+02
  -2.540658e+02   9.034608e+00
  -1.310654e+02  -1.396615e+02
  -2.788762e+01  -1.636561e+02
   4.523602e+01  -5.988927e+01
   6.491952e+01  -7.879315e+01
   2.290877e+01   5.132083e+00
  -9.865593e-01  -4.067876e+01
  -1.159032e+01  -2.756580e+01
   3.874798e+01  -5.779741e+00
   8.102137e+01  -2.995285e+00
   4.405371e+01   2.081773e+01
   8.840076e+00  -5.658590e+01
  -2.061594e+01  -2.058194e+01
   7.062815e+01  -3.291566e+01
   1.549272e+02  -2.381704e+01
   1.949099e+02   1.156699e+02
   2.153955e+01   1.390953e+02
  -9.882432e+01   1.315240e+02
  -1.140512e+02   1.227990e+02
  -9.143990e+01   3.915801e+01
   1.391229e+01  -7.980334e+01
   7.554361e+01   1.241159e+01
   6.296965e+00   4.179664e+01
  -7.836505e+01   4.058677e+00
  -8.793926e+01  -5.473616e+01
  -6.387023e+00  -7.701592e+01
   3.583461e+01  -8.842995e+01
   7.543960e+01  -2.071355e+01
   3.050007e+01  -4.890933e+01
  -5.209007e-01  -3.205581e+01
  -2.278748e+00  -7.359575e+01
   5.445202e+01  -2.383951e+01
   8.228258e+01   1.886659e+01
   8.902763e+01   4.543311e+01
  -1.993403e+00   8.414550e+01
  -1.381651e+02   7.711879e+01
  -9.737287e+01  -3.138515e+00
  -5.632994e+01  -6.073054e+01
   2.668538e+01  -5.324162e+01
   4.284605e+00   3.744911e+01
  -3.308263e+00  -4.964571e+00
   3.768132e+00   1.790204e+01
  -2.307792e+01  -1.554714e+01
   6.781658e+01  -3.385211e+01
   9.560527e+01   5.259402e+01
  -2.325083e+01   9.589123e+01
  -7.157318e+01   9.295990e+01
  -1.256142e+02   2.359656e+01
  -1.087931e+02  -9.097067e+01
  -5.860380e+01  -1.484709e+02
   2.770255e+01  -6.470724e+01
   7.587146e+01  -5.637846e+01
   3.958989e+01  -1.797063e+01
   3.337727e+01   9.135976e+00
   6.842522e+00  -5.802442e+01
   8.283450e+01  -8.046746e+00
  -2.854821e+00   2.478025e+01
  -1.978831e+01   8.002462e+01
  -6.705622e+01   4.873973e+01
  -5.239262e+01  -1.756257e+01
   3.966997e+01  -7.963175e+01
   8.503860e+01  -1.034955e+01
   1.228139e+02   6.336159e+01
   8.030202e+00   1.163233e+02
  -7.983363e+01   1.235565e+02
  -1.695186e+02   6.937822e+01
  -1.119493e+02  -5.192113e+01
  -7.823176e+01  -1.077281e+02
   1.238747e+01  -8.984858e+01
   1.174892e+02  -1.922350e+01
   4.637747e+01  -4.581709e+01
   4.038729e+01  -5.619484e+01
   4.916055e+01  -5.774058e+01
   8.861062e+01  -3.360023e-01
   4.319360e+01   9.382321e+01
   3.417033e+01   1.153584e+02
  -3.977713e+01   1.329147e+02
  -7.312085e+01   2.631346e+01
  -5.095721e+01  -4.253194e+01
   2.624438e+01  -5.638992e+01
   1.268755e+01  -4.585654e+01
  -1.596256e+01   5.132244e+01
  -3.571031e+01   2.635547e+01
   2.198904e+01   4.001589e+01
  -2.814376e+00   1.258389e+01
   4.013177e+01   2.351298e+01
   1.612309e+01   5.825286e+01
  -3.848415e+01  -9.586530e+00
  -9.109795e+01   1.845027e+01
  -8.144721e+01  -4.045780e+01
   3.323007e+01  -6.718612e+01
   6.225352e+01  -1.570243e+01
   1.292028e+02  -4.117789e+01
  -1.114674e+01   3.618704e+01
  -4.517746e+01   2.284292e+00
  -5.564359e+01   1.771549e+01
  -1.040157e+01  -8.035782e+01
   4.746675e+01  -3.237075e+01
   7.416465e+01  -5.968272e+00
   3.381153e+01   8.775692e+01
   1.890193e+01   2.837879e+01
   2.511474e+01   5.947834e+01
   2.205995e+01  -3.043325e+01
   6.027854e+00   7.400007e+01
  -3.322535e+01   8.842720e+01
  -1.139904e+02   1.041961e+02
  -4.176232e+01  -5.928290e+00
  -5.548759e+01  -6.891201e+01
  -3.158912e+00  -7.653987e+01
   5.118529e+01  -4.644430e+01
   4.422861e+01   3.359537e+00
  -2.910160e+01  -1.234893e+00
  -6.822783e+01  -4.130778e+01
  -2.444001e+01  -7.310842e+01
   4.372916e+01  -4.088724e+01
   7.990315e+01  -2.984445e+01
   9.755423e+01   8.231801e+00
   1.883702e+01   6.950270e+01
  -4.216691e+01   3.689203e+01
  -4.253753e+01  -1.132312e+01
   8.308284e+00  -3.732285e+01
   7.866135e+01   2.927198e+01
   3.885779e+01   6.766962e+01
  -6.923847e+01   9.918617e+01
  -4.606682e+01   1.167659e+01
  -4.707293e+01  -2.755216e+01
   1.167652e+01  -7.600124e+01
   4.644083e+01  -4.621838e+01
   2.076810e+01   2.250714e+00
   3.947362e+01   6.927967e+01
   7.161518e+00   5.486312e+01
  -2.030832e+01  -3.628520e+00
  -2.975170e+00   2.239493e+01
  -1.523610e+00   1.540907e+01
  -7.481540e+00   1.336361e+01
  -3.325982e+01  -2.280234e+01
  -3.882883e+01  -3.544184e+01
   1.171984e+01  -9.924075e+01
   1.891676e+01  -4.337239e+01
   1.064170e+02   2.287805e+01
   7.881704e+01   6.839015e+01
  -3.157477e+01   4.205835e+01
  -4.900599e+01   1.834400e+01
  -4.540768e+01   1.883259e+01
  -4.806439e+01  -8.465801e+00
   2.237754e+01   1.309236e+01
   2.144223e+01  -2.999575e+01
  -2.446266e+01   2.051845e+01
   1.308819e+01   5.157920e+00
   2.071226e+01   2.407259e+01
   5.423098e+01  -3.155043e+01
  -1.340164e+01   1.586808e+01
  -3.874578e+01   5.788446e+01
  -1.208335e+02   5.027326e+01
  -7.764908e+01  -3.119818e+01
  -4.920803e+01  -9.166040e+01
   6.100279e+01  -9.132009e+01
   5.653588e+01  -7.131775e+01
   5.488588e+01  -2.489083e+00
   2.999989e+01  -1.269589e+01
   1.637516e+01  -3.191094e+01
   3.811155e+01   1.365354e+01
   4.563288e+01   5.813586e+01
   7.021058e+00   8.545158e+01
  -3.867238e+00  -2.564772e+00
  -5.709775e+01  -6.253595e-01
  -4.438170e+01  -2.743119e+01
  -1.102794e+01  -5.736530e+01
   6.569465e+01  -1.626992e+01
   5.148692e+01  -3.455508e+01
   2.212660e+01   7.047298e+01
  -2.241444e+01   3.533985e+01
  -6.828591e+01  -1.714069e+01
  -4.344083e+01  -5.501419e+01
   2.205159e+01  -4.178762e+01
  -7.987391e+00  -6.079335e+01
  -4.713302e+01  -3.338206e+01
   2.241490e+00  -1.079294e+01
  -1.518408e+01  -2.399896e+01
   5.634093e+01  -3.756651e+00
   5.420771e+00  -4.289074e+01
   2.993963e+01  -2.592918e+01
   6.516758e+00   2.882239e+01
  -3.290353e+01   3.931249e+01
  -2.900708e+01   2.609129e+01
  -1.876471e+01  -2.441831e+01
   3.130618e+01  -1.826753e+01
   2.745527e+01   2.501546e+00
   2.606805e+01   1.430191e+01
   5.435379e+00   3.419243e+01
  -1.388530e+01  -2.983318e+01
  -2.528257e+01  -1.714484e+01
  -2.218491e+01  -2.853985e+01
  -1.018867e+01   5.463367e+00
   3.500029e+00  -1.672079e+01
   6.910931e+00  -3.960457e+01
   2.531071e+01  -4.634868e+01
   2.958665e+01  -4.307736e+01
   3.057193e+01  -3.109125e+00
   2.616371e+01   2.189976e+01
  -3.413677e+00   1.786297e+00
  -3.393303e+01  -1.594219e+01
   1.591234e+00  -3.370645e+01
   3.603124e+01  -3.115020e+00
   1.006194e+02   2.597796e+01
   4.036340e+01   4.569826e+01
  -4.806166e+01   4.652786e+01
  -1.557887e+01   1.851370e+01
  -1.274499e+01   4.019838e+01
   3.907776e+01   9.986217e+00
   2.239519e+01   7.943914e+00
  -2.998208e+01   2.524074e+01
  -4.193792e+01   3.756623e+01
