
 $NMID
 id='ANONYMOUS ', fmtdat='(2E16.6)'
 volume=1.0
 tramp=1.0
 $END
   2.976452e+03   1.201069e+02
   1.796831e+03   1.347538e+03
  -1.347860e+01   1.819296e+03
  -1.045181e+03   1.238645e+03
  -9.163644e+02   2.675838e+02
  -3.748608e+01  -2.590672e+02
   3.635536e+02   7.687225e+01
  -7.551572e-01   4.542761e+02
  -4.400749e+02   5.802976e+02
  -6.319861e+02   1.006318e+02
  -3.738871e+02  -4.325840e+02
  -1.997192e+01  -6.595695e+02
   2.996344e+02  -2.422150e+02
   2.450852e+02   3.499916e+02
  -1.679376e+02   5.126868e+02
  -4.256971e+02   7.546966e+01
  -2.941187e+02  -4.503766e+02
   1.178354e+02  -5.817275e+02
   4.553252e+02  -3.211586e+02
   4.245045e+02   2.151671e+02
   1.256297e+02   3.586279e+02
  -1.016530e+02   2.203262e+02
  -7.039610e+01   6.491016e+01
   2.050304e+02   1.210521e+02
   2.981447e+02   3.215975e+02
  -5.153648e+01   3.431718e+02
  -4.666388e+02   1.587808e+02
  -5.854814e+02  -2.048310e+02
  -1.516982e+02  -3.619104e+02
   3.099714e+02  -2.276768e+02
   4.516007e+02   1.571961e+02
   1.972784e+02   3.749730e+02
  -2.162282e+02   3.151471e+02
  -4.109826e+02   1.267271e+02
  -2.992709e+02  -9.108725e+01
  -1.120217e+02  -2.785027e+02
  -2.614394e+01  -1.856877e+02
  -5.610722e+01   3.966504e+01
  -1.595991e+02   1.120186e+02
  -1.644688e+02  -1.406706e+02
  -1.109163e+01  -4.667986e+02
   1.715126e+02  -3.894977e+02
   2.522650e+02  -1.264650e+01
   1.388533e+02   3.122092e+02
  -8.256948e+01   1.391063e+02
  -1.844092e+02  -2.636028e+02
   7.900046e+01  -3.542024e+02
   4.345810e+02  -4.559119e+01
   4.575609e+02   2.951831e+02
   9.994755e+01   4.822322e+02
  -3.084709e+02   2.198475e+02
  -4.941968e+02  -9.790950e+01
  -3.360908e+02  -2.040969e+02
   3.499574e+01  -2.291566e+02
   3.314536e+02  -1.004568e+02
   2.114457e+02   3.833082e+01
   5.443864e+01   2.626945e+01
  -5.784381e+01  -1.638253e+01
   6.385678e+01  -6.024954e+01
   2.589247e+02  -1.937382e+01
   1.480248e+02   2.089838e+02
  -1.430022e+02   2.695859e+02
  -3.585746e+02   1.680274e+02
  -2.618040e+02  -1.204175e+02
   6.256549e+01  -2.864225e+02
   3.303210e+02  -3.569887e+02
   4.141905e+02  -1.464235e+02
   2.215275e+02   1.706144e+02
   3.960236e+01   3.669242e+02
   1.649935e+01   3.375173e+02
  -1.864820e+00   1.312883e+02
   4.527642e+00   7.895139e+01
  -1.424759e+02   1.033830e+02
  -2.256982e+02   2.688007e+01
  -2.453390e+02  -1.391721e+02
  -6.683613e+01  -2.558007e+02
   1.064120e+02  -1.743681e+02
   2.105088e+02   5.854690e+01
   6.347890e+01   2.527471e+02
  -8.343432e+01   2.642531e+02
  -2.363306e+02   6.508035e+01
  -2.547668e+02  -2.083923e+02
  -1.448469e+02  -3.171318e+02
   5.698223e+01  -2.402945e+02
   1.277238e+02  -1.556983e+02
   1.508109e+02  -5.836753e+01
   1.209072e+02  -1.611434e+01
   2.531645e+02  -4.378168e+01
   3.526869e+02   1.396948e+02
   2.678412e+02   3.161899e+02
  -5.433331e+01   4.428962e+02
  -4.077852e+02   4.310503e+02
  -4.596292e+02   1.073537e+02
  -2.766700e+02  -1.329375e+02
  -1.406680e+01  -2.353794e+02
   1.256648e+02  -1.634502e+02
   4.575130e+01  -3.548318e+01
  -1.067866e+02   1.729217e+01
  -9.766877e+01  -2.881105e+01
   4.426641e-01  -1.434542e+02
   9.103058e+01  -1.008611e+02
   1.282919e+02   6.112777e+01
  -4.025082e+01   1.089673e+02
  -1.684786e+02  -3.927187e+01
  -1.358382e+02  -2.170543e+02
   9.723358e+01  -3.381678e+02
   2.519348e+02  -1.560869e+02
   3.613310e+02   3.350555e+01
   2.089299e+02   3.019179e+02
   4.948985e+00   2.755964e+02
  -1.011472e+02   1.377384e+02
  -1.273565e+02   2.884663e+01
  -3.425852e+01   4.450319e+01
   3.463078e+01   8.571684e+01
   3.147912e+01   8.547822e+01
  -1.018147e+02   6.997781e+01
  -1.240456e+02  -2.925580e+01
   1.030850e+01  -8.243892e+01
   1.098662e+02   3.443005e+01
   3.353304e+01   7.785113e+01
  -1.242937e+02   2.258725e+01
  -2.696400e+02  -6.658906e+01
  -2.269283e+02  -1.879417e+02
  -8.134886e+00  -2.662209e+02
   1.709139e+02  -2.063790e+02
   2.329979e+02  -9.481905e+01
   1.447780e+02   1.825025e+01
  -3.837223e+01   4.584194e+01
  -5.355460e+01  -2.783085e+01
   4.977648e+01  -4.710478e+01
   1.550511e+02   9.927654e+00
   1.381809e+02   1.060633e+02
   8.575269e+01   1.459318e+02
  -8.899942e+01   9.172327e+01
  -9.985114e+01   9.624324e+00
  -2.295021e+01  -4.223305e+01
   3.228966e+01   5.376766e+01
  -1.387251e+00   1.358639e+02
  -1.146141e+02   1.260168e+02
  -2.092468e+02   1.885668e+00
  -1.555413e+02  -1.524959e+02
   9.067735e+00  -1.982249e+02
   1.717243e+02  -1.660468e+02
   1.135211e+02   2.085161e+01
   6.910775e+01   9.510445e+01
  -6.480240e+01   1.091870e+02
  -3.142714e+01   3.197405e+01
  -1.206564e+01  -4.576097e+01
   6.665858e+01  -2.939628e+01
   1.982588e+01   2.540789e+01
  -1.203976e+02   1.092883e+01
  -1.076871e+02  -9.727175e+01
  -4.332095e+01  -1.922437e+02
   1.470323e+02  -1.363275e+02
   2.639112e+02   2.846381e+00
   1.761306e+02   2.117635e+02
   4.414003e+01   2.111201e+02
  -5.462215e+01   1.249130e+02
  -9.316203e+01   3.248455e+01
  -6.294367e+01  -6.556130e+01
  -3.322970e+01  -3.911203e+01
  -7.923637e+01   2.834596e+01
  -7.525553e+01   2.774925e+01
  -6.442269e+01  -7.639527e+01
   3.578820e+01  -8.240450e+01
   1.307219e+02  -8.098949e+01
   7.152286e+01   5.202377e+01
  -7.067849e+00   1.226845e+02
  -1.450756e+02   1.024827e+02
  -1.815571e+02  -1.321426e+02
  -1.476628e+01  -1.860788e+02
   1.687588e+02  -2.231102e+02
   2.752149e+02  -9.143676e+01
   2.395082e+02   1.308945e+02
   1.008698e+02   1.831725e+02
  -1.723482e+01   1.656418e+02
  -8.262308e+01   4.709834e+01
  -4.014295e+01   5.715647e+01
  -4.130259e+01   2.897048e+01
  -7.323254e+01   8.463196e+01
  -1.051874e+02  -2.242311e+01
  -7.493390e+01  -1.830391e+02
  -1.683605e+00  -2.203219e+02
   1.091316e+02  -1.438539e+02
   1.670388e+02  -1.095650e+01
   7.738010e+01   1.522102e+02
  -2.025027e+01   1.636250e+02
  -6.960888e+01   4.588463e+01
  -7.805573e+01  -4.494094e+01
  -7.541346e+00  -6.613852e+01
   1.325972e+01  -4.662276e+01
  -7.200531e+00  -1.850014e+01
  -7.688355e+01  -2.840599e+01
  -4.890392e+01  -3.157961e+01
   4.771809e+01  -2.968928e+01
   1.596472e+02  -3.801084e+01
   1.859525e+02   8.795162e+01
   2.658391e+01   1.135061e+02
  -1.341934e+02   6.009902e+01
  -1.385194e+02  -9.668846e+00
  -4.743897e+01  -6.700710e+01
   3.495092e+01  -3.428523e+01
   4.776025e+01   3.326441e+00
  -6.894663e+00   4.928825e+01
  -3.402885e+01   4.810120e+01
  -7.269071e+01   2.665254e+01
  -4.566820e+01  -5.158254e+01
  -5.927177e+01  -3.070757e+01
  -5.195720e+01   2.170840e+00
  -3.983558e+01   2.613691e+01
   2.024137e+00  -7.391788e+01
   2.527735e+01  -1.044866e+02
   1.505585e+02  -1.886639e+02
   1.871267e+02  -6.666535e+00
   1.315806e+02   4.004255e+01
  -9.868719e+00   9.202232e+01
  -7.450416e+01   7.773975e+01
  -5.229716e+01  -5.560594e+01
   6.648057e+01  -4.058674e+01
   1.558341e+02   3.800573e+01
   4.639451e+01   7.275304e+01
  -4.780261e+01   1.242739e+02
  -1.973365e+02   4.020931e+01
  -1.628705e+02  -6.539773e+01
  -3.568819e+01  -9.622964e+01
   3.862148e+01  -3.628656e+01
   2.576323e+01  -1.154717e-01
  -6.847176e+01  -1.247325e+01
  -1.194178e+02  -4.580523e+01
  -5.152333e+01  -1.056315e+02
   9.357159e+01  -1.449748e+02
   1.569976e+02  -7.070842e+01
   1.111902e+02   2.909538e+01
  -9.422113e-01   1.823459e+02
  -7.354566e+01   1.506496e+02
  -1.062454e+02  -1.933814e+01
  -5.071519e+01  -8.902086e+01
   1.975914e+01  -8.591301e+01
   2.052021e+01  -5.397187e+00
   1.729458e+01   4.506385e+01
   3.812888e+01   2.642788e+01
  -1.452072e+01  -2.025392e+01
   1.242413e+01   1.490132e+01
   5.875307e+01   6.202395e+01
   2.822467e+01   5.639136e+01
  -4.211998e+01   5.880010e+01
  -1.117663e+02  -6.346376e+01
  -1.591014e+02  -8.314627e+01
  -2.387546e+01  -2.960047e+01
   8.423311e+01  -8.720474e+00
   9.628469e+01   2.087186e+01
   4.011915e+01  -7.266607e+00
   4.399656e+00   1.996471e+01
  -1.878713e+01  -1.152313e+01
   5.954735e+01   3.718956e+01
  -3.037818e+01  -1.507486e+01
  -6.726983e+01  -3.094874e+01
  -9.732580e+01  -1.325656e+01
  -3.702521e+01  -6.105905e+01
   1.039335e+02  -8.725534e+01
   1.730972e+02  -5.908309e+01
   1.352620e+02   6.539109e+01
   6.033971e+01   1.680307e+02
  -8.302360e+01   1.344728e+02
  -1.034630e+02   1.002663e+02
  -9.862426e+01  -3.245993e+01
  -3.119393e+01  -4.593759e+01
   1.513387e+01  -1.484245e+01
  -4.229071e+01  -2.601412e+01
  -3.625256e+01  -9.039964e+01
  -2.185322e+01  -7.494372e+01
  -3.051336e+01  -5.236868e+01
   5.254202e+01   1.513929e+01
   6.908030e+01   8.395465e+01
   3.272484e+01   1.011869e+02
  -5.466429e+01   4.041515e+01
  -1.040731e+02  -1.565160e+00
  -6.789308e+01  -1.018453e+02
   6.090150e+01  -7.285641e+01
   1.076447e+02   4.591018e+01
   2.758882e+01   2.597897e+01
  -6.133433e+00   4.449531e+01
  -3.933642e+01   2.366133e+01
   2.359361e+01   2.669638e+01
   3.498553e+01  -1.098194e+01
  -1.033602e+01   1.955005e+01
  -5.247911e+01   4.927848e+01
  -7.252680e+01   4.326362e+01
  -8.277525e+01  -1.105458e+01
  -4.364099e+01  -1.047699e+02
   6.091301e+01  -7.992948e+01
   5.264835e+01  -9.736951e-01
   3.503106e+01   9.398973e+01
   6.859272e+00   6.632219e+01
  -6.998941e+01  -2.301556e+00
   8.812526e+00  -4.842261e+01
  -9.578579e+00  -2.667627e+01
   2.145355e+01  -1.922187e+01
   5.604833e+01   4.989804e+01
  -1.274131e+01   1.594802e+01
  -1.502775e+01  -2.319419e+01
  -1.894388e+01  -4.120756e+01
  -3.486113e+00   3.488470e+01
  -2.262212e+01   2.028037e+01
   1.183016e+01   2.553178e+01
  -7.429647e+01  -7.480696e+00
  -1.071985e+01  -5.967535e+01
   5.891816e+01  -2.551218e+01
   7.158183e+01   4.494323e+00
   1.463410e+01   3.841304e+01
  -6.809484e+01   1.748445e+01
  -1.027194e+02   3.950373e+00
  -3.184815e+01  -4.281260e+01
   1.767450e+01  -2.075467e+01
   8.967743e+01  -9.936859e+00
   6.874051e+01  -3.846329e+01
  -2.844464e+01   1.174437e+01
  -2.390856e+01  -5.980116e+00
   5.020785e+01  -1.736503e+01
   9.126885e+01  -1.583747e+01
