
 $NMID
 id='ANONYMOUS ', fmtdat='(2E16.6)'
 volume=1.0
 tramp=1.0
 $END
   4.896380e+07   3.115784e+06
   2.742057e+07   3.087995e+07
  -7.813013e+06   3.191396e+07
  -2.376111e+07   1.213273e+07
  -1.380040e+07  -5.539342e+06
   2.749650e+06  -7.717322e+06
   8.245173e+06   6.837249e+05
   2.577981e+06   8.146118e+06
  -5.015029e+06   8.327334e+06
  -8.272702e+06   1.907721e+06
  -6.099821e+06  -5.765294e+06
  -5.140137e+05  -7.918526e+06
   3.831641e+06  -2.239653e+06
   2.527082e+06   5.313611e+06
  -3.218593e+06   6.100701e+06
  -6.809403e+06  -1.168513e+06
  -3.704957e+06  -9.049807e+06
   3.613160e+06  -1.026023e+07
   9.143279e+06  -4.737644e+06
   9.400006e+06   2.517237e+06
   5.133820e+06   7.069424e+06
  -2.339265e+05   7.360236e+06
  -2.716871e+06   4.577197e+06
  -8.884779e+05   2.017855e+06
   1.780070e+06   2.409340e+06
   1.599017e+05   4.470701e+06
  -5.642362e+06   4.094325e+06
  -9.346067e+06  -3.189552e+04
  -6.298568e+06  -4.277752e+06
   4.117654e+05  -4.810787e+06
   4.100724e+06  -2.139985e+06
   2.543312e+06   6.086809e+05
  -9.718494e+05   1.601690e+06
  -2.894973e+06   6.555999e+05
  -2.441690e+06  -1.881156e+06
  -3.468422e+05  -4.221699e+06
   2.068468e+06  -3.377363e+06
   2.778467e+06   7.592002e+05
   9.373317e+05   3.524013e+06
  -1.067139e+06   1.207302e+06
  -2.177213e+05  -2.861235e+06
   2.331672e+06  -2.301695e+06
   2.133442e+06   2.765275e+06
  -2.054257e+06   5.103356e+06
  -5.664536e+06   4.699674e+05
  -3.954275e+06  -6.168382e+06
   1.959034e+06  -7.175392e+06
   6.621498e+06  -1.779460e+06
   6.298435e+06   4.093732e+06
   1.841962e+06   5.470718e+06
  -3.092573e+06   2.619075e+06
  -4.923787e+06  -1.169609e+06
  -2.412754e+06  -3.018605e+06
   2.020566e+06  -1.915492e+06
   3.972942e+06   8.275434e+05
   1.718139e+06   2.353024e+06
  -1.531884e+06   1.158249e+06
  -1.675839e+06  -8.779546e+05
   8.637668e+05  -8.519675e+05
   1.965150e+06   1.201077e+06
  -4.047138e+05   2.502232e+06
  -3.707057e+06   1.379289e+06
  -4.430570e+06  -1.122627e+06
  -1.951520e+06  -3.406768e+06
   1.882869e+06  -4.788766e+06
   5.009969e+06  -4.427916e+06
   5.941721e+06  -1.341582e+06
   4.063669e+06   3.271102e+06
   6.355980e+05   5.847312e+06
  -1.621240e+06   4.416952e+06
  -1.334678e+06   1.334819e+06
  -1.425685e+05   2.318582e+05
  -4.127113e+05   1.309627e+06
  -2.085550e+06   1.693265e+06
  -3.044781e+06  -1.164204e+05
  -2.027859e+06  -2.300685e+06
   1.395309e+05  -2.406274e+06
   1.821050e+06  -2.789747e+05
   1.858188e+06   2.179468e+06
  -4.059322e+04   3.003286e+06
  -2.835194e+06   1.493388e+06
  -4.249983e+06  -1.425307e+06
  -2.773348e+06  -3.704218e+06
   3.044044e+05  -3.809113e+06
   2.156611e+06  -2.259135e+06
   1.932389e+06  -9.344978e+05
   1.602014e+06  -7.103660e+05
   2.792804e+06  -5.798068e+05
   4.232185e+06   6.456404e+05
   3.457505e+06   2.656034e+06
   1.919124e+05   4.091383e+06
  -3.195285e+06   3.934467e+06
  -4.268323e+06   2.097103e+06
  -2.702353e+06  -5.611727e+05
  -1.610054e+05  -2.365769e+06
   1.243064e+06  -1.937373e+06
   5.766204e+05   9.390894e+04
  -1.135908e+06   1.318276e+06
  -1.874400e+06   3.766373e+05
  -8.442253e+05  -1.209659e+06
   5.547627e+05  -1.152682e+06
   5.175358e+05   3.168050e+05
  -8.297787e+05   7.761179e+05
  -1.679837e+06  -9.272040e+05
  -8.507985e+05  -3.078703e+06
   1.071189e+06  -3.351361e+06
   2.769516e+06  -1.448677e+06
   3.376322e+06   1.073903e+06
   2.570868e+06   2.649774e+06
   6.219368e+05   2.686957e+06
  -1.263610e+06   1.524244e+06
  -1.631693e+06   2.313867e+05
  -4.966083e+05  -4.044686e+04
   3.706396e+05   7.454431e+05
  -3.851887e+05   1.293341e+06
  -1.839731e+06   5.585880e+05
  -1.981750e+06  -8.213483e+05
  -4.086044e+05  -1.347897e+06
   1.140102e+06  -5.982333e+05
   9.477955e+05   4.080583e+05
  -7.559106e+05   5.993447e+05
  -2.206308e+06  -1.406213e+05
  -1.905176e+06  -1.258923e+06
   1.015584e+05  -2.035350e+06
   2.271202e+06  -1.773901e+06
   2.787910e+06  -3.419145e+05
   1.213898e+06   1.229186e+06
  -9.118665e+05   1.455285e+06
  -1.512573e+06   1.610477e+05
  -1.630987e+05  -1.070172e+06
   1.510545e+06  -7.397403e+05
   1.725538e+06   7.324919e+05
   4.102699e+05   1.618297e+06
  -1.007240e+06   1.024015e+06
  -1.244387e+06  -2.208051e+05
  -2.932300e+05  -7.305802e+05
   7.614800e+05  -5.588002e+04
   7.339731e+05   1.050292e+06
  -5.831164e+05   1.438834e+06
  -2.031746e+06   5.535786e+05
  -2.057249e+06  -1.049183e+06
  -4.049343e+05  -2.075009e+06
   1.409168e+06  -1.657278e+06
   1.712921e+06  -2.486413e+05
   5.312708e+05   8.425737e+05
  -6.317393e+05   8.238973e+05
  -6.697667e+05   1.012231e+05
   5.419056e+04  -4.038721e+05
   5.012397e+05  -3.016145e+05
   2.242432e+05   2.373441e+04
  -3.571449e+05  -2.187417e+04
  -5.178665e+05  -5.892059e+05
   1.539950e+05  -1.158322e+06
   1.355222e+06  -9.214647e+05
   2.095631e+06   3.814270e+05
   1.495485e+06   1.937002e+06
  -1.795830e+05   2.456059e+06
  -1.590703e+06   1.492009e+06
  -1.727140e+06  -4.564583e+04
  -9.643735e+05  -8.914589e+05
  -4.081906e+05  -7.359575e+05
  -4.709340e+05  -3.046658e+05
  -5.626011e+05  -3.222348e+05
  -6.901629e+04  -7.350394e+05
   8.444198e+05  -9.188855e+05
   1.446718e+06  -3.873466e+05
   1.119418e+06   6.964619e+05
  -1.711197e+05   1.507074e+06
  -1.703864e+06   1.145614e+06
  -2.288086e+06  -4.325439e+05
  -1.196254e+06  -2.073523e+06
   9.415765e+05  -2.367677e+06
   2.494235e+06  -1.086965e+06
   2.372013e+06   5.675178e+05
   1.050905e+06   1.290637e+06
  -1.195090e+05   9.921677e+05
  -3.927141e+05   6.012700e+05
  -1.490864e+05   8.025041e+05
  -1.535604e+05   1.296748e+06
  -6.679854e+05   1.265613e+06
  -1.284235e+06   3.125584e+05
  -1.357020e+06  -1.083955e+06
  -5.842736e+05  -1.911916e+06
   6.146063e+05  -1.464258e+06
   1.296548e+06  -2.867496e+04
   8.368220e+05   1.253026e+06
  -3.405966e+05   1.387317e+06
  -1.097672e+06   4.417116e+05
  -7.804361e+05  -6.291504e+05
   8.717013e+04  -1.020395e+06
   4.673013e+05  -7.675123e+05
   4.134051e+04  -4.293434e+05
  -4.397424e+05  -3.525836e+05
  -6.232813e+04  -3.960058e+05
   1.131462e+06  -2.226857e+05
   2.051267e+06   3.126339e+05
   1.633675e+06   1.004161e+06
  -3.686595e+02   1.399212e+06
  -1.554547e+06   1.134762e+06
  -1.813172e+06   3.220030e+05
  -8.307566e+05  -4.316658e+05
   2.512760e+05  -5.439630e+05
   4.908827e+05  -5.210451e+04
   4.275377e+03   4.064749e+05
  -4.641719e+05   2.691703e+05
  -4.867069e+05  -3.432886e+05
  -2.396366e+05  -7.595138e+05
  -7.420470e+04  -5.066837e+05
  -1.253804e+05   1.233127e+05
  -2.839594e+05   3.456240e+05
  -2.854048e+05  -2.225845e+05
   1.368439e+05  -1.021564e+06
   8.958943e+05  -1.083302e+06
   1.351075e+06  -1.487092e+05
   8.378707e+05   9.400466e+05
  -4.243613e+05   1.127966e+06
  -1.267284e+06   3.135446e+05
  -7.531737e+05  -5.824170e+05
   6.875615e+05  -6.664912e+05
   1.608655e+06   4.562739e+04
   1.065580e+06   8.191127e+05
  -4.251959e+05   1.010840e+06
  -1.484750e+06   5.565921e+05
  -1.261210e+06  -1.308780e+05
  -1.649302e+05  -5.135566e+05
   6.386641e+05  -2.940939e+05
   3.768431e+05   2.900112e+05
  -6.092510e+05   5.354448e+05
  -1.215179e+06  -8.619210e+04
  -6.837408e+05  -1.218563e+06
   6.083472e+05  -1.751651e+06
   1.521062e+06  -9.174449e+05
   1.295980e+06   7.594556e+05
   2.382307e+05   1.826506e+06
  -7.184116e+05   1.342495e+06
  -9.337083e+05  -1.430406e+05
  -4.735749e+05  -1.186460e+06
   1.745342e+05  -9.811982e+05
   5.553441e+05  -9.818079e+04
   4.986375e+05   3.648656e+05
   1.900412e+05   1.263253e+05
   3.662446e+04  -9.674404e+04
   2.557239e+05   3.069582e+05
   5.220434e+05   9.773073e+05
   2.358999e+05   1.077641e+06
  -6.943498e+05   3.957641e+05
  -1.512149e+06  -4.437822e+05
  -1.334386e+06  -8.098336e+05
  -1.989526e+05  -7.012625e+05
   8.768030e+05  -4.563718e+05
   9.972091e+05  -2.147543e+05
   3.465333e+05   5.244626e+04
  -1.511165e+05   2.370796e+05
  -7.119751e+03   1.985739e+05
   2.989794e+05   8.020984e+04
   4.887360e+04   1.435513e+05
  -6.946416e+05   2.680185e+05
  -1.070796e+06   9.902185e+01
  -4.274436e+05  -7.244999e+05
   8.628170e+05  -1.225655e+06
   1.723203e+06  -7.773419e+05
   1.439673e+06   4.469685e+05
   3.042373e+05   1.438819e+06
  -7.595676e+05   1.406322e+06
  -1.073484e+06   5.583621e+05
  -6.857994e+05  -2.292964e+05
  -1.369895e+05  -3.713828e+05
   9.383715e+04  -7.860417e+04
  -6.463611e+04   2.100551e+04
  -3.131097e+05  -3.561581e+05
  -2.720049e+05  -8.114348e+05
   1.767438e+05  -6.975381e+05
   7.129050e+05   1.141498e+05
   7.788257e+05   9.753817e+05
   1.242485e+05   1.070466e+06
  -7.883368e+05   2.696556e+05
  -1.084488e+06  -7.298419e+05
  -3.697876e+05  -1.116817e+06
   7.298525e+05  -7.015296e+05
   1.143571e+06   6.607138e+04
   5.359975e+05   6.185926e+05
  -2.960324e+05   6.876377e+05
  -3.760463e+05   3.652077e+05
   2.676782e+05  -9.621134e+03
   6.670100e+05  -5.634009e+04
   1.495746e+05   3.157660e+05
  -8.264357e+05   7.101595e+05
  -1.254253e+06   5.673848e+05
  -7.597083e+05  -1.768131e+05
   8.850726e+04  -8.874214e+05
   5.465624e+05  -8.663766e+05
   4.359708e+05  -1.510247e+05
   6.779512e+04   5.002131e+05
  -2.460058e+05   4.485922e+05
  -3.782726e+05  -1.483724e+05
  -2.709248e+05  -5.868002e+05
   6.082378e+04  -4.356829e+05
   4.066495e+05   4.083224e+04
   4.783224e+05   2.777348e+05
   2.397552e+05   8.971486e+04
  -2.288116e+04  -1.555570e+05
  -6.003722e+04  -3.280656e+04
   2.125970e+04   3.861421e+05
  -6.819246e+04   5.869049e+05
  -3.532057e+05   2.290369e+05
  -4.869027e+05  -4.051162e+05
  -1.663077e+05  -6.867295e+05
   4.207878e+05  -3.352402e+05
   6.914018e+05   2.851987e+05
   2.752379e+05   5.905247e+05
  -5.112277e+05   3.787932e+05
  -9.071818e+05  -6.972678e+04
  -4.964005e+05  -3.802409e+05
   3.032061e+05  -4.114421e+05
   6.610103e+05  -2.379990e+05
   2.541155e+05  -1.107593e+04
  -3.701942e+05   9.076578e+04
  -4.374841e+05  -5.470603e+04
   1.590965e+05  -3.185220e+05
   7.609980e+05  -3.167673e+05
