
 $NMID
 id='ANONYMOUS ', fmtdat='(2E16.6)'
 volume=1.0
 tramp=1.0
 $END
  -4.780693e+07   9.747575e+05
  -3.013478e+07  -2.796530e+07
   4.552997e+06  -3.237056e+07
   2.297956e+07  -1.427991e+07
   1.495588e+07   4.464553e+06
  -2.013871e+06   8.230004e+06
  -8.773253e+06  -1.712375e+04
  -3.380981e+06  -8.310729e+06
   4.775217e+06  -9.019127e+06
   8.433971e+06  -2.543523e+06
   6.329028e+06   5.359049e+06
   8.079987e+05   7.762784e+06
  -3.539508e+06   2.326488e+06
  -2.452718e+06  -5.240530e+06
   3.163065e+06  -6.352183e+06
   7.011365e+06   7.001446e+05
   4.299313e+06   8.798135e+06
  -2.898426e+06   1.045571e+07
  -8.607248e+06   5.294368e+06
  -9.214825e+06  -1.729187e+06
  -5.471954e+06  -6.250082e+06
  -6.005483e+05  -6.949683e+06
   1.911148e+06  -4.894290e+06
   7.264017e+05  -2.721485e+06
  -1.373690e+06  -2.774529e+06
   1.183564e+05  -4.266918e+06
   5.400535e+06  -3.798500e+06
   8.920176e+06  -5.451958e+04
   6.159702e+06   3.855100e+06
  -2.083205e+05   4.356361e+06
  -3.716691e+06   1.864067e+06
  -2.078301e+06  -5.557595e+05
   1.318072e+06  -1.169526e+06
   2.820486e+06  -1.555745e+05
   2.023018e+06   1.957686e+06
   1.421053e+05   3.878315e+06
  -1.758802e+06   3.216286e+06
  -2.412586e+06  -3.796337e+05
  -1.082713e+06  -3.030181e+06
   5.677392e+05  -1.143238e+06
  -7.664210e+04   2.646315e+06
  -2.375958e+06   2.284954e+06
  -2.366741e+06  -2.670875e+06
   1.591640e+06  -5.426077e+06
   5.531379e+06  -1.237604e+06
   4.463054e+06   5.610880e+06
  -1.259242e+06   7.277831e+06
  -6.339574e+06   2.225262e+06
  -6.456498e+06  -3.856423e+06
  -2.025229e+06  -5.547531e+06
   3.130929e+06  -2.759095e+06
   5.109011e+06   1.139619e+06
   2.597279e+06   3.122318e+06
  -1.941354e+06   2.142978e+06
  -4.067836e+06  -5.851786e+05
  -1.915288e+06  -2.290407e+06
   1.440826e+06  -1.263665e+06
   1.734267e+06   8.943998e+05
  -9.263276e+05   1.113334e+06
  -2.355755e+06  -1.031931e+06
  -7.495176e+04  -2.783961e+06
   3.558254e+06  -1.947978e+06
   4.666886e+06   7.247620e+05
   2.270011e+06   3.298277e+06
  -1.657062e+06   4.723793e+06
  -4.779712e+06   4.329212e+06
  -5.684113e+06   1.423995e+06
  -3.965728e+06  -2.969495e+06
  -7.581436e+05  -5.649148e+06
   1.531591e+06  -4.535977e+06
   1.509049e+06  -1.525734e+06
   4.521057e+05  -1.346224e+05
   5.448275e+05  -9.332308e+05
   1.923583e+06  -1.340308e+06
   2.719836e+06   2.462495e+05
   1.716818e+06   2.223260e+06
  -3.103481e+05   2.203199e+06
  -1.781179e+06   5.616582e+04
  -1.679011e+06  -2.269486e+06
   1.342060e+05  -2.911284e+06
   2.705665e+06  -1.402472e+06
   4.054978e+06   1.305733e+06
   2.781811e+06   3.441579e+06
  -6.520056e+04   3.670026e+06
  -1.916096e+06   2.352500e+06
  -1.865008e+06   1.109113e+06
  -1.662118e+06   8.022643e+05
  -2.859096e+06   5.818823e+05
  -4.254299e+06  -6.788581e+05
  -3.427512e+06  -2.696156e+06
  -1.144259e+05  -4.082340e+06
   3.252404e+06  -3.812105e+06
   4.211413e+06  -1.928369e+06
   2.552933e+06   6.012543e+05
   5.744078e+04   2.231319e+06
  -1.229709e+06   1.795677e+06
  -5.258491e+05  -9.617471e+04
   1.137672e+06  -1.244738e+06
   1.846435e+06  -3.627491e+05
   8.250376e+05   1.156440e+06
  -5.811702e+05   1.093112e+06
  -5.275123e+05  -3.941615e+05
   9.378085e+05  -8.789911e+05
   1.906619e+06   9.203182e+05
   9.886411e+05   3.278711e+06
  -1.206379e+06   3.628285e+06
  -3.061398e+06   1.530383e+06
  -3.530225e+06  -1.256772e+06
  -2.485212e+06  -2.879076e+06
  -4.724149e+05  -2.751932e+06
   1.308323e+06  -1.451477e+06
   1.603215e+06  -1.639830e+05
   4.923674e+05   5.210659e+04
  -3.535023e+05  -7.513541e+05
   3.785563e+05  -1.299345e+06
   1.828564e+06  -5.685640e+05
   1.997769e+06   8.266177e+05
   4.197830e+05   1.368675e+06
  -1.160025e+06   5.837909e+05
  -9.424874e+05  -4.699302e+05
   8.352085e+05  -6.175203e+05
   2.288294e+06   2.438327e+05
   1.880485e+06   1.409787e+06
  -2.183948e+05   2.088233e+06
  -2.362872e+06   1.704925e+06
  -2.800490e+06   2.629446e+05
  -1.203786e+06  -1.240864e+06
   8.942815e+05  -1.439176e+06
   1.489205e+06  -1.744434e+05
   1.611077e+05   1.035578e+06
  -1.506470e+06   7.088278e+05
  -1.723113e+06  -7.695849e+05
  -3.819587e+05  -1.663266e+06
   1.066516e+06  -1.038891e+06
   1.290231e+06   2.547854e+05
   2.986968e+05   7.716951e+05
  -7.628727e+05   6.480263e+04
  -7.094073e+05  -1.048567e+06
   6.077662e+05  -1.401826e+06
   2.015992e+06  -4.942158e+05
   2.009537e+06   1.083805e+06
   3.613054e+05   2.070211e+06
  -1.436505e+06   1.632402e+06
  -1.726430e+06   2.178774e+05
  -5.217176e+05  -8.670752e+05
   6.578972e+05  -8.158826e+05
   6.679628e+05  -5.799893e+04
  -1.096239e+05   4.277077e+05
  -5.605216e+05   2.539879e+05
  -2.181297e+05  -1.095296e+05
   4.186604e+05  -1.759919e+04
   5.591104e+05   6.169489e+05
  -1.678374e+05   1.187739e+06
  -1.380914e+06   8.995494e+05
  -2.083061e+06  -4.299882e+05
  -1.442354e+06  -1.960431e+06
   2.508804e+05  -2.438612e+06
   1.656562e+06  -1.441985e+06
   1.749722e+06   1.220673e+05
   9.107608e+05   9.703933e+05
   3.078002e+05   7.704362e+05
   4.047104e+05   2.790224e+05
   5.642670e+05   2.816917e+05
   8.269610e+04   7.225739e+05
  -8.723962e+05   9.115747e+05
  -1.480834e+06   3.408018e+05
  -1.091898e+06  -7.634951e+05
   2.508976e+05  -1.527035e+06
   1.758860e+06  -1.094383e+06
   2.276816e+06   5.076456e+05
   1.147565e+06   2.119008e+06
  -9.905716e+05   2.370322e+06
  -2.534688e+06   1.050277e+06
  -2.391072e+06  -6.409744e+05
  -1.021496e+06  -1.371580e+06
   1.924637e+05  -1.023164e+06
   4.587633e+05  -5.572385e+05
   1.714652e+05  -7.267855e+05
   1.490824e+05  -1.247550e+06
   6.644605e+05  -1.248734e+06
   1.272086e+06  -2.972358e+05
   1.314953e+06   1.103572e+06
   5.270244e+05   1.910518e+06
  -6.502026e+05   1.432963e+06
  -1.298576e+06  -9.119583e+03
  -8.200609e+05  -1.277316e+06
   3.679387e+05  -1.402231e+06
   1.136797e+06  -4.521712e+05
   8.177102e+05   6.346874e+05
  -7.583417e+04   1.049113e+06
  -4.858999e+05   8.029211e+05
  -7.052879e+04   4.491116e+05
   4.156703e+05   3.541385e+05
   4.603952e+04   3.900413e+05
  -1.135968e+06   2.103992e+05
  -2.039380e+06  -3.388329e+05
  -1.615427e+06  -1.039048e+06
   9.707822e+03  -1.419562e+06
   1.560190e+06  -1.123061e+06
   1.832513e+06  -2.887933e+05
   8.581920e+05   4.576682e+05
  -2.423677e+05   5.488185e+05
  -5.056248e+05   5.230170e+04
  -1.764262e+04  -3.886318e+05
   4.623939e+05  -2.411656e+05
   4.733545e+05   3.488377e+05
   2.054639e+05   7.306655e+05
   5.480071e+04   4.759807e+05
   1.503811e+05  -1.182809e+05
   3.216764e+05  -3.143292e+05
   2.819578e+05   2.354538e+05
  -1.765785e+05   9.976200e+05
  -9.136722e+05   1.052883e+06
  -1.321171e+06   1.454980e+05
  -8.014264e+05  -9.196183e+05
   4.223878e+05  -1.105517e+06
   1.234259e+06  -2.952855e+05
   7.216811e+05   5.949311e+05
  -7.067087e+05   6.528132e+05
  -1.617174e+06  -1.010974e+05
  -1.050135e+06  -8.849273e+05
   4.734423e+05  -1.027617e+06
   1.537363e+06  -5.087140e+05
   1.276909e+06   1.915532e+05
   1.438396e+05   5.324552e+05
  -6.576864e+05   2.798990e+05
  -3.749635e+05  -2.870914e+05
   6.060007e+05  -4.977423e+05
   1.179365e+06   1.191075e+05
   6.287807e+05   1.200620e+06
  -6.441930e+05   1.685165e+06
  -1.514825e+06   8.482896e+05
  -1.251360e+06  -7.902041e+05
  -1.750210e+05  -1.815308e+06
   7.698090e+05  -1.312138e+06
   9.432042e+05   1.737954e+05
   4.393822e+05   1.212787e+06
  -2.155270e+05   9.970218e+05
  -5.649417e+05   8.973781e+04
  -4.811575e+05  -3.974742e+05
  -1.797862e+05  -1.536174e+05
  -4.510825e+04   1.040064e+05
  -2.563411e+05  -2.794322e+05
  -4.938710e+05  -9.729745e+05
  -1.993213e+05  -1.103393e+06
   7.027934e+05  -4.025998e+05
   1.486646e+06   4.905619e+05
   1.302155e+06   8.690695e+05
   1.818523e+05   7.045294e+05
  -8.832164e+05   4.041631e+05
  -1.004991e+06   1.754688e+05
  -3.535195e+05  -4.269000e+04
   1.553274e+05  -2.217224e+05
   2.330914e+04  -2.239915e+05
  -2.816003e+05  -1.177522e+05
  -4.108869e+04  -1.331068e+05
   6.883008e+05  -2.139118e+05
   1.050958e+06   2.906101e+04
   4.020520e+05   6.885564e+05
  -8.757173e+05   1.159238e+06
  -1.705279e+06   7.348941e+05
  -1.391761e+06  -4.518844e+05
  -2.526759e+05  -1.421601e+06
   7.827487e+05  -1.374947e+06
   1.059300e+06  -5.191346e+05
   6.563522e+05   2.526004e+05
   1.236051e+05   3.593563e+05
  -8.139048e+04   4.956494e+04
   8.220576e+04  -2.958427e+04
   3.086642e+05   3.733432e+05
   2.462660e+05   8.211910e+05
  -1.898689e+05   6.779619e+05
  -6.832297e+05  -1.409848e+05
  -7.212748e+05  -9.722154e+05
  -9.139328e+04  -1.031213e+06
   7.626409e+05  -2.246879e+05
   1.025163e+06   7.463930e+05
   3.322678e+05   1.096492e+06
  -7.224265e+05   6.653008e+05
  -1.118615e+06  -8.658892e+04
  -5.274682e+05  -6.099702e+05
   2.887126e+05  -6.697726e+05
   3.742681e+05  -3.703156e+05
  -2.580691e+05  -2.261664e+04
  -6.572849e+05   2.951136e+04
  -1.422576e+05  -3.076391e+05
   8.402616e+05  -6.776408e+05
   1.271066e+06  -5.458209e+05
   7.613255e+05   1.713123e+05
  -1.040396e+05   8.706811e+05
  -5.532031e+05   8.593093e+05
  -4.154423e+05   1.581857e+05
  -4.133555e+04  -4.843752e+05
   2.436435e+05  -4.299298e+05
   3.482460e+05   1.610290e+05
   2.491472e+05   5.838828e+05
  -5.399251e+04   4.205430e+05
  -3.907261e+05  -5.218284e+04
  -4.780286e+05  -2.790639e+05
  -2.473086e+05  -9.391881e+04
   3.353401e+04   1.417291e+05
   9.271817e+04   3.018239e+04
   7.036259e+03  -3.535733e+05
   6.537636e+04  -5.328000e+05
   3.177191e+05  -1.982325e+05
   4.402687e+05   3.882103e+05
   1.367347e+05   6.448810e+05
  -4.154483e+05   3.064760e+05
  -6.579869e+05  -2.887193e+05
  -2.444502e+05  -5.804600e+05
   5.115049e+05  -3.648228e+05
   8.817471e+05   8.352848e+04
   4.772902e+05   3.831436e+05
  -2.948877e+05   3.952314e+05
  -6.384103e+05   2.192238e+05
  -2.457451e+05   2.008308e+04
   3.527593e+05  -5.330479e+04
   4.066937e+05   7.841517e+04
  -1.825110e+05   2.915842e+05
  -7.620127e+05   2.583593e+05
