
 $NMID
 id='ANONYMOUS ', fmtdat='(2E16.6)'
 volume=1.0
 tramp=1.0
 $END
   5.811764e+07  -2.031210e+05
   3.521131e+07   3.599393e+07
  -7.546344e+06   3.951091e+07
  -2.860275e+07   1.521674e+07
  -1.717846e+07  -7.306140e+06
   3.424424e+06  -9.719473e+06
   1.025557e+07   1.293998e+06
   2.880558e+06   1.018477e+07
  -6.501352e+06   9.687418e+06
  -1.003695e+07   2.048100e+06
  -7.204258e+06  -6.406048e+06
  -8.110956e+05  -8.857921e+06
   4.093418e+06  -2.820345e+06
   2.642244e+06   5.609371e+06
  -3.959233e+06   6.747237e+06
  -8.163815e+06  -1.396167e+06
  -4.588670e+06  -1.055664e+07
   3.907820e+06  -1.219483e+07
   1.041244e+07  -6.115604e+06
   1.113631e+07   2.067557e+06
   6.869692e+06   7.657078e+06
   8.088538e+05   8.909165e+06
  -2.945410e+06   6.328720e+06
  -1.971343e+06   2.893187e+06
   1.012775e+06   2.259232e+06
   1.895555e+05   4.239424e+06
  -5.536406e+06   4.439335e+06
  -9.882384e+06   4.661202e+05
  -7.221959e+06  -4.235139e+06
  -2.825078e+05  -5.151860e+06
   3.764403e+06  -2.595050e+06
   2.471535e+06  -3.847706e+04
  -6.588796e+05   8.572417e+05
  -2.298736e+06   4.020892e+05
  -2.167235e+06  -1.474424e+06
  -6.685385e+05  -3.976542e+06
   1.824612e+06  -3.946829e+06
   3.292611e+06   4.177372e+04
   1.791323e+06   3.684788e+06
  -7.242498e+05   2.002852e+06
  -2.941956e+05  -2.473816e+06
   2.563368e+06  -2.343005e+06
   2.537174e+06   3.316604e+06
  -2.505473e+06   6.386330e+06
  -7.202074e+06   1.121876e+06
  -5.334460e+06  -7.125843e+06
   1.939248e+06  -8.835505e+06
   7.658135e+06  -2.514935e+06
   7.162046e+06   4.627377e+06
   1.865786e+06   6.264477e+06
  -3.630843e+06   2.780773e+06
  -5.442764e+06  -1.639725e+06
  -2.487942e+06  -3.655685e+06
   2.518266e+06  -2.285944e+06
   4.692041e+06   9.642262e+05
   2.020377e+06   2.829063e+06
  -1.777380e+06   1.419719e+06
  -1.792968e+06  -1.086240e+06
   1.403230e+06  -9.787952e+05
   2.620875e+06   1.828510e+06
  -5.990082e+05   3.625541e+06
  -4.799096e+06   2.029476e+06
  -5.521264e+06  -1.393885e+06
  -2.414027e+06  -4.124292e+06
   1.868268e+06  -5.412343e+06
   5.166564e+06  -4.938936e+06
   6.364044e+06  -1.769044e+06
   4.694795e+06   3.242435e+06
   9.447270e+05   6.348658e+06
  -1.963020e+06   4.930566e+06
  -1.878136e+06   1.266462e+06
  -2.188391e+05  -2.996317e+05
   1.841786e+04   9.345280e+05
  -1.624041e+06   1.778703e+06
  -2.844445e+06   2.161414e+05
  -2.026899e+06  -1.985438e+06
   1.445416e+04  -2.174465e+06
   1.591303e+06  -1.585868e+05
   1.678963e+06   2.174113e+06
  -3.853714e+04   3.016906e+06
  -2.850437e+06   1.675496e+06
  -4.584126e+06  -1.242317e+06
  -3.311189e+06  -3.871325e+06
   2.734667e+04  -4.360086e+06
   2.342273e+06  -2.820221e+06
   2.319865e+06  -1.191238e+06
   1.923224e+06  -7.012036e+05
   3.068034e+06  -4.604077e+05
   4.502997e+06   8.461656e+05
   3.575938e+06   2.915360e+06
   7.294355e+04   4.278702e+06
  -3.376371e+06   3.985671e+06
  -4.335345e+06   2.127558e+06
  -2.723941e+06  -4.632420e+05
  -2.529061e+05  -2.292272e+06
   1.151739e+06  -1.972252e+06
   5.761825e+05   4.035636e+04
  -1.141646e+06   1.335785e+06
  -1.983127e+06   3.915202e+05
  -9.460298e+05  -1.253888e+06
   5.522914e+05  -1.139581e+06
   4.355800e+05   4.275178e+05
  -1.150331e+06   7.212321e+05
  -1.960156e+06  -1.385202e+06
  -6.325491e+05  -3.686993e+06
   1.754694e+06  -3.564977e+06
   3.344732e+06  -1.099770e+06
   3.430478e+06   1.597694e+06
   2.287232e+06   2.935171e+06
   4.016309e+05   2.717246e+06
  -1.310738e+06   1.489929e+06
  -1.633462e+06   2.081590e+05
  -5.109545e+05  -5.609760e+04
   3.596495e+05   7.891860e+05
  -4.507062e+05   1.397499e+06
  -2.000739e+06   5.812430e+05
  -2.114493e+06  -9.607288e+05
  -3.799718e+05  -1.492665e+06
   1.235868e+06  -5.739236e+05
   9.112562e+05   5.006603e+05
  -9.136412e+05   5.207921e+05
  -2.271122e+06  -4.009534e+05
  -1.770481e+06  -1.467063e+06
   3.207526e+05  -2.044184e+06
   2.441572e+06  -1.665187e+06
   2.891681e+06  -2.281222e+05
   1.250173e+06   1.342227e+06
  -9.778173e+05   1.558688e+06
  -1.633919e+06   1.823135e+05
  -2.009913e+05  -1.127898e+06
   1.592276e+06  -7.443355e+05
   1.779270e+06   8.514525e+05
   3.121270e+05   1.737958e+06
  -1.173787e+06   9.947382e+05
  -1.312696e+06  -3.644273e+05
  -2.355412e+05  -8.323582e+05
   8.394716e+05  -4.645160e+04
   7.535187e+05   1.110092e+06
  -6.202240e+05   1.473442e+06
  -2.096620e+06   5.335313e+05
  -2.102693e+06  -1.125751e+06
  -3.647284e+05  -2.170184e+06
   1.534268e+06  -1.689493e+06
   1.808187e+06  -1.841029e+05
   5.042446e+05   9.213971e+05
  -7.069091e+05   8.239197e+05
  -6.544374e+05   6.270672e+04
   1.460241e+05  -3.668316e+05
   5.170298e+05  -1.879784e+05
   1.048041e+05   8.377251e+04
  -4.892093e+05  -9.630960e+04
  -5.322489e+05  -7.278409e+05
   2.451041e+05  -1.242928e+06
   1.462276e+06  -9.072365e+05
   2.162346e+06   4.712599e+05
   1.492081e+06   2.050995e+06
  -2.715439e+05   2.513923e+06
  -1.713291e+06   1.429982e+06
  -1.752761e+06  -1.776182e+05
  -8.545469e+05  -9.518167e+05
  -2.962441e+05  -6.667847e+05
  -4.928155e+05  -2.149049e+05
  -6.641640e+05  -3.315258e+05
  -8.971778e+04  -8.042799e+05
   9.352124e+05  -9.223754e+05
   1.516496e+06  -3.011986e+05
   1.066403e+06   7.768250e+05
  -3.036537e+05   1.507911e+06
  -1.817453e+06   1.074467e+06
  -2.327703e+06  -5.512011e+05
  -1.135655e+06  -2.214910e+06
   1.105509e+06  -2.453083e+06
   2.680221e+06  -1.024548e+06
   2.438161e+06   7.466524e+05
   9.533768e+05   1.424653e+06
  -2.522179e+05   9.729401e+05
  -4.144193e+05   5.028580e+05
  -7.534086e+04   7.701729e+05
  -1.133342e+05   1.362945e+06
  -7.176361e+05   1.340080e+06
  -1.355973e+06   3.158845e+05
  -1.375069e+06  -1.144643e+06
  -5.470541e+05  -1.979602e+06
   6.708030e+05  -1.483450e+06
   1.338451e+06   2.890846e+04
   8.227862e+05   1.358744e+06
  -4.405715e+05   1.453551e+06
  -1.236408e+06   3.973412e+05
  -8.450853e+05  -7.569549e+05
   1.529327e+05  -1.135420e+06
   5.894539e+05  -8.128358e+05
   1.067947e+05  -4.293971e+05
  -4.458091e+05  -3.512701e+05
  -5.680020e+04  -3.970804e+05
   1.206164e+06  -1.998995e+05
   2.151482e+06   3.802951e+05
   1.668690e+06   1.113103e+06
  -6.993793e+04   1.507193e+06
  -1.684048e+06   1.170560e+06
  -1.920479e+06   2.517226e+05
  -8.638578e+05  -5.456683e+05
   2.831207e+05  -5.978101e+05
   5.405623e+05  -2.263309e+04
   3.468096e+04   4.448313e+05
  -4.585866e+05   2.616022e+05
  -4.973583e+05  -3.622509e+05
  -2.622969e+05  -7.464406e+05
  -1.032069e+05  -4.932533e+05
  -1.476059e+05   8.713278e+04
  -2.916735e+05   2.840649e+05
  -2.811001e+05  -2.490393e+05
   1.591185e+05  -1.016679e+06
   9.524620e+05  -1.097808e+06
   1.431294e+06  -1.772403e+05
   8.879418e+05   9.569333e+05
  -4.436704e+05   1.192066e+06
  -1.317272e+06   3.496433e+05
  -7.550158e+05  -6.020143e+05
   7.464836e+05  -6.620432e+05
   1.648461e+06   1.378397e+05
   1.013783e+06   9.282493e+05
  -5.410762e+05   1.014764e+06
  -1.572923e+06   4.487183e+05
  -1.270411e+06  -2.375687e+05
  -1.209322e+05  -5.369642e+05
   6.857834e+05  -2.620292e+05
   4.028611e+05   3.156573e+05
  -6.054678e+05   5.408984e+05
  -1.227890e+06  -8.653353e+04
  -6.976766e+05  -1.226027e+06
   6.134078e+05  -1.766140e+06
   1.542214e+06  -9.134143e+05
   1.296508e+06   7.969819e+05
   1.882821e+05   1.862161e+06
  -7.918279e+05   1.325573e+06
  -9.604138e+05  -2.117279e+05
  -4.174724e+05  -1.252826e+06
   2.646236e+05  -9.997635e+05
   5.941580e+05  -7.260220e+04
   4.645107e+05   4.001754e+05
   1.509426e+05   1.444712e+05
   5.945423e+04  -9.508923e+04
   3.130983e+05   3.165059e+05
   5.269005e+05   1.015419e+06
   1.623902e+05   1.126301e+06
  -7.732564e+05   4.028470e+05
  -1.524885e+06  -5.043896e+05
  -1.300999e+06  -8.931168e+05
  -1.815624e+05  -7.343375e+05
   8.751449e+05  -4.235099e+05
   1.021445e+06  -1.683742e+05
   3.927097e+05   6.750292e+04
  -1.465175e+05   2.335640e+05
  -6.430613e+04   2.065710e+05
   2.478752e+05   9.313453e+04
   6.068178e+04   1.357526e+05
  -6.628439e+05   2.437197e+05
  -1.091894e+06  -1.291407e+04
  -4.830576e+05  -7.219106e+05
   8.590268e+05  -1.230959e+06
   1.790764e+06  -7.970145e+05
   1.496765e+06   4.390675e+05
   2.859766e+05   1.460496e+06
  -8.148540e+05   1.437878e+06
  -1.094727e+06   5.719806e+05
  -6.747915e+05  -2.319971e+05
  -1.489316e+05  -3.727869e+05
   4.727112e+04  -8.088634e+04
  -9.681793e+04  -2.190925e+02
  -2.990473e+05  -3.959756e+05
  -2.408238e+05  -8.461092e+05
   1.841387e+05  -7.119026e+05
   7.005170e+05   1.111472e+05
   7.796762e+05   9.730437e+05
   1.486794e+05   1.073472e+06
  -7.636760e+05   2.806441e+05
  -1.081213e+06  -7.267680e+05
  -3.787109e+05  -1.135221e+06
   7.373407e+05  -7.245703e+05
   1.178589e+06   7.089576e+04
   5.715631e+05   6.574538e+05
  -2.993729e+05   7.326797e+05
  -4.197371e+05   3.920752e+05
   2.295894e+05   4.047701e+03
   6.693195e+05  -4.210717e+04
   1.618922e+05   3.253080e+05
  -8.634284e+05   7.006452e+05
  -1.340704e+06   5.412826e+05
  -8.240805e+05  -2.049320e+05
   9.916731e+04  -9.161990e+05
   6.005025e+05  -9.052906e+05
   4.685418e+05  -1.915134e+05
   6.783318e+04   4.858962e+05
  -2.427647e+05   4.675844e+05
  -3.614263e+05  -1.293323e+05
  -2.676188e+05  -6.006234e+05
   4.546088e+04  -4.673169e+05
   4.069254e+05   3.578688e+04
   5.067085e+05   3.097388e+05
   2.551417e+05   1.168099e+05
  -5.134892e+04  -1.746404e+05
  -9.261582e+04  -8.668501e+04
   4.532293e+04   3.467187e+05
   2.396611e+03   5.943149e+05
  -3.094115e+05   2.724700e+05
  -5.075365e+05  -3.595142e+05
  -2.090079e+05  -6.643682e+05
   4.102786e+05  -3.390042e+05
   7.077478e+05   2.710443e+05
   2.768817e+05   5.850573e+05
  -5.363776e+05   3.861760e+05
  -9.342543e+05  -6.410615e+04
  -5.074418e+05  -3.916833e+05
   3.031826e+05  -4.375990e+05
   6.698484e+05  -2.640154e+05
   2.817333e+05  -2.660393e+04
  -3.278687e+05   8.938978e+04
  -4.089310e+05  -3.706502e+04
   1.528403e+05  -2.820480e+05
   7.338185e+05  -2.793964e+05
