
 $NMID
 id='ANONYMOUS ', fmtdat='(2E16.6)'
 volume=1.0
 tramp=1.0
 $END
   8.244146e+06   8.144330e+05
   4.793634e+06   4.970602e+06
  -1.109230e+06   5.357628e+06
  -4.145235e+06   2.475722e+06
  -2.728400e+06  -6.522840e+05
   3.216459e+05  -1.580947e+06
   1.719672e+06  -2.638702e+05
   8.381805e+05   1.522218e+06
  -8.016650e+05   1.941151e+06
  -1.630466e+06   5.842483e+05
  -1.157071e+06  -1.226277e+06
   5.389877e+04  -1.673835e+06
   8.794726e+05  -3.348076e+05
   5.296087e+05   1.281964e+06
  -6.151418e+05   1.381174e+06
  -1.282528e+06  -1.250053e+05
  -6.676221e+05  -1.652250e+06
   7.099480e+05  -1.796637e+06
   1.653779e+06  -6.536861e+05
   1.515904e+06   6.630741e+05
   6.239624e+05   1.264097e+06
  -2.023761e+05   1.075333e+06
  -3.482282e+05   6.176439e+05
   1.135361e+05   4.772932e+05
   4.171276e+05   7.847318e+05
  -1.621909e+05   1.046269e+06
  -1.348168e+06   6.649224e+05
  -1.936070e+06  -2.843848e+05
  -1.150546e+06  -1.028381e+06
   3.160028e+05  -9.519788e+05
   1.035109e+06  -2.516150e+05
   4.767881e+05   3.745394e+05
  -5.203450e+05   4.371050e+05
  -8.726233e+05  -5.753715e+04
  -3.923008e+05  -7.174981e+05
   2.940257e+05  -9.686598e+05
   5.691388e+05  -4.735340e+05
   3.356779e+05   3.667809e+05
  -5.636496e+04   6.335516e+05
  -1.612270e+05  -1.126681e+04
   1.618083e+05  -7.215129e+05
   5.485402e+05  -4.678551e+05
   4.504947e+05   5.229452e+05
  -2.080094e+05   9.592184e+05
  -8.123413e+05   1.771867e+05
  -6.650249e+05  -9.689361e+05
   2.348089e+05  -1.192680e+06
   1.136489e+06  -2.930559e+05
   1.241038e+06   7.898497e+05
   4.216052e+05   1.127622e+06
  -6.632598e+05   6.097327e+05
  -1.114463e+06  -2.134764e+05
  -5.801029e+05  -6.845002e+05
   3.814748e+05  -4.879151e+05
   8.203077e+05   1.174139e+05
   3.884438e+05   4.929080e+05
  -2.950690e+05   2.709466e+05
  -4.078284e+05  -2.101844e+05
   8.882015e+04  -3.271280e+05
   4.675831e+05   4.054858e+04
   1.827556e+05   4.094339e+05
  -4.848475e+05   3.440284e+05
  -8.025404e+05  -9.575898e+04
  -3.903324e+05  -5.781919e+05
   4.636850e+05  -8.378452e+05
   1.135001e+06  -6.928417e+05
   1.180109e+06  -7.198097e+04
   6.374816e+05   7.454826e+05
  -3.755639e+04   1.177320e+06
  -3.717230e+05   9.247118e+05
  -2.992708e+05   3.711368e+05
  -1.684025e+05   1.174184e+05
  -2.910077e+05   2.183386e+05
  -5.692199e+05   1.923391e+05
  -6.417076e+05  -2.248540e+05
  -3.232472e+05  -6.644817e+05
   1.950883e+05  -5.935062e+05
   5.299886e+05   9.843979e+03
   4.123434e+05   6.180993e+05
  -1.108923e+05   7.035372e+05
  -6.647847e+05   2.129887e+05
  -7.990070e+05  -4.436098e+05
  -4.017269e+05  -7.839511e+05
   1.523425e+05  -6.593107e+05
   3.995070e+05  -3.324221e+05
   3.194762e+05  -1.530478e+05
   3.100096e+05  -1.705960e+05
   6.040437e+05  -1.267623e+05
   9.002295e+05   1.814513e+05
   7.092433e+05   6.348018e+05
  -2.524623e+04   9.144254e+05
  -7.960858e+05   8.003520e+05
  -1.019221e+06   3.265279e+05
  -5.819419e+05  -2.430304e+05
   7.756050e+04  -5.463616e+05
   3.851363e+05  -3.805804e+05
   1.475864e+05   5.438214e+04
  -2.946341e+05   2.810608e+05
  -4.394892e+05   6.265259e+04
  -1.593723e+05  -2.861968e+05
   1.851202e+05  -2.844504e+05
   1.876787e+05   6.962307e+04
  -1.367255e+05   2.650792e+05
  -4.013185e+05  -6.172834e+04
  -2.891995e+05  -6.374330e+05
   1.582484e+05  -8.547682e+05
   6.376320e+05  -4.506994e+05
   8.352359e+05   2.517561e+05
   6.106108e+05   7.151104e+05
   9.589144e+04   6.778049e+05
  -3.438309e+05   3.074888e+05
  -3.920511e+05  -1.232384e+04
  -1.142529e+05  -2.887791e+04
   8.370258e+04   1.730545e+05
  -7.670391e+04   2.846978e+05
  -3.999364e+05   1.177135e+05
  -4.551452e+05  -1.841583e+05
  -1.184351e+05  -3.167111e+05
   2.600925e+05  -1.644892e+05
   2.583297e+05   8.677224e+04
  -1.403231e+05   1.677222e+05
  -5.235360e+05  -1.473699e+04
  -4.697909e+05  -3.219963e+05
   3.237484e+04  -5.066893e+05
   5.618228e+05  -3.922177e+05
   6.571310e+05  -2.791935e+04
   2.611457e+05   3.007872e+05
  -2.216781e+05   3.071979e+05
  -3.338449e+05   1.321328e+04
  -2.073291e+04  -2.377717e+05
   3.498448e+05  -1.507263e+05
   3.976867e+05   1.822168e+05
   1.002649e+05   3.938011e+05
  -2.391771e+05   2.686077e+05
  -3.188033e+05  -3.147066e+04
  -1.093184e+05  -1.784733e+05
   1.426112e+05  -3.874994e+04
   1.482180e+05   2.130061e+05
  -1.398278e+05   2.921894e+05
  -4.472330e+05   7.972640e+04
  -4.313218e+05  -2.714419e+05
  -5.425548e+04  -4.717857e+05
   3.458238e+05  -3.546073e+05
   4.088147e+05  -3.082060e+04
   1.344903e+05   2.170963e+05
  -1.536582e+05   2.075170e+05
  -1.884429e+05   1.913993e+04
  -1.441724e+04  -1.234456e+05
   1.305477e+05  -9.716968e+04
   9.711926e+04   1.000080e+04
  -4.613856e+04   2.449709e+04
  -1.076889e+05  -1.056234e+05
   3.592471e+04  -2.390035e+05
   3.045509e+05  -1.769372e+05
   4.517794e+05   1.209154e+05
   2.886939e+05   4.569692e+05
  -9.964885e+04   5.559612e+05
  -4.085880e+05   3.269160e+05
  -4.221734e+05  -4.248929e+04
  -2.246892e+05  -2.694789e+05
  -6.327583e+04  -2.460731e+05
  -4.997771e+04  -1.096405e+05
  -7.345664e+04  -5.774010e+04
   1.367529e+04  -1.278602e+05
   2.000216e+05  -1.758211e+05
   3.249882e+05  -5.674504e+04
   2.363150e+05   1.911487e+05
  -6.739343e+04   3.509859e+05
  -4.025888e+05   2.274639e+05
  -5.062542e+05  -1.418580e+05
  -2.469629e+05  -4.818773e+05
   2.230622e+05  -5.155400e+05
   5.644983e+05  -2.219095e+05
   5.494947e+05   1.490937e+05
   2.591416e+05   3.261707e+05
  -3.186763e+04   2.675495e+05
  -1.380629e+05   1.549131e+05
  -1.020155e+05   1.600914e+05
  -8.362132e+04   2.527038e+05
  -1.663752e+05   2.499144e+05
  -2.783617e+05   3.849719e+04
  -2.735664e+05  -2.749380e+05
  -8.667852e+04  -4.446598e+05
   1.741189e+05  -3.183393e+05
   2.991977e+05   1.057452e+04
   1.767245e+05   2.832890e+05
  -7.888323e+04   3.083151e+05
  -2.316855e+05   1.157228e+05
  -1.668084e+05  -1.066464e+05
   1.312429e+03  -2.053444e+05
   7.628699e+04  -1.779571e+05
   5.077480e+03  -1.207444e+05
  -7.261941e+04  -9.946096e+04
   8.066631e+03  -8.931841e+04
   2.402631e+05  -2.644508e+04
   4.226473e+05   1.051626e+05
   3.437122e+05   2.432769e+05
   7.053573e+03   2.955893e+05
  -3.349835e+05   2.178970e+05
  -4.098280e+05   5.667828e+04
  -1.988576e+05  -7.878817e+04
   5.061832e+04  -9.962964e+04
   1.026734e+05  -1.579184e+04
  -2.414271e+04   6.385833e+04
  -1.286845e+05   3.241547e+04
  -9.310003e+04  -9.506269e+04
   2.831712e+03  -1.801306e+05
   2.578125e+04  -1.132281e+05
  -3.831057e+04   3.884947e+04
  -9.225596e+04   8.814441e+04
  -5.297009e+04  -4.747676e+04
   7.545009e+04  -2.192310e+05
   2.149194e+05  -2.070590e+05
   2.554717e+05   1.162786e+04
   1.247974e+05   2.204765e+05
  -1.159084e+05   2.099207e+05
  -2.631832e+05   9.830271e+03
  -1.446386e+05  -1.607709e+05
   1.674394e+05  -1.378104e+05
   3.769751e+05   4.174071e+04
   2.564275e+05   2.131650e+05
  -1.004561e+05   2.444997e+05
  -3.646012e+05   1.254436e+05
  -3.107419e+05  -4.431129e+04
  -3.875014e+04  -1.301381e+05
   1.500419e+05  -6.885879e+04
   7.231989e+04   5.958811e+04
  -1.580138e+05   8.739416e+04
  -2.619392e+05  -7.047084e+04
  -9.142298e+04  -2.970657e+05
   2.163120e+05  -3.590870e+05
   3.819078e+05  -1.385528e+05
   2.669265e+05   2.223291e+05
  -6.022189e+03   4.271818e+05
  -2.052971e+05   2.994234e+05
  -2.162277e+05  -3.955016e+04
  -9.645200e+04  -2.811136e+05
   3.895445e+04  -2.370907e+05
   1.190830e+05  -2.210112e+04
   1.217722e+05   1.020309e+05
   6.207436e+04   4.343125e+04
   5.016735e+03  -3.104354e+04
   2.182080e+04   5.357151e+04
   8.285598e+04   2.274085e+05
   5.130827e+04   2.638866e+05
  -1.392109e+05   8.336193e+04
  -3.363662e+05  -1.455266e+05
  -3.051808e+05  -2.271856e+05
  -2.799879e+04  -1.586672e+05
   2.342008e+05  -6.959981e+04
   2.417717e+05  -2.668312e+04
   6.008366e+04   5.014007e+03
  -5.081067e+04   4.686558e+04
   1.373734e+04   6.399159e+04
   8.846356e+04   4.508998e+04
  -3.532820e+03   2.969729e+04
  -1.902542e+05   2.226841e+04
  -2.349767e+05  -3.810475e+04
  -3.441074e+04  -1.621460e+05
   2.550088e+05  -2.281409e+05
   3.888685e+05  -1.053905e+05
   2.712364e+05   1.548472e+05
   1.053201e+04   3.351248e+05
  -2.037850e+05   2.825235e+05
  -2.508212e+05   7.262892e+04
  -1.460637e+05  -8.660759e+04
  -8.540528e+03  -8.200630e+04
   4.282900e+04   6.828349e+03
  -9.565497e+03   2.309422e+04
  -7.398551e+04  -8.238569e+04
  -4.978906e+04  -1.914354e+05
   6.310104e+04  -1.456380e+05
   1.585125e+05   6.480866e+04
   1.264075e+05   2.579310e+05
  -3.483989e+04   2.367377e+05
  -1.979071e+05   6.551534e+03
  -2.068753e+05  -2.221939e+05
  -2.887355e+04  -2.577269e+05
   1.867284e+05  -1.120585e+05
   2.380852e+05   5.660844e+04
   8.824665e+04   1.323389e+05
  -7.959493e+04   1.190567e+05
  -7.023763e+04   6.972740e+04
   8.316124e+04   2.318192e+04
   1.557609e+05   1.514336e+04
   1.483312e+04   6.905155e+04
  -2.092764e+05   1.363346e+05
  -2.828822e+05   1.099229e+05
  -1.445993e+05  -4.058923e+04
   4.911014e+04  -1.868990e+05
   1.277125e+05  -1.707300e+05
   7.437848e+04  -5.986577e+03
  -1.699383e+04   1.219308e+05
  -7.204132e+04   7.731803e+04
  -7.645933e+04  -6.848102e+04
  -3.737806e+04  -1.404839e+05
   3.008481e+04  -7.419611e+04
   8.735065e+04   3.195065e+04
   9.394265e+04   6.127189e+04
   5.325380e+04   1.474189e+04
   7.239357e+03  -1.576065e+04
  -1.923716e+04   2.657884e+04
  -4.136854e+04   9.560432e+04
  -7.384723e+04   9.668027e+04
  -9.338935e+04  -3.787376e+03
  -6.094183e+04  -1.281617e+05
   2.628680e+04  -1.551605e+05
   1.145740e+05  -4.714512e+04
   1.266396e+05   9.906062e+04
   2.813098e+04   1.474470e+05
  -1.193606e+05   6.507691e+04
  -1.850945e+05  -5.336084e+04
  -9.178786e+04  -1.009941e+05
   7.851745e+04  -6.579486e+04
   1.469633e+05  -1.195589e+04
   3.986734e+04   7.237350e+03
  -1.075938e+05  -1.367978e+04
  -1.021760e+05  -5.389952e+04
   6.907559e+04  -7.797384e+04
   2.145965e+05  -3.835311e+04
