
 $NMID
 id='ANONYMOUS ', fmtdat='(2E16.6)'
 volume=1.0
 tramp=1.0
 $END
   5.658300e+07  -1.043286e+06
   3.463142e+07   3.471612e+07
  -6.986862e+06   3.857402e+07
  -2.762799e+07   1.496608e+07
  -1.664088e+07  -7.071182e+06
   3.304801e+06  -9.448825e+06
   9.902452e+06   1.261497e+06
   2.791851e+06   9.838325e+06
  -6.224223e+06   9.329333e+06
  -9.671199e+06   2.017896e+06
  -7.059939e+06  -6.082075e+06
  -9.397505e+05  -8.522452e+06
   3.907068e+06  -2.826560e+06
   2.648133e+06   5.289716e+06
  -3.721904e+06   6.488613e+06
  -7.902828e+06  -1.289857e+06
  -4.559818e+06  -1.016240e+07
   3.638665e+06  -1.185677e+07
   1.002223e+07  -6.090528e+06
   1.087842e+07   1.816551e+06
   6.855857e+06   7.360811e+06
   9.354952e+05   8.740217e+06
  -2.870205e+06   6.251741e+06
  -2.021531e+06   2.749749e+06
   9.664230e+05   1.990385e+06
   3.431133e+05   3.995186e+06
  -5.154421e+06   4.431033e+06
  -9.488519e+06   7.208688e+05
  -7.085866e+06  -3.922636e+06
  -4.521867e+05  -5.012228e+06
   3.519200e+06  -2.671877e+06
   2.425365e+06  -1.915211e+05
  -4.622021e+05   7.956780e+05
  -2.068955e+06   5.058493e+05
  -2.127149e+06  -1.251424e+06
  -8.231662e+05  -3.770541e+06
   1.664237e+06  -3.895189e+06
   3.280208e+06  -6.658633e+04
   1.881353e+06   3.577274e+06
  -6.993629e+05   2.055775e+06
  -4.157282e+05  -2.306574e+06
   2.392012e+06  -2.272703e+06
   2.474952e+06   3.185513e+06
  -2.410264e+06   6.211317e+06
  -7.055731e+06   1.140128e+06
  -5.293557e+06  -6.893811e+06
   1.800181e+06  -8.623695e+06
   7.403488e+06  -2.553780e+06
   6.954394e+06   4.350917e+06
   1.852199e+06   5.976230e+06
  -3.441343e+06   2.691069e+06
  -5.204524e+06  -1.513876e+06
  -2.391036e+06  -3.472647e+06
   2.425137e+06  -2.216409e+06
   4.539744e+06   8.870944e+05
   1.969437e+06   2.716394e+06
  -1.706005e+06   1.395168e+06
  -1.717845e+06  -1.015104e+06
   1.377635e+06  -9.102560e+05
   2.526155e+06   1.814175e+06
  -6.349804e+05   3.552684e+06
  -4.699971e+06   1.989962e+06
  -5.361103e+06  -1.335836e+06
  -2.365807e+06  -3.981684e+06
   1.693695e+06  -5.260891e+06
   4.840176e+06  -4.875468e+06
   6.089203e+06  -1.858504e+06
   4.624429e+06   3.018524e+06
   1.052312e+06   6.091758e+06
  -1.821523e+06   4.745609e+06
  -1.793217e+06   1.175772e+06
  -1.516283e+05  -3.459235e+05
   1.443118e+05   9.048158e+05
  -1.448645e+06   1.809547e+06
  -2.716189e+06   3.548167e+05
  -2.026455e+06  -1.787968e+06
  -9.771024e+04  -2.055541e+06
   1.463292e+06  -2.173362e+05
   1.639901e+06   1.986450e+06
   5.300534e+04   2.865130e+06
  -2.680451e+06   1.693400e+06
  -4.448155e+06  -1.066449e+06
  -3.293608e+06  -3.665308e+06
  -5.962558e+04  -4.235456e+06
   2.234752e+06  -2.781556e+06
   2.242519e+06  -1.174468e+06
   1.837017e+06  -6.778900e+05
   2.910103e+06  -4.784253e+05
   4.299229e+06   7.259880e+05
   3.457579e+06   2.702357e+06
   1.596485e+05   4.060908e+06
  -3.109525e+06   3.863729e+06
  -4.060215e+06   2.143455e+06
  -2.614150e+06  -3.494975e+05
  -3.293693e+05  -2.171790e+06
   1.027979e+06  -1.922391e+06
   5.552512e+05   1.492120e+04
  -1.045709e+06   1.302895e+06
  -1.883427e+06   4.180355e+05
  -9.403966e+05  -1.179837e+06
   4.873680e+05  -1.096828e+06
   4.019539e+05   3.929990e+05
  -1.096642e+06   6.686883e+05
  -1.868464e+06  -1.343351e+06
  -6.036805e+05  -3.514582e+06
   1.660674e+06  -3.363824e+06
   3.154125e+06  -1.027010e+06
   3.236281e+06   1.476479e+06
   2.188386e+06   2.707320e+06
   4.350250e+05   2.538582e+06
  -1.198903e+06   1.442874e+06
  -1.540418e+06   2.440783e+05
  -4.858622e+05  -4.146963e+04
   3.578165e+05   7.410353e+05
  -4.068304e+05   1.341657e+06
  -1.901119e+06   5.921116e+05
  -2.030215e+06  -8.809636e+05
  -3.825487e+05  -1.416324e+06
   1.162065e+06  -5.659841e+05
   8.628362e+05   4.523428e+05
  -8.572502e+05   4.912573e+05
  -2.137704e+06  -3.490129e+05
  -1.680556e+06  -1.342261e+06
   2.675410e+05  -1.919643e+06
   2.269472e+06  -1.618187e+06
   2.732018e+06  -2.771104e+05
   1.214957e+06   1.252889e+06
  -9.019926e+05   1.510419e+06
  -1.560728e+06   2.079071e+05
  -2.209388e+05  -1.075456e+06
   1.497582e+06  -7.434871e+05
   1.703124e+06   7.743196e+05
   3.214841e+05   1.638787e+06
  -1.097498e+06   9.530153e+05
  -1.243925e+06  -3.310285e+05
  -2.283385e+05  -7.855524e+05
   8.020713e+05  -5.761871e+04
   7.421897e+05   1.039521e+06
  -5.527139e+05   1.415150e+06
  -1.977193e+06   5.583146e+05
  -2.023170e+06  -1.019080e+06
  -3.940667e+05  -2.052616e+06
   1.422554e+06  -1.635409e+06
   1.711326e+06  -2.091547e+05
   4.924566e+05   8.636959e+05
  -6.538542e+05   7.926522e+05
  -6.119731e+05   7.727388e+04
   1.322510e+05  -3.356368e+05
   4.707639e+05  -1.794178e+05
   8.065246e+04   6.626817e+04
  -4.710560e+05  -1.029985e+05
  -5.092752e+05  -6.914998e+05
   2.166241e+05  -1.183144e+06
   1.369533e+06  -8.884834e+05
   2.060469e+06   4.007712e+05
   1.461350e+06   1.912635e+06
  -1.996617e+05   2.386766e+06
  -1.586944e+06   1.384742e+06
  -1.652784e+06  -1.334094e+05
  -8.192594e+05  -8.685692e+05
  -2.986573e+05  -6.007014e+05
  -4.888225e+05  -1.823379e+05
  -6.498060e+05  -3.095570e+05
  -1.020157e+05  -7.707114e+05
   8.697721e+05  -8.911108e+05
   1.425290e+06  -3.124946e+05
   1.018279e+06   7.062120e+05
  -2.570675e+05   1.421501e+06
  -1.694283e+06   1.050781e+06
  -2.212839e+06  -4.710005e+05
  -1.118166e+06  -2.073942e+06
   1.004296e+06  -2.347213e+06
   2.523325e+06  -1.020457e+06
   2.318060e+06   6.632635e+05
   9.184263e+05   1.323808e+06
  -2.215959e+05   9.102178e+05
  -3.667126e+05   4.759348e+05
  -3.576508e+04   7.396717e+05
  -7.117174e+04   1.309226e+06
  -6.560497e+05   1.294235e+06
  -1.285130e+06   3.310701e+05
  -1.332684e+06  -1.053487e+06
  -5.653962e+05  -1.863744e+06
   6.003340e+05  -1.421944e+06
   1.267246e+06  -9.756740e+02
   8.054726e+05   1.273710e+06
  -3.940665e+05   1.385646e+06
  -1.169866e+06   3.902969e+05
  -8.138985e+05  -7.153983e+05
   1.338483e+05  -1.085149e+06
   5.541634e+05  -7.769350e+05
   9.542575e+04  -4.015524e+05
  -4.343953e+05  -3.205200e+05
  -6.511468e+04  -3.743709e+05
   1.143220e+06  -2.132439e+05
   2.054118e+06   3.170547e+05
   1.605434e+06   1.022276e+06
  -4.331576e+04   1.434047e+06
  -1.581310e+06   1.147321e+06
  -1.816279e+06   2.743622e+05
  -8.238325e+05  -5.084996e+05
   2.614614e+05  -5.771169e+05
   5.134548e+05  -2.772209e+04
   4.428953e+04   4.293557e+05
  -4.255545e+05   2.620048e+05
  -4.813369e+05  -3.322024e+05
  -2.756434e+05  -7.020059e+05
  -1.178035e+05  -4.674284e+05
  -1.348082e+05   8.012979e+04
  -2.604465e+05   2.705719e+05
  -2.700470e+05  -2.300678e+05
   1.220316e+05  -9.657461e+05
   8.786198e+05  -1.063985e+06
   1.365171e+06  -2.033045e+05
   8.743664e+05   8.898390e+05
  -3.959125e+05   1.148592e+06
  -1.249599e+06   3.684515e+05
  -7.319772e+05  -5.507409e+05
   6.939851e+05  -6.420056e+05
   1.559658e+06   9.648074e+04
   9.691299e+05   8.546780e+05
  -4.957701e+05   9.634566e+05
  -1.473329e+06   4.493391e+05
  -1.198671e+06  -1.998322e+05
  -1.229524e+05  -5.022182e+05
   6.433541e+05  -2.593151e+05
   3.909902e+05   2.936768e+05
  -5.584432e+05   5.325568e+05
  -1.168880e+06  -4.682375e+04
  -6.993989e+05  -1.144855e+06
   5.312000e+05  -1.695000e+06
   1.437322e+06  -9.097963e+05
   1.248982e+06   7.211171e+05
   2.245203e+05   1.757966e+06
  -7.168039e+05   1.269537e+06
  -9.109397e+05  -1.829965e+05
  -4.186408e+05  -1.175390e+06
   2.331685e+05  -9.460141e+05
   5.621452e+05  -7.867165e+04
   4.442003e+05   3.647160e+05
   1.408323e+05   1.290394e+05
   5.576677e+04  -8.867181e+04
   3.114685e+05   2.998113e+05
   5.257945e+05   9.522478e+05
   1.734041e+05   1.058728e+06
  -7.309519e+05   3.953724e+05
  -1.454933e+06  -4.408024e+05
  -1.246137e+06  -8.124215e+05
  -1.879603e+05  -6.923790e+05
   8.127774e+05  -4.249097e+05
   9.601956e+05  -1.822175e+05
   3.775132e+05   6.021591e+04
  -1.309712e+05   2.262810e+05
  -6.205154e+04   1.908670e+05
   2.306705e+05   7.518837e+04
   6.401649e+04   1.277520e+05
  -6.147144e+05   2.530201e+05
  -1.036787e+06   1.638292e+04
  -4.864487e+05  -6.777563e+05
   7.781620e+05  -1.194902e+06
   1.684936e+06  -8.029842e+05
   1.440562e+06   3.784442e+05
   3.104333e+05   1.376818e+06
  -7.400242e+05   1.384516e+06
  -1.025529e+06   5.742285e+05
  -6.456399e+05  -1.985019e+05
  -1.536403e+05  -3.509849e+05
   3.769971e+04  -8.486552e+04
  -9.239088e+04  -4.036990e+03
  -2.886339e+05  -3.689957e+05
  -2.458540e+05  -7.948820e+05
   1.559907e+05  -6.814933e+05
   6.670421e+05   8.225670e+04
   7.695085e+05   8.994933e+05
   1.756897e+05   1.017676e+06
  -7.149272e+05   2.939231e+05
  -1.047815e+06  -6.560926e+05
  -3.919830e+05  -1.068830e+06
   6.816808e+05  -7.111395e+05
   1.123429e+06   3.706025e+04
   5.605584e+05   6.156227e+05
  -2.685169e+05   7.085525e+05
  -3.948180e+05   3.814866e+05
   2.119495e+05  -6.895927e+03
   6.320213e+05  -5.829581e+04
   1.634192e+05   3.064871e+05
  -8.006940e+05   6.846485e+05
  -1.261352e+06   5.392167e+05
  -7.910759e+05  -1.815072e+05
   7.156307e+04  -8.738630e+05
   5.536082e+05  -8.737399e+05
   4.478740e+05  -1.956905e+05
   8.101347e+04   4.574095e+05
  -2.184933e+05   4.534454e+05
  -3.476318e+05  -1.074064e+05
  -2.697614e+05  -5.627946e+05
   3.175339e+04  -4.502797e+05
   3.878799e+05   2.116117e+04
   4.887141e+05   2.859524e+05
   2.434955e+05   1.081762e+05
  -5.441255e+04  -1.701426e+05
  -8.652859e+04  -8.977192e+04
   6.152827e+04   3.266664e+05
   2.679932e+04   5.743704e+05
  -2.866297e+05   2.786027e+05
  -5.009269e+05  -3.237116e+05
  -2.260561e+05  -6.275198e+05
   3.784075e+05  -3.358778e+05
   6.833816e+05   2.365294e+05
   2.812862e+05   5.463524e+05
  -5.009656e+05   3.798838e+05
  -8.920052e+05  -3.576502e+04
  -4.928634e+05  -3.590539e+05
   2.780560e+05  -4.271487e+05
   6.321080e+05  -2.722890e+05
   2.716252e+05  -3.159158e+04
  -3.036097e+05   1.004298e+05
  -3.884608e+05  -1.695581e+04
   1.307576e+05  -2.691421e+05
   6.796622e+05  -2.869720e+05
