
 $NMID
 id='ANONYMOUS ', fmtdat='(2E16.6)'
 volume=1.0
 tramp=1.0
 $END
  -2.420338e+07  -1.571250e+06
  -1.496374e+07  -1.255688e+07
   1.367086e+06  -1.511295e+07
   1.085169e+07  -9.081148e+06
   8.348804e+06  -3.179103e+05
   1.637799e+05   4.186622e+06
  -4.748353e+06   1.761761e+06
  -3.269501e+06  -3.903008e+06
   1.403812e+06  -6.295054e+06
   4.509340e+06  -2.606396e+06
   3.740743e+06   3.278079e+06
   3.113761e+05   5.039753e+06
  -2.402333e+06   9.908487e+05
  -1.770008e+06  -4.159020e+06
   1.531210e+06  -4.743719e+06
   3.969999e+06  -2.155183e+05
   2.708956e+06   4.843846e+06
  -1.415586e+06   5.890804e+06
  -4.787576e+06   2.606761e+06
  -4.700685e+06  -1.672722e+06
  -1.865808e+06  -3.625252e+06
   5.963219e+05  -2.798013e+06
   4.043194e+05  -1.396496e+06
  -1.562536e+06  -1.628473e+06
  -2.146254e+06  -3.282328e+06
   6.145152e+05  -4.048449e+06
   4.883919e+06  -2.271586e+06
   6.511497e+06   1.028155e+06
   3.522641e+06   3.207836e+06
  -1.394035e+06   2.720165e+06
  -3.592488e+06   3.695937e+05
  -1.428309e+06  -1.742271e+06
   2.260239e+06  -1.920342e+06
   3.608287e+06   6.843704e+04
   1.774490e+06   2.696264e+06
  -8.541703e+05   3.542476e+06
  -1.752543e+06   1.554962e+06
  -7.166024e+05  -1.317303e+06
   5.645783e+05  -1.843088e+06
   5.777760e+05   5.913403e+05
  -6.507424e+05   2.868752e+06
  -1.812118e+06   1.905925e+06
  -1.585046e+06  -1.299676e+06
   1.294985e+05  -2.808408e+06
   1.910945e+06  -6.903052e+05
   1.883926e+06   2.648485e+06
  -4.763176e+05   3.490761e+06
  -3.441812e+06   1.002802e+06
  -4.284575e+06  -2.322460e+06
  -1.878514e+06  -3.636397e+06
   1.917485e+06  -2.280506e+06
   3.827557e+06   2.197321e+05
   2.348287e+06   1.796832e+06
  -7.668937e+05   1.460546e+06
  -2.404793e+06  -7.271317e+04
  -1.332347e+06  -1.133918e+06
   7.576048e+05  -7.369161e+05
   1.393042e+06   4.779437e+05
   8.612108e+04   1.070201e+06
  -1.336174e+06   4.215674e+05
  -9.700564e+05  -7.196170e+05
   9.813594e+05  -1.137645e+06
   2.397638e+06  -2.476529e+05
   1.478230e+06   1.521145e+06
  -1.356626e+06   2.943525e+06
  -3.832125e+06   2.684420e+06
  -4.034498e+06   4.270104e+05
  -2.172080e+06  -2.458891e+06
  -9.961186e+04  -3.911358e+06
   7.319931e+05  -3.218649e+06
   5.738980e+05  -1.703931e+06
   6.453526e+05  -1.005513e+06
   1.503626e+06  -1.083209e+06
   2.457629e+06  -5.648767e+05
   2.436422e+06   1.090016e+06
   1.111303e+06   2.566783e+06
  -7.942800e+05   2.180439e+06
  -2.010036e+06  -4.274472e+04
  -1.583648e+06  -2.222559e+06
   3.184060e+05  -2.490708e+06
   2.293103e+06  -7.352863e+05
   2.746015e+06   1.485538e+06
   1.402035e+06   2.529252e+06
  -3.848841e+05   2.078778e+06
  -1.129446e+06   1.113364e+06
  -8.792495e+05   6.795491e+05
  -9.770537e+05   8.175585e+05
  -2.151979e+06   6.906718e+05
  -3.335787e+06  -3.708168e+05
  -2.766772e+06  -2.071475e+06
  -1.358690e+05  -3.323032e+06
   2.756132e+06  -3.116679e+06
   3.655411e+06  -1.369266e+06
   2.066195e+06   8.486696e+05
  -3.109737e+05   1.994600e+06
  -1.319791e+06   1.346945e+06
  -4.128926e+05  -2.106267e+05
   1.054091e+06  -9.742437e+05
   1.439551e+06  -2.339125e+05
   4.968623e+05   9.188668e+05
  -5.972724e+05   9.259693e+05
  -6.427652e+05  -2.570060e+05
   3.900573e+05  -1.011600e+06
   1.451453e+06  -1.383329e+04
   1.408253e+06   2.069267e+06
  -3.542856e+04   3.188455e+06
  -2.064959e+06   2.083184e+06
  -3.247452e+06  -4.444731e+05
  -2.612471e+06  -2.403026e+06
  -5.957906e+05  -2.523007e+06
   1.183255e+06  -1.253663e+06
   1.413985e+06  -6.674696e+04
   4.100374e+05   4.481333e+04
  -3.021118e+05  -6.130979e+05
   2.404321e+05  -9.759287e+05
   1.347133e+06  -4.389562e+05
   1.554396e+06   5.386654e+05
   4.144481e+05   1.001517e+06
  -9.093780e+05   5.317450e+05
  -9.104741e+05  -3.491346e+05
   5.638106e+05  -7.172138e+05
   2.042999e+06  -9.953678e+04
   1.897109e+06   1.108682e+06
   2.791738e+04   1.934097e+06
  -1.966370e+06   1.607608e+06
  -2.355804e+06   2.875295e+05
  -9.745084e+05  -9.513575e+05
   6.978838e+05  -1.060983e+06
   1.090272e+06  -9.477932e+04
   4.424451e+04   7.891449e+05
  -1.220009e+06   5.575296e+05
  -1.434859e+06  -5.577158e+05
  -4.568993e+05  -1.342707e+06
   7.475582e+05  -9.896480e+05
   1.090387e+06   3.056316e+04
   3.699494e+05   5.659402e+05
  -5.461781e+05   7.386546e+04
  -5.524605e+05  -8.472701e+05
   5.397551e+05  -1.142359e+06
   1.689951e+06  -3.650069e+05
   1.644461e+06   9.241529e+05
   2.988556e+05   1.692440e+06
  -1.133945e+06   1.347660e+06
  -1.401296e+06   2.375914e+05
  -4.894644e+05  -6.799761e+05
   5.064613e+05  -7.137695e+05
   6.365007e+05  -5.433478e+04
  -4.577186e+02   4.897078e+05
  -5.581864e+05   3.789048e+05
  -4.201296e+05  -9.569686e+04
   1.991126e+05  -2.010911e+05
   5.145931e+05   3.359395e+05
  -2.011655e+04   9.422450e+05
  -1.094266e+06   7.804512e+05
  -1.728369e+06  -3.256735e+05
  -1.196710e+06  -1.616403e+06
   1.994050e+05  -2.064942e+06
   1.381143e+06  -1.319181e+06
   1.558081e+06  -3.472296e+03
   9.413215e+05   8.842334e+05
   3.452830e+05   8.811311e+05
   2.312232e+05   4.012574e+05
   3.092479e+05   1.963081e+05
   3.584058e+04   5.028434e+05
  -6.682615e+05   7.856034e+05
  -1.252267e+06   3.810668e+05
  -1.034717e+06  -6.433643e+05
   1.074529e+05  -1.396444e+06
   1.464678e+06  -1.020261e+06
   1.955188e+06   3.785692e+05
   1.043260e+06   1.728741e+06
  -6.976685e+05   1.959847e+06
  -2.010579e+06   9.636992e+05
  -2.044563e+06  -3.856774e+05
  -1.041657e+06  -1.110986e+06
   3.614154e+04  -9.981377e+05
   4.711116e+05  -6.263163e+05
   3.436175e+05  -6.179272e+05
   2.368272e+05  -9.332398e+05
   5.305430e+05  -9.478040e+05
   1.003457e+06  -2.124477e+05
   1.074184e+06   9.374160e+05
   4.296197e+05   1.608270e+06
  -5.597443e+05   1.203695e+06
  -1.096901e+06   2.369750e+04
  -7.177753e+05  -1.001928e+06
   2.079311e+05  -1.151246e+06
   8.216554e+05  -4.820410e+05
   6.483916e+05   3.528730e+05
   4.911639e+04   7.620311e+05
  -2.460024e+05   6.738975e+05
   1.376869e+04   4.305157e+05
   3.236453e+05   3.337036e+05
   2.199882e+04   3.427663e+05
  -8.924039e+05   1.919362e+05
  -1.626123e+06  -2.559961e+05
  -1.345638e+06  -8.115382e+05
  -8.156856e+04  -1.102133e+06
   1.193903e+06  -8.957061e+05
   1.482524e+06  -3.109259e+05
   7.380051e+05   2.477194e+05
  -1.584085e+05   3.926740e+05
  -3.812556e+05   9.293941e+04
   3.478909e+04  -2.528941e+05
   4.318497e+05  -1.837197e+05
   3.807553e+05   2.971715e+05
   7.928424e+04   6.521251e+05
  -4.353782e+04   4.171999e+05
   1.278480e+05  -1.665838e+05
   3.319220e+05  -3.557319e+05
   2.534471e+05   1.829273e+05
  -1.902909e+05   8.746435e+05
  -7.625769e+05   8.637352e+05
  -1.002674e+06   4.338772e+04
  -5.589334e+05  -7.895777e+05
   3.667877e+05  -8.362537e+05
   9.819796e+05  -1.446256e+05
   5.933075e+05   5.330739e+05
  -5.652536e+05   5.640761e+05
  -1.393595e+06  -2.372093e+04
  -1.008635e+06  -6.995210e+05
   2.908955e+05  -9.321522e+05
   1.300193e+06  -5.701810e+05
   1.153151e+06   7.579716e+04
   1.752486e+05   4.644920e+05
  -5.355183e+05   2.816965e+05
  -2.803324e+05  -2.148506e+05
   5.623537e+05  -3.764532e+05
   9.922795e+05   1.773071e+05
   4.415724e+05   1.062138e+06
  -6.591799e+05   1.393019e+06
  -1.340238e+06   6.480608e+05
  -1.052900e+06  -7.116840e+05
  -1.291630e+05  -1.561487e+06
   6.521232e+05  -1.161263e+06
   8.097537e+05   8.626609e+04
   4.333156e+05   1.013031e+06
  -9.700751e+04   8.822487e+05
  -4.504483e+05   1.073061e+05
  -4.694652e+05  -3.451066e+05
  -2.217333e+05  -1.442649e+05
  -1.048003e+04   1.058733e+05
  -1.152636e+05  -2.034572e+05
  -3.776631e+05  -8.119309e+05
  -2.487911e+05  -9.428596e+05
   5.032726e+05  -3.435030e+05
   1.274720e+06   4.226106e+05
   1.179568e+06   7.330987e+05
   1.593806e+05   5.812100e+05
  -8.196029e+05   3.393350e+05
  -8.761786e+05   1.734334e+05
  -2.383431e+05  -4.394515e+03
   1.604374e+05  -1.832715e+05
  -6.288517e+04  -2.200806e+05
  -3.282372e+05  -1.373908e+05
  -1.447273e+03  -1.223938e+05
   6.803804e+05  -1.531391e+05
   8.827345e+05   6.354735e+04
   2.063850e+05   5.890738e+05
  -8.431623e+05   9.298059e+05
  -1.404222e+06   5.310170e+05
  -1.073681e+06  -4.622892e+05
  -1.628216e+05  -1.226310e+06
   6.625118e+05  -1.122671e+06
   9.094552e+05  -3.671248e+05
   5.702399e+05   2.687587e+05
   6.310218e+04   3.090518e+05
  -1.483503e+05   5.665985e+01
   3.591741e+04  -7.752080e+04
   2.922342e+05   2.902244e+05
   2.306310e+05   6.943251e+05
  -1.903191e+05   5.554477e+05
  -5.997003e+05  -1.844714e+05
  -5.521819e+05  -8.963924e+05
   3.216791e+04  -8.769015e+05
   7.086913e+05  -1.044769e+05
   8.374048e+05   7.266403e+05
   2.081128e+05   9.364181e+05
  -6.439923e+05   4.921966e+05
  -9.084718e+05  -1.215721e+05
  -3.831027e+05  -4.765735e+05
   2.597341e+05  -4.881854e+05
   2.597727e+05  -2.815885e+05
  -2.936739e+05  -4.307920e+04
  -5.774676e+05   3.658261e+03
  -8.795079e+04  -2.519703e+05
   7.221473e+05  -5.688279e+05
   1.016860e+06  -4.866042e+05
   5.619191e+05   1.104640e+05
  -1.141091e+05   7.069937e+05
  -4.241290e+05   6.796262e+05
  -2.886012e+05   6.460553e+04
   9.103385e+03  -4.455640e+05
   2.331628e+05  -3.214445e+05
   3.037772e+05   2.073935e+05
   1.893907e+05   5.029917e+05
  -7.907629e+04   2.975103e+05
  -3.304699e+05  -8.108519e+04
  -3.705674e+05  -2.030464e+05
  -2.016961e+05  -4.365085e+04
  -1.381928e+04   7.349885e+04
   6.361184e+04  -7.862734e+04
   9.890278e+04  -3.526895e+05
   2.045396e+05  -3.937773e+05
   3.294982e+05  -4.654979e+04
   2.869908e+05   4.271079e+05
  -1.339096e+04   5.738275e+05
  -3.959124e+05   2.219956e+05
  -5.121489e+05  -3.081643e+05
  -1.636692e+05  -5.276199e+05
   4.223889e+05  -2.853854e+05
   7.091204e+05   1.248583e+05
   3.760742e+05   3.390965e+05
  -2.647431e+05   2.784130e+05
  -5.352177e+05   1.080908e+05
  -1.578831e+05  -5.724726e+03
   3.793746e+05   7.151228e+03
   3.804719e+05   1.462588e+05
  -2.152421e+05   2.945241e+05
  -7.493504e+05   2.108259e+05
