
 $NMID
 id='ANONYMOUS ', fmtdat='(2E16.6)'
 volume=1.0
 tramp=1.0
 $END
  -3.438289e+07  -1.776749e+04
  -2.177599e+07  -1.828263e+07
   2.032620e+06  -2.224077e+07
   1.547893e+07  -1.202756e+07
   1.122683e+07   8.859280e+05
  -3.720622e+05   5.863215e+06
  -6.393687e+06   1.527832e+06
  -3.747780e+06  -5.548167e+06
   2.357790e+06  -7.802880e+06
   6.087472e+06  -3.006622e+06
   5.084727e+06   4.114473e+06
   7.286380e+05   6.401647e+06
  -2.966332e+06   1.633046e+06
  -2.356165e+06  -4.823541e+06
   1.994281e+06  -5.774193e+06
   5.322615e+06  -9.209409e+04
   3.679380e+06   6.492676e+06
  -1.805558e+06   8.009375e+06
  -6.411187e+06   3.932502e+06
  -6.723517e+06  -1.676885e+06
  -3.378152e+06  -4.794611e+06
   1.784323e+05  -4.479164e+06
   9.170347e+05  -2.678189e+06
  -1.030000e+06  -2.032634e+06
  -2.273468e+06  -3.312792e+06
   3.094681e+05  -4.546933e+06
   5.428259e+06  -3.228640e+06
   7.990110e+06   4.756639e+05
   4.876177e+06   3.581547e+06
  -1.020695e+06   3.598847e+06
  -3.973247e+06   1.073761e+06
  -1.880921e+06  -1.454801e+06
   2.057409e+06  -1.985632e+06
   3.702507e+06  -1.955187e+05
   2.180339e+06   2.624333e+06
  -4.263419e+05   4.052991e+06
  -1.865713e+06   2.343637e+06
  -1.425039e+06  -1.119945e+06
   2.597699e+02  -2.460405e+06
   6.863646e+05   4.954596e+04
  -3.749725e+05   3.112383e+06
  -2.080259e+06   2.297860e+06
  -2.039230e+06  -1.802308e+06
   5.188464e+05  -3.917237e+06
   3.254117e+06  -9.759537e+05
   2.996548e+06   3.817692e+06
  -6.629398e+05   5.078327e+06
  -4.690738e+06   1.628506e+06
  -5.500646e+06  -2.864924e+06
  -2.262203e+06  -4.518254e+06
   2.387766e+06  -2.734427e+06
   4.609719e+06   3.655704e+05
   2.729111e+06   2.283585e+06
  -1.155073e+06   1.842405e+06
  -3.172195e+06  -1.482405e+05
  -1.692501e+06  -1.557080e+06
   1.021047e+06  -1.005768e+06
   1.655368e+06   5.916476e+05
  -1.810256e+05   1.163531e+06
  -1.751528e+06   3.905851e+04
  -7.732909e+05  -1.397925e+06
   1.874919e+06  -1.520556e+06
   3.344715e+06  -4.057009e+04
   1.930782e+06   2.186990e+06
  -1.462991e+06   3.877934e+06
  -4.400931e+06   3.666450e+06
  -4.958491e+06   9.770769e+05
  -3.088476e+06  -2.779179e+06
  -5.007077e+05  -4.861888e+06
   9.172746e+05  -3.985881e+06
   8.443255e+05  -1.827649e+06
   5.807504e+05  -8.564303e+05
   1.279088e+06  -1.230247e+06
   2.502912e+06  -1.004476e+06
   2.830511e+06   7.996867e+05
   1.551390e+06   2.651371e+06
  -5.996322e+05   2.442282e+06
  -2.128421e+06   9.138726e+04
  -1.877800e+06  -2.369440e+06
   1.668518e+05  -2.884548e+06
   2.619375e+06  -1.135390e+06
   3.517573e+06   1.447881e+06
   2.106199e+06   3.020589e+06
  -2.339016e+05   2.826189e+06
  -1.458674e+06   1.674470e+06
  -1.260547e+06   9.171160e+05
  -1.254914e+06   9.306471e+05
  -2.554557e+06   8.191713e+05
  -3.972548e+06  -3.528342e+05
  -3.345754e+06  -2.345030e+06
  -2.990393e+05  -3.883693e+06
   3.036241e+06  -3.776559e+06
   4.127136e+06  -1.862324e+06
   2.469978e+06   7.498149e+05
  -1.217552e+05   2.283840e+06
  -1.352671e+06   1.691921e+06
  -4.999192e+05  -1.724946e+05
   1.136206e+06  -1.207074e+06
   1.698412e+06  -3.656359e+05
   6.946659e+05   1.062605e+06
  -6.019410e+05   1.098221e+06
  -6.744560e+05  -2.916975e+05
   5.539761e+05  -1.073710e+06
   1.723150e+06   2.270114e+05
   1.491264e+06   2.586723e+06
  -2.671300e+05   3.621217e+06
  -2.475175e+06   2.190884e+06
  -3.662712e+06  -5.918242e+05
  -2.937398e+06  -2.653673e+06
  -7.377956e+05  -2.807783e+06
   1.276901e+06  -1.498102e+06
   1.609566e+06  -1.754237e+05
   4.787231e+05   3.117419e+04
  -3.761385e+05  -7.022132e+05
   2.646018e+05  -1.184303e+06
   1.612718e+06  -5.836169e+05
   1.869606e+06   6.117427e+05
   5.001358e+05   1.194292e+06
  -1.051119e+06   6.394939e+05
  -1.021242e+06  -3.770053e+05
   6.710961e+05  -7.760676e+05
   2.309309e+06  -9.441544e+04
   2.124359e+06   1.217839e+06
   4.503042e+04   2.164398e+06
  -2.204535e+06   1.887163e+06
  -2.711935e+06   4.206847e+05
  -1.187080e+06  -1.090147e+06
   7.800600e+05  -1.318451e+06
   1.320773e+06  -1.798427e+05
   1.227574e+05   9.438154e+05
  -1.404083e+06   7.173029e+05
  -1.690911e+06  -6.117210e+05
  -5.392884e+05  -1.550617e+06
   8.729312e+05  -1.132363e+06
   1.256402e+06   5.454574e+04
   4.060988e+05   6.658094e+05
  -6.655625e+05   9.974199e+04
  -6.951260e+05  -9.705366e+05
   5.618250e+05  -1.363320e+06
   1.943508e+06  -5.222296e+05
   1.966474e+06   9.878290e+05
   4.281608e+05   1.964261e+06
  -1.277142e+06   1.623184e+06
  -1.628859e+06   3.211596e+05
  -5.782495e+05  -7.801664e+05
   5.690135e+05  -8.374740e+05
   7.031527e+05  -9.254948e+04
  -1.223071e+04   5.131736e+05
  -5.916166e+05   4.007137e+05
  -3.975016e+05  -8.587907e+04
   2.789799e+05  -1.663495e+05
   5.920723e+05   4.364296e+05
  -2.711757e+04   1.113293e+06
  -1.256745e+06   9.459359e+05
  -2.026319e+06  -3.093623e+05
  -1.469348e+06  -1.828042e+06
   1.356147e+05  -2.395303e+06
   1.537973e+06  -1.552217e+06
   1.768005e+06  -3.970271e+04
   1.066054e+06   9.475235e+05
   4.142528e+05   9.099753e+05
   3.342998e+05   3.905650e+05
   4.324386e+05   2.327419e+05
   7.709563e+04   6.240322e+05
  -7.623436e+05   9.345637e+05
  -1.429282e+06   4.647892e+05
  -1.185019e+06  -6.936242e+05
   9.604266e+04  -1.577596e+06
   1.652356e+06  -1.212781e+06
   2.266428e+06   3.632533e+05
   1.258912e+06   1.971730e+06
  -7.685288e+05   2.313302e+06
  -2.328135e+06   1.178034e+06
  -2.369406e+06  -4.079380e+05
  -1.186708e+06  -1.248911e+06
   4.040667e+04  -1.100485e+06
   4.784047e+05  -6.877912e+05
   2.893577e+05  -7.340043e+05
   1.877242e+05  -1.140404e+06
   5.820342e+05  -1.162952e+06
   1.178856e+06  -3.076274e+05
   1.301746e+06   1.031008e+06
   5.801469e+05   1.841478e+06
  -5.852519e+05   1.421495e+06
  -1.266261e+06   6.761596e+04
  -8.663769e+05  -1.153871e+06
   2.263053e+05  -1.351949e+06
   9.792152e+05  -5.542242e+05
   7.792789e+05   4.502256e+05
   4.590671e+04   9.252662e+05
  -3.171622e+05   7.888664e+05
   9.095110e+03   4.750748e+05
   4.026015e+05   3.574675e+05
   4.922174e+04   3.909937e+05
  -1.049496e+06   2.580757e+05
  -1.931048e+06  -2.321172e+05
  -1.601241e+06  -9.005267e+05
  -1.091618e+05  -1.306719e+06
   1.387985e+06  -1.111102e+06
   1.723391e+06  -4.030009e+05
   8.566039e+05   3.053881e+05
  -1.843092e+05   4.888201e+05
  -4.535725e+05   1.055752e+05
   9.730067e+03  -3.256199e+05
   4.745509e+05  -2.429689e+05
   4.627350e+05   3.244640e+05
   1.618717e+05   7.390099e+05
   5.923034e+03   4.807951e+05
   1.380777e+05  -1.727803e+05
   3.412412e+05  -3.930835e+05
   2.959903e+05   2.062000e+05
  -1.610949e+05   1.010082e+06
  -8.454670e+05   1.045827e+06
  -1.205109e+06   1.267482e+05
  -7.317150e+05  -8.845294e+05
   3.825445e+05  -1.023979e+06
   1.155628e+06  -2.548662e+05
   7.194237e+05   5.761106e+05
  -6.386243e+05   6.741561e+05
  -1.600665e+06   1.650963e+04
  -1.151338e+06  -7.763061e+05
   3.328665e+05  -1.064394e+06
   1.472225e+06  -6.668741e+05
   1.305785e+06   6.423776e+04
   2.041776e+05   5.215611e+05
  -6.124500e+05   3.330027e+05
  -3.480192e+05  -2.469280e+05
   6.135247e+05  -4.810605e+05
   1.159621e+06   1.270454e+05
   5.986755e+05   1.190348e+06
  -6.500627e+05   1.657981e+06
  -1.496281e+06   8.432610e+05
  -1.255076e+06  -7.545296e+05
  -2.332959e+05  -1.789076e+06
   6.959272e+05  -1.353808e+06
   9.340878e+05   8.436502e+04
   5.250720e+05   1.153780e+06
  -1.025934e+05   1.006923e+06
  -5.257831e+05   1.324160e+05
  -5.347394e+05  -3.713029e+05
  -2.358287e+05  -1.486209e+05
  -1.738552e+04   1.150294e+05
  -1.824508e+05  -2.453594e+05
  -4.913860e+05  -9.256620e+05
  -3.016257e+05  -1.071850e+06
   6.012124e+05  -4.178442e+05
   1.487382e+06   4.232594e+05
   1.368099e+06   7.891275e+05
   2.098598e+05   6.700325e+05
  -9.023572e+05   4.349910e+05
  -9.935509e+05   2.336717e+05
  -2.991014e+05  -7.708884e+03
   1.650095e+05  -2.220371e+05
  -5.153399e+04  -2.371432e+05
  -3.513363e+05  -1.258483e+05
  -2.086850e+04  -1.385878e+05
   7.410495e+05  -2.234871e+05
   1.027019e+06   1.560241e+04
   3.202963e+05   6.718689e+05
  -8.903288e+05   1.138447e+06
  -1.615122e+06   7.168339e+05
  -1.306884e+06  -4.533223e+05
  -2.684751e+05  -1.401727e+06
   7.126052e+05  -1.346060e+06
   1.030376e+06  -4.972713e+05
   6.676897e+05   2.610774e+05
   1.043049e+05   3.534078e+05
  -1.411138e+05   2.588754e+04
   4.980040e+04  -6.964099e+04
   3.387900e+05   3.308197e+05
   2.911208e+05   7.910353e+05
  -1.819268e+05   6.590380e+05
  -6.951014e+05  -1.579551e+05
  -7.064503e+05  -9.815918e+05
  -4.884710e+04  -1.016149e+06
   7.910764e+05  -1.907213e+05
   1.017526e+06   7.623318e+05
   3.151703e+05   1.070825e+06
  -7.094599e+05   6.291153e+05
  -1.072442e+06  -7.842901e+04
  -4.899067e+05  -5.498473e+05
   2.727193e+05  -6.084774e+05
   3.101958e+05  -3.489998e+05
  -3.123251e+05  -2.392755e+04
  -6.595365e+05   4.121641e+04
  -1.265771e+05  -2.912081e+05
   8.028526e+05  -6.945671e+05
   1.174440e+06  -6.003109e+05
   6.866447e+05   1.162901e+05
  -8.803971e+04   8.351858e+05
  -4.760339e+05   8.238482e+05
  -3.573361e+05   1.145483e+05
  -2.955178e+04  -5.024695e+05
   2.443587e+05  -4.004456e+05
   3.594843e+05   1.964956e+05
   2.520357e+05   5.692741e+05
  -6.526257e+04   3.717883e+05
  -3.869091e+05  -6.304865e+04
  -4.507470e+05  -2.307615e+05
  -2.373441e+05  -5.508468e+04
   3.085420e+03   1.051815e+05
   7.287712e+04  -5.219499e+04
   5.891645e+04  -3.936194e+05
   1.595407e+05  -4.916401e+05
   3.576582e+05  -1.195342e+05
   3.890054e+05   4.428214e+05
   6.436467e+04   6.561526e+05
  -4.302598e+05   2.918044e+05
  -6.263682e+05  -3.072352e+05
  -2.328369e+05  -5.886650e+05
   4.792304e+05  -3.593318e+05
   8.418484e+05   8.946878e+04
   4.625329e+05   3.685625e+05
  -2.879297e+05   3.572483e+05
  -6.173525e+05   1.814949e+05
  -2.032433e+05   8.836288e+03
   4.080021e+05  -3.292215e+04
   4.344325e+05   1.178890e+05
  -2.091060e+05   3.333813e+05
  -8.145536e+05   2.857927e+05
