
 $NMID
 id='ANONYMOUS ', fmtdat='(2E16.6)'
 volume=1.0
 tramp=1.0
 $END
  -3.753247e+07   9.385542e+05
  -2.447065e+07  -2.032515e+07
   2.105801e+06  -2.500730e+07
   1.742285e+07  -1.295736e+07
   1.251192e+07   1.746099e+06
  -7.185156e+05   6.636000e+06
  -7.210160e+06   1.179723e+06
  -3.771754e+06  -6.400683e+06
   3.079065e+06  -8.265038e+06
   6.803047e+06  -2.945319e+06
   5.393041e+06   4.403463e+06
   7.167115e+05   6.705141e+06
  -3.054805e+06   1.784267e+06
  -2.268418e+06  -4.934692e+06
   2.384499e+06  -5.943768e+06
   5.817058e+06   7.431291e+04
   3.897013e+06   7.068605e+06
  -2.010134e+06   8.652520e+06
  -6.870964e+06   4.337314e+06
  -7.275721e+06  -1.554090e+06
  -3.953605e+06  -4.971296e+06
  -2.137697e+05  -5.004781e+06
   9.916777e+05  -3.350707e+06
  -5.488104e+05  -2.429469e+06
  -1.834993e+06  -3.279662e+06
   4.067045e+05  -4.372099e+06
   5.363302e+06  -3.193366e+06
   8.063825e+06   4.285025e+05
   5.101823e+06   3.594029e+06
  -7.928943e+05   3.641785e+06
  -3.788846e+06   1.141377e+06
  -1.766055e+06  -1.213465e+06
   1.974236e+06  -1.585626e+06
   3.411697e+06   2.633517e+04
   1.946512e+06   2.477720e+06
  -4.001315e+05   3.860996e+06
  -1.769710e+06   2.483514e+06
  -1.558032e+06  -8.223180e+05
  -3.011628e+05  -2.457082e+06
   4.990245e+05  -2.526691e+05
  -4.268715e+05   2.891088e+06
  -2.195815e+06   2.238770e+06
  -2.155111e+06  -2.039107e+06
   7.382170e+05  -4.401975e+06
   3.842097e+06  -1.221896e+06
   3.479732e+06   4.171720e+06
  -6.906036e+05   5.678019e+06
  -5.057579e+06   1.845517e+06
  -5.732844e+06  -3.134969e+06
  -2.164233e+06  -4.831725e+06
   2.636325e+06  -2.726102e+06
   4.767996e+06   6.452163e+05
   2.686602e+06   2.579975e+06
  -1.381442e+06   1.964451e+06
  -3.430200e+06  -2.516696e+05
  -1.772925e+06  -1.765934e+06
   1.125624e+06  -1.088063e+06
   1.674148e+06   7.072874e+05
  -4.293576e+05   1.220307e+06
  -2.028652e+06  -2.395429e+05
  -6.945304e+05  -1.876828e+06
   2.310787e+06  -1.772128e+06
   3.759201e+06   1.076327e+05
   2.070906e+06   2.478096e+06
  -1.498498e+06   4.038267e+06
  -4.459732e+06   3.720540e+06
  -5.059559e+06   1.039167e+06
  -3.234340e+06  -2.770027e+06
  -5.247203e+05  -4.993487e+06
   1.122015e+06  -4.128383e+06
   1.105214e+06  -1.768285e+06
   6.430799e+05  -6.059126e+05
   1.119669e+06  -1.006103e+06
   2.290019e+06  -9.497652e+05
   2.672013e+06   7.214781e+05
   1.452722e+06   2.517378e+06
  -6.072493e+05   2.291466e+06
  -2.010447e+06  -2.008494e+04
  -1.719477e+06  -2.385232e+06
   2.324923e+05  -2.843741e+06
   2.606336e+06  -1.132173e+06
   3.559964e+06   1.419534e+06
   2.230838e+06   3.070536e+06
  -1.600403e+05   2.992878e+06
  -1.528476e+06   1.852934e+06
  -1.411122e+06   9.943314e+05
  -1.389889e+06   8.958405e+05
  -2.652601e+06   7.092268e+05
  -4.022249e+06  -5.113363e+05
  -3.297731e+06  -2.489320e+06
  -1.618698e+05  -3.913315e+06
   3.149841e+06  -3.675486e+06
   4.133437e+06  -1.751068e+06
   2.420057e+06   7.562687e+05
  -1.387125e+05   2.212509e+06
  -1.334893e+06   1.644243e+06
  -4.880780e+05  -1.614454e+05
   1.150011e+06  -1.171184e+06
   1.728737e+06  -3.303775e+05
   7.036695e+05   1.079296e+06
  -6.216264e+05   1.063554e+06
  -6.313501e+05  -3.536211e+05
   7.065010e+05  -1.038015e+06
   1.829510e+06   4.402904e+05
   1.343104e+06   2.843885e+06
  -6.245676e+05   3.677415e+06
  -2.742678e+06   1.977800e+06
  -3.634955e+06  -8.855015e+05
  -2.721544e+06  -2.813192e+06
  -5.693487e+05  -2.803244e+06
   1.313218e+06  -1.431274e+06
   1.590416e+06  -1.236824e+05
   4.768395e+05   4.871505e+04
  -3.520871e+05  -7.195263e+05
   3.108782e+05  -1.207706e+06
   1.669215e+06  -5.540468e+05
   1.890078e+06   6.999980e+05
   4.593936e+05   1.252564e+06
  -1.092954e+06   6.019296e+05
  -9.889246e+05  -4.349482e+05
   7.454193e+05  -7.245993e+05
   2.313517e+06   6.423072e+04
   2.016708e+06   1.340186e+06
  -9.649240e+04   2.145415e+06
  -2.290372e+06   1.768536e+06
  -2.728395e+06   3.065967e+05
  -1.162761e+06  -1.148362e+06
   8.234484e+05  -1.326423e+06
   1.355764e+06  -1.591583e+05
   1.172319e+05   9.563447e+05
  -1.434208e+06   6.796708e+05
  -1.679124e+06  -6.899243e+05
  -4.586493e+05  -1.595180e+06
   9.584854e+05  -1.090638e+06
   1.272787e+06   1.406711e+05
   3.660015e+05   7.125335e+05
  -6.911458e+05   8.520960e+04
  -6.747533e+05  -9.941026e+05
   5.964604e+05  -1.345471e+06
   1.952256e+06  -4.645188e+05
   1.935073e+06   1.047703e+06
   3.628272e+05   1.985381e+06
  -1.346957e+06   1.586790e+06
  -1.654688e+06   2.536915e+05
  -5.432311e+05  -8.181299e+05
   6.125962e+05  -8.162009e+05
   6.921112e+05  -5.774104e+04
  -6.191380e+04   4.954407e+05
  -6.030115e+05   3.363410e+05
  -3.437904e+05  -1.228722e+05
   3.345483e+05  -1.326914e+05
   5.837201e+05   4.986377e+05
  -8.606370e+04   1.132815e+06
  -1.302858e+06   9.001667e+05
  -2.018187e+06  -3.856833e+05
  -1.406743e+06  -1.880613e+06
   2.261024e+05  -2.382310e+06
   1.605031e+06  -1.470937e+06
   1.757836e+06   5.726999e+04
   9.827711e+05   9.891165e+05
   3.347619e+05   8.825737e+05
   3.232688e+05   3.536988e+05
   4.617457e+05   2.369808e+05
   7.280491e+04   6.416584e+05
  -8.085585e+05   9.058090e+05
  -1.448197e+06   3.911530e+05
  -1.129982e+06  -7.449448e+05
   1.862096e+05  -1.555339e+06
   1.703530e+06  -1.130082e+06
   2.243086e+06   4.576782e+05
   1.174585e+06   2.031361e+06
  -8.740509e+05   2.302177e+06
  -2.399211e+06   1.087869e+06
  -2.358851e+06  -5.288832e+05
  -1.104718e+06  -1.318353e+06
   1.219551e+05  -1.081188e+06
   5.013563e+05  -6.257376e+05
   2.737012e+05  -6.979287e+05
   1.922966e+05  -1.142740e+06
   6.174199e+05  -1.163671e+06
   1.196845e+06  -2.796006e+05
   1.266924e+06   1.069816e+06
   5.150785e+05   1.855989e+06
  -6.322536e+05   1.395948e+06
  -1.268445e+06   1.495159e+04
  -8.251591e+05  -1.200427e+06
   2.926123e+05  -1.357720e+06
   1.036424e+06  -5.114838e+05
   7.896897e+05   5.103783e+05
   2.526217e+03   9.623758e+05
  -3.784487e+05   7.943467e+05
  -2.965031e+04   4.716714e+05
   3.891494e+05   3.602407e+05
   3.649839e+04   3.859297e+05
  -1.069984e+06   2.232361e+05
  -1.938291e+06  -2.965744e+05
  -1.574218e+06  -9.669417e+05
  -5.421052e+04  -1.336751e+06
   1.443148e+06  -1.082122e+06
   1.753771e+06  -3.321790e+05
   8.560116e+05   3.661178e+05
  -2.029417e+05   5.001898e+05
  -4.706265e+05   8.366700e+04
   3.232739e+03  -3.333044e+05
   4.709852e+05  -2.230580e+05
   4.521974e+05   3.378643e+05
   1.490549e+05   7.238403e+05
   4.890675e+03   4.657843e+05
   1.510154e+05  -1.527802e+05
   3.514710e+05  -3.538556e+05
   2.855457e+05   2.198925e+05
  -1.919459e+05   9.878175e+05
  -8.781820e+05   1.017471e+06
  -1.218687e+06   1.126814e+05
  -7.196147e+05  -8.910812e+05
   4.048330e+05  -1.025047e+06
   1.160685e+06  -2.401749e+05
   6.951551e+05   5.921673e+05
  -6.690914e+05   6.489723e+05
  -1.596476e+06  -5.855477e+04
  -1.098604e+06  -8.394848e+05
   4.006767e+05  -1.047108e+06
   1.506905e+06  -5.810362e+05
   1.293042e+06   1.380764e+05
   1.715553e+05   5.303179e+05
  -6.319740e+05   3.026504e+05
  -3.489143e+05  -2.601507e+05
   6.130792e+05  -4.604107e+05
   1.142761e+06   1.524082e+05
   5.659248e+05   1.187564e+06
  -6.813159e+05   1.620911e+06
  -1.501326e+06   7.920291e+05
  -1.218229e+06  -7.884642e+05
  -1.670503e+05  -1.782967e+06
   7.488150e+05  -1.311990e+06
   9.318120e+05   1.321707e+05
   4.695768e+05   1.178180e+06
  -1.608434e+05   1.001315e+06
  -5.376797e+05   1.097509e+05
  -5.053322e+05  -3.947191e+05
  -2.137853e+05  -1.618925e+05
  -2.951492e+04   1.135633e+05
  -1.975472e+05  -2.458782e+05
  -4.650725e+05  -9.378281e+05
  -2.434625e+05  -1.086497e+06
   6.333784e+05  -4.042772e+05
   1.461564e+06   4.769149e+05
   1.317800e+06   8.459676e+05
   1.849069e+05   6.785471e+05
  -8.995803e+05   3.918626e+05
  -9.957191e+05   1.879953e+05
  -3.136673e+05  -1.803123e+04
   1.663246e+05  -2.125876e+05
  -2.183790e+04  -2.414061e+05
  -3.224846e+05  -1.407565e+05
  -2.169745e+04  -1.326461e+05
   7.227282e+05  -1.896318e+05
   1.019138e+06   4.435589e+04
   3.210082e+05   6.638787e+05
  -9.018186e+05   1.099633e+06
  -1.632321e+06   6.776117e+05
  -1.296689e+06  -4.710673e+05
  -2.234081e+05  -1.395054e+06
   7.541983e+05  -1.322605e+06
   1.033042e+06  -4.707484e+05
   6.459221e+05   2.747290e+05
   9.908807e+04   3.497841e+05
  -1.201730e+05   1.991207e+04
   6.515145e+04  -6.074019e+04
   3.220174e+05   3.507234e+05
   2.566715e+05   8.013475e+05
  -1.971061e+05   6.502745e+05
  -6.746683e+05  -1.718627e+05
  -6.709855e+05  -9.818450e+05
  -3.311639e+04  -1.000313e+06
   7.720366e+05  -1.708824e+05
   9.803307e+05   7.738714e+05
   2.883282e+05   1.067740e+06
  -7.146838e+05   6.110054e+05
  -1.067231e+06  -1.031170e+05
  -4.854053e+05  -5.660936e+05
   2.813170e+05  -6.102536e+05
   3.295527e+05  -3.496712e+05
  -2.918455e+05  -3.954566e+04
  -6.513586e+05   1.862564e+04
  -1.228835e+05  -2.924939e+05
   8.224215e+05  -6.618364e+05
   1.206791e+06  -5.565270e+05
   7.004809e+05   1.385210e+05
  -1.096875e+05   8.316485e+05
  -5.078661e+05   8.178547e+05
  -3.647166e+05   1.224508e+05
  -1.565129e+04  -4.889888e+05
   2.475599e+05  -3.952068e+05
   3.404616e+05   1.955069e+05
   2.333597e+05   5.718748e+05
  -6.498857e+04   3.758422e+05
  -3.787513e+05  -6.950236e+04
  -4.513060e+05  -2.492404e+05
  -2.400903e+05  -7.007191e+04
   1.336055e+04   1.093805e+05
   8.983843e+04  -2.977062e+04
   6.050343e+04  -3.680045e+05
   1.398463e+05  -4.778482e+05
   3.339797e+05  -1.234184e+05
   3.769354e+05   4.251848e+05
   6.294012e+04   6.348721e+05
  -4.257639e+05   2.771304e+05
  -6.140375e+05  -3.107087e+05
  -2.147586e+05  -5.822364e+05
   4.898302e+05  -3.462191e+05
   8.363072e+05   1.046277e+05
   4.510479e+05   3.777973e+05
  -2.902596e+05   3.549071e+05
  -6.135507e+05   1.743888e+05
  -2.102950e+05   1.171903e+04
   3.850452e+05  -1.896693e+04
   4.116189e+05   1.214710e+05
  -2.138058e+05   3.075250e+05
  -7.996357e+05   2.439159e+05
