
 $NMID
 id='ANONYMOUS ', fmtdat='(2E16.6)'
 volume=1.0
 tramp=1.0
 $END
  -4.970871e+07   1.476131e+06
  -3.126538e+07  -2.906601e+07
   4.793528e+06  -3.364626e+07
   2.370325e+07  -1.460823e+07
   1.521396e+07   4.818629e+06
  -2.208978e+06   8.443075e+06
  -8.927337e+06  -1.768390e+05
  -3.325454e+06  -8.522535e+06
   4.906717e+06  -9.083339e+06
   8.602163e+06  -2.527325e+06
   6.555591e+06   5.423153e+06
   9.586180e+05   7.914830e+06
  -3.605327e+06   2.487426e+06
  -2.617872e+06  -5.207629e+06
   3.141768e+06  -6.411180e+06
   7.173602e+06   7.302122e+05
   4.460071e+06   9.006204e+06
  -2.912223e+06   1.076436e+07
  -8.840625e+06   5.562340e+06
  -9.606538e+06  -1.650804e+06
  -5.839175e+06  -6.463940e+06
  -7.032259e+05  -7.353188e+06
   2.113023e+06  -5.161521e+06
   9.525555e+05  -2.634231e+06
  -1.413218e+06  -2.524043e+06
  -1.151693e+05  -4.240456e+06
   5.295587e+06  -4.091696e+06
   9.091530e+06  -3.783502e+05
   6.449894e+06   3.792812e+06
  -1.012987e+04   4.560851e+06
  -3.693083e+06   2.150482e+06
  -2.229881e+06  -3.662096e+05
   1.065697e+06  -1.185851e+06
   2.670587e+06  -3.638020e+05
   2.143919e+06   1.752137e+06
   3.958019e+05   3.894619e+06
  -1.709356e+06   3.410872e+06
  -2.646445e+06  -2.911994e+05
  -1.290131e+06  -3.187738e+06
   6.415103e+05  -1.351436e+06
   1.273272e+05   2.607383e+06
  -2.317386e+06   2.336235e+06
  -2.411339e+06  -2.735377e+06
   1.703622e+06  -5.572827e+06
   5.831212e+06  -1.230571e+06
   4.684240e+06   5.850163e+06
  -1.304116e+06   7.563050e+06
  -6.542706e+06   2.371160e+06
  -6.618732e+06  -3.841769e+06
  -2.087282e+06  -5.572971e+06
   3.125235e+06  -2.792322e+06
   5.122983e+06   1.105510e+06
   2.592481e+06   3.118361e+06
  -2.007224e+06   2.165598e+06
  -4.161684e+06  -5.932418e+05
  -1.944141e+06  -2.344388e+06
   1.482113e+06  -1.306642e+06
   1.740281e+06   8.788632e+05
  -9.869370e+05   1.054303e+06
  -2.356151e+06  -1.165013e+06
   7.908195e+04  -2.899403e+06
   3.767622e+06  -1.953724e+06
   4.785834e+06   8.018076e+05
   2.315311e+06   3.398822e+06
  -1.586546e+06   4.874211e+06
  -4.719172e+06   4.558207e+06
  -5.764354e+06   1.628878e+06
  -4.177304e+06  -2.929340e+06
  -9.265791e+05  -5.744390e+06
   1.500972e+06  -4.589274e+06
   1.504892e+06  -1.455446e+06
   3.386330e+05  -5.838680e+04
   3.597777e+05  -9.948634e+05
   1.817509e+06  -1.532946e+06
   2.771003e+06   4.121751e+04
   1.874752e+06   2.105582e+06
  -1.532986e+05   2.208574e+06
  -1.720762e+06   1.610023e+05
  -1.747022e+06  -2.160054e+06
   1.746693e+04  -2.916151e+06
   2.685845e+06  -1.534629e+06
   4.188917e+06   1.181263e+06
   2.959472e+06   3.458254e+06
   8.677730e+03   3.802397e+06
  -1.959711e+06   2.466762e+06
  -1.923250e+06   1.137857e+06
  -1.668185e+06   8.006546e+05
  -2.843402e+06   6.258971e+05
  -4.271126e+06  -5.846916e+05
  -3.495730e+06  -2.609868e+06
  -2.282099e+05  -4.072672e+06
   3.123960e+06  -3.911264e+06
   4.140340e+06  -2.090650e+06
   2.598566e+06   4.863894e+05
   1.783989e+05   2.235924e+06
  -1.149757e+06   1.867470e+06
  -5.416390e+05  -6.907006e+04
   1.090493e+06  -1.292775e+06
   1.849792e+06  -4.165356e+05
   8.764604e+05   1.150721e+06
  -5.353282e+05   1.114773e+06
  -5.105638e+05  -3.719421e+05
   9.346933e+05  -8.432972e+05
   1.887008e+06   9.628422e+05
   9.641546e+05   3.272270e+06
  -1.196553e+06   3.557961e+06
  -3.000093e+06   1.483711e+06
  -3.471577e+06  -1.193422e+06
  -2.498820e+06  -2.750925e+06
  -5.485808e+05  -2.685013e+06
   1.244550e+06  -1.488052e+06
   1.588696e+06  -2.257066e+05
   4.918943e+05   3.732756e+04
  -3.740292e+05  -7.402801e+05
   3.556900e+05  -1.315639e+06
   1.831605e+06  -6.131980e+05
   2.020067e+06   7.922075e+05
   4.407479e+05   1.366763e+06
  -1.145290e+06   6.092180e+05
  -9.389121e+05  -4.363164e+05
   8.125978e+05  -6.095653e+05
   2.249584e+06   1.963213e+05
   1.874453e+06   1.329515e+06
  -1.632660e+05   2.049570e+06
  -2.289454e+06   1.749672e+06
  -2.776000e+06   3.402908e+05
  -1.234055e+06  -1.213861e+06
   8.657994e+05  -1.475178e+06
   1.502475e+06  -2.121686e+05
   1.967348e+05   1.045238e+06
  -1.488629e+06   7.543494e+05
  -1.735825e+06  -7.259277e+05
  -4.106405e+05  -1.642469e+06
   1.041021e+06  -1.042715e+06
   1.279948e+06   2.368805e+05
   3.008618e+05   7.629709e+05
  -7.698619e+05   8.100234e+04
  -7.448946e+05  -1.029536e+06
   5.589980e+05  -1.423542e+06
   1.996913e+06  -5.627895e+05
   2.042414e+06   1.018124e+06
   4.212679e+05   2.057212e+06
  -1.391490e+06   1.667629e+06
  -1.714948e+06   2.586118e+05
  -5.357312e+05  -8.515465e+05
   6.353954e+05  -8.271327e+05
   6.561106e+05  -8.257790e+04
  -9.583323e+04   4.092296e+05
  -5.277769e+05   2.596017e+05
  -1.944165e+05  -8.300954e+04
   4.186854e+05   2.155472e+03
   5.566231e+05   6.134353e+05
  -1.474083e+05   1.184607e+06
  -1.351919e+06   9.315436e+05
  -2.087800e+06  -3.680953e+05
  -1.497504e+06  -1.911667e+06
   1.742192e+05  -2.433382e+06
   1.598523e+06  -1.473448e+06
   1.727416e+06   7.379335e+04
   9.198932e+05   9.167602e+05
   3.362883e+05   7.228263e+05
   4.365379e+05   2.526478e+05
   5.873144e+05   2.787301e+05
   1.018210e+05   7.302771e+05
  -8.447594e+05   9.270163e+05
  -1.453877e+06   3.760383e+05
  -1.096681e+06  -7.150218e+05
   2.047072e+05  -1.506090e+06
   1.709759e+06  -1.132434e+06
   2.274342e+06   4.359107e+05
   1.196527e+06   2.074709e+06
  -9.304441e+05   2.386142e+06
  -2.500010e+06   1.106997e+06
  -2.386067e+06  -5.797804e+05
  -1.035049e+06  -1.326158e+06
   1.647635e+05  -9.994695e+05
   4.176866e+05  -5.565645e+05
   1.237989e+05  -7.426303e+05
   1.048814e+05  -1.268649e+06
   6.336728e+05  -1.274199e+06
   1.268129e+06  -3.353398e+05
   1.348410e+06   1.059082e+06
   5.862778e+05   1.887034e+06
  -6.015102e+05   1.448603e+06
  -1.291110e+06   2.816002e+04
  -8.484006e+05  -1.253018e+06
   3.366088e+05  -1.404067e+06
   1.126749e+06  -4.643755e+05
   8.261099e+05   6.304374e+05
  -6.437856e+04   1.053338e+06
  -4.780113e+05   8.037692e+05
  -6.146537e+04   4.381489e+05
   4.300648e+05   3.366230e+05
   6.113217e+04   3.856428e+05
  -1.130170e+06   2.389747e+05
  -2.049158e+06  -2.824225e+05
  -1.638382e+06  -9.919824e+05
  -1.824530e+04  -1.418870e+06
   1.535680e+06  -1.165048e+06
   1.818192e+06  -3.325540e+05
   8.576982e+05   4.442473e+05
  -2.341237e+05   5.589235e+05
  -5.033842e+05   5.913290e+04
  -3.036361e+04  -3.977321e+05
   4.487210e+05  -2.588904e+05
   4.838450e+05   3.332557e+05
   2.405849e+05   7.224192e+05
   8.094707e+04   4.761432e+05
   1.408559e+05  -1.144721e+05
   2.964897e+05  -3.169204e+05
   2.853121e+05   2.250063e+05
  -1.362517e+05   9.966259e+05
  -8.778420e+05   1.079516e+06
  -1.328583e+06   1.892068e+05
  -8.415584e+05  -8.958217e+05
   3.904947e+05  -1.125635e+06
   1.232758e+06  -3.410760e+05
   7.405799e+05   5.666689e+05
  -6.855212e+05   6.679279e+05
  -1.604613e+06  -5.530028e+04
  -1.054971e+06  -8.447358e+05
   4.471793e+05  -1.022157e+06
   1.503899e+06  -5.380807e+05
   1.262072e+06   1.553787e+05
   1.545749e+05   5.200010e+05
  -6.452544e+05   2.927256e+05
  -3.850147e+05  -2.796919e+05
   5.842842e+05  -5.233289e+05
   1.183179e+06   7.240726e+04
   6.773799e+05   1.175302e+06
  -5.765651e+05   1.708330e+06
  -1.478063e+06   9.035942e+05
  -1.273185e+06  -7.421334e+05
  -2.351025e+05  -1.798591e+06
   7.209667e+05  -1.323638e+06
   9.384482e+05   1.494016e+05
   4.675351e+05   1.190162e+06
  -1.901845e+05   9.888786e+05
  -5.604335e+05   1.020132e+05
  -4.847738e+05  -3.750197e+05
  -1.767275e+05  -1.410149e+05
  -4.384434e+04   1.009531e+05
  -2.737844e+05  -2.804599e+05
  -5.261034e+05  -9.565878e+05
  -2.242032e+05  -1.085411e+06
   6.971963e+05  -4.164541e+05
   1.493054e+06   4.392983e+05
   1.313584e+06   8.187284e+05
   2.015823e+05   6.963989e+05
  -8.575146e+05   4.348686e+05
  -9.895961e+05   2.050728e+05
  -3.580510e+05  -3.894157e+04
   1.446139e+05  -2.278245e+05
   2.396948e+04  -2.144194e+05
  -2.759509e+05  -9.771896e+04
  -4.997558e+04  -1.321086e+05
   6.682208e+05  -2.443938e+05
   1.049962e+06  -8.577170e+03
   4.379600e+05   6.803190e+05
  -8.260731e+05   1.193660e+06
  -1.683870e+06   7.930921e+05
  -1.416222e+06  -4.029948e+05
  -3.037816e+05  -1.406815e+06
   7.377296e+05  -1.397453e+06
   1.040487e+06  -5.595207e+05
   6.629841e+05   2.229065e+05
   1.398001e+05   3.557458e+05
  -7.273956e+04   6.209350e+04
   8.133698e+04  -2.370389e+04
   3.136943e+05   3.626217e+05
   2.685177e+05   8.080098e+05
  -1.652280e+05   6.848756e+05
  -6.861874e+05  -1.095560e+05
  -7.600786e+05  -9.398077e+05
  -1.365205e+05  -1.029830e+06
   7.498964e+05  -2.617168e+05
   1.053151e+06   7.011089e+05
   3.742734e+05   1.084092e+06
  -6.984093e+05   6.951060e+05
  -1.123210e+06  -4.750092e+04
  -5.490688e+05  -5.988309e+05
   2.691605e+05  -6.858206e+05
   3.694155e+05  -3.805561e+05
  -2.499952e+05  -6.794273e+03
  -6.517533e+05   5.406732e+04
  -1.544874e+05  -3.045632e+05
   8.136024e+05  -7.019534e+05
   1.252685e+06  -5.764484e+05
   7.702424e+05   1.558240e+05
  -7.497476e+04   8.747098e+05
  -5.314875e+05   8.750746e+05
  -4.200999e+05   1.745463e+05
  -6.385820e+04  -4.791904e+05
   2.283236e+05  -4.420859e+05
   3.550043e+05   1.402650e+05
   2.693937e+05   5.733379e+05
  -4.028555e+04   4.290807e+05
  -3.928084e+05  -3.529524e+04
  -4.862459e+05  -2.686751e+05
  -2.475360e+05  -9.033977e+04
   3.983318e+04   1.481445e+05
   8.821715e+04   4.028437e+04
  -1.850203e+04  -3.517428e+05
   3.445491e+04  -5.484600e+05
   3.105635e+05  -2.253154e+05
   4.666273e+05   3.663189e+05
   1.733245e+05   6.422670e+05
  -4.008118e+05   3.252512e+05
  -6.730605e+05  -2.618032e+05
  -2.689920e+05  -5.682309e+05
   5.000400e+05  -3.811902e+05
   8.877230e+05   5.125734e+04
   4.911877e+05   3.661858e+05
  -2.827976e+05   4.100939e+05
  -6.338836e+05   2.469378e+05
  -2.511386e+05   2.706240e+04
   3.433102e+05  -7.551074e+04
   4.080493e+05   5.357692e+04
  -1.622388e+05   2.942515e+05
  -7.382967e+05   2.887270e+05
