
 $NMID
 id='ANONYMOUS ', fmtdat='(2E16.6)'
 volume=1.0
 tramp=1.0
 $END
  -5.135921e+07  -1.200568e+06
  -3.012769e+07  -3.197335e+07
   7.263705e+06  -3.427180e+07
   2.505075e+07  -1.317643e+07
   1.484549e+07   6.123126e+06
  -2.941103e+06   8.360086e+06
  -8.855748e+06  -9.302555e+05
  -2.631383e+06  -8.769024e+06
   5.485865e+06  -8.632464e+06
   8.758602e+06  -1.917449e+06
   6.398567e+06   5.803804e+06
   6.731964e+05   8.032038e+06
  -3.787298e+06   2.445801e+06
  -2.504288e+06  -5.210619e+06
   3.407898e+06  -6.157620e+06
   7.174433e+06   1.206231e+06
   4.007260e+06   9.378295e+06
  -3.564081e+06   1.077237e+07
  -9.354420e+06   5.239931e+06
  -9.859521e+06  -2.156782e+06
  -5.790917e+06  -7.043787e+06
  -3.045715e+05  -7.812725e+06
   2.710362e+06  -5.242817e+06
   1.377760e+06  -2.341205e+06
  -1.349420e+06  -2.205273e+06
  -2.023553e+05  -4.163307e+06
   5.323533e+06  -4.124426e+06
   9.209111e+06  -2.657706e+05
   6.503064e+06   4.044505e+06
  -2.984841e+04   4.782675e+06
  -3.752599e+06   2.302308e+06
  -2.413922e+06  -2.491379e+05
   7.528756e+05  -1.183070e+06
   2.470408e+06  -5.349070e+05
   2.222682e+06   1.580093e+06
   5.214631e+05   3.922651e+06
  -1.847404e+06   3.525627e+06
  -2.925670e+06  -3.682572e+05
  -1.332446e+06  -3.458008e+06
   8.605812e+05  -1.554609e+06
   2.721944e+05   2.548576e+06
  -2.327628e+06   2.233363e+06
  -2.245527e+06  -2.905329e+06
   2.172340e+06  -5.509904e+06
   6.173146e+06  -7.766709e+05
   4.477012e+06   6.362879e+06
  -1.845341e+06   7.682807e+06
  -6.837837e+06   2.085521e+06
  -6.461905e+06  -4.147169e+06
  -1.796415e+06  -5.605735e+06
   3.204228e+06  -2.595020e+06
   4.960878e+06   1.322551e+06
   2.353395e+06   3.181327e+06
  -2.167806e+06   2.016818e+06
  -4.152344e+06  -8.436941e+05
  -1.797627e+06  -2.475459e+06
   1.581181e+06  -1.240855e+06
   1.662029e+06   9.314552e+05
  -1.084458e+06   8.725153e+05
  -2.194682e+06  -1.451872e+06
   4.847961e+05  -2.937817e+06
   4.078290e+06  -1.640305e+06
   4.769984e+06   1.195040e+06
   2.101355e+06   3.601931e+06
  -1.772435e+06   4.896320e+06
  -4.846994e+06   4.514874e+06
  -5.886853e+06   1.523786e+06
  -4.216250e+06  -3.098536e+06
  -7.890133e+05  -5.837604e+06
   1.695677e+06  -4.479005e+06
   1.530031e+06  -1.242779e+06
   1.620917e+05   3.666838e+04
   1.695825e+05  -1.081274e+06
   1.760653e+06  -1.683864e+06
   2.821927e+06  -7.472983e+04
   1.960804e+06   2.033546e+06
  -5.187330e+04   2.192314e+06
  -1.626135e+06   2.252015e+05
  -1.705459e+06  -2.065914e+06
   1.737747e+04  -2.879542e+06
   2.712296e+06  -1.536062e+06
   4.240448e+06   1.251364e+06
   2.936176e+06   3.615000e+06
  -1.406153e+05   3.918045e+06
  -2.147715e+06   2.444620e+06
  -2.034726e+06   1.024609e+06
  -1.683185e+06   6.800988e+05
  -2.798686e+06   5.107472e+05
  -4.180221e+06  -6.907778e+05
  -3.378038e+06  -2.644752e+06
  -1.505101e+05  -4.000762e+06
   3.118025e+06  -3.806752e+06
   4.101266e+06  -2.048770e+06
   2.600922e+06   4.709965e+05
   2.162616e+05   2.227729e+06
  -1.131945e+06   1.880274e+06
  -5.529662e+05  -5.981091e+04
   1.080485e+06  -1.277131e+06
   1.843289e+06  -3.784145e+05
   8.644499e+05   1.174539e+06
  -5.212080e+05   1.100066e+06
  -4.553716e+05  -3.516406e+05
   9.428816e+05  -7.154978e+05
   1.740718e+06   1.102763e+06
   7.178100e+05   3.230130e+06
  -1.337225e+06   3.304017e+06
  -2.911833e+06   1.224738e+06
  -3.253457e+06  -1.259217e+06
  -2.334310e+06  -2.650118e+06
  -5.058613e+05  -2.576411e+06
   1.220399e+06  -1.449090e+06
   1.559550e+06  -2.212438e+05
   4.819654e+05   4.313221e+04
  -3.535050e+05  -7.314707e+05
   3.932271e+05  -1.289054e+06
   1.834385e+06  -5.549903e+05
   1.963043e+06   8.420339e+05
   3.835766e+05   1.356152e+06
  -1.132364e+06   5.664979e+05
  -8.898988e+05  -4.280125e+05
   7.939934e+05  -5.373880e+05
   2.137904e+06   2.469000e+05
   1.761700e+06   1.289578e+06
  -1.896957e+05   1.947719e+06
  -2.240859e+06   1.656429e+06
  -2.712529e+06   2.890825e+05
  -1.185084e+06  -1.222882e+06
   8.960737e+05  -1.447228e+06
   1.504946e+06  -1.725608e+05
   1.807188e+05   1.051189e+06
  -1.479463e+06   7.186812e+05
  -1.679387e+06  -7.474593e+05
  -3.537337e+05  -1.601326e+06
   1.036644e+06  -9.691262e+05
   1.222268e+06   2.735735e+05
   2.556479e+05   7.450835e+05
  -7.656001e+05   5.267041e+04
  -7.176144e+05  -1.028901e+06
   5.664967e+05  -1.396316e+06
   1.970632e+06  -5.325209e+05
   1.995584e+06   1.027380e+06
   3.803239e+05   2.027386e+06
  -1.397761e+06   1.608203e+06
  -1.681742e+06   2.165461e+05
  -4.994115e+05  -8.400059e+05
   6.350395e+05  -7.910300e+05
   6.317671e+05  -8.304459e+04
  -9.293166e+04   3.669651e+05
  -4.828959e+05   2.364734e+05
  -1.555438e+05  -4.808660e+04
   4.044889e+05   5.706061e+04
   5.037918e+05   6.275836e+05
  -1.851343e+05   1.148362e+06
  -1.341624e+06   8.817922e+05
  -2.037786e+06  -3.952628e+05
  -1.439972e+06  -1.897705e+06
   2.005807e+05  -2.376824e+06
   1.569585e+06  -1.405676e+06
   1.662317e+06   9.630505e+04
   8.741436e+05   8.733197e+05
   3.424467e+05   6.655080e+05
   4.648158e+05   2.450259e+05
   5.894476e+05   3.107451e+05
   7.981302e+04   7.365818e+05
  -8.455176e+05   8.847197e+05
  -1.413395e+06   3.373097e+05
  -1.048273e+06  -6.965153e+05
   2.176760e+05  -1.440637e+06
   1.675679e+06  -1.070834e+06
   2.208536e+06   4.563257e+05
   1.126434e+06   2.042574e+06
  -9.654643e+05   2.309545e+06
  -2.467343e+06   1.023094e+06
  -2.301507e+06  -6.146677e+05
  -9.642557e+05  -1.290490e+06
   1.715325e+05  -9.380378e+05
   3.802094e+05  -5.296503e+05
   1.006971e+05  -7.542901e+05
   1.196651e+05  -1.274260e+06
   6.556931e+05  -1.250367e+06
   1.261088e+06  -3.080789e+05
   1.313070e+06   1.057249e+06
   5.526877e+05   1.856874e+06
  -6.054205e+05   1.413053e+06
  -1.259206e+06   7.627618e+03
  -8.002604e+05  -1.243796e+06
   3.659796e+05  -1.359592e+06
   1.113379e+06  -4.059411e+05
   7.798095e+05   6.596301e+05
  -1.104068e+05   1.031199e+06
  -5.018069e+05   7.570606e+05
  -6.834826e+04   4.097646e+05
   4.260032e+05   3.337073e+05
   5.962893e+04   3.787749e+05
  -1.116541e+06   2.083263e+05
  -2.011551e+06  -3.196353e+05
  -1.584473e+06  -1.002760e+06
   2.649362e+04  -1.389441e+06
   1.542617e+06  -1.111047e+06
   1.782844e+06  -2.843727e+05
   8.115312e+05   4.631015e+05
  -2.530589e+05   5.475634e+05
  -4.927308e+05   3.798751e+04
  -2.091858e+04  -4.079477e+05
   4.392913e+05  -2.570883e+05
   4.727170e+05   3.344146e+05
   2.456688e+05   7.189143e+05
   8.878127e+04   4.781580e+05
   1.291971e+05  -1.008405e+05
   2.718316e+05  -3.025191e+05
   2.719255e+05   2.237072e+05
  -1.346045e+05   9.752799e+05
  -8.771984e+05   1.048308e+06
  -1.330726e+06   1.638659e+05
  -8.318568e+05  -9.025222e+05
   4.087125e+05  -1.112554e+06
   1.234931e+06  -3.251969e+05
   7.249455e+05   5.614529e+05
  -6.815823e+05   6.389751e+05
  -1.556601e+06  -7.806902e+04
  -9.977009e+05  -8.281550e+05
   4.560556e+05  -9.695469e+05
   1.457121e+06  -4.886066e+05
   1.209730e+06   1.684553e+05
   1.395034e+05   5.006235e+05
  -6.311236e+05   2.692590e+05
  -3.745882e+05  -2.877274e+05
   5.773325e+05  -5.190523e+05
   1.169069e+06   7.449335e+04
   6.689951e+05   1.164738e+06
  -5.725721e+05   1.686576e+06
  -1.458785e+06   8.856450e+05
  -1.244390e+06  -7.357333e+05
  -2.155243e+05  -1.761796e+06
   7.132436e+05  -1.279464e+06
   9.057567e+05   1.642249e+05
   4.326738e+05   1.162752e+06
  -2.042524e+05   9.470453e+05
  -5.488647e+05   8.459152e+04
  -4.622386e+05  -3.620634e+05
  -1.633354e+05  -1.275978e+05
  -4.541043e+04   9.156232e+04
  -2.743664e+05  -2.975466e+05
  -5.077011e+05  -9.497882e+05
  -1.964799e+05  -1.051385e+06
   6.998398e+05  -3.852911e+05
   1.454479e+06   4.437275e+05
   1.264164e+06   8.052239e+05
   1.860634e+05   6.851173e+05
  -8.341163e+05   4.266343e+05
  -9.632543e+05   1.893128e+05
  -3.539432e+05  -5.594866e+04
   1.406166e+05  -2.261885e+05
   3.333844e+04  -1.928051e+05
  -2.614887e+05  -7.998726e+04
  -5.360400e+04  -1.334047e+05
   6.467066e+05  -2.499337e+05
   1.034210e+06  -7.467926e+02
   4.408578e+05   6.898268e+05
  -8.151242e+05   1.180917e+06
  -1.676051e+06   7.636593e+05
  -1.407969e+06  -4.148646e+05
  -2.916273e+05  -1.384323e+06
   7.442768e+05  -1.364650e+06
   1.033513e+06  -5.476592e+05
   6.521504e+05   2.157168e+05
   1.393477e+05   3.551881e+05
  -6.666621e+04   7.780137e+04
   7.689857e+04  -9.639747e+03
   2.943731e+05   3.575700e+05
   2.499766e+05   7.905095e+05
  -1.681145e+05   6.752407e+05
  -6.767229e+05  -1.025970e+05
  -7.521083e+05  -9.264825e+05
  -1.379987e+05  -1.024963e+06
   7.404342e+05  -2.691350e+05
   1.040801e+06   6.890920e+05
   3.653640e+05   1.074794e+06
  -6.973488e+05   6.870690e+05
  -1.111182e+06  -5.833316e+04
  -5.334626e+05  -6.075172e+05
   2.808905e+05  -6.815483e+05
   3.788733e+05  -3.641256e+05
  -2.372397e+05   5.118712e+03
  -6.384668e+05   5.152288e+04
  -1.510359e+05  -3.058631e+05
   8.033786e+05  -6.796456e+05
   1.237254e+06  -5.370535e+05
   7.585858e+05   1.787411e+05
  -8.426581e+04   8.631938e+05
  -5.437286e+05   8.503238e+05
  -4.325256e+05   1.664870e+05
  -6.856792e+04  -4.710462e+05
   2.310054e+05  -4.400445e+05
   3.550210e+05   1.297701e+05
   2.613114e+05   5.660603e+05
  -4.832032e+04   4.327831e+05
  -3.894703e+05  -3.381888e+04
  -4.726018e+05  -2.784215e+05
  -2.369043e+05  -9.759646e+04
   3.641017e+04   1.584207e+05
   7.245376e+04   5.771126e+04
  -3.539602e+04  -3.505225e+05
   2.708612e+04  -5.667544e+05
   3.158317e+05  -2.433881e+05
   4.793676e+05   3.624109e+05
   1.849239e+05   6.456639e+05
  -3.951541e+05   3.255713e+05
  -6.714815e+05  -2.614814e+05
  -2.682220e+05  -5.603264e+05
   4.987275e+05  -3.689429e+05
   8.814402e+05   5.823785e+04
   4.825655e+05   3.660473e+05
  -2.876653e+05   4.083199e+05
  -6.353956e+05   2.446474e+05
  -2.566753e+05   1.936005e+04
   3.329083e+05  -8.948303e+04
   4.053081e+05   4.022926e+04
  -1.462726e+05   2.881826e+05
  -7.118397e+05   2.905954e+05
