
 $NMID
 id='ANONYMOUS ', fmtdat='(2E16.6)'
 volume=1.0
 tramp=1.0
 $END
   4.932172e+07   1.252788e+05
   2.999546e+07   2.994990e+07
  -5.951831e+06   3.323659e+07
  -2.401252e+07   1.357062e+07
  -1.485617e+07  -5.417858e+06
   2.533814e+06  -8.283552e+06
   8.811451e+06   5.643585e+05
   2.925551e+06   8.561652e+06
  -5.208518e+06   8.739747e+06
  -8.588479e+06   2.147776e+06
  -6.290132e+06  -5.564379e+06
  -6.949966e+05  -7.821506e+06
   3.627886e+06  -2.358014e+06
   2.402229e+06   5.168158e+06
  -3.323282e+06   6.167974e+06
  -7.058334e+06  -9.937496e+05
  -4.088512e+06  -9.053486e+06
   3.252171e+06  -1.053762e+07
   8.930555e+06  -5.217394e+06
   9.468298e+06   1.923461e+06
   5.615457e+06   6.588420e+06
   4.867667e+05   7.354210e+06
  -2.306313e+06   5.094395e+06
  -1.130602e+06   2.552260e+06
   1.253258e+06   2.443883e+06
   1.110485e+04   4.113552e+06
  -5.274688e+06   3.871691e+06
  -8.927925e+06   1.339642e+05
  -6.251765e+06  -3.910431e+06
   9.439565e+04  -4.502469e+06
   3.648899e+06  -2.047952e+06
   2.188591e+06   3.609217e+05
  -1.005645e+06   1.082667e+06
  -2.549269e+06   2.925105e+05
  -2.039383e+06  -1.718398e+06
  -3.178183e+05  -3.800773e+06
   1.767669e+06  -3.332491e+06
   2.647339e+06   3.251591e+05
   1.229249e+06   3.195215e+06
  -6.752017e+05   1.378829e+06
  -7.931923e+04  -2.514756e+06
   2.339999e+06  -2.202275e+06
   2.276910e+06   2.792552e+06
  -1.911249e+06   5.456057e+06
  -5.864471e+06   1.011306e+06
  -4.459935e+06  -5.968308e+06
   1.559379e+06  -7.457775e+06
   6.552733e+06  -2.134387e+06
   6.378358e+06   4.006098e+06
   1.841028e+06   5.545307e+06
  -3.168526e+06   2.618500e+06
  -4.973465e+06  -1.278803e+06
  -2.412872e+06  -3.160374e+06
   2.070025e+06  -2.058124e+06
   4.084805e+06   7.374462e+05
   1.829329e+06   2.387923e+06
  -1.510251e+06   1.240167e+06
  -1.669105e+06  -9.248307e+05
   1.037604e+06  -9.818249e+05
   2.281194e+06   1.280829e+06
  -2.284480e+05   2.898300e+06
  -3.840031e+06   1.794071e+06
  -4.709154e+06  -9.885365e+05
  -2.160771e+06  -3.452255e+06
   1.708778e+06  -4.751702e+06
   4.757448e+06  -4.340884e+06
   5.711385e+06  -1.440428e+06
   4.038108e+06   2.995852e+06
   7.444396e+05   5.673048e+06
  -1.639454e+06   4.450141e+06
  -1.544568e+06   1.342951e+06
  -3.107684e+05   1.638029e+03
  -3.241754e+05   9.506246e+05
  -1.778323e+06   1.472860e+06
  -2.697045e+06  -7.865637e+04
  -1.784114e+06  -2.075109e+06
   1.866598e+05  -2.133819e+06
   1.654630e+06  -1.129540e+05
   1.628296e+06   2.139806e+06
  -9.626969e+04   2.839337e+06
  -2.666617e+06   1.434801e+06
  -4.081566e+06  -1.266483e+06
  -2.820860e+06  -3.488213e+06
   1.017314e+05  -3.759864e+06
   2.018936e+06  -2.382713e+06
   1.947499e+06  -1.055339e+06
   1.670707e+06  -7.163809e+05
   2.800248e+06  -5.079264e+05
   4.152443e+06   7.155409e+05
   3.327589e+06   2.662364e+06
   9.223469e+04   3.979051e+06
  -3.164224e+06   3.716679e+06
  -4.093985e+06   1.921461e+06
  -2.523151e+06  -5.371047e+05
  -1.242318e+05  -2.180147e+06
   1.164288e+06  -1.794523e+06
   5.282292e+05   7.711080e+04
  -1.097514e+06   1.229861e+06
  -1.821015e+06   3.512961e+05
  -8.280057e+05  -1.152379e+06
   5.498344e+05  -1.070056e+06
   4.744699e+05   3.797251e+05
  -9.546847e+05   7.741624e+05
  -1.808340e+06  -1.039135e+06
  -8.005438e+05  -3.247997e+06
   1.326345e+06  -3.412163e+06
   2.987886e+06  -1.305203e+06
   3.324094e+06   1.300436e+06
   2.320574e+06   2.753669e+06
   4.420168e+05   2.619507e+06
  -1.254031e+06   1.409541e+06
  -1.551736e+06   1.747288e+05
  -4.782794e+05  -5.166820e+04
   3.408311e+05   7.334021e+05
  -3.923039e+05   1.275562e+06
  -1.813087e+06   5.406911e+05
  -1.947999e+06  -8.433863e+05
  -3.825766e+05  -1.351859e+06
   1.136965e+06  -5.550519e+05
   8.939779e+05   4.550726e+05
  -8.157591e+05   5.562227e+05
  -2.175526e+06  -2.764666e+05
  -1.766673e+06  -1.354424e+06
   2.324052e+05  -1.979673e+06
   2.283788e+06  -1.623396e+06
   2.713725e+06  -2.415658e+05
   1.165496e+06   1.225792e+06
  -8.931635e+05   1.417275e+06
  -1.478940e+06   1.613964e+05
  -1.633547e+05  -1.029076e+06
   1.475918e+06  -6.900206e+05
   1.667939e+06   7.656908e+05
   3.414094e+05   1.614098e+06
  -1.052884e+06   9.758660e+05
  -1.237224e+06  -2.797942e+05
  -2.625610e+05  -7.553926e+05
   7.566519e+05  -5.294094e+04
   6.950026e+05   1.027866e+06
  -5.876960e+05   1.370782e+06
  -1.962981e+06   4.882260e+05
  -1.959815e+06  -1.055013e+06
  -3.460289e+05  -2.019289e+06
   1.411259e+06  -1.581576e+06
   1.680623e+06  -1.953695e+05
   4.924813e+05   8.480101e+05
  -6.464711e+05   7.840023e+05
  -6.374840e+05   6.071063e+04
   1.095839e+05  -3.875214e+05
   5.157550e+05  -2.282905e+05
   1.740978e+05   8.444554e+04
  -4.141017e+05  -2.665826e+04
  -5.187973e+05  -6.242518e+05
   1.876556e+05  -1.150980e+06
   1.349163e+06  -8.630341e+05
   2.022739e+06   4.258741e+05
   1.399314e+06   1.910468e+06
  -2.460612e+05   2.363797e+06
  -1.602487e+06   1.379664e+06
  -1.674739e+06  -1.304503e+05
  -8.590215e+05  -9.165030e+05
  -3.027968e+05  -7.016908e+05
  -4.245656e+05  -2.521823e+05
  -5.714526e+05  -2.936514e+05
  -7.689717e+04  -7.203723e+05
   8.552356e+05  -8.748248e+05
   1.426648e+06  -3.156543e+05
   1.039595e+06   7.297980e+05
  -2.510072e+05   1.453652e+06
  -1.700525e+06   1.043984e+06
  -2.198869e+06  -4.978364e+05
  -1.095944e+06  -2.059975e+06
   9.880197e+05  -2.295283e+06
   2.474908e+06  -9.947993e+05
   2.302619e+06   6.467115e+05
   9.568731e+05   1.324311e+06
  -1.968331e+05   9.599064e+05
  -4.182184e+05   5.216586e+05
  -1.333063e+05   7.210419e+05
  -1.370425e+05   1.239519e+06
  -6.593826e+05   1.226353e+06
  -1.249389e+06   2.883660e+05
  -1.281999e+06  -1.073381e+06
  -5.128844e+05  -1.856208e+06
   6.303223e+05  -1.392314e+06
   1.257739e+06   1.438612e+04
   7.850071e+05   1.250283e+06
  -3.771872e+05   1.357433e+06
  -1.117824e+06   4.104930e+05
  -7.851150e+05  -6.496007e+05
   1.026636e+05  -1.028992e+06
   4.990779e+05  -7.663058e+05
   7.674296e+04  -4.213613e+05
  -4.100744e+05  -3.398007e+05
  -4.844032e+04  -3.769948e+05
   1.111399e+06  -1.959750e+05
   1.991311e+06   3.415868e+05
   1.564749e+06   1.020676e+06
  -3.211153e+04   1.386233e+06
  -1.538651e+06   1.088054e+06
  -1.783557e+06   2.630883e+05
  -8.192509e+05  -4.663279e+05
   2.485662e+05  -5.401684e+05
   4.939257e+05  -3.886160e+04
   1.890079e+04   3.927835e+05
  -4.432303e+05   2.396528e+05
  -4.618695e+05  -3.397363e+05
  -2.169996e+05  -7.102676e+05
  -6.880315e+04  -4.663796e+05
  -1.400650e+05   1.036141e+05
  -2.945470e+05   2.952165e+05
  -2.697107e+05  -2.288063e+05
   1.614874e+05  -9.650239e+05
   8.893062e+05  -1.024915e+06
   1.306291e+06  -1.455894e+05
   7.977279e+05   8.991994e+05
  -4.159123e+05   1.089073e+06
  -1.215365e+06   2.984386e+05
  -7.046964e+05  -5.735478e+05
   6.899303e+05  -6.281021e+05
   1.558848e+06   1.067944e+05
   9.942177e+05   8.567602e+05
  -4.723518e+05   9.770139e+05
  -1.479756e+06   4.698354e+05
  -1.219392e+06  -1.943390e+05
  -1.316912e+05  -5.098629e+05
   6.379815e+05  -2.623968e+05
   3.677577e+05   2.861256e+05
  -5.831206e+05   4.941549e+05
  -1.150888e+06  -1.034773e+05
  -6.281148e+05  -1.164084e+06
   6.091013e+05  -1.648418e+06
   1.465147e+06  -8.380592e+05
   1.217432e+06   7.601657e+05
   1.741424e+05   1.757608e+06
  -7.427090e+05   1.263795e+06
  -9.078823e+05  -1.777501e+05
  -4.148194e+05  -1.173472e+06
   2.199930e+05  -9.540030e+05
   5.499316e+05  -7.990867e+04
   4.571886e+05   3.791356e+05
   1.642345e+05   1.412922e+05
   4.705630e+04  -9.573569e+04
   2.627218e+05   2.844061e+05
   4.844417e+05   9.488439e+05
   1.805018e+05   1.062524e+06
  -6.965197e+05   3.826658e+05
  -1.439378e+06  -4.736964e+05
  -1.249545e+06  -8.374361e+05
  -1.741175e+05  -6.851167e+05
   8.448729e+05  -3.976494e+05
   9.683974e+05  -1.678330e+05
   3.502257e+05   5.138600e+04
  -1.464487e+05   2.179013e+05
  -3.395039e+04   2.056076e+05
   2.613835e+05   1.008415e+05
   4.632254e+04   1.300242e+05
  -6.535321e+05   2.196150e+05
  -1.023374e+06  -2.243381e+04
  -4.122134e+05  -6.772048e+05
   8.368425e+05  -1.140311e+06
   1.667331e+06  -7.240565e+05
   1.372700e+06   4.335640e+05
   2.548330e+05   1.378689e+06
  -7.623582e+05   1.339831e+06
  -1.030692e+06   5.162110e+05
  -6.384072e+05  -2.347271e+05
  -1.272008e+05  -3.509207e+05
   6.911783e+04  -6.119598e+04
  -8.110602e+04   1.746793e+04
  -2.922517e+05  -3.638516e+05
  -2.351227e+05  -7.948934e+05
   1.808629e+05  -6.629623e+05
   6.643009e+05   1.244478e+05
   7.146244e+05   9.355943e+05
   1.065620e+05   1.007990e+06
  -7.360121e+05   2.365979e+05
  -1.006238e+06  -7.109295e+05
  -3.345191e+05  -1.067638e+06
   7.008216e+05  -6.590814e+05
   1.094702e+06   7.919779e+04
   5.187778e+05   6.029323e+05
  -2.835340e+05   6.635949e+05
  -3.748186e+05   3.600312e+05
   2.396340e+05   1.235453e+04
   6.354606e+05  -3.364610e+04
   1.425111e+05   3.021736e+05
  -8.135761e+05   6.585241e+05
  -1.240488e+06   5.203639e+05
  -7.490243e+05  -1.784035e+05
   9.923128e+04  -8.512206e+05
   5.475806e+05  -8.374979e+05
   4.185120e+05  -1.597412e+05
   4.990682e+04   4.672475e+05
  -2.351879e+05   4.258335e+05
  -3.416245e+05  -1.438890e+05
  -2.456499e+05  -5.664508e+05
   5.151862e+04  -4.199253e+05
   3.818019e+05   4.470074e+04
   4.664913e+05   2.788367e+05
   2.382246e+05   9.761038e+04
  -3.583321e+04  -1.483387e+05
  -8.427005e+04  -4.750055e+04
   1.243224e+04   3.413389e+05
  -4.357430e+04   5.375560e+05
  -3.076330e+05   2.166333e+05
  -4.484488e+05  -3.670946e+05
  -1.557139e+05  -6.307661e+05
   3.985488e+05  -3.066235e+05
   6.502169e+05   2.731094e+05
   2.468299e+05   5.602837e+05
  -4.995807e+05   3.566730e+05
  -8.652990e+05  -7.519163e+04
  -4.684684e+05  -3.714052e+05
   2.879672e+05  -3.935646e+05
   6.260297e+05  -2.246479e+05
   2.482292e+05  -1.915610e+04
  -3.330340e+05   6.642132e+04
  -3.946682e+05  -6.035124e+04
   1.634741e+05  -2.796695e+05
   7.225923e+05  -2.596951e+05
