
 $NMID
 id='ANONYMOUS ', fmtdat='(2E16.6)'
 volume=1.0
 tramp=1.0
 $END
   3.999792e+07  -4.659632e+05
   2.550987e+07   2.260624e+07
  -3.130741e+06   2.678802e+07
  -1.898151e+07   1.290457e+07
  -1.301946e+07  -2.717016e+06
   1.189556e+06  -7.002497e+06
   7.580370e+06  -6.970362e+05
   3.501709e+06   6.924302e+06
  -3.655485e+06   8.308243e+06
  -7.221448e+06   2.679287e+06
  -5.523791e+06  -4.686172e+06
  -6.426728e+05  -6.915244e+06
   3.170139e+06  -1.878687e+06
   2.216526e+06   4.965578e+06
  -2.659614e+06   5.927366e+06
  -6.076808e+06  -3.412424e+05
  -3.856113e+06  -7.519651e+06
   2.358897e+06  -9.018945e+06
   7.331710e+06  -4.460768e+06
   7.713663e+06   1.671276e+06
   4.283357e+06   5.318519e+06
   2.693263e+05   5.510814e+06
  -1.296229e+06   3.755049e+06
   1.096736e+05   2.487599e+06
   1.606862e+06   3.087417e+06
  -3.711616e+05   4.247002e+06
  -5.311719e+06   3.244384e+06
  -8.164790e+06  -3.780193e+05
  -5.283469e+06  -3.671316e+06
   6.426250e+05  -3.780308e+06
   3.705861e+06  -1.291679e+06
   1.808968e+06   1.008794e+06
  -1.757266e+06   1.395149e+06
  -3.161343e+06  -2.103528e+04
  -1.893883e+06  -2.297031e+06
   2.804814e+05  -3.783922e+06
   1.764345e+06  -2.636901e+06
   1.779036e+06   6.876698e+05
   5.062736e+05   2.587525e+06
  -5.089661e+05   5.169199e+05
   3.521556e+05  -2.751319e+06
   2.240251e+06  -2.179479e+06
   2.154424e+06   2.224838e+06
  -1.043114e+06   4.628816e+06
  -4.307312e+06   1.159581e+06
  -3.667191e+06  -4.578621e+06
   9.224507e+05  -6.056218e+06
   5.379346e+06  -1.864087e+06
   5.805901e+06   3.372982e+06
   2.015738e+06   4.990706e+06
  -2.776721e+06   2.650070e+06
  -4.775685e+06  -8.505033e+05
  -2.574228e+06  -2.737511e+06
   1.555112e+06  -1.967526e+06
   3.560881e+06   3.939506e+05
   1.761951e+06   1.919482e+06
  -1.215760e+06   1.108711e+06
  -1.652310e+06  -7.749682e+05
   5.924182e+05  -1.161694e+06
   2.092806e+06   5.062795e+05
   4.694682e+05   2.135267e+06
  -2.675495e+06   1.767598e+06
  -3.969468e+06  -3.442586e+05
  -2.062177e+06  -2.711958e+06
   1.571897e+06  -4.151229e+06
   4.521468e+06  -3.774754e+06
   5.166979e+06  -1.069878e+06
   3.359796e+06   2.819611e+06
   5.198932e+05   5.106113e+06
  -1.283573e+06   4.161566e+06
  -1.236217e+06   1.645387e+06
  -5.834026e+05   4.369591e+05
  -9.341449e+05   9.440216e+05
  -2.142368e+06   1.018017e+06
  -2.621875e+06  -5.970600e+05
  -1.469768e+06  -2.396380e+06
   5.359442e+05  -2.210199e+06
   1.900282e+06   2.499515e+04
   1.640229e+06   2.327641e+06
  -2.368877e+05   2.806280e+06
  -2.601206e+06   1.158194e+06
  -3.623729e+06  -1.404180e+06
  -2.316790e+06  -3.154429e+06
   1.662571e+05  -3.141645e+06
   1.642296e+06  -1.951853e+06
   1.537607e+06  -9.927141e+05
   1.460156e+06  -8.312026e+05
   2.675365e+06  -6.199331e+05
   4.009295e+06   6.084444e+05
   3.239818e+06   2.550637e+06
   9.014313e+04   3.892121e+06
  -3.171075e+06   3.602576e+06
  -4.101058e+06   1.714277e+06
  -2.403181e+06  -7.268264e+05
   1.060392e+05  -2.172572e+06
   1.299086e+06  -1.640373e+06
   4.883750e+05   1.445703e+05
  -1.139687e+06   1.155539e+06
  -1.736584e+06   3.110042e+05
  -7.134499e+05  -1.091649e+06
   6.118812e+05  -1.044080e+06
   5.829234e+05   3.681917e+05
  -7.792076e+05   9.605479e+05
  -1.814273e+06  -6.046790e+05
  -1.170078e+06  -2.943885e+06
   8.442562e+05  -3.585734e+06
   2.818389e+06  -1.764419e+06
   3.521709e+06   1.035216e+06
   2.556462e+06   2.818994e+06
   4.885772e+05   2.741600e+06
  -1.306409e+06   1.391106e+06
  -1.565320e+06   1.113015e+05
  -4.718449e+05  -5.559896e+04
   3.360459e+05   7.202373e+05
  -3.417984e+05   1.208827e+06
  -1.693811e+06   5.257658e+05
  -1.878240e+06  -7.511430e+05
  -4.221185e+05  -1.271141e+06
   1.100732e+06  -5.705213e+05
   9.498897e+05   4.507267e+05
  -7.687338e+05   6.673087e+05
  -2.260412e+06  -1.508188e+05
  -1.916998e+06  -1.364421e+06
   1.625199e+05  -2.085346e+06
   2.293453e+06  -1.682928e+06
   2.702549e+06  -2.492978e+05
   1.137615e+06   1.171020e+06
  -8.473478e+05   1.324810e+06
  -1.373251e+06   1.427504e+05
  -1.159683e+05  -9.638645e+05
   1.438042e+06  -6.561768e+05
   1.651248e+06   7.242994e+05
   4.044148e+05   1.592425e+06
  -9.888616e+05   1.041203e+06
  -1.252615e+06  -1.905596e+05
  -3.291424e+05  -7.225805e+05
   7.006987e+05  -6.851931e+04
   6.587391e+05   1.000208e+06
  -6.064866e+05   1.328053e+06
  -1.939958e+06   4.376540e+05
  -1.905906e+06  -1.065100e+06
  -3.280173e+05  -1.978187e+06
   1.370597e+06  -1.551888e+06
   1.648948e+06  -2.149363e+05
   5.153476e+05   8.254263e+05
  -6.259964e+05   7.924526e+05
  -6.723683e+05   4.729804e+04
   8.216104e+04  -4.641684e+05
   5.828743e+05  -2.959041e+05
   2.964609e+05   1.214516e+05
  -3.561523e+05   9.001174e+04
  -5.579783e+05  -5.337694e+05
   1.254285e+05  -1.126654e+06
   1.314152e+06  -8.643192e+05
   1.993603e+06   4.198927e+05
   1.364279e+06   1.888233e+06
  -2.626528e+05   2.350478e+06
  -1.610808e+06   1.411316e+06
  -1.720977e+06  -1.010151e+05
  -9.275545e+05  -9.787713e+05
  -3.068218e+05  -8.361568e+05
  -3.364707e+05  -3.281323e+05
  -4.809178e+05  -2.520832e+05
  -6.545101e+04  -6.548791e+05
   8.253971e+05  -8.785297e+05
   1.435626e+06  -3.473889e+05
   1.085435e+06   7.524284e+05
  -2.247965e+05   1.513865e+06
  -1.703435e+06   1.073123e+06
  -2.203536e+06  -4.956252e+05
  -1.115396e+06  -2.035435e+06
   9.247705e+05  -2.266741e+06
   2.409788e+06  -1.022271e+06
   2.316324e+06   5.860440e+05
   1.039636e+06   1.325208e+06
  -1.567185e+05   1.041148e+06
  -4.877719e+05   5.853109e+05
  -2.467586e+05   6.888905e+05
  -1.909256e+05   1.149901e+06
  -6.358948e+05   1.158844e+06
  -1.200623e+06   2.631490e+05
  -1.242267e+06  -1.077048e+06
  -4.829785e+05  -1.843990e+06
   6.449386e+05  -1.371549e+06
   1.253482e+06   1.029132e+04
   7.911689e+05   1.212321e+06
  -3.288746e+05   1.341358e+06
  -1.054562e+06   4.693920e+05
  -7.763736e+05  -5.494847e+05
   3.461105e+04  -9.706784e+05
   4.150551e+05  -7.767999e+05
   4.830729e+04  -4.555212e+05
  -3.844838e+05  -3.568687e+05
  -3.312532e+04  -3.801601e+05
   1.072633e+06  -2.000649e+05
   1.927544e+06   3.307048e+05
   1.543030e+06   9.922230e+05
   1.532082e+04   1.337184e+06
  -1.465964e+06   1.053935e+06
  -1.748883e+06   2.882490e+05
  -8.354932e+05  -3.989916e+05
   2.179013e+05  -5.026581e+05
   4.735268e+05  -6.595213e+04
  -1.434129e+03   3.436173e+05
  -4.625310e+05   2.174848e+05
  -4.451875e+05  -3.411243e+05
  -1.530501e+05  -7.138762e+05
  -1.344405e+04  -4.597877e+05
  -1.502519e+05   1.370732e+05
  -3.406501e+05   3.297758e+05
  -2.756165e+05  -2.243657e+05
   1.976127e+05  -9.687041e+05
   8.861032e+05  -9.961566e+05
   1.227577e+06  -1.037112e+05
   7.180755e+05   8.922946e+05
  -4.164699e+05   1.024046e+06
  -1.163816e+06   2.361735e+05
  -6.814313e+05  -5.913536e+05
   6.768698e+05  -6.283165e+05
   1.571389e+06   9.295781e+04
   1.050923e+06   8.529503e+05
  -4.300975e+05   1.015603e+06
  -1.495673e+06   5.265748e+05
  -1.261443e+06  -1.700556e+05
  -1.523279e+05  -5.232874e+05
   6.319630e+05  -2.811391e+05
   3.465970e+05   2.680555e+05
  -6.053495e+05   4.541887e+05
  -1.129517e+06  -1.552587e+05
  -5.574227e+05  -1.176326e+06
   6.795364e+05  -1.599432e+06
   1.487507e+06  -7.726938e+05
   1.193705e+06   7.909486e+05
   1.411310e+05   1.760816e+06
  -7.593577e+05   1.276240e+06
  -9.156052e+05  -1.554146e+05
  -4.348299e+05  -1.172718e+06
   1.884691e+05  -9.786267e+05
   5.371518e+05  -9.408561e+04
   4.826593e+05   3.951374e+05
   1.970394e+05   1.593750e+05
   3.534347e+04  -1.081606e+05
   2.082790e+05   2.538375e+05
   4.517991e+05   9.368809e+05
   2.101293e+05   1.074369e+06
  -6.479828e+05   3.873591e+05
  -1.434375e+06  -4.924405e+05
  -1.275798e+06  -8.554125e+05
  -1.708902e+05  -6.759817e+05
   8.827994e+05  -3.752237e+05
   9.820602e+05  -1.665118e+05
   3.195637e+05   2.945325e+04
  -1.627693e+05   2.089118e+05
   4.168790e+03   2.320004e+05
   3.017132e+05   1.357512e+05
   2.529157e+04   1.303718e+05
  -7.008812e+05   1.829563e+05
  -1.008440e+06  -5.309498e+04
  -3.301566e+05  -6.627519e+05
   8.918080e+05  -1.083705e+06
   1.632375e+06  -6.591906e+05
   1.293824e+06   4.741211e+05
   2.083477e+05   1.379271e+06
  -7.668089e+05   1.302421e+06
  -1.027497e+06   4.618422e+05
  -6.326100e+05  -2.717619e+05
  -9.972749e+04  -3.471817e+05
   1.062055e+05  -2.665249e+04
  -7.006125e+04   4.925172e+04
  -3.068856e+05  -3.554145e+05
  -2.373656e+05  -7.955624e+05
   2.001171e+05  -6.433506e+05
   6.616953e+05   1.686127e+05
   6.594530e+05   9.692460e+05
   3.619193e+04   9.906696e+05
  -7.565176e+05   1.729918e+05
  -9.640170e+05  -7.643079e+05
  -2.811250e+05  -1.059801e+06
   7.116820e+05  -6.056254e+05
   1.060713e+06   1.109898e+05
   4.809845e+05   5.751477e+05
  -2.864820e+05   6.125728e+05
  -3.415702e+05   3.447437e+05
   2.753664e+05   3.796490e+04
   6.408086e+05  -1.235663e+04
   1.223033e+05   2.931146e+05
  -8.212934e+05   6.423400e+05
  -1.210978e+06   5.257813e+05
  -7.036488e+05  -1.554582e+05
   1.174548e+05  -8.259234e+05
   5.232427e+05  -8.076971e+05
   3.746633e+05  -1.259758e+05
   1.619169e+04   4.782902e+05
  -2.470553e+05   3.945966e+05
  -3.333493e+05  -1.860788e+05
  -2.256115e+05  -5.677390e+05
   6.552904e+04  -3.812004e+05
   3.740432e+05   6.820856e+04
   4.473394e+05   2.597587e+05
   2.367711e+05   7.933514e+04
  -1.782342e+04  -1.171826e+05
  -8.966142e+04   9.748408e+03
  -4.837533e+04   3.554593e+05
  -1.210839e+05   4.830355e+05
  -3.240556e+05   1.389512e+05
  -3.827289e+05  -4.108507e+05
  -7.517375e+04  -6.262640e+05
   4.182324e+05  -2.746211e+05
   6.110452e+05   3.065570e+05
   2.113772e+05   5.733833e+05
  -4.917850e+05   3.383474e+05
  -8.324108e+05  -1.078422e+05
  -4.450093e+05  -3.784077e+05
   2.909187e+05  -3.562376e+05
   6.115735e+05  -1.760784e+05
   2.171559e+05  -1.119300e+04
  -3.679612e+05   2.347114e+04
  -4.003253e+05  -1.118991e+05
   2.045951e+05  -2.936296e+05
   7.762196e+05  -2.321519e+05
