
 $NMID
 id='ANONYMOUS ', fmtdat='(2E16.6)'
 volume=1.0
 tramp=1.0
 $END
   3.702073e+07  -4.424014e+05
   2.402288e+07   2.033220e+07
  -2.294744e+06   2.471446e+07
  -1.744626e+07   1.268352e+07
  -1.248721e+07  -1.852427e+06
   7.627791e+05  -6.608231e+06
   7.231608e+06  -1.106818e+06
   3.702697e+06   6.438217e+06
  -3.199206e+06   8.220751e+06
  -6.827249e+06   2.850188e+06
  -5.265839e+06  -4.454243e+06
  -5.761102e+05  -6.657537e+06
   3.045860e+06  -1.695777e+06
   2.126323e+06   4.963066e+06
  -2.496818e+06   5.885327e+06
  -5.786040e+06  -1.487262e+05
  -3.763394e+06  -7.067552e+06
   2.115690e+06  -8.546329e+06
   6.850043e+06  -4.185706e+06
   7.138514e+06   1.641153e+06
   3.808926e+06   4.929249e+06
   1.664145e+05   4.892590e+06
  -9.568355e+05   3.303571e+06
   5.448359e+05   2.504077e+06
   1.719877e+06   3.373104e+06
  -5.537841e+05   4.333357e+06
  -5.403452e+06   3.001494e+06
  -7.961925e+06  -6.345665e+05
  -4.952150e+06  -3.659542e+06
   8.788466e+05  -3.542393e+06
   3.770036e+06  -9.916158e+05
   1.671875e+06   1.270062e+06
  -2.067529e+06   1.499362e+06
  -3.413865e+06  -1.711429e+05
  -1.832269e+06  -2.545187e+06
   5.350953e+05  -3.804187e+06
   1.794445e+06  -2.392742e+06
   1.467138e+06   8.325161e+05
   2.300347e+05   2.387596e+06
  -4.480500e+05   2.045922e+05
   5.408365e+05  -2.858378e+06
   2.245587e+06  -2.175634e+06
   2.117785e+06   2.058150e+06
  -7.693181e+05   4.376275e+06
  -3.796114e+06   1.205957e+06
  -3.392005e+06  -4.143271e+06
   7.366801e+05  -5.608605e+06
   5.021060e+06  -1.751666e+06
   5.636054e+06   3.222150e+06
   2.063147e+06   4.860329e+06
  -2.686942e+06   2.668256e+06
  -4.750376e+06  -7.438405e+05
  -2.638639e+06  -2.635288e+06
   1.401502e+06  -1.944482e+06
   3.406418e+06   3.001252e+05
   1.741428e+06   1.783078e+06
  -1.130694e+06   1.063433e+06
  -1.657099e+06  -7.434740e+05
   4.501325e+05  -1.238589e+06
   2.050111e+06   2.464164e+05
   7.175339e+05   1.891971e+06
  -2.294256e+06   1.766573e+06
  -3.744752e+06  -1.385753e+05
  -2.032528e+06  -2.486347e+06
   1.566120e+06  -3.962809e+06
   4.506967e+06  -3.570826e+06
   5.026100e+06  -9.074580e+05
   3.124108e+06   2.805291e+06
   4.048182e+05   4.952903e+06
  -1.199843e+06   4.090789e+06
  -1.152821e+06   1.764706e+06
  -6.959620e+05   5.926612e+05
  -1.174377e+06   9.375704e+05
  -2.302492e+06   8.402610e+05
  -2.611424e+06  -8.153684e+05
  -1.344751e+06  -2.548881e+06
   6.909623e+05  -2.252070e+06
   2.008487e+06   9.670350e+04
   1.638060e+06   2.436213e+06
  -3.161726e+05   2.819467e+06
  -2.611554e+06   1.046219e+06
  -3.479684e+06  -1.495722e+06
  -2.132605e+06  -3.078930e+06
   2.114237e+05  -2.945477e+06
   1.532788e+06  -1.804796e+06
   1.410881e+06  -9.720900e+05
   1.406828e+06  -8.720744e+05
   2.664809e+06  -6.458630e+05
   3.995335e+06   6.085420e+05
   3.220808e+06   2.563508e+06
   5.717093e+04   3.902098e+06
  -3.237071e+06   3.571113e+06
  -4.158987e+06   1.620215e+06
  -2.375368e+06  -8.241773e+05
   2.109571e+05  -2.188944e+06
   1.374841e+06  -1.587057e+06
   4.763479e+05   1.757064e+05
  -1.177257e+06   1.129671e+06
  -1.726455e+06   2.839494e+05
  -6.692435e+05  -1.086323e+06
   6.510754e+05  -1.038311e+06
   6.256455e+05   3.757506e+05
  -7.351808e+05   1.034385e+06
  -1.836640e+06  -4.688330e+05
  -1.295385e+06  -2.878740e+06
   7.110247e+05  -3.685011e+06
   2.807189e+06  -1.927967e+06
   3.624462e+06   9.820789e+05
   2.643362e+06   2.897296e+06
   4.850949e+05   2.819662e+06
  -1.350833e+06   1.386725e+06
  -1.586355e+06   7.513486e+04
  -4.735535e+05  -6.167503e+04
   3.315063e+05   7.263448e+05
  -3.374096e+05   1.195068e+06
  -1.673076e+06   5.118572e+05
  -1.866781e+06  -7.421703e+05
  -4.295912e+05  -1.259935e+06
   1.105668e+06  -5.724743e+05
   9.769371e+05   4.642270e+05
  -7.674148e+05   7.099101e+05
  -2.316352e+06  -1.270397e+05
  -1.980453e+06  -1.401446e+06
   1.584524e+05  -2.145700e+06
   2.336841e+06  -1.702032e+06
   2.728910e+06  -2.307214e+05
   1.129075e+06   1.173132e+06
  -8.505608e+05   1.297604e+06
  -1.349962e+06   1.259159e+05
  -9.152484e+04  -9.509433e+05
   1.445228e+06  -6.381707e+05
   1.656522e+06   7.317315e+05
   4.171965e+05   1.605784e+06
  -9.865917e+05   1.067570e+06
  -1.270922e+06  -1.721972e+05
  -3.501742e+05  -7.227769e+05
   6.896737e+05  -6.957634e+04
   6.448729e+05   1.006685e+06
  -6.307867e+05   1.321841e+06
  -1.955620e+06   4.075869e+05
  -1.897077e+06  -1.096066e+06
  -3.078841e+05  -1.986704e+06
   1.383577e+06  -1.545481e+06
   1.656464e+06  -2.096083e+05
   5.212261e+05   8.310379e+05
  -6.330394e+05   7.983015e+05
  -6.926700e+05   3.563206e+04
   7.853067e+04  -4.976389e+05
   6.178038e+05  -3.181420e+05
   3.433702e+05   1.408312e+05
  -3.409843e+05   1.320550e+05
  -5.752066e+05  -5.111731e+05
   1.129004e+05  -1.129466e+06
   1.322518e+06  -8.633375e+05
   2.000534e+06   4.388463e+05
   1.349831e+06   1.911305e+06
  -2.918662e+05   2.367537e+06
  -1.643538e+06   1.423074e+06
  -1.755088e+06  -1.071924e+05
  -9.522747e+05  -1.020526e+06
  -3.018736e+05  -8.961932e+05
  -3.038819e+05  -3.604757e+05
  -4.516984e+05  -2.420169e+05
  -5.787109e+04  -6.379683e+05
   8.301675e+05  -8.825727e+05
   1.457161e+06  -3.508002e+05
   1.107016e+06   7.779448e+05
  -2.310499e+05   1.550140e+06
  -1.731881e+06   1.080688e+06
  -2.224242e+06  -5.189758e+05
  -1.116958e+06  -2.058106e+06
   9.309356e+05  -2.273337e+06
   2.420916e+06  -1.022913e+06
   2.341384e+06   5.908331e+05
   1.068834e+06   1.350003e+06
  -1.543024e+05   1.080930e+06
  -5.243442e+05   6.092039e+05
  -2.961411e+05   6.803289e+05
  -2.211897e+05   1.126626e+06
  -6.430912e+05   1.141096e+06
  -1.197351e+06   2.469518e+05
  -1.231300e+06  -1.099963e+06
  -4.611029e+05  -1.862692e+06
   6.688676e+05  -1.372455e+06
   1.265218e+06   1.999118e+04
   7.917749e+05   1.218424e+06
  -3.263003e+05   1.347571e+06
  -1.047871e+06   4.875957e+05
  -7.783951e+05  -5.254753e+05
   1.765329e+04  -9.606220e+05
   3.959364e+05  -7.867542e+05
   4.322351e+04  -4.727583e+05
  -3.757840e+05  -3.694311e+05
  -2.472663e+04  -3.851288e+05
   1.071435e+06  -1.951875e+05
   1.921921e+06   3.455693e+05
   1.543278e+06   1.005375e+06
   2.190676e+04   1.334662e+06
  -1.463630e+06   1.041210e+06
  -1.757660e+06   2.855553e+05
  -8.479225e+05  -3.865054e+05
   2.126647e+05  -4.929741e+05
   4.721183e+05  -7.280393e+04
  -1.072462e+04   3.286853e+05
  -4.755217e+05   2.071277e+05
  -4.405828e+05  -3.485984e+05
  -1.251272e+05  -7.224721e+05
   1.044566e+04  -4.611318e+05
  -1.572146e+05   1.492157e+05
  -3.645350e+05   3.421615e+05
  -2.791641e+05  -2.273286e+05
   2.208716e+05  -9.777892e+05
   9.022188e+05  -9.888618e+05
   1.212100e+06  -8.079052e+04
   6.892013e+05   9.037332e+05
  -4.285801e+05   1.007591e+06
  -1.157984e+06   2.070030e+05
  -6.745121e+05  -6.093768e+05
   6.845948e+05  -6.292107e+05
   1.591624e+06   1.028622e+05
   1.075060e+06   8.706515e+05
  -4.287645e+05   1.037203e+06
  -1.522706e+06   5.392921e+05
  -1.288898e+06  -1.748590e+05
  -1.565494e+05  -5.353852e+05
   6.393388e+05  -2.854301e+05
   3.406349e+05   2.670456e+05
  -6.229820e+05   4.387920e+05
  -1.131254e+06  -1.851416e+05
  -5.270518e+05  -1.196520e+06
   7.251917e+05  -1.590879e+06
   1.516459e+06  -7.434596e+05
   1.189850e+06   8.202833e+05
   1.151153e+05   1.780762e+06
  -7.847042e+05   1.287021e+06
  -9.270778e+05  -1.570754e+05
  -4.364353e+05  -1.188947e+06
   1.881085e+05  -9.969316e+05
   5.393613e+05  -9.587478e+04
   4.932318e+05   4.098774e+05
   2.092498e+05   1.701187e+05
   3.271567e+04  -1.136793e+05
   1.891755e+05   2.461060e+05
   4.366768e+05   9.456458e+05
   2.132835e+05   1.092385e+06
  -6.406883e+05   3.884298e+05
  -1.442755e+06  -5.168789e+05
  -1.290710e+06  -8.825822e+05
  -1.658353e+05  -6.811067e+05
   9.084909e+05  -3.624437e+05
   9.986745e+05  -1.588892e+05
   3.119895e+05   2.390955e+04
  -1.720580e+05   2.059767e+05
   1.544175e+04   2.447561e+05
   3.176526e+05   1.533195e+05
   1.688907e+04   1.317074e+05
  -7.261860e+05   1.644929e+05
  -1.012501e+06  -7.327802e+04
  -2.983764e+05  -6.655724e+05
   9.293494e+05  -1.065464e+06
   1.641107e+06  -6.289770e+05
   1.273667e+06   5.033661e+05
   1.815985e+05   1.394656e+06
  -7.869656e+05   1.295697e+06
  -1.039955e+06   4.381323e+05
  -6.340400e+05  -2.934195e+05
  -8.792159e+04  -3.498085e+05
   1.202589e+05  -1.272477e+04
  -6.790271e+04   6.093370e+04
  -3.125143e+05  -3.590907e+05
  -2.336814e+05  -8.063440e+05
   2.144941e+05  -6.408583e+05
   6.653194e+05   1.921831e+05
   6.370948e+05   9.962437e+05
   2.679641e+03   9.935298e+05
  -7.719884e+05   1.446081e+05
  -9.508656e+05  -7.991792e+05
  -2.555801e+05  -1.069292e+06
   7.271574e+05  -5.861022e+05
   1.057820e+06   1.321873e+05
   4.679488e+05   5.744881e+05
  -2.947742e+05   5.979895e+05
  -3.358515e+05   3.406042e+05
   2.902102e+05   5.082437e+04
   6.490607e+05   9.118459e+02
   1.139028e+05   2.934880e+05
  -8.379441e+05   6.357901e+05
  -1.217659e+06   5.232366e+05
  -6.936629e+05  -1.539468e+05
   1.320018e+05  -8.239208e+05
   5.263019e+05  -8.012553e+05
   3.630193e+05  -1.127535e+05
  -2.873053e+02   4.866544e+05
  -2.566733e+05   3.849705e+05
  -3.312514e+05  -2.060269e+05
  -2.157035e+05  -5.756561e+05
   7.377439e+04  -3.702568e+05
   3.740159e+05   8.056705e+04
   4.431938e+05   2.590741e+05
   2.384025e+05   7.557598e+04
  -1.114568e+04  -1.068941e+05
  -9.389629e+04   2.968874e+04
  -7.435760e+04   3.625245e+05
  -1.534838e+05   4.655309e+05
  -3.328818e+05   1.090228e+05
  -3.583147e+05  -4.328993e+05
  -4.137868e+04  -6.300334e+05
   4.314152e+05  -2.617940e+05
   5.998052e+05   3.263466e+05
   1.954464e+05   5.851825e+05
  -4.966428e+05   3.311180e+05
  -8.275248e+05  -1.273668e+05
  -4.376769e+05  -3.882901e+05
   2.973481e+05  -3.437984e+05
   6.131882e+05  -1.552265e+05
   2.080379e+05  -7.188828e+03
  -3.837560e+05   4.110728e+03
  -4.044188e+05  -1.354332e+05
   2.245583e+05  -2.990497e+05
   8.051983e+05  -2.165678e+05
