
 $NMID
 id='ANONYMOUS ', fmtdat='(2E16.6)'
 volume=1.0
 tramp=1.0
 $END
  -2.132337e+07  -1.496776e+05
  -1.384875e+07  -1.063903e+07
   6.247465e+05  -1.359766e+07
   9.396909e+06  -8.292554e+06
   7.406229e+06  -2.837190e+05
   1.783683e+05   3.752345e+06
  -4.180255e+06   1.530760e+06
  -2.884511e+06  -3.430506e+06
   1.189762e+06  -5.471294e+06
   3.917463e+06  -2.322009e+06
   3.346040e+06   2.704433e+06
   4.340344e+05   4.304429e+06
  -2.000950e+06   9.630487e+05
  -1.593686e+06  -3.453780e+06
   1.245824e+06  -4.078921e+06
   3.478016e+06  -2.655353e+05
   2.508571e+06   4.148194e+06
  -1.045488e+06   5.192082e+06
  -4.065836e+06   2.483089e+06
  -4.171850e+06  -1.193624e+06
  -1.876051e+06  -3.022424e+06
   2.690432e+05  -2.530184e+06
   3.074317e+05  -1.404654e+06
  -1.209275e+06  -1.446922e+06
  -1.761861e+06  -2.668992e+06
   4.119312e+05  -3.351361e+06
   3.987931e+06  -2.052251e+06
   5.504599e+06   6.233124e+05
   3.129359e+06   2.563749e+06
  -9.969235e+05   2.332054e+06
  -2.928709e+06   4.505280e+05
  -1.212112e+06  -1.330283e+06
   1.802809e+06  -1.550217e+06
   2.928352e+06   1.107353e+04
   1.499394e+06   2.150530e+06
  -5.862115e+05   2.930864e+06
  -1.380227e+06   1.407112e+06
  -6.855250e+05  -9.771312e+05
   3.102468e+05  -1.555874e+06
   4.384589e+05   3.782708e+05
  -4.669946e+05   2.350008e+06
  -1.490723e+06   1.637989e+06
  -1.411146e+06  -1.109239e+06
   7.982380e+04  -2.514209e+06
   1.765000e+06  -7.286463e+05
   1.826674e+06   2.262555e+06
  -2.842855e+05   3.132527e+06
  -2.963591e+06   1.029464e+06
  -3.741322e+06  -1.884795e+06
  -1.665586e+06  -3.082723e+06
   1.607840e+06  -1.972739e+06
   3.264127e+06   1.437923e+05
   2.016144e+06   1.520444e+06
  -6.625277e+05   1.290005e+06
  -2.098839e+06  -9.350600e+03
  -1.182704e+06  -9.693367e+05
   6.407143e+05  -6.697093e+05
   1.188983e+06   3.894015e+05
   2.875459e+04   9.129362e+05
  -1.196594e+06   3.104119e+05
  -8.155017e+05  -7.254479e+05
   9.223851e+05  -1.071437e+06
   2.135369e+06  -2.443858e+05
   1.337548e+06   1.316822e+06
  -1.046084e+06   2.562680e+06
  -3.135438e+06   2.394925e+06
  -3.394562e+06   5.152464e+05
  -1.948744e+06  -1.979623e+06
  -2.256259e+05  -3.312408e+06
   5.683114e+05  -2.767461e+06
   5.086315e+05  -1.429967e+06
   5.302246e+05  -7.829648e+05
   1.172966e+06  -8.817587e+05
   1.968282e+06  -5.342150e+05
   2.021854e+06   8.063857e+05
   9.822947e+05   2.066529e+06
  -5.944096e+05   1.800943e+06
  -1.644655e+06  -5.535868e+03
  -1.347955e+06  -1.812019e+06
   2.036949e+05  -2.081383e+06
   1.888906e+06  -6.916139e+05
   2.361447e+06   1.140053e+06
   1.300579e+06   2.083953e+06
  -2.254367e+05   1.806739e+06
  -9.287430e+05   1.029667e+06
  -7.619743e+05   6.256680e+05
  -8.350226e+05   7.070860e+05
  -1.810831e+06   6.150988e+05
  -2.821832e+06  -2.497012e+05
  -2.370839e+06  -1.687989e+06
  -1.809675e+05  -2.786897e+06
   2.239552e+06  -2.668612e+06
   3.015489e+06  -1.232756e+06
   1.740797e+06   6.424457e+05
  -1.990423e+05   1.655695e+06
  -1.052630e+06   1.155877e+06
  -3.479692e+05  -1.580578e+05
   8.534659e+05  -8.385415e+05
   1.205892e+06  -2.333166e+05
   4.498247e+05   7.566008e+05
  -4.741424e+05   7.832934e+05
  -5.319530e+05  -2.136376e+05
   3.424521e+05  -8.484731e+05
   1.250242e+06   8.948255e+03
   1.201844e+06   1.769740e+06
  -3.846289e+04   2.690865e+06
  -1.747360e+06   1.745483e+06
  -2.726551e+06  -3.587711e+05
  -2.198281e+06  -1.976859e+06
  -5.284326e+05  -2.091203e+06
   9.604282e+05  -1.067640e+06
   1.175134e+06  -8.682824e+04
   3.442898e+05   2.920486e+04
  -2.654812e+05  -5.084556e+05
   1.831865e+05  -8.322541e+05
   1.130598e+06  -4.033454e+05
   1.325621e+06   4.264658e+05
   3.676983e+05   8.424363e+05
  -7.562443e+05   4.628878e+05
  -7.624709e+05  -2.806578e+05
   4.730589e+05  -6.021748e+05
   1.708921e+06  -9.939138e+04
   1.590220e+06   9.051147e+05
   4.173139e+04   1.612300e+06
  -1.620311e+06   1.373209e+06
  -1.967791e+06   2.830496e+05
  -8.401963e+05  -7.819753e+05
   5.618112e+05  -9.141104e+05
   9.202722e+05  -1.099760e+05
   6.194626e+04   6.623825e+05
  -1.011815e+06   4.953266e+05
  -1.215896e+06  -4.437358e+05
  -4.016805e+05  -1.122889e+06
   6.199612e+05  -8.400901e+05
   9.188653e+05   1.659360e+04
   3.156272e+05   4.759224e+05
  -4.626685e+05   7.480926e+04
  -4.835492e+05  -6.985903e+05
   4.253609e+05  -9.682154e+05
   1.405374e+06  -3.430149e+05
   1.397282e+06   7.379880e+05
   2.858766e+05   1.413484e+06
  -9.263441e+05   1.154599e+06
  -1.173323e+06   2.246393e+05
  -4.214280e+05  -5.644919e+05
   4.136816e+05  -6.072716e+05
   5.267535e+05  -5.556142e+04
  -8.234720e+02   4.037524e+05
  -4.585971e+05   3.141473e+05
  -3.369722e+05  -7.881763e+04
   1.789671e+05  -1.641411e+05
   4.399076e+05   2.848380e+05
  -4.594785e+03   7.964704e+05
  -9.053502e+05   6.753212e+05
  -1.455433e+06  -2.396655e+05
  -1.035806e+06  -1.330296e+06
   1.269021e+05  -1.731295e+06
   1.133712e+06  -1.124504e+06
   1.301187e+06  -2.381849e+04
   7.909640e+05   7.222158e+05
   2.929177e+05   7.172121e+05
   2.035458e+05   3.161434e+05
   2.752749e+05   1.555025e+05
   4.559954e+04   4.260436e+05
  -5.486127e+05   6.712797e+05
  -1.042585e+06   3.369643e+05
  -8.703159e+05  -5.212985e+05
   7.284518e+04  -1.166031e+06
   1.209282e+06  -8.764063e+05
   1.642242e+06   2.823326e+05
   9.038722e+05   1.431836e+06
  -5.527823e+05   1.660568e+06
  -1.674069e+06   8.449831e+05
  -1.721238e+06  -2.935323e+05
  -8.826720e+05  -9.177085e+05
   2.339940e+04  -8.305431e+05
   3.809282e+05  -5.198687e+05
   2.616886e+05  -5.170194e+05
   1.681446e+05  -7.900431e+05
   4.236813e+05  -8.116761e+05
   8.387902e+05  -2.025492e+05
   9.194684e+05   7.612807e+05
   3.925371e+05   1.336643e+06
  -4.433867e+05   1.018127e+06
  -9.180953e+05   3.949018e+04
  -6.210736e+05  -8.298933e+05
   1.570428e+05  -9.727049e+05
   6.904176e+05  -4.171622e+05
   5.581392e+05   2.934360e+05
   5.247985e+04   6.485485e+05
  -2.034550e+05   5.741782e+05
   1.339643e+04   3.587553e+05
   2.780102e+05   2.694935e+05
   2.584961e+04   2.847793e+05
  -7.476478e+05   1.793636e+05
  -1.372717e+06  -1.808601e+05
  -1.145068e+06  -6.560073e+05
  -8.716612e+04  -9.297589e+05
   9.875962e+05  -7.805243e+05
   1.240577e+06  -2.870447e+05
   6.258626e+05   2.024457e+05
  -1.255908e+05   3.379002e+05
  -3.217410e+05   8.343385e+04
   1.836611e+04  -2.157273e+05
   3.542089e+05  -1.621785e+05
   3.255609e+05   2.403121e+05
   8.444219e+04   5.385068e+05
  -2.255925e+04   3.459230e+05
   1.057303e+05  -1.372594e+05
   2.693304e+05  -2.960321e+05
   2.149749e+05   1.494824e+05
  -1.401059e+05   7.317304e+05
  -6.204418e+05   7.395464e+05
  -8.428413e+05   6.523663e+04
  -4.907299e+05  -6.446449e+05
   2.863878e+05  -7.130223e+05
   8.192280e+05  -1.494602e+05
   5.069292e+05   4.315712e+05
  -4.642358e+05   4.831647e+05
  -1.166280e+06   2.620450e+03
  -8.507857e+05  -5.723550e+05
   2.343787e+05  -7.846014e+05
   1.080697e+06  -4.930580e+05
   9.637664e+05   4.881029e+04
   1.516665e+05   3.857957e+05
  -4.451819e+05   2.438460e+05
  -2.421402e+05  -1.748271e+05
   4.580433e+05  -3.273926e+05
   8.312964e+05   1.232928e+05
   3.949278e+05   8.735356e+05
  -5.150270e+05   1.176616e+06
  -1.101934e+06   5.712804e+05
  -8.936522e+05  -5.713617e+05
  -1.392778e+05  -1.301077e+06
   5.240860e+05  -9.806066e+05
   6.800968e+05   6.064958e+04
   3.786699e+05   8.415414e+05
  -7.068740e+04   7.399129e+05
  -3.774487e+05   9.743084e+04
  -3.949543e+05  -2.807443e+05
  -1.831524e+05  -1.175383e+05
  -9.135178e+03   8.845608e+04
  -1.083596e+05  -1.668179e+05
  -3.349952e+05  -6.710736e+05
  -2.209988e+05  -7.856375e+05
   4.204005e+05  -2.999995e+05
   1.073089e+06   3.283275e+05
   9.958187e+05   5.925113e+05
   1.448635e+05   4.841191e+05
  -6.738148e+05   2.978069e+05
  -7.284227e+05   1.598222e+05
  -2.045440e+05   8.444092e+02
   1.284821e+05  -1.558200e+05
  -5.034463e+04  -1.834315e+05
  -2.699204e+05  -1.087503e+05
  -5.574963e+03  -1.005604e+05
   5.584674e+05  -1.402236e+05
   7.387003e+05   3.285498e+04
   1.930731e+05   4.838295e+05
  -6.782710e+05   7.944476e+05
  -1.163619e+06   4.792210e+05
  -9.115257e+05  -3.566933e+05
  -1.630581e+05  -1.019171e+06
   5.305831e+05  -9.547409e+05
   7.501182e+05  -3.294413e+05
   4.794249e+05   2.102509e+05
   6.153329e+04   2.555226e+05
  -1.173348e+05   3.236862e+03
   3.247045e+04  -6.308163e+04
   2.488710e+05   2.396783e+05
   2.051392e+05   5.768823e+05
  -1.455847e+05   4.685953e+05
  -5.016429e+05  -1.387041e+05
  -4.810851e+05  -7.319291e+05
   2.327426e+03  -7.302177e+05
   5.836175e+05  -1.051132e+05
   7.136708e+05   5.838123e+05
   1.971858e+05   7.761234e+05
  -5.243900e+05   4.280697e+05
  -7.631900e+05  -7.924821e+04
  -3.353571e+05  -3.916200e+05
   2.039853e+05  -4.182069e+05
   2.144879e+05  -2.446317e+05
  -2.406113e+05  -3.107499e+04
  -4.807498e+05   1.520041e+04
  -8.097816e+04  -2.085110e+05
   5.918390e+05  -4.899440e+05
   8.456041e+05  -4.272739e+05
   4.788107e+05   8.096807e+04
  -7.876072e+04   5.947188e+05
  -3.427395e+05   5.813992e+05
  -2.420998e+05   6.642613e+04
  -2.993878e+03  -3.689924e+05
   1.854709e+05  -2.754160e+05
   2.552387e+05   1.629575e+05
   1.694789e+05   4.156400e+05
  -5.612601e+04   2.532381e+05
  -2.768099e+05  -5.879408e+04
  -3.172949e+05  -1.636402e+05
  -1.712166e+05  -3.470390e+04
  -5.754634e+03   6.350892e+04
   5.601740e+04  -6.046734e+04
   7.121048e+04  -2.903127e+05
   1.513852e+05  -3.324047e+05
   2.666554e+05  -5.165062e+04
   2.510411e+05   3.421340e+05
   7.922485e+03   4.741134e+05
  -3.225369e+05   1.945598e+05
  -4.353554e+05  -2.418725e+05
  -1.490309e+05  -4.341790e+05
   3.475741e+05  -2.489234e+05
   5.962750e+05   8.557311e+04
   3.226188e+05   2.742742e+05
  -2.130852e+05   2.413708e+05
  -4.433404e+05   1.063538e+05
  -1.348097e+05   1.467333e+03
   3.102931e+05  -2.435618e+03
   3.160756e+05   1.105953e+05
  -1.716410e+05   2.453964e+05
  -6.152567e+05   1.882711e+05
