
 $NMID
 id='ANONYMOUS ', fmtdat='(2E16.6)'
 volume=1.0
 tramp=1.0
 $END
  -5.181138e+07   4.069840e+06
  -3.433653e+07  -2.936176e+07
   3.547252e+06  -3.585323e+07
   2.461185e+07  -1.615483e+07
   1.638875e+07   4.931682e+06
  -2.148729e+06   9.112047e+06
  -9.558012e+06  -1.334836e+05
  -3.640085e+06  -9.054922e+06
   5.151678e+06  -9.587952e+06
   9.050442e+06  -2.773721e+06
   6.950839e+06   5.379062e+06
   1.221918e+06   8.062898e+06
  -3.545700e+06   2.720093e+06
  -2.685016e+06  -5.163084e+06
   3.231278e+06  -6.613960e+06
   7.563388e+06   6.056431e+05
   4.930166e+06   9.260424e+06
  -2.675947e+06   1.132767e+07
  -8.952444e+06   6.176719e+06
  -1.004012e+07  -1.183569e+06
  -6.500661e+06  -6.329268e+06
  -1.307752e+06  -7.686913e+06
   1.942863e+06  -5.767489e+06
   1.246315e+06  -3.022326e+06
  -1.094420e+06  -2.462510e+06
  -1.471246e+05  -4.048912e+06
   5.058571e+06  -4.177202e+06
   9.042101e+06  -7.072073e+05
   6.697620e+06   3.537349e+06
   3.407923e+05   4.526234e+06
  -3.412211e+06   2.287870e+06
  -2.096375e+06  -8.794703e+04
   9.732866e+05  -8.522041e+05
   2.396760e+06  -2.314780e+05
   1.971199e+06   1.557281e+06
   5.311547e+05   3.679267e+06
  -1.489628e+06   3.551614e+06
  -2.725982e+06   6.846704e+04
  -1.641121e+06  -3.087153e+06
   4.080723e+05  -1.605567e+06
   1.466339e+05   2.388782e+06
  -2.326702e+06   2.343563e+06
  -2.591641e+06  -2.825201e+06
   1.666140e+06  -6.001036e+06
   6.223042e+06  -1.654029e+06
   5.259136e+06   5.914656e+06
  -1.039341e+06   8.045142e+06
  -6.704368e+06   2.762903e+06
  -6.889464e+06  -3.814564e+06
  -2.177693e+06  -5.729552e+06
   3.218469e+06  -2.872371e+06
   5.260736e+06   1.162198e+06
   2.653390e+06   3.260574e+06
  -2.096840e+06   2.326470e+06
  -4.363861e+06  -5.233972e+05
  -2.085761e+06  -2.427468e+06
   1.505081e+06  -1.416158e+06
   1.774218e+06   9.102116e+05
  -1.150198e+06   1.138096e+06
  -2.625010e+06  -1.297703e+06
   2.094150e+04  -3.286504e+06
   4.026281e+06  -2.298272e+06
   5.132808e+06   7.412289e+05
   2.541686e+06   3.534397e+06
  -1.438903e+06   5.020450e+06
  -4.580033e+06   4.715562e+06
  -5.741860e+06   1.855097e+06
  -4.354963e+06  -2.751588e+06
  -1.130530e+06  -5.770861e+06
   1.505348e+06  -4.730941e+06
   1.673224e+06  -1.461029e+06
   4.089360e+05   1.387289e+05
   2.081454e+05  -7.906894e+05
   1.572570e+06  -1.507601e+06
   2.599536e+06  -9.972743e+04
   1.825128e+06   1.914778e+06
  -9.811149e+04   2.058025e+06
  -1.600518e+06   1.085219e+05
  -1.659565e+06  -2.105495e+06
  -1.598211e+04  -2.854452e+06
   2.597596e+06  -1.599932e+06
   4.218910e+06   1.009418e+06
   3.151959e+06   3.365387e+06
   2.049477e+05   3.905006e+06
  -1.911665e+06   2.665513e+06
  -1.995626e+06   1.266168e+06
  -1.747599e+06   8.245972e+05
  -2.889315e+06   6.189097e+05
  -4.302351e+06  -5.811469e+05
  -3.511870e+06  -2.604223e+06
  -2.357060e+05  -4.060216e+06
   3.077656e+06  -3.889819e+06
   4.047082e+06  -2.103646e+06
   2.543717e+06   4.077355e+05
   2.269898e+05   2.145783e+06
  -1.064906e+06   1.842524e+06
  -5.249376e+05  -4.027605e+04
   1.052089e+06  -1.281656e+06
   1.843413e+06  -4.423999e+05
   9.122213e+05   1.122724e+06
  -5.106551e+05   1.089743e+06
  -4.803152e+05  -4.076077e+05
   1.033335e+06  -8.404341e+05
   2.002708e+06   1.074058e+06
   9.453958e+05   3.442907e+06
  -1.378315e+06   3.632875e+06
  -3.170501e+06   1.396702e+06
  -3.472648e+06  -1.328798e+06
  -2.385827e+06  -2.798284e+06
  -4.810390e+05  -2.649301e+06
   1.222167e+06  -1.457901e+06
   1.552944e+06  -2.284356e+05
   4.881848e+05   3.607468e+04
  -3.727243e+05  -7.370803e+05
   3.497247e+05  -1.335087e+06
   1.843228e+06  -6.414631e+05
   2.045759e+06   7.946023e+05
   4.471393e+05   1.388849e+06
  -1.151110e+06   6.061060e+05
  -9.152801e+05  -4.551847e+05
   8.559313e+05  -5.867295e+05
   2.247986e+06   2.643182e+05
   1.811114e+06   1.372411e+06
  -2.226660e+05   2.026984e+06
  -2.294531e+06   1.706223e+06
  -2.759289e+06   3.266385e+05
  -1.242881e+06  -1.213598e+06
   8.465719e+05  -1.496488e+06
   1.510906e+06  -2.424611e+05
   2.232395e+05   1.037863e+06
  -1.477559e+06   7.616177e+05
  -1.734920e+06  -7.322768e+05
  -3.912031e+05  -1.655440e+06
   1.073027e+06  -1.033196e+06
   1.292053e+06   2.672760e+05
   2.887820e+05   7.862887e+05
  -7.817837e+05   9.000565e+04
  -7.506676e+05  -1.019504e+06
   5.430735e+05  -1.412866e+06
   1.972146e+06  -5.681139e+05
   2.030412e+06   9.993680e+05
   4.258607e+05   2.046127e+06
  -1.387810e+06   1.667631e+06
  -1.715734e+06   2.543774e+05
  -5.292468e+05  -8.590074e+05
   6.408329e+05  -8.214073e+05
   6.372855e+05  -7.163252e+04
  -1.283519e+05   3.939332e+05
  -5.288678e+05   2.159253e+05
  -1.492917e+05  -1.129766e+05
   4.672827e+05   1.541512e+04
   5.679650e+05   6.466513e+05
  -1.600559e+05   1.200048e+06
  -1.354424e+06   9.279527e+05
  -2.077638e+06  -3.672695e+05
  -1.491686e+06  -1.897088e+06
   1.755362e+05  -2.410238e+06
   1.599648e+06  -1.443306e+06
   1.710447e+06   1.029676e+05
   8.715152e+05   9.194174e+05
   2.869560e+05   6.860793e+05
   4.298977e+05   2.059010e+05
   6.168908e+05   2.613048e+05
   1.208559e+05   7.379347e+05
  -8.512775e+05   9.239867e+05
  -1.451842e+06   3.548018e+05
  -1.065548e+06  -7.237442e+05
   2.361538e+05  -1.485979e+06
   1.709641e+06  -1.106392e+06
   2.252704e+06   4.452157e+05
   1.179428e+06   2.075012e+06
  -9.405757e+05   2.388543e+06
  -2.508906e+06   1.099668e+06
  -2.378891e+06  -6.052913e+05
  -9.992129e+05  -1.345460e+06
   2.036406e+05  -9.824855e+05
   4.193909e+05  -5.120269e+05
   8.755512e+04  -7.081083e+05
   6.796285e+04  -1.263035e+06
   6.187236e+05  -1.284947e+06
   1.263230e+06  -3.483945e+05
   1.340933e+06   1.042872e+06
   5.839846e+05   1.867343e+06
  -5.927806e+05   1.434119e+06
  -1.282490e+06   2.230163e+04
  -8.457259e+05  -1.257740e+06
   3.473114e+05  -1.409827e+06
   1.153718e+06  -4.602806e+05
   8.498145e+05   6.514169e+05
  -6.755659e+04   1.080167e+06
  -5.021189e+05   8.183918e+05
  -8.072490e+04   4.344713e+05
   4.260907e+05   3.236663e+05
   6.162116e+04   3.773066e+05
  -1.133020e+06   2.427813e+05
  -2.050158e+06  -2.725523e+05
  -1.634260e+06  -9.916280e+05
  -1.483704e+04  -1.433987e+06
   1.535677e+06  -1.179334e+06
   1.820868e+06  -3.259792e+05
   8.653295e+05   4.663764e+05
  -2.307604e+05   5.722046e+05
  -5.131100e+05   5.583970e+04
  -4.878043e+04  -4.008234e+05
   4.345130e+05  -2.544643e+05
   4.822252e+05   3.271523e+05
   2.503193e+05   6.967548e+05
   9.414553e+04   4.569215e+05
   1.482551e+05  -1.012706e+05
   2.947770e+05  -2.895472e+05
   2.816230e+05   2.278220e+05
  -1.321515e+05   9.755819e+05
  -8.675816e+05   1.074368e+06
  -1.325075e+06   2.162347e+05
  -8.524469e+05  -8.691978e+05
   3.720965e+05  -1.130549e+06
   1.217645e+06  -3.642608e+05
   7.321398e+05   5.536296e+05
  -6.862393e+05   6.632862e+05
  -1.592195e+06  -6.959022e+04
  -1.029204e+06  -8.612759e+05
   4.709024e+05  -1.015116e+06
   1.507546e+06  -5.073731e+05
   1.247736e+06   1.791931e+05
   1.414827e+05   5.193888e+05
  -6.484385e+05   2.844060e+05
  -3.913276e+05  -2.770014e+05
   5.637128e+05  -5.192431e+05
   1.162038e+06   5.758351e+04
   6.802392e+05   1.143391e+06
  -5.465233e+05   1.681753e+06
  -1.443823e+06   8.988191e+05
  -1.255583e+06  -7.265768e+05
  -2.322503e+05  -1.773559e+06
   7.207020e+05  -1.300932e+06
   9.348934e+05   1.605479e+05
   4.532382e+05   1.188743e+06
  -2.088279e+05   9.831737e+05
  -5.637953e+05   9.883945e+04
  -4.674659e+05  -3.780075e+05
  -1.606078e+05  -1.462336e+05
  -5.070582e+04   1.004332e+05
  -2.933920e+05  -2.701297e+05
  -5.292354e+05  -9.437638e+05
  -2.062234e+05  -1.083463e+06
   7.069113e+05  -4.236543e+05
   1.473934e+06   4.361378e+05
   1.286590e+06   8.215187e+05
   2.003127e+05   6.928395e+05
  -8.358146e+05   4.211789e+05
  -9.783854e+05   1.948699e+05
  -3.694456e+05  -3.629324e+04
   1.374667e+05  -2.224785e+05
   4.254585e+04  -2.177700e+05
  -2.520724e+05  -1.019646e+05
  -5.402567e+04  -1.245961e+05
   6.404118e+05  -2.337277e+05
   1.035355e+06  -1.600930e+04
   4.563260e+05   6.547503e+05
  -7.931176e+05   1.177025e+06
  -1.662020e+06   8.059313e+05
  -1.409809e+06  -3.713884e+05
  -3.062996e+05  -1.381837e+06
   7.252937e+05  -1.390351e+06
   1.018267e+06  -5.646439e+05
   6.462627e+05   2.130095e+05
   1.449875e+05   3.457817e+05
  -5.232921e+04   5.838486e+04
   9.344399e+04  -1.852584e+04
   3.082647e+05   3.677089e+05
   2.616999e+05   8.029072e+05
  -1.560038e+05   6.772199e+05
  -6.667427e+05  -9.984229e+04
  -7.527910e+05  -9.096824e+05
  -1.538282e+05  -1.004260e+06
   7.198204e+05  -2.657874e+05
   1.035169e+06   6.734342e+05
   3.820690e+05   1.062109e+06
  -6.764166e+05   6.961787e+05
  -1.112256e+06  -3.373039e+04
  -5.598005e+05  -5.916264e+05
   2.535252e+05  -6.907236e+05
   3.716852e+05  -3.897492e+05
  -2.309574e+05  -1.248651e+04
  -6.385984e+05   5.429442e+04
  -1.597046e+05  -2.987584e+05
   8.030046e+05  -6.940055e+05
   1.253920e+06  -5.736432e+05
   7.816466e+05   1.497450e+05
  -6.587894e+04   8.677412e+05
  -5.279369e+05   8.803697e+05
  -4.179899e+05   1.932837e+05
  -6.621076e+04  -4.622235e+05
   2.157702e+05  -4.415358e+05
   3.403897e+05   1.275046e+05
   2.691512e+05   5.632219e+05
  -2.636263e+04   4.307239e+05
  -3.839969e+05  -2.844521e+04
  -4.916831e+05  -2.675053e+05
  -2.510983e+05  -9.488029e+04
   5.302441e+04   1.493468e+05
   1.037010e+05   5.648132e+04
  -2.770971e+04  -3.264172e+05
   1.689632e+02  -5.334027e+05
   2.807230e+05  -2.365367e+05
   4.640518e+05   3.339225e+05
   1.906592e+05   6.138112e+05
  -3.840481e+05   3.226476e+05
  -6.657147e+05  -2.421126e+05
  -2.689827e+05  -5.503928e+05
   4.938893e+05  -3.827216e+05
   8.781875e+05   3.646732e+04
   4.891190e+05   3.563068e+05
  -2.699497e+05   4.138534e+05
  -6.182420e+05   2.587323e+05
  -2.545537e+05   3.737185e+04
   3.185646e+05  -7.331378e+04
   3.869266e+05   4.369513e+04
  -1.561429e+05   2.747185e+05
  -7.112918e+05   2.732281e+05
