
 $NMID
 id='ANONYMOUS ', fmtdat='(2E16.6)'
 volume=1.0
 tramp=1.0
 $END
  -3.177534e+07   1.322849e+06
  -2.201781e+07  -1.454116e+07
  -5.956453e+05  -2.051220e+07
   1.364138e+07  -1.370964e+07
   1.168912e+07  -1.310851e+06
   7.611585e+05   5.841582e+06
  -6.514943e+06   2.869745e+06
  -4.919534e+06  -5.143316e+06
   1.471681e+06  -8.769923e+06
   5.962351e+06  -3.986087e+06
   5.252633e+06   3.958041e+06
   8.194226e+05   6.588179e+06
  -2.985532e+06   1.489039e+06
  -2.513570e+06  -5.375374e+06
   1.778617e+06  -6.486107e+06
   5.375820e+06  -7.116477e+05
   4.148865e+06   6.179268e+06
  -1.218662e+06   8.007410e+06
  -5.956843e+06   4.008964e+06
  -6.253832e+06  -1.556368e+06
  -2.876918e+06  -4.298809e+06
   1.912189e+05  -3.572841e+06
   7.089713e+04  -2.082200e+06
  -2.185776e+06  -2.445439e+06
  -2.771974e+06  -4.392637e+06
   7.380624e+05  -5.263113e+06
   6.203071e+06  -3.114903e+06
   8.452738e+06   9.622445e+05
   4.775368e+06   3.843685e+06
  -1.578021e+06   3.449316e+06
  -4.522293e+06   5.502346e+05
  -1.741857e+06  -2.177598e+06
   3.043828e+06  -2.408309e+06
   4.703617e+06   1.621451e+05
   2.258557e+06   3.486221e+06
  -1.036572e+06   4.533176e+06
  -2.068302e+06   2.078595e+06
  -8.475104e+05  -1.487948e+06
   5.485292e+05  -2.221891e+06
   5.326685e+05   7.525202e+05
  -8.538807e+05   3.696789e+06
  -2.321744e+06   2.600317e+06
  -2.286566e+06  -1.607604e+06
  -1.848492e+05  -3.920247e+06
   2.477459e+06  -1.413878e+06
   2.926298e+06   3.157471e+06
  -1.000107e+05   4.743900e+06
  -4.387802e+06   1.749568e+06
  -5.883173e+06  -2.745144e+06
  -2.756915e+06  -4.767668e+06
   2.452484e+06  -3.181348e+06
   5.171410e+06   9.710994e+04
   3.280835e+06   2.325127e+06
  -9.202375e+05   2.090967e+06
  -3.250548e+06   1.396267e+05
  -1.921436e+06  -1.416137e+06
   9.284764e+05  -1.072562e+06
   1.894599e+06   5.765326e+05
   1.147414e+05   1.541808e+06
  -1.959598e+06   6.831324e+05
  -1.545422e+06  -1.083287e+06
   1.203937e+06  -1.858001e+06
   3.306823e+06  -6.368960e+05
   2.202778e+06   1.902732e+06
  -1.523617e+06   3.941839e+06
  -4.805262e+06   3.707089e+06
  -5.185721e+06   8.279387e+05
  -2.965569e+06  -2.979941e+06
  -4.037765e+05  -5.073067e+06
   7.690553e+05  -4.358995e+06
   7.749042e+05  -2.366410e+06
   9.529140e+05  -1.290215e+06
   1.974901e+06  -1.306861e+06
   3.115487e+06  -7.019456e+05
   3.102762e+06   1.363839e+06
   1.443855e+06   3.279663e+06
  -1.017151e+06   2.808494e+06
  -2.626766e+06  -6.893894e+04
  -2.107635e+06  -2.896314e+06
   3.394814e+05  -3.257118e+06
   2.923969e+06  -1.048827e+06
   3.613650e+06   1.752477e+06
   2.002576e+06   3.139179e+06
  -2.718853e+05   2.711915e+06
  -1.318839e+06   1.592902e+06
  -1.104139e+06   1.037502e+06
  -1.287496e+06   1.174277e+06
  -2.845839e+06   1.019380e+06
  -4.440010e+06  -3.399300e+05
  -3.745613e+06  -2.618493e+06
  -3.079085e+05  -4.378806e+06
   3.509315e+06  -4.194753e+06
   4.725109e+06  -1.911645e+06
   2.695844e+06   1.030311e+06
  -3.559508e+05   2.578140e+06
  -1.662645e+06   1.774701e+06
  -5.306769e+05  -2.573634e+05
   1.342511e+06  -1.304043e+06
   1.878320e+06  -3.751828e+05
   6.964026e+05   1.163002e+06
  -7.553639e+05   1.221953e+06
  -8.643124e+05  -3.499272e+05
   5.288777e+05  -1.404933e+06
   2.038609e+06  -7.996314e+04
   2.025128e+06   2.778866e+06
   2.463428e+04   4.353097e+06
  -2.782677e+06   2.881980e+06
  -4.383919e+06  -5.289043e+05
  -3.515875e+06  -3.159251e+06
  -8.334411e+05  -3.330423e+06
   1.519648e+06  -1.676788e+06
   1.847151e+06  -1.259427e+05
   5.411886e+05   4.460485e+04
  -4.214410e+05  -7.983082e+05
   2.663802e+05  -1.307467e+06
   1.755851e+06  -6.542459e+05
   2.091760e+06   6.395877e+05
   6.021254e+05   1.317201e+06
  -1.187472e+06   7.409295e+05
  -1.216706e+06  -4.487135e+05
   7.515605e+05  -9.830495e+05
   2.733598e+06  -1.770263e+05
   2.543209e+06   1.447122e+06
   7.067352e+04   2.576910e+06
  -2.562939e+06   2.183872e+06
  -3.102769e+06   4.567784e+05
  -1.330241e+06  -1.215336e+06
   8.604641e+05  -1.431301e+06
   1.426612e+06  -1.878128e+05
   9.905067e+04   1.024538e+06
  -1.582412e+06   7.832782e+05
  -1.922642e+06  -6.852350e+05
  -6.536247e+05  -1.775179e+06
   9.719324e+05  -1.350351e+06
   1.466158e+06   7.308403e+03
   5.176195e+05   7.532700e+05
  -7.215196e+05   1.309000e+05
  -7.626112e+05  -1.090482e+06
   6.656789e+05  -1.518645e+06
   2.204907e+06  -5.395038e+05
   2.195189e+06   1.153882e+06
   4.583550e+05   2.218337e+06
  -1.444832e+06   1.824795e+06
  -1.846490e+06   3.670514e+05
  -6.742878e+05  -8.879432e+05
   6.482277e+05  -9.640512e+05
   8.363492e+05  -8.079527e+04
  -6.023671e+03   6.579515e+05
  -7.473978e+05   5.018546e+05
  -5.527175e+05  -1.494213e+05
   2.870302e+05  -2.934045e+05
   7.174083e+05   4.343702e+05
   1.281252e+04   1.261297e+06
  -1.419062e+06   1.074970e+06
  -2.292767e+06  -3.671225e+05
  -1.635658e+06  -2.085703e+06
   1.953616e+05  -2.727171e+06
   1.791257e+06  -1.783777e+06
   2.066960e+06  -4.166625e+04
   1.255583e+06   1.159498e+06
   4.456594e+05   1.158843e+06
   2.928720e+05   5.005576e+05
   4.226794e+05   2.220311e+05
   8.151809e+04   6.567490e+05
  -8.570441e+05   1.066997e+06
  -1.650629e+06   5.417406e+05
  -1.382141e+06  -8.303940e+05
   1.135434e+05  -1.857028e+06
   1.909980e+06  -1.393769e+06
   2.594218e+06   4.394606e+05
   1.439459e+06   2.254256e+06
  -8.490291e+05   2.626261e+06
  -2.629423e+06   1.354932e+06
  -2.729090e+06  -4.465253e+05
  -1.413113e+06  -1.457561e+06
   3.777786e+04  -1.333577e+06
   6.231465e+05  -8.246119e+05
   4.297838e+05  -7.931782e+05
   2.602326e+05  -1.220563e+06
   6.506498e+05  -1.271802e+06
   1.309020e+06  -3.247131e+05
   1.444935e+06   1.192848e+06
   6.198585e+05   2.100910e+06
  -6.960367e+05   1.601733e+06
  -1.448495e+06   6.696888e+04
  -9.900928e+05  -1.300573e+06
   2.319253e+05  -1.539510e+06
   1.083860e+06  -6.824945e+05
   8.952041e+05   4.390177e+05
   1.080592e+05   1.021515e+06
  -3.032873e+05   9.217461e+05
   2.307515e+04   5.773527e+05
   4.319412e+05   4.236813e+05
   3.843095e+04   4.475592e+05
  -1.171708e+06   2.927337e+05
  -2.155530e+06  -2.682050e+05
  -1.809337e+06  -1.021894e+06
  -1.580727e+05  -1.464183e+06
   1.535613e+06  -1.239353e+06
   1.953301e+06  -4.677816e+05
   1.001881e+06   3.058997e+05
  -1.848883e+05   5.306246e+05
  -5.072995e+05   1.416027e+05
   2.469055e+04  -3.271054e+05
   5.586354e+05  -2.496990e+05
   5.108766e+05   3.755713e+05
   1.216232e+05   8.402761e+05
  -4.471444e+04   5.360967e+05
   1.734029e+05  -2.224438e+05
   4.387628e+05  -4.684834e+05
   3.421167e+05   2.349425e+05
  -2.259949e+05   1.150681e+06
  -9.713342e+05   1.164301e+06
  -1.307515e+06   1.096880e+05
  -7.616429e+05  -1.001916e+06
   4.394522e+05  -1.112898e+06
   1.272087e+06  -2.340570e+05
   7.940312e+05   6.791604e+05
  -7.280223e+05   7.661548e+05
  -1.844946e+06   9.476891e+03
  -1.356934e+06  -9.077552e+05
   3.639894e+05  -1.253318e+06
   1.715376e+06  -7.913518e+05
   1.533402e+06   7.484652e+04
   2.429432e+05   6.141466e+05
  -7.033218e+05   3.911386e+05
  -3.811802e+05  -2.681972e+05
   7.201718e+05  -5.067995e+05
   1.300064e+06   1.989166e+05
   6.100412e+05   1.368761e+06
  -8.153451e+05   1.837744e+06
  -1.731248e+06   8.886727e+05
  -1.402626e+06  -9.009261e+05
  -2.173416e+05  -2.048086e+06
   8.286526e+05  -1.549323e+06
   1.078449e+06   8.976537e+04
   6.049161e+05   1.329526e+06
  -1.061812e+05   1.177853e+06
  -5.949420e+05   1.600549e+05
  -6.271202e+05  -4.488131e+05
  -2.934053e+05  -1.936323e+05
  -1.361013e+04   1.438998e+05
  -1.651584e+05  -2.482796e+05
  -5.261861e+05  -1.050315e+06
  -3.557774e+05  -1.245897e+06
   6.531005e+05  -4.833120e+05
   1.690596e+06   5.172416e+05
   1.576189e+06   9.390028e+05
   2.311856e+05   7.610253e+05
  -1.066446e+06   4.620263e+05
  -1.151456e+06   2.525399e+05
  -3.198629e+05   1.131815e+04
   2.041423e+05  -2.419354e+05
  -8.391320e+04  -3.004491e+05
  -4.293413e+05  -1.839703e+05
  -4.877500e+03  -1.556118e+05
   8.848560e+05  -2.086259e+05
   1.158105e+06   5.313231e+04
   2.918818e+05   7.472496e+05
  -1.069980e+06   1.236089e+06
  -1.817315e+06   7.525674e+05
  -1.417324e+06  -5.556603e+05
  -2.514931e+05  -1.600621e+06
   8.288824e+05  -1.500280e+06
   1.173536e+06  -5.120797e+05
   7.505456e+05   3.367188e+05
   9.303193e+04   3.981000e+05
  -1.874603e+05  -7.185893e+03
   5.362686e+04  -1.078848e+05
   3.979355e+05   3.778515e+05
   3.261711e+05   9.101509e+05
  -2.290440e+05   7.330502e+05
  -7.848625e+05  -2.257496e+05
  -7.453494e+05  -1.151720e+06
   1.279408e+04  -1.137936e+06
   9.149863e+05  -1.518006e+05
   1.111446e+06   9.230723e+05
   3.043006e+05   1.214173e+06
  -8.199021e+05   6.648391e+05
  -1.192808e+06  -1.234997e+05
  -5.272387e+05  -6.052939e+05
   3.131241e+05  -6.498817e+05
   3.285035e+05  -3.888410e+05
  -3.831036e+05  -5.884299e+04
  -7.563969e+05   2.062966e+04
  -1.258363e+05  -3.237534e+05
   9.312163e+05  -7.708002e+05
   1.327599e+06  -6.829739e+05
   7.500897e+05   1.143375e+05
  -1.219544e+05   9.307568e+05
  -5.291358e+05   9.163499e+05
  -3.676166e+05   1.055753e+05
   2.496303e+03  -5.793128e+05
   2.892568e+05  -4.270919e+05
   3.951798e+05   2.635384e+05
   2.646812e+05   6.524342e+05
  -8.453844e+04   3.897427e+05
  -4.318144e+05  -9.538843e+04
  -5.002955e+05  -2.502227e+05
  -2.728085e+05  -5.015972e+04
  -7.740149e+03   9.111631e+04
   9.807990e+04  -1.064988e+05
   1.259213e+05  -4.519106e+05
   2.451335e+05  -5.020045e+05
   4.119850e+05  -6.405908e+04
   3.772142e+05   5.377950e+05
  -1.525146e+03   7.348009e+05
  -5.073394e+05   2.986422e+05
  -6.747414e+05  -3.808692e+05
  -2.275298e+05  -6.818211e+05
   5.431431e+05  -3.915560e+05
   9.295073e+05   1.344566e+05
   5.042251e+05   4.294530e+05
  -3.302403e+05   3.735639e+05
  -6.887621e+05   1.617127e+05
  -2.051021e+05   5.963074e+03
   4.901916e+05   9.220441e+03
   4.923745e+05   1.848076e+05
  -2.805417e+05   3.843826e+05
  -9.769200e+05   2.854385e+05
