
 $NMID
 id='ANONYMOUS ', fmtdat='(2E16.6)'
 volume=1.0
 tramp=1.0
 $END
  -2.918446e+06  -3.724037e+05
  -1.911007e+06  -6.615583e+05
  -4.111823e+05  -1.403531e+06
   8.706025e+05  -1.899511e+06
   1.236177e+06  -1.014225e+06
   4.673902e+05   5.740939e+05
  -6.743891e+05   9.418063e+05
  -1.030219e+06  -3.144005e+05
  -3.147651e+05  -1.407886e+06
   5.879459e+05  -8.599377e+05
   7.217725e+05   5.500813e+05
   9.129642e+04   1.028733e+06
  -5.368964e+05   1.235759e+05
  -5.398563e+05  -9.887590e+05
   3.255506e+04  -1.130960e+06
   6.002535e+05  -2.984693e+05
   5.778544e+05   6.439585e+05
  -6.199201e+04   8.880621e+05
  -6.719010e+05   3.216404e+05
  -5.880134e+05  -4.204956e+05
   3.876462e+04  -5.773077e+05
   3.541754e+05  -1.159291e+05
  -1.239583e+05   2.017078e+05
  -8.334389e+05  -2.000428e+05
  -8.161682e+05  -9.263354e+05
   1.378135e+05  -1.120289e+06
   1.236426e+06  -5.304379e+05
   1.497615e+06   3.015302e+05
   6.737934e+05   7.492905e+05
  -5.262477e+05   6.006247e+05
  -1.031029e+06  -3.753053e+03
  -3.844987e+05  -6.541156e+05
   7.360584e+05  -7.530142e+05
   1.159269e+06  -4.202805e+04
   5.129898e+05   8.678158e+05
  -3.642527e+05   9.913591e+05
  -5.018265e+05   1.880223e+05
   2.998291e+04  -5.612649e+05
   3.982954e+05  -3.726385e+05
   1.951436e+05   4.416744e+05
  -2.002720e+05   8.718543e+05
  -3.674028e+05   5.091627e+05
  -3.480505e+05  -1.173865e+05
  -2.798415e+05  -3.605028e+05
  -8.793631e+04  -1.404277e+05
   1.658837e+05   2.032552e+05
   9.137843e+04   3.476904e+05
  -4.515105e+05   1.585897e+05
  -8.986661e+05  -2.801801e+05
  -5.929847e+05  -6.528239e+05
   2.901786e+05  -6.201929e+05
   8.809866e+05  -1.868622e+05
   6.604402e+05   2.569195e+05
  -9.284652e+03   3.511373e+05
  -4.308217e+05   1.215431e+05
  -3.156288e+05  -1.308054e+05
   9.368607e+04  -1.640861e+05
   3.627414e+05   4.167850e+04
   2.211011e+05   3.146729e+05
  -2.068303e+05   3.973219e+05
  -4.521947e+05   1.563593e+05
  -1.897596e+05  -2.058811e+05
   2.806247e+05  -2.756351e+05
   3.055657e+05   9.739716e+04
  -2.772359e+05   5.425572e+05
  -8.655141e+05   5.444319e+05
  -8.487091e+05   2.985773e+04
  -3.596334e+05  -5.697271e+05
   7.590430e+03  -8.210209e+05
   1.882334e+04  -7.040624e+05
  -1.864052e+04  -5.039610e+05
   1.884966e+05  -4.194128e+05
   5.404775e+05  -3.606287e+05
   7.551397e+05  -1.061819e+05
   6.742365e+05   3.720690e+05
   2.958816e+05   7.600529e+05
  -2.438716e+05   6.556585e+05
  -6.232130e+05   3.974891e+04
  -5.079528e+05  -5.840606e+05
   5.549241e+04  -6.571320e+05
   5.725537e+05  -1.592363e+05
   5.979471e+05   3.933094e+05
   2.127496e+05   5.414315e+05
  -1.325926e+05   3.277898e+05
  -1.708984e+05   1.141379e+05
  -6.426403e+04   1.190698e+05
  -1.318782e+05   2.468197e+05
  -4.584516e+05   2.664881e+05
  -7.805495e+05   3.270809e+04
  -7.115451e+05  -4.076230e+05
  -1.283774e+05  -8.021020e+05
   6.078846e+05  -8.276727e+05
   9.062788e+05  -3.832891e+05
   5.360753e+05   2.316205e+05
  -9.398386e+04   5.409494e+05
  -3.673342e+05   3.497418e+05
  -1.213216e+05  -6.858417e+04
   2.570338e+05  -2.701796e+05
   3.467141e+05  -9.088681e+04
   1.192870e+05   2.167899e+05
  -1.545445e+05   2.708942e+05
  -2.255938e+05  -2.151426e+04
  -2.398866e+04  -3.282882e+05
   3.244280e+05  -2.189818e+05
   5.197725e+05   3.305840e+05
   2.741932e+05   8.231755e+05
  -3.511089e+05   7.325805e+05
  -8.708375e+05   9.078746e+04
  -8.171617e+05  -5.340260e+05
  -2.538485e+05  -6.567206e+05
   2.836228e+05  -3.459139e+05
   3.713102e+05  -3.314826e+04
   1.044823e+05   5.510279e+03
  -9.882139e+04  -1.406097e+05
   1.189547e+04  -2.319158e+05
   2.895356e+05  -1.458048e+05
   3.911999e+05   5.931113e+04
   1.571070e+05   2.195647e+05
  -1.971886e+05   1.847751e+05
  -2.738904e+05  -3.859574e+04
   7.357916e+04  -2.335541e+05
   5.187537e+05  -1.516343e+05
   5.677008e+05   2.005284e+05
   1.079904e+05   5.159321e+05
  -4.424333e+05   4.908385e+05
  -5.862702e+05   1.456654e+05
  -2.651702e+05  -2.013361e+05
   1.395049e+05  -2.611593e+05
   2.469933e+05  -4.248291e+04
   2.028758e+04   1.864590e+05
  -2.820021e+05   1.716892e+05
  -3.775705e+05  -8.159033e+04
  -1.832510e+05  -3.189766e+05
   1.317658e+05  -3.018986e+05
   2.851976e+05  -6.559078e+04
   1.465670e+05   1.189660e+05
  -1.059591e+05   5.141873e+04
  -1.546700e+05  -1.743889e+05
   9.867199e+04  -2.848841e+05
   4.012366e+05  -1.271636e+05
   4.230368e+05   1.866162e+05
   1.187945e+05   4.054562e+05
  -2.360716e+05   3.636293e+05
  -3.427136e+05   1.051753e+05
  -1.597621e+05  -1.560295e+05
   9.709237e+04  -2.095400e+05
   1.832289e+05  -4.010524e+04
   4.789438e+04   1.491464e+05
  -1.362949e+05   1.525255e+05
  -1.586122e+05  -1.263697e+03
  -1.730340e+02  -8.784272e+04
   1.342994e+05   2.736599e+04
   4.238165e+04   2.125857e+05
  -2.326163e+05   2.207218e+05
  -4.273971e+05  -2.849784e+04
  -3.322277e+05  -3.623950e+05
  -2.384738e+03  -5.231277e+05
   3.119407e+05  -3.883649e+05
   4.096317e+05  -6.039355e+04
   2.946764e+05   2.192508e+05
   1.241717e+05   2.698087e+05
   3.828661e+04   1.348474e+05
   3.678298e+04   3.097031e+04
   5.500490e+03   9.373103e+04
  -1.325535e+05   2.047959e+05
  -2.931004e+05   1.384291e+05
  -2.870837e+05  -1.331136e+05
  -2.863703e+04  -3.657250e+05
   3.283856e+05  -3.052639e+05
   4.982789e+05   3.383854e+04
   3.215268e+05   3.872042e+05
  -8.853669e+04   4.955907e+05
  -4.462544e+05   3.102606e+05
  -5.284418e+05  -8.332685e+03
  -3.325320e+05  -2.416324e+05
  -4.689851e+04  -2.826364e+05
   1.216882e+05  -2.050073e+05
   1.187265e+05  -1.646413e+05
   6.467949e+04  -2.119267e+05
   1.037028e+05  -2.253200e+05
   2.292170e+05  -6.866540e+04
   2.835269e+05   2.090031e+05
   1.447714e+05   3.904785e+05
  -1.119044e+05   3.151123e+05
  -2.743854e+05   4.361327e+04
  -2.115617e+05  -2.120718e+05
  -2.511735e+03  -2.847146e+05
   1.580856e+05  -1.663435e+05
   1.586595e+05   2.542750e+04
   5.938269e+04   1.567367e+05
  -1.600074e+03   1.730243e+05
   3.273267e+04   1.218568e+05
   7.828873e+04   8.572398e+04
   6.095143e+03   8.673583e+04
  -1.990286e+05   6.944048e+04
  -3.823926e+05  -1.840438e+04
  -3.493691e+05  -1.513939e+05
  -7.338450e+04  -2.464966e+05
   2.423064e+05  -2.393711e+05
   3.474443e+05  -1.322701e+05
   1.954138e+05   7.086788e+03
  -1.854138e+04   8.236402e+04
  -8.014896e+04   4.381954e+04
   2.020215e+04  -4.361282e+04
   1.181816e+05  -4.757284e+04
   9.591658e+04   6.921713e+04
   6.825428e+03   1.715217e+05
  -2.585404e+04   1.102868e+05
   2.803620e+04  -5.969187e+04
   8.653542e+04  -1.192072e+05
   6.543118e+04   3.201711e+04
  -3.963093e+04   2.247716e+05
  -1.628052e+05   2.224120e+05
  -2.130481e+05   1.329184e+04
  -1.242663e+05  -1.852149e+05
   7.399501e+04  -1.891401e+05
   2.245790e+05  -2.896629e+04
   1.550376e+05   1.287522e+05
  -1.210124e+05   1.563848e+05
  -3.560101e+05   4.048139e+04
  -2.986549e+05  -1.392474e+05
   2.358160e+04  -2.550096e+05
   3.114882e+05  -2.086783e+05
   3.086662e+05  -3.120269e+04
   6.923183e+04   1.157198e+05
  -1.213523e+05   9.669771e+04
  -6.647607e+04  -3.782678e+04
   1.432950e+05  -9.557418e+04
   2.503290e+05   4.035448e+04
   1.110475e+05   2.675467e+05
  -1.644240e+05   3.553114e+05
  -3.378965e+05   1.734135e+05
  -2.783375e+05  -1.673937e+05
  -6.158528e+04  -3.955716e+05
   1.373449e+05  -3.190285e+05
   2.070217e+05  -1.375609e+04
   1.487363e+05   2.385500e+05
   2.168573e+04   2.327338e+05
  -1.005420e+05   4.676148e+04
  -1.426153e+05  -7.629815e+04
  -7.913417e+04  -3.378733e+04
   7.037203e+03   3.246721e+04
  -5.548557e+03  -3.842524e+04
  -1.030586e+05  -1.914220e+05
  -1.073731e+05  -2.337989e+05
   9.263482e+04  -9.903336e+04
   3.340446e+05   7.887871e+04
   3.335398e+05   1.560556e+05
   5.384989e+04   1.370004e+05
  -2.179404e+05   1.021278e+05
  -2.221621e+05   7.019886e+04
  -4.222332e+04   1.290779e+04
   4.480077e+04  -4.924240e+04
  -4.267201e+04  -6.246864e+04
  -1.095508e+05  -3.597957e+04
   5.729547e+03  -3.147077e+04
   1.929346e+05  -4.590765e+04
   2.199113e+05   5.481585e+03
   2.788502e+04   1.440640e+05
  -2.182098e+05   2.382481e+05
  -3.284987e+05   1.397322e+05
  -2.497244e+05  -1.139777e+05
  -5.398627e+04  -3.093593e+05
   1.394625e+05  -2.833809e+05
   2.210763e+05  -9.212351e+04
   1.520296e+05   6.818547e+04
   1.184970e+04   7.582908e+04
  -5.868080e+04  -8.385220e+03
  -2.499188e+03  -3.472496e+04
   8.839337e+04   5.783501e+04
   8.120540e+04   1.673691e+05
  -4.163573e+04   1.389693e+05
  -1.604689e+05  -4.901431e+04
  -1.438057e+05  -2.317980e+05
   1.805610e+04  -2.221781e+05
   1.933392e+05  -1.882252e+04
   2.181839e+05   1.897182e+05
   5.269237e+04   2.320805e+05
  -1.590488e+05   1.175338e+05
  -2.186203e+05  -2.306717e+04
  -8.869948e+04  -9.813069e+04
   5.704423e+04  -1.050961e+05
   4.106468e+04  -6.801974e+04
  -9.602181e+04  -1.196504e+04
  -1.497615e+05   7.663692e+03
  -1.811276e+04  -5.859343e+04
   1.708737e+05  -1.577557e+05
   2.267914e+05  -1.523305e+05
   1.200416e+05   5.236408e+03
  -1.979533e+04   1.715589e+05
  -7.828675e+04   1.662704e+05
  -5.276490e+04   2.727414e+03
   4.935123e+03  -1.218460e+05
   5.873462e+04  -7.330748e+04
   8.312525e+04   6.541091e+04
   5.266958e+04   1.239731e+05
  -2.250880e+04   5.964936e+04
  -8.473573e+04  -2.308908e+04
  -8.804121e+04  -3.299294e+04
  -4.930415e+04   3.572499e+03
  -1.350886e+04   5.375058e+03
   9.925729e+03  -5.066196e+04
   4.287197e+04  -1.058227e+05
   8.458657e+04  -8.729887e+04
   9.894053e+04   1.518105e+04
   5.744357e+04   1.285506e+05
  -2.701175e+04   1.519402e+05
  -1.065427e+05   5.377721e+04
  -1.221776e+05  -8.352126e+04
  -4.060767e+04  -1.382153e+05
   9.592983e+04  -7.418754e+04
   1.695848e+05   3.021211e+04
   9.412058e+04   8.036749e+04
  -6.418549e+04   6.020070e+04
  -1.305531e+05   1.760295e+04
  -2.589644e+04  -4.752887e+03
   1.183387e+05   7.133599e+03
   1.095874e+05   5.041728e+04
  -6.408724e+04   9.275043e+04
  -2.126119e+05   6.816692e+04
