
 $NMID
 id='ANONYMOUS ', fmtdat='(2E16.6)'
 volume=1.0
 tramp=1.0
 $END
   3.269272e+07   1.710963e+06
   1.996618e+07   1.775472e+07
  -2.503482e+06   2.074749e+07
  -1.492901e+07   1.131699e+07
  -1.079345e+07  -6.196489e+05
   2.886309e+05  -5.558702e+06
   6.197221e+06  -1.653186e+06
   3.738815e+06   5.324362e+06
  -2.261251e+06   7.743644e+06
  -5.940680e+06   2.959741e+06
  -4.819203e+06  -4.226957e+06
  -4.456889e+05  -6.380238e+06
   3.033330e+06  -1.403801e+06
   2.214402e+06   5.031008e+06
  -2.066460e+06   5.786897e+06
  -5.155626e+06   4.170717e+04
  -3.397637e+06  -6.383681e+06
   1.977882e+06  -7.681429e+06
   6.327841e+06  -3.490012e+06
   6.338224e+06   2.022718e+06
   2.823747e+06   4.792139e+06
  -5.529784e+05   4.083509e+06
  -8.441247e+05   2.243933e+06
   1.370760e+06   2.001866e+06
   2.412472e+06   3.657548e+06
  -5.638899e+05   4.768076e+06
  -5.783149e+06   2.986856e+06
  -8.069309e+06  -9.647495e+05
  -4.619983e+06  -3.878130e+06
   1.404884e+06  -3.528839e+06
   4.238232e+06  -7.636795e+05
   1.846480e+06   1.797317e+06
  -2.393200e+06   2.151997e+06
  -4.048647e+06   4.302678e+04
  -2.171491e+06  -2.971079e+06
   7.598293e+05  -4.220872e+06
   2.064559e+06  -2.146734e+06
   1.202973e+06   1.394609e+06
  -3.525178e+05   2.426275e+06
  -7.326620e+05  -3.482164e+05
   5.957347e+05  -3.317235e+06
   2.193814e+06  -2.295285e+06
   1.965562e+06   1.770192e+06
  -4.673814e+05   3.714872e+06
  -2.913403e+06   8.213520e+05
  -2.625546e+06  -3.690501e+06
   7.667267e+05  -4.756098e+06
   4.570181e+06  -1.358876e+06
   5.375856e+06   2.990640e+06
   2.205188e+06   4.561538e+06
  -2.437601e+06   2.730311e+06
  -4.662769e+06  -4.117595e+05
  -2.759353e+06  -2.310381e+06
   1.113856e+06  -1.800287e+06
   3.093772e+06   1.978911e+05
   1.638178e+06   1.534952e+06
  -1.015577e+06   9.459285e+05
  -1.676593e+06  -6.239707e+05
   7.791510e+04  -1.218072e+06
   1.693457e+06  -2.015247e+05
   9.024406e+05   1.185392e+06
  -1.637146e+06   1.409420e+06
  -3.180657e+06   6.843997e+04
  -1.834393e+06  -2.105907e+06
   1.642714e+06  -3.767130e+06
   4.639714e+06  -3.458284e+06
   5.022538e+06  -6.953017e+05
   2.884316e+06   2.975092e+06
   2.458088e+05   4.890865e+06
  -9.941390e+05   3.973380e+06
  -8.120779e+05   1.923577e+06
  -6.692643e+05   1.017841e+06
  -1.542149e+06   1.282832e+06
  -2.768267e+06   8.582356e+05
  -2.926727e+06  -1.076949e+06
  -1.455703e+06  -2.917810e+06
   7.981947e+05  -2.564042e+06
   2.294962e+06  -6.903044e+03
   1.889776e+06   2.569090e+06
  -3.101317e+05   2.983077e+06
  -2.751132e+06   1.002579e+06
  -3.465647e+06  -1.690062e+06
  -1.899941e+06  -3.131954e+06
   4.043692e+05  -2.731691e+06
   1.482423e+06  -1.520525e+06
   1.210818e+06  -8.531481e+05
   1.251408e+06  -9.400710e+05
   2.619182e+06  -7.924870e+05
   4.044087e+06   4.663808e+05
   3.350559e+06   2.502178e+06
   1.809882e+05   4.000365e+06
  -3.268636e+06   3.778194e+06
  -4.346947e+06   1.734824e+06
  -2.512647e+06  -9.224144e+05
   2.681337e+05  -2.377713e+06
   1.509290e+06  -1.672210e+06
   5.079058e+05   2.205125e+05
  -1.233803e+06   1.196440e+06
  -1.749816e+06   3.051482e+05
  -6.458299e+05  -1.115201e+06
   6.821801e+05  -1.116725e+06
   7.245947e+05   3.113963e+05
  -5.374976e+05   1.138814e+06
  -1.742937e+06  -1.530834e+05
  -1.549728e+06  -2.597854e+06
   2.284278e+05  -3.750082e+06
   2.537872e+06  -2.314699e+06
   3.805974e+06   6.293691e+05
   3.031339e+06   2.836845e+06
   6.999654e+05   2.960302e+06
  -1.384682e+06   1.507503e+06
  -1.679870e+06   1.115460e+05
  -4.921528e+05  -4.979567e+04
   3.657533e+05   7.353554e+05
  -3.006691e+05   1.194344e+06
  -1.653413e+06   5.399763e+05
  -1.888751e+06  -6.705975e+05
  -4.860410e+05  -1.227059e+06
   1.097590e+06  -6.337375e+05
   1.065459e+06   4.156149e+05
  -6.919750e+05   8.145889e+05
  -2.406943e+06   7.444648e+04
  -2.207736e+06  -1.314959e+06
  -1.060249e+04  -2.267288e+06
   2.337207e+06  -1.903180e+06
   2.815009e+06  -3.513172e+05
   1.180598e+06   1.152181e+06
  -8.435297e+05   1.308471e+06
  -1.343034e+06   1.292051e+05
  -7.787185e+04  -9.664427e+05
   1.467569e+06  -6.859818e+05
   1.723052e+06   6.750767e+05
   5.267922e+05   1.611001e+06
  -9.153694e+05   1.160151e+06
  -1.297926e+06  -6.782882e+04
  -4.183443e+05  -6.888122e+05
   6.742983e+05  -8.602128e+04
   6.785018e+05   1.018519e+06
  -6.300104e+05   1.382263e+06
  -2.022809e+06   4.644267e+05
  -1.988259e+06  -1.089593e+06
  -3.730639e+05  -2.034523e+06
   1.362603e+06  -1.626954e+06
   1.684810e+06  -2.832397e+05
   5.789584e+05   8.189917e+05
  -6.094471e+05   8.514454e+05
  -7.447103e+05   7.239009e+04
   1.168240e+04  -5.539043e+05
   6.390614e+05  -4.251186e+05
   4.508652e+05   1.009568e+05
  -2.638536e+05   1.951292e+05
  -6.024350e+05  -4.366470e+05
   4.437080e+04  -1.136365e+06
   1.316679e+06  -9.368525e+05
   2.076135e+06   3.823769e+05
   1.450435e+06   1.931565e+06
  -2.213620e+05   2.470254e+06
  -1.639848e+06   1.567722e+06
  -1.841711e+06  -2.009672e+03
  -1.097949e+06  -1.027889e+06
  -4.105083e+05  -9.957411e+05
  -3.112126e+05  -4.444750e+05
  -4.078502e+05  -2.471003e+05
  -5.152123e+04  -6.262627e+05
   8.063667e+05  -9.399847e+05
   1.490199e+06  -4.471297e+05
   1.218456e+06   7.555384e+05
  -1.344941e+05   1.643464e+06
  -1.743142e+06   1.212257e+06
  -2.333267e+06  -4.439944e+05
  -1.245786e+06  -2.068849e+06
   8.483932e+05  -2.355540e+06
   2.422255e+06  -1.150164e+06
   2.438115e+06   4.758359e+05
   1.214743e+06   1.323192e+06
  -5.721387e+04   1.159654e+06
  -5.330933e+05   7.217577e+05
  -3.603106e+05   7.486940e+05
  -2.538221e+05   1.149610e+06
  -6.363109e+05   1.161688e+06
  -1.215603e+06   2.698445e+05
  -1.302281e+06  -1.111132e+06
  -5.326198e+05  -1.921440e+06
   6.559034e+05  -1.447092e+06
   1.310774e+06  -3.182853e+04
   8.598348e+05   1.207969e+06
  -2.619515e+05   1.382832e+06
  -1.005729e+06   5.570603e+05
  -7.819040e+05  -4.584760e+05
  -3.624310e+04  -9.348338e+05
   3.248318e+05  -8.035692e+05
  -5.923646e+03  -5.007372e+05
  -3.976570e+05  -3.891884e+05
  -3.388320e+04  -4.072973e+05
   1.080040e+06  -2.325779e+05
   1.968013e+06   3.007034e+05
   1.619262e+06   9.732540e+05
   8.461574e+04   1.336140e+06
  -1.449168e+06   1.090365e+06
  -1.782646e+06   3.687469e+05
  -8.772834e+05  -3.199580e+05
   1.986028e+05  -4.854533e+05
   4.636521e+05  -1.022635e+05
  -3.073607e+04   3.213881e+05
  -5.061796e+05   2.297184e+05
  -4.625549e+05  -3.519126e+05
  -1.234189e+05  -7.746830e+05
   2.741562e+04  -4.992062e+05
  -1.487075e+05   1.855287e+05
  -3.768255e+05   4.106555e+05
  -3.009430e+05  -2.192212e+05
   2.087041e+05  -1.042178e+06
   9.066566e+05  -1.045947e+06
   1.227080e+06  -7.550018e+04
   7.030913e+05   9.402903e+05
  -4.318435e+05   1.026013e+06
  -1.190408e+06   2.037856e+05
  -7.194644e+05  -6.256278e+05
   6.773447e+05  -6.761099e+05
   1.658680e+06   2.789334e+04
   1.184122e+06   8.334440e+05
  -3.611660e+05   1.099434e+06
  -1.544328e+06   6.629996e+05
  -1.360243e+06  -9.623259e+04
  -2.025383e+05  -5.486991e+05
   6.407663e+05  -3.312373e+05
   3.446147e+05   2.618010e+05
  -6.592450e+05   4.673762e+05
  -1.192194e+06  -1.854644e+05
  -5.601525e+05  -1.258594e+06
   7.503726e+05  -1.683383e+06
   1.585645e+06  -8.054529e+05
   1.268633e+06   8.313972e+05
   1.746079e+05   1.860777e+06
  -7.665796e+05   1.383413e+06
  -9.643112e+05  -1.085188e+05
  -5.136895e+05  -1.207890e+06
   1.251957e+05  -1.044254e+06
   5.426482e+05  -1.247215e+05
   5.510689e+05   4.039487e+05
   2.514762e+05   1.647369e+05
   1.710606e+04  -1.217192e+05
   1.614045e+05   2.531123e+05
   4.680260e+05   9.711708e+05
   2.889463e+05   1.120153e+06
  -6.188359e+05   4.117532e+05
  -1.524776e+06  -4.907692e+05
  -1.400001e+06  -8.629768e+05
  -1.944325e+05  -6.965422e+05
   9.606300e+05  -4.167583e+05
   1.039322e+06  -2.111506e+05
   2.975168e+05   1.217583e+04
  -1.837563e+05   2.226639e+05
   5.987292e+04   2.527869e+05
   3.750120e+05   1.494758e+05
   1.076329e+04   1.453076e+05
  -7.910853e+05   1.993701e+05
  -1.058956e+06  -5.894973e+04
  -2.826547e+05  -7.056105e+05
   9.781345e+05  -1.134932e+06
   1.685765e+06  -6.674642e+05
   1.314324e+06   5.281438e+05
   2.187544e+05   1.461263e+06
  -7.826850e+05   1.357912e+06
  -1.083463e+06   4.643998e+05
  -6.830583e+05  -3.029804e+05
  -8.793766e+04  -3.692659e+05
   1.610474e+05  -1.367384e+04
  -4.788573e+04   8.011663e+04
  -3.443978e+05  -3.488567e+05
  -2.775023e+05  -8.273511e+05
   2.162085e+05  -6.711513e+05
   7.163391e+05   1.994302e+05
   6.845165e+05   1.052051e+06
  -5.352446e+03   1.051712e+06
  -8.352055e+05   1.531400e+05
  -1.018348e+06  -8.405517e+05
  -2.745229e+05  -1.118294e+06
   7.604180e+05  -6.117150e+05
   1.097643e+06   1.270958e+05
   4.754739e+05   5.771935e+05
  -3.051133e+05   6.043761e+05
  -3.217474e+05   3.443651e+05
   3.355165e+05   4.070401e+04
   6.864060e+05  -1.547350e+04
   1.145582e+05   3.034204e+05
  -8.556564e+05   6.885307e+05
  -1.223447e+06   5.840581e+05
  -6.901666e+05  -1.372623e+05
   1.248336e+05  -8.540291e+05
   5.120771e+05  -8.258154e+05
   3.609506e+05  -9.333615e+04
   4.523187e+03   5.263895e+05
  -2.711165e+05   3.970173e+05
  -3.656650e+05  -2.288072e+05
  -2.364177e+05  -5.983469e+05
   8.624299e+04  -3.707192e+05
   3.972543e+05   8.550927e+04
   4.514883e+05   2.478063e+05
   2.420266e+05   5.853147e+04
   7.984290e+03  -9.988557e+04
  -7.498871e+04   7.079416e+04
  -9.218460e+04   4.139397e+05
  -2.093683e+05   4.907955e+05
  -3.841901e+05   8.807319e+04
  -3.698626e+05  -4.888436e+05
  -1.939936e+04  -6.844584e+05
   4.626168e+05  -2.791653e+05
   6.275644e+05   3.507862e+05
   2.117362e+05   6.226378e+05
  -5.054378e+05   3.501714e+05
  -8.592752e+05  -1.316083e+05
  -4.596902e+05  -3.994699e+05
   3.124262e+05  -3.485277e+05
   6.427482e+05  -1.515510e+05
   2.008263e+05   1.999823e+03
  -4.374319e+05   9.628929e+03
  -4.510080e+05  -1.520742e+05
   2.392572e+05  -3.456771e+05
   8.708499e+05  -2.647062e+05
