
 $NMID
 id='ANONYMOUS ', fmtdat='(2E16.6)'
 volume=1.0
 tramp=1.0
 $END
   5.840956e+07  -2.302507e+06
   3.640474e+07   3.553404e+07
  -6.713310e+06   4.016358e+07
  -2.843852e+07   1.564588e+07
  -1.722465e+07  -7.426530e+06
   3.436686e+06  -9.827793e+06
   1.022908e+07   1.408393e+06
   2.817678e+06   1.018440e+07
  -6.451691e+06   9.497034e+06
  -9.940524e+06   2.043386e+06
  -7.305082e+06  -6.092550e+06
  -1.108368e+06  -8.623755e+06
   3.898114e+06  -3.002588e+06
   2.723684e+06   5.206574e+06
  -3.770217e+06   6.538944e+06
  -8.130413e+06  -1.293916e+06
  -4.791710e+06  -1.037351e+07
   3.581743e+06  -1.221970e+07
   1.018960e+07  -6.459452e+06
   1.125124e+07   1.582554e+06
   7.329351e+06   7.412499e+06
   1.250832e+06   9.108347e+06
  -2.932644e+06   6.672023e+06
  -2.332341e+06   2.861487e+06
   7.916744e+05   1.781771e+06
   4.766345e+05   3.835333e+06
  -4.939746e+06   4.581622e+06
  -9.481902e+06   1.028511e+06
  -7.307580e+06  -3.757338e+06
  -7.317815e+05  -5.077959e+06
   3.332301e+06  -2.879711e+06
   2.427853e+06  -4.479856e+05
  -2.466792e+05   6.123206e+05
  -1.804883e+06   5.492038e+05
  -2.084074e+06  -1.016001e+06
  -1.027336e+06  -3.635904e+06
   1.527622e+06  -4.050063e+06
   3.447118e+06  -2.947218e+05
   2.161862e+06   3.604774e+06
  -6.307912e+05   2.304245e+06
  -5.372768e+05  -2.142027e+06
   2.353866e+06  -2.267898e+06
   2.551921e+06   3.263628e+06
  -2.489852e+06   6.455854e+06
  -7.402862e+06   1.294844e+06
  -5.638843e+06  -7.059236e+06
   1.740623e+06  -8.968993e+06
   7.570777e+06  -2.773921e+06
   7.100131e+06   4.340337e+06
   1.873563e+06   6.032563e+06
  -3.474060e+06   2.700938e+06
  -5.222526e+06  -1.548633e+06
  -2.370616e+06  -3.530453e+06
   2.506665e+06  -2.276430e+06
   4.656347e+06   8.805176e+05
   2.025174e+06   2.783108e+06
  -1.737167e+06   1.454356e+06
  -1.714661e+06  -1.024026e+06
   1.497374e+06  -8.953093e+05
   2.630525e+06   1.974706e+06
  -7.269998e+05   3.795003e+06
  -4.946297e+06   2.120667e+06
  -5.562903e+06  -1.384226e+06
  -2.461988e+06  -4.101127e+06
   1.594803e+06  -5.373685e+06
   4.718413e+06  -5.023658e+06
   6.085219e+06  -2.047070e+06
   4.789343e+06   2.904004e+06
   1.214098e+06   6.116779e+06
  -1.823348e+06   4.796147e+06
  -1.873752e+06   1.108283e+06
  -1.128139e+05  -4.991746e+05
   3.374899e+05   8.259752e+05
  -1.246251e+06   1.890398e+06
  -2.631021e+06   5.395382e+05
  -2.067793e+06  -1.604416e+06
  -2.143704e+05  -1.956230e+06
   1.343570e+06  -2.441812e+05
   1.603869e+06   1.876612e+06
   1.248386e+05   2.805482e+06
  -2.605496e+06   1.777002e+06
  -4.499170e+06  -9.167315e+05
  -3.452479e+06  -3.616504e+06
  -1.794755e+05  -4.337094e+06
   2.238742e+06  -2.919058e+06
   2.308559e+06  -1.233062e+06
   1.871996e+06  -6.675614e+05
   2.899543e+06  -4.738027e+05
   4.278010e+06   6.915326e+05
   3.453977e+06   2.644550e+06
   2.029147e+05   4.007877e+06
  -3.001042e+06   3.851996e+06
  -3.939577e+06   2.202127e+06
  -2.584752e+06  -2.483997e+05
  -4.144001e+05  -2.105974e+06
   9.335714e+05  -1.928692e+06
   5.501381e+05  -1.546548e+04
  -9.930560e+05   1.305902e+06
  -1.865121e+06   4.483281e+05
  -9.745598e+05  -1.155466e+06
   4.459886e+05  -1.082013e+06
   3.655302e+05   3.960143e+05
  -1.142047e+06   6.261723e+05
  -1.886683e+06  -1.434573e+06
  -5.412807e+05  -3.572376e+06
   1.763757e+06  -3.309852e+06
   3.182785e+06  -9.120773e+05
   3.153853e+06   1.520262e+06
   2.092011e+06   2.639336e+06
   4.230675e+05   2.453107e+06
  -1.144886e+06   1.426448e+06
  -1.498102e+06   2.715790e+05
  -4.785596e+05  -3.437514e+04
   3.604729e+05   7.269883e+05
  -3.954483e+05   1.345063e+06
  -1.894145e+06   6.147497e+05
  -2.029934e+06  -8.665708e+05
  -3.843135e+05  -1.414170e+06
   1.146939e+06  -5.645768e+05
   8.334060e+05   4.425643e+05
  -8.619836e+05   4.599440e+05
  -2.086268e+06  -3.702404e+05
  -1.613124e+06  -1.313330e+06
   2.771419e+05  -1.859706e+06
   2.214166e+06  -1.588427e+06
   2.681230e+06  -2.954641e+05
   1.217241e+06   1.231681e+06
  -8.754815e+05   1.522686e+06
  -1.559384e+06   2.347033e+05
  -2.477491e+05  -1.067877e+06
   1.470096e+06  -7.570700e+05
   1.686722e+06   7.548391e+05
   3.131864e+05   1.617307e+06
  -1.093821e+06   9.311487e+05
  -1.227239e+06  -3.421127e+05
  -2.140718e+05  -7.849495e+05
   8.046255e+05  -6.455998e+04
   7.510490e+05   1.017528e+06
  -5.192316e+05   1.403973e+06
  -1.936007e+06   5.832435e+05
  -2.009003e+06  -9.725808e+05
  -4.148534e+05  -2.020356e+06
   1.389778e+06  -1.630195e+06
   1.688280e+06  -2.180474e+05
   4.862758e+05   8.517227e+05
  -6.410140e+05   7.828383e+05
  -5.873106e+05   8.211705e+04
   1.428159e+05  -3.093703e+05
   4.461650e+05  -1.525263e+05
   3.819868e+04   6.524124e+04
  -4.926229e+05  -1.269007e+05
  -5.028065e+05  -7.055127e+05
   2.185353e+05  -1.176161e+06
   1.346128e+06  -8.868896e+05
   2.034041e+06   3.733541e+05
   1.463589e+06   1.865951e+06
  -1.677035e+05   2.345181e+06
  -1.544497e+06   1.362061e+06
  -1.611073e+06  -1.294964e+05
  -7.842171e+05  -8.322636e+05
  -2.836970e+05  -5.456409e+05
  -5.005250e+05  -1.422891e+05
  -6.720849e+05  -3.014774e+05
  -1.170400e+05  -7.740600e+05
   8.546989e+05  -8.837523e+05
   1.395646e+06  -3.085989e+05
   9.887368e+05   6.812797e+05
  -2.534998e+05   1.380717e+06
  -1.654353e+06   1.036608e+06
  -2.173374e+06  -4.431211e+05
  -1.111937e+06  -2.033413e+06
   9.802549e+05  -2.326277e+06
   2.488302e+06  -1.021850e+06
   2.281424e+06   6.494338e+05
   8.873250e+05   1.298026e+06
  -2.295305e+05   8.738058e+05
  -3.403787e+05   4.435917e+05
   9.711522e+03   7.242885e+05
  -3.235435e+04   1.306867e+06
  -6.321173e+05   1.298445e+06
  -1.269876e+06   3.490276e+05
  -1.328482e+06  -1.016021e+06
  -5.818799e+05  -1.823531e+06
   5.692786e+05  -1.404978e+06
   1.244558e+06  -1.165542e+04
   8.034484e+05   1.254170e+06
  -3.871324e+05   1.372361e+06
  -1.169147e+06   3.816510e+05
  -8.174342e+05  -7.241527e+05
   1.365109e+05  -1.090223e+06
   5.633123e+05  -7.721819e+05
   1.020613e+05  -3.870529e+05
  -4.351345e+05  -3.026831e+05
  -7.161752e+04  -3.641405e+05
   1.131694e+06  -2.221048e+05
   2.038224e+06   2.893740e+05
   1.593355e+06   9.946484e+05
  -3.915806e+04   1.426630e+06
  -1.559420e+06   1.157334e+06
  -1.792031e+06   2.813480e+05
  -8.143368e+05  -5.135178e+05
   2.568940e+05  -5.829887e+05
   5.123243e+05  -2.554959e+04
   5.846511e+04   4.338550e+05
  -4.069265e+05   2.657829e+05
  -4.801491e+05  -3.193874e+05
  -2.960236e+05  -6.786049e+05
  -1.374612e+05  -4.539143e+05
  -1.317361e+05   6.851836e+04
  -2.422845e+05   2.524708e+05
  -2.655117e+05  -2.252468e+05
   1.003003e+05  -9.436022e+05
   8.502707e+05  -1.060596e+06
   1.357106e+06  -2.323915e+05
   8.907672e+05   8.590414e+05
  -3.712736e+05   1.150032e+06
  -1.231930e+06   3.969563e+05
  -7.283183e+05  -5.257565e+05
   6.788802e+05  -6.372377e+05
   1.528154e+06   8.596169e+04
   9.412590e+05   8.363100e+05
  -4.943462e+05   9.418384e+05
  -1.441738e+06   4.350758e+05
  -1.166964e+06  -1.967647e+05
  -1.174780e+05  -4.893829e+05
   6.323279e+05  -2.550167e+05
   3.944165e+05   2.879088e+05
  -5.320744e+05   5.374362e+05
  -1.148251e+06  -1.728609e+04
  -7.168577e+05  -1.105729e+06
   4.790986e+05  -1.675343e+06
   1.388117e+06  -9.232658e+05
   1.235815e+06   6.841169e+05
   2.460116e+05   1.717939e+06
  -6.876405e+05   1.246210e+06
  -8.949550e+05  -1.788479e+05
  -4.151864e+05  -1.151234e+06
   2.322352e+05  -9.254957e+05
   5.559509e+05  -7.914732e+04
   4.295460e+05   3.512870e+05
   1.274130e+05   1.229617e+05
   5.870794e+04  -8.482945e+04
   3.279544e+05   2.952122e+05
   5.355654e+05   9.296085e+05
   1.694366e+05   1.036106e+06
  -7.286877e+05   3.977923e+05
  -1.430687e+06  -4.128570e+05
  -1.219751e+06  -7.825847e+05
  -1.925263e+05  -6.798778e+05
   7.794543e+05  -4.272716e+05
   9.357804e+05  -1.864881e+05
   3.824083e+05   5.933853e+04
  -1.204828e+05   2.242842e+05
  -7.344737e+04   1.834563e+05
   2.110523e+05   6.493438e+04
   7.034343e+04   1.225172e+05
  -5.824384e+05   2.602953e+05
  -1.018262e+06   3.637669e+04
  -5.098970e+05  -6.566302e+05
   7.298644e+05  -1.190971e+06
   1.649599e+06  -8.262642e+05
   1.436559e+06   3.378267e+05
   3.311959e+05   1.342788e+06
  -7.081854e+05   1.375693e+06
  -9.962203e+05   5.895070e+05
  -6.331336e+05  -1.768890e+05
  -1.626652e+05  -3.412648e+05
   2.139036e+04  -9.050353e+04
  -9.719791e+04  -1.179429e+04
  -2.827698e+05  -3.633302e+05
  -2.475859e+05  -7.773793e+05
   1.389329e+05  -6.739174e+05
   6.513796e+05   6.078826e+04
   7.765124e+05   8.594058e+05
   2.049077e+05   9.948815e+05
  -6.859240e+05   3.122927e+05
  -1.041346e+06  -6.133912e+05
  -4.113459e+05  -1.041872e+06
   6.535097e+05  -7.190222e+05
   1.109485e+06   1.302364e+04
   5.697283e+05   6.035052e+05
  -2.509794e+05   7.127485e+05
  -3.924597e+05   3.857135e+05
   1.943249e+05  -1.302171e+04
   6.156125e+05  -6.891683e+04
   1.701680e+05   2.999083e+05
  -7.751245e+05   6.829854e+05
  -1.241831e+06   5.415811e+05
  -7.937495e+05  -1.733897e+05
   5.414057e+04  -8.637030e+05
   5.395686e+05  -8.735589e+05
   4.476316e+05  -2.107111e+05
   9.287746e+04   4.411679e+05
  -2.034494e+05   4.551459e+05
  -3.403042e+05  -8.841060e+04
  -2.757211e+05  -5.471613e+05
   1.891784e+04  -4.524328e+05
   3.806800e+05   9.237770e+03
   4.897008e+05   2.799824e+05
   2.420626e+05   1.093578e+05
  -6.352685e+04  -1.741658e+05
  -8.969223e+04  -1.053818e+05
   8.059929e+04   3.094772e+05
   6.071298e+04   5.721783e+05
  -2.658632e+05   2.981012e+05
  -5.101127e+05  -2.929983e+05
  -2.526042e+05  -6.068327e+05
   3.588806e+05  -3.407485e+05
   6.811318e+05   2.116342e+05
   2.904363e+05   5.257762e+05
  -4.884808e+05   3.835368e+05
  -8.820714e+05  -1.369332e+04
  -4.931739e+05  -3.432069e+05
   2.642298e+05  -4.326481e+05
   6.171279e+05  -2.891632e+05
   2.748890e+05  -3.898080e+04
  -2.818751e+05   1.110036e+05
  -3.743157e+05   2.186507e+03
   1.145413e+05  -2.568007e+05
   6.447978e+05  -2.907958e+05
