
 $NMID
 id='ANONYMOUS ', fmtdat='(2E16.6)'
 volume=1.0
 tramp=1.0
 $END
  -1.849628e+07  -2.283273e+05
  -1.254877e+07  -8.595686e+06
  -1.606660e+05  -1.175907e+07
   8.127788e+06  -8.097245e+06
   7.057976e+06  -9.954114e+05
   5.445800e+05   3.461445e+06
  -3.969352e+06   1.869144e+06
  -3.070685e+06  -3.086997e+06
   8.915569e+05  -5.442737e+06
   3.639944e+06  -2.448094e+06
   3.068801e+06   2.535865e+06
   2.943384e+05   4.064973e+06
  -1.883710e+06   7.541744e+05
  -1.418718e+06  -3.486600e+06
   1.194120e+06  -4.039250e+06
   3.243551e+06  -4.060768e+05
   2.387474e+06   3.770088e+06
  -8.720008e+05   4.754598e+06
  -3.625737e+06   2.192016e+06
  -3.595576e+06  -1.180243e+06
  -1.408041e+06  -2.621623e+06
   3.309172e+05  -1.916680e+06
  -5.380302e+04  -1.023138e+06
  -1.582418e+06  -1.566752e+06
  -1.751904e+06  -3.006455e+06
   6.884108e+05  -3.394175e+06
   4.091797e+06  -1.702687e+06
   5.257798e+06   9.802873e+05
   2.751093e+06   2.585374e+06
  -1.247419e+06   2.045036e+06
  -2.958224e+06   7.745330e+04
  -1.005277e+06  -1.590737e+06
   2.159139e+06  -1.551224e+06
   3.144960e+06   2.751876e+05
   1.338981e+06   2.417860e+06
  -9.146009e+05   2.891272e+06
  -1.406885e+06   1.130158e+06
  -3.366789e+05  -1.084062e+06
   5.824335e+05  -1.312807e+06
   3.177335e+05   6.771504e+05
  -7.275753e+05   2.409281e+06
  -1.538872e+06   1.594408e+06
  -1.375531e+06  -9.841417e+05
  -1.571682e+05  -2.321956e+06
   1.307261e+06  -8.147320e+05
   1.582302e+06   1.851331e+06
  -1.119394e+05   2.733879e+06
  -2.632234e+06   9.072497e+05
  -3.559287e+06  -1.811649e+06
  -1.652791e+06  -3.012931e+06
   1.580494e+06  -1.964340e+06
   3.257788e+06   1.255857e+05
   2.053792e+06   1.490924e+06
  -5.513811e+05   1.278788e+06
  -1.971441e+06   4.871430e+04
  -1.160177e+06  -8.714993e+05
   5.728315e+05  -6.258708e+05
   1.189792e+06   3.939237e+05
   1.248875e+05   1.013659e+06
  -1.211182e+06   5.324576e+05
  -1.074741e+06  -5.611008e+05
   5.885395e+05  -1.113181e+06
   1.963956e+06  -4.217324e+05
   1.313264e+06   1.132942e+06
  -1.076338e+06   2.355977e+06
  -3.150558e+06   2.119302e+06
  -3.246856e+06   2.942257e+05
  -1.674226e+06  -1.978352e+06
  -5.288583e+04  -3.154494e+06
   5.520822e+05  -2.699826e+06
   4.884066e+05  -1.542645e+06
   6.835842e+05  -8.960051e+05
   1.422558e+06  -8.039587e+05
   2.105107e+06  -2.876175e+05
   1.955532e+06   1.065526e+06
   7.838321e+05   2.218880e+06
  -7.982816e+05   1.801378e+06
  -1.738307e+06  -1.359681e+05
  -1.281061e+06  -1.953547e+06
   3.375926e+05  -2.077549e+06
   1.900278e+06  -5.333876e+05
   2.179683e+06   1.266674e+06
   1.082335e+06   2.016345e+06
  -2.837732e+05   1.606300e+06
  -8.266352e+05   8.829334e+05
  -6.535920e+05   6.068879e+05
  -8.095533e+05   7.333303e+05
  -1.822022e+06   5.947457e+05
  -2.802999e+06  -3.212543e+05
  -2.306927e+06  -1.760184e+06
  -7.460884e+04  -2.797322e+06
   2.368346e+06  -2.569994e+06
   3.089141e+06  -1.053972e+06
   1.682409e+06   7.777823e+05
  -3.459045e+05   1.649958e+06
  -1.148450e+06   1.064879e+06
  -3.284310e+05  -1.961173e+05
   9.083163e+05  -7.864914e+05
   1.200307e+06  -1.773007e+05
   3.891237e+05   7.577332e+05
  -5.334242e+05   7.601022e+05
  -5.679691e+05  -2.429105e+05
   3.357960e+05  -9.196238e+05
   1.296634e+06  -8.506207e+04
   1.287089e+06   1.761799e+06
   1.509025e+02   2.809509e+06
  -1.811928e+06   1.858470e+06
  -2.825102e+06  -3.982878e+05
  -2.216125e+06  -2.126094e+06
  -4.566733e+05  -2.180260e+06
   1.030752e+06  -1.030595e+06
   1.192050e+06  -1.698744e+04
   3.441434e+05   4.482647e+04
  -2.473769e+05  -5.212131e+05
   1.985865e+05  -8.165540e+05
   1.120729e+06  -3.646267e+05
   1.307207e+06   4.519472e+05
   3.551587e+05   8.451101e+05
  -7.751748e+05   4.458248e+05
  -7.809436e+05  -3.183585e+05
   4.940510e+05  -6.322064e+05
   1.770055e+06  -6.889489e+04
   1.622229e+06   9.933159e+05
  -6.742622e+03   1.673051e+06
  -1.702348e+06   1.342451e+06
  -1.998842e+06   2.086743e+05
  -8.115115e+05  -8.060726e+05
   5.854454e+05  -8.738464e+05
   8.995108e+05  -7.324802e+04
   2.355596e+04   6.489030e+05
  -1.029966e+06   4.511186e+05
  -1.209473e+06  -4.844700e+05
  -3.821913e+05  -1.150162e+06
   6.458680e+05  -8.505680e+05
   9.409768e+05   2.677172e+04
   3.240636e+05   4.897430e+05
  -4.550208e+05   6.720755e+04
  -4.524398e+05  -7.147498e+05
   4.719457e+05  -9.478726e+05
   1.424557e+06  -2.756884e+05
   1.365131e+06   8.028675e+05
   2.282174e+05   1.426754e+06
  -9.690873e+05   1.122643e+06
  -1.186855e+06   1.867628e+05
  -4.115318e+05  -5.836237e+05
   4.384511e+05  -6.020845e+05
   5.471799e+05  -2.698475e+04
  -1.275499e+04   4.376207e+05
  -5.042307e+05   3.187191e+05
  -3.774091e+05  -1.137479e+05
   1.750599e+05  -2.027085e+05
   4.526292e+05   2.769705e+05
  -1.352463e+04   8.008846e+05
  -9.306628e+05   6.494712e+05
  -1.452960e+06  -2.969105e+05
  -9.835744e+05  -1.377421e+06
   2.036542e+05  -1.740052e+06
   1.197743e+06  -1.100747e+06
   1.334186e+06   2.269029e+04
   7.881952e+05   7.883349e+05
   2.581045e+05   7.823299e+05
   1.577291e+05   3.467820e+05
   2.446323e+05   1.472916e+05
   3.010567e+04   4.088559e+05
  -5.710979e+05   6.594927e+05
  -1.072006e+06   3.093434e+05
  -8.725377e+05  -5.718543e+05
   1.155048e+05  -1.197673e+06
   1.260610e+06  -8.473600e+05
   1.651074e+06   3.511560e+05
   8.647379e+05   1.478129e+06
  -6.031686e+05   1.652526e+06
  -1.707923e+06   8.005915e+05
  -1.738071e+06  -3.478908e+05
  -8.830086e+05  -9.707663e+05
   4.996165e+04  -8.694016e+05
   4.343741e+05  -5.266449e+05
   3.215831e+05  -4.931727e+05
   2.140760e+05  -7.580349e+05
   4.489681e+05  -7.825522e+05
   8.384562e+05  -1.656980e+05
   8.853845e+05   8.058631e+05
   3.334063e+05   1.361825e+06
  -4.935576e+05   1.003828e+06
  -9.294718e+05   4.212949e+03
  -5.995038e+05  -8.525035e+05
   1.810187e+05  -9.757209e+05
   6.985005e+05  -4.184916e+05
   5.572174e+05   2.849698e+05
   5.411667e+04   6.435523e+05
  -2.015721e+05   5.825558e+05
   5.732715e+03   3.771440e+05
   2.599986e+05   2.873074e+05
   9.247086e+03   2.885207e+05
  -7.502113e+05   1.554175e+05
  -1.359995e+06  -2.297336e+05
  -1.126430e+06  -6.986595e+05
  -7.035725e+04  -9.313460e+05
   1.003522e+06  -7.435386e+05
   1.256895e+06  -2.507781e+05
   6.355878e+05   2.089539e+05
  -1.274319e+05   3.262426e+05
  -3.238300e+05   8.206847e+04
   3.049273e+04  -1.986777e+05
   3.693632e+05  -1.400286e+05
   3.132745e+05   2.554433e+05
   4.128506e+04   5.439252e+05
  -5.528380e+04   3.422938e+05
   1.182587e+05  -1.449743e+05
   3.024593e+05  -2.969463e+05
   2.139033e+05   1.580381e+05
  -1.832760e+05   7.323363e+05
  -6.536171e+05   7.136359e+05
  -8.249849e+05   2.436345e+04
  -4.438136e+05  -6.630338e+05
   3.135023e+05  -6.874034e+05
   8.119911e+05  -1.007958e+05
   4.856111e+05   4.612211e+05
  -4.847081e+05   4.705960e+05
  -1.184616e+06  -4.128725e+04
  -8.564064e+05  -6.164636e+05
   2.575975e+05  -8.000358e+05
   1.122678e+06  -4.725289e+05
   9.888312e+05   8.360840e+04
   1.436096e+05   4.025411e+05
  -4.598024e+05   2.353815e+05
  -2.322793e+05  -1.789931e+05
   4.809379e+05  -2.973896e+05
   8.245329e+05   1.743235e+05
   3.389285e+05   8.981168e+05
  -5.888979e+05   1.146661e+06
  -1.140043e+06   5.086526e+05
  -8.697394e+05  -6.228862e+05
  -7.618553e+04  -1.319770e+06
   5.766076e+05  -9.731130e+05
   6.897026e+05   8.202074e+04
   3.556447e+05   8.678253e+05
  -9.277262e+04   7.565210e+05
  -3.825428e+05   8.925714e+04
  -3.955369e+05  -3.074569e+05
  -1.902853e+05  -1.352126e+05
  -9.980095e+03   9.421417e+04
  -8.685286e+04  -1.583686e+05
  -3.013174e+05  -6.857741e+05
  -2.004683e+05  -8.101332e+05
   4.213838e+05  -2.917793e+05
   1.068614e+06   3.818716e+05
   9.903421e+05   6.480619e+05
   1.264465e+05   4.920159e+05
  -7.045678e+05   2.629233e+05
  -7.476798e+05   1.303928e+05
  -1.981991e+05   2.499425e+03
   1.412429e+05  -1.479023e+05
  -5.417067e+04  -1.994773e+05
  -2.795601e+05  -1.359681e+05
   5.397603e+03  -1.003364e+05
   5.835611e+05  -1.028798e+05
   7.382775e+05   7.246039e+04
   1.488723e+05   4.856296e+05
  -7.325066e+05   7.521074e+05
  -1.179219e+06   4.179627e+05
  -8.771286e+05  -4.052597e+05
  -1.075108e+05  -1.033705e+06
   5.738332e+05  -9.308725e+05
   7.664540e+05  -2.845619e+05
   4.714442e+05   2.441386e+05
   4.297089e+04   2.574560e+05
  -1.285645e+05  -1.617437e+04
   3.420452e+04  -7.419535e+04
   2.476749e+05   2.508275e+05
   1.847911e+05   5.923273e+05
  -1.713404e+05   4.599485e+05
  -4.974018e+05  -1.754989e+05
  -4.353012e+05  -7.669496e+05
   5.472613e+04  -7.268880e+05
   5.963898e+05  -5.915497e+04
   6.792155e+05   6.343067e+05
   1.502266e+05   7.859142e+05
  -5.470723e+05   3.924613e+05
  -7.544521e+05  -1.192181e+05
  -3.127347e+05  -3.971433e+05
   2.200604e+05  -3.971482e+05
   2.143738e+05  -2.363582e+05
  -2.519956e+05  -5.293368e+04
  -4.868203e+05  -1.184511e+04
  -6.725369e+04  -2.093822e+05
   6.198540e+05  -4.652168e+05
   8.630574e+05  -4.018697e+05
   4.673545e+05   8.993709e+04
  -1.081003e+05   5.881581e+05
  -3.596248e+05   5.658365e+05
  -2.298220e+05   4.941013e+04
   2.440823e+04  -3.742485e+05
   2.002343e+05  -2.593502e+05
   2.451730e+05   1.888699e+05
   1.475287e+05   4.260387e+05
  -6.868273e+04   2.394904e+05
  -2.730049e+05  -7.813736e+04
  -3.092636e+05  -1.704184e+05
  -1.727069e+05  -3.575292e+04
  -1.195913e+04   5.194683e+04
   6.563651e+04  -7.789470e+04
   1.057083e+05  -2.905469e+05
   1.885959e+05  -3.051044e+05
   2.710218e+05  -1.354984e+04
   2.139647e+05   3.657770e+05
  -3.836596e+04   4.716645e+05
  -3.381722e+05   1.711075e+05
  -4.143466e+05  -2.704971e+05
  -1.199215e+05  -4.466973e+05
   3.574726e+05  -2.319949e+05
   5.856949e+05   1.192476e+05
   3.065494e+05   2.910177e+05
  -2.233387e+05   2.224868e+05
  -4.438566e+05   7.408184e+04
  -1.251299e+05  -4.251068e+03
   3.223780e+05   2.767509e+04
   3.128881e+05   1.428222e+05
  -1.987859e+05   2.426081e+05
  -6.459577e+05   1.515293e+05
