
 $NMID
 id='ANONYMOUS ', fmtdat='(2E16.6)'
 volume=1.0
 tramp=1.0
 $END
  -4.710254e+07   3.291313e+06
  -3.121903e+07  -2.623695e+07
   2.917368e+06  -3.230125e+07
   2.216506e+07  -1.520293e+07
   1.511814e+07   3.816714e+06
  -1.642393e+06   8.301138e+06
  -8.775917e+06   3.353745e+05
  -3.715925e+06  -8.158535e+06
   4.421858e+06  -9.162686e+06
   8.290175e+06  -2.866479e+06
   6.462868e+06   5.020382e+06
   1.098617e+06   7.605108e+06
  -3.369652e+06   2.432159e+06
  -2.576779e+06  -5.065480e+06
   2.914543e+06  -6.400334e+06
   6.986269e+06   3.963685e+05
   4.632274e+06   8.511059e+06
  -2.401168e+06   1.045566e+07
  -8.236183e+06   5.615034e+06
  -9.138952e+06  -1.254523e+06
  -5.698377e+06  -5.853951e+06
  -9.843145e+05  -6.805971e+06
   1.611373e+06  -4.983479e+06
   6.500918e+05  -2.821569e+06
  -1.351759e+06  -2.709075e+06
   3.762248e+03  -4.147660e+06
   5.126584e+06  -3.886121e+06
   8.711990e+06  -3.909201e+05
   6.193043e+06   3.516691e+06
  -2.455713e+03   4.237718e+06
  -3.520108e+06   1.937978e+06
  -1.993708e+06  -4.394337e+05
   1.283910e+06  -1.099450e+06
   2.719183e+06  -1.695347e+05
   1.974716e+06   1.838384e+06
   2.541539e+05   3.732810e+06
  -1.561225e+06   3.211304e+06
  -2.349272e+06  -2.090628e+05
  -1.221552e+06  -2.876237e+06
   4.349732e+05  -1.169662e+06
  -2.011172e+04   2.548622e+06
  -2.265650e+06   2.319048e+06
  -2.458719e+06  -2.552817e+06
   1.335972e+06  -5.478845e+06
   5.435936e+06  -1.536023e+06
   4.702117e+06   5.319368e+06
  -8.886729e+05   7.271116e+06
  -6.148805e+06   2.494128e+06
  -6.523232e+06  -3.551607e+06
  -2.199750e+06  -5.415230e+06
   3.007411e+06  -2.836291e+06
   5.095769e+06   9.632017e+05
   2.674970e+06   3.017991e+06
  -1.850174e+06   2.214045e+06
  -4.056221e+06  -4.132726e+05
  -1.991866e+06  -2.198592e+06
   1.373215e+06  -1.314874e+06
   1.742962e+06   8.325994e+05
  -9.081633e+05   1.165209e+06
  -2.429372e+06  -9.414741e+05
  -2.215150e+05  -2.821706e+06
   3.454409e+06  -2.139021e+06
   4.680737e+06   5.117898e+05
   2.400667e+06   3.173893e+06
  -1.429518e+06   4.703370e+06
  -4.508378e+06   4.413740e+06
  -5.503883e+06   1.620605e+06
  -4.002742e+06  -2.731489e+06
  -9.646477e+05  -5.505561e+06
   1.352821e+06  -4.534411e+06
   1.475707e+06  -1.563890e+06
   4.795496e+05  -1.053233e+05
   4.948227e+05  -8.656374e+05
   1.794533e+06  -1.339590e+06
   2.622411e+06   1.480157e+05
   1.717542e+06   2.096030e+06
  -2.475435e+05   2.133142e+06
  -1.729730e+06   7.957765e+04
  -1.690762e+06  -2.180715e+06
   4.616578e+04  -2.846919e+06
   2.588177e+06  -1.462553e+06
   4.007212e+06   1.117022e+06
   2.868302e+06   3.249527e+06
   1.058939e+05   3.604288e+06
  -1.772570e+06   2.408009e+06
  -1.796906e+06   1.184969e+06
  -1.623116e+06   8.547468e+05
  -2.802780e+06   6.636966e+05
  -4.206780e+06  -5.318660e+05
  -3.451690e+06  -2.541045e+06
  -2.363246e+05  -4.003822e+06
   3.071421e+06  -3.833078e+06
   4.055766e+06  -2.012086e+06
   2.503675e+06   5.039557e+05
   1.227232e+05   2.163978e+06
  -1.139487e+06   1.783417e+06
  -5.131394e+05  -7.626692e+04
   1.074209e+06  -1.250909e+06
   1.800879e+06  -4.163553e+05
   8.500713e+05   1.102173e+06
  -5.388467e+05   1.083158e+06
  -5.304457e+05  -3.854889e+05
   9.194328e+05  -9.070924e+05
   1.945899e+06   8.560004e+05
   1.089804e+06   3.234568e+06
  -1.109420e+06   3.644069e+06
  -3.013850e+06   1.598614e+06
  -3.523629e+06  -1.160285e+06
  -2.507052e+06  -2.780307e+06
  -5.263157e+05  -2.690038e+06
   1.239979e+06  -1.454717e+06
   1.561144e+06  -2.042528e+05
   4.838474e+05   3.708581e+04
  -3.699500e+05  -7.277742e+05
   3.288454e+05  -1.293473e+06
   1.780088e+06  -6.226726e+05
   1.996117e+06   7.506342e+05
   4.581703e+05   1.339454e+06
  -1.126411e+06   6.106343e+05
  -9.401446e+05  -4.415088e+05
   8.139371e+05  -6.348717e+05
   2.265093e+06   1.844997e+05
   1.882362e+06   1.346477e+06
  -1.679106e+05   2.061794e+06
  -2.277440e+06   1.737499e+06
  -2.741956e+06   3.368166e+05
  -1.221878e+06  -1.182873e+06
   8.290963e+05  -1.443993e+06
   1.456987e+06  -2.236985e+05
   1.947147e+05   1.008890e+06
  -1.456421e+06   7.428594e+05
  -1.717957e+06  -7.065653e+05
  -4.222737e+05  -1.629936e+06
   1.027181e+06  -1.055807e+06
   1.284312e+06   2.179219e+05
   3.176689e+05   7.587934e+05
  -7.505586e+05   9.282610e+04
  -7.311782e+05  -1.004956e+06
   5.505320e+05  -1.392196e+06
   1.958844e+06  -5.461025e+05
   2.002349e+06   1.000630e+06
   4.173260e+05   2.020215e+06
  -1.361861e+06   1.646840e+06
  -1.691104e+06   2.640868e+05
  -5.378887e+05  -8.408123e+05
   6.253727e+05  -8.220752e+05
   6.534412e+05  -7.137599e+04
  -1.034723e+05   4.263768e+05
  -5.495945e+05   2.582436e+05
  -2.125388e+05  -1.137305e+05
   4.226573e+05  -3.453143e+04
   5.750746e+05   5.938676e+05
  -1.286294e+05   1.176494e+06
  -1.329326e+06   9.254516e+05
  -2.056787e+06  -3.595960e+05
  -1.473312e+06  -1.879033e+06
   1.763683e+05  -2.397876e+06
   1.588914e+06  -1.459522e+06
   1.722696e+06   7.692389e+04
   9.118434e+05   9.338789e+05
   3.072773e+05   7.459424e+05
   3.968396e+05   2.510234e+05
   5.671481e+05   2.499102e+05
   1.092381e+05   7.048720e+05
  -8.299848e+05   9.213769e+05
  -1.445194e+06   3.750401e+05
  -1.088868e+06  -7.218835e+05
   2.096770e+05  -1.506510e+06
   1.697019e+06  -1.122667e+06
   2.248013e+06   4.340496e+05
   1.188485e+06   2.049356e+06
  -9.025860e+05   2.361579e+06
  -2.461675e+06   1.108985e+06
  -2.371129e+06  -5.644913e+05
  -1.039632e+06  -1.327110e+06
   1.700777e+05  -1.013177e+06
   4.410508e+05  -5.508218e+05
   1.429605e+05  -7.050885e+05
   1.006270e+05  -1.222924e+06
   6.096588e+05  -1.247224e+06
   1.237533e+06  -3.331506e+05
   1.321209e+06   1.041425e+06
   5.724103e+05   1.856704e+06
  -5.954648e+05   1.422994e+06
  -1.275356e+06   2.795830e+04
  -8.450926e+05  -1.231528e+06
   3.203408e+05  -1.392131e+06
   1.110399e+06  -4.825295e+05
   8.320609e+05   5.995950e+05
  -3.864567e+04   1.040066e+06
  -4.561822e+05   8.115018e+05
  -6.113277e+04   4.458338e+05
   4.155739e+05   3.323099e+05
   5.583853e+04   3.790614e+05
  -1.108987e+06   2.428221e+05
  -2.011863e+06  -2.673609e+05
  -1.617827e+06  -9.716583e+05
  -3.607803e+04  -1.399490e+06
   1.495869e+06  -1.154890e+06
   1.793547e+06  -3.385042e+05
   8.630141e+05   4.276905e+05
  -2.181097e+05   5.491456e+05
  -4.978667e+05   6.771624e+04
  -3.404697e+04  -3.782084e+05
   4.439771e+05  -2.467534e+05
   4.736940e+05   3.270804e+05
   2.217146e+05   7.030837e+05
   6.811095e+04   4.587866e+05
   1.478949e+05  -1.186268e+05
   3.102420e+05  -3.119313e+05
   2.837238e+05   2.229393e+05
  -1.448735e+05   9.787294e+05
  -8.627309e+05   1.059471e+06
  -1.287327e+06   1.902585e+05
  -8.135644e+05  -8.698531e+05
   3.753241e+05  -1.096827e+06
   1.195238e+06  -3.309192e+05
   7.224789e+05   5.605257e+05
  -6.752232e+05   6.615977e+05
  -1.590785e+06  -5.577934e+04
  -1.054874e+06  -8.456068e+05
   4.406943e+05  -1.025991e+06
   1.500703e+06  -5.396843e+05
   1.260778e+06   1.573927e+05
   1.542625e+05   5.208182e+05
  -6.399470e+05   2.937617e+05
  -3.785563e+05  -2.687751e+05
   5.755503e+05  -5.031137e+05
   1.154432e+06   8.077717e+04
   6.495325e+05   1.151708e+06
  -5.785993e+05   1.663027e+06
  -1.454417e+06   8.720648e+05
  -1.245995e+06  -7.373561e+05
  -2.220510e+05  -1.771971e+06
   7.200277e+05  -1.306648e+06
   9.329048e+05   1.451562e+05
   4.651055e+05   1.180010e+06
  -1.865778e+05   9.881474e+05
  -5.535626e+05   1.056149e+05
  -4.812608e+05  -3.794631e+05
  -1.784744e+05  -1.496804e+05
  -4.306707e+04   1.046742e+05
  -2.634778e+05  -2.604449e+05
  -5.134504e+05  -9.369918e+05
  -2.247189e+05  -1.080796e+06
   6.792176e+05  -4.206437e+05
   1.470025e+06   4.391537e+05
   1.299460e+06   8.194445e+05
   1.992626e+05   6.856636e+05
  -8.522200e+05   4.165395e+05
  -9.808407e+05   1.985722e+05
  -3.508439e+05  -2.829493e+04
   1.451589e+05  -2.198802e+05
   2.018650e+04  -2.248680e+05
  -2.751583e+05  -1.122710e+05
  -4.434109e+04  -1.267772e+05
   6.644557e+05  -2.235701e+05
   1.028316e+06  -2.992690e+03
   4.159787e+05   6.542585e+05
  -8.195839e+05   1.155372e+06
  -1.644756e+06   7.733203e+05
  -1.373434e+06  -3.944960e+05
  -2.877931e+05  -1.381880e+06
   7.247269e+05  -1.370507e+06
   1.017948e+06  -5.397902e+05
   6.465754e+05   2.283859e+05
   1.321236e+05   3.457215e+05
  -7.395220e+04   4.657273e+04
   8.377606e+04  -3.254414e+04
   3.143364e+05   3.594641e+05
   2.646601e+05   7.991888e+05
  -1.648053e+05   6.684223e+05
  -6.690289e+05  -1.185966e+05
  -7.310965e+05  -9.268506e+05
  -1.209287e+05  -1.000706e+06
   7.340913e+05  -2.395005e+05
   1.020262e+06   6.982472e+05
   3.578395e+05   1.059921e+06
  -6.834775e+05   6.718263e+05
  -1.096128e+06  -4.923547e+04
  -5.383121e+05  -5.790725e+05
   2.580422e+05  -6.651636e+05
   3.551037e+05  -3.781867e+05
  -2.503671e+05  -1.939652e+04
  -6.412992e+05   4.680483e+04
  -1.493684e+05  -2.953336e+05
   8.034581e+05  -6.874585e+05
   1.232694e+06  -5.746828e+05
   7.548027e+05   1.413210e+05
  -7.458043e+04   8.550446e+05
  -5.151791e+05   8.616974e+05
  -3.991386e+05   1.724046e+05
  -5.284703e+04  -4.698026e+05
   2.230522e+05  -4.272581e+05
   3.409226e+05   1.470319e+05
   2.606932e+05   5.633892e+05
  -3.634339e+04   4.125467e+05
  -3.819556e+05  -3.922889e+04
  -4.792817e+05  -2.581901e+05
  -2.475128e+05  -8.515798e+04
   4.085153e+04   1.360415e+05
   9.890400e+04   2.796132e+04
  -1.496328e+03  -3.395042e+05
   4.215845e+04  -5.152006e+05
   2.964782e+05  -2.016476e+05
   4.376513e+05   3.602470e+05
   1.530864e+05   6.188897e+05
  -3.949507e+05   3.099915e+05
  -6.496404e+05  -2.598248e+05
  -2.546275e+05  -5.581688e+05
   4.893738e+05  -3.733001e+05
   8.635490e+05   5.304308e+04
   4.782507e+05   3.596439e+05
  -2.736720e+05   3.958450e+05
  -6.143368e+05   2.349036e+05
  -2.396752e+05   3.038551e+04
   3.392270e+05  -5.802671e+04
   3.948414e+05   6.611430e+04
  -1.725158e+05   2.860752e+05
  -7.368219e+05   2.682343e+05
