
 $NMID
 id='ANONYMOUS ', fmtdat='(2E16.6)'
 volume=1.0
 tramp=1.0
 $END
  -5.860996e+07  -1.348378e+06
  -3.399341e+07  -3.738094e+07
   9.068960e+06  -3.937794e+07
   2.893714e+07  -1.406991e+07
   1.651659e+07   7.998769e+06
  -3.852304e+06   9.452773e+06
  -9.934530e+06  -1.750064e+06
  -2.365250e+06  -1.008891e+07
   6.651242e+06  -9.174214e+06
   9.894956e+06  -1.645874e+06
   7.060045e+06   6.499139e+06
   7.273339e+05   8.804185e+06
  -4.154799e+06   2.817722e+06
  -2.657796e+06  -5.464210e+06
   3.944271e+06  -6.473239e+06
   8.010407e+06   1.642766e+06
   4.285409e+06   1.060094e+07
  -4.200637e+06   1.203885e+07
  -1.059272e+07   5.891676e+06
  -1.122527e+07  -2.321589e+06
  -6.823587e+06  -7.979891e+06
  -5.222883e+05  -9.175179e+06
   3.374519e+06  -6.282001e+06
   2.228163e+06  -2.512139e+06
  -1.088888e+06  -1.871429e+06
  -4.152852e+05  -4.145386e+06
   5.406357e+06  -4.583210e+06
   9.879206e+06  -5.898539e+05
   7.266374e+06   4.271354e+06
   3.417759e+05   5.321659e+06
  -3.763853e+06   2.814944e+06
  -2.668446e+06   1.755385e+05
   3.111960e+05  -9.491475e+05
   2.110717e+06  -6.904722e+05
   2.316610e+06   1.246504e+06
   8.949001e+05   3.985824e+06
  -1.869645e+06   4.044870e+06
  -3.529259e+06  -1.022923e+05
  -1.849418e+06  -3.891012e+06
   9.400641e+05  -2.155071e+06
   5.237388e+05   2.424545e+06
  -2.460134e+06   2.288285e+06
  -2.393921e+06  -3.347801e+06
   2.768952e+06  -6.215373e+06
   7.340250e+06  -7.594838e+05
   5.141766e+06   7.387739e+06
  -2.261327e+06   8.796821e+06
  -7.751396e+06   2.338325e+06
  -6.992412e+06  -4.660474e+06
  -1.720178e+06  -6.117944e+06
   3.552158e+06  -2.636637e+06
   5.221079e+06   1.653362e+06
   2.308106e+06   3.556343e+06
  -2.558981e+06   2.141180e+06
  -4.603862e+06  -1.079735e+06
  -1.896846e+06  -2.843939e+06
   1.807639e+06  -1.363100e+06
   1.714138e+06   1.060547e+06
  -1.416424e+06   7.979364e+05
  -2.409143e+06  -1.990758e+06
   9.180367e+05  -3.543989e+06
   4.937242e+06  -1.744465e+06
   5.394149e+06   1.624991e+06
   2.237354e+06   4.173261e+06
  -1.896663e+06   5.393799e+06
  -5.104821e+06   4.965410e+06
  -6.359742e+06   1.792966e+06
  -4.741777e+06  -3.267684e+06
  -9.489953e+05  -6.328573e+06
   1.978273e+06  -4.780223e+06
   1.795307e+06  -1.084825e+06
   1.897006e+04   3.401801e+05
  -2.150684e+05  -1.066355e+06
   1.544712e+06  -1.978937e+06
   2.898942e+06  -3.976541e+05
   2.172252e+06   1.863101e+06
   1.529887e+05   2.167537e+06
  -1.494957e+06   2.913420e+05
  -1.708089e+06  -2.003411e+06
  -5.500907e+04  -2.956104e+06
   2.808128e+06  -1.735220e+06
   4.615184e+06   1.189767e+06
   3.326647e+06   3.900718e+06
  -8.819512e+04   4.403167e+06
  -2.429705e+06   2.790132e+06
  -2.350727e+06   1.101658e+06
  -1.871166e+06   6.227714e+05
  -2.954524e+06   4.371647e+05
  -4.369862e+06  -7.973116e+05
  -3.499469e+06  -2.796169e+06
  -1.316174e+05  -4.148463e+06
   3.204320e+06  -3.943161e+06
   4.190132e+06  -2.198939e+06
   2.721064e+06   3.689840e+05
   3.550440e+05   2.268530e+06
  -1.072869e+06   2.005525e+06
  -5.862075e+05  -1.823193e+04
   1.081454e+06  -1.343284e+06
   1.939476e+06  -4.056650e+05
   9.541001e+05   1.238703e+06
  -4.984330e+05   1.133748e+06
  -3.930599e+05  -3.774888e+05
   1.096056e+06  -6.152603e+05
   1.797428e+06   1.423402e+06
   4.907055e+05   3.531377e+06
  -1.717009e+06   3.288994e+06
  -3.128345e+06   9.439737e+05
  -3.207564e+06  -1.497747e+06
  -2.209771e+06  -2.700998e+06
  -4.595817e+05  -2.562163e+06
   1.223442e+06  -1.481241e+06
   1.583300e+06  -2.551563e+05
   4.965378e+05   4.461605e+04
  -3.600459e+05  -7.586567e+05
   4.397403e+05  -1.361871e+06
   1.956107e+06  -5.718922e+05
   2.052646e+06   9.303388e+05
   3.622673e+05   1.444346e+06
  -1.186228e+06   5.632207e+05
  -8.703675e+05  -4.506361e+05
   8.541346e+05  -4.742110e+05
   2.137545e+06   3.560872e+05
   1.693276e+06   1.335536e+06
  -2.611231e+05   1.926221e+06
  -2.301401e+06   1.637814e+06
  -2.783651e+06   2.714247e+05
  -1.224827e+06  -1.292760e+06
   9.501862e+05  -1.536539e+06
   1.607500e+06  -1.849439e+05
   2.124418e+05   1.115154e+06
  -1.540223e+06   7.485535e+05
  -1.725357e+06  -8.023045e+05
  -3.105747e+05  -1.658293e+06
   1.112994e+06  -9.452646e+05
   1.243735e+06   3.475740e+05
   2.149547e+05   7.892948e+05
  -8.203562e+05   4.165865e+04
  -7.512677e+05  -1.072854e+06
   5.746577e+05  -1.449824e+06
   2.030479e+06  -5.641533e+05
   2.067248e+06   1.055119e+06
   3.884491e+05   2.101368e+06
  -1.465484e+06   1.656292e+06
  -1.743214e+06   1.986878e+05
  -4.913474e+05  -8.786350e+05
   6.688001e+05  -8.000262e+05
   6.228018e+05  -8.678890e+04
  -1.208649e+05   3.262427e+05
  -4.563735e+05   1.894062e+05
  -7.634648e+04  -3.464943e+04
   4.590291e+05   1.334663e+05
   4.911709e+05   7.072486e+05
  -2.368335e+05   1.193054e+06
  -1.401441e+06   8.931975e+05
  -2.100182e+06  -4.213190e+05
  -1.482645e+06  -1.963334e+06
   2.109838e+05  -2.436564e+06
   1.612107e+06  -1.404730e+06
   1.671136e+06   1.329878e+05
   8.388141e+05   8.636837e+05
   3.336759e+05   5.959902e+05
   5.256928e+05   1.987541e+05
   6.621187e+05   3.431899e+05
   8.790472e+04   7.958128e+05
  -8.910754e+05   8.980929e+05
  -1.444355e+06   3.129943e+05
  -1.035446e+06  -7.087056e+05
   2.546033e+05  -1.434275e+06
   1.721719e+06  -1.063305e+06
   2.252124e+06   4.848959e+05
   1.125634e+06   2.114273e+06
  -1.043594e+06   2.377238e+06
  -2.574756e+06   1.014407e+06
  -2.344053e+06  -6.858928e+05
  -9.226112e+05  -1.331680e+06
   2.138886e+05  -9.077831e+05
   3.517735e+05  -4.927106e+05
   3.259781e+04  -7.838559e+05
   9.068549e+04  -1.356825e+06
   6.904483e+05  -1.319252e+06
   1.321839e+06  -3.253923e+05
   1.360466e+06   1.085753e+06
   5.716951e+05   1.908768e+06
  -6.185918e+05   1.452957e+06
  -1.290647e+06  -3.883253e+03
  -8.076062e+05  -1.302858e+06
   4.146423e+05  -1.401233e+06
   1.186572e+06  -3.727612e+05
   8.048787e+05   7.448543e+05
  -1.609291e+05   1.096127e+06
  -5.740959e+05   7.691664e+05
  -9.365643e+04   3.981726e+05
   4.487015e+05   3.316679e+05
   6.789080e+04   3.847724e+05
  -1.168867e+06   2.046477e+05
  -2.096841e+06  -3.446900e+05
  -1.628796e+06  -1.054221e+06
   6.501931e+04  -1.455592e+06
   1.630665e+06  -1.151680e+06
   1.849375e+06  -2.635694e+05
   8.202992e+05   5.244032e+05
  -2.803050e+05   5.845022e+05
  -5.192346e+05   1.891150e+04
  -3.485954e+04  -4.480590e+05
   4.371538e+05  -2.728863e+05
   4.917601e+05   3.434728e+05
   2.873033e+05   7.304604e+05
   1.237292e+05   4.902566e+05
   1.285100e+05  -7.972172e+04
   2.525437e+05  -2.817124e+05
   2.727958e+05   2.342087e+05
  -1.217530e+05   9.915809e+05
  -9.050605e+05   1.084306e+06
  -1.410443e+06   1.900259e+05
  -8.961953e+05  -9.283434e+05
   4.215656e+05  -1.176913e+06
   1.294700e+06  -3.673033e+05
   7.511578e+05   5.663974e+05
  -7.102333e+05   6.491251e+05
  -1.583993e+06  -1.011688e+05
  -9.774910e+05  -8.605101e+05
   5.036039e+05  -9.658024e+05
   1.487074e+06  -4.508908e+05
   1.210046e+06   1.998111e+05
   1.246330e+05   5.055844e+05
  -6.524811e+05   2.588589e+05
  -3.958320e+05  -3.073307e+05
   5.771058e+05  -5.509917e+05
   1.205371e+06   4.973790e+04
   7.206661e+05   1.183354e+06
  -5.489051e+05   1.747680e+06
  -1.479439e+06   9.359584e+05
  -1.280511e+06  -7.399525e+05
  -2.286576e+05  -1.798953e+06
   7.288101e+05  -1.293911e+06
   9.214441e+05   1.896931e+05
   4.208429e+05   1.194020e+06
  -2.380283e+05   9.529231e+05
  -5.711183e+05   7.400478e+04
  -4.523338e+05  -3.649237e+05
  -1.435141e+05  -1.220519e+05
  -5.553121e+04   8.598652e+04
  -3.157818e+05  -3.226102e+05
  -5.341710e+05  -9.806089e+05
  -1.731059e+05  -1.070788e+06
   7.503712e+05  -3.889468e+05
   1.486077e+06   4.519597e+05
   1.268504e+06   8.227823e+05
   1.878866e+05   7.077225e+05
  -8.299749e+05   4.422222e+05
  -9.774373e+05   1.864228e+05
  -3.829250e+05  -7.210445e+04
   1.342299e+05  -2.350528e+05
   6.204487e+04  -1.822640e+05
  -2.382354e+05  -6.367745e+04
  -6.744661e+04  -1.352037e+05
   6.299504e+05  -2.715210e+05
   1.065257e+06  -1.403234e+04
   5.000530e+05   7.126892e+05
  -8.027697e+05   1.234793e+06
  -1.738045e+06   8.130218e+05
  -1.485387e+06  -4.030889e+05
  -3.181858e+05  -1.414332e+06
   7.658609e+05  -1.414009e+06
   1.059433e+06  -5.879371e+05
   6.665978e+05   2.009558e+05
   1.579566e+05   3.648623e+05
  -4.234969e+04   9.909898e+04
   8.798326e+04   1.067862e+04
   2.893851e+05   3.742765e+05
   2.482472e+05   8.098926e+05
  -1.630749e+05   7.007091e+05
  -6.900082e+05  -8.100575e+04
  -7.959276e+05  -9.274191e+05
  -1.804866e+05  -1.055776e+06
   7.416203e+05  -3.098037e+05
   1.083200e+06   6.748333e+05
   4.009348e+05   1.103379e+06
  -7.076201e+05   7.315090e+05
  -1.155883e+06  -4.496900e+04
  -5.674061e+05  -6.407997e+05
   2.870382e+05  -7.278522e+05
   4.107506e+05  -3.816375e+05
  -2.177299e+05   1.781958e+04
  -6.484051e+05   6.145671e+04
  -1.659294e+05  -3.184731e+05
   8.204607e+05  -6.990829e+05
   1.288719e+06  -5.384396e+05
   8.054339e+05   2.003467e+05
  -7.902441e+04   8.973367e+05
  -5.761866e+05   8.864985e+05
  -4.698653e+05   1.918908e+05
  -8.785642e+04  -4.728071e+05
   2.297197e+05  -4.678319e+05
   3.647133e+05   1.073294e+05
   2.759833e+05   5.786308e+05
  -4.096144e+04   4.664891e+05
  -4.015247e+05  -2.164950e+04
  -4.949291e+05  -2.993609e+05
  -2.436807e+05  -1.133514e+05
   4.981584e+04   1.813626e+05
   7.389853e+04   9.716330e+04
  -7.225988e+04  -3.455286e+05
  -2.213154e+04  -6.097707e+05
   3.089936e+05  -2.960437e+05
   5.274323e+05   3.413590e+05
   2.370425e+05   6.592794e+05
  -3.915869e+05   3.495435e+05
  -7.080213e+05  -2.480288e+05
  -2.923449e+05  -5.641243e+05
   5.166011e+05  -3.860185e+05
   9.201819e+05   4.267453e+04
   5.055645e+05   3.717870e+05
  -2.928099e+05   4.395144e+05
  -6.577784e+05   2.780431e+05
  -2.823290e+05   2.512668e+04
   3.155266e+05  -1.147178e+05
   4.071054e+05   1.093717e+04
  -1.258429e+05   2.818256e+05
  -6.933468e+05   3.063194e+05
