
 $NMID
 id='ANONYMOUS ', fmtdat='(2E16.6)'
 volume=1.0
 tramp=1.0
 $END
  -4.694731e+07  -3.819729e+05
  -2.840867e+07  -2.826949e+07
   5.584043e+06  -3.138871e+07
   2.265177e+07  -1.310295e+07
   1.412200e+07   4.792167e+06
  -2.256121e+06   7.830758e+06
  -8.346736e+06  -2.998127e+05
  -2.966913e+06  -8.039642e+06
   4.756703e+06  -8.487513e+06
   8.143277e+06  -2.217612e+06
   6.066885e+06   5.339553e+06
   6.895259e+05   7.577460e+06
  -3.531758e+06   2.240039e+06
  -2.405566e+06  -5.082716e+06
   3.092780e+06  -6.052815e+06
   6.740035e+06   8.565072e+05
   3.967393e+06   8.633750e+06
  -3.062217e+06   1.008845e+07
  -8.544689e+06   4.964937e+06
  -9.032261e+06  -1.927965e+06
  -5.238781e+06  -6.353276e+06
  -3.216739e+05  -6.930739e+06
   2.160044e+06  -4.683366e+06
   8.200040e+05  -2.386410e+06
  -1.444384e+06  -2.507712e+06
  -9.577845e+03  -4.169452e+06
   5.272818e+06  -3.802708e+06
   8.776593e+06  -6.683087e+04
   6.038838e+06   3.860473e+06
  -2.340310e+05   4.391389e+06
  -3.705649e+06   1.936402e+06
  -2.181337e+06  -5.144911e+05
   1.108981e+06  -1.256251e+06
   2.705060e+06  -3.396868e+05
   2.096540e+06   1.822087e+06
   2.428670e+05   3.846994e+06
  -1.792109e+06   3.189735e+06
  -2.493409e+06  -4.703511e+05
  -1.038372e+06  -3.116688e+06
   7.216794e+05  -1.172373e+06
   5.399815e+04   2.606610e+06
  -2.273624e+06   2.210502e+06
  -2.211080e+06  -2.632779e+06
   1.728105e+06  -5.167664e+06
   5.457693e+06  -9.362328e+05
   4.183317e+06   5.661187e+06
  -1.468813e+06   7.056495e+06
  -6.261255e+06   2.020969e+06
  -6.203978e+06  -3.816738e+06
  -1.888387e+06  -5.343525e+06
   3.020633e+06  -2.612922e+06
   4.870785e+06   1.124056e+06
   2.432470e+06   2.992604e+06
  -1.925506e+06   1.995639e+06
  -3.917337e+06  -6.594733e+05
  -1.783775e+06  -2.252414e+06
   1.434961e+06  -1.191888e+06
   1.652555e+06   8.629294e+05
  -8.966336e+05   9.768268e+05
  -2.151148e+06  -1.091840e+06
   1.240749e+05  -2.632044e+06
   3.539428e+06  -1.693787e+06
   4.457010e+06   8.600882e+05
   2.089731e+06   3.249790e+06
  -1.669485e+06   4.604999e+06
  -4.682631e+06   4.239982e+06
  -5.585628e+06   1.374125e+06
  -3.893671e+06  -2.962470e+06
  -7.101718e+05  -5.535361e+06
   1.518417e+06  -4.344763e+06
   1.409380e+06  -1.387789e+06
   3.138790e+05  -1.361629e+05
   4.417409e+05  -1.026203e+06
   1.882701e+06  -1.439757e+06
   2.733134e+06   1.584225e+05
   1.779327e+06   2.146095e+06
  -2.189570e+05   2.186502e+06
  -1.715694e+06   1.392113e+05
  -1.680141e+06  -2.142700e+06
   8.573956e+04  -2.836618e+06
   2.650441e+06  -1.400791e+06
   3.997279e+06   1.282752e+06
   2.708999e+06   3.415202e+06
  -1.332555e+05   3.614209e+06
  -1.941870e+06   2.260431e+06
  -1.838292e+06   1.015532e+06
  -1.589852e+06   7.380163e+05
  -2.736069e+06   5.588731e+05
  -4.097331e+06  -6.400229e+05
  -3.319355e+06  -2.581933e+06
  -1.437859e+05  -3.938089e+06
   3.104338e+06  -3.723629e+06
   4.069668e+06  -1.932063e+06
   2.516133e+06   5.509808e+05
   1.067607e+05   2.194203e+06
  -1.178782e+06   1.786749e+06
  -5.265237e+05  -8.831832e+04
   1.090967e+06  -1.230021e+06
   1.792683e+06  -3.588862e+05
   8.092272e+05   1.134454e+06
  -5.471026e+05   1.075363e+06
  -5.005949e+05  -3.542060e+05
   8.755552e+05  -8.043907e+05
   1.762403e+06   9.087481e+05
   8.910643e+05   3.105176e+06
  -1.137545e+06   3.393070e+06
  -2.856644e+06   1.425497e+06
  -3.337432e+06  -1.157672e+06
  -2.412229e+06  -2.687063e+06
  -5.069939e+05  -2.619764e+06
   1.238822e+06  -1.424661e+06
   1.551792e+06  -1.862331e+05
   4.756500e+05   4.549252e+04
  -3.480779e+05  -7.219474e+05
   3.672886e+05  -1.254310e+06
   1.770890e+06  -5.485095e+05
   1.924524e+06   7.966640e+05
   4.005963e+05   1.316295e+06
  -1.112550e+06   5.692396e+05
  -9.085398e+05  -4.305814e+05
   7.782972e+05  -5.850209e+05
   2.171537e+06   2.019512e+05
   1.813426e+06   1.302512e+06
  -1.709981e+05   1.987561e+06
  -2.240721e+06   1.665651e+06
  -2.692361e+06   2.837650e+05
  -1.165899e+06  -1.192435e+06
   8.676273e+05  -1.398096e+06
   1.447903e+06  -1.666370e+05
   1.602633e+05   1.012894e+06
  -1.453306e+06   6.977877e+05
  -1.662667e+06  -7.282408e+05
  -3.763891e+05  -1.587712e+06
   1.009764e+06  -9.938904e+05
   1.227555e+06   2.372262e+05
   2.837278e+05   7.319248e+05
  -7.377842e+05   6.128119e+04
  -6.965413e+05  -1.009915e+06
   5.721552e+05  -1.366123e+06
   1.946286e+06  -5.031079e+05
   1.955916e+06   1.027246e+06
   3.672850e+05   1.996545e+06
  -1.373586e+06   1.584195e+06
  -1.659392e+06   2.213220e+05
  -5.055439e+05  -8.280848e+05
   6.252127e+05  -7.895774e+05
   6.426893e+05  -7.190516e+04
  -8.713139e+04   4.008159e+05
  -5.157318e+05   2.587504e+05
  -2.061815e+05  -7.396064e+04
   3.848870e+05   1.479319e+03
   5.232901e+05   5.878101e+05
  -1.576224e+05   1.134764e+06
  -1.320444e+06   8.759713e+05
  -2.011840e+06  -3.936893e+05
  -1.412018e+06  -1.877691e+06
   2.124480e+05  -2.354545e+06
   1.570061e+06  -1.405968e+06
   1.674537e+06   9.087769e+04
   8.919035e+05   9.031530e+05
   3.300278e+05   7.222221e+05
   4.164824e+05   2.717675e+05
   5.480530e+05   2.851282e+05
   7.730782e+04   7.023209e+05
  -8.296926e+05   8.809175e+05
  -1.412036e+06   3.449218e+05
  -1.058671e+06  -7.085055e+05
   2.131405e+05  -1.459946e+06
   1.671904e+06  -1.072461e+06
   2.196080e+06   4.590536e+05
   1.124325e+06   2.023957e+06
  -9.359415e+05   2.284950e+06
  -2.428449e+06   1.026976e+06
  -2.296385e+06  -5.916387e+05
  -9.912873e+05  -1.292060e+06
   1.615503e+05  -9.709016e+05
   4.150562e+05  -5.482880e+05
   1.500828e+05  -7.265171e+05
   1.396450e+05  -1.222273e+06
   6.397033e+05  -1.212690e+06
   1.230730e+06  -2.951301e+05
   1.284159e+06   1.053146e+06
   5.316917e+05   1.839447e+06
  -6.106861e+05   1.392391e+06
  -1.250016e+06   6.098999e+03
  -7.974858e+05  -1.222165e+06
   3.449800e+05  -1.346827e+06
   1.084218e+06  -4.312399e+05
   7.769779e+05   6.127672e+05
  -7.802667e+04   1.003960e+06
  -4.644750e+05   7.621240e+05
  -5.913789e+04   4.243690e+05
   4.098199e+05   3.384042e+05
   5.122677e+04   3.768174e+05
  -1.093402e+06   2.087394e+05
  -1.970965e+06  -3.135786e+05
  -1.564558e+06  -9.868551e+05
   5.499270e+03  -1.362862e+06
   1.501564e+06  -1.090374e+06
   1.759345e+06  -2.913383e+05
   8.176225e+05   4.340286e+05
  -2.365801e+05   5.292357e+05
  -4.828555e+05   4.995380e+04
  -1.445360e+04  -3.820940e+05
   4.440867e+05  -2.429301e+05
   4.613328e+05   3.329907e+05
   2.135309e+05   7.118266e+05
   6.285518e+04   4.682837e+05
   1.357317e+05  -1.139268e+05
   2.941218e+05  -3.117528e+05
   2.727124e+05   2.215167e+05
  -1.526936e+05   9.678236e+05
  -8.711455e+05   1.027054e+06
  -1.285028e+06   1.467061e+05
  -7.895245e+05  -8.901571e+05
   4.045779e+05  -1.075781e+06
   1.200648e+06  -2.961327e+05
   7.072338e+05   5.661369e+05
  -6.734225e+05   6.342194e+05
  -1.553434e+06  -7.681374e+04
  -1.014670e+06  -8.285465e+05
   4.402160e+05  -9.826546e+05
   1.460986e+06  -5.054219e+05
   1.222366e+06   1.633151e+05
   1.453405e+05   5.054985e+05
  -6.268405e+05   2.745810e+05
  -3.635222e+05  -2.774375e+05
   5.820676e+05  -4.948604e+05
   1.148288e+06   9.864705e+04
   6.293516e+05   1.159497e+06
  -6.012717e+05   1.647492e+06
  -1.457205e+06   8.453949e+05
  -1.221774e+06  -7.465462e+05
  -1.943437e+05  -1.750466e+06
   7.208241e+05  -1.273835e+06
   9.049038e+05   1.564767e+05
   4.356766e+05   1.158092e+06
  -1.936321e+05   9.540626e+05
  -5.412196e+05   8.981454e+04
  -4.684602e+05  -3.702305e+05
  -1.751165e+05  -1.378558e+05
  -4.117544e+04   9.726575e+04
  -2.501074e+05  -2.787677e+05
  -4.883597e+05  -9.376144e+05
  -2.044722e+05  -1.053060e+06
   6.755322e+05  -3.867757e+05
   1.440646e+06   4.530603e+05
   1.264380e+06   8.138689e+05
   1.822810e+05   6.771481e+05
  -8.452639e+05   4.087937e+05
  -9.638454e+05   1.837901e+05
  -3.397375e+05  -4.451074e+04
   1.469390e+05  -2.191392e+05
   1.883628e+04  -2.061445e+05
  -2.748557e+05  -9.881833e+04
  -4.358751e+04  -1.312929e+05
   6.615983e+05  -2.266967e+05
   1.018925e+06   1.461153e+04
   4.009913e+05   6.741121e+05
  -8.334563e+05   1.142055e+06
  -1.647463e+06   7.282136e+05
  -1.360105e+06  -4.281597e+05
  -2.652998e+05  -1.373334e+06
   7.426496e+05  -1.337306e+06
   1.023130e+06  -5.175858e+05
   6.421510e+05   2.321938e+05
   1.256323e+05   3.496531e+05
  -8.023457e+04   5.898140e+04
   7.402417e+04  -2.430046e+04
   2.987099e+05   3.536212e+05
   2.471519e+05   7.868867e+05
  -1.760375e+05   6.604800e+05
  -6.677488e+05  -1.232633e+05
  -7.178393e+05  -9.336092e+05
  -1.044063e+05  -1.005969e+06
   7.408261e+05  -2.356183e+05
   1.009639e+06   7.082002e+05
   3.370452e+05   1.061643e+06
  -6.956913e+05   6.563809e+05
  -1.086716e+06  -7.255927e+04
  -5.139187e+05  -5.900887e+05
   2.784520e+05  -6.537899e+05
   3.617050e+05  -3.566517e+05
  -2.496175e+05  -9.689374e+03
  -6.354241e+05   3.957230e+04
  -1.410051e+05  -2.988343e+05
   8.025576e+05  -6.654433e+05
   1.218566e+06  -5.349425e+05
   7.351189e+05   1.661219e+05
  -9.231452e+04   8.450549e+05
  -5.297237e+05   8.322691e+05
  -4.083108e+05   1.526971e+05
  -5.103011e+04  -4.706283e+05
   2.336638e+05  -4.219485e+05
   3.455423e+05   1.480168e+05
   2.491380e+05   5.623536e+05
  -5.245130e+04   4.117641e+05
  -3.817335e+05  -4.452970e+04
  -4.619166e+05  -2.681305e+05
  -2.359472e+05  -8.946295e+04
   3.018004e+04   1.423680e+05
   7.867340e+04   3.263138e+04
  -6.160084e+03  -3.500181e+05
   5.862599e+04  -5.330537e+05
   3.158348e+05  -2.053252e+05
   4.429069e+05   3.758325e+05
   1.466475e+05   6.339961e+05
  -3.998908e+05   3.067650e+05
  -6.466969e+05  -2.735525e+05
  -2.482870e+05  -5.607121e+05
   4.918478e+05  -3.577696e+05
   8.587940e+05   7.228636e+04
   4.676455e+05   3.664620e+05
  -2.854829e+05   3.882455e+05
  -6.220350e+05   2.209510e+05
  -2.407695e+05   1.739370e+04
   3.432731e+05  -6.625079e+04
   4.012180e+05   6.441209e+04
  -1.654999e+05   2.889977e+05
  -7.299270e+05   2.704346e+05
