
 $NMID
 id='ANONYMOUS ', fmtdat='(2E16.6)'
 volume=1.0
 tramp=1.0
 $END
  -3.637195e+06   6.709958e+05
  -2.517512e+06  -1.940122e+06
   1.320439e+05  -2.548531e+06
   1.608241e+06  -1.143565e+06
   1.054298e+06   3.591365e+05
  -1.578080e+05   6.100925e+05
  -5.994522e+05  -3.692695e+04
  -2.159977e+05  -5.804517e+05
   3.072979e+05  -5.793164e+05
   5.643780e+05  -1.832464e+05
   5.015494e+05   2.919849e+05
   1.655027e+05   5.005224e+05
  -2.058832e+05   2.348830e+05
  -2.307371e+05  -2.538673e+05
   1.487198e+05  -3.990343e+05
   4.919285e+05   1.707350e+04
   3.781799e+05   5.819663e+05
  -1.090487e+05   7.708951e+05
  -5.686077e+05   4.947698e+05
  -7.251159e+05   1.419751e+04
  -5.450357e+05  -4.064372e+05
  -1.580121e+05  -5.884073e+05
   1.617603e+05  -4.496391e+05
   1.590815e+05  -1.499480e+05
  -7.031737e+04  -3.052506e+04
  -1.134508e+05  -2.020505e+05
   2.115077e+05  -3.613646e+05
   5.545999e+05  -2.078065e+05
   4.999303e+05   1.348080e+05
   1.272671e+05   3.230235e+05
  -1.552499e+05   2.543629e+05
  -1.684415e+05   8.887561e+04
  -5.401674e+04  -4.313268e+04
   6.055096e+04  -9.819531e+04
   1.563275e+05  -9.186278e+03
   1.482519e+05   1.998585e+05
  -4.271959e+04   2.830734e+05
  -2.458938e+05   6.191030e+04
  -1.952960e+05  -2.213625e+05
   3.805570e+04  -1.804584e+05
   9.704624e+04   1.061355e+05
  -9.722967e+04   1.555521e+05
  -1.747877e+05  -1.737127e+05
   1.149552e+05  -4.040644e+05
   4.661141e+05  -1.208485e+05
   4.113464e+05   4.025044e+05
  -4.164512e+04   5.701617e+05
  -4.428076e+05   2.416513e+05
  -4.596023e+05  -1.801886e+05
  -1.636442e+05  -3.208567e+05
   1.663216e+05  -1.824955e+05
   2.998867e+05   3.468283e+04
   1.567700e+05   1.718491e+05
  -1.330777e+05   1.480556e+05
  -2.824338e+05  -1.389115e+04
  -1.392957e+05  -1.480949e+05
   9.268254e+04  -1.024409e+05
   1.031770e+05   3.767811e+04
  -8.717074e+04   4.427346e+04
  -1.556456e+05  -1.189394e+05
   4.959742e+04  -2.366156e+05
   3.039739e+05  -1.511250e+05
   3.417361e+05   5.293869e+04
   1.755266e+05   2.297889e+05
  -3.081387e+04   3.440400e+05
  -2.078447e+05   3.684361e+05
  -3.394185e+05   2.080226e+05
  -3.366810e+05  -1.148483e+05
  -1.543033e+05  -3.503189e+05
   5.458594e+04  -2.897509e+05
   9.125926e+04  -5.891066e+04
  -1.820083e+04   4.227345e+04
  -6.839130e+04  -6.042264e+04
   3.026209e+04  -1.610143e+05
   1.545304e+05  -9.926703e+04
   1.659030e+05   4.425414e+04
   6.631764e+04   1.082766e+05
  -5.725078e+04   5.106956e+04
  -1.204817e+05  -6.289706e+04
  -5.798226e+04  -1.545180e+05
   1.248782e+05  -1.502456e+05
   2.874284e+05  -1.384224e+04
   2.601868e+05   1.773653e+05
   5.964245e+04   2.691913e+05
  -1.123580e+05   2.042571e+05
  -1.316242e+05   9.137771e+04
  -9.856778e+04   5.028384e+04
  -1.511272e+05   5.905477e+04
  -2.440802e+05   1.802938e+04
  -2.269304e+05  -9.727207e+04
  -7.029670e+04  -2.160150e+05
   1.036359e+05  -2.594245e+05
   1.825442e+05  -1.918888e+05
   1.557057e+05  -3.466868e+04
   6.894275e+04   1.142717e+05
  -1.664366e+04   1.316552e+05
  -3.384463e+04   1.227007e+04
   3.253423e+04  -9.111275e+04
   9.900868e+04  -5.252617e+04
   7.494743e+04   5.411025e+04
  -3.860728e+03   6.834893e+04
  -1.839519e+04  -1.232740e+04
   5.556033e+04  -3.336514e+04
   1.073598e+05   7.400290e+04
   5.087938e+04   1.881051e+05
  -6.642599e+04   1.763409e+05
  -1.500608e+05   6.372148e+04
  -1.703633e+05  -4.155540e+04
  -1.402910e+05  -9.587137e+04
  -6.210992e+04  -1.150071e+05
   3.623245e+04  -9.688413e+04
   7.701461e+04  -4.226520e+04
   2.660111e+04  -5.663232e+03
  -3.034437e+04  -3.411110e+04
   5.615808e+03  -8.020352e+04
   9.930060e+04  -5.900643e+04
   1.227662e+05   2.271859e+04
   3.721671e+04   7.294625e+04
  -5.400110e+04   4.563789e+04
  -4.757846e+04  -8.950364e+03
   3.793294e+04  -2.931554e+04
   1.073480e+05  -7.785844e+03
   9.741054e+04   3.909424e+04
   1.347279e+04   9.444654e+04
  -9.065200e+04   1.157739e+05
  -1.387661e+05   5.664600e+04
  -8.390956e+04  -5.104565e+04
   2.899567e+04  -9.894285e+04
   8.665987e+04  -3.429941e+04
   3.050263e+04   5.872380e+04
  -7.008914e+04   6.400153e+04
  -1.012359e+05  -1.712069e+04
  -3.720647e+04  -8.044940e+04
   4.547012e+04  -6.033952e+04
   6.661473e+04   4.127834e+03
   1.830733e+04   3.815412e+04
  -4.480284e+04   1.294859e+04
  -5.708932e+04  -4.559366e+04
   6.232935e+03  -8.622569e+04
   9.737101e+04  -6.351896e+04
   1.259491e+05   2.186396e+04
   5.325093e+04   1.044387e+05
  -5.226214e+04   1.089805e+05
  -8.787662e+04   3.563191e+04
  -3.697659e+04  -3.837117e+04
   2.292124e+04  -5.042200e+04
   2.825614e+04  -1.557857e+04
  -1.896119e+03   1.292807e+04
  -1.489029e+04   1.313129e+04
   3.324143e+03   3.643898e+03
   2.785129e+04   8.401758e+03
   3.222533e+04   3.411993e+04
   1.899396e+03   6.550910e+04
  -6.015747e+04   6.694260e+04
  -1.158945e+05   1.033157e+04
  -1.084891e+05  -7.934739e+04
  -2.814294e+04  -1.290764e+05
   5.950620e+04  -9.499893e+04
   8.401531e+04  -1.798070e+04
   5.271700e+04   2.586883e+04
   2.811725e+04   1.614785e+04
   3.708321e+04  -1.845491e+03
   4.474300e+04   1.140988e+04
   1.671528e+04   4.399776e+04
  -3.359530e+04   5.920289e+04
  -6.802730e+04   3.650767e+04
  -6.130823e+04  -1.798349e+04
  -8.418510e+03  -7.295244e+04
   7.094081e+04  -7.931190e+04
   1.224439e+05  -1.019522e+04
   8.884608e+04   9.198191e+04
  -2.103035e+04   1.388496e+05
  -1.198742e+05   8.920864e+04
  -1.287643e+05  -2.415418e+03
  -6.237935e+04  -5.242784e+04
  -1.705440e+03  -4.368027e+04
   4.672798e+03  -2.741639e+04
  -1.775315e+04  -4.445585e+04
  -1.885315e+04  -7.767511e+04
   1.731692e+04  -8.246960e+04
   6.620507e+04  -3.824405e+04
   8.925859e+04   3.465844e+04
   6.084678e+04   8.997973e+04
  -8.294881e+03   8.557431e+04
  -6.628563e+04   1.958039e+04
  -6.063178e+04  -5.652427e+04
   2.867156e+03  -7.850563e+04
   5.828505e+04  -3.263630e+04
   5.188785e+04   3.246635e+04
   3.379893e+03   6.151664e+04
  -2.291228e+04   4.632440e+04
   1.156549e+01   1.908210e+04
   3.013630e+04   9.208337e+03
   1.056306e+04   1.866420e+04
  -5.919322e+04   2.784597e+04
  -1.168221e+05   1.335706e+04
  -1.008003e+05  -3.079233e+04
  -1.540327e+04  -7.807442e+04
   7.089357e+04  -8.555175e+04
   9.244696e+04  -4.010267e+04
   4.801706e+04   1.834607e+04
  -7.866453e+03   3.636065e+04
  -2.725304e+04   6.924105e+03
  -9.429034e+03  -2.604187e+04
   1.713155e+04  -2.260573e+04
   3.168842e+04   1.004815e+04
   3.050276e+04   3.361393e+04
   1.764148e+04   2.442828e+04
   4.152423e+03  -3.976751e+03
   4.904088e+03  -1.668237e+04
   1.714831e+04   7.988463e+03
   1.171371e+04   5.295467e+04
  -3.008096e+04   7.147779e+04
  -7.518140e+04   3.334251e+04
  -6.562104e+04  -3.519944e+04
   4.163426e+03  -7.120530e+04
   6.495077e+04  -4.243554e+04
   4.911875e+04   1.640062e+04
  -2.708911e+04   4.408616e+04
  -8.156268e+04   1.879344e+04
  -5.953588e+04  -2.818574e+04
   1.298492e+04  -5.402534e+04
   6.711571e+04  -4.265615e+04
   6.180187e+04  -7.631302e+03
   1.306179e+04   2.269721e+04
  -2.945857e+04   2.204711e+04
  -2.619039e+04  -1.109303e+04
   2.002762e+04  -4.022184e+04
   6.466037e+04  -1.943948e+04
   6.030219e+04   4.952764e+04
   3.230204e+03   1.023546e+05
  -6.054650e+04   7.574344e+04
  -7.913283e+04  -1.613761e+04
  -4.206012e+04  -8.874461e+04
   1.578050e+04  -7.697166e+04
   4.923729e+04  -3.264982e+03
   3.877536e+04   5.427007e+04
   9.046177e+02   5.030299e+04
  -2.871922e+04   1.152268e+04
  -2.733388e+04  -1.014727e+04
  -7.278989e+03  -2.279510e+03
  -2.100885e+03   4.242690e+03
  -2.441781e+04  -1.447945e+04
  -4.465456e+04  -4.313093e+04
  -2.372499e+04  -5.081177e+04
   3.554096e+04  -3.054499e+04
   8.369273e+04  -1.264272e+03
   7.621526e+04   2.068254e+04
   2.073254e+04   3.395016e+04
  -3.332409e+04   3.767313e+04
  -4.618720e+04   2.507950e+04
  -2.246911e+04   3.282311e+02
   2.218500e+03  -1.497629e+04
   2.514799e+03  -7.926009e+03
  -1.096386e+04   3.430890e+03
  -6.981594e+03  -6.164882e+03
   2.533341e+04  -2.691894e+04
   5.575028e+04  -1.918422e+04
   4.205235e+04   3.088331e+04
  -1.892307e+04   8.036526e+04
  -7.958478e+04   7.258125e+04
  -8.825289e+04   4.112027e+03
  -4.150787e+04  -6.805614e+04
   1.739503e+04  -8.689246e+04
   4.607466e+04  -5.024061e+04
   3.818595e+04  -2.535953e+03
   1.557159e+04   1.687390e+04
   1.373453e+03   8.636040e+03
   4.938928e+03   1.502156e+03
   1.951468e+04   1.498817e+04
   2.517905e+04   3.747474e+04
   3.596972e+03   4.000125e+04
  -3.739721e+04   9.575339e+03
  -5.943322e+04  -3.356959e+04
  -3.022427e+04  -5.342944e+04
   3.266963e+04  -3.205205e+04
   6.961682e+04   1.463172e+04
   4.123403e+04   5.153248e+04
  -2.486232e+04   5.225887e+04
  -6.262574e+04   1.737108e+04
  -4.116381e+04  -2.639783e+04
   3.912743e+03  -4.522161e+04
   1.755416e+04  -2.645445e+04
  -8.824148e+03   6.597740e+03
  -3.217516e+04   1.478501e+04
  -1.469418e+04  -1.462880e+04
   3.078521e+04  -4.977662e+04
   5.944747e+04  -4.682941e+04
   4.706463e+04  -6.853131e+01
   1.081302e+04   4.913063e+04
  -1.775305e+04   5.599473e+04
  -2.453968e+04   1.877719e+04
  -1.433148e+04  -2.257850e+04
   4.122838e+03  -2.982196e+04
   2.153666e+04  -2.942199e+03
   2.452621e+04   2.551246e+04
   5.546259e+03   2.734873e+04
  -2.176035e+04   6.637494e+03
  -3.099949e+04  -9.179603e+03
  -1.405670e+04  -3.261047e+03
   6.127276e+03   1.089194e+04
   4.060387e+03   7.628779e+03
  -1.343570e+04  -1.650937e+04
  -1.508921e+04  -3.573072e+04
   1.124918e+04  -2.549783e+04
   3.743972e+04   7.254792e+03
   2.781962e+04   3.155692e+04
  -1.372771e+04   2.646498e+04
  -4.326076e+04   3.446124e+01
  -2.636269e+04  -2.394738e+04
   2.121617e+04  -2.893258e+04
   5.046938e+04  -1.388994e+04
   3.336183e+04   1.101196e+04
  -8.486484e+03   2.963226e+04
  -3.102781e+04   2.756901e+04
  -1.628522e+04   5.763972e+03
   1.262209e+04  -1.423928e+04
   2.138965e+04  -9.385656e+03
   9.689182e+02   1.605040e+04
  -2.745707e+04   2.917146e+04
