
 $NMID
 id='ANONYMOUS ', fmtdat='(2E16.6)'
 volume=1.0
 tramp=1.0
 $END
  -1.204010e+07  -3.395424e+05
  -8.038201e+06  -5.359341e+06
  -1.896754e+05  -7.423312e+06
   5.073994e+06  -5.436636e+06
   4.551534e+06  -9.859103e+05
   5.023395e+05   2.191314e+06
  -2.521601e+06   1.432683e+06
  -2.157339e+06  -1.888436e+06
   3.765117e+05  -3.674272e+06
   2.320277e+06  -1.751936e+06
   2.075693e+06   1.671146e+06
   2.381063e+05   2.756092e+06
  -1.288780e+06   4.990473e+05
  -1.044372e+06  -2.395260e+06
   6.934384e+05  -2.782233e+06
   2.121609e+06  -3.510073e+05
   1.628808e+06   2.457030e+06
  -5.248006e+05   3.146044e+06
  -2.394953e+06   1.437844e+06
  -2.367594e+06  -8.431397e+05
  -8.353899e+05  -1.781198e+06
   3.380507e+05  -1.196128e+06
  -5.915813e+04  -5.198243e+05
  -1.254382e+06  -9.653573e+05
  -1.375484e+06  -2.097207e+06
   4.273104e+05  -2.430451e+06
   2.869899e+06  -1.232320e+06
   3.666249e+06   6.616606e+05
   1.879735e+06   1.787277e+06
  -9.230115e+05   1.430521e+06
  -2.123111e+06   5.941637e+04
  -7.513158e+05  -1.174109e+06
   1.519512e+06  -1.219021e+06
   2.286125e+06   1.018769e+05
   1.025585e+06   1.724132e+06
  -6.244189e+05   2.088756e+06
  -1.007049e+06   7.629021e+05
  -2.094412e+05  -8.444353e+05
   4.852072e+05  -9.276269e+05
   2.851995e+05   5.577936e+05
  -4.742610e+05   1.755768e+06
  -1.031741e+06   1.143156e+06
  -9.343415e+05  -6.109452e+05
  -1.861597e+05  -1.479996e+06
   7.398533e+05  -5.015334e+05
   9.757222e+05   1.185753e+06
  -5.725370e+04   1.738230e+06
  -1.730975e+06   5.862867e+05
  -2.433311e+06  -1.166037e+06
  -1.203837e+06  -2.004516e+06
   1.019081e+06  -1.386687e+06
   2.232252e+06  -1.612876e+04
   1.458947e+06   9.419972e+05
  -3.105255e+05   8.621749e+05
  -1.303289e+06   7.699991e+04
  -7.941645e+05  -5.411619e+05
   3.657795e+05  -4.176213e+05
   8.294968e+05   2.330181e+05
   1.676968e+05   6.895974e+05
  -7.600082e+05   4.606520e+05
  -7.750311e+05  -2.436183e+05
   2.789721e+05  -7.050910e+05
   1.249445e+06  -3.480998e+05
   8.834668e+05   7.004370e+05
  -7.287448e+05   1.610183e+06
  -2.174844e+06   1.489906e+06
  -2.242641e+06   2.098115e+05
  -1.144035e+06  -1.377615e+06
  -5.157818e+04  -2.170384e+06
   3.087415e+05  -1.851036e+06
   2.546685e+05  -1.098752e+06
   4.523029e+05  -7.047477e+05
   1.034722e+06  -6.395554e+05
   1.532726e+06  -2.341177e+05
   1.423160e+06   7.528708e+05
   5.951267e+05   1.585163e+06
  -5.412104e+05   1.310628e+06
  -1.250613e+06  -4.819455e+04
  -9.572028e+05  -1.351304e+06
   2.011547e+05  -1.467956e+06
   1.329986e+06  -3.885663e+05
   1.523222e+06   8.796513e+05
   7.355962e+05   1.390945e+06
  -2.106080e+05   1.079198e+06
  -5.544965e+05   5.713624e+05
  -4.106864e+05   4.052220e+05
  -5.219261e+05   5.276068e+05
  -1.241306e+06   4.601006e+05
  -1.948114e+06  -1.594736e+05
  -1.639930e+06  -1.173240e+06
  -1.119688e+05  -1.947403e+06
   1.605282e+06  -1.844091e+06
   2.151942e+06  -7.925172e+05
   1.197961e+06   5.295161e+05
  -2.242375e+05   1.178008e+06
  -8.006249e+05   7.683428e+05
  -2.349639e+05  -1.373539e+05
   6.252451e+05  -5.674004e+05
   8.293678e+05  -1.433142e+05
   2.754139e+05   5.224478e+05
  -3.610082e+05   5.461762e+05
  -4.109393e+05  -1.466567e+05
   1.829596e+05  -6.544640e+05
   8.728617e+05  -1.299974e+05
   9.538174e+05   1.147151e+06
   1.242646e+05   1.946279e+06
  -1.174471e+06   1.373174e+06
  -1.985621e+06  -1.726084e+05
  -1.628189e+06  -1.423557e+06
  -3.846144e+05  -1.522476e+06
   7.030083e+05  -7.480779e+05
   8.396088e+05  -3.597651e+04
   2.417672e+05   2.371698e+04
  -1.837299e+05  -3.575020e+05
   1.196365e+05  -5.653909e+05
   7.646835e+05  -2.714332e+05
   9.112371e+05   2.808309e+05
   2.664024e+05   5.709831e+05
  -5.260040e+05   3.281304e+05
  -5.572381e+05  -1.993875e+05
   3.189273e+05  -4.595829e+05
   1.235111e+06  -1.068561e+05
   1.172451e+06   6.466608e+05
   4.882535e+04   1.174922e+06
  -1.155514e+06   9.855990e+05
  -1.391689e+06   1.937705e+05
  -5.806064e+05  -5.409828e+05
   3.906441e+05  -6.132191e+05
   6.186394e+05  -6.375081e+04
   2.288750e+04   4.500737e+05
  -7.081985e+05   3.339019e+05
  -8.526302e+05  -3.071608e+05
  -2.991732e+05  -7.882240e+05
   4.200717e+05  -6.113942e+05
   6.528943e+05  -1.348327e+04
   2.417985e+05   3.258131e+05
  -3.097786e+05   5.397954e+04
  -3.269260e+05  -4.897737e+05
   3.134856e+05  -6.712339e+05
   9.919040e+05  -2.195675e+05
   9.696969e+05   5.344683e+05
   1.888558e+05   9.901532e+05
  -6.494074e+05   8.027823e+05
  -8.212555e+05   1.590295e+05
  -3.024574e+05  -3.937660e+05
   2.891409e+05  -4.303410e+05
   3.853985e+05  -3.353630e+04
   9.021597e+03   3.104653e+05
  -3.462513e+05   2.450698e+05
  -2.798924e+05  -6.535326e+04
   1.045958e+05  -1.518868e+05
   3.203230e+05   1.727513e+05
   1.286152e+04   5.543725e+05
  -6.330785e+05   4.738927e+05
  -1.020686e+06  -1.753246e+05
  -7.159336e+05  -9.412840e+05
   1.035370e+05  -1.222453e+06
   8.100032e+05  -8.023008e+05
   9.361316e+05  -2.226264e+04
   5.816639e+05   5.331282e+05
   2.102607e+05   5.531128e+05
   1.167313e+05   2.526329e+05
   1.635356e+05   1.008762e+05
   2.465441e+04   2.810945e+05
  -3.816836e+05   4.735713e+05
  -7.421385e+05   2.451069e+05
  -6.303522e+05  -3.788849e+05
   4.598171e+04  -8.447855e+05
   8.607637e+05  -6.254909e+05
   1.164038e+06   2.064212e+05
   6.396702e+05   1.010103e+06
  -3.795565e+05   1.162884e+06
  -1.167963e+06   5.980101e+05
  -1.220775e+06  -1.955203e+05
  -6.483278e+05  -6.517602e+05
   4.480294e+03  -6.135662e+05
   2.927664e+05  -3.898191e+05
   2.258344e+05  -3.585691e+05
   1.433097e+05  -5.316599e+05
   2.985054e+05  -5.504262e+05
   5.802542e+05  -1.298789e+05
   6.353151e+05   5.461471e+05
   2.619793e+05   9.459976e+05
  -3.242799e+05   7.132001e+05
  -6.492815e+05   2.499708e+04
  -4.371231e+05  -5.783451e+05
   1.004643e+05  -6.817251e+05
   4.685555e+05  -3.095736e+05
   3.880187e+05   1.781146e+05
   5.450643e+04   4.385535e+05
  -1.190557e+05   4.066004e+05
   1.825753e+04   2.644326e+05
   1.880662e+05   1.985428e+05
   1.224422e+04   2.034257e+05
  -5.178093e+05   1.238809e+05
  -9.508569e+05  -1.327821e+05
  -8.005190e+05  -4.614546e+05
  -7.139192e+04  -6.417756e+05
   6.808501e+05  -5.351754e+05
   8.682664e+05  -2.048327e+05
   4.456302e+05   1.238460e+05
  -8.175034e+04   2.256579e+05
  -2.208159e+05   6.585701e+04
   2.215276e+04  -1.373864e+05
   2.586240e+05  -1.067436e+05
   2.241967e+05   1.726787e+05
   3.676488e+04   3.851837e+05
  -3.577070e+04   2.446793e+05
   7.769876e+04  -1.080599e+05
   2.060694e+05  -2.214341e+05
   1.535984e+05   1.051856e+05
  -1.140402e+05   5.203503e+05
  -4.428645e+05   5.119708e+05
  -5.734072e+05   2.633960e+04
  -3.187861e+05  -4.593760e+05
   2.084257e+05  -4.828830e+05
   5.664448e+05  -8.033597e+04
   3.502999e+05   3.146024e+05
  -3.268241e+05   3.399287e+05
  -8.300269e+05   1.598966e+03
  -6.186587e+05  -4.062163e+05
   1.545081e+05  -5.660838e+05
   7.712794e+05  -3.635748e+05
   6.956184e+05   2.958998e+04
   1.129050e+05   2.777505e+05
  -3.140126e+05   1.766839e+05
  -1.633364e+05  -1.198363e+05
   3.346228e+05  -2.177076e+05
   5.833037e+05   1.086459e+05
   2.533538e+05   6.270831e+05
  -3.947292e+05   8.178181e+05
  -7.927738e+05   3.793436e+05
  -6.239527e+05  -4.196292e+05
  -8.225511e+04  -9.246603e+05
   3.807400e+05  -6.971118e+05
   4.834435e+05   3.848465e+04
   2.710742e+05   5.971369e+05
  -4.235527e+04   5.310220e+05
  -2.633271e+05   7.157068e+04
  -2.874498e+05  -2.050998e+05
  -1.405212e+05  -8.895367e+04
  -2.661675e+03   6.627795e+04
  -5.734674e+04  -1.105434e+05
  -2.233581e+05  -4.742183e+05
  -1.630734e+05  -5.605882e+05
   2.833176e+05  -2.106354e+05
   7.578997e+05   2.437180e+05
   7.121143e+05   4.292922e+05
   9.916548e+04   3.408258e+05
  -4.918410e+05   2.019641e+05
  -5.213656e+05   1.100201e+05
  -1.342640e+05   5.831843e+03
   9.734427e+04  -1.074217e+05
  -4.812055e+04  -1.375203e+05
  -2.050699e+05  -8.831143e+04
   3.298383e+03  -7.211601e+04
   4.129633e+05  -8.651407e+04
   5.194726e+05   3.704377e+04
   1.075054e+05   3.416885e+05
  -5.039028e+05   5.432960e+05
  -8.174363e+05   3.121473e+05
  -6.199908e+05  -2.725664e+05
  -9.590839e+04  -7.246166e+05
   3.828927e+05  -6.621782e+05
   5.337617e+05  -2.123484e+05
   3.381446e+05   1.633616e+05
   3.342411e+04   1.810512e+05
  -9.635010e+04  -8.241844e+03
   1.866680e+04  -5.453781e+04
   1.797816e+05   1.677434e+05
   1.435319e+05   4.098835e+05
  -1.121919e+05   3.256669e+05
  -3.554654e+05  -1.150008e+05
  -3.207738e+05  -5.335693e+05
   2.837928e+04  -5.140828e+05
   4.227593e+05  -5.184370e+04
   4.910975e+05   4.356125e+05
   1.186468e+05   5.500279e+05
  -3.787593e+05   2.839707e+05
  -5.304449e+05  -7.099521e+04
  -2.227233e+05  -2.712119e+05
   1.490310e+05  -2.789751e+05
   1.428010e+05  -1.663577e+05
  -1.827818e+05  -3.024988e+04
  -3.431622e+05   1.893391e+03
  -4.959575e+04  -1.458173e+05
   4.246086e+05  -3.395178e+05
   5.913480e+05  -2.997875e+05
   3.234261e+05   5.352759e+04
  -6.522114e+04   4.134299e+05
  -2.385184e+05   3.999734e+05
  -1.586857e+05   3.359985e+04
   1.012521e+04  -2.661594e+05
   1.375176e+05  -1.845685e+05
   1.788103e+05   1.305883e+05
   1.117676e+05   2.963501e+05
  -4.671030e+04   1.670613e+05
  -1.941249e+05  -5.079838e+04
  -2.172573e+05  -1.117990e+05
  -1.201011e+05  -1.945896e+04
  -1.122582e+04   3.543973e+04
   3.986240e+04  -6.138111e+04
   7.107216e+04  -2.119603e+05
   1.357239e+05  -2.196502e+05
   1.970344e+05  -1.068183e+04
   1.564076e+05   2.599118e+05
  -2.283070e+04   3.371373e+05
  -2.368533e+05   1.266636e+05
  -2.957705e+05  -1.854738e+05
  -9.257317e+04  -3.137387e+05
   2.454656e+05  -1.686348e+05
   4.125162e+05   7.498123e+04
   2.199849e+05   1.988357e+05
  -1.542484e+05   1.580412e+05
  -3.115013e+05   5.711120e+04
  -8.567515e+04  -3.158867e+03
   2.326417e+05   1.250928e+04
   2.269793e+05   9.637031e+04
  -1.356527e+05   1.789887e+05
  -4.551466e+05   1.234311e+05
