
 $NMID
 id='ANONYMOUS ', fmtdat='(2E16.6)'
 volume=1.0
 tramp=1.0
 $END
  -1.966083e+07  -1.868560e+06
  -1.176576e+07  -1.039632e+07
   1.422485e+06  -1.209461e+07
   8.833865e+06  -7.194550e+06
   6.682215e+06  -2.658054e+05
   1.188752e+05   3.335041e+06
  -3.802804e+06   1.442117e+06
  -2.636050e+06  -3.127782e+06
   1.119481e+06  -5.106331e+06
   3.647748e+06  -2.102497e+06
   3.021414e+06   2.728433e+06
   2.059832e+05   4.149030e+06
  -2.002926e+06   7.787766e+05
  -1.452138e+06  -3.449968e+06
   1.254162e+06  -3.883779e+06
   3.211981e+06  -1.450825e+05
   2.142911e+06   3.971451e+06
  -1.234361e+06   4.772491e+06
  -3.958724e+06   2.033651e+06
  -3.817136e+06  -1.489211e+06
  -1.415246e+06  -3.043109e+06
   6.207025e+05  -2.261915e+06
   3.790134e+05  -1.040610e+06
  -1.344445e+06  -1.270757e+06
  -1.837621e+06  -2.728538e+06
   5.160938e+05  -3.389770e+06
   4.093051e+06  -1.863166e+06
   5.404408e+06   9.187689e+05
   2.870729e+06   2.709447e+06
  -1.220566e+06   2.261872e+06
  -3.028269e+06   2.823971e+05
  -1.211194e+06  -1.494244e+06
   1.885019e+06  -1.655699e+06
   3.040640e+06   2.832586e+04
   1.507792e+06   2.271623e+06
  -7.309857e+05   2.981544e+06
  -1.499039e+06   1.265366e+06
  -5.851662e+05  -1.162391e+06
   5.350369e+05  -1.550885e+06
   5.282153e+05   5.370114e+05
  -5.412780e+05   2.418746e+06
  -1.501123e+06   1.575485e+06
  -1.275708e+06  -1.061274e+06
   1.223612e+05  -2.239286e+06
   1.510426e+06  -4.792892e+05
   1.441005e+06   2.189307e+06
  -4.584365e+05   2.796172e+06
  -2.824193e+06   7.459090e+05
  -3.491184e+06  -1.936089e+06
  -1.532160e+06  -2.982632e+06
   1.570739e+06  -1.870277e+06
   3.140667e+06   1.741925e+05
   1.931851e+06   1.461452e+06
  -6.166293e+05   1.176649e+06
  -1.951091e+06  -7.620521e+04
  -1.075794e+06  -9.234236e+05
   6.222585e+05  -5.877586e+05
   1.146590e+06   3.893570e+05
   1.043193e+05   8.665931e+05
  -1.050236e+06   3.722602e+05
  -7.864603e+05  -5.179650e+05
   7.663248e+05  -8.677344e+05
   1.918005e+06  -1.859929e+05
   1.176059e+06   1.237754e+06
  -1.158966e+06   2.411119e+06
  -3.208189e+06   2.191940e+06
  -3.351051e+06   3.056315e+05
  -1.765116e+06  -2.076969e+06
  -3.958041e+04  -3.238217e+06
   6.090255e+05  -2.638469e+06
   4.438691e+05  -1.409292e+06
   5.205223e+05  -8.716468e+05
   1.274879e+06  -9.379702e+05
   2.083756e+06  -4.729512e+05
   2.051884e+06   9.303171e+05
   9.311359e+05   2.162436e+06
  -6.664763e+05   1.835106e+06
  -1.686147e+06  -2.357019e+04
  -1.328147e+06  -1.849528e+06
   2.699924e+05  -2.074622e+06
   1.917342e+06  -5.962267e+05
   2.270152e+06   1.266542e+06
   1.123249e+06   2.117785e+06
  -3.609236e+05   1.705041e+06
  -9.500001e+05   8.831236e+05
  -7.176816e+05   5.355558e+05
  -7.950748e+05   6.699174e+05
  -1.773502e+06   5.700965e+05
  -2.756005e+06  -3.120205e+05
  -2.286477e+06  -1.719666e+06
  -1.083019e+05  -2.754345e+06
   2.294200e+06  -2.583272e+06
   3.047072e+06  -1.130137e+06
   1.722467e+06   7.182105e+05
  -2.668075e+05   1.669683e+06
  -1.109369e+06   1.121551e+06
  -3.451366e+05  -1.787169e+05
   8.800249e+05  -8.082898e+05
   1.192667e+06  -1.885430e+05
   4.045282e+05   7.662380e+05
  -4.978140e+05   7.718016e+05
  -5.362737e+05  -2.043480e+05
   3.031956e+05  -8.349612e+05
   1.175335e+06  -3.010095e+04
   1.164846e+06   1.680124e+06
   3.625936e+03   2.622093e+06
  -1.676076e+06   1.737812e+06
  -2.687151e+06  -3.437834e+05
  -2.184008e+06  -1.980790e+06
  -5.055109e+05  -2.095906e+06
   9.851825e+05  -1.043992e+06
   1.178513e+06  -5.479915e+04
   3.406264e+05   3.738002e+04
  -2.497494e+05  -5.080005e+05
   2.010543e+05  -8.033142e+05
   1.113026e+06  -3.565296e+05
   1.280798e+06   4.460150e+05
   3.412920e+05   8.236939e+05
  -7.505314e+05   4.394127e+05
  -7.564737e+05  -2.848488e+05
   4.588035e+05  -5.956473e+05
   1.690321e+06  -9.318992e+04
   1.581152e+06   9.100835e+05
   3.353859e+04   1.604583e+06
  -1.627637e+06   1.337983e+06
  -1.954036e+06   2.396579e+05
  -8.049170e+05  -7.881392e+05
   5.821425e+05  -8.740516e+05
   9.012751e+05  -7.216415e+04
   3.117299e+04   6.545749e+05
  -1.012239e+06   4.592650e+05
  -1.187368e+06  -4.610648e+05
  -3.814197e+05  -1.108510e+06
   6.121300e+05  -8.201218e+05
   8.990267e+05   1.943844e+04
   3.079673e+05   4.625889e+05
  -4.489614e+05   5.758509e+04
  -4.542976e+05  -7.041834e+05
   4.518147e+05  -9.469769e+05
   1.404755e+06  -2.992197e+05
   1.363330e+06   7.704855e+05
   2.453261e+05   1.403833e+06
  -9.404777e+05   1.115220e+06
  -1.160206e+06   1.972665e+05
  -4.064864e+05  -5.607989e+05
   4.177105e+05  -5.912849e+05
   5.297347e+05  -4.767407e+04
   5.703666e+03   4.066644e+05
  -4.610300e+05   3.209719e+05
  -3.553633e+05  -7.284079e+04
   1.557511e+05  -1.672614e+05
   4.227812e+05   2.731827e+05
  -1.606143e+04   7.772767e+05
  -9.069518e+05   6.456248e+05
  -1.433072e+06  -2.717842e+05
  -9.908015e+05  -1.342809e+06
   1.661430e+05  -1.714680e+06
   1.143809e+06  -1.097578e+06
   1.293285e+06  -8.098063e+03
   7.892472e+05   7.313747e+05
   2.967802e+05   7.365481e+05
   1.939441e+05   3.423301e+05
   2.502898e+05   1.678492e+05
   2.468631e+04   4.161809e+05
  -5.537079e+05   6.507077e+05
  -1.038296e+06   3.180902e+05
  -8.626224e+05  -5.323528e+05
   8.412541e+04  -1.160168e+06
   1.214114e+06  -8.483934e+05
   1.623066e+06   3.135370e+05
   8.653327e+05   1.432108e+06
  -5.778747e+05   1.621091e+06
  -1.663737e+06   7.971255e+05
  -1.693368e+06  -3.157337e+05
  -8.684356e+05  -9.157684e+05
   2.231526e+04  -8.288303e+05
   3.891472e+05  -5.273893e+05
   2.916640e+05  -5.196548e+05
   2.044216e+05  -7.749478e+05
   4.436090e+05  -7.826542e+05
   8.325507e+05  -1.723808e+05
   8.905890e+05   7.804629e+05
   3.551964e+05   1.336139e+06
  -4.659771e+05   9.993647e+05
  -9.096976e+05   1.998980e+04
  -5.935658e+05  -8.292706e+05
   1.713302e+05  -9.514845e+05
   6.750405e+05  -3.981817e+05
   5.307932e+05   2.894081e+05
   3.951397e+04   6.253346e+05
  -1.999070e+05   5.537090e+05
   1.527896e+04   3.565742e+05
   2.691539e+05   2.795773e+05
   1.796473e+04   2.859871e+05
  -7.391142e+05   1.569738e+05
  -1.346715e+06  -2.163086e+05
  -1.114208e+06  -6.736065e+05
  -6.627907e+04  -9.091988e+05
   9.901908e+05  -7.371859e+05
   1.227048e+06  -2.572471e+05
   6.083085e+05   2.014049e+05
  -1.329052e+05   3.223687e+05
  -3.137628e+05   7.683080e+04
   3.307737e+04  -2.098367e+05
   3.608870e+05  -1.535622e+05
   3.158854e+05   2.477846e+05
   6.404478e+04   5.462618e+05
  -3.847213e+04   3.501340e+05
   1.041963e+05  -1.403859e+05
   2.747827e+05  -2.998265e+05
   2.102092e+05   1.516501e+05
  -1.591497e+05   7.290829e+05
  -6.349800e+05   7.156278e+05
  -8.323690e+05   2.863242e+04
  -4.605829e+05  -6.608986e+05
   3.090364e+05  -6.918087e+05
   8.177603e+05  -1.142702e+05
   4.932222e+05   4.446619e+05
  -4.684708e+05   4.676269e+05
  -1.156399e+06  -1.759190e+04
  -8.394995e+05  -5.760373e+05
   2.367057e+05  -7.723987e+05
   1.075545e+06  -4.771687e+05
   9.570230e+05   5.849530e+04
   1.474185e+05   3.844575e+05
  -4.426555e+05   2.342580e+05
  -2.304832e+05  -1.790154e+05
   4.704034e+05  -3.126622e+05
   8.265823e+05   1.503571e+05
   3.651454e+05   8.870647e+05
  -5.527798e+05   1.159916e+06
  -1.117861e+06   5.377967e+05
  -8.757674e+05  -5.931459e+05
  -1.069707e+05  -1.298700e+06
   5.405184e+05  -9.659450e+05
   6.708188e+05   6.989216e+04
   3.607123e+05   8.391754e+05
  -7.722464e+04   7.307952e+05
  -3.722819e+05   8.868078e+04
  -3.918497e+05  -2.849922e+05
  -1.865840e+05  -1.178357e+05
  -7.221410e+03   8.749929e+04
  -9.138394e+04  -1.717206e+05
  -3.116979e+05  -6.756656e+05
  -2.089687e+05  -7.806335e+05
   4.153556e+05  -2.818908e+05
   1.059468e+06   3.512441e+05
   9.817596e+05   6.067038e+05
   1.317162e+05   4.823322e+05
  -6.833029e+05   2.840572e+05
  -7.278222e+05   1.452924e+05
  -1.950824e+05  -5.040980e+03
   1.342901e+05  -1.531116e+05
  -5.573833e+04  -1.808765e+05
  -2.765391e+05  -1.122874e+05
  -3.470953e+02  -1.031773e+05
   5.692255e+05  -1.294841e+05
   7.343910e+05   5.468878e+04
   1.673755e+05   4.944417e+05
  -7.056962e+05   7.741113e+05
  -1.168848e+06   4.363460e+05
  -8.915172e+05  -3.906790e+05
  -1.339744e+05  -1.021355e+06
   5.524871e+05  -9.310575e+05
   7.587230e+05  -3.027272e+05
   4.759020e+05   2.247498e+05
   5.108509e+04   2.583919e+05
  -1.271250e+05   1.536932e+03
   2.701059e+04  -6.470988e+04
   2.425465e+05   2.393823e+05
   1.917769e+05   5.759900e+05
  -1.598908e+05   4.616999e+05
  -5.009311e+05  -1.547261e+05
  -4.591079e+05  -7.490875e+05
   3.019858e+04  -7.324256e+05
   5.936708e+05  -8.621820e+04
   6.978272e+05   6.078875e+05
   1.705817e+05   7.808919e+05
  -5.387635e+05   4.076442e+05
  -7.552308e+05  -1.043039e+05
  -3.146206e+05  -3.972388e+05
   2.193916e+05  -4.035727e+05
   2.153849e+05  -2.306632e+05
  -2.471128e+05  -3.386305e+04
  -4.811588e+05   2.855296e+03
  -7.168217e+04  -2.103216e+05
   6.006455e+05  -4.724390e+05
   8.422848e+05  -4.023337e+05
   4.630586e+05   9.397300e+04
  -9.694761e+04   5.872981e+05
  -3.530730e+05   5.613741e+05
  -2.404550e+05   4.919748e+04
   7.779154e+03  -3.728072e+05
   1.962124e+05  -2.666547e+05
   2.551232e+05   1.742146e+05
   1.567682e+05   4.189833e+05
  -6.893985e+04   2.465933e+05
  -2.758011e+05  -6.860222e+04
  -3.055240e+05  -1.690779e+05
  -1.660277e+05  -3.556726e+04
  -1.446653e+04   6.119022e+04
   4.866604e+04  -6.783140e+04
   8.313639e+04  -2.978672e+05
   1.765646e+05  -3.307314e+05
   2.799153e+05  -3.714757e+04
   2.392558e+05   3.609417e+05
  -1.419452e+04   4.821971e+05
  -3.316794e+05   1.847262e+05
  -4.262976e+05  -2.597783e+05
  -1.357192e+05  -4.410424e+05
   3.515834e+05  -2.357814e+05
   5.898676e+05   1.070322e+05
   3.119450e+05   2.833112e+05
  -2.225107e+05   2.300320e+05
  -4.472823e+05   8.709130e+04
  -1.305187e+05  -7.270594e+03
   3.193607e+05   4.737943e+03
   3.199285e+05   1.226772e+05
  -1.789754e+05   2.481378e+05
  -6.259211e+05   1.783357e+05
