
 $NMID
 id='ANONYMOUS ', fmtdat='(2E16.6)'
 volume=1.0
 tramp=1.0
 $END
  -6.188606e+07  -2.451595e+06
  -3.514425e+07  -4.045015e+07
   1.056186e+07  -4.157831e+07
   3.099998e+07  -1.399728e+07
   1.719406e+07   9.152081e+06
  -4.432199e+06   9.909701e+06
  -1.043360e+07  -2.297265e+06
  -2.079839e+06  -1.076378e+07
   7.373245e+06  -9.334226e+06
   1.047125e+07  -1.350280e+06
   7.243562e+06   6.955526e+06
   5.777207e+05   9.176678e+06
  -4.373903e+06   2.904385e+06
  -2.609807e+06  -5.644833e+06
   4.330440e+06  -6.558749e+06
   8.378237e+06   1.988180e+06
   4.223526e+06   1.124941e+07
  -4.714431e+06   1.255116e+07
  -1.126608e+07   5.997452e+06
  -1.179865e+07  -2.598884e+06
  -7.145931e+06  -8.516524e+06
  -4.695531e+05  -9.791684e+06
   3.768702e+06  -6.705118e+06
   2.658310e+06  -2.586095e+06
  -9.109678e+05  -1.771028e+06
  -4.054309e+05  -4.144188e+06
   5.541409e+06  -4.664441e+06
   1.018988e+07  -5.262886e+05
   7.523413e+06   4.516692e+06
   4.040074e+05   5.556661e+06
  -3.817612e+06   2.952829e+06
  -2.765644e+06   3.102627e+05
   1.556274e+05  -8.153514e+05
   1.965679e+06  -6.865166e+05
   2.311711e+06   1.155299e+06
   9.642398e+05   4.022297e+06
  -1.954046e+06   4.235243e+06
  -3.783028e+06  -3.911268e+04
  -2.008086e+06  -4.105118e+06
   9.955251e+05  -2.403995e+06
   5.674953e+05   2.373705e+06
  -2.577062e+06   2.263562e+06
  -2.406444e+06  -3.599942e+06
   3.149722e+06  -6.503769e+06
   7.887113e+06  -6.390983e+05
   5.320113e+06   7.941580e+06
  -2.601985e+06   9.271609e+06
  -8.211418e+06   2.314599e+06
  -7.153720e+06  -5.038140e+06
  -1.568054e+06  -6.402545e+06
   3.775527e+06  -2.592408e+06
   5.324448e+06   1.916689e+06
   2.226270e+06   3.788668e+06
  -2.782388e+06   2.159643e+06
  -4.798734e+06  -1.273877e+06
  -1.894977e+06  -3.053364e+06
   1.937796e+06  -1.388035e+06
   1.721842e+06   1.159223e+06
  -1.589305e+06   7.513745e+05
  -2.490385e+06  -2.278646e+06
   1.162539e+06  -3.819902e+06
   5.361389e+06  -1.721209e+06
   5.663624e+06   1.914747e+06
   2.231036e+06   4.480149e+06
  -2.060312e+06   5.582868e+06
  -5.325699e+06   5.060884e+06
  -6.609075e+06   1.783824e+06
  -4.910393e+06  -3.436050e+06
  -8.919763e+05  -6.571322e+06
   2.207987e+06  -4.889426e+06
   1.951731e+06  -9.883420e+05
  -3.458146e+04   4.831179e+05
  -3.569672e+05  -1.044870e+06
   1.485203e+06  -2.061581e+06
   2.929937e+06  -4.725218e+05
   2.213307e+06   1.834180e+06
   1.876128e+05   2.153350e+06
  -1.444275e+06   2.761338e+05
  -1.659497e+06  -2.022786e+06
  -1.766082e+04  -2.993213e+06
   2.887758e+06  -1.761851e+06
   4.755891e+06   1.258396e+06
   3.424150e+06   4.094190e+06
  -1.468501e+05   4.619645e+06
  -2.607650e+06   2.903170e+06
  -2.516942e+06   1.097485e+06
  -1.976202e+06   5.633027e+05
  -3.044090e+06   3.414676e+05
  -4.448390e+06  -9.432565e+05
  -3.499196e+06  -2.948339e+06
  -2.903776e+04  -4.226270e+06
   3.338942e+06  -3.936510e+06
   4.283859e+06  -2.170230e+06
   2.764414e+06   3.858661e+05
   3.625322e+05   2.292034e+06
  -1.092054e+06   2.034514e+06
  -5.993326e+05  -1.281232e+04
   1.113787e+06  -1.348410e+06
   1.994456e+06  -3.758363e+05
   9.683884e+05   1.288119e+06
  -5.159730e+05   1.137371e+06
  -3.589768e+05  -4.030327e+05
   1.186577e+06  -5.545336e+05
   1.809462e+06   1.608072e+06
   3.220066e+05   3.696212e+06
  -1.969768e+06   3.268837e+06
  -3.269656e+06   7.577529e+05
  -3.170755e+06  -1.687979e+06
  -2.095514e+06  -2.791308e+06
  -3.756544e+05  -2.575445e+06
   1.262342e+06  -1.468093e+06
   1.601437e+06  -2.324316e+05
   5.029339e+05   5.693065e+04
  -3.464620e+05  -7.807736e+05
   4.906289e+05  -1.388538e+06
   2.026901e+06  -5.390392e+05
   2.078439e+06   1.016884e+06
   3.230220e+05   1.496518e+06
  -1.226632e+06   5.368542e+05
  -8.540044e+05  -4.842080e+05
   8.975501e+05  -4.299130e+05
   2.139340e+06   4.576865e+05
   1.636386e+06   1.404510e+06
  -3.420684e+05   1.918554e+06
  -2.374610e+06   1.579419e+06
  -2.828515e+06   1.991022e+05
  -1.216746e+06  -1.354375e+06
   1.009001e+06  -1.558505e+06
   1.659824e+06  -1.567115e+05
   2.028262e+05   1.149087e+06
  -1.587036e+06   7.285384e+05
  -1.732479e+06  -8.682947e+05
  -2.544145e+05  -1.697126e+06
   1.173805e+06  -9.136990e+05
   1.251621e+06   4.104124e+05
   1.806736e+05   8.182100e+05
  -8.477465e+05   1.994521e+04
  -7.436136e+05  -1.110933e+06
   6.122000e+05  -1.462492e+06
   2.073055e+06  -5.322680e+05
   2.078362e+06   1.116678e+06
   3.448752e+05   2.147409e+06
  -1.536697e+06   1.648357e+06
  -1.779906e+06   1.514195e+05
  -4.692975e+05  -9.102771e+05
   7.044488e+05  -7.911385e+05
   6.223011e+05  -7.262315e+04
  -1.436752e+05   3.078219e+05
  -4.531169e+05   1.564480e+05
  -4.026415e+04  -3.525041e+04
   4.848597e+05   1.754353e+05
   4.736379e+05   7.564654e+05
  -2.870060e+05   1.212135e+06
  -1.452035e+06   8.686551e+05
  -2.122892e+06  -4.821772e+05
  -1.459406e+06  -2.030543e+06
   2.731666e+05  -2.463191e+06
   1.669198e+06  -1.369630e+06
   1.677371e+06   1.904668e+05
   8.029866e+05   8.843349e+05
   3.115228e+05   5.757115e+05
   5.456838e+05   1.884380e+05
   6.885898e+05   3.702515e+05
   7.524969e+04   8.249820e+05
  -9.343932e+05   8.861903e+05
  -1.469989e+06   2.688349e+05
  -1.014945e+06  -7.419737e+05
   3.073579e+05  -1.430216e+06
   1.772275e+06  -1.022046e+06
   2.265471e+06   5.518793e+05
   1.079275e+06   2.178122e+06
  -1.135106e+06   2.390492e+06
  -2.652928e+06   9.549982e+05
  -2.354763e+06  -7.743562e+05
  -8.756462e+05  -1.377972e+06
   2.572436e+05  -8.936712e+05
   3.545409e+05  -4.671662e+05
   2.069628e+04  -7.936028e+05
   1.071640e+05  -1.391815e+06
   7.359165e+05  -1.337004e+06
   1.358277e+06  -3.043087e+05
   1.358707e+06   1.131600e+06
   5.367466e+05   1.948621e+06
  -6.594964e+05   1.458872e+06
  -1.307735e+06  -3.918226e+04
  -7.835960e+05  -1.351096e+06
   4.692111e+05  -1.414955e+06
   1.232304e+06  -3.338550e+05
   8.040202e+05   8.021961e+05
  -2.067816e+05   1.125776e+06
  -6.252987e+05   7.660802e+05
  -1.155210e+05   3.931489e+05
   4.511256e+05   3.413108e+05
   6.238027e+04   3.893681e+05
  -1.199463e+06   1.774253e+05
  -2.131354e+06  -4.035332e+05
  -1.628385e+06  -1.116852e+06
   1.142659e+05  -1.488227e+06
   1.698824e+06  -1.136475e+06
   1.890178e+06  -2.129232e+05
   8.164726e+05   5.721904e+05
  -3.051605e+05   5.964815e+05
  -5.334910e+05  -7.453846e+02
  -3.218340e+04  -4.665149e+05
   4.430395e+05  -2.692710e+05
   4.930558e+05   3.593135e+05
   2.885029e+05   7.417311e+05
   1.277140e+05   4.975888e+05
   1.317101e+05  -6.740744e+04
   2.528774e+05  -2.658041e+05
   2.684931e+05   2.459565e+05
  -1.401367e+05   9.969154e+05
  -9.439461e+05   1.081392e+06
  -1.451323e+06   1.714618e+05
  -9.045423e+05  -9.600547e+05
   4.535578e+05  -1.197721e+06
   1.330148e+06  -3.577086e+05
   7.503393e+05   5.869369e+05
  -7.398328e+05   6.389115e+05
  -1.598153e+06  -1.493517e+05
  -9.512050e+05  -9.020281e+05
   5.497263e+05  -9.564735e+05
   1.516782e+06  -4.000955e+05
   1.209640e+06   2.440532e+05
   1.061077e+05   5.128197e+05
  -6.702658e+05   2.399028e+05
  -3.994706e+05  -3.251241e+05
   5.900535e+05  -5.517055e+05
   1.221059e+06   6.692312e+04
   7.163384e+05   1.208884e+06
  -5.797122e+05   1.762949e+06
  -1.511956e+06   9.242062e+05
  -1.280777e+06  -7.731748e+05
  -1.921986e+05  -1.823912e+06
   7.685648e+05  -1.285715e+06
   9.270307e+05   2.232369e+05
   3.886839e+05   1.221386e+06
  -2.766402e+05   9.536059e+05
  -5.844961e+05   5.665853e+04
  -4.400658e+05  -3.788042e+05
  -1.318297e+05  -1.246532e+05
  -6.254757e+04   8.296684e+04
  -3.279594e+05  -3.396166e+05
  -5.242415e+05  -1.007886e+06
  -1.377519e+05  -1.087267e+06
   7.834799e+05  -3.756834e+05
   1.492250e+06   4.917003e+05
   1.253634e+06   8.635768e+05
   1.727748e+05   7.236502e+05
  -8.400473e+05   4.289976e+05
  -9.905266e+05   1.620295e+05
  -3.955286e+05  -8.711635e+04
   1.370833e+05  -2.356938e+05
   7.987468e+04  -1.782262e+05
  -2.260525e+05  -6.401863e+04
  -7.037307e+04  -1.371132e+05
   6.294679e+05  -2.647973e+05
   1.080619e+06   4.849340e+03
   5.105041e+05   7.331066e+05
  -8.266908e+05   1.240151e+06
  -1.786104e+06   7.966183e+05
  -1.511526e+06  -4.312501e+05
  -2.969468e+05  -1.436776e+06
   8.092078e+05  -1.420714e+06
   1.085228e+06  -5.818718e+05
   6.684222e+05   2.106976e+05
   1.578946e+05   3.726728e+05
  -3.303877e+04   1.060825e+05
   9.394348e+04   2.108453e+04
   2.795001e+05   3.898609e+05
   2.290047e+05   8.263642e+05
  -1.771714e+05   7.089540e+05
  -6.939750e+05  -8.817300e+04
  -7.936625e+05  -9.470514e+05
  -1.748889e+05  -1.073435e+06
   7.490332e+05  -3.097555e+05
   1.086306e+06   6.945609e+05
   3.914692e+05   1.126068e+06
  -7.291971e+05   7.353906e+05
  -1.175901e+06  -6.539791e+04
  -5.694165e+05  -6.687773e+05
   3.056995e+05  -7.427842e+05
   4.339740e+05  -3.817588e+05
  -2.093809e+05   1.677614e+04
  -6.550521e+05   5.033405e+04
  -1.655760e+05  -3.278919e+05
   8.459371e+05  -6.896044e+05
   1.327247e+06  -5.111323e+05
   8.238587e+05   2.274786e+05
  -9.725666e+04   9.118505e+05
  -6.115089e+05   8.917203e+05
  -4.903967e+05   1.938738e+05
  -8.475137e+04  -4.756240e+05
   2.396587e+05  -4.751230e+05
   3.656924e+05   1.063075e+05
   2.692814e+05   5.913510e+05
  -4.746554e+04   4.807047e+05
  -4.063709e+05  -2.569175e+04
  -4.995017e+05  -3.201345e+05
  -2.452672e+05  -1.261317e+05
   5.261241e+04   1.921825e+05
   7.462239e+04   1.163090e+05
  -7.955108e+04  -3.436954e+05
  -3.097108e+04  -6.274217e+05
   3.109182e+05  -3.114894e+05
   5.397197e+05   3.432098e+05
   2.446131e+05   6.694180e+05
  -3.981572e+05   3.507483e+05
  -7.184560e+05  -2.581766e+05
  -2.896325e+05  -5.728322e+05
   5.340955e+05  -3.824636e+05
   9.370298e+05   5.662191e+04
   5.077358e+05   3.863194e+05
  -3.047785e+05   4.470494e+05
  -6.738826e+05   2.781126e+05
  -2.943900e+05   2.217484e+04
   3.099953e+05  -1.170496e+05
   4.067460e+05   8.255782e+03
  -1.246272e+05   2.753093e+05
  -6.934881e+05   2.954260e+05
