
 $NMID
 id='ANONYMOUS ', fmtdat='(2E16.6)'
 volume=1.0
 tramp=1.0
 $END
  -5.620380e+07  -2.392862e+06
  -3.206787e+07  -3.582884e+07
   8.931400e+06  -3.732304e+07
   2.765615e+07  -1.357470e+07
   1.585329e+07   7.234336e+06
  -3.524469e+06   8.990520e+06
  -9.527872e+06  -1.373992e+06
  -2.504980e+06  -9.586139e+06
   6.199562e+06  -9.089023e+06
   9.521872e+06  -1.776858e+06
   6.830767e+06   6.419727e+06
   6.063617e+05   8.699315e+06
  -4.155524e+06   2.626210e+06
  -2.645023e+06  -5.596715e+06
   3.796079e+06  -6.508201e+06
   7.740499e+06   1.519582e+06
   4.124469e+06   1.028000e+07
  -4.126562e+06   1.162634e+07
  -1.031245e+07   5.526581e+06
  -1.075917e+07  -2.525284e+06
  -6.258175e+06  -7.847056e+06
  -1.786888e+05  -8.655291e+06
   3.199039e+06  -5.722054e+06
   1.714155e+06  -2.391941e+06
  -1.402504e+06  -2.197756e+06
  -2.739783e+05  -4.422636e+06
   5.713124e+06  -4.467361e+06
   9.955921e+06  -2.669478e+05
   7.040048e+06   4.448935e+06
  -1.287362e+04   5.252679e+06
  -4.043234e+06   2.567220e+06
  -2.681204e+06  -1.857940e+05
   6.396690e+05  -1.249392e+06
   2.531786e+06  -6.597740e+05
   2.420132e+06   1.589256e+06
   6.427068e+05   4.211600e+06
  -2.032969e+06   3.860086e+06
  -3.292592e+06  -4.054359e+05
  -1.483394e+06  -3.846656e+06
   1.019571e+06  -1.794970e+06
   3.741711e+05   2.693685e+06
  -2.502330e+06   2.352968e+06
  -2.344675e+06  -3.212233e+06
   2.564703e+06  -5.923838e+06
   6.837912e+06  -6.413708e+05
   4.757678e+06   7.100994e+06
  -2.229522e+06   8.358294e+06
  -7.509852e+06   2.135466e+06
  -6.892629e+06  -4.600630e+06
  -1.798453e+06  -6.049251e+06
   3.486473e+06  -2.698323e+06
   5.260078e+06   1.528297e+06
   2.414256e+06   3.456032e+06
  -2.417401e+06   2.103740e+06
  -4.473358e+06  -1.025364e+06
  -1.868286e+06  -2.730814e+06
   1.751582e+06  -1.309158e+06
   1.749074e+06   1.027935e+06
  -1.227235e+06   8.509611e+05
  -2.296435e+06  -1.715024e+06
   7.228635e+05  -3.205899e+06
   4.559402e+06  -1.632956e+06
   5.144269e+06   1.473742e+06
   2.170779e+06   3.980879e+06
  -1.979190e+06   5.287537e+06
  -5.254669e+06   4.851688e+06
  -6.384989e+06   1.612149e+06
  -4.570376e+06  -3.396049e+06
  -8.028401e+05  -6.321618e+06
   1.913955e+06  -4.768606e+06
   1.664706e+06  -1.227917e+06
   8.537594e+04   1.015139e+05
   7.027763e+04  -1.195006e+06
   1.843775e+06  -1.891373e+06
   3.048895e+06  -1.557600e+05
   2.152779e+06   2.132257e+06
   3.823250e+03   2.337923e+06
  -1.690915e+06   2.740124e+05
  -1.809429e+06  -2.165571e+06
   1.125192e+04  -3.071878e+06
   2.920012e+06  -1.661249e+06
   4.588684e+06   1.360696e+06
   3.164189e+06   3.953269e+06
  -2.063753e+05   4.277490e+06
  -2.396178e+06   2.633994e+06
  -2.246308e+06   1.056109e+06
  -1.820380e+06   6.743694e+05
  -2.987213e+06   4.956122e+05
  -4.450040e+06  -7.872650e+05
  -3.577036e+06  -2.852538e+06
  -1.308949e+05  -4.262085e+06
   3.336803e+06  -4.043480e+06
   4.377119e+06  -2.190142e+06
   2.793834e+06   4.880686e+05
   2.595860e+05   2.383890e+06
  -1.198118e+06   2.027398e+06
  -5.989323e+05  -5.756690e+04
   1.151793e+06  -1.366142e+06
   1.977166e+06  -3.915272e+05
   9.270909e+05   1.271701e+06
  -5.502575e+05   1.173393e+06
  -4.599573e+05  -3.703305e+05
   1.023975e+06  -7.054056e+05
   1.806928e+06   1.261777e+06
   6.501674e+05   3.460475e+06
  -1.515678e+06   3.427928e+06
  -3.093159e+06   1.182919e+06
  -3.386461e+06  -1.389239e+06
  -2.421517e+06  -2.794107e+06
  -5.226389e+05  -2.709440e+06
   1.294185e+06  -1.537877e+06
   1.657820e+06  -2.387807e+05
   5.124065e+05   4.826976e+04
  -3.708072e+05  -7.811764e+05
   4.394585e+05  -1.374447e+06
   1.973467e+06  -5.719574e+05
   2.084130e+06   9.279258e+05
   3.850590e+05   1.453823e+06
  -1.211104e+06   5.888844e+05
  -9.312918e+05  -4.563150e+05
   8.459556e+05  -5.417617e+05
   2.241577e+06   2.909581e+05
   1.834400e+06   1.364808e+06
  -2.174021e+05   2.040214e+06
  -2.380497e+06   1.734206e+06
  -2.880904e+06   2.888341e+05
  -1.251141e+06  -1.316784e+06
   9.749600e+05  -1.544211e+06
   1.619120e+06  -1.696051e+05
   1.894704e+05   1.132540e+06
  -1.583805e+06   7.575387e+05
  -1.777538e+06  -8.119658e+05
  -3.522751e+05  -1.700422e+06
   1.112929e+06  -1.004873e+06
   1.285678e+06   3.134354e+05
   2.515782e+05   7.936699e+05
  -8.226576e+05   4.458902e+04
  -7.609286e+05  -1.103931e+06
   6.083917e+05  -1.488303e+06
   2.102124e+06  -5.620899e+05
   2.122575e+06   1.103390e+06
   3.922955e+05   2.162306e+06
  -1.502111e+06   1.700688e+06
  -1.789836e+06   2.137260e+05
  -5.185925e+05  -8.968882e+05
   6.819688e+05  -8.324417e+05
   6.654214e+05  -8.927115e+04
  -1.001349e+05   3.728048e+05
  -4.961860e+05   2.408206e+05
  -1.448063e+05  -3.569586e+04
   4.307624e+05   8.885327e+04
   5.168852e+05   6.824219e+05
  -2.161062e+05   1.217153e+06
  -1.434647e+06   9.253390e+05
  -2.164874e+06  -4.339070e+05
  -1.522129e+06  -2.028184e+06
   2.240472e+05  -2.524163e+06
   1.669192e+06  -1.476914e+06
   1.751892e+06   1.137294e+05
   9.138320e+05   9.143672e+05
   3.686334e+05   6.819428e+05
   5.140888e+05   2.545270e+05
   6.377869e+05   3.473664e+05
   7.813066e+04   7.949072e+05
  -9.069116e+05   9.309653e+05
  -1.497006e+06   3.450390e+05
  -1.101337e+06  -7.365915e+05
   2.390881e+05  -1.513708e+06
   1.780772e+06  -1.121670e+06
   2.339523e+06   4.963421e+05
   1.178218e+06   2.176619e+06
  -1.051385e+06   2.445727e+06
  -2.633820e+06   1.061530e+06
  -2.431161e+06  -6.756722e+05
  -1.000014e+06  -1.368325e+06
   1.889015e+05  -9.758593e+05
   3.884276e+05  -5.528475e+05
   9.193207e+04  -8.141342e+05
   1.305742e+05  -1.372123e+06
   7.121556e+05  -1.333849e+06
   1.350770e+06  -3.209017e+05
   1.394918e+06   1.131317e+06
   5.806458e+05   1.977689e+06
  -6.491088e+05   1.500766e+06
  -1.336585e+06  -1.478565e+02
  -8.381087e+05  -1.330902e+06
   4.062996e+05  -1.439898e+06
   1.191237e+06  -4.086155e+05
   8.179941e+05   7.238081e+05
  -1.400704e+05   1.099513e+06
  -5.518338e+05   7.923139e+05
  -7.780215e+04   4.257818e+05
   4.561409e+05   3.548961e+05
   6.436007e+04   4.025688e+05
  -1.192652e+06   2.112435e+05
  -2.143572e+06  -3.569082e+05
  -1.677484e+06  -1.079696e+06
   4.844372e+04  -1.479947e+06
   1.659152e+06  -1.171335e+06
   1.897859e+06  -2.842888e+05
   8.504259e+05   5.075680e+05
  -2.800459e+05   5.843831e+05
  -5.248267e+05   3.095270e+04
  -2.026269e+04  -4.435345e+05
   4.652663e+05  -2.757383e+05
   5.027612e+05   3.583109e+05
   2.689543e+05   7.678501e+05
   1.014957e+05   5.129649e+05
   1.331855e+05  -1.006593e+05
   2.788190e+05  -3.163379e+05
   2.859689e+05   2.390487e+05
  -1.408864e+05   1.035787e+06
  -9.390498e+05   1.112668e+06
  -1.430687e+06   1.688966e+05
  -8.921683e+05  -9.691195e+05
   4.443438e+05  -1.190432e+06
   1.326142e+06  -3.462251e+05
   7.715786e+05   5.979540e+05
  -7.290947e+05   6.730138e+05
  -1.647465e+06  -9.329923e+04
  -1.042726e+06  -8.807623e+05
   4.944552e+05  -1.015592e+06
   1.541440e+06  -5.005480e+05
   1.272733e+06   1.870764e+05
   1.422281e+05   5.278739e+05
  -6.709423e+05   2.781170e+05
  -3.985677e+05  -3.123690e+05
   6.140799e+05  -5.566672e+05
   1.247669e+06   7.729996e+04
   7.174853e+05   1.242178e+06
  -6.070741e+05   1.800346e+06
  -1.552977e+06   9.453007e+05
  -1.322639e+06  -7.833783e+05
  -2.251951e+05  -1.871956e+06
   7.598031e+05  -1.352148e+06
   9.569294e+05   1.829846e+05
   4.486700e+05   1.234717e+06
  -2.262345e+05   9.967340e+05
  -5.842293e+05   8.312932e+04
  -4.847149e+05  -3.818748e+05
  -1.676592e+05  -1.305749e+05
  -5.006123e+04   9.366703e+04
  -2.975872e+05  -3.268927e+05
  -5.385999e+05  -1.015111e+06
  -1.976858e+05  -1.112200e+06
   7.535336e+05  -4.004673e+05
   1.542801e+06   4.757628e+05
   1.332879e+06   8.560936e+05
   1.935288e+05   7.298112e+05
  -8.816596e+05   4.548440e+05
  -1.020463e+06   1.966462e+05
  -3.794358e+05  -6.766178e+04
   1.480239e+05  -2.419942e+05
   4.182504e+04  -1.965944e+05
  -2.718415e+05  -7.682008e+04
  -6.020623e+04  -1.432834e+05
   6.810993e+05  -2.718721e+05
   1.102241e+06   2.550017e+02
   4.783831e+05   7.428790e+05
  -8.650073e+05   1.262865e+06
  -1.793638e+06   8.105456e+05
  -1.509187e+06  -4.459235e+05
  -3.104670e+05  -1.473414e+06
   7.990381e+05  -1.450999e+06
   1.103980e+06  -5.853512e+05
   6.944305e+05   2.258755e+05
   1.508369e+05   3.802896e+05
  -6.657140e+04   9.137579e+04
   8.147501e+04  -2.990872e+03
   3.069441e+05   3.815686e+05
   2.603937e+05   8.398265e+05
  -1.799292e+05   7.205530e+05
  -7.210380e+05  -1.044744e+05
  -8.055499e+05  -9.847101e+05
  -1.527214e+05  -1.096438e+06
   7.876586e+05  -2.948473e+05
   1.112064e+06   7.297838e+05
   3.911332e+05   1.147547e+06
  -7.453803e+05   7.358938e+05
  -1.187223e+06  -6.448375e+04
  -5.677824e+05  -6.554573e+05
   3.048527e+05  -7.314096e+05
   4.114191e+05  -3.847692e+05
  -2.466912e+05   1.147526e+04
  -6.781075e+05   5.551171e+04
  -1.617118e+05  -3.284647e+05
   8.558106e+05  -7.201156e+05
   1.320846e+06  -5.596652e+05
   8.107513e+05   2.014643e+05
  -9.260597e+04   9.213615e+05
  -5.883475e+05   9.029680e+05
  -4.704895e+05   1.775105e+05
  -7.726872e+04  -5.003824e+05
   2.474830e+05  -4.723028e+05
   3.804434e+05   1.322372e+05
   2.779317e+05   6.031635e+05
  -5.377109e+04   4.671997e+05
  -4.161285e+05  -3.416835e+04
  -5.020947e+05  -3.030217e+05
  -2.497547e+05  -1.084428e+05
   3.896009e+04   1.754671e+05
   7.147756e+04   7.212047e+04
  -4.810764e+04  -3.736807e+05
   2.107344e+04  -6.169222e+05
   3.387947e+05  -2.723173e+05
   5.220630e+05   3.835132e+05
   2.075139e+05   6.925488e+05
  -4.195613e+05   3.506344e+05
  -7.206910e+05  -2.775861e+05
  -2.890675e+05  -5.959663e+05
   5.339371e+05  -3.915389e+05
   9.433371e+05   6.286578e+04
   5.148360e+05   3.913874e+05
  -3.095702e+05   4.388524e+05
  -6.816408e+05   2.641397e+05
  -2.788499e+05   1.839654e+04
   3.501140e+05  -1.036540e+05
   4.323238e+05   3.481014e+04
  -1.480383e+05   3.051642e+05
  -7.486025e+05   3.132750e+05
