
 $NMID
 id='ANONYMOUS ', fmtdat='(2E16.6)'
 volume=1.0
 tramp=1.0
 $END
  -3.142587e+07  -1.365831e+06
  -1.924313e+07  -1.685296e+07
   2.267430e+06  -1.986643e+07
   1.415846e+07  -1.093912e+07
   1.025302e+07   4.816654e+05
  -2.668515e+05   5.286712e+06
  -5.900406e+06   1.626265e+06
  -3.612914e+06  -5.050016e+06
   2.078782e+06  -7.423019e+06
   5.642802e+06  -2.882693e+06
   4.651031e+06   4.013570e+06
   4.812648e+05   6.111437e+06
  -2.914101e+06   1.358189e+06
  -2.198986e+06  -4.822414e+06
   1.899314e+06  -5.577889e+06
   4.926572e+06  -9.879789e+04
   3.324467e+06   6.066260e+06
  -1.796786e+06   7.362847e+06
  -6.011010e+06   3.403095e+06
  -6.091947e+06  -1.878810e+06
  -2.745930e+06  -4.582655e+06
   5.231499e+05  -3.928377e+06
   8.173016e+05  -2.121633e+06
  -1.356486e+06  -1.835476e+06
  -2.419417e+06  -3.445119e+06
   4.416721e+05  -4.608362e+06
   5.527937e+06  -2.983972e+06
   7.794728e+06   8.135567e+05
   4.491459e+06   3.693631e+06
  -1.336992e+06   3.442807e+06
  -4.107856e+06   8.024044e+05
  -1.835637e+06  -1.720307e+06
   2.252101e+06  -2.141970e+06
   3.895925e+06  -1.391742e+05
   2.148507e+06   2.806257e+06
  -6.601457e+05   4.067662e+06
  -1.960808e+06   2.082443e+06
  -1.178724e+06  -1.355332e+06
   3.258318e+05  -2.364398e+06
   7.432669e+05   3.260729e+05
  -5.007652e+05   3.213008e+06
  -2.059161e+06   2.241817e+06
  -1.891863e+06  -1.672205e+06
   4.166752e+05  -3.552372e+06
   2.784464e+06  -7.883939e+05
   2.548517e+06   3.533198e+06
  -6.936011e+05   4.572618e+06
  -4.378076e+06   1.355941e+06
  -5.204838e+06  -2.792134e+06
  -2.184804e+06  -4.333888e+06
   2.295442e+06  -2.649036e+06
   4.470609e+06   3.226645e+05
   2.661370e+06   2.162878e+06
  -1.060618e+06   1.721442e+06
  -2.965910e+06  -1.669341e+05
  -1.568211e+06  -1.455409e+06
   9.770438e+05  -9.134114e+05
   1.611553e+06   5.768915e+05
  -5.977033e+04   1.154968e+06
  -1.597513e+06   2.068524e+05
  -8.512523e+05  -1.108548e+06
   1.553831e+06  -1.346012e+06
   3.027103e+06  -9.771510e+04
   1.773221e+06   1.988961e+06
  -1.517835e+06   3.637714e+06
  -4.395287e+06   3.397525e+06
  -4.814312e+06   7.463956e+05
  -2.816531e+06  -2.820976e+06
  -3.039358e+05  -4.692869e+06
   8.931476e+05  -3.810278e+06
   7.262931e+05  -1.838317e+06
   5.929228e+05  -9.944280e+05
   1.446351e+06  -1.289980e+06
   2.660478e+06  -9.004107e+05
   2.856793e+06   9.789703e+05
   1.464940e+06   2.791330e+06
  -7.231533e+05   2.492727e+06
  -2.215195e+06   5.304310e+04
  -1.868363e+06  -2.438856e+06
   2.490381e+05  -2.877088e+06
   2.636006e+06  -1.008767e+06
   3.361984e+06   1.574972e+06
   1.867473e+06   2.985082e+06
  -3.581401e+05   2.626897e+06
  -1.403644e+06   1.471383e+06
  -1.141117e+06   8.275019e+05
  -1.175663e+06   9.211381e+05
  -2.495504e+06   8.110818e+05
  -3.888632e+06  -3.694101e+05
  -3.261416e+06  -2.337628e+06
  -2.489116e+05  -3.838897e+06
   3.067758e+06  -3.693884e+06
   4.147042e+06  -1.748548e+06
   2.436857e+06   8.470005e+05
  -2.151030e+05   2.298989e+06
  -1.427870e+06   1.634158e+06
  -4.953770e+05  -2.116758e+05
   1.170657e+06  -1.175786e+06
   1.681936e+06  -3.171063e+05
   6.359375e+05   1.068719e+06
  -6.452480e+05   1.085550e+06
  -7.068454e+05  -2.895948e+05
   4.935935e+05  -1.104251e+06
   1.670770e+06   1.122577e+05
   1.530224e+06   2.453442e+06
  -1.442126e+05   3.589451e+06
  -2.377294e+06   2.266004e+06
  -3.653354e+06  -5.232067e+05
  -2.963277e+06  -2.656411e+06
  -7.328666e+05  -2.826636e+06
   1.298993e+06  -1.474122e+06
   1.610676e+06  -1.369146e+05
   4.716044e+05   3.962258e+04
  -3.657807e+05  -7.024325e+05
   2.705858e+05  -1.155269e+06
   1.583355e+06  -5.456309e+05
   1.826576e+06   6.173282e+05
   4.833165e+05   1.176150e+06
  -1.051021e+06   6.308512e+05
  -1.038822e+06  -3.823829e+05
   6.442702e+05  -8.029480e+05
   2.310265e+06  -1.264517e+05
   2.150197e+06   1.215226e+06
   5.834060e+04   2.177698e+06
  -2.207168e+06   1.874000e+06
  -2.696364e+06   3.885943e+05
  -1.150972e+06  -1.087788e+06
   7.924261e+05  -1.270709e+06
   1.289747e+06  -1.419182e+05
   8.865625e+04   9.324951e+05
  -1.401705e+06   6.859114e+05
  -1.668007e+06  -6.194923e+05
  -5.328399e+05  -1.538686e+06
   8.607657e+05  -1.129349e+06
   1.248996e+06   4.512487e+04
   4.123795e+05   6.590673e+05
  -6.523510e+05   9.885408e+04
  -6.783053e+05  -9.672864e+05
   5.756422e+05  -1.345930e+06
   1.936018e+06  -4.895634e+05
   1.932898e+06   1.008414e+06
   3.961049e+05   1.948153e+06
  -1.279980e+06   1.586328e+06
  -1.611916e+06   2.988031e+05
  -5.671682e+05  -7.798506e+05
   5.746414e+05  -8.300352e+05
   7.187699e+05  -8.059669e+04
   2.453986e+03   5.386432e+05
  -6.069025e+05   4.279551e+05
  -4.413040e+05  -8.482958e+04
   2.429690e+05  -1.958855e+05
   5.859143e+05   4.011265e+05
  -1.650264e+04   1.088878e+06
  -1.242722e+06   9.266950e+05
  -2.001045e+06  -3.244349e+05
  -1.431065e+06  -1.825621e+06
   1.652728e+05  -2.375352e+06
   1.544446e+06  -1.535463e+06
   1.766408e+06  -3.321286e+04
   1.071461e+06   9.643104e+05
   4.121694e+05   9.466816e+05
   3.068644e+05   4.198611e+05
   3.959297e+05   2.268968e+05
   6.352443e+04   5.961575e+05
  -7.503756e+05   9.168295e+05
  -1.416764e+06   4.629461e+05
  -1.184853e+06  -6.948748e+05
   9.179783e+04  -1.578229e+06
   1.645536e+06  -1.200943e+06
   2.248772e+06   3.775187e+05
   1.238413e+06   1.962110e+06
  -7.679412e+05   2.279802e+06
  -2.303797e+06   1.151892e+06
  -2.350356e+06  -4.103014e+05
  -1.191883e+06  -1.247717e+06
   3.216726e+04  -1.115243e+06
   4.977139e+05  -7.040008e+05
   3.323023e+05  -7.258269e+05
   2.227508e+05  -1.107713e+06
   5.890868e+05  -1.126622e+06
   1.161902e+06  -2.821276e+05
   1.271860e+06   1.042053e+06
   5.483751e+05   1.835306e+06
  -6.027659e+05   1.402616e+06
  -1.259433e+06   5.574680e+04
  -8.500395e+05  -1.143600e+06
   2.244147e+05  -1.333318e+06
   9.551557e+05  -5.555369e+05
   7.606314e+05   4.236414e+05
   5.439578e+04   8.969428e+05
  -2.955838e+05   7.795028e+05
   1.451744e+04   4.813718e+05
   3.881185e+05   3.641793e+05
   4.092883e+04   3.885619e+05
  -1.030306e+06   2.454757e+05
  -1.893956e+06  -2.473515e+05
  -1.574479e+06  -9.017564e+05
  -1.091909e+05  -1.282833e+06
   1.369296e+06  -1.076695e+06
   1.705233e+06  -3.885972e+05
   8.501154e+05   2.905711e+05
  -1.799656e+05   4.697411e+05
  -4.427264e+05   1.080820e+05
   2.264321e+04  -3.061487e+05
   4.799382e+05  -2.277918e+05
   4.490070e+05   3.282161e+05
   1.319473e+05   7.386140e+05
  -1.768070e+04   4.782456e+05
   1.386328e+05  -1.811048e+05
   3.540558e+05  -4.028404e+05
   2.946133e+05   2.015334e+05
  -1.775657e+05   1.002665e+06
  -8.471695e+05   1.023449e+06
  -1.174515e+06   1.002142e+05
  -6.933237e+05  -8.861349e+05
   3.923013e+05  -9.927197e+05
   1.135855e+06  -2.193805e+05
   7.014028e+05   5.858377e+05
  -6.365269e+05   6.615937e+05
  -1.591868e+06   5.054108e+03
  -1.152921e+06  -7.772656e+05
   3.249871e+05  -1.062642e+06
   1.470092e+06  -6.666753e+05
   1.308563e+06   6.613601e+04
   2.050652e+05   5.234545e+05
  -6.097768e+05   3.309846e+05
  -3.369432e+05  -2.444741e+05
   6.232105e+05  -4.613771e+05
   1.147260e+06   1.547855e+05
   5.610911e+05   1.195949e+06
  -6.876897e+05   1.627676e+06
  -1.504845e+06   8.015599e+05
  -1.231786e+06  -7.734495e+05
  -2.025203e+05  -1.781183e+06
   7.094028e+05  -1.342022e+06
   9.283349e+05   8.507213e+04
   5.173122e+05   1.149956e+06
  -9.971024e+04   1.006904e+06
  -5.189840e+05   1.317775e+05
  -5.374525e+05  -3.779287e+05
  -2.451203e+05  -1.548964e+05
  -1.465318e+04   1.174962e+05
  -1.602493e+05  -2.379157e+05
  -4.678690e+05  -9.225506e+05
  -2.986143e+05  -1.071254e+06
   5.858321e+05  -4.086803e+05
   1.472295e+06   4.421153e+05
   1.360135e+06   8.023184e+05
   2.005390e+05   6.641335e+05
  -9.135236e+05   4.168274e+05
  -9.935390e+05   2.224288e+05
  -2.858367e+05  -4.456983e+03
   1.725262e+05  -2.163288e+05
  -6.190555e+04  -2.424721e+05
  -3.630132e+05  -1.374894e+05
  -1.371734e+04  -1.387388e+05
   7.548985e+05  -2.052047e+05
   1.016905e+06   3.581167e+04
   2.843463e+05   6.691681e+05
  -9.163145e+05   1.105762e+06
  -1.602746e+06   6.732365e+05
  -1.269046e+06  -4.795869e+05
  -2.375748e+05  -1.396657e+06
   7.233196e+05  -1.318036e+06
   1.029013e+06  -4.667618e+05
   6.608741e+05   2.774747e+05
   9.195851e+04   3.520539e+05
  -1.537403e+05   1.490345e+04
   4.512342e+04  -7.876695e+04
   3.382035e+05   3.284477e+05
   2.828491e+05   7.894573e+05
  -1.945297e+05   6.482727e+05
  -6.908237e+05  -1.781658e+05
  -6.757773e+05  -9.960396e+05
  -1.427910e+04  -1.007473e+06
   7.973004e+05  -1.612333e+05
   9.912051e+05   7.868708e+05
   2.844422e+05   1.066158e+06
  -7.163312e+05   6.006519e+05
  -1.054527e+06  -9.984443e+04
  -4.683940e+05  -5.430231e+05
   2.791376e+05  -5.856106e+05
   3.013795e+05  -3.383035e+05
  -3.220215e+05  -3.435917e+04
  -6.576956e+05   2.788128e+04
  -1.158102e+05  -2.879839e+05
   8.077106e+05  -6.768815e+05
   1.162939e+06  -5.852536e+05
   6.650671e+05   1.166771e+05
  -1.030192e+05   8.211598e+05
  -4.742051e+05   8.028097e+05
  -3.426305e+05   9.753065e+04
  -1.355767e+04  -5.040523e+05
   2.515053e+05  -3.853519e+05
   3.537011e+05   2.128781e+05
   2.381422e+05   5.690440e+05
  -7.452538e+04   3.563852e+05
  -3.821114e+05  -7.463377e+04
  -4.384783e+05  -2.283460e+05
  -2.339016e+05  -5.117964e+04
  -4.884453e+03   9.503150e+04
   7.262423e+04  -7.012168e+04
   8.200139e+04  -3.973695e+05
   1.910320e+05  -4.716258e+05
   3.647371e+05  -8.998829e+04
   3.618017e+05   4.606478e+05
   3.065090e+04   6.537497e+05
  -4.377862e+05   2.757143e+05
  -6.073681e+05  -3.236420e+05
  -2.144254e+05  -5.924794e+05
   4.775142e+05  -3.459557e+05
   8.257776e+05   1.090514e+05
   4.483934e+05   3.739565e+05
  -2.921298e+05   3.398936e+05
  -6.123165e+05   1.573464e+05
  -1.918309e+05   2.631797e+03
   4.191969e+05  -1.571088e+04
   4.342974e+05   1.386269e+05
  -2.243741e+05   3.354182e+05
  -8.309652e+05   2.685267e+05
