
 $NMID
 id='ANONYMOUS ', fmtdat='(2E16.6)'
 volume=1.0
 tramp=1.0
 $END
  -6.002214e+07   2.720400e+05
  -3.621126e+07  -3.738481e+07
   8.016395e+06  -4.083541e+07
   2.955929e+07  -1.541824e+07
   1.754068e+07   7.808340e+06
  -3.672882e+06   9.977064e+06
  -1.048739e+07  -1.524797e+06
  -2.782543e+06  -1.049200e+07
   6.773267e+06  -9.772964e+06
   1.029159e+07  -1.965780e+06
   7.381872e+06   6.552419e+06
   8.614835e+05   9.033289e+06
  -4.175615e+06   2.938205e+06
  -2.709889e+06  -5.626560e+06
   4.056921e+06  -6.797252e+06
   8.357710e+06   1.502638e+06
   4.668006e+06   1.084499e+07
  -4.046392e+06   1.250944e+07
  -1.071611e+07   6.304677e+06
  -1.150583e+07  -2.080121e+06
  -7.172640e+06  -7.900139e+06
  -8.777167e+05  -9.293686e+06
   3.145627e+06  -6.609655e+06
   2.223439e+06  -2.890744e+06
  -9.580253e+05  -2.098969e+06
  -3.028421e+05  -4.205327e+06
   5.497768e+06  -4.603008e+06
   1.003333e+07  -6.275058e+05
   7.441550e+06   4.248908e+06
   4.234472e+05   5.307333e+06
  -3.739542e+06   2.781599e+06
  -2.561111e+06   1.907140e+05
   4.800208e+05  -8.042399e+05
   2.161453e+06  -4.961583e+05
   2.214382e+06   1.332697e+06
   8.238756e+05   3.978301e+06
  -1.809110e+06   4.102837e+06
  -3.483840e+06   4.330411e+04
  -1.959255e+06  -3.811998e+06
   7.621585e+05  -2.189779e+06
   4.087990e+05   2.421693e+06
  -2.564860e+06   2.356817e+06
  -2.569193e+06  -3.419950e+06
   2.665042e+06  -6.553422e+06
   7.518157e+06  -1.103911e+06
   5.516384e+06   7.395364e+06
  -2.044358e+06   9.123619e+06
  -7.887214e+06   2.595668e+06
  -7.288724e+06  -4.720578e+06
  -1.852498e+06  -6.356600e+06
   3.690095e+06  -2.783366e+06
   5.476030e+06   1.698929e+06
   2.462492e+06   3.721611e+06
  -2.612373e+06   2.307767e+06
  -4.796376e+06  -1.016789e+06
  -2.040563e+06  -2.913960e+06
   1.831015e+06  -1.451627e+06
   1.796858e+06   1.105373e+06
  -1.488062e+06   9.378089e+05
  -2.653697e+06  -1.981300e+06
   7.418671e+05  -3.775956e+06
   5.031715e+06  -2.039672e+06
   5.668351e+06   1.511061e+06
   2.442679e+06   4.264219e+06
  -1.870939e+06   5.541201e+06
  -5.185658e+06   5.080354e+06
  -6.464599e+06   1.876830e+06
  -4.850574e+06  -3.256295e+06
  -1.022053e+06  -6.456878e+06
   2.010791e+06  -4.988782e+06
   1.928479e+06  -1.203315e+06
   1.526746e+05   3.886543e+05
  -1.585661e+05  -9.443858e+05
   1.536560e+06  -1.891486e+06
   2.862035e+06  -3.467935e+05
   2.110019e+06   1.902444e+06
   7.821283e+04   2.158940e+06
  -1.534694e+06   2.036039e+05
  -1.689800e+06  -2.116294e+06
  -1.144022e+04  -3.019838e+06
   2.852375e+06  -1.749636e+06
   4.684668e+06   1.188156e+06
   3.433028e+06   3.924033e+06
   3.253622e+03   4.487540e+06
  -2.409946e+06   2.916489e+06
  -2.398525e+06   1.209303e+06
  -1.958566e+06   6.824237e+05
  -3.083142e+06   4.516729e+05
  -4.527033e+06  -8.419169e+05
  -3.603115e+06  -2.911969e+06
  -9.883196e+04  -4.287087e+06
   3.343483e+06  -4.022709e+06
   4.313658e+06  -2.195867e+06
   2.750382e+06   4.049727e+05
   3.176903e+05   2.291009e+06
  -1.109433e+06   2.011582e+06
  -5.852023e+05  -2.215028e+04
   1.122218e+06  -1.357062e+06
   1.995145e+06  -4.108647e+05
   9.761184e+05   1.260209e+06
  -5.301852e+05   1.147488e+06
  -4.130895e+05  -4.238947e+05
   1.177946e+06  -6.823707e+05
   1.954635e+06   1.464986e+06
   5.673160e+05   3.734287e+06
  -1.830835e+06   3.520437e+06
  -3.358602e+06   1.013983e+06
  -3.384028e+06  -1.627015e+06
  -2.249676e+06  -2.894926e+06
  -4.099175e+05  -2.680392e+06
   1.286995e+06  -1.499725e+06
   1.626506e+06  -2.323419e+05
   5.116596e+05   5.196755e+04
  -3.646482e+05  -7.878672e+05
   4.529312e+05  -1.410697e+06
   2.018635e+06  -5.937949e+05
   2.129236e+06   9.662916e+05
   3.786466e+05   1.503527e+06
  -1.236580e+06   5.764286e+05
  -8.996802e+05  -4.932524e+05
   9.163119e+05  -4.996698e+05
   2.246901e+06   4.117961e+05
   1.742422e+06   1.447205e+06
  -3.204209e+05   2.016582e+06
  -2.421796e+06   1.663742e+06
  -2.885622e+06   2.441454e+05
  -1.261001e+06  -1.343586e+06
   9.772128e+05  -1.580804e+06
   1.652497e+06  -1.946197e+05
   2.171002e+05   1.139061e+06
  -1.592527e+06   7.595171e+05
  -1.783330e+06  -8.473578e+05
  -3.083168e+05  -1.735336e+06
   1.177346e+06  -9.843411e+05
   1.306774e+06   3.743365e+05
   2.251762e+05   8.346344e+05
  -8.488804e+05   4.717739e+04
  -7.660092e+05  -1.109202e+06
   6.060234e+05  -1.483337e+06
   2.094051e+06  -5.561519e+05
   2.116759e+06   1.108431e+06
   3.808887e+05   2.171994e+06
  -1.529293e+06   1.701043e+06
  -1.809364e+06   1.904155e+05
  -5.036555e+05  -9.204259e+05
   7.040986e+05  -8.242590e+05
   6.449450e+05  -7.055087e+04
  -1.478515e+05   3.492119e+05
  -4.983197e+05   1.770343e+05
  -7.861680e+04  -7.237038e+04
   4.992671e+05   1.199948e+05
   5.251222e+05   7.420724e+05
  -2.509665e+05   1.245653e+06
  -1.460741e+06   9.132617e+05
  -2.166369e+06  -4.583423e+05
  -1.508744e+06  -2.042153e+06
   2.515178e+05  -2.512881e+06
   1.697647e+06  -1.430684e+06
   1.738998e+06   1.716430e+05
   8.447388e+05   9.291558e+05
   3.015177e+05   6.337129e+05
   5.138516e+05   1.963060e+05
   6.837422e+05   3.375019e+05
   9.571329e+04   8.164999e+05
  -9.337981e+05   9.246376e+05
  -1.508423e+06   3.030481e+05
  -1.058988e+06  -7.625277e+05
   2.981551e+05  -1.492427e+06
   1.805131e+06  -1.076884e+06
   2.324465e+06   5.355948e+05
   1.142164e+06   2.207339e+06
  -1.101724e+06   2.459169e+06
  -2.681016e+06   1.031788e+06
  -2.432842e+06  -7.424093e+05
  -9.419662e+05  -1.413328e+06
   2.526637e+05  -9.535205e+05
   3.936792e+05  -4.916105e+05
   4.591007e+04  -7.780948e+05
   9.426969e+04  -1.381200e+06
   7.138716e+05  -1.355851e+06
   1.361926e+06  -3.283537e+05
   1.387851e+06   1.133100e+06
   5.646791e+05   1.974606e+06
  -6.569057e+05   1.488995e+06
  -1.336221e+06  -2.128074e+04
  -8.273174e+05  -1.358437e+06
   4.412118e+05  -1.455420e+06
   1.243638e+06  -3.900213e+05
   8.477724e+05   7.719782e+05
  -1.614998e+05   1.145127e+06
  -6.011365e+05   8.106101e+05
  -1.093553e+05   4.209674e+05
   4.529352e+05   3.444173e+05
   6.256569e+04   3.954161e+05
  -1.210482e+06   2.053467e+05
  -2.162516e+06  -3.694751e+05
  -1.675912e+06  -1.106525e+06
   7.161672e+04  -1.513780e+06
   1.689204e+06  -1.184456e+06
   1.921364e+06  -2.571262e+05
   8.603146e+05   5.533154e+05
  -2.861621e+05   6.058041e+05
  -5.430731e+05   1.961948e+04
  -4.086099e+04  -4.548365e+05
   4.521077e+05  -2.691924e+05
   5.022085e+05   3.582967e+05
   2.805430e+05   7.435491e+05
   1.181443e+05   4.940093e+05
   1.438205e+05  -8.068696e+04
   2.783218e+05  -2.784942e+05
   2.805149e+05   2.475902e+05
  -1.443810e+05   1.015152e+06
  -9.445263e+05   1.107368e+06
  -1.444846e+06   1.934157e+05
  -9.092100e+05  -9.521552e+05
   4.362650e+05  -1.206305e+06
   1.324520e+06  -3.697821e+05
   7.625192e+05   5.923612e+05
  -7.433830e+05   6.648999e+05
  -1.642384e+06  -1.298437e+05
  -1.004699e+06  -9.193069e+05
   5.418806e+05  -1.006437e+06
   1.561667e+06  -4.454615e+05
   1.259118e+06   2.334286e+05
   1.197874e+05   5.315299e+05
  -6.833828e+05   2.615175e+05
  -4.081622e+05  -3.167117e+05
   5.964871e+05  -5.526581e+05
   1.231221e+06   6.757417e+04
   7.195805e+05   1.217399e+06
  -5.862331e+05   1.778031e+06
  -1.529163e+06   9.358723e+05
  -1.304343e+06  -7.805668e+05
  -2.069864e+05  -1.856506e+06
   7.776067e+05  -1.325039e+06
   9.572920e+05   2.098840e+05
   4.199931e+05   1.246913e+06
  -2.640599e+05   9.929413e+05
  -5.947589e+05   7.279368e+04
  -4.606418e+05  -3.922089e+05
  -1.446487e+05  -1.384861e+05
  -6.101589e+04   9.227833e+04
  -3.256847e+05  -3.215958e+05
  -5.390255e+05  -1.012925e+06
  -1.629137e+05  -1.119339e+06
   7.794039e+05  -4.047618e+05
   1.525931e+06   4.894666e+05
   1.298159e+06   8.782183e+05
   1.862953e+05   7.335088e+05
  -8.625013e+05   4.337721e+05
  -1.014952e+06   1.750264e+05
  -3.984834e+05  -7.031524e+04
   1.412716e+05  -2.362688e+05
   7.067517e+04  -1.999132e+05
  -2.397015e+05  -8.282934e+04
  -6.600138e+04  -1.353812e+05
   6.500535e+05  -2.563663e+05
   1.093255e+06  -4.815475e+02
   5.042180e+05   7.219860e+05
  -8.382301e+05   1.247053e+06
  -1.790438e+06   8.200157e+05
  -1.514152e+06  -4.212399e+05
  -3.047903e+05  -1.456023e+06
   8.035813e+05  -1.447903e+06
   1.090294e+06  -5.894170e+05
   6.766605e+05   2.191392e+05
   1.568847e+05   3.723190e+05
  -3.920486e+04   8.934457e+04
   9.835586e+04   6.825999e+03
   2.974382e+05   3.946717e+05
   2.451369e+05   8.423275e+05
  -1.753259e+05   7.160558e+05
  -7.010072e+05  -9.676161e+04
  -7.968172e+05  -9.594795e+05
  -1.702691e+05  -1.075220e+06
   7.568735e+05  -2.992448e+05
   1.093638e+06   7.072965e+05
   3.965884e+05   1.132933e+06
  -7.297024e+05   7.394898e+05
  -1.184338e+06  -5.696921e+04
  -5.820762e+05  -6.591361e+05
   2.944213e+05  -7.440763e+05
   4.238465e+05  -3.964495e+05
  -2.217653e+05   3.791410e+03
  -6.667178e+05   5.103529e+04
  -1.678185e+05  -3.259197e+05
   8.555448e+05  -7.081709e+05
   1.340419e+06  -5.466993e+05
   8.329061e+05   2.051938e+05
  -8.962361e+04   9.205767e+05
  -5.992844e+05   9.129792e+05
  -4.765505e+05   2.005316e+05
  -7.839674e+04  -4.825829e+05
   2.372639e+05  -4.751174e+05
   3.640847e+05   1.176309e+05
   2.752218e+05   5.976199e+05
  -4.011365e+04   4.752901e+05
  -4.083731e+05  -2.810601e+04
  -5.112751e+05  -3.103656e+05
  -2.552141e+05  -1.189583e+05
   5.564205e+04   1.811147e+05
   9.056374e+04   9.835934e+04
  -6.108119e+04  -3.437639e+05
  -2.206844e+04  -6.064808e+05
   3.049540e+05  -2.912061e+05
   5.239684e+05   3.471826e+05
   2.303363e+05   6.641224e+05
  -4.034866e+05   3.482409e+05
  -7.170787e+05  -2.593703e+05
  -2.879930e+05  -5.797561e+05
   5.347365e+05  -3.925162e+05
   9.403274e+05   5.152948e+04
   5.140153e+05   3.864677e+05
  -2.998001e+05   4.467445e+05
  -6.707559e+05   2.780223e+05
  -2.878965e+05   2.943524e+04
   3.197236e+05  -1.014397e+05
   4.080223e+05   2.291633e+04
  -1.413401e+05   2.801328e+05
  -7.190654e+05   2.905710e+05
