
 $NMID
 id='ANONYMOUS ', fmtdat='(2E16.6)'
 volume=1.0
 tramp=1.0
 $END
   5.283683e+07  -1.709564e+06
   3.290657e+07   3.088140e+07
  -5.278753e+06   3.556527e+07
  -2.489696e+07   1.524433e+07
  -1.573219e+07  -5.167220e+06
   2.406866e+06  -8.787133e+06
   9.206129e+06   2.619433e+05
   3.381440e+06   8.843170e+06
  -5.041931e+06   9.372674e+06
  -8.921998e+06   2.619543e+06
  -6.971662e+06  -5.631526e+06
  -1.160270e+06  -8.312099e+06
   3.795123e+06  -2.721174e+06
   2.920402e+06   5.342935e+06
  -3.139434e+06   6.673427e+06
  -7.491931e+06  -7.568605e+05
  -4.733189e+06  -9.436611e+06
   3.009625e+06  -1.134408e+07
   9.333709e+06  -5.944691e+06
   1.025978e+07   1.687615e+06
   6.295440e+06   6.917666e+06
   7.174397e+05   7.936809e+06
  -2.402955e+06   5.464354e+06
  -1.103915e+06   2.536319e+06
   1.628311e+06   2.369977e+06
   3.892097e+05   4.428845e+06
  -5.416569e+06   4.568593e+06
  -9.614382e+06   7.160590e+05
  -6.951326e+06  -3.877234e+06
  -1.399956e+05  -4.947387e+06
   3.861816e+06  -2.523056e+06
   2.511948e+06   2.437037e+05
  -8.598375e+05   1.361219e+06
  -2.699612e+06   6.611019e+05
  -2.428002e+06  -1.649971e+06
  -6.740062e+05  -4.130404e+06
   1.760003e+06  -3.720046e+06
   2.971272e+06   2.942171e+05
   1.477359e+06   3.487120e+06
  -8.017318e+05   1.542277e+06
  -3.620401e+05  -2.732159e+06
   2.319899e+06  -2.497032e+06
   2.520305e+06   2.849066e+06
  -1.837483e+06   5.808815e+06
  -6.218841e+06   1.190454e+06
  -4.957551e+06  -6.245556e+06
   1.412420e+06  -7.993413e+06
   6.920437e+06  -2.545939e+06
   6.980437e+06   3.914389e+06
   2.254102e+06   5.736502e+06
  -3.175334e+06   2.937347e+06
  -5.294461e+06  -1.039948e+06
  -2.702790e+06  -3.157808e+06
   2.089738e+06  -2.240948e+06
   4.352413e+06   5.980692e+05
   2.031399e+06   2.436314e+06
  -1.552826e+06   1.379834e+06
  -1.810677e+06  -8.642265e+05
   1.017603e+06  -1.014446e+06
   2.368001e+06   1.275771e+06
  -2.278372e+05   2.998137e+06
  -4.020369e+06   1.957465e+06
  -4.986085e+06  -8.832098e+05
  -2.410492e+06  -3.564904e+06
   1.576535e+06  -5.184060e+06
   4.839312e+06  -4.963277e+06
   6.058032e+06  -1.884775e+06
   4.525807e+06   3.015385e+06
   1.128839e+06   6.042664e+06
  -1.476912e+06   4.790097e+06
  -1.490997e+06   1.456515e+06
  -2.175313e+05   5.136567e+04
  -2.258291e+05   1.161589e+06
  -1.838429e+06   1.809744e+06
  -2.978861e+06   1.495821e+05
  -2.143508e+06  -2.102193e+06
  -1.071926e+04  -2.343758e+06
   1.755519e+06  -3.109192e+05
   1.931322e+06   2.123961e+06
   1.231335e+05   3.048404e+06
  -2.776846e+06   1.735270e+06
  -4.486811e+06  -1.109757e+06
  -3.228336e+06  -3.607040e+06
  -6.015663e+04  -4.051376e+06
   2.072025e+06  -2.634877e+06
   2.024786e+06  -1.188543e+06
   1.705809e+06  -8.366956e+05
   2.913270e+06  -7.222527e+05
   4.444048e+06   4.721574e+05
   3.716926e+06   2.588214e+06
   3.902254e+05   4.216136e+06
  -3.086431e+06   4.195332e+06
  -4.231455e+06   2.372516e+06
  -2.764522e+06  -3.834317e+05
  -3.172648e+05  -2.349643e+06
   1.116212e+06  -2.032366e+06
   5.829696e+05   4.381784e+04
  -1.079480e+06   1.403330e+06
  -1.916955e+06   4.997082e+05
  -9.630993e+05  -1.185084e+06
   4.999195e+05  -1.191922e+06
   5.220149e+05   3.432172e+05
  -9.247534e+05   8.441617e+05
  -1.905279e+06  -9.906556e+05
  -1.010574e+06  -3.323800e+06
   1.137976e+06  -3.604961e+06
   2.979970e+06  -1.546831e+06
   3.553577e+06   1.096431e+06
   2.670485e+06   2.682333e+06
   6.952163e+05   2.722531e+06
  -1.218883e+06   1.603969e+06
  -1.643110e+06   3.138535e+05
  -5.121850e+05  -1.848033e+04
   4.160201e+05   7.525017e+05
  -3.338610e+05   1.376556e+06
  -1.890953e+06   6.905117e+05
  -2.115807e+06  -7.630353e+05
  -4.911226e+05  -1.400218e+06
   1.160779e+06  -6.682059e+05
   9.777854e+05   4.008634e+05
  -8.010119e+05   6.349231e+05
  -2.294125e+06  -1.144976e+05
  -1.968845e+06  -1.264868e+06
   7.457386e+04  -2.093413e+06
   2.280052e+06  -1.896233e+06
   2.856020e+06  -4.649546e+05
   1.321310e+06   1.217848e+06
  -8.586369e+05   1.568771e+06
  -1.566321e+06   2.656446e+05
  -2.432425e+05  -1.092499e+06
   1.520002e+06  -8.409648e+05
   1.819769e+06   6.876800e+05
   4.786526e+05   1.672066e+06
  -1.030410e+06   1.098042e+06
  -1.312953e+06  -2.031420e+05
  -3.254524e+05  -7.682877e+05
   7.984094e+05  -1.022287e+05
   8.134975e+05   1.044563e+06
  -5.233722e+05   1.505495e+06
  -2.054322e+06   6.694436e+05
  -2.165205e+06  -9.755822e+05
  -5.170012e+05  -2.119592e+06
   1.381239e+06  -1.779777e+06
   1.763900e+06  -3.301691e+05
   5.817052e+05   8.569829e+05
  -6.234995e+05   8.763495e+05
  -6.710302e+05   1.225174e+05
   7.168758e+04  -4.077051e+05
   5.094477e+05  -2.913250e+05
   1.898263e+05   4.733519e+04
  -4.205612e+05  -1.679320e+04
  -5.764847e+05  -6.194416e+05
   1.187577e+05  -1.222971e+06
   1.364620e+06  -1.012347e+06
   2.177559e+06   2.999825e+05
   1.629839e+06   1.924264e+06
  -7.779191e+04   2.528566e+06
  -1.583121e+06   1.586559e+06
  -1.775282e+06   1.083664e+02
  -9.899708e+05  -8.851226e+05
  -4.037448e+05  -7.092267e+05
  -4.920924e+05  -2.471194e+05
  -6.263414e+05  -2.887527e+05
  -1.246962e+05  -7.646115e+05
   8.394461e+05  -9.872082e+05
   1.479806e+06  -4.453588e+05
   1.159978e+06   6.809135e+05
  -1.417774e+05   1.550033e+06
  -1.714162e+06   1.237465e+06
  -2.368129e+06  -3.550882e+05
  -1.315544e+06  -2.095030e+06
   8.784530e+05  -2.498117e+06
   2.543913e+06  -1.231620e+06
   2.476714e+06   5.070886e+05
   1.111488e+06   1.311093e+06
  -1.194301e+05   1.018117e+06
  -3.839030e+05   5.954445e+05
  -8.341891e+04   8.007968e+05
  -6.340662e+04   1.342163e+06
  -6.189665e+05   1.351031e+06
  -1.310344e+06   3.946784e+05
  -1.446001e+06  -1.045465e+06
  -6.880336e+05  -1.934146e+06
   5.625355e+05  -1.529227e+06
   1.333357e+06  -8.176181e+04
   9.209926e+05   1.265086e+06
  -3.006594e+05   1.458863e+06
  -1.144685e+06   5.045723e+05
  -8.621721e+05  -6.362746e+05
   4.577552e+04  -1.088320e+06
   4.729843e+05  -8.324721e+05
   4.328940e+04  -4.439866e+05
  -4.665582e+05  -3.322386e+05
  -8.253986e+04  -3.987267e+05
   1.164421e+06  -2.859294e+05
   2.139194e+06   2.208074e+05
   1.733386e+06   9.661058e+05
   6.035129e+04   1.465026e+06
  -1.558066e+06   1.260250e+06
  -1.866683e+06   4.088723e+05
  -8.891283e+05  -4.316977e+05
   2.314123e+05  -5.880844e+05
   5.161453e+05  -7.343556e+04
   4.178202e+04   4.226759e+05
  -4.542661e+05   2.942753e+05
  -5.174886e+05  -3.273910e+05
  -2.908556e+05  -7.489859e+05
  -1.119927e+05  -5.010335e+05
  -1.325277e+05   1.204226e+05
  -2.783863e+05   3.430154e+05
  -3.022654e+05  -2.205043e+05
   9.239234e+04  -1.042581e+06
   8.686868e+05  -1.156910e+06
   1.387497e+06  -2.426676e+05
   9.199072e+05   9.079333e+05
  -3.694225e+05   1.191421e+06
  -1.281552e+06   4.047968e+05
  -7.970050e+05  -5.563816e+05
   6.829917e+05  -7.166793e+05
   1.656387e+06  -1.016143e+04
   1.115474e+06   8.185790e+05
  -4.192232e+05   1.060441e+06
  -1.518235e+06   6.125959e+05
  -1.299116e+06  -1.036365e+05
  -1.806791e+05  -5.246619e+05
   6.520416e+05  -3.252191e+05
   4.097709e+05   2.802791e+05
  -5.861536e+05   5.767943e+05
  -1.240158e+06  -2.051897e+04
  -7.642564e+05  -1.198564e+06
   5.219482e+05  -1.812841e+06
   1.499349e+06  -1.011991e+06
   1.357696e+06   7.132502e+05
   3.248541e+05   1.855664e+06
  -6.845211e+05   1.399814e+06
  -9.706517e+05  -1.174890e+05
  -5.295566e+05  -1.206941e+06
   1.557476e+05  -1.019629e+06
   5.744438e+05  -1.238608e+05
   5.155807e+05   3.595055e+05
   1.864815e+05   1.286306e+05
   4.061953e+04  -1.017388e+05
   2.981319e+05   2.946221e+05
   5.872990e+05   9.754273e+05
   2.745662e+05   1.104708e+06
  -7.107786e+05   4.492746e+05
  -1.566599e+06  -3.892741e+05
  -1.391377e+06  -7.829928e+05
  -2.362963e+05  -7.137675e+05
   8.662174e+05  -4.970082e+05
   1.012368e+06  -2.564377e+05
   3.727502e+05   3.520758e+04
  -1.388786e+05   2.464567e+05
  -1.714044e+04   2.105375e+05
   2.892717e+05   7.536358e+04
   6.084651e+04   1.385835e+05
  -6.796683e+05   2.964408e+05
  -1.093776e+06   5.521361e+04
  -4.926460e+05  -7.038529e+05
   8.056987e+05  -1.289478e+06
   1.726596e+06  -8.948054e+05
   1.502839e+06   3.659825e+05
   3.812075e+05   1.450867e+06
  -7.108456e+05   1.482991e+06
  -1.063635e+06   6.307894e+05
  -7.030826e+05  -1.974056e+05
  -1.634079e+05  -3.680119e+05
   7.304932e+04  -8.061885e+04
  -7.867084e+04   2.017306e+04
  -3.352375e+05  -3.602724e+05
  -3.111892e+05  -8.234452e+05
   1.426270e+05  -7.221541e+05
   7.231875e+05   7.731894e+04
   8.414827e+05   9.448330e+05
   1.931206e+05   1.075983e+06
  -7.734153e+05   3.171867e+05
  -1.136185e+06  -6.798143e+05
  -4.400939e+05  -1.117111e+06
   7.017049e+05  -7.593472e+05
   1.175434e+06   3.320579e+03
   5.936994e+05   6.084449e+05
  -2.592255e+05   7.296934e+05
  -3.747463e+05   4.048638e+05
   2.577029e+05  -1.505194e+04
   6.748706e+05  -8.795367e+04
   1.741717e+05   3.140230e+05
  -8.135764e+05   7.641628e+05
  -1.274913e+06   6.416280e+05
  -8.061314e+05  -1.418546e+05
   4.271015e+04  -9.154815e+05
   5.229662e+05  -9.272695e+05
   4.413786e+05  -1.951477e+05
   9.417195e+04   4.975610e+05
  -2.217187e+05   4.744100e+05
  -3.827793e+05  -1.244633e+05
  -3.062756e+05  -5.852242e+05
   2.897387e+04  -4.548134e+05
   4.136201e+05   1.747643e+04
   5.134712e+05   2.645079e+05
   2.563047e+05   8.648612e+04
  -4.428282e+04  -1.604876e+05
  -8.050217e+04  -4.681486e+04
   4.727105e+04   3.725668e+05
  -1.005426e+04   5.934363e+05
  -3.243092e+05   2.627530e+05
  -5.179504e+05  -3.646853e+05
  -2.192066e+05  -6.736229e+05
   4.037233e+05  -3.625487e+05
   7.202924e+05   2.444806e+05
   3.106721e+05   5.809905e+05
  -5.059995e+05   4.166556e+05
  -9.321293e+05  -1.668720e+04
  -5.286251e+05  -3.614453e+05
   2.821053e+05  -4.428981e+05
   6.571881e+05  -2.874377e+05
   2.655155e+05  -3.369079e+04
  -3.542451e+05   1.069280e+05
  -4.334249e+05  -2.815940e+04
   1.454237e+05  -3.167980e+05
   7.473344e+05  -3.449747e+05
