
 $NMID
 id='ANONYMOUS ', fmtdat='(2E16.6)'
 volume=1.0
 tramp=1.0
 $END
  -4.554301e+07   1.555283e+06
  -2.902286e+07  -2.584093e+07
   3.691798e+06  -3.064359e+07
   2.137325e+07  -1.419030e+07
   1.425196e+07   3.602555e+06
  -1.597288e+06   7.812492e+06
  -8.267875e+06   4.103674e+05
  -3.560650e+06  -7.695979e+06
   4.120797e+06  -8.826431e+06
   7.919680e+06  -2.766382e+06
   6.235361e+06   5.016956e+06
   9.800350e+05   7.526960e+06
  -3.418344e+06   2.310545e+06
  -2.607126e+06  -5.083602e+06
   2.774712e+06  -6.284264e+06
   6.693949e+06   4.386690e+05
   4.335357e+06   8.303355e+06
  -2.533850e+06   1.006405e+07
  -8.159077e+06   5.199571e+06
  -8.852387e+06  -1.585937e+06
  -5.230598e+06  -5.966141e+06
  -5.365905e+05  -6.568790e+06
   1.731533e+06  -4.523285e+06
   3.956216e+05  -2.513712e+06
  -1.646064e+06  -2.751451e+06
  -1.679589e+04  -4.321766e+06
   5.301180e+06  -3.889897e+06
   8.792331e+06  -2.206057e+05
   6.069206e+06   3.675645e+06
  -2.283456e+05   4.299343e+06
  -3.740991e+06   1.894834e+06
  -2.129554e+06  -6.375383e+05
   1.340007e+06  -1.402417e+06
   2.958481e+06  -3.187885e+05
   2.160883e+06   1.998616e+06
   1.860232e+05   3.952181e+06
  -1.735487e+06   3.140066e+06
  -2.319786e+06  -4.919294e+05
  -9.723263e+05  -2.973506e+06
   6.277874e+05  -9.712889e+05
  -2.899909e+03   2.744248e+06
  -2.246697e+06   2.344233e+06
  -2.349076e+06  -2.465864e+06
   1.318779e+06  -5.151142e+06
   5.116575e+06  -1.231845e+06
   4.286809e+06   5.243019e+06
  -1.051423e+06   6.897835e+06
  -6.015588e+06   2.229349e+06
  -6.352542e+06  -3.524045e+06
  -2.184497e+06  -5.282701e+06
   2.909167e+06  -2.815601e+06
   5.010974e+06   8.626978e+05
   2.675997e+06   2.888026e+06
  -1.749856e+06   2.119634e+06
  -3.911370e+06  -4.229496e+05
  -1.917958e+06  -2.118970e+06
   1.338331e+06  -1.249710e+06
   1.736291e+06   7.869713e+05
  -7.525650e+05   1.109276e+06
  -2.219736e+06  -8.048872e+05
  -2.041593e+05  -2.498990e+06
   3.230088e+06  -1.884791e+06
   4.416016e+06   5.259451e+05
   2.248620e+06   3.055738e+06
  -1.525150e+06   4.619144e+06
  -4.615537e+06   4.346663e+06
  -5.540775e+06   1.488496e+06
  -3.903073e+06  -2.861910e+06
  -8.538394e+05  -5.508697e+06
   1.312677e+06  -4.457180e+06
   1.332719e+06  -1.584049e+06
   4.287027e+05  -2.743177e+05
   6.156378e+05  -1.042327e+06
   1.988674e+06  -1.385004e+06
   2.777330e+06   2.344395e+05
   1.796212e+06   2.241953e+06
  -2.609945e+05   2.274242e+06
  -1.833193e+06   1.531951e+05
  -1.800638e+06  -2.209706e+06
   3.713844e+04  -2.913412e+06
   2.658840e+06  -1.447227e+06
   4.017774e+06   1.225895e+06
   2.755661e+06   3.322127e+06
  -2.779861e+04   3.541489e+06
  -1.807424e+06   2.269755e+06
  -1.740325e+06   1.095011e+06
  -1.556579e+06   8.493495e+05
  -2.766734e+06   6.963239e+05
  -4.200381e+06  -4.991028e+05
  -3.476711e+06  -2.523905e+06
  -2.718068e+05  -4.026839e+06
   3.083587e+06  -3.896346e+06
   4.131826e+06  -2.054012e+06
   2.569831e+06   5.411639e+05
   1.103076e+05   2.248269e+06
  -1.194662e+06   1.832027e+06
  -5.332353e+05  -8.828895e+04
   1.092247e+06  -1.278485e+06
   1.807560e+06  -4.222634e+05
   8.404039e+05   1.119001e+06
  -5.423523e+05   1.120585e+06
  -5.599043e+05  -3.418669e+05
   8.229984e+05  -9.167358e+05
   1.853304e+06   7.458322e+05
   1.136635e+06   3.088710e+06
  -9.217670e+05   3.601477e+06
  -2.861496e+06   1.704634e+06
  -3.547498e+06  -1.016324e+06
  -2.642991e+06  -2.724617e+06
  -6.143882e+05  -2.724463e+06
   1.250558e+06  -1.500092e+06
   1.598693e+06  -2.212554e+05
   4.913546e+05   3.316932e+04
  -3.805863e+05  -7.267059e+05
   3.188823e+05  -1.283158e+06
   1.767572e+06  -6.215931e+05
   1.990070e+06   7.249033e+05
   4.741793e+05   1.316327e+06
  -1.110961e+06   6.288176e+05
  -9.638373e+05  -4.094545e+05
   7.703486e+05  -6.564530e+05
   2.269389e+06   1.069520e+05
   1.952579e+06   1.292330e+06
  -9.585755e+04   2.086261e+06
  -2.261368e+06   1.804116e+06
  -2.763844e+06   3.804644e+05
  -1.234886e+06  -1.174124e+06
   8.311876e+05  -1.442658e+06
   1.454295e+06  -2.177170e+05
   1.871202e+05   1.015442e+06
  -1.460526e+06   7.563748e+05
  -1.732526e+06  -6.826012e+05
  -4.608506e+05  -1.618510e+06
   9.879970e+05  -1.080097e+06
   1.279014e+06   1.741884e+05
   3.403991e+05   7.326537e+05
  -7.352334e+05   9.143902e+04
  -7.337810e+05  -1.006241e+06
   5.527420e+05  -1.406718e+06
   1.979481e+06  -5.605779e+05
   2.028869e+06   9.998764e+05
   4.364208e+05   2.032578e+06
  -1.352326e+06   1.668716e+06
  -1.695811e+06   2.896692e+05
  -5.588743e+05  -8.292956e+05
   6.093041e+05  -8.376049e+05
   6.689952e+05  -9.342583e+04
  -6.894971e+04   4.351213e+05
  -5.420250e+05   2.993140e+05
  -2.482015e+05  -8.268904e+04
   3.823625e+05  -4.356213e+04
   5.691901e+05   5.657646e+05
  -1.111673e+05   1.167891e+06
  -1.324537e+06   9.420723e+05
  -2.075611e+06  -3.431938e+05
  -1.501382e+06  -1.884777e+06
   1.514044e+05  -2.429896e+06
   1.578219e+06  -1.508931e+06
   1.745415e+06   3.322069e+04
   9.700474e+05   9.256999e+05
   3.631418e+05   7.787674e+05
   4.089910e+05   2.917397e+05
   5.444930e+05   2.648311e+05
   9.544532e+04   7.026402e+05
  -8.227942e+05   9.339909e+05
  -1.449973e+06   4.041294e+05
  -1.125030e+06  -7.098263e+05
   1.712276e+05  -1.530636e+06
   1.693460e+06  -1.162590e+06
   2.278199e+06   4.072045e+05
   1.226260e+06   2.043196e+06
  -8.738713e+05   2.373992e+06
  -2.450394e+06   1.142495e+06
  -2.390265e+06  -5.191452e+05
  -1.088501e+06  -1.301632e+06
   1.242768e+05  -1.031514e+06
   4.335276e+05  -5.973358e+05
   1.678084e+05  -7.426804e+05
   1.222781e+05  -1.236236e+06
   6.138978e+05  -1.249272e+06
   1.243898e+06  -3.348122e+05
   1.343613e+06   1.046544e+06
   5.957567e+05   1.875097e+06
  -5.901768e+05   1.447365e+06
  -1.286019e+06   4.686365e+04
  -8.614241e+05  -1.222405e+06
   2.984757e+05  -1.393679e+06
   1.083843e+06  -4.965965e+05
   8.165722e+05   5.761352e+05
  -2.820632e+04   1.018539e+06
  -4.283454e+05   8.025156e+05
  -3.817468e+04   4.502293e+05
   4.247708e+05   3.430917e+05
   5.852507e+04   3.888135e+05
  -1.109284e+06   2.489066e+05
  -2.020836e+06  -2.611512e+05
  -1.635357e+06  -9.602802e+05
  -5.108736e+04  -1.387842e+06
   1.490692e+06  -1.158381e+06
   1.793063e+06  -3.631689e+05
   8.609250e+05   3.999185e+05
  -2.183992e+05   5.407295e+05
  -4.898454e+05   7.444035e+04
  -1.906197e+04  -3.793411e+05
   4.582619e+05  -2.580579e+05
   4.815189e+05   3.304727e+05
   2.216524e+05   7.302702e+05
   6.170507e+04   4.796753e+05
   1.402476e+05  -1.320126e+05
   3.080078e+05  -3.403780e+05
   2.878333e+05   2.201669e+05
  -1.416035e+05   1.003704e+06
  -8.665656e+05   1.074202e+06
  -1.294667e+06   1.746098e+05
  -8.147572e+05  -8.924571e+05
   3.854621e+05  -1.100225e+06
   1.213416e+06  -3.212025e+05
   7.395967e+05   5.684131e+05
  -6.711294e+05   6.749070e+05
  -1.608688e+06  -2.713130e+04
  -1.089759e+06  -8.220070e+05
   4.105145e+05  -1.038972e+06
   1.495711e+06  -5.840497e+05
   1.278260e+06   1.228644e+05
   1.721330e+05   5.206662e+05
  -6.350366e+05   3.083932e+05
  -3.758835e+05  -2.686228e+05
   5.920683e+05  -5.149447e+05
   1.180074e+06   8.315589e+04
   6.619685e+05   1.180661e+06
  -5.923395e+05   1.702631e+06
  -1.484875e+06   8.962954e+05
  -1.276133e+06  -7.424944e+05
  -2.438356e+05  -1.800932e+06
   7.093923e+05  -1.339964e+06
   9.398352e+05   1.264500e+05
   4.908222e+05   1.179857e+06
  -1.597828e+05   9.961860e+05
  -5.503421e+05   1.130200e+05
  -5.022528e+05  -3.717942e+05
  -1.953628e+05  -1.414842e+05
  -3.528208e+04   1.055973e+05
  -2.482609e+05  -2.706532e+05
  -5.218823e+05  -9.480193e+05
  -2.534750e+05  -1.082448e+06
   6.686631e+05  -4.203493e+05
   1.498213e+06   4.286377e+05
   1.337520e+06   8.055485e+05
   2.072727e+05   6.898911e+05
  -8.718224e+05   4.410491e+05
  -9.925458e+05   2.188713e+05
  -3.414438e+05  -2.916235e+04
   1.499370e+05  -2.282510e+05
   3.998049e+02  -2.213473e+05
  -2.994166e+05  -1.040025e+05
  -4.166168e+04  -1.341359e+05
   6.909353e+05  -2.427728e+05
   1.046308e+06  -6.143999e+03
   4.074648e+05   6.794283e+05
  -8.426290e+05   1.186057e+06
  -1.666097e+06   7.801417e+05
  -1.391038e+06  -4.142414e+05
  -3.007396e+05  -1.408974e+06
   7.269745e+05  -1.389355e+06
   1.038810e+06  -5.469987e+05
   6.674484e+05   2.317652e+05
   1.309931e+05   3.555480e+05
  -9.339414e+04   5.263229e+04
   7.146161e+04  -3.721429e+04
   3.231000e+05   3.523160e+05
   2.796555e+05   8.032750e+05
  -1.672484e+05   6.800159e+05
  -6.917030e+05  -1.204844e+05
  -7.517898e+05  -9.517592e+05
  -1.160629e+05  -1.029621e+06
   7.642609e+05  -2.459829e+05
   1.050425e+06   7.169159e+05
   3.629071e+05   1.082819e+06
  -7.017314e+05   6.811463e+05
  -1.112211e+06  -5.244666e+04
  -5.349084e+05  -5.843051e+05
   2.690474e+05  -6.658183e+05
   3.511719e+05  -3.728716e+05
  -2.700856e+05  -9.861197e+03
  -6.561274e+05   5.336206e+04
  -1.478153e+05  -3.014143e+05
   8.096938e+05  -7.058096e+05
   1.230187e+06  -5.902928e+05
   7.480806e+05   1.421365e+05
  -7.536024e+04   8.664261e+05
  -5.133307e+05   8.643743e+05
  -4.029978e+05   1.581494e+05
  -5.647176e+04  -4.880283e+05
   2.325390e+05  -4.324133e+05
   3.591143e+05   1.558046e+05
   2.677323e+05   5.729881e+05
  -4.672933e+04   4.140065e+05
  -3.929339e+05  -4.177147e+04
  -4.780039e+05  -2.563834e+05
  -2.452644e+05  -7.916267e+04
   2.903631e+04   1.361123e+05
   8.265954e+04   1.269637e+04
   2.046830e+03  -3.664558e+05
   6.999515e+04  -5.355542e+05
   3.262525e+05  -1.969182e+05
   4.481235e+05   3.892741e+05
   1.447476e+05   6.494454e+05
  -4.099134e+05   3.186855e+05
  -6.632479e+05  -2.738053e+05
  -2.619861e+05  -5.754080e+05
   4.940088e+05  -3.778402e+05
   8.776776e+05   5.929707e+04
   4.860315e+05   3.660939e+05
  -2.839752e+05   3.971921e+05
  -6.308622e+05   2.312679e+05
  -2.381034e+05   2.223459e+04
   3.637739e+05  -6.601762e+04
   4.185925e+05   7.023036e+04
  -1.744211e+05   3.083901e+05
  -7.619189e+05   2.937428e+05
