
 $NMID
 id='ANONYMOUS ', fmtdat='(2E16.6)'
 volume=1.0
 tramp=1.0
 $END
  -3.314567e+07   2.111431e+06
  -2.277827e+07  -1.617007e+07
   1.517382e+05  -2.190456e+07
   1.460030e+07  -1.308982e+07
   1.158672e+07   4.106206e+04
   9.989705e+04   5.981671e+06
  -6.544499e+06   2.000054e+06
  -4.224968e+06  -5.470479e+06
   2.058774e+06  -8.141365e+06
   6.036800e+06  -3.402354e+06
   5.155043e+06   3.847812e+06
   8.809680e+05   6.274769e+06
  -2.813066e+06   1.627579e+06
  -2.358342e+06  -4.817653e+06
   1.870340e+06  -5.931533e+06
   5.341584e+06  -4.157115e+05
   3.996841e+06   6.223200e+06
  -1.326258e+06   7.986808e+06
  -5.992337e+06   4.166836e+06
  -6.495027e+06  -1.258320e+06
  -3.432580e+06  -4.298432e+06
  -1.871767e+05  -4.122895e+06
   4.430040e+05  -2.676585e+06
  -1.276456e+06  -2.313624e+06
  -2.207147e+06  -3.540440e+06
   4.241102e+05  -4.526550e+06
   5.356886e+06  -3.119664e+06
   7.809736e+06   4.362262e+05
   4.776225e+06   3.382945e+06
  -1.001214e+06   3.375533e+06
  -3.869990e+06   9.063343e+05
  -1.678265e+06  -1.518371e+06
   2.296166e+06  -1.881911e+06
   3.772243e+06   1.434320e+04
   2.018425e+06   2.716232e+06
  -5.571324e+05   3.926527e+06
  -1.723350e+06   2.216194e+06
  -1.178006e+06  -1.006831e+06
   1.028578e+04  -2.206324e+06
   4.652961e+05   1.701843e+05
  -5.219900e+05   3.082438e+06
  -2.078755e+06   2.329432e+06
  -2.151407e+06  -1.698287e+06
   1.966397e+05  -4.006002e+06
   3.044404e+06  -1.359107e+06
   3.192066e+06   3.436218e+06
  -2.455802e+05   5.025256e+06
  -4.467227e+06   1.853539e+06
  -5.588418e+06  -2.663938e+06
  -2.426352e+06  -4.506695e+06
   2.360937e+06  -2.841422e+06
   4.711896e+06   2.691361e+05
   2.856518e+06   2.275136e+06
  -1.076539e+06   1.947228e+06
  -3.186267e+06   7.468338e+03
  -1.781992e+06  -1.484557e+06
   9.630564e+05  -1.051381e+06
   1.694659e+06   5.793179e+05
  -1.602787e+05   1.307743e+06
  -1.913630e+06   2.064871e+05
  -1.068076e+06  -1.446032e+06
   1.685927e+06  -1.793745e+06
   3.385816e+06  -3.152412e+05
   2.091384e+06   2.053848e+06
  -1.317101e+06   3.824216e+06
  -4.265421e+06   3.632688e+06
  -4.813187e+06   1.029584e+06
  -3.020545e+06  -2.620759e+06
  -5.743070e+05  -4.744981e+06
   8.108265e+05  -4.036953e+06
   8.658974e+05  -1.955038e+06
   7.252085e+05  -8.735868e+05
   1.394561e+06  -1.101280e+06
   2.491693e+06  -8.476231e+05
   2.725929e+06   8.913118e+05
   1.424664e+06   2.670922e+06
  -7.016060e+05   2.397238e+06
  -2.165845e+06  -2.338719e+03
  -1.843022e+06  -2.440687e+06
   2.021747e+05  -2.871999e+06
   2.573374e+06  -1.097605e+06
   3.425752e+06   1.393307e+06
   2.095764e+06   2.873361e+06
  -1.142921e+05   2.717416e+06
  -1.303635e+06   1.689862e+06
  -1.179058e+06   1.004081e+06
  -1.253772e+06   1.005911e+06
  -2.582490e+06   8.709702e+05
  -4.005109e+06  -3.111089e+05
  -3.377273e+06  -2.332376e+06
  -3.099354e+05  -3.903193e+06
   3.047804e+06  -3.780008e+06
   4.121613e+06  -1.825052e+06
   2.423082e+06   7.757973e+05
  -1.730356e+05   2.250984e+06
  -1.363371e+06   1.638289e+06
  -4.816180e+05  -1.860886e+05
   1.146165e+06  -1.192065e+06
   1.695086e+06  -3.694924e+05
   6.872271e+05   1.042111e+06
  -6.255441e+05   1.084659e+06
  -7.064133e+05  -3.269817e+05
   5.789738e+05  -1.161355e+06
   1.847415e+06   1.564377e+05
   1.635766e+06   2.645879e+06
  -2.365526e+05   3.795674e+06
  -2.580083e+06   2.324921e+06
  -3.786281e+06  -6.053236e+05
  -2.978277e+06  -2.751581e+06
  -7.150056e+05  -2.866771e+06
   1.296003e+06  -1.489958e+06
   1.609671e+06  -1.545256e+05
   4.788364e+05   3.309205e+04
  -3.800413e+05  -7.089233e+05
   2.484884e+05  -1.197215e+06
   1.608515e+06  -6.077886e+05
   1.895326e+06   5.968274e+05
   5.225234e+05   1.208403e+06
  -1.068181e+06   6.548136e+05
  -1.046979e+06  -4.010717e+05
   6.962807e+05  -8.198472e+05
   2.378704e+06  -9.594113e+04
   2.168036e+06   1.272242e+06
   2.737761e+04   2.221645e+06
  -2.246798e+06   1.906123e+06
  -2.736908e+06   4.173635e+05
  -1.198825e+06  -1.089826e+06
   7.653073e+05  -1.320818e+06
   1.311006e+06  -1.943336e+05
   1.249851e+05   9.334479e+05
  -1.407969e+06   7.218063e+05
  -1.711852e+06  -6.145914e+05
  -5.524406e+05  -1.580070e+06
   8.933968e+05  -1.165879e+06
   1.294481e+06   5.147135e+04
   4.256659e+05   6.894988e+05
  -6.715987e+05   1.187302e+05
  -7.051498e+05  -9.689919e+05
   5.610190e+05  -1.366653e+06
   1.947133e+06  -5.215772e+05
   1.970503e+06   9.908581e+05
   4.319432e+05   1.972107e+06
  -1.280859e+06   1.636551e+06
  -1.642956e+06   3.255878e+05
  -5.866679e+05  -7.947113e+05
   5.804039e+05  -8.503339e+05
   7.167961e+05  -7.647956e+04
  -2.664162e+04   5.445722e+05
  -6.294105e+05   4.035082e+05
  -4.188996e+05  -1.238088e+05
   2.962748e+05  -2.064309e+05
   6.259736e+05   4.301930e+05
  -9.434351e+03   1.132153e+06
  -1.261608e+06   9.612439e+05
  -2.039477e+06  -3.073446e+05
  -1.476855e+06  -1.834419e+06
   1.441781e+05  -2.408148e+06
   1.566109e+06  -1.563023e+06
   1.797726e+06  -2.733969e+04
   1.066039e+06   9.869530e+05
   3.793588e+05   9.431304e+05
   2.996776e+05   3.847569e+05
   4.296954e+05   2.026132e+05
   9.279830e+04   6.111836e+05
  -7.623192e+05   9.477691e+05
  -1.448335e+06   4.721777e+05
  -1.195929e+06  -7.131858e+05
   1.078343e+05  -1.606736e+06
   1.674481e+06  -1.225676e+06
   2.286320e+06   3.710054e+05
   1.275632e+06   1.993255e+06
  -7.625464e+05   2.343928e+06
  -2.347690e+06   1.203649e+06
  -2.407177e+06  -4.120198e+05
  -1.207717e+06  -1.285959e+06
   5.798798e+04  -1.135693e+06
   5.138035e+05  -6.861001e+05
   3.069193e+05  -7.038408e+05
   1.802109e+05  -1.118437e+06
   5.692345e+05  -1.164195e+06
   1.174536e+06  -3.144438e+05
   1.301632e+06   1.034551e+06
   5.770556e+05   1.849802e+06
  -5.928215e+05   1.424801e+06
  -1.279069e+06   6.592525e+04
  -8.823288e+05  -1.161697e+06
   2.192327e+05  -1.373193e+06
   9.937348e+05  -5.842880e+05
   8.102683e+05   4.349224e+05
   7.236484e+04   9.408476e+05
  -3.093180e+05   8.201661e+05
   3.074314e+03   4.934445e+05
   3.948295e+05   3.565222e+05
   4.534942e+04   3.894378e+05
  -1.051521e+06   2.691555e+05
  -1.937163e+06  -2.184377e+05
  -1.616691e+06  -9.012389e+05
  -1.293109e+05  -1.323421e+06
   1.380493e+06  -1.130905e+06
   1.740570e+06  -4.147999e+05
   8.850903e+05   3.031483e+05
  -1.708456e+05   4.936034e+05
  -4.608566e+05   1.161601e+05
   9.247780e+02  -3.115054e+05
   4.755476e+05  -2.322775e+05
   4.606516e+05   3.238786e+05
   1.471857e+05   7.272099e+05
  -4.643841e+03   4.677913e+05
   1.499324e+05  -1.773061e+05
   3.630102e+05  -3.906752e+05
   3.014965e+05   2.068915e+05
  -1.706791e+05   1.007760e+06
  -8.451529e+05   1.049445e+06
  -1.188860e+06   1.408267e+05
  -7.228675e+05  -8.695397e+05
   3.698233e+05  -1.019149e+06
   1.137944e+06  -2.564737e+05
   7.136685e+05   5.795517e+05
  -6.432553e+05   6.808803e+05
  -1.619321e+06   1.068830e+04
  -1.169988e+06  -8.007399e+05
   3.410976e+05  -1.090660e+06
   1.504916e+06  -6.743145e+05
   1.331428e+06   7.557597e+04
   2.044908e+05   5.350262e+05
  -6.234814e+05   3.394056e+05
  -3.520826e+05  -2.411531e+05
   6.131946e+05  -4.701697e+05
   1.150901e+06   1.352547e+05
   5.832521e+05   1.184643e+06
  -6.604104e+05   1.640159e+06
  -1.496830e+06   8.260789e+05
  -1.249099e+06  -7.639707e+05
  -2.219986e+05  -1.795303e+06
   7.125143e+05  -1.360242e+06
   9.494849e+05   8.558785e+04
   5.304773e+05   1.170647e+06
  -1.071739e+05   1.029682e+06
  -5.325310e+05   1.391954e+05
  -5.390558e+05  -3.864239e+05
  -2.389622e+05  -1.639481e+05
  -1.957164e+04   1.215358e+05
  -1.818600e+05  -2.264727e+05
  -4.897662e+05  -9.236827e+05
  -3.026647e+05  -1.093144e+06
   5.998822e+05  -4.344051e+05
   1.492003e+06   4.339378e+05
   1.376778e+06   8.110468e+05
   2.117699e+05   6.731960e+05
  -9.117327e+05   4.202579e+05
  -1.004722e+06   2.284148e+05
  -3.018749e+05   4.624679e+03
   1.680416e+05  -2.166167e+05
  -5.074511e+04  -2.549298e+05
  -3.521099e+05  -1.460121e+05
  -1.725879e+04  -1.338983e+05
   7.463094e+05  -2.027286e+05
   1.024226e+06   2.024529e+04
   3.094196e+05   6.519510e+05
  -8.957538e+05   1.118338e+06
  -1.605350e+06   7.153441e+05
  -1.289160e+06  -4.459683e+05
  -2.573008e+05  -1.400646e+06
   7.122044e+05  -1.346804e+06
   1.023930e+06  -4.893742e+05
   6.611491e+05   2.703541e+05
   1.004946e+05   3.481994e+05
  -1.394430e+05   8.521041e+03
   5.744548e+04  -7.952352e+04
   3.462398e+05   3.372126e+05
   2.917520e+05   7.998968e+05
  -1.837955e+05   6.552957e+05
  -6.878004e+05  -1.692286e+05
  -6.891164e+05  -9.830580e+05
  -3.719527e+04  -1.001286e+06
   7.839729e+05  -1.713407e+05
   9.998097e+05   7.701241e+05
   3.063564e+05   1.063587e+06
  -7.036937e+05   6.186545e+05
  -1.065376e+06  -7.835445e+04
  -4.935874e+05  -5.394456e+05
   2.621907e+05  -6.024449e+05
   3.031982e+05  -3.583310e+05
  -3.138113e+05  -4.066333e+04
  -6.597894e+05   3.407759e+04
  -1.254811e+05  -2.861685e+05
   8.086037e+05  -6.924594e+05
   1.182172e+06  -6.113020e+05
   6.898775e+05   1.017944e+05
  -8.772671e+04   8.316728e+05
  -4.691636e+05   8.305390e+05
  -3.421253e+05   1.207364e+05
  -1.843071e+04  -4.988820e+05
   2.406203e+05  -3.934521e+05
   3.477786e+05   2.049381e+05
   2.481302e+05   5.691478e+05
  -5.831973e+04   3.630646e+05
  -3.816163e+05  -6.716976e+04
  -4.556696e+05  -2.249320e+05
  -2.441154e+05  -5.232866e+04
   8.501757e+03   9.485433e+04
   9.147266e+04  -6.190436e+04
   7.661817e+04  -3.817214e+05
   1.615769e+05  -4.619475e+05
   3.414563e+05  -9.939804e+04
   3.652031e+05   4.370310e+05
   4.852489e+04   6.373019e+05
  -4.291131e+05   2.809332e+05
  -6.132412e+05  -3.066208e+05
  -2.223959e+05  -5.863915e+05
   4.773709e+05  -3.596800e+05
   8.327496e+05   8.945257e+04
   4.587017e+05   3.676455e+05
  -2.812547e+05   3.512552e+05
  -6.061915e+05   1.756901e+05
  -1.964263e+05   1.562544e+04
   4.060526e+05  -1.325015e+04
   4.237712e+05   1.321962e+05
  -2.242019e+05   3.263060e+05
  -8.248084e+05   2.644678e+05
