
 $NMID
 id='ANONYMOUS ', fmtdat='(2E16.6)'
 volume=1.0
 tramp=1.0
 $END
   2.565348e+03   2.272482e+01
   1.787170e+03   1.159668e+03
   2.619229e+02   1.802334e+03
  -9.039659e+02   1.428311e+03
  -1.001517e+03   5.045053e+02
  -3.489252e+02  -2.658447e+00
   2.460836e+02   4.385756e+01
   1.510245e+02   3.549353e+02
  -3.344397e+02   5.102274e+02
  -4.502026e+02   1.946862e+02
  -3.985693e+02  -3.640600e+02
  -1.316188e+02  -5.670715e+02
   1.670759e+02  -2.484745e+02
   2.191183e+02   2.474267e+02
  -3.101191e+01   4.793101e+02
  -2.208493e+02   1.436651e+02
  -2.945893e+02  -3.792472e+02
   2.724492e+01  -5.907851e+02
   4.187294e+02  -3.540318e+02
   5.028474e+02   2.866984e+01
   2.176539e+02   2.765902e+02
  -2.928148e+01   2.935452e+02
  -1.461824e+01   1.383519e+02
   1.672868e+02   2.127508e+02
   2.303218e+02   2.857607e+02
  -8.238578e+01   2.543462e+02
  -4.348727e+02   6.755562e+01
  -4.555388e+02  -1.843648e+02
  -1.531691e+02  -2.720008e+02
   2.438683e+02  -1.654727e+02
   4.046777e+02   1.441527e+02
   1.640075e+02   2.681978e+02
  -2.130066e+02   2.510906e+02
  -3.286671e+02   1.319642e+02
  -2.469058e+02  -1.462481e+02
  -1.430131e+02  -2.297358e+02
  -4.464246e+01  -1.527687e+02
  -1.129154e+02  -5.607885e+01
  -1.391735e+02   5.230254e+01
  -3.818962e+01  -1.329360e+02
   7.656883e+01  -3.293635e+02
   2.015795e+02  -2.967631e+02
   2.169539e+02  -2.432935e+01
   7.432844e+01   1.776291e+02
  -8.245577e+01   1.156344e+02
  -1.067194e+02  -1.766179e+02
   9.601132e+01  -2.646708e+02
   3.686838e+02  -4.913431e+01
   4.323071e+02   3.175983e+02
   1.591004e+02   3.924555e+02
  -2.643692e+02   2.824323e+02
  -4.586177e+02  -6.187187e+01
  -3.604484e+02  -2.351621e+02
  -8.084723e+00  -1.914193e+02
   2.104958e+02  -1.114679e+02
   2.000620e+02  -5.572056e+01
   7.341960e+01  -3.237723e+01
  -3.105492e+00  -7.619772e+00
   1.312731e+02  -1.392634e+01
   2.039224e+02   4.409442e+01
   7.894493e+01   1.740038e+02
  -2.040131e+02   2.412821e+02
  -3.357114e+02   1.748208e+02
  -2.324179e+02  -1.343459e+02
   7.588695e+00  -3.618673e+02
   2.850185e+02  -3.535344e+02
   3.633507e+02  -1.115844e+02
   1.931342e+02   1.210059e+02
   2.024795e+01   3.091408e+02
   5.753397e+00   2.947916e+02
   5.895978e+01   2.040664e+02
  -3.767745e+01   1.459853e+02
  -1.772261e+02   1.322429e+02
  -2.313027e+02   2.495389e+01
  -2.200977e+02  -1.215088e+02
  -7.171620e+01  -2.409424e+02
   1.105591e+02  -1.503500e+02
   1.514028e+02   1.043321e+01
   1.559393e+02   2.201626e+02
  -2.952880e+00   2.272515e+02
  -1.729329e+02   7.964359e+01
  -3.208791e+02  -1.305812e+02
  -1.787832e+02  -1.922000e+02
   6.705994e+00  -2.125602e+02
   7.277359e+01  -1.513244e+02
   1.156730e+02  -1.885562e+02
   1.587139e+02  -1.266017e+02
   2.879238e+02  -5.119998e+01
   4.251549e+02   8.385268e+01
   3.081656e+02   3.399882e+02
  -4.012022e+01   4.459528e+02
  -3.689990e+02   3.749951e+02
  -4.233324e+02   1.576787e+02
  -2.608688e+02  -7.231611e+01
  -5.250531e+01  -2.296683e+02
   4.503593e+01  -1.866287e+02
   2.616859e+01  -2.533150e+01
  -1.494763e+02   2.420936e+01
  -1.035274e+02  -2.851399e+01
   3.169571e+01  -1.161351e+02
   8.389495e+01  -9.635349e+01
   9.699864e+01   4.044387e+01
  -3.348188e+01   1.139694e+02
  -1.108577e+02  -1.405232e+01
  -1.231297e+02  -2.170102e+02
   1.986203e+01  -3.084913e+02
   2.597772e+02  -1.731114e+02
   3.343514e+02   8.349467e+01
   2.507295e+02   2.367957e+02
   7.188408e+01   2.177040e+02
  -1.230043e+02   1.170566e+02
  -1.533224e+02   1.461704e+01
  -2.865867e+01  -1.181298e+00
   5.435740e+01   2.192587e+01
   2.231802e+01   1.059638e+02
  -1.249455e+02   5.110712e+01
  -1.426542e+02   1.482788e+01
  -4.205783e+01  -3.613501e+01
   7.583447e+01   2.094621e+01
   4.577563e+01   1.042654e+02
  -1.493552e+02   8.360023e+01
  -2.925889e+02   9.693680e+00
  -2.184516e+02  -1.237469e+02
  -2.324892e+01  -2.600733e+02
   2.083651e+02  -2.083009e+02
   2.659641e+02  -6.465864e+01
   8.333674e+01   1.392288e+01
   1.571111e+00   7.272254e+01
  -3.612671e+01   5.114865e+01
   5.918637e+01  -1.200215e+01
   1.672395e+02   1.738447e+01
   1.129446e+02   9.139302e+01
   2.725114e+01   1.571391e+02
  -1.069754e+02   6.307429e+01
  -8.789550e+01   3.134636e+01
   8.216214e+00  -4.968506e+01
   2.785903e+01  -8.250645e-01
   1.190349e+00   1.111040e+02
  -8.274126e+01   1.207392e+02
  -1.448449e+02   1.559681e+01
  -1.430401e+02  -1.381837e+02
  -4.440770e+01  -1.966428e+02
   1.934749e+02  -1.821061e+02
   1.312122e+02  -3.317599e+01
   3.782660e+01   1.477079e+02
  -1.845893e+01   1.107542e+02
  -3.410171e+01   2.822833e+01
   2.832777e+01  -3.706716e+01
   7.486482e+01   8.490891e+00
  -8.490256e+00   2.133429e+00
  -9.432957e+01  -3.169067e+01
  -1.118418e+02  -6.422042e+01
   1.453211e+01  -2.012658e+02
   1.233184e+02  -1.315012e+02
   2.344421e+02   4.629126e+01
   1.941350e+02   1.155353e+02
  -3.802892e+00   2.088058e+02
  -7.559901e+01   2.054644e+02
  -1.257795e+02   9.620950e+00
  -1.029920e+02  -1.022386e+02
  -9.752086e+01  -4.258320e+01
  -1.038108e+02   1.567029e+01
  -7.859946e+01   1.266538e+01
  -4.895867e+01  -1.243000e+01
   5.289756e+01  -1.645026e+02
   8.642401e+01  -1.244011e+02
   1.109076e+02   7.405441e+01
  -6.472839e+01   1.287925e+02
  -1.670223e+02   8.032118e+01
  -1.932474e+02  -5.809202e+01
   7.128001e+00  -1.987575e+02
   1.414123e+02  -1.883431e+02
   2.241567e+02  -3.559655e+01
   3.038468e+02   1.331944e+02
   1.259497e+02   1.741969e+02
  -2.471605e+01   1.551039e+02
  -6.835588e+01   8.887231e+01
  -8.345505e+01   4.961432e+01
  -3.981151e+01   1.141862e+02
  -7.136473e+01   7.911714e+01
  -1.115387e+02  -2.644274e+01
  -1.415728e+02  -1.509545e+02
  -4.342734e+01  -2.494642e+02
   9.799323e+01  -1.691739e+02
   1.806893e+02  -1.408521e+01
   1.546942e+02   1.045793e+02
   4.066672e+01   9.515844e+01
  -1.113907e+02   8.790968e+01
  -6.076650e+01  -6.379805e+00
   9.706985e-01  -1.029500e+02
   3.259812e+01  -5.819133e+01
  -2.797498e+01  -1.458874e+01
  -8.817771e+01  -2.019329e+01
  -3.306217e+01  -1.003967e+02
   3.797801e+01  -5.585322e+01
   2.281554e+02  -4.341221e+00
   1.327065e+02   5.114028e+01
  -9.564194e+00   4.799191e+01
  -1.091529e+02   6.904095e+01
  -1.260072e+02   5.499613e+01
  -5.012952e+01  -2.326106e+01
   4.385962e+01  -2.861115e+01
   6.748633e+01  -2.703717e+01
   8.020891e+00   5.446509e+01
  -6.280380e+01   6.512386e+01
  -7.449728e+01   5.208586e+01
  -7.212814e+01  -2.689320e+01
  -8.323480e+01  -2.884379e+01
  -5.015277e+01  -2.849040e+01
  -5.504511e+01  -3.061114e+01
  -7.197301e+01  -8.863500e+01
   6.560662e+01  -1.195504e+02
   1.254490e+02  -1.654635e+02
   2.001284e+02  -5.293069e+01
   1.578463e+02   9.398868e+01
  -2.963676e+00   7.174321e+01
  -1.722177e+01   6.305289e+01
  -3.132992e+01   4.532230e+00
   8.236104e+01   5.803108e+01
   1.287571e+02   8.204890e+01
   3.923730e+01   1.285547e+02
  -8.395947e+01   1.243315e+02
  -1.915864e+02   5.142567e+01
  -1.711879e+02  -5.352069e+01
  -8.078727e+01  -9.162949e+01
   4.150092e+01  -6.008289e+01
   5.231699e+01   3.463797e+01
  -6.576011e+01  -6.419627e-01
  -9.576085e+01  -4.672046e+01
  -1.629926e+01  -1.400170e+02
   7.157071e+01  -1.816228e+02
   1.632470e+02  -7.748342e+01
   1.018102e+02   6.932244e+01
   3.276554e-01   1.602676e+02
  -5.026230e+01   1.282259e+02
  -9.835277e+01  -1.659120e+01
  -6.135867e+01  -1.025959e+02
   2.617721e+01  -7.348591e+01
   3.704237e+01   1.672816e+01
   4.207316e+01   6.960941e+01
   2.749755e+01   1.990720e+01
   1.468284e+01   2.844003e+00
  -1.342269e+01   4.859485e+01
   7.996874e+01   7.079701e+01
   5.529303e+01   7.544670e+01
  -4.583116e+01   1.286092e+00
  -7.264870e+01  -3.406725e+01
  -1.234920e+02  -3.788863e+01
  -3.738374e+01  -4.885142e+01
   3.921416e+01  -2.294112e+01
   9.589005e+01  -6.253384e+01
   3.215400e+01   1.892180e+01
  -3.984801e+01   4.860000e+01
   3.735027e+00  -1.484712e+01
   2.865313e+01  -2.491521e+01
  -1.781265e+01  -1.307975e+01
  -7.934118e+01  -7.599039e+00
  -1.078387e+02  -2.373037e+00
  -1.408687e+01  -7.070928e+01
   1.634911e+02  -1.612533e+02
   2.006559e+02  -9.403177e+01
   9.576831e+01   6.644540e+01
  -4.383181e+00   1.435826e+02
  -9.262663e+01   1.189321e+02
  -8.728881e+01   8.211102e+01
  -1.009120e+01   8.103159e+00
  -3.783877e+01  -5.489696e+00
  -4.033843e+01  -1.265426e+01
  -4.668989e+00  -5.184781e+01
  -3.528013e+01  -5.405583e+01
  -3.047906e+01  -1.194862e+02
  -2.295108e+00  -9.361049e+01
   5.109876e+01   2.824885e+01
   1.103759e+02   1.018668e+02
   6.641739e+01   1.091289e+02
  -6.822653e+01   1.480885e+01
  -1.287312e+02  -5.507340e+01
  -1.225334e+01  -1.108883e+02
   5.708623e+01  -4.299433e+01
   1.347552e+02   2.397299e+01
   2.969674e+01   4.691295e+01
  -2.296885e+01   9.259620e+01
  -2.380890e+01   5.858139e+01
  -1.194679e+01   5.752091e+00
   8.958009e+01   1.751357e+01
  -2.124031e+01  -7.902258e+00
  -6.173330e+01   4.360234e+01
  -1.056437e+02   6.779309e+01
  -3.551436e+01  -5.351277e+01
   1.018297e+01  -6.275354e+01
   5.793364e+01  -7.961856e+01
   2.693232e+01   1.516081e+01
   1.840427e+00   6.370354e+01
  -3.264604e+01   2.791205e+01
   1.320205e+00  -5.626375e+01
   8.925667e+00  -8.293323e+01
   1.407089e+01  -7.391731e+01
   3.795029e+01   1.529280e+01
   7.395931e+01   4.389674e+01
   2.296715e+00  -5.214867e+00
  -1.824125e+01  -7.369795e+00
  -5.888613e+00  -3.818159e+01
   2.092299e+01   9.676037e+00
   5.310926e+01   9.670615e+00
  -2.724128e+01   2.720169e+01
  -4.487738e+01  -8.668700e+00
  -4.867634e+01  -4.269856e+01
  -2.191519e+01   4.792388e+01
   3.796302e+01   3.360796e+01
   2.378185e+01   1.921386e+01
  -6.290751e+01  -7.657873e+00
  -8.727329e+01  -4.311878e+00
  -4.547778e+01  -2.532645e+01
   5.621365e+01  -1.384403e+01
   2.331173e+01  -1.257878e+01
  -1.498837e+01   3.351490e-01
  -1.655906e+01   3.029204e+00
  -4.671818e+00   5.128572e+00
   1.845340e+01   3.191072e+01
   6.725887e+01   7.722852e+00
