
 $NMID
 id='ANONYMOUS ', fmtdat='(2E16.6)'
 volume=1.0
 tramp=1.0
 $END
   4.122397e+03   3.107099e+02
   2.433110e+03   2.534926e+03
  -6.064697e+02   2.645245e+03
  -1.926833e+03   9.987786e+02
  -9.789550e+02  -5.402785e+02
   5.706076e+02  -5.445345e+02
   8.637260e+02   3.209593e+02
  -6.103726e+01   1.043821e+03
  -8.215755e+02   7.540089e+02
  -9.487284e+02  -4.534464e+01
  -4.301908e+02  -7.903549e+02
   1.540346e+02  -8.963165e+02
   5.798709e+02  -1.885215e+02
   2.594476e+02   7.548056e+02
  -3.826932e+02   7.758519e+02
  -5.776972e+02  -2.559124e+01
  -1.803684e+02  -7.730880e+02
   2.969754e+02  -6.403964e+02
   6.152915e+02  -1.467968e+02
   3.540626e+02   4.656183e+02
   3.645226e+01   4.082690e+02
  -2.690414e+02   2.674064e+02
  -2.065140e+02  -6.522653e+00
   1.556619e+02  -4.616419e+01
   4.769809e+02   1.428904e+02
   1.466508e+02   4.751448e+02
  -5.363632e+02   3.573939e+02
  -8.928394e+02  -1.390214e+02
  -3.980235e+02  -5.382725e+02
   3.924926e+02  -3.940123e+02
   6.817943e+02   8.576396e+00
   3.547064e+02   4.490283e+02
  -2.386815e+02   4.965306e+02
  -5.721342e+02   2.706696e+02
  -4.274216e+02  -2.316291e+02
  -5.676625e+01  -4.597100e+02
   1.391752e+02  -2.642535e+02
   1.129944e+02   2.172067e+02
  -1.354493e+02   4.197421e+02
  -3.816247e+02  -3.809004e+01
  -2.432086e+02  -7.170452e+02
   3.140197e+02  -7.178836e+02
   6.057675e+02  -2.106352e+01
   3.239415e+02   6.013147e+02
  -3.513392e+02   3.470521e+02
  -4.249109e+02  -3.576310e+02
   7.561594e+01  -5.972639e+02
   6.133041e+02  -1.115139e+02
   6.340117e+02   4.631997e+02
   1.373363e+02   5.776064e+02
  -3.949313e+02   2.807540e+02
  -6.445549e+02  -1.258526e+02
  -3.471323e+02  -4.171323e+02
   1.747869e+02  -3.272460e+02
   4.258600e+02  -1.366012e+01
   2.210612e+02   1.852921e+02
  -1.281389e+02   7.229058e+01
  -1.283992e+02  -1.753588e+02
   1.708029e+02  -1.547836e+02
   3.434790e+02   8.318323e+01
   1.116008e+02   3.256353e+02
  -2.542257e+02   2.449840e+02
  -3.073691e+02   2.879960e+01
  -2.086560e+02  -5.154564e+01
   5.290109e+01  -2.250577e+02
   2.540857e+02  -3.220557e+02
   3.366549e+02  -2.037604e+02
   2.194825e+02   1.770690e+02
   3.884862e+01   4.295000e+02
  -1.147872e+02   3.711177e+02
  -9.172056e+01   1.175805e+02
  -3.127806e+01   1.428109e+01
  -3.278666e+01   1.376246e+02
  -2.429553e+02   1.309703e+02
  -3.087024e+02  -1.397159e+02
  -1.303757e+02  -2.900703e+02
   6.715833e+01  -2.594659e+02
   2.476220e+02  -5.229752e+01
   1.896839e+02   2.114076e+02
   1.787436e+01   2.621631e+02
  -2.550182e+02   8.626470e+01
  -3.051263e+02  -1.651581e+02
  -1.915528e+02  -3.300065e+02
   1.135678e+02  -2.968359e+02
   2.069343e+02  -9.400159e+01
   1.116660e+02   1.790726e+01
   8.075981e+01  -4.168593e+01
   2.552717e+02  -7.427830e+01
   3.788004e+02   6.175397e+01
   3.215669e+02   2.707254e+02
   2.050864e+01   4.150477e+02
  -3.268066e+02   4.097471e+02
  -4.794470e+02   1.991084e+02
  -2.591215e+02  -7.042430e+01
  -2.465224e+01  -2.479856e+02
   9.721828e+01  -2.050923e+02
   9.443046e+01  -3.466315e+01
  -1.375232e+02   9.646441e+01
  -2.042472e+02  -4.573558e+01
  -4.740348e+01  -1.897777e+02
   1.538279e+02  -1.845222e+02
   1.613872e+02   5.145452e+01
  -4.192154e+01   1.208983e+02
  -1.899479e+02   4.343302e+01
  -1.532040e+02  -3.174509e+02
   9.759059e+01  -3.444778e+02
   2.686447e+02  -1.946451e+02
   3.215445e+02   9.941754e+01
   2.641379e+02   2.279386e+02
   1.380951e+02   2.777794e+02
  -1.228631e+02   1.825146e+02
  -1.981113e+02   2.384188e+01
  -7.471901e+01   3.389633e+00
   8.447999e+01   4.622839e+01
  -1.711326e+00   1.027324e+02
  -1.326640e+02   6.796051e+01
  -1.876829e+02   8.091213e-01
  -5.024606e+01  -6.096001e+01
   1.010414e+02  -1.488695e+01
   4.669307e+01   5.077147e+01
  -1.186487e+02   6.235710e+01
  -2.492931e+02   5.835682e-01
  -2.232791e+02  -1.252607e+02
  -2.950999e+01  -2.449095e+02
   1.803956e+02  -2.378299e+02
   2.828872e+02  -1.282265e+02
   1.696762e+02   1.076293e+02
  -7.765455e+01   1.058087e+02
  -7.801376e+01   6.690319e-01
   3.389892e+01  -8.406734e+01
   2.030670e+02  -7.466921e+01
   1.445373e+02   8.200804e+01
   1.558030e+01   1.684431e+02
  -9.750284e+01   1.379679e+02
  -1.497209e+02   1.472244e+01
  -4.658404e+01  -5.399349e+01
   8.127708e+01   3.878309e+00
   8.061071e+01   8.380353e+01
  -8.927639e+01   1.128509e+02
  -1.793823e+02   2.687873e+01
  -1.749583e+02  -1.239281e+02
   2.011053e+01  -1.970721e+02
   1.821341e+02  -1.124063e+02
   1.198155e+02   3.713376e+01
   6.244223e+01   1.507807e+02
  -6.251053e+01   7.968781e+01
  -1.058905e+02   2.753427e+01
  -1.789468e+01  -6.612373e+01
   4.124859e+00  -5.116357e+01
   6.531842e+01  -4.520845e+01
  -7.565660e+01  -2.261044e+00
  -1.008487e+02   3.489597e-01
  -3.677730e+01  -1.354262e+02
   1.388012e+02  -1.420001e+02
   2.520522e+02  -2.647787e+01
   1.637189e+02   1.410380e+02
   5.474330e+00   2.595076e+02
  -1.258839e+02   1.415814e+02
  -9.760126e+01   3.868511e+01
  -5.363111e+01  -4.716616e+01
  -2.587122e+01  -3.435987e+01
  -2.909255e+01   4.303363e+00
  -1.130982e+02   1.190210e+01
  -6.351585e+01  -6.039963e+01
   2.361823e+01  -7.204123e+01
   9.827387e+01  -4.863880e+01
   7.520088e+01   2.789088e+01
   3.207413e+01   1.174416e+02
  -1.625017e+02   7.775574e+01
  -2.371517e+02  -1.095166e+01
  -7.587811e+01  -1.741516e+02
   1.411196e+02  -2.195809e+02
   2.727409e+02  -1.130409e+02
   2.182535e+02   5.716027e+01
   1.423387e+02   1.343093e+02
  -4.062654e+01   1.663922e+02
  -1.046071e+02   7.851595e+01
  -6.111346e+01   7.054323e+01
  -6.497574e+00   5.788581e+01
  -8.625832e+01   7.328502e+01
  -1.749349e+02  -5.478611e+01
  -9.873973e+01  -1.505211e+02
  -5.039849e+01  -1.851968e+02
   1.263820e+02  -1.595427e+02
   1.461030e+02  -4.464833e+01
   1.339988e+02   1.338384e+02
  -5.668939e+00   1.519122e+02
  -6.476873e+01   1.008571e+02
  -2.721911e+01   4.750179e+00
   4.835548e+01   1.192260e+01
   1.510825e+01  -4.169153e+00
  -5.098822e+01  -2.463779e+01
  -9.122775e+01   1.948704e+01
  -5.406141e+01  -1.197921e+01
   3.649523e+01  -3.074466e+01
   1.605760e+02  -4.663923e+01
   1.366205e+02   3.019918e+00
   3.207567e+01   7.001750e+01
  -8.736798e+01   3.271639e+01
  -1.467894e+02   2.928092e+01
  -3.680778e+01  -2.086081e+01
   7.899423e+01  -3.149895e+01
   8.388573e+01   7.974551e+00
  -7.645869e+00   1.125445e+02
  -4.887716e+01   6.578731e+01
  -7.247376e+01   4.630175e+01
  -4.251768e+01  -6.009898e+01
  -4.035230e+01  -6.638478e+01
  -6.124785e+01  -3.861419e+01
  -9.884658e+01   5.629672e+00
  -3.379928e+01  -8.002149e+01
   7.595380e+01  -1.521379e+02
   8.920712e+01  -1.019809e+02
   2.152236e+02  -4.801830e+01
   1.180365e+02   5.824204e+01
   2.327801e+01   1.137267e+02
  -7.750607e+01   7.397804e+01
  -6.044639e+01  -4.075750e+01
   7.217961e+01  -3.007773e+01
   1.002878e+02   9.650100e+01
   1.987396e+01   1.386244e+02
  -7.750395e+01   1.065288e+02
  -1.945276e+02   6.609845e+01
  -1.500610e+02  -6.694844e+01
  -3.696366e+01  -7.019434e+01
   3.996560e+01  -6.386295e+01
   1.461802e+01   2.333360e+01
  -6.510632e+01  -1.155584e+01
  -9.429047e+01  -4.806359e+01
   2.050324e+01  -9.974703e+01
   9.420236e+01  -1.070559e+02
   1.450426e+02  -3.190278e+01
   1.174856e+02   8.519200e+01
  -4.481977e+01   1.701644e+02
  -7.805031e+01   1.200266e+02
  -4.090751e+01   3.658144e+01
  -6.518136e+01  -7.829534e+01
  -3.257235e-01  -1.050156e+02
   6.121644e+01  -5.664986e+01
   8.712636e+01   2.842380e+01
   3.261027e+01   2.725089e+01
   1.819454e+01   3.676064e+01
   4.453325e+01   6.616587e+01
   3.070211e+01   6.140184e+01
   3.366425e+01   9.765735e+01
  -7.072194e+01   6.007079e+01
  -1.446409e+02  -2.115187e+01
  -1.027984e+02  -8.493550e+01
  -4.453787e+01  -4.403223e+01
   1.260092e+02  -1.396039e+01
   8.321594e+01   6.284273e-01
   3.343911e+01  -6.231944e+00
  -4.869639e+01   3.764027e+01
  -5.981716e+01   1.603166e+01
   3.687061e+01   6.180034e+00
  -3.355763e+00  -2.713282e+01
  -6.065158e+01   3.283299e+01
  -8.147827e+01  -1.817529e+01
  -9.718847e+00  -1.130447e+02
   1.210313e+02  -9.942733e+01
   2.030750e+02  -6.971495e+01
   1.268642e+02   5.078119e+01
   3.355227e+01   1.518970e+02
  -7.473116e+01   1.330112e+02
  -5.583727e+01   9.905315e+01
  -8.142562e+01   2.695497e+00
  -1.999064e+01  -5.253268e+01
  -1.752460e+01  -2.787142e+00
  -3.063698e+01  -4.206535e+01
  -6.497820e+01   1.303759e+01
  -2.599313e+01  -7.854136e+01
   2.931189e+01  -2.640746e+01
   1.019833e+02  -1.891644e+01
   4.268910e+01   9.180271e+01
   1.880833e+01   7.151449e+01
  -5.662951e+01   3.030278e+01
  -8.280666e+01  -5.084894e+01
  -5.237229e+01  -4.926750e+01
   5.261953e+01  -9.338223e+01
   7.865006e+01   2.064939e+01
  -1.812798e+01   7.137201e+01
   2.279668e+00   7.824369e+01
  -5.829911e+01   9.544295e+00
   5.751563e-01  -2.583173e+01
   4.058846e+01  -2.938304e+01
   2.018913e+01   1.244891e+00
  -3.758760e+01   5.073243e+01
  -1.079087e+02   7.759244e+01
  -6.166112e+01  -1.058798e+01
   2.326420e+01  -9.215032e+01
   3.784603e+01  -1.014506e+02
  -1.844524e+01  -2.951794e+00
  -1.247860e+01   8.036993e+01
  -3.690258e+00   4.965368e+01
  -3.977707e+01  -3.714893e+01
  -5.758412e+01  -5.542151e+01
   2.279223e+01  -1.104340e+01
   7.855684e+00   2.428715e+01
   7.089527e+01   2.513733e+01
   7.915590e+00   1.572019e+01
   1.028209e+01  -4.173246e+01
   1.271797e+01  -5.575760e-01
  -1.633165e+01   8.600800e+01
   2.312873e+01   4.739162e+01
  -5.702549e+01   3.570045e+01
  -5.889924e+01  -1.240528e+01
  -6.640554e+00  -9.408473e+01
   3.550118e+01  -1.498322e+01
   6.999411e+01   6.065158e+01
   2.911371e+01   5.598233e+01
  -9.770118e+01   5.434296e+01
  -1.153690e+02  -1.176412e+01
  -8.885617e+01  -6.405767e+01
   2.359540e+01  -2.223013e+01
   2.351582e+01  -3.859357e+00
   3.934731e+01   4.993474e+01
  -3.964060e+01  -8.985515e-01
   3.771148e+00   1.939139e+00
   3.491350e+01   3.365302e+01
   9.273871e+01   1.217656e+01
