
 $NMID
 id='ANONYMOUS ', fmtdat='(2E16.6)'
 volume=1.0
 tramp=1.0
 $END
  -3.350288e+03  -4.761302e+01
  -2.348536e+03  -1.778960e+03
  -1.194823e+02  -2.230229e+03
   1.345311e+03  -1.497629e+03
   1.049619e+03  -3.845636e+02
   2.250018e+02   2.158324e+02
  -3.588977e+02  -4.312988e+01
   4.983579e+01  -5.602541e+02
   5.392709e+02  -6.624123e+02
   7.671942e+02  -1.450071e+02
   5.288708e+02   4.856238e+02
   8.580219e+01   7.130551e+02
  -3.385682e+02   1.930111e+02
  -2.859922e+02  -4.005649e+02
   6.266849e+01  -6.627409e+02
   3.694132e+02  -1.927033e+02
   3.222843e+02   4.918248e+02
  -1.209303e+02   6.720568e+02
  -5.076640e+02   2.828917e+02
  -4.989302e+02  -2.123629e+02
  -9.820806e+01  -4.098540e+02
   1.307321e+02  -2.484688e+02
   1.115765e+02  -1.171028e+02
  -1.780178e+02  -4.906587e+01
  -3.269427e+02  -2.263994e+02
   1.133869e+00  -4.328675e+02
   4.720240e+02  -2.446948e+02
   6.923606e+02   1.016302e+02
   2.608863e+02   3.128121e+02
  -2.744558e+02   3.132054e+02
  -5.076901e+02  -3.710292e+01
  -1.967697e+02  -2.885488e+02
   2.551206e+02  -3.519135e+02
   3.586491e+02  -1.728011e+02
   3.254479e+02   5.809898e+01
   9.216655e+01   2.634746e+02
  -1.730695e+01   2.104581e+02
   3.891729e+01  -6.107940e+01
   1.275386e+02  -2.198005e+02
   2.174866e+02   1.233284e+02
   9.354336e+01   5.032774e+02
  -1.836726e+02   4.979635e+02
  -3.365836e+02   3.829163e+01
  -2.358147e+02  -2.947770e+02
   9.290260e+01  -1.308533e+02
   1.136101e+02   1.960487e+02
  -4.939009e+01   3.918166e+02
  -3.955751e+02   1.040021e+02
  -4.831148e+02  -3.080201e+02
  -2.256626e+02  -5.175611e+02
   3.020368e+02  -3.189092e+02
   5.857451e+02  -1.884192e+01
   3.850711e+02   2.134101e+02
   2.942953e+01   2.755943e+02
  -3.176992e+02   8.877628e+01
  -2.715084e+02   9.039296e+00
  -2.139159e+01  -1.788102e+01
   6.831852e+01   3.499079e+01
  -1.017184e+02   5.229856e+01
  -2.356753e+02  -7.362570e+01
  -1.287842e+02  -1.586878e+02
   1.523834e+02  -2.577126e+02
   3.240459e+02  -1.225821e+02
   3.101573e+02   2.789322e+01
   2.630978e+00   2.853504e+02
  -3.103193e+02   4.078321e+02
  -3.673926e+02   2.177295e+02
  -2.434501e+02  -1.599815e+02
  -8.227792e+01  -3.715265e+02
  -1.519614e+00  -3.441784e+02
  -3.186836e+01  -2.135156e+02
   5.180470e+01  -8.410602e+01
   1.355594e+02  -1.267257e+02
   2.527375e+02  -5.950066e+01
   2.676464e+02   1.000523e+02
   1.166499e+02   2.762283e+02
  -1.415491e+02   1.672475e+02
  -2.414566e+02  -6.475717e+01
  -1.804293e+02  -2.531284e+02
   8.982513e+01  -2.419426e+02
   2.585567e+02  -2.649621e+01
   3.644710e+02   1.179157e+02
   2.035521e+02   2.863976e+02
   9.080427e-01   2.281463e+02
  -1.782891e+02   1.240433e+02
  -1.361307e+02   1.030727e+02
  -1.329584e+02   1.049430e+02
  -2.800555e+02   7.815693e+01
  -4.252372e+02  -1.088803e+02
  -3.178974e+02  -3.043974e+02
  -1.824547e+00  -4.699044e+02
   3.789472e+02  -4.000903e+02
   4.371248e+02  -1.328618e+02
   2.896764e+02   1.137619e+02
   8.588038e+00   2.585908e+02
  -4.271986e+01   1.958550e+02
   1.879020e+01   4.009643e-01
   1.049220e+02  -6.096003e+00
   8.052225e+01   1.494690e+00
  -4.996824e+01   1.850600e+02
  -1.138128e+02   8.048315e+01
  -1.094220e+02  -1.815739e+01
   7.886068e+01  -1.624334e+02
   2.043843e+02  -3.660670e+00
   1.482836e+02   2.183023e+02
  -4.117873e+01   3.151698e+02
  -2.359424e+02   2.298258e+02
  -3.862642e+02  -7.399222e+01
  -2.745717e+02  -2.422935e+02
  -1.581421e+01  -2.386669e+02
   1.704072e+02  -9.723030e+01
   1.820635e+02  -4.270958e+01
   6.292001e+01   3.611142e+01
  -4.223608e+01  -5.804979e+01
   1.628236e+00  -1.072138e+02
   1.168233e+02  -4.455561e+01
   1.462043e+02   3.795497e+01
   9.631480e+00   7.142938e+01
  -5.193945e+01   1.992250e+01
  -1.378234e+01  -1.289230e+02
   1.133384e+02  -1.099647e+02
   3.144372e+02   1.012363e+00
   2.536945e+02   1.925191e+02
   4.293564e+01   2.943958e+02
  -2.164781e+02   2.839231e+02
  -2.352715e+02   1.116079e+02
  -1.465542e+02  -5.319484e+01
   2.114299e+01  -7.600188e+01
   4.855641e+01   9.736866e-01
  -4.266736e+01   1.178047e+02
  -2.041116e+02   4.343367e+01
  -2.089847e+02  -9.565509e+01
  -7.270908e+01  -1.849578e+02
   8.717905e+01  -1.693381e+02
   1.128583e+02   1.366748e+01
   7.635707e+01   5.802561e+01
   3.014943e+00   2.282186e+01
   6.708599e+00  -9.548574e+01
   7.069072e+01  -1.189418e+02
   1.846510e+02  -1.935857e+01
   2.056198e+02   1.530063e+02
  -6.108753e+00   2.099952e+02
  -1.637904e+02   1.461749e+02
  -2.240364e+02  -1.267973e+01
  -4.822499e+01  -8.335500e+01
   1.236049e+02  -1.183471e+02
   1.054433e+02  -2.331204e+01
   2.141556e+01  -3.152560e+00
  -2.235621e+01   1.201129e+01
  -1.584774e+01  -6.095795e+00
   9.657054e+01  -1.382348e+01
   1.393866e+02   6.631543e+01
   1.558280e+01   1.924085e+02
  -1.374775e+02   1.566227e+02
  -2.240183e+02   6.887770e+01
  -2.596342e+02  -9.940494e+01
  -4.471048e+01  -2.402114e+02
   7.976898e+01  -1.478735e+02
   8.495843e+01  -6.326697e+01
   5.864675e+01   1.902558e+00
   2.270161e+01  -1.935459e+01
   5.336365e+01  -2.099756e+01
   1.153834e+02  -1.781712e+01
   9.916378e+01   2.842087e+01
  -6.277720e-01   8.666943e+01
  -1.097863e+02   9.345914e+01
  -1.117611e+02  -2.849639e+01
   1.481374e+00  -1.062016e+02
   1.834824e+02  -8.963025e+01
   2.039341e+02   8.062503e+01
   8.813005e+01   2.281344e+02
  -1.242868e+02   2.208547e+02
  -2.659759e+02   8.479888e+01
  -2.257760e+02  -1.129686e+02
  -1.142959e+02  -1.570769e+02
   5.867531e+01  -1.433134e+02
   7.155364e+01  -7.402025e+01
   7.103287e+01  -8.063492e+01
   2.868819e+01  -9.273784e+01
   8.631419e+01  -5.456585e+01
   1.434972e+02   5.456566e+01
   1.422858e+02   1.387495e+02
   4.856494e+01   2.556048e+02
  -1.069604e+02   1.853868e+02
  -1.708236e+02   9.014121e+00
  -1.281330e+02  -1.120382e+02
  -1.389354e+01  -1.413061e+02
   9.777582e+01  -8.817350e+01
   5.814576e+01   3.934192e+01
   3.214083e+01   3.434286e+01
  -3.381104e+01   2.704706e+01
   5.070991e+01   3.138646e+00
   1.160193e+02   2.882744e+01
   3.471756e+01   2.253312e+01
  -8.715805e+01   6.970505e+01
  -2.006446e+02   7.474269e+00
  -1.554653e+02  -7.697679e+01
  -4.162776e+01  -1.181331e+02
   1.298774e+02  -7.341048e+01
   1.314179e+02  -5.770718e+01
   4.550468e+01   5.566310e+01
  -6.643215e+01   1.310491e+01
  -1.419617e+02  -5.065861e+01
   1.395071e+01  -7.761562e+01
   5.875880e+01  -7.206258e+01
   8.461318e+01   1.152409e+01
   4.372835e+01   9.635570e+01
   4.042950e+01   8.457036e+01
   3.947906e+01  -1.885826e+01
   7.767247e+01  -1.068881e+01
   5.394244e+01   7.478312e+01
  -3.382799e+01   1.504567e+02
  -1.296768e+02   1.788496e+02
  -1.646722e+02   2.374741e+01
  -1.703469e+02  -6.937699e+01
  -4.923685e+01  -1.914496e+02
   4.777482e+01  -1.000799e+02
   4.489846e+01   1.971453e+01
  -5.884311e+01   7.467770e+01
  -9.011863e+01  -3.160277e+01
  -5.110596e+01  -9.326443e+01
   6.995763e+01  -1.192854e+02
   2.106173e+02  -4.324199e+01
   1.799906e+02   5.145168e+01
   5.987724e+01   9.039880e+01
  -8.908658e+01   7.382188e+01
  -5.009225e+01   1.768697e+01
   3.017779e+01  -1.664521e+01
   4.833775e+01  -1.636520e+01
   8.642098e+01   1.004771e+02
  -1.109800e+02   1.523581e+02
  -1.354182e+02   6.515946e+01
  -1.583221e+02  -1.119130e+02
   1.741213e+00  -2.069284e+02
   9.767183e+01  -1.137032e+02
   1.116137e+02  -9.265686e+00
   4.851256e+01   1.159240e+02
  -3.293322e+01   9.716737e+01
  -5.625472e+01   5.966186e+00
  -6.187423e+01  -6.011907e+01
   8.755962e+00  -2.317215e+01
   3.619159e+01   3.625139e+01
  -1.557166e+01  -5.226717e+01
  -5.439729e+01  -8.660057e+01
  -3.359498e+01  -8.439522e+01
   5.830924e+01  -4.441287e+01
   1.355533e+02  -2.596182e+01
   1.187534e+02   1.048005e+02
   1.566954e+01   6.453614e+01
  -1.027729e+02   9.181085e+00
  -9.017145e+01   5.399701e+01
   5.982670e+00  -5.529557e+01
   9.389127e+01   4.991737e+00
   2.344136e+01   9.794185e+00
  -2.274592e+01  -1.390406e+00
  -4.307152e+01  -3.915970e+00
   5.601271e+01   6.403820e+00
   1.210855e+02  -2.831936e+00
   1.725799e+01   6.397189e+01
  -1.195402e+02   1.448486e+02
  -1.480893e+02   6.709585e+01
  -1.517101e+02  -6.095632e+01
  -6.656117e+01  -1.775402e+02
   8.422413e+01  -1.214323e+02
   1.326473e+02  -7.571949e+01
   1.013422e+02   3.085632e+01
   1.896984e+01   8.409054e+01
  -1.053684e+01  -5.642968e+00
  -1.119128e+01  -1.672055e+01
   2.142529e+01   3.927400e+01
  -2.911101e+01   7.170314e+01
  -2.029811e+01   5.856798e+01
  -8.140330e+01  -4.420736e+01
  -9.358166e+01  -8.190879e+01
  -4.291176e+00  -1.176751e+02
   7.997805e+01  -4.065875e+01
   1.158450e+02   4.978292e+01
   8.246012e+01   7.295508e+01
  -5.478246e+01   6.565139e+01
  -6.250541e+01  -5.129694e+01
  -1.022782e+01  -6.525945e+01
   5.333432e+01  -1.016407e+02
   7.734662e+01  -1.209254e+01
  -4.490092e+00   4.353837e+01
  -6.221331e+01   4.225774e+01
  -7.134534e+01  -6.467298e+01
   7.056618e+01  -7.582104e+01
   1.188349e+02  -8.816063e+01
   1.006909e+02  -1.488736e+01
   2.388007e+01   1.017654e+02
  -6.195655e+01   1.435800e+02
  -4.524130e+01  -1.984370e+01
   5.267758e+00  -6.396186e+01
   5.702114e+01  -7.705015e+01
   8.897986e+00   3.047424e+01
   9.126385e+01   2.844822e+01
   5.069566e+01   3.340253e+01
  -2.588901e+01  -3.248925e+01
  -9.624131e+01  -3.696624e+01
   1.988252e+00   2.327694e+01
   1.281622e+01  -2.669441e+01
   4.822418e+01   1.352498e+01
   2.299110e+01  -2.535406e+01
  -2.653252e+01  -4.019789e+01
   1.756141e+01  -2.012222e+01
   7.807164e+01   8.006782e+01
   2.265926e+01   8.089090e+01
  -4.539342e+01  -6.229183e-01
  -1.267237e+02  -6.736753e+01
  -5.692804e+01  -4.153263e+00
   6.825897e+01  -3.743743e+01
   1.415642e+02  -1.835330e+01
   4.798284e+01   3.462904e+01
   1.588828e+01   5.700799e+01
  -2.289218e+01   6.090260e+01
  -8.877536e+00  -1.867383e+00
  -2.826189e+00  -2.875297e+01
   4.932043e+01  -2.152765e+01
  -5.790176e+01   2.651732e+01
  -7.322428e+01  -1.564058e+00
