
 $NMID
 id='ANONYMOUS ', fmtdat='(2E16.6)'
 volume=1.0
 tramp=1.0
 $END
   3.679628e+03   1.693961e+02
   2.412479e+03   2.293531e+03
  -4.683582e+02   2.559231e+03
  -1.884294e+03   9.899320e+02
  -9.241631e+02  -2.997341e+02
   4.600778e+02  -4.989666e+02
   7.280656e+02   3.179556e+02
  -4.062675e+00   9.637375e+02
  -8.190644e+02   7.360584e+02
  -9.816936e+02  -7.956105e+01
  -5.472502e+02  -7.404759e+02
   1.410845e+02  -8.324768e+02
   5.611201e+02  -2.174716e+02
   3.658576e+02   5.264320e+02
  -1.822764e+02   5.776007e+02
  -5.216971e+02  -4.585013e+00
  -2.570790e+02  -6.266709e+02
   2.218709e+02  -6.751659e+02
   5.611863e+02  -1.539023e+02
   4.985767e+02   3.549899e+02
   5.934642e+01   4.556415e+02
  -2.432464e+02   2.974580e+02
  -1.227703e+02   1.047458e+02
   1.452828e+02  -1.742089e+01
   3.704804e+02   1.622156e+02
   1.397747e+02   4.242284e+02
  -4.085795e+02   3.333296e+02
  -7.368106e+02  -1.259164e+02
  -3.789527e+02  -4.760709e+02
   3.310921e+02  -3.449090e+02
   6.513876e+02   1.177078e+02
   2.694000e+02   3.700743e+02
  -3.082000e+02   4.779968e+02
  -5.182410e+02   1.323127e+02
  -4.536806e+02  -2.750222e+02
  -1.224262e+02  -4.208884e+02
   1.359492e+02  -1.919823e+02
   1.565317e+02   1.688849e+02
  -1.202575e+02   2.747831e+02
  -3.447503e+02  -9.521881e+01
  -1.800042e+02  -6.257281e+02
   3.334796e+02  -5.863338e+02
   4.731925e+02   2.417370e+01
   1.734328e+02   4.895433e+02
  -2.700667e+02   2.971915e+02
  -3.689381e+02  -2.587232e+02
   6.852082e+01  -5.012757e+02
   5.625856e+02  -1.482120e+02
   5.535966e+02   3.959660e+02
   1.962197e+02   5.798206e+02
  -3.360906e+02   3.342018e+02
  -5.179679e+02  -7.913021e+01
  -2.801508e+02  -3.298813e+02
   1.037221e+02  -3.538656e+02
   4.109804e+02  -7.245491e+01
   3.066396e+02   1.546890e+02
  -6.521740e+01   1.352699e+02
  -1.362028e+02  -8.774370e+01
   6.580704e+01  -1.331264e+02
   2.888056e+02   1.289846e+00
   2.034444e+02   2.783422e+02
  -1.918703e+02   2.247187e+02
  -3.689821e+02   6.955398e+01
  -2.600913e+02  -1.072311e+02
   9.815273e+00  -2.803217e+02
   2.536059e+02  -3.406943e+02
   3.295809e+02  -1.792182e+02
   2.389980e+02   9.764537e+01
   4.084955e+01   3.916054e+02
  -1.217319e+02   3.588751e+02
  -1.054579e+02   1.605574e+02
  -1.323751e+01  -1.552565e+01
  -3.097968e+01   1.162140e+02
  -1.940552e+02   1.194847e+02
  -2.433751e+02  -6.672965e+01
  -1.629461e+02  -2.453694e+02
   5.385949e+01  -2.216741e+02
   2.169164e+02  -8.454346e+00
   1.620966e+02   1.901084e+02
  -2.574410e+01   2.271384e+02
  -2.974679e+02   1.321357e+02
  -3.605765e+02  -1.604241e+02
  -1.761500e+02  -3.187976e+02
   5.780743e+01  -3.101849e+02
   2.120916e+02  -6.522320e+01
   1.223489e+02   6.082469e+00
   1.288015e+02  -8.696683e+01
   2.410186e+02  -3.091077e+01
   3.587509e+02   8.996897e+01
   2.944980e+02   3.272873e+02
   1.484962e+00   4.241494e+02
  -3.796453e+02   3.717417e+02
  -4.558080e+02   1.851335e+02
  -2.611588e+02  -9.665733e+01
  -4.991946e+00  -2.831752e+02
   1.255741e+02  -2.052477e+02
   8.527882e+01  -4.142743e+01
  -1.014224e+02   1.119497e+02
  -2.118035e+02  -1.267893e+01
  -1.894387e+01  -1.568858e+02
   1.126914e+02  -1.480419e+02
   1.680398e+02   8.798775e+01
  -5.848786e+01   1.311527e+02
  -2.173550e+02  -3.549905e+01
  -1.638812e+02  -2.547424e+02
   2.540223e+01  -3.059724e+02
   2.330042e+02  -1.935866e+02
   3.337718e+02   6.662680e+01
   2.671242e+02   2.251043e+02
   3.627397e+01   3.110697e+02
  -1.496449e+02   1.468367e+02
  -1.447084e+02   1.574369e+01
  -8.160372e+01  -2.021618e+01
   6.288208e+01   5.732634e+01
   2.510288e+00   1.351734e+02
  -1.308253e+02   9.407832e+01
  -1.889476e+02  -2.675961e+01
  -2.871289e+01  -8.449087e+01
   6.556517e+01  -1.767308e+01
   2.672087e+01   1.108408e+02
  -1.306968e+02   8.633895e+01
  -2.012848e+02  -4.610957e+01
  -2.279866e+02  -1.244706e+02
  -3.029592e+01  -2.529081e+02
   1.908265e+02  -2.328931e+02
   2.901402e+02  -1.359647e+02
   1.933290e+02   3.371741e+01
   1.250055e+01   7.759774e+01
  -4.147948e+01   4.222990e+01
   9.075306e-01  -7.641812e+01
   1.589746e+02  -2.279244e+01
   2.184150e+02   7.167949e+01
   5.938113e+01   1.885267e+02
  -1.157823e+02   1.001710e+02
  -1.530073e+02  -1.875086e+00
  -8.687771e+01  -4.465175e+01
   3.207957e+01   3.046153e+00
   3.381251e+01   9.092810e+01
  -7.721517e+01   1.073999e+02
  -1.953725e+02   1.903989e+01
  -1.744298e+02  -1.164057e+02
  -3.930625e+01  -2.267502e+02
   1.834248e+02  -1.269022e+02
   1.642134e+02   4.281747e+01
   2.127842e+01   1.008443e+02
  -9.912587e+01   8.814997e+01
  -7.836484e+01   1.518682e+01
  -4.552319e+00  -2.763298e-01
  -4.039886e+00  -2.527160e+01
  -1.855716e+01  -2.004266e+01
  -4.458102e+01  -3.915430e+01
  -1.248203e+02  -7.561842e+01
  -6.404430e+00  -1.371227e+02
   1.371800e+02  -1.155202e+02
   2.277778e+02  -5.373097e+01
   1.936885e+02   1.879763e+02
   4.531110e+01   2.289291e+02
  -1.599533e+02   1.335474e+02
  -1.075278e+02   3.080688e+01
  -5.831554e+01  -3.278290e+01
  -2.113657e+01  -1.097141e+02
  -3.845593e+01  -1.266762e+01
  -1.087378e+02  -3.021627e+01
  -1.724172e+01  -6.723635e+01
   1.088985e+02  -7.659116e+01
   8.707154e+01  -5.568889e+01
   7.534901e+01   4.444129e+01
  -2.205381e+01   8.998286e+01
  -1.451289e+02   7.200744e+01
  -1.528257e+02  -4.381102e+01
  -7.183505e+01  -1.466047e+02
   1.036168e+02  -1.867232e+02
   2.135093e+02  -8.918662e+01
   1.993338e+02   4.584781e+01
   1.260059e+02   1.766937e+02
  -3.233583e+01   1.420165e+02
  -1.121919e+02   5.502454e+01
  -3.485379e+01   3.514311e+01
  -1.411974e+01   1.376791e+02
  -7.363037e+01   6.292427e+01
  -1.240038e+02  -8.899499e-01
  -1.250343e+02  -1.519703e+02
  -4.094052e+01  -2.119112e+02
   9.125323e+01  -1.545767e+02
   1.789457e+02   1.533267e+01
   9.734160e+01   1.343001e+02
  -1.698179e+01   1.303958e+02
  -1.450659e+02   4.971370e+01
  -6.565470e+01  -4.951030e+01
   4.186786e+01  -5.875876e+01
   3.557515e+00  -3.006559e+01
  -5.650630e+01  -1.249851e+01
  -5.995773e+01   2.273583e+00
   2.267120e+00  -4.802023e+01
   7.187130e+01  -3.996548e+01
   1.632371e+02  -1.434410e+01
   1.365357e+02   2.256661e+01
   2.701423e+01   8.877134e+01
  -9.507487e+01   1.080223e+02
  -1.520454e+02   5.597032e+00
   1.353271e+01  -3.007864e+01
   1.283433e+01  -4.419216e+01
   7.260736e+01   2.339787e+01
  -1.454487e+01   1.900573e+01
  -2.323586e+01   1.962074e+01
  -5.936334e+01  -2.145658e+01
  -3.866216e+01  -6.212275e+01
  -5.421003e+01  -3.816428e+01
  -5.028942e+01   6.564890e+00
  -2.094099e+01  -1.026700e+01
   3.619207e+01  -8.340480e+01
   2.989084e+01  -1.300027e+02
   8.184948e+01  -1.032271e+02
   1.375186e+02  -1.463944e+01
   1.078028e+02   1.087980e+02
   1.797611e+01   1.330276e+02
  -9.260903e+01   8.717508e+01
  -8.947119e+01   1.805070e+01
  -2.640683e+00   1.628544e+01
   1.035129e+02   2.881342e+01
   4.411863e+01   9.493174e+01
  -4.025006e+01   1.074081e+02
  -1.830420e+02   6.622419e+01
  -1.776825e+02  -3.114606e+00
  -1.208971e+01  -7.881041e+01
   9.779594e+01  -9.991709e+01
   4.650550e+01  -2.377413e+01
  -5.029409e+01   1.886556e+01
  -2.535172e+01   2.055891e+01
  -1.043797e+01  -1.058115e+02
   6.660281e+01  -1.581356e+02
   1.433341e+02  -1.638292e+01
   1.351072e+02   6.161404e+01
   3.834135e+01   1.602137e+02
  -5.103033e+01   8.679221e+01
  -1.074686e+02  -1.245288e+01
  -1.266173e+01  -8.356188e+01
   6.493939e+00  -1.476081e+02
   8.126108e+01  -2.191420e+01
   7.210869e+01   4.089415e+01
   5.420966e+01   6.333108e+01
  -1.633109e+01   3.017750e+01
   1.717625e+01   4.743869e+01
   3.974584e+01   5.406325e+01
  -1.323537e+01   1.003731e+02
  -4.199606e+01   2.397313e+01
  -5.685108e+01  -3.121422e+01
  -8.486742e+01  -4.211261e+01
  -3.869887e+01  -5.152044e+01
   5.267918e+01  -1.429344e+01
   6.327464e+01  -1.500141e+01
   4.345038e+00  -2.973416e+01
  -1.907276e+00   8.051456e+01
  -1.696363e+01   6.555802e+01
  -7.673004e+00   2.051349e+00
  -1.986511e+01   1.166979e+01
  -9.908162e+01  -2.121964e+01
  -4.144950e+01  -3.404796e+01
   1.105106e+01  -8.198048e+01
   1.091955e+02  -7.059277e+01
   1.583195e+02  -9.589029e+00
   1.047934e+02   6.313712e+01
   2.739606e+01   1.688364e+02
  -6.277520e+01   1.467354e+02
  -1.090795e+02   6.498103e+01
  -8.201209e+01  -2.039129e+01
  -1.977610e+01  -6.865975e+01
   3.135818e+01  -2.885790e+01
   2.313570e+01   1.411131e+01
  -5.511922e+01  -5.887099e-02
  -3.008097e+01  -4.453526e+01
   2.981586e+01  -4.902686e+01
   7.001552e+01   2.101748e+01
   6.888398e+01   6.317106e+01
  -3.593520e+01   1.135186e+02
  -6.310319e+01   2.567752e+01
  -7.315237e+01  -7.532023e+01
  -2.375719e+01  -1.104609e+02
   5.819619e+01  -4.370701e+01
   1.538731e+02   1.250488e+00
   9.395099e+01   6.363215e+00
  -3.035966e+00   6.298478e+01
  -4.714840e+01   7.222263e+01
   9.882284e+00   2.854080e+01
   7.316007e+01   5.457981e+00
   4.921079e+00   4.074675e+01
  -7.262492e+01   7.039707e+01
  -1.245165e+02   2.679739e+01
  -6.775312e+01  -2.827831e+01
  -1.300748e+01  -6.956613e+01
   6.308117e+01  -2.317063e+01
   8.694826e+01  -1.095742e+01
  -5.136358e+01   7.259277e+01
  -1.308623e+01   1.153073e+01
  -2.902433e+01   9.182638e+00
  -2.552391e+00  -1.495759e+01
  -1.280416e+01  -3.087898e+01
   8.746900e+01   4.160415e+00
   1.805644e+01  -5.065709e+00
   6.429285e+00   6.692470e+01
   1.882791e+01   3.010538e+01
   2.284851e+01  -8.078538e+00
  -2.686564e+01   3.335430e+01
  -1.719017e+01   1.806499e+01
  -4.688405e+01  -5.461412e+01
  -1.140258e+01  -2.568006e+01
   1.254994e+01  -8.875244e+01
   4.875390e+01  -1.561580e+00
   3.986581e+01   1.407967e+01
   3.340639e+01   5.320145e+01
  -4.172115e+01   2.240865e+01
  -6.253077e+01   4.662929e+00
  -3.776605e+01  -9.043478e+01
  -1.107354e+01  -5.253509e+00
   4.842029e+01   1.077553e-01
   4.567897e+01   2.908689e+01
  -1.490610e+01   1.770636e+01
  -1.756879e+01  -3.395350e+00
  -8.756897e+00  -2.064751e+01
   5.748461e+01   3.680469e+01
