
 $NMID
 id='ANONYMOUS ', fmtdat='(2E16.6)'
 volume=1.0
 tramp=1.0
 $END
   4.015120e+03  -8.362640e+01
   2.385062e+03   2.329782e+03
  -5.075374e+02   2.507943e+03
  -1.884802e+03   1.153495e+03
  -1.171144e+03  -3.128426e+02
   3.640757e+02  -4.246201e+02
   7.214398e+02   3.266093e+02
   6.899370e+01   9.386292e+02
  -7.236646e+02   6.677381e+02
  -7.789940e+02  -3.443431e+01
  -3.984117e+02  -8.044834e+02
   2.017287e+02  -8.319243e+02
   5.148706e+02  -1.070301e+02
   3.887720e+02   5.712270e+02
  -1.218287e+02   7.409778e+02
  -5.785927e+02   2.874691e+01
  -3.501761e+02  -7.434560e+02
   2.637936e+02  -6.490057e+02
   5.696338e+02  -1.624326e+02
   4.488890e+02   2.285601e+02
   6.300172e+01   4.330471e+02
  -1.521565e+02   2.787786e+02
  -1.173275e+02   1.045246e+02
   1.403216e+02  -3.502812e+01
   3.749233e+02   2.264820e+02
   1.349350e+02   4.101302e+02
  -5.597004e+02   4.057953e+02
  -8.420702e+02  -1.450163e+02
  -3.286322e+02  -5.197457e+02
   3.727489e+02  -4.481492e+02
   6.939241e+02   2.986129e+01
   3.311173e+02   4.470141e+02
  -3.243015e+02   4.629554e+02
  -5.242742e+02   1.798069e+02
  -4.327804e+02  -2.421889e+02
  -1.255178e+02  -4.786418e+02
   2.067088e+02  -2.622196e+02
   1.137683e+02   1.719564e+02
  -1.875749e+02   3.958039e+02
  -4.357208e+02  -8.774466e+01
  -2.505861e+02  -6.777626e+02
   2.785105e+02  -6.741420e+02
   5.376770e+02  -2.851777e+01
   2.068839e+02   4.417293e+02
  -2.509653e+02   3.124597e+02
  -2.833146e+02  -4.039272e+02
   1.149242e+02  -5.024309e+02
   5.814867e+02  -1.402000e+02
   5.574233e+02   3.759563e+02
   1.386922e+02   5.758630e+02
  -3.935737e+02   3.288390e+02
  -6.271596e+02  -6.889960e+01
  -3.188456e+02  -3.642814e+02
   1.446788e+02  -3.504646e+02
   3.555213e+02  -4.820645e+01
   1.923796e+02   9.383417e+01
  -1.249033e+02   2.768358e+01
  -7.307891e+01  -1.306269e+02
   1.695970e+02  -1.706454e+02
   3.396859e+02   4.412481e+01
   9.195768e+01   2.707181e+02
  -2.166806e+02   2.504300e+02
  -4.075168e+02   1.377725e+02
  -2.221661e+02  -6.201451e+01
   2.572891e+01  -2.121827e+02
   2.172477e+02  -3.327525e+02
   3.231465e+02  -2.358308e+02
   2.425512e+02   1.349535e+02
   7.280866e+01   3.679735e+02
  -7.516805e+01   3.848420e+02
  -5.594862e+01   1.535515e+02
  -2.223836e+00   2.231961e+01
  -7.752787e+01   6.171836e+01
  -2.025915e+02   9.479343e+01
  -3.050814e+02  -7.995529e+01
  -1.817845e+02  -2.857126e+02
   1.028624e+02  -2.646387e+02
   2.528843e+02  -2.672310e+00
   2.246734e+02   2.228341e+02
  -3.491616e+01   2.608455e+02
  -2.894388e+02   5.726204e+01
  -3.777276e+02  -2.504415e+02
  -2.117583e+02  -4.333876e+02
   6.545542e+01  -3.845572e+02
   2.035266e+02  -1.213148e+02
   1.912448e+02  -5.508063e+00
   1.566952e+02  -6.982926e-01
   3.046690e+02  -3.400507e+01
   4.409082e+02   7.263477e+01
   3.601420e+02   3.055415e+02
   2.923122e+00   4.729176e+02
  -3.605280e+02   4.712477e+02
  -5.057338e+02   2.761886e+02
  -3.470714e+02  -7.026091e+01
  -5.110649e+01  -2.802339e+02
   1.593652e+02  -2.427475e+02
   5.574563e+01   3.146566e+00
  -1.116028e+02   1.090908e+02
  -1.902833e+02  -1.204861e+01
  -2.035397e+01  -1.395986e+02
   1.696227e+02  -1.114142e+02
   1.875653e+02   5.065459e+01
   5.820881e+01   1.403618e+02
  -1.529896e+02   3.188248e+00
  -1.836064e+02  -2.253133e+02
   7.808585e+00  -3.292851e+02
   2.059897e+02  -1.696088e+02
   3.511334e+02   5.573235e+01
   2.434870e+02   2.169513e+02
   9.814730e+01   2.489452e+02
  -1.124033e+02   1.705659e+02
  -1.529347e+02   1.886731e+01
  -6.259902e+01  -3.906725e+01
   7.052350e+01   4.863482e+01
   3.529884e+01   1.334873e+02
  -9.372508e+01   9.361931e+01
  -1.196775e+02  -1.963084e+01
  -3.927604e+01  -8.554841e+00
   7.189478e+01   2.255112e+01
   3.598374e+01   8.044130e+01
  -7.669175e+01   1.112800e+02
  -2.885985e+02  -1.183172e+01
  -2.420605e+02  -1.466170e+02
  -5.145174e+01  -2.790600e+02
   2.098943e+02  -2.378863e+02
   2.431999e+02  -1.547290e+02
   1.063449e+02   4.895099e+01
  -3.047520e+01   9.762663e+01
  -1.010161e+02   2.023733e+01
   2.966548e+01  -1.287654e+02
   1.831244e+02  -1.043887e+02
   2.299867e+02   8.468247e+01
   1.268716e+02   1.800580e+02
  -7.803429e+01   1.665525e+02
  -1.427501e+02   3.564320e+01
  -2.761936e+01  -6.335748e+01
   7.869008e+00  -4.261620e+01
   1.903884e+01   4.380740e+01
  -8.927935e+01   1.522968e+02
  -2.108455e+02   1.102124e+02
  -2.218690e+02  -1.404887e+02
  -6.835191e+01  -1.782726e+02
   1.295739e+02  -2.050251e+02
   2.198745e+02   4.320391e+01
   1.016370e+02   1.345902e+02
  -2.179588e+01   1.015934e+02
  -5.598745e+01   2.244706e+01
  -6.717190e+01  -2.880033e+01
  -1.222958e+01  -5.088587e+00
   4.319788e+01  -3.083996e+00
  -6.772430e+01  -9.700338e+00
  -9.482774e+01  -9.208498e+01
  -4.507602e+01  -1.317874e+02
   1.703008e+02  -1.131600e+02
   2.250686e+02   3.585173e+00
   1.869077e+02   1.475855e+02
   5.363067e+01   2.332459e+02
  -1.148588e+02   1.780632e+02
  -1.659636e+02   4.226019e+01
  -6.685183e+01  -1.011266e+02
  -5.261572e+01  -8.884869e+01
  -6.624312e+01   4.507386e+01
  -1.008599e+02   6.745869e+00
  -6.969436e+01  -3.542475e+01
   4.364212e+01  -9.789026e+01
   1.066147e+02  -3.967008e+01
   8.996012e+01   4.347066e+01
   4.525433e+01   1.250670e+02
  -1.189903e+02   1.142130e+02
  -1.986018e+02  -1.492210e+01
  -1.255166e+02  -1.668545e+02
   1.034370e+02  -2.297035e+02
   2.967681e+02  -1.304008e+02
   2.373634e+02   7.297167e+01
   9.249950e+01   1.868209e+02
  -9.538276e+01   1.400137e+02
  -1.186527e+02   1.055812e+02
  -1.063548e+02   5.340360e+01
  -1.474972e+01   8.471361e+01
  -5.296719e+01   3.845109e+01
  -8.247400e+01  -6.969723e+01
  -8.542954e+01  -1.440767e+02
  -6.146096e+01  -2.292551e+02
   6.738205e+01  -1.552492e+02
   1.640480e+02  -1.299089e+01
   1.887424e+02   1.284724e+02
   2.067105e+01   2.072856e+02
  -4.598187e+01   1.314190e+02
  -9.286316e+01   1.524651e+01
  -3.456014e+01  -2.796764e+01
  -3.955632e+01  -6.010277e+01
  -3.834362e+01  -3.028849e+01
  -5.212387e+01   2.814478e+01
  -1.845146e+01  -1.343760e+01
   6.460860e+01  -1.590356e+01
   1.781555e+02  -3.392275e+01
   1.652343e+02   6.062748e+01
  -2.607637e+01   7.865394e+01
  -1.169059e+02   8.917963e+01
  -1.613404e+02   1.350930e+01
  -8.857440e-01  -6.084653e+01
   6.607856e+01  -2.092260e+01
   4.895550e+01   2.559759e+01
   8.260849e+00   7.327662e+01
  -3.756210e+01   3.597435e+01
  -2.969427e+01   1.628604e-01
  -4.013488e+01  -8.240317e+01
  -5.354690e+01  -7.020325e+01
  -7.275159e+01   1.391635e+01
  -4.293264e+01  -1.879330e+01
  -4.842079e+01  -8.775090e+01
   2.166666e+01  -1.806074e+02
   1.687897e+02  -1.478260e+02
   1.777962e+02   2.613278e+01
   1.267813e+02   6.703459e+01
  -2.652840e+01   1.631742e+02
  -6.045675e+01   6.260609e+01
  -1.736012e+01   3.151750e+01
   6.178462e+01  -5.840160e+00
   1.142833e+02   2.512764e+01
   7.309435e+01   1.071670e+02
  -4.388931e+01   1.098661e+02
  -1.808715e+02   3.495729e+01
  -1.792564e+02  -5.758299e+01
  -3.283389e+01  -6.936070e+01
   6.025473e+01  -7.784481e+01
   4.513044e+01  -3.866837e+01
  -4.285405e+00  -7.339858e+00
  -9.594364e+01  -5.821146e+01
  -5.262853e+01  -1.012029e+02
   6.077702e+01  -1.263158e+02
   1.094064e+02  -7.877369e+01
   2.174132e+02   1.237274e+02
   4.504076e+01   2.564914e+02
  -1.075016e+02   6.044414e+01
  -1.595707e+02   1.064211e+01
  -6.894544e+01  -1.083089e+02
  -4.096752e+01  -1.124335e+02
   4.791604e+01   1.005685e+01
   2.575466e+01   2.173297e+01
  -4.475043e+00  -5.535971e+01
   3.891850e+00   1.085744e+01
   2.231714e+01   1.622651e+01
   6.804781e+01   9.463368e+01
   4.431735e+00   9.009819e+01
  -5.730827e+01   3.293006e+01
  -1.500207e+02   1.418701e+00
  -1.195917e+02  -4.504576e+01
  -2.793288e+01  -6.964807e+01
   4.782230e+01  -3.553901e+01
   5.204111e+01   1.302066e+01
   1.938937e+01   1.687321e+01
  -1.413373e+01   1.344824e+01
  -1.796797e+01  -6.037543e+00
   6.443258e+00  -5.795585e+00
   2.174192e+01   9.634767e+00
  -8.267548e+01   7.374758e+01
  -1.045243e+02   2.883354e+01
  -1.304834e+01  -6.115518e+01
   1.147302e+02  -1.599459e+02
   1.953603e+02  -8.747506e+01
   1.248169e+02   4.980622e+01
   2.234839e+01   1.597599e+02
  -6.915349e+01   1.691723e+02
  -1.586562e+02   2.759816e+01
  -6.831106e+01  -3.935543e+01
  -8.039796e+01  -9.012918e+00
   2.318308e+01   1.028595e+01
  -4.177454e+01   2.996627e+01
  -4.529153e+01  -1.032340e+02
  -1.575809e+01  -1.134076e+02
   1.140867e+01  -1.018504e+02
   1.078667e+02  -1.710517e+01
   5.208899e+01   9.039343e+01
  -2.759876e+01   1.015182e+02
  -9.131474e+01   1.321200e+01
  -8.291692e+01  -7.995496e+01
   2.728921e+00  -1.259313e+02
   7.929083e+01  -7.991943e+01
   1.040295e+02   2.975642e+01
   4.474693e+01   6.330041e+01
  -3.787316e+01   8.293213e+01
  -4.269763e+01   6.611923e+00
   6.355415e+01   2.333601e+01
   5.838285e+01  -1.526321e+01
  -2.730061e+01   3.357358e+01
  -6.831637e+01   3.981666e+01
  -1.578735e+02   8.307606e+01
  -9.652282e+01  -3.130383e+01
  -4.974788e+00  -8.423516e+01
   2.083903e+01  -1.117260e+02
   3.897826e+01   2.803926e+01
   1.511600e+00   6.026055e+01
  -4.165245e+01   2.358745e+01
  -2.875897e+01  -6.784398e+01
  -1.723589e+01  -8.080636e+01
  -5.286158e+00  -2.129709e+01
   4.284247e+01   3.519763e+01
   9.291040e+01  -1.404326e+01
   2.612770e+01  -3.525331e+01
  -2.424112e+01   5.126944e+01
  -4.071333e+01   8.211616e+00
  -8.207957e-01   4.243456e+01
  -2.274925e+01   3.826543e+01
  -4.421110e+01   1.865287e+01
  -3.232949e+01  -8.545768e+01
   2.481903e+01  -1.201247e+02
   1.333449e+01  -8.393794e+01
   8.971015e+01  -1.388087e+00
   1.740462e+00   5.280299e+01
  -9.936992e+00   4.873812e+01
  -1.010442e+02   4.584165e+00
  -4.983893e+01  -3.810896e+01
  -1.238398e+01  -2.689247e+01
   4.347557e+00  -3.669685e+01
   2.492046e+01   2.646447e+01
  -1.333694e+01   2.366247e+01
  -2.857578e+01   1.544984e+00
   3.382648e+01  -8.878543e+00
   3.047950e+01   6.890389e+00
