
 $NMID
 id='ANONYMOUS ', fmtdat='(2E16.6)'
 volume=1.0
 tramp=1.0
 $END
   2.242183e+03  -1.396159e+02
   1.582234e+03   1.053826e+03
   1.238440e+02   1.401271e+03
  -8.276912e+02   1.014270e+03
  -7.924661e+02   3.006311e+02
  -1.274423e+02  -1.670390e+02
   1.702646e+02  -5.748280e+01
   5.785012e+01   3.436090e+02
  -3.031685e+02   3.804330e+02
  -4.432817e+02   1.127553e+02
  -3.174540e+02  -2.768266e+02
  -4.083151e+01  -4.604140e+02
   1.981458e+02  -1.734218e+02
   1.730930e+02   2.397020e+02
  -5.234694e+01   3.852974e+02
  -3.236602e+02   1.254834e+02
  -3.004917e+02  -2.653571e+02
   3.218973e+01  -4.428259e+02
   3.044593e+02  -2.798919e+02
   3.682551e+02   8.004975e+01
   1.254232e+02   2.820395e+02
  -7.296423e+01   1.719677e+02
  -5.185703e+01   1.025165e+02
   1.412204e+02   8.798783e+01
   2.262489e+02   2.729642e+02
   7.358145e+00   3.346387e+02
  -4.074431e+02   8.646327e+01
  -4.555794e+02  -2.050402e+02
  -1.146501e+02  -2.574132e+02
   1.942179e+02  -7.447158e+01
   3.809877e+02   1.594376e+02
   1.262087e+02   2.613465e+02
  -1.979576e+02   2.339166e+02
  -2.587091e+02   6.480681e+01
  -1.928696e+02  -1.305124e+02
  -7.077132e+00  -2.303269e+02
  -1.197655e+01  -1.360477e+02
  -1.430804e+02   5.793102e+01
  -1.521403e+02   1.086930e+02
  -1.452739e+02  -1.159513e+02
   2.268746e+01  -4.053866e+02
   2.093632e+02  -3.397128e+02
   1.862711e+02   3.650305e+01
   6.085331e+01   1.837893e+02
  -8.410274e+01   5.944295e+01
  -1.250405e+02  -2.176139e+02
   8.194458e+01  -3.058494e+02
   3.122145e+02  -5.174767e+00
   3.609199e+02   3.101126e+02
   8.105222e+01   3.862806e+02
  -2.381224e+02   1.990948e+02
  -4.049218e+02  -7.527777e+01
  -3.290637e+02  -1.508639e+02
  -1.988424e+01  -1.161647e+02
   1.900633e+02  -1.073967e+02
   1.913397e+02  -5.625145e+01
   5.973850e+01  -3.545576e+01
  -7.499182e+01  -3.118942e+01
   6.050531e+01  -1.305228e+01
   1.589060e+02   5.054167e+01
   4.919414e+01   1.212001e+02
  -5.808615e+01   1.684676e+02
  -2.368589e+02   1.070983e+02
  -1.968297e+02  -4.810055e+01
   6.522109e+00  -2.261239e+02
   2.146434e+02  -2.738759e+02
   2.789287e+02  -8.516197e+01
   1.461750e+02   9.250875e+01
  -2.459471e+01   2.394286e+02
   7.017121e+00   2.688567e+02
   4.606800e+00   1.519019e+02
  -4.220067e+01   1.246220e+02
  -1.441424e+02   1.042537e+02
  -2.358519e+02   5.358805e+01
  -1.872491e+02  -4.738754e+01
  -3.345739e+01  -2.003414e+02
   9.836597e+01  -1.595789e+02
   1.504037e+02   6.994157e+01
   1.051297e+02   2.591673e+02
  -5.348036e+01   2.229187e+02
  -1.536564e+02   5.765049e+01
  -2.333657e+02  -1.816919e+02
  -1.627027e+02  -2.514240e+02
   3.566661e+01  -1.855646e+02
   1.118773e+02  -1.178290e+02
   1.251171e+02  -1.022534e+02
   1.475722e+02  -6.547813e+01
   2.388311e+02  -2.735198e+01
   3.154969e+02   1.216625e+02
   2.270982e+02   2.214063e+02
  -5.176028e+01   2.861904e+02
  -3.513326e+02   3.136058e+02
  -4.012808e+02   1.016975e+02
  -1.612125e+02  -6.312940e+01
  -1.916582e+01  -2.286858e+02
   9.414526e+01  -1.993019e+02
   3.222010e+01  -7.766465e+01
  -6.528875e+01   4.287536e+01
  -8.298851e+01   2.481299e+01
   1.429637e+01  -1.014683e+02
   1.214459e+02  -4.043977e+01
   7.135314e+01  -3.453757e-01
  -2.036100e+01   6.441107e+01
  -1.042656e+02   1.088487e+01
  -1.271698e+02  -1.548422e+02
   1.902237e+01  -2.898416e+02
   1.899269e+02  -1.886798e+02
   2.913117e+02   4.412767e+01
   2.596754e+02   2.464828e+02
   4.104733e+01   2.511483e+02
  -9.352736e+01   8.369631e+01
  -1.423211e+02  -1.615554e+01
  -1.939291e+01   1.517066e+01
   5.695394e+01   6.648803e+01
  -3.682191e+01   1.123028e+02
  -5.534522e+01   8.002631e+01
  -9.001608e+01   1.565694e+01
  -4.596274e+01  -4.591532e+01
   7.153605e+01   2.772577e+01
   9.220407e+00   1.135611e+02
  -1.386369e+02   8.128921e+01
  -2.777646e+02  -6.181485e+01
  -1.909013e+02  -1.735300e+02
   1.373095e+01  -1.876918e+02
   1.831686e+02  -1.849370e+02
   1.659006e+02  -5.861196e+01
   9.841688e+01   5.249025e+01
  -5.834411e+01   5.007112e+01
  -2.583709e+01  -5.273059e+01
   4.979355e+01  -1.002285e+02
   1.301434e+02   2.157823e+00
   1.738319e+02   9.147128e+01
   7.008271e+00   1.304114e+02
  -3.912070e+01   1.220752e+02
  -1.053560e+02  -8.531090e+00
  -2.793628e+01  -1.065817e+01
   5.747201e+01  -2.196993e+00
   6.674572e+01   1.399471e+02
  -6.082437e+01   1.256805e+02
  -1.869687e+02  -9.603459e+00
  -1.393514e+02  -1.397513e+02
   2.700985e+01  -1.545645e+02
   1.471221e+02  -1.346719e+02
   1.605659e+02   3.343739e+01
   3.074368e+01   8.877270e+01
  -6.251271e+01   8.516726e+01
  -1.028360e+02   4.214319e+01
  -5.687524e+01  -4.317033e+01
   2.353403e+01   1.588043e+00
   4.565587e+00   8.289033e+01
  -5.354285e+01   9.934590e+00
  -9.721779e+01  -8.044013e+01
  -3.632543e+01  -1.511637e+02
   1.132195e+02  -9.057707e+01
   1.616220e+02   8.059189e+00
   1.275568e+02   1.124327e+02
   5.105929e+01   1.666538e+02
  -1.014263e+02   5.576916e+01
  -1.072640e+02   1.527850e+01
  -8.369634e+01  -4.045516e+01
  -5.430179e+01  -5.738690e+01
  -7.602788e+00   6.701663e-01
  -4.975620e+01   1.199270e+01
  -1.809218e+01  -4.706479e+01
   2.496136e+01  -7.621095e+01
   1.012578e+02  -6.873978e+01
   8.311827e+01   3.790439e+01
  -3.646980e+01   1.278117e+02
  -1.364476e+02   5.848235e+01
  -1.203861e+02  -5.610075e+01
  -2.650748e+01  -2.216103e+02
   1.399272e+02  -1.509832e+02
   1.961055e+02  -6.684115e+01
   2.259996e+02   7.264262e+01
   9.994138e+01   1.690703e+02
  -3.509243e+01   1.296542e+02
  -4.866450e+01   7.523391e+01
  -3.442190e+01   3.281694e+01
  -5.341670e+01   8.228791e+01
  -4.966042e+01   9.162075e+01
  -1.237794e+02  -2.003511e+01
  -6.695483e+01  -1.237862e+02
  -4.623428e+01  -1.508008e+02
   9.947765e+01  -1.141371e+02
   1.130826e+02   4.634330e+01
   9.538763e+01   8.166613e+01
  -3.079563e+01   1.620949e+02
  -7.350760e+01   6.003012e+01
  -6.443545e+01  -2.220304e+01
   1.530373e+01  -5.816037e+01
   4.440072e+01  -9.194097e+00
  -3.878090e+01   1.770563e+01
  -7.194637e+01  -1.203296e+01
  -5.162075e+01  -1.930578e+01
   4.631695e+01  -4.642944e+01
   1.108927e+02  -4.193820e+01
   1.169127e+02   8.604851e+01
   3.706243e+00   5.971290e+01
  -7.638794e+01   8.050095e+01
  -8.563364e+01   6.418219e+00
  -4.117962e+01  -3.866694e+01
   4.263538e+01  -6.468390e+01
   1.051361e+02   1.021846e+01
   2.826915e+01   5.099794e+01
  -3.046841e+01   3.576497e+01
  -8.451844e+01   1.206995e+01
  -5.079980e+01  -2.958453e+01
  -3.989347e+01  -2.355822e+01
  -3.183074e+01  -1.378596e+01
  -7.851786e+01   4.885541e+01
  -1.100936e+01  -3.219196e+01
   1.837014e+01  -1.357902e+02
   1.176189e+02  -8.550421e+01
   1.511642e+02  -6.267962e+01
   9.784664e+01   8.144683e+01
   4.233546e+00   8.427398e+01
  -6.264007e+01   4.371975e+01
   1.531571e+00  -3.822816e+00
   4.020511e+01   3.479848e+01
   1.071395e+02   4.729756e+01
   3.613707e+01   9.712585e+01
  -9.719612e+01   8.993469e+01
  -1.872928e+02   5.910271e+01
  -1.057172e+02   1.525346e+01
   3.821716e+00  -4.696584e+01
   2.328511e+01  -6.387157e+01
   4.837877e+01  -2.898051e+01
  -2.299846e+01   1.627569e+01
  -1.028082e+02   1.412874e+01
  -1.263206e+01  -9.908822e+01
   6.957286e+01  -9.757144e+01
   1.127691e+02  -2.161819e+01
   8.134771e+01   5.178640e+01
  -2.401512e+01   1.529932e+02
  -7.243652e+01   1.220728e+02
  -9.804795e+01  -3.458434e+01
  -6.712231e+01  -9.339409e+01
   7.702325e+00  -1.163805e+02
   7.640030e+01  -2.001137e+01
   2.111317e+01   3.507629e+00
   8.873566e+00   5.950264e+01
   7.423830e+00  -1.706882e+01
   2.375939e+01   1.325761e+01
   7.929920e+01   6.372232e+01
   2.866340e+01   7.586306e+01
  -5.643536e+01   4.935875e+01
  -1.080185e+02  -3.932730e+01
  -1.037827e+02  -3.565337e+01
  -1.172538e+00  -2.533869e+01
   8.919123e+01   1.512405e+00
   9.719644e+01   1.196513e+01
   8.461989e+01   5.644840e+01
  -6.500132e+00   3.637145e+01
  -1.651587e+01   1.836049e+01
   1.851198e+01   4.259316e+00
  -1.640148e+01   5.019736e+01
  -5.639731e+01  -1.959684e+01
  -7.295949e+01  -2.775166e+01
  -3.916481e+01  -7.753092e+01
   7.716218e+01  -6.100028e+01
   1.576105e+02  -3.484986e+01
   1.301535e+02   8.712671e+01
   3.761941e+01   1.350831e+02
  -7.489400e+01   1.189568e+02
  -9.639687e+01   3.045330e+01
  -1.077246e+02  -5.003169e+01
  -3.203117e+01  -6.870469e+01
  -2.796610e+01  -3.826103e+01
  -3.038722e+01  -1.867565e+01
  -3.389416e+01  -6.347553e+01
  -1.767297e+01  -6.403412e+01
   7.689078e+00  -5.374606e+01
   5.617318e+01  -2.160993e+01
   8.214130e+01   5.948886e+01
   2.386452e+01   9.525062e+01
  -6.344911e+01   3.765784e+01
  -7.900208e+01  -5.667247e+01
  -2.761674e+01  -9.777897e+01
   5.788070e+01  -5.140228e+01
   6.412450e+01   4.250139e+00
   3.817671e+01   2.336271e+01
   3.605381e+00   9.056980e+01
  -9.700192e+00   7.573018e+00
  -3.950689e+00   1.716811e+01
   2.854964e+01  -2.066239e+01
   6.593701e+01   5.839620e+00
  -4.918365e+01   7.776790e+01
  -3.841287e+01   6.544134e+01
  -3.176898e+01  -5.675777e+01
   3.311821e+01  -1.268615e+01
   2.533160e+01  -2.149458e+01
   4.346063e+01   6.793733e+01
  -1.613773e+01   7.965265e+01
  -7.561800e+01   4.786274e+01
  -3.375112e+01  -2.249981e+01
  -3.665836e+01  -5.969142e+01
   1.234269e+01  -3.218113e+01
   4.097354e+01  -9.616023e+00
   2.747473e+01   1.243075e+01
   1.749916e+01   2.788087e+01
   1.757340e+01  -2.818446e+01
   1.103325e+01  -3.148292e+00
  -3.260617e+01   1.085539e+01
   7.869109e-01   4.522791e+01
  -3.253307e+01   7.624689e+01
  -2.680607e+01   1.373551e+01
  -3.012797e+01  -4.798331e+01
   2.504068e+01  -7.952504e+01
   3.488663e+01   1.963339e+01
   5.903869e+01   7.040490e+01
  -1.654421e+01   4.584432e+01
  -1.150841e+02  -3.020182e+01
  -5.477040e+01  -2.654372e+01
   6.475147e+01  -9.316697e+00
   1.909889e+01   9.901325e-01
   2.629917e+01  -6.789553e+01
  -4.886057e+01  -2.485724e+01
  -1.361514e+01  -3.860894e+01
   8.525707e+00  -4.062014e+01
   6.550073e+01  -4.057185e+01
