
 $NMID
 id='ANONYMOUS ', fmtdat='(2E16.6)'
 volume=1.0
 tramp=1.0
 $END
   2.487883e+03   4.654155e+01
   1.782123e+03   1.306166e+03
   2.250620e+02   1.538343e+03
  -8.555022e+02   1.097846e+03
  -8.011433e+02   3.288847e+02
  -1.643372e+02  -3.792754e+01
   1.896146e+02   1.610145e+02
  -5.641501e+00   4.097254e+02
  -3.885393e+02   4.658305e+02
  -6.187227e+02   5.151140e+01
  -3.427480e+02  -4.363755e+02
  -1.626000e+01  -5.318956e+02
   2.790650e+02  -9.957070e+01
   1.294455e+02   3.736912e+02
  -7.739652e+01   4.077502e+02
  -3.115527e+02   7.836221e+01
  -2.551595e+02  -3.620701e+02
   8.432021e+01  -5.818788e+02
   4.253310e+02  -3.009093e+02
   3.797304e+02   1.252898e+02
   1.098414e+02   2.865747e+02
  -7.465687e+01   1.914992e+02
  -1.179424e+02   4.260456e+01
   1.213675e+02  -1.131326e+01
   2.509031e+02   2.163626e+02
  -5.596779e+01   2.601685e+02
  -3.814401e+02   6.696440e+01
  -5.407651e+02  -1.674769e+02
  -1.868428e+02  -3.567375e+02
   3.009365e+02  -1.485871e+02
   4.280859e+02   1.306179e+02
   1.668010e+02   3.505217e+02
  -2.351092e+02   2.794409e+02
  -4.049412e+02   1.239475e+02
  -2.915004e+02  -1.597698e+02
  -1.067100e+02  -1.936530e+02
   1.047366e+01  -1.148473e+02
   1.896385e+00   1.048126e+02
  -1.857736e+02   1.148217e+02
  -2.043897e+02  -1.596548e+02
  -7.924787e+00  -4.096579e+02
   1.900803e+02  -3.862293e+02
   3.355528e+02   5.451893e+01
   1.101993e+02   2.928809e+02
  -7.824069e+01   1.264807e+02
  -1.579699e+02  -2.304011e+02
   8.456538e+01  -3.459061e+02
   3.487758e+02  -1.032557e+02
   3.877153e+02   2.855132e+02
   1.485030e+02   4.406044e+02
  -2.073805e+02   2.214398e+02
  -3.727503e+02  -1.182269e+02
  -3.030384e+02  -2.595283e+02
   1.531425e+01  -2.155056e+02
   2.304924e+02  -7.922991e+01
   1.536207e+02  -1.399974e+01
   1.951435e+01  -2.535020e+01
  -2.219188e+01  -4.361070e+01
   5.674657e+01  -7.351551e+01
   1.830379e+02   6.942658e+01
   1.046546e+02   1.875789e+02
  -1.553252e+02   2.320068e+02
  -3.074353e+02   1.557233e+02
  -2.221869e+02  -5.578894e+01
   3.677413e+01  -2.959687e+02
   2.833802e+02  -3.196617e+02
   3.340631e+02  -1.540931e+02
   1.561157e+02   1.455829e+02
   3.594367e+00   2.326251e+02
  -1.380455e+01   2.359203e+02
  -2.048371e+01   1.361356e+02
  -2.492065e+01   8.200127e+01
  -1.238554e+02   1.245101e+02
  -2.682590e+02   5.779835e+01
  -2.328495e+02  -8.006640e+01
  -3.226438e+01  -2.568420e+02
   1.149097e+02  -1.561326e+02
   1.906242e+02   5.347268e+01
   1.312489e+02   2.279341e+02
  -1.992910e+01   2.091759e+02
  -2.061585e+02   6.921244e+01
  -2.614693e+02  -1.575127e+02
  -1.317418e+02  -2.789553e+02
   9.148415e+01  -2.649371e+02
   1.987290e+02  -1.515114e+02
   1.424193e+02  -1.025852e+02
   1.361743e+02  -9.226707e+01
   2.300075e+02  -2.855685e+01
   4.042983e+02   9.731210e+01
   3.302160e+02   2.424639e+02
   3.263094e+01   3.493831e+02
  -3.204743e+02   3.485810e+02
  -4.865572e+02   1.643942e+02
  -2.428582e+02  -8.702441e+01
  -3.317256e+01  -2.278550e+02
   1.166813e+02  -2.169115e+02
   2.081129e+01  -4.120023e+01
  -1.174004e+02   5.890588e+01
  -1.166829e+02  -2.818202e+01
  -9.453068e+00  -9.890953e+01
   1.111774e+02  -7.027566e+01
   1.026141e+02   5.824242e+01
  -5.071901e+01   7.972911e+01
  -1.665057e+02   1.656782e+01
  -2.063074e+02  -1.797019e+02
  -2.532584e+01  -2.863326e+02
   2.282660e+02  -2.039822e+02
   3.214122e+02   5.375541e+01
   2.608143e+02   2.353822e+02
   3.486414e+01   2.493208e+02
  -1.020222e+02   1.120186e+02
  -1.237034e+02  -3.619431e+00
  -4.158760e+01  -6.097435e+00
   6.772106e+01   7.598908e+01
   1.996687e-01   1.309749e+02
  -1.063853e+02   5.704566e+01
  -1.255469e+02   6.961608e+00
  -6.201135e+01  -4.179189e+01
   5.048784e+01   8.219009e+01
   2.445329e+01   1.467963e+02
  -1.494497e+02   7.847172e+01
  -2.793023e+02  -1.288064e+01
  -2.595206e+02  -1.906322e+02
  -4.245236e+00  -2.170780e+02
   1.463887e+02  -1.847225e+02
   2.401350e+02  -7.872426e+01
   9.657626e+01   5.933544e+01
  -4.919543e+01   4.670219e+01
  -9.676902e+01  -1.558062e+01
   4.892865e+01  -8.995618e+01
   1.494264e+02  -1.679505e+01
   1.520631e+02   1.138539e+02
   1.259635e+01   1.523027e+02
  -9.743983e+01   9.238494e+01
  -1.484581e+02  -1.312033e+01
  -2.685598e+01  -4.281033e+01
   8.249194e+01   5.658058e+01
   5.622720e+01   1.391329e+02
  -1.047763e+02   1.338429e+02
  -2.425238e+02   1.242864e+01
  -1.974830e+02  -1.439952e+02
   1.588499e+01  -2.016753e+02
   1.802698e+02  -1.337857e+02
   1.823696e+02   1.043272e+01
   4.838926e+00   8.286965e+01
  -1.145401e+02   6.673332e+01
  -4.523842e+01   2.021542e+01
  -1.770340e+01  -3.582168e+01
   4.369998e+01  -4.320204e+01
  -5.221756e+01   9.121209e+00
  -6.263252e+01  -3.201879e+01
  -1.043782e+02  -1.020291e+02
  -4.686487e+00  -2.059779e+02
   1.250201e+02  -1.449591e+02
   2.210803e+02  -1.922919e+01
   2.130642e+02   1.743488e+02
   7.991933e+01   1.806539e+02
  -1.060413e+02   1.155208e+02
  -8.010511e+01  -2.539734e+00
  -6.877511e+01  -4.087157e+01
  -3.786240e+01   1.747429e+01
  -2.639652e+01   4.909338e+01
  -9.841594e+01   4.796467e+01
  -8.254077e+01  -6.352593e+01
   2.450410e+01  -1.392530e+02
   9.535887e+01  -1.523522e+02
   1.239913e+02   4.221123e+01
   2.390320e+01   1.265266e+02
  -9.329811e+01   4.761957e+01
  -1.649495e+02  -6.304492e+01
  -6.769063e+01  -1.864389e+02
   1.124696e+02  -2.078624e+02
   2.388107e+02  -4.288725e+01
   2.557410e+02   7.599669e+01
   7.920981e+01   1.522615e+02
  -2.193451e+01   1.210303e+02
  -4.978768e+01   9.631515e+01
  -7.207438e+01   7.493857e+01
  -6.602959e+01   6.725643e+01
  -5.901200e+01   8.032926e+01
  -9.598360e+01   2.778109e+00
  -7.796034e+01  -1.632423e+02
   5.334192e+00  -2.133318e+02
   9.657470e+01  -1.222342e+02
   1.356985e+02   2.319168e+01
   7.984471e+01   1.242291e+02
   1.716045e+01   1.312330e+02
  -1.040483e+02   8.534264e+01
  -6.655122e+01  -3.449955e+01
   2.869565e+00  -4.256565e+00
   5.710068e+00  -3.158557e+00
  -4.068433e+01   2.290105e+01
  -1.003006e+02  -4.722770e+01
  -3.799869e+01  -8.181449e+01
   6.089224e+01  -8.826289e+01
   1.230055e+02   6.612583e+00
   1.535851e+02   6.967914e+01
   1.061591e+01   1.084379e+02
  -6.643522e+01   5.218443e+01
  -1.353602e+02  -3.026416e+01
  -5.335778e+01  -6.161371e+01
   5.681072e+01  -3.549562e+01
   5.183367e+01   5.808114e+01
  -1.523842e+00   5.804060e+01
  -8.019385e+01   6.923251e+01
  -8.233288e+01   3.407821e+01
  -3.591901e+01  -3.478589e+01
   2.642155e+00  -5.917555e+01
   1.156672e+01   4.985590e+00
  -2.176372e+01   1.910063e+01
  -3.427123e+01  -3.195391e+01
   2.009969e+01  -1.606212e+02
   1.263529e+02  -1.071988e+02
   1.705156e+02  -2.167122e+01
   8.813029e+01   1.055387e+02
  -1.189003e-01   1.524814e+02
  -1.068708e+02   8.551748e+01
  -4.947447e+01  -8.940110e-01
   6.541817e+01  -5.638432e+01
   1.143909e+02   1.802590e+01
   8.006902e+01   8.630727e+01
  -6.139917e+01   5.120221e+01
  -1.450841e+02   2.467991e+01
  -1.072955e+02  -5.228284e+01
  -3.803151e+01  -8.577005e+01
   4.417923e+01  -5.749521e+01
   7.860655e+01  -3.026111e+00
   1.261494e+00   1.846591e+00
  -7.206152e+01   1.804572e+01
  -2.591075e+01  -1.086105e+02
   8.573874e+01  -9.787620e+01
   1.120205e+02  -2.899321e+01
   5.266010e+01   1.141983e+02
  -6.319378e+01   1.666039e+02
  -8.818791e+01   1.315190e+02
  -1.043994e+02  -2.520157e+01
  -5.868211e+01  -1.158657e+02
   1.757439e+01  -1.102919e+02
   1.710086e+01   5.398802e+00
   6.835467e+01   2.262298e+01
   4.038263e+01  -3.171832e+00
   6.953340e+01  -3.298916e+01
   5.399872e+01  -1.806386e+01
   6.921869e+01   8.736287e+01
  -1.603273e+01   9.936688e+01
  -9.159619e+01   5.840348e+01
  -1.472574e+02  -4.947172e+01
  -8.644419e+01  -8.183666e+01
   3.926822e+01  -3.442191e+01
   5.668048e+01  -1.692844e+01
   9.966475e+01   3.180284e+01
   5.821938e+00   1.418092e+01
  -4.022666e+01   1.589867e+00
  -6.325947e+01  -1.729422e+01
   1.014921e+01   5.748042e+00
   2.667957e+01   1.549272e+00
  -3.245181e+01   2.222295e+01
  -8.572375e+01   1.390212e+00
  -7.731123e+00  -5.690321e+01
   5.850731e+01  -8.537421e+01
   1.423128e+02  -6.230835e+01
   1.194923e+02   1.700942e+01
   1.097641e+01   1.191440e+02
  -8.200093e+01   1.175437e+02
  -1.027259e+02   4.838218e+01
  -7.033121e+01  -4.346538e+01
   3.343372e+00  -2.968558e+01
   2.484383e+01  -4.413693e+01
  -4.002049e+01  -7.108212e+00
  -3.538164e+01  -6.326776e+01
  -4.268715e+01  -6.802067e+01
   1.820522e+01  -5.639930e+01
   5.973452e+01   2.156778e+01
   5.743296e+01   9.256976e+01
  -3.275032e+01   1.217825e+02
  -7.907643e+01   7.538755e+01
  -5.217190e+01  -5.214615e+01
  -3.684248e+01  -6.372439e+01
   6.136073e+01  -5.220120e+01
   1.035655e+02   6.609328e+00
   5.195147e+01   2.600148e+01
  -4.383914e+01   5.967968e+01
  -5.658919e+01  -9.554558e+00
  -6.569243e+00   1.227853e+01
   6.027087e+01  -3.713643e+01
   8.411965e+01   3.702865e+01
  -4.028792e+01   1.100972e+01
  -7.643305e+01   3.847976e+01
  -8.365584e+01  -2.875535e-01
  -3.266421e+01  -6.350893e+01
   6.494629e+01  -4.057114e+01
   5.141729e+01  -1.013291e+01
   5.635233e+00   2.187208e+01
   8.786788e+00   6.712027e+00
  -4.737104e+01   7.146584e+00
  -2.354981e+01  -8.763167e+01
   4.266621e+01  -5.944828e+01
   2.480703e+01  -1.633837e+01
   1.760281e+01   7.307149e+00
   1.735261e+01   1.125277e+01
  -4.261745e+01  -2.274064e+01
   2.660596e+01  -5.084015e+01
  -9.772185e+00   1.899699e+01
  -3.315574e+01   2.321265e+01
  -4.855007e+01  -1.337239e+01
  -7.677007e+00  -5.677025e+01
  -1.987190e+01  -2.347533e+01
   5.361466e+01  -2.216958e+01
   2.679996e+00   5.707185e+00
   6.707214e+01   2.431101e+01
  -3.009750e+01   2.379013e+01
  -6.498794e+01   1.659541e+01
  -6.694117e+01  -8.319276e+01
   5.853302e+01  -3.251830e+01
   1.338257e+01  -3.150065e+01
   4.444040e+01  -1.851955e+01
   1.792619e+01  -9.498091e+00
  -8.990284e+00  -4.434577e-01
   2.783848e+01  -6.279892e+01
   4.365187e+01  -2.097305e+01
