
 $NMID
 id='ANONYMOUS ', fmtdat='(2E16.6)'
 volume=1.0
 tramp=1.0
 $END
  -3.512935e+03   5.510064e+01
  -2.493903e+03  -2.140114e+03
   3.987737e+02  -2.503156e+03
   1.640645e+03  -9.945927e+02
   9.733933e+02   2.907833e+02
  -4.282726e+02   4.030677e+02
  -7.371689e+02  -2.711302e+02
  -4.491628e+01  -8.096402e+02
   6.781838e+02  -6.441969e+02
   8.396456e+02  -1.096561e+02
   4.529078e+02   8.115190e+02
  -1.185293e+02   8.145334e+02
  -5.082629e+02   7.311993e+01
  -3.028609e+02  -5.674634e+02
   1.974803e+02  -5.872829e+02
   5.839014e+02   1.045044e+01
   3.536358e+02   6.263246e+02
  -2.600477e+02   6.770716e+02
  -5.081656e+02   2.522815e+02
  -4.404106e+02  -3.134646e+02
  -7.636278e+01  -3.848968e+02
   1.896919e+02  -1.611497e+02
   1.372642e+02   2.512323e+01
  -1.879870e+02  -7.762340e+01
  -3.374967e+02  -1.156618e+02
  -1.347637e+02  -4.011885e+02
   4.373143e+02  -3.100610e+02
   7.039032e+02   1.600407e+02
   3.176509e+02   4.969272e+02
  -4.550653e+02   3.792218e+02
  -6.665935e+02  -8.548335e+01
  -2.396600e+02  -4.328147e+02
   3.527462e+02  -5.034601e+02
   5.367098e+02  -1.711185e+02
   3.441392e+02   2.415208e+02
   6.840001e+01   4.323217e+02
  -1.620395e+02   2.236482e+02
  -1.055160e+02  -1.889494e+02
   1.940554e+02  -2.598833e+02
   3.371310e+02   6.348316e+01
   9.875120e+01   6.207651e+02
  -3.199206e+02   5.837279e+02
  -4.854640e+02  -6.427894e+01
  -2.009883e+02  -4.056877e+02
   2.237157e+02  -2.355599e+02
   2.833486e+02   2.612743e+02
  -1.556418e+02   4.447902e+02
  -5.501146e+02   8.322204e+01
  -5.144897e+02  -4.014058e+02
  -1.831121e+02  -6.153993e+02
   3.906017e+02  -3.538352e+02
   5.715194e+02   7.300768e+01
   2.715468e+02   3.055904e+02
  -1.504926e+02   3.164876e+02
  -3.618791e+02   9.381499e+01
  -1.999385e+02  -1.223356e+02
   3.276211e+01  -1.108230e+02
   6.188684e+01   6.646200e+01
  -1.067416e+02   1.008791e+02
  -2.929874e+02  -2.945198e+01
  -1.049290e+02  -2.519204e+02
   1.369791e+02  -2.441512e+02
   3.274093e+02  -1.284178e+02
   2.635981e+02   6.963724e+01
   8.822747e+01   2.804788e+02
  -2.401024e+02   3.319588e+02
  -3.562328e+02   1.872443e+02
  -2.304913e+02  -1.723572e+02
  -6.525962e+01  -4.069313e+02
   1.235672e+02  -3.035103e+02
   8.148228e+01  -5.433144e+01
   2.202973e+01  -5.167960e+00
   8.962795e+01  -1.172034e+02
   2.163150e+02  -1.397970e+02
   2.540944e+02   8.858900e+01
   8.375419e+01   2.698150e+02
  -1.052440e+02   1.963188e+02
  -2.473572e+02  -6.745507e+01
  -1.565211e+02  -2.118680e+02
   6.757354e+01  -2.519374e+02
   2.574142e+02  -6.696370e+01
   3.222174e+02   1.073975e+02
   1.634085e+02   2.781476e+02
  -6.213606e+01   3.097802e+02
  -1.933225e+02   1.167509e+02
  -1.285482e+02   4.752208e+01
  -1.480534e+02   5.466942e+01
  -2.261036e+02   1.000960e+02
  -3.701339e+02  -4.969562e+01
  -3.214837e+02  -3.211866e+02
   2.081910e+01  -4.233788e+02
   3.778855e+02  -3.905494e+02
   5.140268e+02  -1.263832e+02
   3.502025e+02   1.907090e+02
   5.983602e+01   2.685772e+02
  -9.548377e+01   2.002588e+02
  -3.916801e+01   7.215963e+01
   4.167998e+01  -7.119223e+01
   1.166058e+02   1.267219e+00
  -2.489097e+01   1.556906e+02
  -1.424315e+02   8.229852e+01
  -1.396410e+02  -4.348508e+01
   8.055482e+01  -1.945809e+02
   1.959614e+02  -3.809471e+01
   1.819882e+02   2.148793e+02
  -1.350276e+01   3.105150e+02
  -2.333317e+02   1.999273e+02
  -3.128928e+02  -4.738589e+01
  -2.554862e+02  -2.822817e+02
  -6.595420e+01  -2.949322e+02
   1.301260e+02  -1.691234e+02
   1.615093e+02  -4.842134e+01
   7.602993e+01   1.131190e+01
  -8.857299e+01   6.030974e+00
   1.434072e+01  -6.818623e+01
   9.175113e+01  -4.752149e+01
   1.735019e+02   1.079121e+01
   5.647868e+01   7.204114e+01
  -5.276004e+01  -2.564426e+01
  -5.421975e+01  -7.035801e+01
   1.478495e+02  -7.227340e+01
   3.222834e+02   1.506908e+01
   2.456736e+02   1.890122e+02
   5.747484e+01   2.753915e+02
  -1.456067e+02   2.408516e+02
  -2.662230e+02   1.020887e+02
  -1.510298e+02  -8.650865e+01
   2.595313e+01  -9.210033e+01
   8.378541e+01  -2.428667e+01
  -5.888329e+01   8.633614e+01
  -1.704567e+02   1.982486e+01
  -1.420209e+02  -9.835258e+01
  -1.027947e+02  -1.839517e+02
   2.826507e+01  -1.431971e+02
   1.318708e+02  -4.153949e+01
   6.607572e+01   1.878814e+01
  -8.315232e+00  -1.074127e+01
  -4.322493e+01  -6.952772e+01
   6.547336e+01  -1.085058e+02
   1.978463e+02  -3.386395e+01
   1.958574e+02   1.383996e+02
   4.324223e+00   2.188228e+02
  -1.844219e+02   1.536265e+02
  -2.117446e+02   6.476891e+01
  -6.554229e+01  -1.266682e+02
   5.497207e+01  -6.699782e+01
   7.750795e+01  -1.694367e+01
   1.348159e+01   2.497186e+01
  -1.765339e+01   7.853768e+00
   5.364234e+01  -2.317336e+01
   5.877251e+01   1.168197e+01
   5.818858e+01   7.683957e+01
   2.051311e+01   1.223432e+02
  -8.969299e+01   1.487965e+02
  -2.328327e+02  -1.726575e+01
  -2.074115e+02  -1.696763e+02
  -6.736652e+01  -2.185968e+02
   1.005841e+02  -1.289241e+02
   1.389465e+02  -4.450262e+01
   1.437241e+02   1.383866e+01
   1.388038e+01   3.919782e+01
  -2.385575e+01   3.199201e+01
   9.527800e+00   3.820866e+00
   6.013601e+01   3.496979e+01
  -4.521370e+01   1.256036e+02
  -5.279619e+01   3.959752e+01
  -8.814199e+01  -1.369774e+01
  -1.514483e+01  -1.299003e+02
   1.232383e+02  -6.122975e+01
   1.569260e+02   3.240284e+01
   9.286276e+01   2.075889e+02
  -7.437993e+01   2.576740e+02
  -2.766309e+02   7.599693e+01
  -2.352726e+02  -8.818626e+01
  -9.939883e+01  -2.024051e+02
   8.888184e+01  -1.329128e+02
   9.501053e+01  -5.982260e+01
   7.441807e+01  -3.872133e+01
   8.330890e+01  -3.766599e+01
   5.869388e+01  -4.656958e+01
   1.449273e+02   1.688888e+01
   1.298609e+02   9.804083e+01
   6.116252e+01   1.978622e+02
  -6.894708e+01   1.586717e+02
  -2.033156e+02   4.714434e+00
  -1.376841e+02  -9.243342e+01
  -3.361835e+01  -1.626480e+02
   7.820608e+01  -7.691584e+01
   8.890038e+01   1.643335e+01
   2.869836e+00   6.211029e+01
  -3.243173e+01   7.108801e+01
   4.585320e+01  -1.740027e+00
   6.922436e+01   7.339972e+01
   3.057755e+01   4.613692e+01
  -7.591778e+01   5.888431e+01
  -1.358959e+02   2.737747e+01
  -1.617290e+02  -3.961203e+01
   3.121704e+01  -1.059938e+02
   1.000043e+02  -7.428463e+01
   1.198866e+02  -2.889616e+00
   4.692223e+01   3.218550e+01
  -1.973649e+01   7.723064e+01
  -8.789764e+01   2.233894e+01
  -4.216438e+01  -1.198888e+02
   3.943709e+01  -6.014471e+01
   7.306434e+01  -2.342204e+01
   2.931877e+01   5.175215e+01
   2.673326e+01   3.666958e+01
   6.503920e+00  -1.272773e+00
   5.402216e+01  -3.748275e+00
   8.105977e+01   4.504470e+01
   7.679221e+00   1.226519e+02
  -1.136326e+02   1.217766e+02
  -1.922188e+02  -8.245068e+00
  -9.076257e+01  -8.212834e+01
   2.178185e+00  -1.177538e+02
   8.646895e+01  -2.779901e+01
   7.197194e+01   5.494100e+01
  -4.802686e+01   3.271392e+01
  -1.053466e+02  -2.912958e+01
  -7.560991e+01  -8.049187e+01
   2.876399e+01  -1.058908e+02
   2.071676e+02  -5.692524e+01
   1.072988e+02   2.168700e+01
   3.813551e+01   9.526966e+01
  -6.547688e+01   5.470283e+01
  -3.741863e+01  -1.423360e+01
   4.636138e+01  -2.683213e+01
   8.169404e+01   5.864385e+01
   5.283484e+01   1.367056e+02
  -6.978740e+01   1.694038e+02
  -1.589671e+02   5.593260e+01
  -1.582688e+02  -9.340414e+01
  -4.621798e+00  -1.649131e+02
   1.240000e+02  -1.171034e+02
   1.060007e+02   2.331114e+01
   3.051808e+01   1.040784e+02
  -3.726340e+01   8.239882e+01
  -1.107376e+02   3.501044e+01
  -3.696708e+01  -2.630542e+01
  -3.221236e+01  -8.899677e+00
  -1.560110e+01   2.971485e+01
  -1.909482e+00  -4.498794e+01
  -4.065520e+01  -9.956778e+01
  -2.771005e+00  -1.161599e+02
   4.351939e+01  -2.886896e+01
   1.549467e+02   8.788929e+00
   1.373466e+02   8.175073e+01
   3.238120e+01   4.320337e+01
  -8.084252e+01   5.951905e+01
  -9.848686e+01  -2.581020e+01
  -1.600263e+01  -1.139949e+00
   8.270037e+01  -1.677113e+01
   4.416207e+01   2.543399e+01
  -1.202347e+01   2.895018e+01
  -5.798125e-01   2.692412e+01
   3.969627e+01   6.116765e+01
   8.128511e+01   4.155803e+01
   1.079505e+01   9.272814e+01
  -9.022527e+01   1.285863e+02
  -2.059005e+02   4.890519e+01
  -1.396104e+02  -4.976180e+01
  -2.111682e+01  -1.529740e+02
   7.791584e+01  -1.418828e+02
   1.087639e+02  -6.171452e+01
   1.362577e+02   1.244170e+01
   5.404444e-01   5.598321e+01
  -2.991428e+01  -2.556095e+00
  -2.242461e+01  -4.269413e+01
   2.143244e+01   9.905015e+00
  -6.400105e+01   5.033171e+01
  -1.074927e+01   6.907224e+01
  -7.552383e+01   8.491909e+00
  -3.932730e+01  -7.544670e+01
   9.495446e+00  -8.724755e+01
   9.639622e+01  -3.452646e+01
   9.693569e+01   7.143729e+01
   1.685414e+01   1.132550e+02
  -7.031503e+01   1.037658e+02
  -1.243509e+02   6.376613e+00
  -5.589801e+01  -5.510652e+01
   8.107769e+01  -5.091488e+01
   4.608783e+01  -5.425252e+00
  -2.189317e+01  -1.434312e+00
  -5.830523e+01  -3.128091e+01
  -4.348060e+01   1.568586e+01
   4.131420e+01  -3.034516e+01
   9.830349e+01  -4.353261e-01
   3.726519e+01   9.168196e+00
   1.859168e+00   6.566329e+01
  -3.947653e+01   6.882335e+01
  -4.243575e+01  -1.758095e+01
  -2.713379e+01  -3.429745e+01
   2.819170e+01  -5.776459e+01
   4.477210e+01   3.182490e+01
   1.968969e+00   5.071624e+01
   8.252183e+00   1.449302e+01
  -1.168056e+01  -2.717119e+01
  -7.351699e+01  -4.374007e+01
  -2.770505e+01  -2.164451e+01
   2.373168e+01   4.653008e+01
  -2.034058e+01   5.945099e+01
  -3.508850e+01  -2.764083e+01
   9.766219e+00  -6.482100e+01
  -3.720980e+00  -2.178631e+01
   3.423018e+01   2.927671e+01
   5.167355e+01   5.832020e+01
   2.409681e+01   8.022647e+00
  -2.638817e+01  -3.137007e+01
  -1.280699e+01  -7.915428e+01
   1.015907e+02   1.941229e+01
   8.497519e+01   3.479973e+01
   3.992881e+01  -1.043250e+01
  -1.187719e+01   4.001684e+01
  -5.171928e+01  -4.686894e+01
  -2.463835e+01  -9.625180e+00
  -3.539782e+00  -3.660174e+01
   4.367917e+01  -1.461132e+01
  -3.977170e+00   9.190208e+01
  -4.744344e+01   1.802492e+01
