
 $NMID
 id='ANONYMOUS ', fmtdat='(2E16.6)'
 volume=1.0
 tramp=1.0
 $END
   4.149872e+03  -1.450372e+01
   2.584368e+03   2.896717e+03
  -8.182110e+02   2.847193e+03
  -2.232011e+03   9.898049e+02
  -1.151868e+03  -7.911052e+02
   6.729995e+02  -6.963124e+02
   8.746261e+02   4.211547e+02
  -3.936392e+01   1.079646e+03
  -9.386738e+02   7.649695e+02
  -1.074747e+03  -1.086408e+02
  -4.648576e+02  -9.507118e+02
   3.023859e+02  -8.621500e+02
   6.896513e+02  -3.755481e+01
   3.859596e+02   6.539084e+02
  -3.012365e+02   7.868094e+02
  -6.375304e+02  -4.203887e+01
  -3.146247e+02  -7.036908e+02
   3.395714e+02  -5.868966e+02
   5.588130e+02  -3.620725e+01
   3.391391e+02   3.403670e+02
  -4.747578e-01   3.957265e+02
  -2.453473e+02   2.617522e+02
  -2.038455e+02  -2.791860e+01
   1.389891e+02  -6.275554e+01
   3.157818e+02   1.259820e+02
   2.348084e+02   4.721488e+02
  -4.765130e+02   4.983380e+02
  -8.503691e+02  -1.468958e+02
  -4.258615e+02  -6.093323e+02
   3.801510e+02  -5.041261e+02
   7.392097e+02   2.079286e+01
   3.438208e+02   4.737838e+02
  -2.406030e+02   6.298029e+02
  -6.070237e+02   2.082958e+02
  -4.739704e+02  -2.488593e+02
  -3.090459e+01  -4.876181e+02
   2.565853e+02  -2.816759e+02
   2.439404e+02   2.104727e+02
  -1.664053e+02   4.590596e+02
  -5.389699e+02   9.987915e-01
  -3.085944e+02  -7.288900e+02
   3.502216e+02  -7.126076e+02
   6.926687e+02   1.416857e+01
   2.464608e+02   5.460729e+02
  -3.696193e+02   3.609277e+02
  -3.825472e+02  -3.700370e+02
   9.657056e+01  -5.570737e+02
   5.921709e+02  -1.123583e+02
   5.825187e+02   4.423337e+02
   8.337972e+01   6.504705e+02
  -4.116478e+02   3.603205e+02
  -6.486081e+02  -1.454122e+02
  -3.662242e+02  -4.064118e+02
   1.974024e+02  -4.189597e+02
   4.774594e+02  -4.529089e+01
   2.357970e+02   2.664187e+02
  -1.267904e+02   1.166511e+02
  -1.518798e+02  -1.611450e+02
   2.260752e+02  -1.805676e+02
   3.441089e+02   8.288373e+01
   1.405265e+02   3.026123e+02
  -2.163214e+02   2.654281e+02
  -3.134582e+02   6.097402e+01
  -2.265242e+02  -1.139807e+02
   1.986441e+01  -2.562225e+02
   1.863050e+02  -2.870901e+02
   3.273584e+02  -2.132962e+02
   3.099780e+02   1.634026e+02
   7.961670e+01   4.038588e+02
  -1.382164e+02   3.025838e+02
  -1.487766e+02   5.981863e+01
  -3.599562e+01   1.638493e+01
  -1.841539e+01   1.321314e+02
  -1.927601e+02   1.241796e+02
  -2.718230e+02  -9.650768e+01
  -1.714086e+02  -2.852601e+02
   6.045243e+01  -1.920295e+02
   1.922204e+02  -3.022498e+01
   1.367104e+02   2.358677e+02
  -3.031280e+01   2.708026e+02
  -2.076784e+02   1.302762e+02
  -3.552105e+02  -1.634781e+02
  -1.582798e+02  -3.435377e+02
   1.339129e+02  -3.307300e+02
   2.000927e+02  -5.625795e+01
   1.205160e+02   4.407017e+01
   1.243067e+02  -2.179310e+01
   2.154730e+02  -7.337273e+01
   3.792127e+02   7.554009e+01
   3.152971e+02   3.173201e+02
  -4.681050e+01   4.486846e+02
  -3.849172e+02   4.046272e+02
  -5.306555e+02   1.765107e+02
  -3.504141e+02  -1.574501e+02
  -3.671985e+01  -2.903464e+02
   1.384927e+02  -2.535942e+02
   1.036268e+02  -5.530376e+01
  -9.343230e+01   7.552139e+01
  -2.271138e+02   5.810742e+00
  -1.423312e+01  -1.793171e+02
   2.070322e+02  -1.357065e+02
   1.765539e+02   5.980290e+01
  -4.634765e+01   2.009119e+02
  -2.257271e+02   5.815738e+01
  -2.130479e+02  -2.561362e+02
  -2.306305e-01  -3.262470e+02
   2.022983e+02  -1.881055e+02
   3.103448e+02   2.128024e+01
   2.551150e+02   2.532163e+02
   2.600884e+01   2.991483e+02
  -1.398942e+02   1.302914e+02
  -1.201405e+02   1.074588e+01
  -4.603470e+01  -5.500725e+01
   3.260031e+01   3.382183e+01
  -1.547128e+01   1.206503e+02
  -1.243734e+02   7.697407e+01
  -1.489530e+02  -4.074902e+01
   2.442033e+01  -8.237471e+01
   1.223788e+02   5.185215e+00
   2.609531e+01   1.007193e+02
  -1.168242e+02   7.714490e+01
  -3.041237e+02   1.292693e+01
  -2.925780e+02  -7.616250e+01
  -2.585833e+01  -2.851633e+02
   1.573850e+02  -2.872055e+02
   2.667269e+02  -1.651854e+02
   2.034812e+02   3.517356e+01
   3.500054e+00   1.441535e+02
  -7.089613e+01   5.462771e+01
   7.977190e+01  -1.103430e+02
   2.153005e+02  -8.696275e+00
   2.100072e+02   1.078574e+02
   5.262580e+01   1.913396e+02
  -9.919320e+01   1.277693e+02
  -1.432204e+02   4.593839e+01
  -9.856910e+01  -1.040020e+01
  -2.815186e+00  -1.329748e+01
   4.698775e+01   5.930927e+01
  -3.776244e+01   1.037712e+02
  -1.831372e+02   4.234523e+01
  -1.712563e+02  -7.968514e+01
  -7.604038e+01  -1.866421e+02
   1.934573e+02  -1.692222e+02
   2.021168e+02   2.755966e+01
   4.573483e+01   1.322228e+02
  -6.711242e+01   8.851036e+01
  -9.322337e+01   2.613230e+01
  -2.684267e+01  -1.809102e+00
   1.034266e+01  -6.376750e+01
   9.976885e+00  -4.577383e+00
  -1.005264e+02  -2.162087e+01
  -8.980255e+01  -8.074030e+01
  -2.788924e+01  -1.263355e+02
   1.111436e+02  -1.462532e+02
   1.819577e+02  -7.971191e-01
   2.015718e+02   1.544865e+02
   8.173562e+01   2.037755e+02
  -1.175495e+02   1.741535e+02
  -1.326968e+02  -2.015924e+01
  -2.862693e+01  -8.085424e+01
  -8.891706e+00  -4.395832e+01
  -5.632589e+01   2.066293e+01
  -7.524669e+01   1.805040e+01
  -7.906691e+01  -7.697277e+01
   1.565469e+01  -1.117608e+02
   9.054168e+01  -2.585485e+01
   6.625727e+01   7.770600e+01
  -2.895101e+01   9.140104e+01
  -1.206809e+02   5.848879e+01
  -1.822372e+02  -1.048501e+00
  -8.146598e+01  -1.839791e+02
   1.077431e+02  -1.829295e+02
   2.375644e+02  -1.106096e+02
   2.387384e+02   6.204702e+01
   5.846597e+01   1.554394e+02
  -3.586832e-01   1.064993e+02
  -6.246288e+01   9.434401e+01
  -8.404643e+01  -6.380224e+00
  -5.840444e+01   5.560666e+01
  -1.171244e+02   5.781932e+01
  -1.231631e+02  -3.292541e+01
  -1.026954e+02  -1.116553e+02
  -5.311829e+00  -1.682488e+02
   1.148054e+02  -1.541197e+02
   2.120092e+02  -3.874938e+01
   1.382962e+02   1.762735e+02
   2.888927e+01   1.537580e+02
  -2.601634e+01   1.151338e+02
  -5.216989e+01   2.048441e+00
   2.098258e+01  -6.683563e+01
   1.674809e+01  -6.961596e+00
  -5.685910e+01  -2.215872e-01
  -9.198490e+01  -2.384609e+01
  -7.845532e+01  -4.631785e+01
   6.835006e+01  -6.275225e+01
   1.605609e+02  -1.190603e+01
   1.532013e+02   5.938792e+01
   1.893065e+01   1.570994e+02
  -1.579105e+02   7.300665e+01
  -1.449647e+02  -1.070851e+01
  -6.053915e+01  -4.025002e+01
   4.468422e+01  -7.341731e+01
   1.121786e+02   4.234978e+01
   1.995492e+01   5.007827e+01
  -6.740424e+01   2.108798e+01
  -6.651347e+01   5.309967e+00
  -4.956327e+01  -8.437646e+01
  -9.733960e+01  -3.704331e+01
  -6.132113e+01   5.997410e+00
  -3.881426e+01   4.446046e+01
  -2.843575e+01  -6.755534e+01
   8.627159e+00  -1.740579e+02
   1.068358e+02  -1.692393e+02
   1.646969e+02  -6.081455e+01
   1.296198e+02   1.099223e+02
   2.577688e+01   1.250741e+02
  -8.437279e+01   6.842424e+01
  -3.651142e+01  -4.961462e+01
   8.528540e+01  -8.978501e+00
   8.278553e+01   5.352190e+01
   5.673993e+01   7.425259e+01
  -5.110100e+01   8.247113e+01
  -1.810100e+02   2.978968e+01
  -1.409166e+02  -3.722125e+01
  -8.034179e+00  -7.367935e+01
   5.977943e+01  -7.791381e+01
   4.677489e+01  -1.160912e+00
  -1.096711e+01   3.467806e+01
  -7.551334e+01  -2.795265e+01
  -3.262908e+01  -7.416100e+01
   1.387523e+02  -1.657178e+02
   1.695679e+02  -5.398399e+01
   1.376385e+02   1.088826e+02
   7.555203e+00   1.954401e+02
  -7.915308e+01   1.248709e+02
  -9.714577e+01   2.985648e+01
  -4.690439e+01  -9.670917e+01
  -3.225186e+01  -9.490611e+01
   5.277441e+00   3.376943e+01
   2.483643e+01  -2.639579e+01
   2.874379e+01  -6.250703e+00
  -1.908910e+01   1.162610e+00
   2.789612e+01  -1.934381e+00
   7.483592e+01   9.920773e+01
   4.990088e+01   1.403584e+02
  -9.233735e+01   3.570493e+01
  -2.050071e+02  -1.279946e+01
  -9.907042e+01  -9.220675e+01
  -1.309710e+00  -7.934124e+01
   1.236358e+02  -3.696791e+01
   8.388848e+01  -2.089236e+01
  -3.647661e+01   2.776679e+01
  -1.047855e+02   4.746279e+01
  -4.366131e+01   2.725829e+01
   1.891131e+01  -1.301944e+00
  -7.842503e+01  -3.146470e+01
  -8.338560e+01  -5.246165e+01
  -5.970572e+01  -6.583141e+01
  -5.260462e+01  -1.125054e+02
   8.437653e+01  -1.537149e+02
   1.716532e+02  -7.140398e+01
   1.239117e+02   7.857618e+01
   3.988970e+01   1.385956e+02
  -6.295612e+01   1.163287e+02
  -7.661162e+01   3.692349e+01
  -8.406814e+01  -4.641096e+01
  -1.743860e+01  -2.539655e+01
  -3.042522e+01  -1.064395e+01
  -1.314748e+01   1.282835e+01
  -6.084812e+01  -6.404883e+01
  -1.543191e+01  -1.136666e+02
   3.056173e+01  -8.595105e+01
   7.030175e+01   7.628141e+00
   6.997286e+01   1.049927e+02
  -2.241399e+01   8.342069e+01
  -9.062061e+01   1.675009e+01
  -1.001766e+02  -5.582524e+01
  -5.259250e+01  -9.807718e+01
   6.665158e+01  -6.661376e+01
   1.182150e+02   4.186321e+01
   7.420544e+01   8.927405e+00
  -4.257751e+01   4.367183e+01
   9.149151e+00   2.967430e+01
   6.452567e+01   5.419994e+00
   2.962352e+01  -2.642457e+01
  -2.892592e+00   5.442787e+01
  -7.555052e+01   4.227408e+01
  -8.950478e+01  -2.975285e+00
  -3.358559e+01  -5.594794e+01
   1.207430e+01  -5.339542e+01
   2.180600e+01   4.680042e+00
   7.740737e+00   2.658855e+01
  -4.229436e+01   3.611186e+01
  -4.399312e+00   6.188414e+01
  -8.589792e+00  -3.877093e+01
  -1.329757e+01  -6.027951e+01
  -7.111566e+00  -3.425871e+01
   5.078477e+01  -4.532605e+00
   8.179922e+00   6.830318e+01
   5.425861e+01  -1.273574e+01
   9.342809e+00  -1.386027e+01
  -2.847836e+01  -3.724379e+01
   1.209342e+01   3.739923e+01
  -2.365985e+01   2.133260e+01
  -1.049915e+01   1.454453e+01
  -1.935869e+01  -1.713580e+01
   5.461499e-01  -3.844113e+01
   3.015793e+01  -8.632271e+00
   4.542528e+01   4.398731e+01
  -1.780909e+01   7.143275e+01
  -5.483124e+01   6.263174e+01
  -1.199637e+02  -3.403038e+01
  -7.177907e+01  -4.844910e+01
   4.764949e+01  -2.081439e+01
   7.934883e+01  -2.537027e+01
   1.774705e+01  -3.242936e+01
  -3.501527e+01  -7.513735e+00
  -4.224310e+01  -1.327520e+01
   1.995344e+01  -4.582043e+01
   8.439754e+01  -2.782876e+00
