
 $NMID
 id='ANONYMOUS ', fmtdat='(2E16.6)'
 volume=1.0
 tramp=1.0
 $END
  -4.726957e+03   2.305996e+02
  -2.765644e+03  -2.847043e+03
   9.025716e+02  -2.939337e+03
   2.423027e+03  -9.209522e+02
   1.066025e+03   8.872072e+02
  -7.783390e+02   7.511333e+02
  -1.040902e+03  -4.459564e+02
  -1.205914e+02  -1.129449e+03
   8.820076e+02  -8.794020e+02
   1.004444e+03   5.762381e+01
   5.139610e+02   9.869257e+02
  -3.558820e+02   9.157492e+02
  -8.048329e+02   5.606992e+01
  -4.341539e+02  -8.167568e+02
   3.384859e+02  -7.745445e+02
   8.200252e+02  -1.499662e+01
   2.980901e+02   7.425310e+02
  -3.845370e+02   6.945335e+02
  -6.942959e+02   6.608656e+01
  -4.194134e+02  -3.462387e+02
  -8.358826e+00  -4.173017e+02
   2.812630e+02  -1.951377e+02
   2.247619e+02   5.878078e+01
  -1.245619e+02   1.321260e+02
  -4.426517e+02  -8.742951e+01
  -2.546968e+02  -5.190532e+02
   4.715281e+02  -4.185601e+02
   8.531208e+02   9.932458e+01
   4.578732e+02   6.244212e+02
  -3.627382e+02   4.981003e+02
  -8.159783e+02  -5.281238e+01
  -4.220940e+02  -5.452121e+02
   2.659515e+02  -5.822906e+02
   6.221856e+02  -2.573987e+02
   4.941665e+02   2.032440e+02
   5.717127e+01   5.046394e+02
  -2.600609e+02   3.447831e+02
  -2.209078e+02  -3.097648e+02
   2.298655e+02  -5.222707e+02
   5.682909e+02  -4.398874e+01
   2.806111e+02   7.543755e+02
  -3.736870e+02   7.332076e+02
  -7.159256e+02  -3.698553e+01
  -2.569724e+02  -6.079508e+02
   3.953132e+02  -3.924017e+02
   4.563669e+02   3.818182e+02
  -9.289433e+01   6.176377e+02
  -6.197300e+02   1.639078e+02
  -6.500369e+02  -4.680094e+02
  -1.720589e+02  -6.710676e+02
   4.771043e+02  -4.007449e+02
   6.983346e+02   9.058628e+01
   4.023145e+02   4.450445e+02
  -2.017020e+02   4.415776e+02
  -5.330367e+02   4.748539e+01
  -2.909134e+02  -2.692333e+02
   1.359825e+02  -1.761163e+02
   1.734600e+02   1.388115e+02
  -1.390365e+02   1.945769e+02
  -3.498898e+02  -4.993384e+01
  -1.651886e+02  -3.012073e+02
   2.249523e+02  -2.755443e+02
   3.404476e+02  -4.847386e+01
   1.760506e+02   1.488057e+02
  -4.112036e+01   2.127923e+02
  -2.458065e+02   3.407658e+02
  -3.458343e+02   2.539196e+02
  -3.202992e+02  -1.205773e+02
  -1.326032e+02  -4.445994e+02
   1.312930e+02  -4.005248e+02
   1.639764e+02  -6.904011e+01
   3.717696e+00   5.644275e+01
  -3.338584e+00  -1.017217e+02
   2.089905e+02  -1.545175e+02
   2.774086e+02  -1.123724e+00
   1.769610e+02   3.025876e+02
  -8.978377e+01   2.552877e+02
  -2.593815e+02  -1.568063e+01
  -2.108328e+02  -2.596937e+02
   7.108558e+01  -3.410000e+02
   3.366684e+02  -1.304050e+02
   3.522513e+02   2.180353e+02
   1.476483e+02   3.925908e+02
  -1.375312e+02   3.412846e+02
  -3.072147e+02   1.094232e+02
  -1.748287e+02  -3.926355e+01
  -9.761312e+01  -4.559524e+01
  -2.159822e+02   5.904513e+01
  -4.358003e+02  -4.240902e+01
  -3.160939e+02  -3.530673e+02
  -1.111554e+01  -4.930952e+02
   3.409628e+02  -4.542472e+02
   5.612218e+02  -2.297060e+02
   4.145619e+02   8.578934e+01
   6.198377e+01   2.812181e+02
  -1.753747e+02   2.434563e+02
  -1.314579e+02  -3.199578e+00
   1.045104e+02  -1.688164e+02
   2.722722e+02  -2.485688e+01
   1.328196e+02   1.752572e+02
  -1.455955e+02   2.086202e+02
  -1.823682e+02  -5.185408e+01
   6.178608e+01  -1.907484e+02
   2.218365e+02  -4.087682e+01
   1.284837e+02   2.864300e+02
  -1.258337e+01   3.172740e+02
  -2.863748e+02   1.916698e+02
  -3.375324e+02  -5.485849e+01
  -2.435311e+02  -2.063383e+02
  -5.658020e+01  -2.942650e+02
   1.374671e+02  -1.938026e+02
   2.070805e+02  -1.427159e+01
   3.278933e+01   2.366017e+01
  -8.510003e+01   8.102557e+00
  -3.407332e+01  -5.853584e+01
   1.517897e+02  -7.769460e+01
   2.137360e+02   4.836621e+01
   4.026902e+01   3.435050e+01
  -1.181599e+02  -2.234870e-01
  -8.068823e+01  -9.019869e+01
   1.805543e+02  -8.786296e+01
   3.059582e+02  -3.395637e+00
   2.555912e+02   1.682294e+02
   4.484428e+01   2.732193e+02
  -1.839896e+02   2.576872e+02
  -3.484023e+02   1.206356e+02
  -1.834363e+02  -7.921930e+01
   5.786465e+01  -1.370571e+02
   1.288337e+02   1.314936e+00
  -4.890365e+01   1.006365e+02
  -2.052459e+02   4.514657e+01
  -1.629770e+02  -1.113449e+02
  -2.138947e+01  -2.156280e+02
   1.279331e+02  -1.097832e+02
   1.202201e+02  -2.609564e+00
   5.123941e+01   6.111213e+01
  -3.073395e+01   1.011700e+01
  -2.781091e+01  -9.004935e+01
   5.646163e+01  -1.218013e+02
   2.175649e+02  -4.113326e+01
   2.025820e+02   1.158203e+02
   7.490509e+00   2.467278e+02
  -2.256021e+02   1.402965e+02
  -1.916460e+02   1.450569e+01
  -5.366351e+01  -1.175251e+02
   5.894815e+01  -5.276073e+01
   1.057339e+02  -5.960548e+01
   1.522914e+01   2.257665e+01
  -2.764833e+01  -1.190474e+01
  -2.205097e+01  -4.418257e+01
   6.582762e+01   2.109300e+01
   1.208244e+02   4.140253e+01
   3.309033e+01   1.574444e+02
  -9.495349e+01   1.591879e+02
  -2.500156e+02   3.532697e+01
  -2.258719e+02  -1.469898e+02
  -8.739408e+01  -1.778369e+02
   1.038302e+02  -1.977372e+02
   1.709639e+02  -1.959973e+01
   9.179780e+01   1.278466e+02
  -2.751004e+01   3.444338e+01
   1.715056e+01   1.217329e+01
   5.818097e+01  -4.277051e+01
   6.709175e+01   2.228413e+01
   7.557940e+00   6.924330e+01
  -1.370335e+02   8.665481e+01
  -1.051287e+02  -7.629397e+01
   1.167835e+01  -1.510653e+02
   1.428900e+02  -1.116623e+02
   2.401730e+02   6.883305e+01
   1.296496e+02   1.920898e+02
  -1.096807e+02   2.511257e+02
  -2.844493e+02   1.120814e+02
  -2.663461e+02  -9.153038e+01
  -6.905664e+01  -2.014169e+02
   4.455257e+01  -1.404514e+02
   8.969772e+01  -6.505000e+01
   9.443828e+01  -5.578010e+01
   3.316721e+01  -8.707029e+01
   3.163322e+01  -1.113683e+02
   1.382467e+02  -3.670667e+01
   1.358008e+02   1.554795e+02
   4.057101e+01   2.323151e+02
  -1.393437e+02   1.906120e+02
  -2.797793e+02  -1.879517e+01
  -1.629074e+02  -1.498766e+02
  -3.757154e+00  -2.069134e+02
   8.368348e+01  -1.075314e+02
   7.497236e+01   5.688519e+00
  -1.010252e+01   8.247555e+01
  -6.298501e+00   6.005632e+01
   1.934252e+01  -1.443995e+01
   9.469919e+01  -3.975594e+01
   2.345972e+01   6.434552e+00
  -3.849160e+01   4.825066e+01
  -1.627233e+02  -6.102653e+00
  -1.354292e+02  -8.955569e+01
   2.500160e+00  -1.298579e+02
   1.543084e+02  -6.876549e+01
   1.325033e+02   4.662897e+01
   5.810430e+01   9.370774e+01
  -8.416413e+01   9.588386e+01
  -1.140531e+02  -3.506565e+01
   2.321285e+01  -7.144358e+01
   4.012557e+01  -7.075664e+01
   9.943755e+01   1.333852e+01
   2.877456e+01   8.072048e+01
   3.467076e+01   4.700958e+01
   7.411952e+01  -5.737905e+01
   1.091301e+02  -3.124078e+01
   4.482782e+01   8.371884e+01
  -2.083767e+01   1.534668e+02
  -8.484853e+01   1.708581e+02
  -1.092888e+02   1.220081e+01
  -9.898709e+01  -8.948409e+01
  -6.616356e+00  -6.498500e+01
   1.079536e+02  -2.057219e+00
   3.630186e+01   6.050034e+01
  -4.315549e+01   6.690176e+00
  -1.522832e+02  -4.031726e+01
  -7.681692e+01  -1.163822e+02
   3.043205e+01  -1.069983e+02
   2.036683e+02  -5.382696e+01
   1.475739e+02   4.652454e+01
   1.601894e+01   1.479968e+02
  -6.941901e+01   5.842309e+01
  -5.125255e+01   5.604936e+00
   1.500470e+01  -1.143879e+01
   6.728694e+01   4.535885e+01
   6.975411e+01   1.218842e+02
  -8.380961e+01   1.818099e+02
  -1.289631e+02   1.078150e+02
  -1.288765e+02  -1.019142e+02
  -5.636566e+01  -1.583063e+02
   1.077491e+02  -1.606724e+02
   9.445198e+01  -3.881266e+01
   7.462717e+01   8.487459e+01
   2.037192e+00   6.448200e+01
  -3.996606e+01   9.082456e+00
  -9.429704e+01  -3.052853e+01
  -5.378240e+01  -2.085704e+01
   4.237953e+00  -1.815616e+01
  -5.766912e+00  -3.565952e+01
  -4.235847e+01  -6.591247e+01
  -1.706147e+01  -1.146405e+02
   1.010091e+02  -4.972852e+01
   1.284094e+02   1.911496e+01
   1.679313e+02   3.196742e+01
   8.038491e+00   4.491285e+01
  -8.605225e+01   6.612100e+01
  -1.051823e+02  -1.175469e+01
  -1.294297e+00  -4.093318e+01
   6.488641e+01  -4.596886e+01
   3.497251e+01  -6.917761e+01
  -3.369981e+01  -5.396389e+01
   5.719765e+00  -5.745706e+01
   1.073076e+02  -4.345988e+01
   1.255611e+02   5.395964e+01
  -1.235413e+01   5.464361e+01
  -9.075825e+01   1.327042e+02
  -1.638967e+02   8.602194e+01
  -1.124402e+02  -3.678591e+01
  -4.060501e+01  -1.382744e+02
   7.527696e+01  -1.919326e+02
   1.079943e+02  -4.081752e+01
   8.766269e+01   3.669718e+01
   1.893104e+01   5.576691e+01
   3.628831e+01  -5.344278e+00
   6.137477e+01   3.570764e+01
   3.574509e+01   6.792205e+01
   3.408536e+01   7.702406e+01
  -4.542125e+01   1.009429e+02
  -8.394214e+01  -5.256119e+01
  -5.487058e+01  -1.346004e+02
   4.561894e+01  -1.176006e+02
   9.781127e+01   2.052140e+01
   1.182217e+02   1.069610e+02
   4.785738e+01   1.257151e+02
  -5.401679e+01   1.115650e+01
  -1.181037e+02  -6.690683e+01
  -3.436096e+01  -6.061480e+01
   5.740786e+01  -7.145229e+01
   8.273233e+01  -5.847109e+01
  -2.620371e+01   7.685002e+00
  -1.244171e+02   3.898114e+01
  -4.975485e+01  -2.678627e+01
   8.223057e+01  -1.160273e+01
   1.005499e+02  -6.560868e+01
   9.122217e+01  -1.261895e+01
  -3.371900e+01   1.007721e+02
  -5.543846e+01   9.468703e+01
  -9.319550e+01  -2.867390e+01
   1.907482e+01  -6.522649e+01
   3.716436e+01  -3.331470e+01
   4.335963e+01  -2.618822e+01
   4.294246e+01   1.912562e+01
  -4.305025e+00  -1.191313e+01
  -9.460210e+01  -2.416828e+01
  -4.192462e+01  -2.283958e+01
   2.939261e+01  -2.695676e+01
  -4.527670e+01   4.639025e+01
  -1.422138e+01   1.044532e+01
   5.400621e+01  -2.913049e+01
  -6.688388e+00  -3.112342e+01
   5.114526e+01  -8.257890e+00
   3.763719e+01   6.578084e+01
   1.466681e+01   8.291730e+01
  -4.127920e+01   4.971996e+01
  -6.697247e+01   1.414262e+01
  -5.490821e+01  -9.216763e+01
   4.439568e+01  -8.108245e+01
   7.490588e+01  -1.845528e+01
   6.538744e+01   1.442416e+01
  -5.904029e+00   3.059563e+01
  -7.201595e+01   1.865538e+01
  -3.422752e+01  -1.715334e+01
   2.790157e+00   6.077475e+00
   7.990261e+01  -4.622469e+01
   5.079725e+00  -1.814409e+01
  -5.153632e+01   4.969853e+01
