
 $NMID
 id='ANONYMOUS ', fmtdat='(2E16.6)'
 volume=1.0
 tramp=1.0
 $END
  -4.296857e+03   2.632546e+02
  -2.338006e+03  -2.888239e+03
   1.281251e+03  -2.740905e+03
   2.454053e+03  -3.883505e+02
   7.899256e+02   1.140957e+03
  -9.494675e+02   7.430933e+02
  -9.931871e+02  -5.159586e+02
   9.319254e+01  -1.126474e+03
   9.430710e+02  -7.094497e+02
   9.740575e+02   3.260224e+02
   4.343347e+02   9.968237e+02
  -4.949800e+02   9.386741e+02
  -7.713322e+02   9.492650e+01
  -4.306835e+02  -6.728378e+02
   3.483272e+02  -8.199634e+02
   7.387055e+02   4.805221e+01
   2.820773e+02   7.403334e+02
  -3.402186e+02   7.353872e+02
  -5.970195e+02   6.231870e+01
  -3.037516e+02  -3.687914e+02
  -6.330944e+00  -4.103481e+02
   3.397217e+02  -2.150981e+02
   2.918161e+02   1.276989e+02
  -1.362027e+02   1.544902e+02
  -4.982485e+02  -1.170852e+02
  -2.829313e+02  -4.410132e+02
   4.259152e+02  -4.709454e+02
   8.676403e+02   7.967552e+01
   3.943616e+02   6.335153e+02
  -4.365733e+02   6.390949e+02
  -8.071163e+02  -1.874969e+01
  -4.642101e+02  -5.955647e+02
   3.127369e+02  -6.426747e+02
   6.687793e+02  -1.326575e+02
   4.370043e+02   3.196905e+02
   4.270913e+01   6.340818e+02
  -2.805974e+02   3.330575e+02
  -2.053190e+02  -2.816876e+02
   2.022829e+02  -5.008715e+02
   4.869776e+02  -1.234448e+01
   2.369426e+02   7.427249e+02
  -3.610059e+02   8.079668e+02
  -6.411927e+02   1.728452e+01
  -2.811163e+02  -6.454381e+02
   3.269199e+02  -3.469331e+02
   4.195898e+02   3.622588e+02
  -9.970263e+01   6.092193e+02
  -5.991637e+02   1.408394e+02
  -5.587365e+02  -4.681936e+02
  -8.049893e+01  -6.796081e+02
   4.009032e+02  -3.605891e+02
   6.764755e+02   1.410309e+02
   3.584249e+02   4.791939e+02
  -2.081268e+02   4.066971e+02
  -5.405140e+02   9.077084e+01
  -2.543935e+02  -2.758767e+02
   1.805889e+02  -1.219505e+02
   1.968672e+02   2.218816e+02
  -1.749562e+02   1.932201e+02
  -4.113545e+02  -1.712376e+02
  -1.808387e+02  -3.650620e+02
   1.695560e+02  -2.605956e+02
   3.282829e+02  -9.023456e+01
   2.185653e+02   7.034383e+01
   1.019836e+01   1.519115e+02
  -2.060707e+02   3.308641e+02
  -3.886697e+02   2.425435e+02
  -3.524313e+02  -1.305935e+02
  -2.589094e+01  -4.914486e+02
   1.493172e+02  -4.042631e+02
   1.446427e+02  -3.732378e+01
   4.826968e+01   4.252747e+01
   3.502563e+00  -9.703495e+01
   2.054205e+02  -1.477445e+02
   2.958910e+02   3.138284e+01
   1.902498e+02   3.036624e+02
  -7.278293e+01   2.982293e+02
  -2.478345e+02   6.121940e+01
  -1.791902e+02  -2.285952e+02
   5.056191e+01  -3.292689e+02
   3.063851e+02  -1.427231e+02
   4.244596e+02   2.068130e+02
   1.220081e+02   4.497137e+02
  -1.431305e+02   3.393275e+02
  -2.537800e+02   9.534087e+01
  -1.452388e+02  -1.899997e+01
  -6.860885e+01  -2.242026e+01
  -2.288028e+02   7.814562e+01
  -3.479876e+02  -4.740203e+00
  -3.459440e+02  -2.563438e+02
   3.565540e+01  -4.300411e+02
   4.104173e+02  -3.957165e+02
   5.327492e+02  -2.328194e+02
   4.250474e+02   1.099577e+02
   2.508803e+01   2.814574e+02
  -1.530056e+02   2.993712e+02
  -1.712082e+02   1.533812e+01
   1.199136e+02  -1.479480e+02
   2.344346e+02  -6.843565e+00
   1.188988e+02   2.438640e+02
  -2.283937e+02   2.383906e+02
  -2.005727e+02  -1.178051e+02
  -1.703155e+01  -2.806266e+02
   2.504163e+02  -5.065995e+01
   1.844866e+02   2.931646e+02
  -8.372125e+01   3.589376e+02
  -2.662244e+02   1.894212e+02
  -3.373638e+02  -4.788399e+01
  -2.968679e+02  -3.047322e+02
  -1.081332e+02  -3.505226e+02
   1.258923e+02  -1.801129e+02
   2.217683e+02   1.331130e+01
   3.488732e+01   2.031319e+01
  -5.033015e+01  -1.586230e+01
  -1.239402e+01  -1.205190e+02
   1.586478e+02  -9.696559e+01
   1.931478e+02   3.792621e+00
   5.108857e+01   1.410706e+02
  -1.109122e+02   2.545224e+01
  -9.842996e+01  -9.355185e+00
   9.768524e+01  -1.093282e+02
   2.927731e+02  -2.779209e+01
   2.663977e+02   8.284022e+01
   8.473734e+01   2.742312e+02
  -1.688380e+02   2.781570e+02
  -2.925335e+02   1.318746e+02
  -2.126250e+02  -2.998588e+01
   2.077891e+01  -8.146170e+01
   1.639459e+02   1.058605e+01
  -4.145440e+01   1.206912e+02
  -2.509681e+02   4.771803e+01
  -2.353842e+02  -1.571089e+02
  -1.087199e+02  -2.361160e+02
   6.733165e+01  -1.924650e+02
   1.710131e+02  -3.311410e+01
   8.695816e+01   3.162022e+01
   1.359580e+01  -1.497856e+01
  -2.652522e+01  -5.365353e+01
   9.861122e+01  -1.134409e+02
   2.226738e+02  -3.239834e+01
   1.680488e+02   9.125846e+01
   1.935552e+01   1.999092e+02
  -1.722428e+02   2.054215e+02
  -2.084198e+02   6.459979e+01
  -5.963197e+01  -9.488828e+01
   3.367504e+01  -1.273602e+02
   8.972692e+01  -2.568275e+01
  -3.704432e+01   4.949569e+01
  -1.551221e+01   5.191324e+01
  -2.777136e+01  -1.005759e+01
   2.325056e+01   4.117747e+01
   1.050804e+02   8.708792e+01
   3.433715e+01   1.249397e+02
  -1.103122e+02   9.428170e+01
  -2.160514e+02   3.052383e+01
  -1.772969e+02  -8.451857e+01
  -2.453139e+01  -2.364315e+02
   1.118939e+02  -1.969916e+02
   1.851718e+02   9.256598e+00
   6.547006e+01   8.315700e+01
   3.269838e+01   5.576944e+01
   6.075885e+01   1.502058e+01
   9.903859e+01   3.966090e+01
   2.418116e+01   2.957610e+00
  -3.510647e+01   5.504263e+01
  -1.140261e+02   5.165215e+01
  -6.844120e+01  -5.355098e+01
   5.239161e+00  -7.940187e+01
   1.390923e+02  -1.046669e+02
   1.975264e+02   6.590636e+01
   1.013343e+02   1.903883e+02
  -8.873422e+01   2.509629e+02
  -2.774599e+02   7.092063e+01
  -2.789259e+02  -5.147138e+01
  -1.126202e+02  -1.829635e+02
   6.213896e+01  -1.813199e+02
   8.886626e+01  -1.317421e+02
   1.002551e+02  -9.874248e+01
   1.185713e+02  -8.158963e+01
   1.233616e+02  -5.624818e+01
   1.091484e+02   3.892534e+01
   7.491754e+01   1.724238e+02
   1.522779e+01   2.228212e+02
  -1.154238e+02   1.517871e+02
  -1.971927e+02   1.812513e+01
  -1.327885e+02  -9.413837e+01
  -1.290307e+00  -1.430680e+02
   1.060754e+01  -5.635590e+01
  -1.639047e+01   1.258203e+01
  -2.137402e+01   9.475861e+01
  -5.605991e+01   3.953639e+01
   6.551817e+00   4.051271e+01
   6.559361e+01   2.587355e+01
   2.828641e+01   2.903002e+01
  -6.411628e+01   7.190030e+00
  -1.055783e+02   3.706971e+01
  -1.223944e+02  -5.282472e+01
   1.063356e+01  -1.227738e+02
   1.309310e+02  -6.779632e+01
   1.476552e+02   7.951708e+00
   4.705768e+01   4.816840e+01
  -3.282202e+01   6.905920e+01
  -7.819253e+01  -4.767961e+01
   4.712410e+01  -8.578591e+01
   3.058124e+01  -8.923509e+01
   7.355828e+01  -3.179369e+01
   4.755587e+01   6.418460e+01
   6.271113e+01   2.516727e+01
   5.793902e+01   6.741440e+01
   5.306457e+01   3.892961e+01
   1.617488e+00   5.184104e+01
  -1.783641e+01   1.466106e+02
  -1.436667e+02   1.306517e+02
  -1.868433e+02  -1.490236e+01
  -1.496893e+02  -8.336374e+01
  -4.072915e+01  -1.253104e+02
   8.713392e+01  -4.683335e+01
   3.885670e+01   4.697117e+01
  -8.630412e+01   9.791520e+00
  -1.481471e+02  -8.822321e+01
  -8.181178e+01  -1.414424e+02
   8.480380e+01  -1.229238e+02
   2.082621e+02  -5.869157e+01
   1.808231e+02   6.530586e+01
   6.261530e+01   7.452310e+01
  -2.283996e+01   9.103789e+01
  -1.199305e+00   1.518847e+01
  -1.297936e+01  -3.240254e+01
   6.873218e+01   2.504437e+01
   4.159651e+01   1.552857e+02
  -1.031573e+02   1.440627e+02
  -1.703047e+02   7.455177e+01
  -1.227242e+02  -1.185736e+02
   3.070782e+01  -2.232559e+02
   3.823124e+01  -1.453201e+02
   1.379198e+02   4.317819e+01
   5.272092e+01   8.528836e+01
   1.881239e+01   1.023814e+02
  -4.555947e+01   7.412416e+01
  -4.393215e+01   1.481424e+00
  -3.202514e+01  -1.574930e+01
  -6.652586e+00  -3.250538e+00
   1.651979e+01  -2.625936e+01
  -4.819160e+01  -6.709378e+01
  -1.571545e+01  -1.024953e+02
   4.448268e+01  -5.040030e+01
   1.490401e+02   2.008343e+01
   1.105474e+02   1.240143e+02
   3.260730e+01   3.275166e+01
  -1.127969e+02   2.601972e+01
  -7.222228e+01  -2.827046e+01
  -1.665014e+01   2.498856e+00
   1.828259e+01   7.714964e+00
   3.599933e+01  -5.599198e+01
  -1.269368e+01  -1.865834e+01
  -2.169641e+01   1.133059e+01
   5.304807e+01  -5.804673e+00
   1.192107e+02   5.319404e+01
  -2.489456e+01   7.478162e+01
  -1.493536e+02   1.138971e+02
  -1.336469e+02   1.145160e+01
  -1.568693e+02  -9.388767e+01
  -4.606142e+01  -1.702009e+02
   8.910191e+01  -1.339107e+02
   9.211558e+01  -8.948304e+01
   1.035319e+02  -3.477838e+01
   3.809301e+01   6.365179e+01
   2.127446e+01  -3.169343e+00
   2.083923e+01   3.423950e+01
  -2.875439e-01   7.421408e+01
   1.881031e+01   7.230996e+01
  -3.116652e+01   5.253061e+01
  -4.006012e+01  -3.495995e+01
  -7.027384e+01  -1.458591e+02
   2.558007e+01  -8.822509e+01
   2.230469e+01  -1.235356e+01
   6.994227e+01   6.622375e+01
   1.234309e+01   1.230223e+02
  -1.052111e+02   8.477845e+00
  -4.576290e+01  -2.146263e+01
  -3.497205e+01  -5.457477e+01
   8.483267e+01  -2.717463e+01
   6.754092e+01  -7.053237e+01
  -5.816366e+00  -1.844821e+01
  -3.939365e+01   8.864312e+00
  -7.726438e+00   3.199070e+00
   1.215938e+02  -1.213169e+01
   1.618424e+02  -7.369434e+01
   6.185565e+01   6.487129e+01
  -5.126708e+01   1.113078e+02
  -7.998229e+01   4.473703e+01
   3.132041e+01  -2.825146e+01
   1.681101e+01  -7.521053e+01
  -5.814147e+00   6.916918e+00
   6.081248e+00   3.458439e+01
   6.127382e+00   8.012059e+01
  -3.082954e+01   5.095371e+01
  -7.847378e+01   1.000059e+01
  -4.244236e+01   1.625137e+01
  -3.104725e+01  -2.540098e+00
  -5.143925e+01   5.547556e+01
  -3.006378e+01  -1.362019e+01
  -1.848952e+01  -9.406506e+01
   1.512527e+01  -4.213376e+01
   3.083664e+01  -2.619230e+01
   3.476459e+00   4.175333e+01
  -5.698053e+01   6.820044e+01
  -5.155836e+01  -5.067776e+01
  -2.723262e+01  -6.385671e+01
  -3.320424e+01  -9.029067e+01
   8.218856e+01  -3.055982e+01
   1.284496e+02  -1.289611e+01
   5.620806e+01   2.642655e+01
   3.315233e+01   5.424803e+01
  -7.019741e+01   1.068724e+01
  -1.821658e+01   2.225650e+01
   6.820662e+01  -2.523396e+01
   4.992632e+01   7.858907e+01
  -5.326424e+01   1.924296e+01
  -1.173667e+02   5.445505e+01
