
 $NMID
 id='ANONYMOUS ', fmtdat='(2E16.6)'
 volume=1.0
 tramp=1.0
 $END
   4.147088e+03  -3.815575e+02
   2.296062e+03   2.722333e+03
  -8.342634e+02   2.743264e+03
  -2.194029e+03   6.930904e+02
  -8.876647e+02  -8.086031e+02
   6.683941e+02  -6.014735e+02
   9.286402e+02   4.558046e+02
   3.408165e+01   1.063871e+03
  -8.488592e+02   6.933659e+02
  -9.800140e+02  -2.104187e+02
  -4.959461e+02  -9.495579e+02
   3.448869e+02  -8.542939e+02
   7.111011e+02  -2.970059e+01
   3.593097e+02   7.534181e+02
  -3.616532e+02   8.043825e+02
  -6.817657e+02  -1.847662e+01
  -1.863295e+02  -6.362870e+02
   3.297190e+02  -5.569502e+02
   6.354805e+02  -2.493354e+01
   3.773022e+02   4.233609e+02
   1.389987e+01   4.055943e+02
  -2.394326e+02   2.584744e+02
  -3.247813e+02  -3.501594e+01
   1.336835e+02  -1.382309e+02
   3.910791e+02   1.254866e+02
   1.632326e+02   3.452620e+02
  -4.367905e+02   3.938573e+02
  -8.009699e+02  -7.152613e+01
  -3.875323e+02  -5.406230e+02
   4.190590e+02  -5.125344e+02
   7.610719e+02   9.831675e+01
   3.400173e+02   5.354591e+02
  -2.440913e+02   5.286760e+02
  -5.813834e+02   1.176843e+02
  -3.992933e+02  -2.779130e+02
   5.698330e+00  -5.209712e+02
   3.107231e+02  -2.466240e+02
   2.186298e+02   2.555845e+02
  -1.876803e+02   5.073798e+02
  -4.816755e+02  -2.089001e+01
  -2.422914e+02  -7.068348e+02
   3.462762e+02  -6.871937e+02
   6.476047e+02  -2.725134e+01
   2.684353e+02   5.488321e+02
  -3.095037e+02   2.858459e+02
  -3.806257e+02  -3.872997e+02
   7.658844e+01  -6.011110e+02
   5.394562e+02  -1.172338e+02
   5.511006e+02   4.317559e+02
   1.043908e+02   5.998300e+02
  -3.482258e+02   3.206046e+02
  -5.888355e+02  -1.165648e+02
  -3.372473e+02  -4.330019e+02
   1.422976e+02  -3.754776e+02
   4.630909e+02   8.403739e+00
   2.393442e+02   2.372883e+02
  -1.635130e+02   1.533294e+02
  -1.438693e+02  -1.615056e+02
   1.766618e+02  -1.376740e+02
   3.404579e+02   1.315712e+02
   1.025111e+02   3.431602e+02
  -2.209514e+02   2.186713e+02
  -3.779787e+02   2.975700e-01
  -1.629885e+02  -1.180196e+02
   3.557666e+01  -2.166371e+02
   2.114568e+02  -2.632824e+02
   3.250011e+02  -2.372268e+02
   3.135937e+02   1.326823e+02
   1.183810e+02   3.765380e+02
  -1.614937e+02   3.580885e+02
  -1.127389e+02   1.127375e+02
   7.217456e+00  -5.884745e+01
  -1.222372e+01   6.769739e+01
  -1.991433e+02   1.790996e+02
  -2.731845e+02  -3.256031e+01
  -1.671861e+02  -2.965506e+02
   8.305728e+01  -2.338356e+02
   2.511440e+02  -1.271103e+01
   1.563725e+02   2.556088e+02
  -5.738480e+01   2.942024e+02
  -2.489500e+02   1.358308e+02
  -3.312713e+02  -1.633501e+02
  -1.562137e+02  -3.507585e+02
   1.413778e+02  -3.204813e+02
   2.440621e+02  -8.978070e+01
   1.396951e+02   3.250099e+01
   7.699816e+01  -2.561673e+00
   1.957278e+02  -4.822040e+01
   3.618595e+02   3.216535e+01
   3.410543e+02   2.730211e+02
   2.527352e+01   3.985301e+02
  -3.466394e+02   4.083830e+02
  -5.296605e+02   1.655351e+02
  -3.655863e+02  -1.025136e+02
  -3.287008e+01  -2.940654e+02
   1.021474e+02  -2.443410e+02
   4.959091e+01   4.708493e+00
  -1.034003e+02   1.260032e+02
  -1.791967e+02  -2.555217e+01
  -6.351797e+01  -2.471275e+02
   1.350358e+02  -1.995678e+02
   1.529181e+02   4.387572e+01
   1.409110e+00   2.210713e+02
  -2.113952e+02   5.198341e+01
  -1.662638e+02  -2.509554e+02
  -8.913831e+00  -3.383493e+02
   2.625110e+02  -1.948798e+02
   3.431080e+02   9.414383e+01
   2.529862e+02   2.200243e+02
   8.862018e+01   2.536759e+02
  -7.010211e+01   1.462333e+02
  -1.724912e+02  -1.495530e+01
  -1.142430e+01  -4.399685e+01
   1.053203e+02   5.054674e+01
   5.191547e+01   1.677822e+02
  -1.918259e+02   9.688191e+01
  -2.055375e+02  -7.290141e+01
  -6.324552e+01  -1.149537e+02
   1.292391e+02  -1.536277e+01
   9.181384e+01   7.072809e+01
  -1.203337e+02   1.335026e+02
  -2.902994e+02   6.262425e+00
  -2.904807e+02  -1.461615e+02
  -1.072724e+02  -2.846896e+02
   2.013494e+02  -2.845863e+02
   2.956113e+02  -1.264884e+02
   1.536353e+02   8.206825e+01
  -2.795097e+01   1.089595e+02
  -1.101281e+02   2.182954e+01
   3.244731e+01  -1.337216e+02
   2.241380e+02  -6.305044e+01
   2.266061e+02   7.652121e+01
   3.088399e+01   1.837826e+02
  -4.861103e+01   2.427479e+02
  -1.424793e+02   6.693832e+01
  -4.645893e+01  -5.802231e+01
   4.772148e+01  -1.806579e+01
   4.071244e+01   7.631990e+01
  -6.940711e+01   7.698583e+01
  -1.393093e+02   1.120294e+00
  -1.944506e+02  -1.370299e+02
  -2.468372e+01  -2.241989e+02
   1.784421e+02  -1.585471e+02
   2.593427e+02  -1.238557e+01
   1.175710e+02   1.198380e+02
  -3.599506e+01   1.361099e+02
  -8.274919e+01   6.978441e+01
  -8.999079e+00  -1.219806e+01
  -2.759343e+01  -2.201364e+01
  -2.596721e+01   3.772300e+01
  -5.693716e+01  -5.139088e+01
  -9.126012e+01  -9.043995e+01
   2.460727e+00  -1.821343e+02
   1.375724e+02  -1.371609e+02
   2.091897e+02  -4.972393e+01
   2.055038e+02   1.615153e+02
   4.770509e+01   2.174376e+02
  -1.266295e+02   1.600934e+02
  -1.611027e+02  -7.500099e+00
  -6.314565e+01  -5.635925e+01
  -1.159280e+01  -4.047406e+01
  -5.523518e+01   2.472430e+01
  -8.905996e+01  -4.067126e+00
  -1.346710e+01  -7.238329e+01
   5.428587e+01  -9.053638e+01
   1.146127e+02  -6.005012e+01
   1.247458e+02   2.108529e+01
   6.487721e+00   1.014685e+02
  -5.788024e+01   1.378797e+02
  -1.794128e+02  -2.440388e+01
  -1.181144e+02  -2.111499e+02
   1.095236e+02  -2.305766e+02
   3.031657e+02  -8.495855e+01
   2.397130e+02   1.474992e+02
   6.641294e+01   1.897436e+02
  -1.103073e+02   1.722731e+02
  -1.094412e+02   5.873331e+01
  -8.422991e+01   6.454101e+01
  -7.052347e+01   5.108758e+01
  -9.522152e+01   5.888878e+01
  -1.695309e+02  -7.056679e+01
  -1.012599e+02  -1.389347e+02
  -5.493624e+01  -1.918699e+02
   1.031274e+02  -1.262189e+02
   1.758491e+02  -3.541748e+01
   1.521490e+02   7.551721e+01
   5.692547e+01   1.847376e+02
  -1.014099e+02   2.997676e+01
  -7.264113e+01  -3.390998e+01
   4.136867e+01  -2.247385e+01
   2.296975e+01  -2.405841e+01
  -3.409856e+01  -1.441685e+01
  -5.293609e+01  -2.553426e+01
  -5.349013e+01  -3.301999e+01
   2.132696e+01  -3.074626e+01
   1.431841e+02   4.072280e+01
   1.321621e+02   1.470253e+01
  -1.086731e+01   8.914932e+01
  -1.535396e+02   9.717465e+01
  -1.755781e+02   1.175707e+01
  -2.938213e+01   2.228055e+01
   1.938220e+01  -5.085351e+01
   8.937624e+01   3.730978e+01
  -1.061413e+01   7.474981e+01
  -3.818416e+01   5.422056e+01
  -6.823584e+01  -7.815773e+00
  -5.814142e+01  -8.391971e+01
  -6.852652e+01  -1.543894e+01
  -4.922132e+01   2.389523e+01
  -3.007827e+01  -7.299115e-01
   6.924037e+00  -5.091268e+01
   3.490809e+01  -1.815387e+02
   8.882627e+01  -1.355393e+02
   1.466266e+02  -3.366789e+01
   1.378427e+02   1.507354e+02
  -8.502487e+00   8.451540e+01
  -8.460855e+01   6.465210e+01
  -4.446807e+01   2.882231e+00
   4.099182e+01  -1.247531e+01
   1.399161e+02   2.197229e+01
   8.840671e+01   8.393252e+01
  -7.761801e+01   1.324287e+02
  -2.142227e+02   5.685921e+01
  -2.078802e+02  -5.421469e+01
  -1.055786e+02  -4.251282e+01
   7.263816e+01  -6.827829e+01
   4.045082e+01  -1.400294e+01
  -3.682159e+01  -1.036381e+00
  -9.884794e+01  -6.819824e+01
  -4.580677e+01  -1.357591e+02
   1.022567e+02  -1.673833e+02
   1.487912e+02  -7.311554e+01
   1.301779e+02   9.970515e+01
   2.688223e+01   1.646638e+02
  -7.519643e+01   1.542362e+02
  -9.837186e+01  -1.748647e+01
  -4.921106e+01  -9.151711e+01
   8.233202e+00  -1.584941e+02
   3.182316e+01  -5.249366e+00
   9.053382e+01   5.239500e+01
   6.015056e+01   4.033854e+01
  -8.671411e+00   6.284777e+00
  -2.305020e+01   3.252509e+01
   4.515283e+01   8.819406e+01
   3.517223e+01   1.023019e+02
  -3.962094e+01   5.004543e+01
  -1.611252e+02  -2.238587e+00
  -1.838752e+02  -9.598615e+01
  -4.833713e+01  -3.458523e+01
   6.093149e+01  -1.159457e+01
   5.612487e+01  -2.609279e+01
   3.004604e+01  -7.812100e+00
  -7.279686e+01   2.794585e+01
  -3.417957e+01   5.041395e+01
   4.993580e+01   3.804033e+01
   2.874866e+01   1.614476e+00
  -6.153483e+01  -1.024587e+01
  -7.877041e+01  -3.409282e+01
  -3.511767e+01  -8.339558e+01
   9.081836e+01  -1.249223e+02
   2.041602e+02  -7.233363e+01
   1.516412e+02   1.096718e+02
   5.791419e+01   2.120877e+02
  -7.405446e+01   1.820865e+02
  -1.089795e+02   4.832713e+01
  -7.972315e+01  -5.633604e+01
  -3.306025e+01  -4.577694e+01
  -2.685785e+01  -3.241562e+00
   2.098224e+01   1.055025e+01
  -8.329041e+01  -3.892064e+01
  -1.310120e+01  -9.221208e+01
   3.909103e+01  -9.561909e+01
   7.815663e+01   6.582952e+01
   6.339969e+01   1.090690e+02
  -2.102938e+01   9.645661e+01
  -8.595707e+01   3.645853e+01
  -1.154346e+02  -8.359611e+01
  -6.161193e+01  -1.393405e+02
   9.568265e+01  -5.264959e+01
   1.214866e+02   1.345610e+01
   7.611161e+01   6.947452e+01
  -3.220585e+01   4.482485e+01
  -7.177160e+01  -1.227872e+01
   2.837091e+01  -3.103947e+01
   9.625626e+01   1.774934e+01
   5.616824e+01   5.714792e-01
  -1.092140e+02   6.637986e+01
  -1.315709e+02   3.540488e+01
  -4.708513e+01  -4.282140e+00
  -7.742712e+00  -9.736688e+01
   4.461480e+01  -9.777581e+01
   4.189034e+01   1.180655e+01
  -4.837383e+00   5.132168e+01
  -5.205977e+01   5.678414e+01
  -5.697508e+01   4.424402e-01
  -2.202382e+01  -8.367936e+00
  -7.549922e+00  -3.955124e+01
   2.687850e+01   7.287920e+01
   5.273341e+00   3.718320e+01
  -3.423303e+01   1.195553e+01
  -9.610506e+00  -5.685971e+01
  -2.124538e+01  -1.574756e+01
   1.239843e+01   4.268014e+01
  -1.094884e+01   3.441920e+01
  -3.739882e+01   2.471992e+01
   9.849663e+00  -4.083018e+01
   2.297555e+01  -6.354182e+01
   5.252702e+00  -2.152351e+01
   3.939827e+01   4.987604e+01
   1.281272e+01   5.985862e+01
  -4.957913e+01   4.492217e+01
  -3.105327e+01  -7.013705e+01
  -5.364413e+01  -4.427551e+01
   7.698473e+01   1.741915e+01
   6.856700e+01  -3.493230e+01
   1.790972e+01  -4.187448e+00
  -2.938760e+01  -4.646229e+01
   5.365650e+00  -2.761188e+01
   6.026564e+01  -6.281937e+00
   6.467232e+01   2.529352e+01
