
 $NMID
 id='ANONYMOUS ', fmtdat='(2E16.6)'
 volume=1.0
 tramp=1.0
 $END
  -3.847892e+03   2.023014e+02
  -2.347408e+03  -2.241457e+03
   5.297134e+02  -2.272383e+03
   1.707174e+03  -8.739774e+02
   8.303587e+02   2.514499e+02
  -3.665454e+02   6.032965e+02
  -7.469639e+02  -2.238387e+02
  -3.687662e+00  -8.571452e+02
   6.226091e+02  -7.129178e+02
   7.906803e+02  -5.423436e+01
   4.381962e+02   8.165505e+02
  -2.137499e+02   7.393283e+02
  -5.556740e+02   1.158271e+02
  -3.255261e+02  -5.790248e+02
   2.693566e+02  -6.048017e+02
   5.420069e+02   1.722384e+01
   2.669704e+02   5.854612e+02
  -3.440941e+02   5.977772e+02
  -5.237530e+02   1.624262e+02
  -3.132979e+02  -2.328869e+02
   3.309684e+01  -4.073500e+02
   2.516592e+02  -1.887644e+02
   1.543384e+02  -3.625502e+01
  -7.450760e+01   7.432101e+01
  -3.649494e+02  -1.132323e+02
  -1.689490e+02  -4.120512e+02
   4.749056e+02  -3.897039e+02
   7.933453e+02   1.003377e+02
   3.213063e+02   5.351659e+02
  -3.253050e+02   4.064687e+02
  -5.963096e+02  -2.490871e+01
  -2.777616e+02  -4.761713e+02
   2.664736e+02  -4.055611e+02
   4.851860e+02  -1.186299e+02
   3.640301e+02   2.146473e+02
  -1.876707e+01   3.726418e+02
  -1.558761e+02   2.349548e+02
  -9.704468e+01  -2.034004e+02
   2.317159e+02  -3.732846e+02
   3.666946e+02   5.341511e+01
   1.888377e+02   6.230173e+02
  -3.124041e+02   5.982813e+02
  -5.129214e+02  -1.722549e+01
  -1.789491e+02  -4.820730e+02
   3.436594e+02  -2.947283e+02
   3.932172e+02   3.146354e+02
  -7.468621e+01   5.065203e+02
  -5.278726e+02   1.526912e+02
  -5.563161e+02  -3.972573e+02
  -1.678099e+02  -5.787994e+02
   4.485676e+02  -3.034166e+02
   5.886718e+02   9.497862e+01
   3.346534e+02   3.906937e+02
  -1.645901e+02   2.882662e+02
  -4.072828e+02   3.669577e+01
  -2.224680e+02  -1.933485e+02
   6.872693e+01  -7.984978e+01
   1.217821e+02   1.547338e+02
  -1.351841e+02   1.731638e+02
  -3.081276e+02  -9.398240e+01
  -1.115985e+02  -2.857448e+02
   1.955552e+02  -2.391986e+02
   3.728262e+02  -4.647646e+01
   1.995991e+02   9.744311e+01
  -2.323540e+01   2.619156e+02
  -1.994233e+02   3.257994e+02
  -3.477681e+02   2.255935e+02
  -2.558712e+02  -1.863567e+02
  -5.711085e+01  -4.229651e+02
   1.171629e+02  -3.886819e+02
   7.753410e+01  -8.396062e+01
   8.056371e+00   1.164166e+01
   6.104868e+01  -9.102713e+01
   1.758135e+02  -9.371863e+01
   2.129260e+02   9.789322e+01
   1.117402e+02   2.793834e+02
  -9.764069e+01   2.419638e+02
  -1.862057e+02  -8.393030e+00
  -1.725503e+02  -2.107471e+02
  -4.238129e+01  -2.912699e+02
   2.097971e+02  -1.175459e+02
   3.594193e+02   1.505039e+02
   1.885991e+02   2.987300e+02
  -4.787964e+01   3.307046e+02
  -1.756700e+02   1.154000e+02
  -1.194032e+02   2.849446e+00
  -9.844567e+01   4.655148e+01
  -2.588477e+02   5.605296e+01
  -3.964740e+02   8.791541e+00
  -2.995411e+02  -2.533824e+02
  -9.913239e+00  -4.194446e+02
   3.406552e+02  -4.285175e+02
   4.111325e+02  -1.738360e+02
   3.461070e+02   7.885882e+01
   7.341854e+01   2.427901e+02
  -3.875385e+01   2.339596e+02
  -5.244710e+01   5.498798e+00
   1.238458e+02  -7.992147e+01
   1.161877e+02   1.867743e+01
   4.827262e+00   1.760636e+02
  -1.706794e+02   1.282189e+02
  -1.959499e+02  -1.195820e+02
   3.512611e+01  -1.870352e+02
   2.054938e+02  -1.489396e+01
   2.015376e+02   2.116313e+02
  -3.699762e+01   3.350894e+02
  -2.319571e+02   1.586118e+02
  -3.143313e+02  -4.582979e+01
  -2.718585e+02  -2.035444e+02
  -1.336717e+02  -2.426236e+02
   1.353269e+02  -8.909234e+01
   1.451715e+02   1.848917e+01
   1.430139e+01   1.954738e+00
  -4.857429e+01  -2.541402e+01
  -1.595838e+01  -1.555013e+02
   1.105102e+02  -8.927028e+01
   2.131913e+02   4.456826e+01
   9.736319e+01   1.034216e+02
  -5.532134e+01   1.314806e+01
  -6.847636e+01  -7.443319e+01
   7.000529e+01  -9.384716e+01
   2.317821e+02   3.221697e+01
   2.537054e+02   1.119191e+02
   9.333992e+01   2.074958e+02
  -1.541314e+02   2.485652e+02
  -2.720421e+02   1.143303e+02
  -1.085597e+02  -2.461349e+01
   4.523425e+01  -8.469549e+01
   7.915901e+01  -6.837963e+00
  -7.240310e+01   1.184694e+02
  -1.805524e+02   7.124070e+01
  -1.987953e+02  -6.999090e+01
  -4.339368e+01  -1.671090e+02
   6.042669e+01  -1.657432e+02
   8.457240e+01  -2.572730e+01
   5.180858e+01   7.416595e+01
  -8.418604e+00  -1.843611e+01
  -4.769018e+01  -7.436270e+01
   6.809287e+01  -1.395613e+02
   1.817943e+02  -3.558876e+01
   1.799592e+02   8.345998e+01
  -1.396422e+01   1.919888e+02
  -1.709871e+02   1.142880e+02
  -1.852830e+02   7.952962e+00
  -4.632065e+01  -1.181622e+02
   9.312675e+01  -1.152621e+02
   8.392659e+01  -2.312872e+01
   9.308535e+00  -4.084133e+01
   2.955973e+00   2.966925e+01
  -3.661767e+01  -1.065987e+01
   6.957361e+01   1.743970e-01
   6.198141e+01   5.673065e+01
   4.096771e+01   1.458846e+02
  -1.048282e+02   1.925566e+02
  -1.789591e+02   4.459668e+01
  -1.800050e+02  -1.547775e+02
  -2.993205e+01  -1.999263e+02
   1.056912e+02  -1.436584e+02
   1.237926e+02  -2.211116e+01
   8.079829e+01   4.523106e+01
   4.088302e+01   9.597689e+01
   4.803313e+01   2.129339e+01
   4.201424e+01  -4.455953e+01
   3.161811e+01   8.613989e+01
  -4.148019e+01   7.989257e+01
  -1.014250e+02   7.955525e+01
  -8.881503e+01  -1.643820e+01
   1.398344e+01  -1.541031e+02
   1.422054e+02  -9.167919e+01
   2.062917e+02   5.103270e+01
   6.872923e+01   1.826700e+02
  -9.179067e+01   2.314225e+02
  -2.784731e+02   8.831791e+01
  -2.224884e+02  -1.148266e+02
  -1.117203e+02  -1.518288e+02
   6.213799e+01  -1.073647e+02
   1.210945e+02  -9.511107e+01
   7.659354e+01  -4.329250e+01
   6.112792e+01  -1.156131e+02
   9.833972e+01  -8.386947e+01
   1.221248e+02   1.188182e+01
   9.198543e+01   1.613023e+02
   4.788286e+01   2.218678e+02
  -9.846774e+01   1.311066e+02
  -2.037097e+02   4.404397e+01
  -1.074942e+02  -1.293729e+02
   6.851286e+00  -1.303629e+02
   1.168826e+02  -8.388628e+01
   8.856709e+01   7.028030e+00
  -8.291613e+00   8.102487e+01
  -5.457072e+00  -6.348599e+00
   4.366819e+01   9.944262e+00
   1.057386e+02  -1.471655e+01
   8.564289e+01   2.121104e+01
  -4.689660e+01   6.381869e+01
  -1.666518e+02  -1.554962e+01
  -1.607062e+02  -6.087428e+00
  -2.853115e+00  -1.267621e+02
   1.708509e+02  -5.357231e+01
   1.470052e+02  -4.886839e+01
   2.936894e+01   4.852121e+01
  -4.057046e+01   7.542938e+01
  -7.219296e+01  -1.424465e+01
   2.888270e+01  -1.968938e+01
   7.603647e+01  -7.098128e+01
   4.195717e+01   3.289455e+01
   3.352221e+01   8.351817e+01
   3.639277e+01   3.504863e+00
   1.692664e+01  -7.290328e+00
   1.875629e+01  -1.723482e+01
   1.346956e+01   8.196551e+00
  -1.104774e+01   1.722503e+02
  -1.288963e+02   1.644770e+02
  -1.689277e+02   7.837189e+01
  -1.150248e+02  -4.120596e+01
   2.991458e+01  -1.088690e+02
   7.925233e+01  -5.360067e+01
   1.102813e+02   3.315510e+01
  -4.936155e+01   7.439288e+01
  -1.165013e+02  -3.469051e+01
  -6.046922e+01  -1.149717e+02
   4.387672e+01  -9.803510e+01
   1.396698e+02  -2.799643e+01
   1.702409e+02   3.000417e+01
   2.673788e+01   4.399763e+01
  -9.023038e+01   6.806607e+01
  -7.579411e+01   8.106197e+00
   5.993355e+01  -7.571295e+01
   1.115132e+02   1.894542e+01
   1.569533e+01   4.522077e+01
  -1.253285e+02   1.408161e+02
  -1.744098e+02   5.644220e+01
  -1.158416e+02  -1.119399e+02
  -1.483604e+01  -1.910874e+02
   6.383969e+01  -1.257549e+02
   7.756828e+01  -2.003218e+01
   1.070728e+02   1.070572e+02
   1.448088e+01   7.905457e+01
  -4.972350e+01  -1.486894e+01
  -1.743393e+01  -4.566851e+01
   4.752220e+00  -2.810981e+00
   1.479040e+01   1.772056e+01
  -1.500392e+01   1.158373e+01
  -1.094062e+02  -1.045459e+02
  -4.178050e+01  -9.837436e+01
   4.535652e+01  -8.165989e+01
   1.550574e+02   2.704275e+01
   9.247998e+01   9.707884e+01
   3.253372e+01   2.959058e+01
  -9.008718e+01   2.371976e+01
  -7.447791e+01   5.779341e+01
  -4.135243e+01  -2.628831e+01
   2.624990e+01  -8.632275e+00
  -4.041843e+00  -1.290376e+01
   5.417524e+01  -1.175140e+01
   5.250393e+00   3.893748e+01
   4.783897e+01   4.941983e+00
   1.237854e+02   1.507002e+01
   3.393707e+01   8.767371e+01
  -1.944237e+02   1.098426e+02
  -1.669097e+02   1.898520e+01
  -1.505807e+02  -5.350401e+01
  -4.102603e+01  -1.116986e+02
   1.137954e+02  -1.497882e+02
   1.023171e+02  -5.608546e+01
   5.725736e+01   3.782527e+00
   7.329173e+01   2.456687e+01
   8.595199e+00   5.009120e+01
   2.313821e+01   4.004941e+01
  -1.767340e+01   2.358117e+01
   1.517827e+01   5.636370e+01
  -4.341520e+01   4.037209e+01
  -8.342009e+01  -1.567051e+01
  -3.630466e+01  -1.170179e+02
  -2.396606e+01  -1.616133e+02
   7.323492e+01  -5.714089e-02
   1.051647e+02   6.739673e+01
   1.738824e+01   1.085598e+02
  -5.216926e+01   4.274668e+01
  -6.343582e+01   7.741409e+00
  -4.444583e+01  -7.745876e+00
  -1.743493e+01  -5.472121e+01
   3.418387e+01  -4.814686e+01
  -4.583947e+01  -3.059895e+00
  -4.193005e+01  -8.176497e+00
  -4.973127e+01  -4.860243e+01
   7.567349e+01  -6.506662e+01
   1.302664e+02  -9.978503e+01
   2.251748e+01  -9.235485e+00
  -1.923688e+01   6.207819e+01
  -5.609205e+01   8.459433e+01
  -5.991906e+01   9.473960e+00
   7.191689e+01  -3.004047e+01
  -2.797483e+00  -3.689715e+01
   9.101237e-01   1.740685e+01
  -1.137427e+01   4.993147e+01
   3.784327e+01   4.424914e+01
   1.834464e+01   1.136684e+01
   4.239590e+01  -3.045827e+01
  -5.477945e+01  -1.305226e+00
  -2.478922e+01  -1.900386e+01
   1.397345e+01  -1.273889e+01
   3.876506e+00  -2.842770e+01
  -6.585480e+00  -5.747256e+01
  -2.318337e+01   3.846941e-01
   4.857082e+01   8.095312e+01
  -3.228868e+01   5.060105e+01
  -2.325230e+01  -2.885248e+01
  -2.930156e+01  -8.120213e+01
   4.026025e+01  -7.535408e+01
   4.867677e+01  -5.613549e+01
   5.456192e+01  -6.942367e-01
   4.365688e+01   5.049703e+01
  -4.962924e+01  -1.380912e+01
  -5.984844e+00  -2.838779e+01
  -1.381839e+01   1.596906e+01
   2.572759e+01   6.947330e+01
   1.847280e+01   4.269301e+01
  -6.182326e+01   6.727343e+01
  -8.163602e+01  -3.746550e+01
