
 $NMID
 id='ANONYMOUS ', fmtdat='(2E16.6)'
 volume=1.0
 tramp=1.0
 $END
   3.570498e+03  -2.396914e+02
   2.158299e+03   1.965392e+03
  -1.771299e+02   2.249088e+03
  -1.390801e+03   1.115725e+03
  -9.716112e+02  -3.808212e+01
   7.163627e+01  -1.892607e+02
   4.293974e+02   1.268451e+02
   5.798162e+01   6.046819e+02
  -4.906800e+02   6.621772e+02
  -6.647853e+02   6.689371e+01
  -3.611649e+02  -5.268123e+02
   5.335692e+01  -5.804733e+02
   2.882120e+02  -1.513278e+02
   2.625626e+02   4.010582e+02
  -1.199733e+02   5.065264e+02
  -3.228161e+02   7.616787e+01
  -2.603245e+02  -4.739825e+02
   1.812838e+02  -5.839798e+02
   4.802012e+02  -1.833455e+02
   3.678891e+02   2.232379e+02
   8.447434e+01   2.930196e+02
  -1.483581e+02   2.460752e+02
  -9.586797e+01  -1.245470e+01
   1.458208e+02   9.484633e+01
   3.335637e+02   2.156467e+02
   5.166833e+01   3.694885e+02
  -4.729388e+02   2.377929e+02
  -5.925451e+02  -1.595274e+02
  -1.843831e+02  -4.020997e+02
   3.656907e+02  -2.711235e+02
   5.478985e+02   2.118015e+02
   2.257509e+02   4.264854e+02
  -2.823339e+02   3.973069e+02
  -4.784360e+02   7.757123e+01
  -3.350789e+02  -1.832210e+02
  -4.659316e+01  -3.202468e+02
   9.723383e+01  -1.414036e+02
   2.948205e+00   1.680696e+02
  -1.864734e+02   2.573377e+02
  -2.889579e+02  -9.407280e+01
  -1.171701e+02  -5.504031e+02
   2.272983e+02  -4.304104e+02
   3.471474e+02   1.980477e+01
   1.436633e+02   4.048051e+02
  -1.850263e+02   1.619808e+02
  -1.640845e+02  -2.861356e+02
   1.067465e+02  -4.044608e+02
   4.394871e+02  -7.913387e+01
   4.457685e+02   3.699301e+02
   1.116296e+02   5.142142e+02
  -3.240410e+02   3.045957e+02
  -4.915675e+02  -6.697854e+01
  -3.247071e+02  -2.758879e+02
   5.129244e+01  -2.358534e+02
   2.355597e+02  -6.346907e+01
   1.700783e+02  -1.078388e+01
  -3.203168e+01  -2.493907e+01
  -5.899807e+01  -9.661143e+01
   7.653509e+01  -4.107790e+01
   2.088935e+02   6.528020e+01
   1.558977e+02   1.595507e+02
  -1.255223e+02   2.035233e+02
  -3.090158e+02   9.877809e+01
  -2.691681e+02  -9.119710e+01
   2.723745e+01  -2.886672e+02
   2.890077e+02  -3.647803e+02
   3.321967e+02  -1.259791e+02
   2.418586e+02   1.965419e+02
   5.257930e+01   3.769933e+02
  -1.009997e+01   3.346355e+02
  -1.016225e+02   1.642028e+02
  -5.001991e+01   7.495681e+01
  -1.722381e+02   1.136378e+02
  -2.484938e+02   2.837766e+01
  -2.754547e+02  -9.741985e+01
  -8.697678e+01  -2.719060e+02
   6.684609e+01  -2.132623e+02
   1.676509e+02  -6.520682e+00
   1.630052e+02   2.333379e+02
   4.476712e+00   2.551645e+02
  -2.118380e+02   4.574972e+01
  -3.063008e+02  -2.032239e+02
  -1.636485e+02  -2.937869e+02
   3.495810e+01  -2.143182e+02
   1.692485e+02  -1.447477e+02
   1.079206e+02  -1.028207e+02
   1.314489e+02  -9.149122e+01
   2.735999e+02  -3.318782e+01
   4.171231e+02   7.998545e+01
   3.288060e+02   3.084175e+02
   2.294959e+00   4.203756e+02
  -3.450235e+02   3.916881e+02
  -5.110520e+02   1.438018e+02
  -3.387956e+02  -8.044940e+01
   2.862177e+00  -2.720922e+02
   1.203251e+02  -2.075965e+02
  -9.438798e+00  -9.541290e+00
  -1.545752e+02   2.490121e+01
  -1.284607e+02  -4.071678e+01
  -1.894137e+01  -1.250399e+02
   1.455907e+02  -1.401057e+02
   5.908019e+01   2.841756e+01
  -3.023834e+01   8.768673e+01
  -1.507339e+02  -7.655535e-02
  -1.114407e+02  -2.480843e+02
   7.143655e+01  -3.234585e+02
   2.229704e+02  -2.112526e+02
   3.726117e+02   7.305874e+01
   2.641109e+02   2.455144e+02
   5.711742e+01   3.061744e+02
  -1.039426e+02   1.019251e+02
  -1.195482e+02  -7.349026e+00
  -2.767238e+01   2.028388e+00
   6.985897e+01   4.616682e+01
  -4.685067e+01   1.184581e+02
  -8.354023e+01   7.532294e+01
  -1.530757e+02   2.320965e+01
   1.888703e+00  -3.601831e+01
   8.834835e+01  -7.825860e-01
   2.762248e+01   1.679080e+02
  -1.567187e+02   1.457979e+02
  -3.263979e+02  -1.123827e+01
  -2.874206e+02  -1.811647e+02
  -4.133598e+01  -2.942167e+02
   2.037580e+02  -2.159385e+02
   2.603904e+02  -8.678815e+01
   1.141108e+02   8.038328e+01
  -3.547435e+01   9.120305e+01
  -6.972299e+01  -4.304088e+01
   7.946606e+01  -8.953113e+01
   2.047728e+02  -2.050688e+01
   1.903005e+02   1.156900e+02
   5.737201e+00   2.141759e+02
  -1.320471e+02   1.035981e+02
  -1.383373e+02   3.327629e+01
   2.198590e+01  -6.598711e+01
   8.234068e+01   2.978769e+01
   2.679285e+01   9.904847e+01
  -1.360443e+02   1.097623e+02
  -1.934816e+02  -2.761565e+01
  -1.856592e+02  -1.341803e+02
  -2.235263e+01  -1.964441e+02
   1.681742e+02  -1.304262e+02
   2.089124e+02  -2.534883e+01
   1.044211e+01   9.974486e+01
  -4.857699e+01   1.096140e+02
  -2.156536e+01   1.253620e-01
   1.634792e+00  -2.098484e+01
  -1.474652e+00   4.475370e+01
  -2.691870e+01   4.684074e+01
  -1.090561e+02   4.324735e+01
  -9.770498e+01  -1.096774e+02
  -3.752961e+01  -1.650298e+02
   1.704824e+02  -1.935502e+02
   2.328190e+02  -8.585197e+00
   1.933185e+02   1.503934e+02
   5.984361e+01   2.424617e+02
  -1.575190e+02   1.671910e+02
  -1.257914e+02   4.226574e+01
  -9.233027e+01  -5.928727e+01
  -9.541751e+01  -4.532999e+01
  -2.079705e+01  -4.869865e+01
  -6.708550e+01  -1.247184e+01
  -7.592827e+01  -4.911311e+01
   4.120949e+01  -8.410317e+01
   1.089260e+02  -8.939671e+01
   1.435955e+02   6.683185e+01
  -1.173547e+01   1.106313e+02
  -1.663640e+02   7.701649e+01
  -2.236124e+02  -6.174582e+01
  -8.881982e+01  -2.008471e+02
   1.377577e+02  -2.351050e+02
   3.181936e+02  -5.010105e+01
   2.536169e+02   1.290125e+02
   1.480671e+02   1.573031e+02
  -4.311938e+01   1.134360e+02
  -3.785268e+01   8.632873e+01
  -4.841255e+01   6.662231e+01
  -4.788351e+01   5.420535e+01
  -9.112282e+01   1.030763e+02
  -1.161408e+02  -3.405577e+01
  -9.417263e+01  -1.695395e+02
  -7.142866e+00  -2.129750e+02
   1.321843e+02  -1.057723e+02
   1.585903e+02   3.703798e+00
   1.138354e+02   1.684596e+02
   3.372218e+01   1.408852e+02
  -7.581498e+01   8.741016e+01
  -5.722160e+01  -3.566203e+01
  -1.127213e+01  -6.648719e+01
   4.935044e+01  -6.564092e+00
  -1.649137e+01  -1.351715e+01
  -5.016859e+01  -4.273550e+01
  -4.121232e+01  -1.778001e+01
   8.916634e+01   9.961750e+00
   1.473438e+02  -8.934962e+00
   1.692321e+02   7.223480e+01
  -1.972420e+01   8.965282e+01
  -1.378590e+02   5.967482e+01
  -1.308185e+02   1.306519e+01
  -7.516934e+01  -5.554519e+01
   6.813973e+01  -2.518340e+01
   9.098576e+01   2.649174e+01
   1.134744e+01   9.117514e+01
  -9.146538e+01   5.852657e+01
  -8.349911e+01  -5.900369e+00
  -5.628071e+01  -7.373863e+01
  -5.636430e+01  -4.994716e+01
  -5.567799e+01  -2.480592e+01
  -5.890932e+01   1.556859e+01
  -3.652728e+01  -6.453982e+01
   4.006707e+01  -1.588272e+02
   1.794198e+02  -1.477186e+02
   1.486002e+02  -3.519043e+01
   9.656948e+01   1.891829e+02
  -1.663783e+01   1.232386e+02
  -5.063187e+01   9.370754e+01
  -8.265639e+01  -1.049673e+00
   5.381290e+01  -7.977491e+01
   1.208923e+02   3.561845e+01
   6.087327e+01   1.265884e+02
  -8.512946e+01   1.275211e+02
  -1.665918e+02   8.621980e+01
  -1.414816e+02  -2.588767e+01
  -2.905985e+01  -7.168127e+01
   5.975244e+01  -6.342691e+01
   4.621220e+01   4.510021e+00
  -4.283367e+01   9.435681e+01
  -1.254773e+02  -3.077526e+01
  -2.966889e+01  -1.068346e+02
   5.594676e+01  -1.719488e+02
   1.277928e+02  -8.963857e+01
   1.394636e+02   8.173193e+01
   8.335271e+00   1.444052e+02
  -6.800920e+01   1.422240e+02
  -1.111746e+02  -2.793851e+01
  -6.264934e+01  -9.879982e+01
   4.727273e+01  -1.020125e+02
   5.395048e+01   1.162630e+01
   6.107187e+01   6.545955e+01
   4.722711e+01   2.833048e+00
   1.705419e+00  -2.100130e+01
   1.915910e+01   1.022384e+01
   3.778415e+01   6.669311e+01
   4.483516e+01   7.979321e+01
  -4.514033e+01   6.240695e+01
  -1.212164e+02   2.106021e+01
  -1.454537e+02  -8.304871e+01
  -2.560059e+01  -5.732947e+01
   8.685858e+01  -5.993496e+01
   1.146429e+02  -1.060403e+01
   4.997894e+01   7.863083e-01
  -2.223841e+01   4.204612e+01
   3.649742e+00   6.373246e+00
   4.857486e+01  -6.172432e+00
   1.150215e+01  -1.740164e+01
  -3.538263e+01  -4.316415e-01
  -1.023393e+02  -1.986184e+01
  -2.710357e+01  -3.379111e+01
   8.839674e+01  -8.826284e+01
   1.993619e+02  -5.991285e+01
   1.500472e+02   2.396989e+01
   5.781098e+01   1.443173e+02
  -7.368837e+01   1.271278e+02
  -8.932184e+01   8.388836e+01
  -8.303143e+01   4.353618e+01
   4.287255e+00  -5.588702e+01
  -2.158474e+01  -9.901255e+00
  -1.188369e+01  -2.809705e+01
  -1.021572e+01  -7.940112e+00
   3.770450e+01  -6.319349e+01
   3.872142e+01  -1.498799e+01
   5.484517e+01   1.213803e+01
   6.563189e+01   7.892771e+01
  -3.121174e+01   1.341998e+02
  -1.177913e+02   7.523201e+01
  -8.167567e+01  -4.565008e+01
  -2.777146e+01  -5.674398e+01
   3.378454e+01  -8.133546e+01
   1.970860e+01   1.568567e+01
   2.841791e+01   5.305299e+01
  -1.836859e+01   7.612255e+01
  -8.955239e+00   2.913669e+01
  -1.489103e+01  -3.752516e+01
   5.089923e+01  -4.224698e+01
   3.359068e+00   1.318005e+01
  -7.833564e+01   3.763608e+01
  -1.329763e+02   7.194075e+01
  -6.056492e+01  -3.915601e+01
   4.728242e-01  -7.495196e+01
   5.082766e+01  -8.526648e+01
   6.996315e+01   3.958178e+01
   5.135578e+01   5.482400e+01
  -5.411652e+01   5.062852e+01
  -3.484385e+01   1.637097e+01
  -6.713198e+01  -5.518583e+01
  -1.075916e+01  -8.825292e+00
   3.056865e+00  -3.942468e+00
  -1.013259e+01   6.570062e+01
  -1.870942e+01   4.151458e+00
  -4.459112e+01  -5.030589e+01
  -1.833457e+01  -2.888392e+01
  -2.416332e+01   2.780890e+00
  -1.588040e+01   5.252203e+01
   1.182483e+01   3.134730e+01
  -3.472383e+01   2.643132e+00
   3.679655e+01  -4.859741e+01
   5.499872e+01  -3.844764e+01
   3.502918e+01  -1.424783e+01
   4.733633e+01   2.173716e+01
  -3.037707e+01   2.195749e+01
  -5.888226e+01  -7.118629e+00
  -6.261610e+01  -2.110359e+01
   1.509760e+01  -6.065908e+01
   1.038972e+02  -2.261364e+01
   2.813125e+01  -1.650355e+01
  -2.832739e+01   4.617125e+00
  -4.476737e+01   1.780711e+01
   3.311358e+01  -2.953847e+01
   5.763841e+01  -4.469200e+00
