
 $NMID
 id='ANONYMOUS ', fmtdat='(2E16.6)'
 volume=1.0
 tramp=1.0
 $END
   4.351245e+03   4.146726e+01
   2.682258e+03   2.542667e+03
  -5.707719e+02   2.963944e+03
  -2.081039e+03   1.057136e+03
  -1.170134e+03  -5.154327e+02
   6.749195e+02  -6.005932e+02
   1.025222e+03   4.282619e+02
   4.643246e+01   9.751305e+02
  -8.140665e+02   8.942374e+02
  -8.616498e+02  -3.685442e+01
  -4.173487e+02  -8.613817e+02
   3.100143e+02  -9.602776e+02
   6.948271e+02  -1.894959e+02
   4.359389e+02   8.395777e+02
  -2.649436e+02   9.180564e+02
  -6.581532e+02   1.562585e+01
  -3.162228e+02  -7.188587e+02
   2.797952e+02  -6.704359e+02
   5.998403e+02  -1.393978e+02
   3.634339e+02   4.210531e+02
   2.885099e+01   4.601890e+02
  -2.584543e+02   3.251651e+02
  -1.755182e+02  -2.611332e+01
   6.656418e+01  -1.561802e+02
   4.313995e+02   1.637961e+02
   1.914235e+02   4.723596e+02
  -4.915762e+02   4.356461e+02
  -8.845461e+02  -4.220298e+01
  -5.632649e+02  -5.921100e+02
   4.145819e+02  -4.630912e+02
   8.444576e+02  -6.252940e+00
   3.870454e+02   5.205882e+02
  -3.220363e+02   5.340779e+02
  -6.247614e+02   2.127087e+02
  -4.482246e+02  -2.365642e+02
  -1.084302e+02  -4.666882e+02
   2.215237e+02  -3.265901e+02
   1.306642e+02   1.982487e+02
  -1.377441e+02   4.258929e+02
  -4.665721e+02  -5.774414e+01
  -3.001384e+02  -7.392993e+02
   2.939923e+02  -7.311858e+02
   5.896734e+02  -1.157752e+01
   2.637339e+02   5.923245e+02
  -3.341214e+02   3.109815e+02
  -3.674679e+02  -3.494462e+02
   6.159381e+01  -5.964424e+02
   5.925476e+02  -1.309564e+02
   6.387099e+02   4.179689e+02
   1.981199e+02   5.584848e+02
  -4.308993e+02   3.124815e+02
  -6.806849e+02  -9.940528e+01
  -3.860369e+02  -4.166405e+02
   1.834319e+02  -3.724662e+02
   4.752300e+02   3.127349e+00
   2.705592e+02   1.700303e+02
  -4.450904e+01   1.034850e+02
  -9.939345e+01  -1.799689e+02
   1.619046e+02  -1.776938e+02
   3.725692e+02   8.653831e+01
   1.595552e+02   3.741319e+02
  -2.305374e+02   2.641972e+02
  -3.901604e+02   6.887006e+01
  -1.628956e+02  -1.020194e+02
   5.325248e+01  -2.307890e+02
   2.598312e+02  -3.485061e+02
   3.155036e+02  -2.242522e+02
   3.033287e+02   1.711848e+02
   4.948539e+01   4.005063e+02
  -1.023680e+02   3.987021e+02
  -1.294310e+02   1.263184e+02
  -2.520907e+01  -2.145865e+01
  -4.744296e+01   9.008885e+01
  -1.608524e+02   1.228870e+02
  -2.730863e+02  -4.489126e+01
  -1.735950e+02  -3.255010e+02
   6.322024e+01  -2.540995e+02
   2.300489e+02   7.300391e+00
   2.447581e+02   3.281258e+02
  -8.925431e+00   3.288024e+02
  -2.786095e+02   8.968356e+01
  -4.191099e+02  -2.026013e+02
  -1.498481e+02  -3.596330e+02
   6.267104e+01  -3.189038e+02
   2.483412e+02  -1.559558e+02
   1.855056e+02   3.432890e+01
   9.441230e+01  -5.126084e+01
   2.175279e+02  -9.083257e+01
   3.983402e+02  -1.273947e+01
   4.147887e+02   3.085195e+02
   3.720930e+01   4.514465e+02
  -3.499065e+02   4.227458e+02
  -5.457107e+02   1.983960e+02
  -3.386144e+02  -8.920984e+01
  -2.235274e+01  -2.836622e+02
   1.419882e+02  -3.014710e+02
   6.726443e+01   1.275646e+01
  -1.860977e+02   8.923664e+01
  -2.105536e+02   3.106489e+01
  -8.442904e+01  -2.086711e+02
   1.689522e+02  -1.695373e+02
   1.819577e+02   6.460999e+01
  -2.653710e+01   1.914106e+02
  -1.597049e+02   2.509807e+01
  -9.350496e+01  -2.026950e+02
  -1.208309e+01  -3.318397e+02
   1.954405e+02  -2.036537e+02
   2.756009e+02   8.805090e+01
   2.571844e+02   2.257752e+02
   1.055846e+02   2.871632e+02
  -1.093196e+02   1.524081e+02
  -1.548859e+02   7.321035e+01
  -4.232507e+01  -2.492540e+01
   7.896613e+01   8.099629e+01
  -2.652223e+01   1.294331e+02
  -1.087437e+02   1.229265e+02
  -1.998484e+02  -4.577816e+01
   8.923423e+00  -1.070272e+02
   7.364476e+01   2.024119e+01
   5.679600e+01   7.192522e+01
  -1.588268e+02   1.223749e+02
  -3.538458e+02  -1.238362e+01
  -3.423523e+02  -9.345389e+01
  -7.924966e+01  -3.265375e+02
   1.789946e+02  -2.646617e+02
   3.136179e+02  -1.734066e+02
   1.881141e+02   3.837740e+01
  -1.008774e+01   1.253122e+02
  -7.325061e+01  -2.150298e+01
   5.703931e+01  -8.415775e+01
   1.882918e+02  -7.032054e+01
   2.230872e+02   1.277967e+02
   3.590040e+01   2.239254e+02
  -1.100764e+02   1.869129e+02
  -1.856202e+02   4.143518e+01
  -9.423082e+01  -5.359525e+01
   1.122867e+01  -4.520272e+01
   3.655391e+01   7.386963e+01
  -6.705414e+01   1.038819e+02
  -1.410432e+02   5.719999e+01
  -1.682444e+02  -7.228797e+01
   3.770980e+00  -2.158227e+02
   1.710305e+02  -1.720994e+02
   1.884516e+02  -2.559509e+01
   7.618876e+01   6.992219e+01
  -8.756082e+01   1.413655e+02
  -1.303943e+02   8.088020e+01
  -1.870415e+01  -1.781677e+01
  -1.170069e+01   8.134854e+00
   1.734650e+01  -1.525450e+01
  -6.381358e+01  -7.310723e+00
  -1.388322e+02  -9.920420e+01
   5.426330e+00  -1.768908e+02
   1.629958e+02  -1.740174e+02
   2.453211e+02  -4.107778e+01
   2.164292e+02   2.052479e+02
   7.563669e+01   2.444127e+02
  -1.345366e+02   1.569540e+02
  -1.287897e+02  -1.824257e+01
  -2.910847e+01  -5.234449e+01
  -7.968633e-01  -6.072419e+01
  -4.714438e+01   4.183464e+01
  -7.300154e+01   4.850192e+01
  -6.780819e+01  -3.984325e+01
   2.172801e+01  -1.087173e+02
   1.264722e+02  -8.151488e+01
   1.156470e+02   2.481945e+00
  -7.626477e+00   5.913756e+01
  -1.522748e+02   7.636172e+01
  -1.880385e+02  -6.124255e+01
  -1.191387e+02  -1.626346e+02
   1.205906e+02  -1.839123e+02
   2.554000e+02  -1.079255e+02
   2.642708e+02   1.238682e+02
   1.191301e+02   1.580988e+02
  -3.567269e+01   1.809134e+02
  -9.982202e+01   4.398109e+01
  -5.844899e+01   7.872961e+01
  -6.812301e+01   1.302271e+02
  -7.874010e+01   7.337862e+01
  -1.496961e+02  -6.546940e+01
  -7.035794e+01  -1.903138e+02
  -3.957246e+01  -2.326490e+02
   1.667248e+02  -1.861129e+02
   1.503518e+02  -2.222497e+01
   1.325290e+02   1.468300e+02
   3.552868e+01   1.818011e+02
  -8.101643e+01   1.248124e+02
  -5.269133e+01   1.669483e+01
   1.867042e+01  -3.741885e+01
  -3.264055e+01  -2.978279e+00
  -5.332317e+01   3.852364e+01
  -1.161748e+02  -1.001826e+01
  -6.930065e+01  -6.688671e+01
   5.223858e+01  -3.254967e+01
   1.655604e+02  -2.723803e+01
   1.516739e+02   1.889917e+01
   5.593607e+01   6.394762e+01
  -1.159952e+02   8.013084e+01
  -1.149200e+02   3.353559e+01
   5.125714e-01  -2.554214e+01
   4.737801e+01  -2.455046e+01
   9.455529e+01   1.091724e+01
   1.670742e+01   6.096915e+01
  -4.644963e+01   7.544500e+01
  -1.157329e+01  -4.374654e+01
  -4.497050e+01  -1.899065e+01
  -7.881855e+01  -5.177599e+01
  -1.127380e+02  -3.044584e+01
  -5.882257e+01   2.125461e+01
  -6.378043e+01  -3.372025e+01
  -1.544491e+01  -1.255529e+02
   1.234114e+02  -1.256576e+02
   1.481697e+02  -3.026188e+01
   1.503965e+02   8.408585e+01
   4.539397e+01   1.273159e+02
  -1.248035e+02   4.851759e+01
  -1.076810e+02  -1.686336e+01
   5.075863e+01  -2.852477e+01
   1.558036e+02   4.198179e+01
   8.217720e+01   8.348627e+01
  -6.874523e+01   1.065035e+02
  -1.233310e+02   2.474270e-01
  -1.468982e+02  -7.838649e+01
  -3.739666e+00  -7.713850e+01
   5.316004e+01  -8.593944e+01
   7.284481e+01   3.951617e+01
   5.094747e+00  -3.722356e+00
  -1.135864e+02   1.962382e+00
   6.709513e+00  -1.089903e+02
   9.715141e+01  -1.429168e+02
   2.189674e+02  -6.986420e+01
   1.146437e+02   8.590385e+01
  -3.661610e+01   2.249586e+02
  -1.309961e+02   1.312851e+02
  -1.197008e+02   1.372821e+01
  -6.557769e+01  -1.037345e+02
   1.911209e+01  -1.400936e+02
   1.419045e+00  -9.131715e+00
   5.504515e+01   1.372958e+01
   4.687208e+01  -2.254064e+01
   3.021237e+01  -2.635869e+01
  -4.174509e+00  -5.664947e+00
   5.378631e+01   8.313623e+01
   3.257940e+01   9.705596e+01
  -5.460511e+01   3.731406e+01
  -1.685506e+02  -2.951479e+01
  -9.511316e+01  -8.700722e+01
  -2.747677e+01  -3.180534e+01
   9.962286e+01  -1.190104e+01
   7.733190e+01  -2.528981e+01
  -5.116938e+00  -1.434844e+01
  -4.892140e+01  -2.289327e+01
  -9.332927e+00  -4.765865e+01
   4.079973e+01   2.132127e+01
   1.883074e+01   1.922549e+01
  -4.904275e+01   4.310265e+01
  -1.103762e+02  -3.758252e+01
  -4.327119e+01  -1.280731e+02
   1.842121e+02  -1.049672e+02
   1.685848e+02  -8.623048e+01
   1.782710e+02   5.058733e+01
   7.977089e+00   1.970232e+02
  -8.523022e+01   1.482281e+02
  -9.419427e+01   5.899652e+01
  -1.911578e+01  -4.041483e+01
   5.139405e+01   1.400425e+01
   3.304059e+01  -4.311053e+01
  -2.933671e+01  -2.096763e+01
  -2.449137e+01  -7.153310e+01
  -2.210440e+00  -6.208256e+01
   4.972131e+01  -6.906246e+01
   5.153097e+01   1.767950e+01
   5.980148e+01   1.393890e+02
   7.021554e+00   1.247307e+02
  -5.767954e+01   4.947610e+01
  -7.340779e+01  -1.035983e+02
  -3.074660e+01  -1.146383e+02
   7.549107e+01  -5.290180e+01
   4.406977e+01   4.062532e+01
   1.760631e+01   7.269749e+01
  -4.823963e+01   1.559459e+01
   1.516251e+01   6.037166e+01
   2.044105e+01  -1.478135e+01
   6.249965e+01  -3.149907e+01
   4.067364e+01   1.328167e+01
  -7.371147e+01   8.263087e+01
  -1.171582e+02   7.410620e+01
  -7.936982e+01   1.088523e+01
   8.353981e+00  -7.955293e+01
   7.166588e+01  -4.090754e+01
   3.858816e+01   2.613460e+01
  -3.882414e+01   6.500349e+01
  -4.761356e+01   6.497795e+01
  -2.181113e+01  -1.955616e+01
  -4.804162e+00  -7.680806e+01
   8.437734e+00  -4.251122e+01
   5.291445e+01  -6.028900e+00
   1.711779e+01   7.326292e+01
  -5.524938e+00   4.037078e+01
   3.885781e+01   6.891845e+00
  -8.162927e+00  -1.418946e-01
   4.718788e+01   1.781073e+01
  -1.474866e+01   6.153142e+01
  -2.238429e+01  -2.809337e+01
  -3.441504e+01  -3.850490e+01
   1.657945e+01  -6.556669e+01
   4.683496e+01  -3.112027e+01
   3.927426e+01   3.699418e+01
  -2.868851e+00   1.051337e+02
  -7.077837e+01   8.050308e+00
  -5.641077e+01  -3.388484e+01
   2.227040e+01  -7.679450e+01
   1.996514e+01  -6.155788e+00
   7.820904e+01   3.340248e+01
   1.714035e+01   4.193829e+01
  -7.216504e+00  -3.984190e+01
  -4.243878e+01  -2.120698e+01
   3.458889e+01   2.170821e+01
   9.755160e+01   3.823882e+01
