
 $NMID
 id='ANONYMOUS ', fmtdat='(2E16.6)'
 volume=1.0
 tramp=1.0
 $END
   3.515468e+03  -2.489815e+02
   2.402004e+03   1.904271e+03
  -2.217404e+02   2.208252e+03
  -1.558622e+03   1.063647e+03
  -1.047974e+03  -2.375941e+02
   1.506857e+02  -5.350558e+02
   6.552275e+02   1.813231e+02
   7.984085e+01   7.638529e+02
  -5.718393e+02   6.103238e+02
  -7.214718e+02   1.151707e+02
  -3.746755e+02  -6.256158e+02
   1.237437e+02  -7.098732e+02
   4.662323e+02  -1.981111e+02
   2.969906e+02   4.838903e+02
  -1.685707e+02   6.706897e+02
  -4.672321e+02   4.875807e+01
  -2.004293e+02  -5.293793e+02
   2.440063e+02  -5.894635e+02
   4.741032e+02  -3.051513e+02
   4.386526e+02   1.815580e+02
   1.101317e+02   3.544096e+02
  -2.118646e+02   2.960379e+02
  -1.452222e+02   1.413538e+01
   2.174687e+02  -6.204341e+01
   4.049456e+02   1.555933e+02
   1.313675e+02   4.064283e+02
  -5.090587e+02   3.059114e+02
  -7.902180e+02  -1.165227e+02
  -3.158643e+02  -4.752805e+02
   3.259211e+02  -3.469726e+02
   6.758149e+02   6.984611e+01
   3.267676e+02   4.649464e+02
  -2.139602e+02   4.152113e+02
  -4.618585e+02   1.537233e+02
  -3.299676e+02  -1.850499e+02
  -9.749515e+01  -3.535634e+02
   6.084760e+01  -2.364831e+02
   3.422784e+01   1.303080e+02
  -1.832237e+02   2.537019e+02
  -3.282497e+02  -6.259005e+01
  -7.342513e+01  -5.161745e+02
   2.709371e+02  -5.520318e+02
   4.612986e+02  -4.692970e+01
   1.266337e+02   3.919173e+02
  -1.923238e+02   2.265475e+02
  -3.273255e+02  -2.704653e+02
   7.064280e+01  -4.562237e+02
   4.773665e+02  -1.447819e+02
   5.782829e+02   3.764090e+02
   1.586396e+02   5.381636e+02
  -2.935328e+02   2.819744e+02
  -5.393952e+02  -8.410168e+01
  -3.201009e+02  -3.329642e+02
   1.119500e+02  -2.289819e+02
   3.409518e+02  -5.922783e+01
   2.086924e+02   1.291964e+02
  -4.955413e+01   6.935859e+01
  -1.052679e+02  -2.635610e+01
   9.841556e+01  -1.389656e+02
   2.715297e+02   5.287657e+01
   1.605974e+02   2.011669e+02
  -1.363454e+02   2.489408e+02
  -3.472484e+02   1.148641e+02
  -2.793125e+02  -1.024428e+02
   2.175922e+01  -3.065943e+02
   2.574506e+02  -3.394325e+02
   3.208405e+02  -1.943033e+02
   2.804570e+02   1.773889e+02
   5.238159e+01   3.721141e+02
  -6.194799e+01   2.843201e+02
  -1.272308e+02   1.100615e+02
  -3.681037e+01   1.718501e+01
  -9.063409e+01   1.087907e+02
  -2.029895e+02   5.585152e+01
  -2.428122e+02  -9.514225e+01
  -6.548518e+01  -2.674575e+02
   7.359532e+01  -2.489816e+02
   2.100657e+02   3.053523e+01
   1.447186e+02   2.568240e+02
  -1.439819e+00   2.746707e+02
  -2.404024e+02   7.025500e+01
  -2.781279e+02  -2.047976e+02
  -1.795116e+02  -3.041285e+02
   7.097321e+01  -2.747968e+02
   1.517959e+02  -1.173396e+02
   1.021119e+02  -5.022640e+01
   9.307568e+01  -6.149399e+01
   2.519295e+02  -6.792117e+01
   3.552210e+02   3.867446e+01
   3.697254e+02   2.206428e+02
   4.282339e+01   4.065580e+02
  -3.178284e+02   3.764348e+02
  -4.573188e+02   1.591846e+02
  -2.789891e+02  -1.042885e+02
  -1.091774e+01  -2.372231e+02
   1.367916e+02  -1.898432e+02
   5.603694e+01  -4.129282e+01
  -1.291748e+02   9.850893e+01
  -1.545635e+02  -3.880466e+01
  -2.225632e+01  -1.316042e+02
   9.142263e+01  -9.813149e+01
   1.346227e+02   7.425339e+01
  -3.096399e+00   1.384103e+02
  -1.497773e+02  -3.532141e+01
  -1.384703e+02  -2.413654e+02
   3.690505e+01  -2.997184e+02
   2.103592e+02  -1.392223e+02
   2.765922e+02   2.057767e+01
   2.196904e+02   2.977962e+02
   7.748340e+01   3.133403e+02
  -1.119322e+02   1.800885e+02
  -1.850441e+02   9.271110e+00
  -7.232999e+01  -4.170782e+01
   7.916871e+01   1.284103e+01
  -1.624933e+01   6.999673e+01
  -1.277458e+02   7.359033e+01
  -1.441042e+02  -4.191919e+01
  -2.425778e+01  -7.443631e+01
   9.432033e+01  -1.569331e+01
   9.577978e+01   8.754368e+01
  -9.708536e+01   6.022265e+01
  -2.827490e+02  -1.235609e+01
  -2.184771e+02  -1.250400e+02
  -2.774150e+01  -2.112009e+02
   2.122164e+02  -2.134930e+02
   2.610886e+02  -4.830784e+01
   1.120996e+02   4.713091e+01
  -5.396172e+01   6.303354e+01
  -6.636960e+01  -1.413520e+01
   1.817111e+01  -1.424612e+02
   2.152270e+02  -2.116108e+01
   2.000327e+02   1.628685e+02
   8.770120e+01   2.143044e+02
  -1.321877e+02   1.775343e+02
  -1.950716e+02   6.973898e+01
  -7.892921e+01  -8.378711e+01
   3.563010e+01  -7.014441e+01
   4.635243e+01   5.897628e+01
  -7.146134e+01   6.165269e+01
  -1.869524e+02   4.289089e+01
  -1.636828e+02  -7.537252e+01
  -5.741804e+01  -1.910327e+02
   1.803870e+02  -1.533475e+02
   2.043320e+02   1.387921e+01
   4.639455e+01   9.864606e+01
  -1.017217e+02   1.103312e+02
  -6.493713e+01   8.142119e+01
   2.976442e+00  -1.690567e+01
   4.908384e+01  -4.006844e+01
   1.536055e+01  -2.886855e+01
  -3.042367e+01  -2.880801e+01
  -1.449044e+02  -4.083585e+01
  -6.674096e+01  -1.427139e+02
   8.495645e+01  -1.066207e+02
   1.598079e+02  -3.958290e+01
   1.397080e+02   1.102951e+02
  -9.410956e+00   2.038254e+02
  -1.031196e+02   1.482261e+02
  -1.085067e+02   1.863790e+01
  -2.964607e+01  -8.336690e+01
   9.941717e+00  -2.183973e+01
  -4.631738e+01  -1.108380e+01
  -7.108694e+01  -3.840618e+01
  -5.218868e+01  -4.748597e+01
   4.863455e+01  -7.984717e+01
   1.459706e+02  -2.328940e+01
   1.752667e+02   6.727619e+01
  -2.747451e+01   1.518206e+02
  -1.716835e+02   2.248596e+01
  -2.097027e+02  -9.853849e+01
  -8.472052e+01  -2.304463e+02
   1.317909e+02  -2.058853e+02
   2.998491e+02  -1.122391e+01
   2.675737e+02   1.429449e+02
   7.430932e+01   1.690918e+02
  -8.123610e+01   1.652167e+02
  -8.332893e+01   5.166358e+01
  -7.014575e+01   8.568050e+01
  -7.783973e+01   5.153287e+01
  -4.593209e+01   3.620704e+00
  -1.565075e+02   3.774297e+01
  -1.222777e+02  -8.501904e+01
   1.591722e+01  -1.843242e+02
   6.147866e+01  -1.986387e+02
   1.533121e+02  -6.367466e+01
   1.207747e+02   1.116096e+02
   1.732653e+01   1.737554e+02
  -9.100246e+01   1.330768e+02
  -8.005697e+01  -2.930375e+01
   7.186354e+00  -9.835762e+01
   4.454505e+01  -2.128454e+01
  -2.392104e+01   4.013020e+01
  -4.771799e+01   1.661347e+01
  -5.407274e+01  -1.263110e+01
   4.295229e+01  -2.900638e+01
   1.762115e+02  -2.203110e+01
   1.698917e+02   8.319678e+00
   5.198582e+01   5.759887e+01
  -1.743739e+02   9.017349e+01
  -1.988692e+02   7.691810e+00
  -8.157008e+01  -4.206239e+01
   4.118507e+00  -2.221281e+01
   2.846704e+01   5.833994e+01
  -2.942708e+01   7.638510e+01
  -3.381966e+01   5.013176e+01
  -7.465053e+01  -1.181039e+01
  -5.640396e+01  -4.542565e+01
  -4.220738e+01  -2.548169e+01
  -6.716214e+00  -4.580517e+01
  -7.252485e+01  -1.699422e+01
  -2.524410e+01  -4.362056e+01
   9.462889e+00  -9.438661e+01
   1.171293e+02  -1.343743e+02
   1.714316e+02  -5.680213e+00
   1.305576e+02   8.090717e+01
  -5.741859e+00   1.126109e+02
  -1.177616e+02   7.485094e+01
  -5.082137e+01  -2.735774e+01
   9.644072e+01  -3.281163e+01
   1.180948e+02   3.167472e+01
   7.943636e+01   1.049345e+02
  -4.585388e+01   1.190011e+02
  -2.005926e+02   8.221046e+01
  -1.322213e+02  -3.978760e+01
  -3.037467e+01  -9.205945e+01
   3.803753e+01  -6.833173e+01
   5.795658e+01   6.478066e+00
  -5.404648e+01   1.886187e+01
  -6.803957e+01   2.092209e+01
  -7.806915e+01  -6.804502e+01
   7.525382e+01  -1.940015e+02
   1.482303e+02  -7.879829e+01
   9.851721e+01   1.277365e+02
  -3.062888e+00   2.335781e+02
  -2.941484e+01   1.122740e+02
  -6.940093e+01  -2.710799e+01
  -6.916173e+01  -1.108941e+02
   3.605715e+00  -1.139691e+02
   4.376564e+01  -2.364821e+01
   6.128824e+01   5.382881e+01
   2.207571e+01  -1.429553e+01
   1.416485e+01   2.565552e+00
   4.118388e+01   1.620697e+01
   6.322896e+01   9.094518e+01
   5.890867e+01   1.298593e+02
  -2.271525e+01   7.530570e+00
  -1.084126e+02  -6.234281e+01
  -1.147954e+02  -1.352999e+02
   1.902871e+01  -4.732827e+01
   7.589495e+01  -2.341570e+01
   4.191817e+01   1.881347e+01
   3.042139e+01  -7.357121e+00
  -2.438295e+01   1.688929e+01
  -2.505676e+00   3.435256e+00
   1.605057e+01   2.265091e+01
   2.933936e+01  -1.082478e+01
  -3.424820e+01   2.930161e+01
  -1.175071e+02   1.790721e+01
  -2.655859e+01  -3.945818e+01
   9.822659e+01  -1.117871e+02
   1.246964e+02  -6.540319e+01
   1.653344e+02   6.266111e+01
   4.236116e+01   1.659622e+02
  -6.651631e+01   1.732897e+02
  -9.702609e+01   1.517539e+01
  -9.047800e+01  -3.082268e+01
  -4.444259e+01  -4.890039e+01
   3.529689e+01  -3.034274e+01
  -6.230068e+00  -3.622919e-02
  -2.994792e+01  -5.817305e+01
  -3.879291e+01  -6.826043e+01
   5.533091e+01  -7.210118e+01
   8.231567e+01   5.646914e+01
   5.055889e+01   1.024947e+02
  -2.612129e+01   6.725741e+01
  -6.200451e+01   1.624149e+01
  -1.029307e+02  -5.510079e+01
   8.410568e+00  -9.945388e+01
   4.870055e+01  -1.056858e+01
   9.359809e+01   2.367728e+01
   6.406941e+01   6.009826e+01
  -2.703953e+01   8.171266e+01
  -1.178622e+00   3.422257e+01
   4.523119e+01   4.303364e+01
   6.196222e+01  -4.867782e+01
   1.495146e+01   3.302075e+01
  -1.027959e+02   9.114394e+01
  -1.025552e+02   8.641969e+01
  -7.558122e+01   1.844336e+00
   1.104237e+01  -1.117418e+02
   4.163278e+01  -7.378799e+01
   3.881580e+01  -4.185549e+01
  -1.784277e+01   3.048543e+01
  -1.143912e+01   4.432530e+01
  -2.616129e+01  -2.524930e+01
  -4.243281e+01  -5.721887e+01
  -2.367081e+00  -2.352644e+01
   2.999197e+00   1.041826e+01
   7.524088e+01   1.069350e+01
   5.948286e+01  -1.853244e+01
   2.399421e+00  -6.593795e+01
   1.209355e+01  -5.578125e+01
   5.720461e+00   6.217508e+01
  -1.134720e+01   3.490918e+01
  -4.864124e+01  -3.150157e+00
  -4.854383e+01  -3.804094e+01
   3.058819e+01  -6.180107e+01
   4.964985e+01  -3.124386e+01
   3.336075e+01   5.582561e+01
  -1.388605e+01   4.936447e+01
  -8.008399e+01   6.475099e+01
  -6.336836e+01   1.633494e+01
  -8.740579e+01  -1.667221e+01
   2.349932e+01  -4.192264e+01
   7.181399e+01   9.005530e+00
   9.962426e+00  -1.348447e+01
  -5.988646e+01   5.940344e+00
  -6.567853e+01  -2.291335e+01
   2.884662e+01  -5.957699e+01
   9.796413e+01  -3.918433e+01
