
 $NMID
 id='ANONYMOUS ', fmtdat='(2E16.6)'
 volume=1.0
 tramp=1.0
 $END
   4.633207e+03   1.085177e+02
   2.568978e+03   2.801573e+03
  -8.582685e+02   2.709299e+03
  -2.143289e+03   6.972303e+02
  -9.131875e+02  -9.170997e+02
   8.617873e+02  -6.640967e+02
   1.041754e+03   4.672379e+02
   2.016895e+01   1.326919e+03
  -9.523315e+02   8.242147e+02
  -8.516077e+02  -2.738056e+02
  -3.772743e+02  -9.382462e+02
   3.249181e+02  -8.475912e+02
   6.987284e+02  -1.286692e+02
   4.169197e+02   8.213067e+02
  -3.500260e+02   7.033918e+02
  -6.785121e+02  -6.221302e+01
  -1.771419e+02  -7.503120e+02
   3.239009e+02  -6.888595e+02
   5.873681e+02  -1.036250e+02
   4.369932e+02   3.834904e+02
   2.184344e+01   5.115672e+02
  -2.617677e+02   3.445578e+02
  -2.252710e+02   8.038106e+01
   1.071119e+02  -6.799992e+01
   4.368983e+02   5.369810e+01
   2.047822e+02   4.341586e+02
  -4.036203e+02   4.127631e+02
  -8.553479e+02  -3.610565e+01
  -5.665437e+02  -5.261623e+02
   3.780682e+02  -5.173870e+02
   7.788279e+02   1.977726e+00
   4.043266e+02   4.981313e+02
  -2.539915e+02   5.351355e+02
  -5.061021e+02   1.629178e+02
  -4.132659e+02  -2.291888e+02
  -1.656181e+02  -5.195331e+02
   2.203668e+02  -3.052417e+02
   1.760680e+02   2.731308e+02
  -1.505529e+02   5.219911e+02
  -4.867668e+02   2.356623e+01
  -3.120124e+02  -7.493841e+02
   2.810673e+02  -7.522361e+02
   6.229512e+02  -5.561327e+01
   2.573072e+02   5.706197e+02
  -3.821492e+02   3.121289e+02
  -4.464969e+02  -3.849396e+02
   1.099810e+02  -5.482312e+02
   6.162073e+02  -1.401091e+02
   6.699966e+02   4.319193e+02
   1.586221e+02   5.645889e+02
  -4.159761e+02   3.292433e+02
  -6.280299e+02  -4.458497e+01
  -3.934106e+02  -3.453652e+02
   1.494214e+02  -3.831755e+02
   4.526141e+02  -4.732113e+01
   2.671442e+02   2.213184e+02
  -9.413725e+01   9.821316e+01
  -1.763642e+02  -1.537902e+02
   1.263898e+02  -2.173903e+02
   3.244186e+02   5.478674e+01
   1.292626e+02   3.060468e+02
  -2.419992e+02   2.477056e+02
  -3.371112e+02   3.762879e+00
  -1.790869e+02  -1.386032e+02
   2.096196e+01  -2.235992e+02
   2.443979e+02  -3.382513e+02
   3.975569e+02  -2.039478e+02
   3.247708e+02   1.409979e+02
   8.407312e+01   4.692559e+02
  -1.397761e+02   4.489618e+02
  -1.379889e+02   1.650392e+02
  -2.636237e+01  -5.546225e+01
  -1.197363e+01   5.999908e+01
  -2.005200e+02   1.235772e+02
  -2.822394e+02   1.847147e+01
  -2.123221e+02  -2.244915e+02
   3.550433e+01  -2.582902e+02
   2.343923e+02  -8.497140e+00
   1.996787e+02   1.948953e+02
  -4.519386e+01   3.177193e+02
  -2.864849e+02   1.261849e+02
  -4.127419e+02  -1.848696e+02
  -1.670317e+02  -4.451766e+02
   1.072173e+02  -3.394041e+02
   2.647156e+02  -1.048776e+02
   8.863993e+01   2.929592e+01
   9.323942e+01   1.477073e+00
   2.001426e+02  -8.763759e+01
   3.504410e+02   2.325575e+01
   3.694042e+02   2.847568e+02
  -3.056277e+01   4.241252e+02
  -3.948373e+02   4.180018e+02
  -4.948739e+02   2.246852e+02
  -3.463863e+02  -1.771671e+02
  -2.192184e+01  -3.435505e+02
   1.532148e+02  -2.602992e+02
   9.080243e+01   5.411871e+01
  -1.149658e+02   1.507587e+02
  -1.826805e+02  -9.497034e+00
  -6.657731e+01  -2.267100e+02
   1.818409e+02  -1.869003e+02
   2.341288e+02   5.089288e+01
  -4.187168e+01   1.770468e+02
  -2.124574e+02   5.016795e+01
  -1.377024e+02  -2.868934e+02
   3.536457e+00  -3.510681e+02
   2.151105e+02  -1.872126e+02
   3.194371e+02   4.378015e+01
   2.634612e+02   2.235296e+02
   1.645657e+02   2.583795e+02
  -7.103160e+01   1.750814e+02
  -1.987372e+02   5.150631e+01
  -6.464030e+01  -3.605782e+01
   4.256149e+01  -3.065863e+01
  -1.908583e+01   1.437840e+02
  -1.022496e+02   8.802706e+01
  -1.802444e+02   2.839175e-01
  -4.545874e+01  -8.230517e+01
   1.051874e+02  -3.334166e+01
   4.398530e+01   1.005259e+02
  -1.293800e+02   8.565389e+01
  -2.933267e+02   5.211081e+01
  -2.727621e+02  -1.813716e+02
  -5.148861e+01  -3.471342e+02
   2.105679e+02  -2.836678e+02
   3.585318e+02  -1.332522e+02
   2.014102e+02   9.364317e+01
  -8.903610e-01   1.086427e+02
  -8.225369e+01   4.573083e+01
   1.920226e+01  -8.056818e+01
   2.367005e+02  -1.029841e+01
   2.410215e+02   9.574326e+01
   1.284272e+02   1.777487e+02
  -1.377514e+02   1.438063e+02
  -1.430759e+02   4.896673e+01
  -1.121348e+02  -3.574121e+01
   1.800184e+01  -7.013723e+00
   2.230414e+01   6.918749e+01
  -9.566954e+01   1.061483e+02
  -1.922758e+02   6.162191e+01
  -2.287092e+02  -7.397515e+01
  -6.565951e+01  -1.869106e+02
   1.232556e+02  -1.484304e+02
   2.054719e+02  -2.638778e+01
   5.205197e+01   1.264617e+02
  -4.706162e+01   1.402205e+02
  -7.295992e+01   4.962017e+01
   1.246234e+01  -1.963547e+01
  -6.367253e+00   5.307812e+00
  -5.081222e+01   4.563956e+01
  -7.717535e+01   1.469270e+01
  -5.201597e+01  -7.576013e+01
  -2.765335e+01  -1.748086e+02
   1.215019e+02  -1.280417e+02
   2.469358e+02  -4.925551e+01
   1.619222e+02   9.354027e+01
   2.655203e+01   1.855434e+02
  -1.045066e+02   1.857521e+02
  -1.710351e+02   3.829867e+01
  -6.392735e+01  -1.860660e+01
  -6.632965e+01  -4.310319e+01
  -6.758259e+01  -3.558817e+01
  -3.249756e+01  -3.931092e+00
  -4.576208e+01  -1.586898e+01
   8.066398e+01  -8.692011e+01
   8.473330e+01  -6.702258e+00
   8.633509e+01   3.616138e+00
   1.218566e+01   1.188451e+02
  -9.046759e+01   1.048037e+02
  -2.431854e+02  -2.346896e+01
  -1.521370e+02  -2.551043e+02
   8.041875e+01  -2.510078e+02
   2.758148e+02  -9.508776e+01
   2.732302e+02   8.856571e+01
   8.017664e+01   1.490643e+02
  -6.031532e+01   1.609293e+02
  -7.458980e+01   1.201183e+02
  -8.999233e+01   5.608842e+01
  -9.249678e+01   5.581874e+01
  -1.097005e+02   5.483055e+01
  -7.949929e+01   8.021177e+00
  -1.263132e+02  -1.511370e+02
  -7.849380e+01  -2.200109e+02
   5.690024e+01  -1.904859e+02
   1.856519e+02  -9.209207e+00
   1.270824e+02   9.333682e+01
   3.467828e+01   1.347259e+02
  -8.208140e+01   6.662595e+01
  -5.242369e+01  -1.589256e+01
   6.764776e+00  -2.768608e+01
  -1.863805e+01  -4.131296e+01
  -3.922748e+01  -4.397068e+01
  -1.243578e+02  -7.031341e+00
  -5.750918e+01  -5.656479e+01
   1.133247e+02  -5.750739e+01
   1.526376e+02   3.456611e+01
   1.364256e+02   5.489988e+01
  -1.459028e+01   9.366257e+01
  -1.539223e+02   7.351565e+01
  -1.381164e+02   1.965946e+01
  -4.074444e+01   3.585358e+00
   6.851711e+01  -1.840644e+00
   4.673534e+01   4.631013e+01
  -1.105231e+01   4.928187e+01
  -7.031278e+01   2.242377e+01
  -5.303083e+01  -9.790606e+00
  -3.627863e+01  -6.987675e+00
  -3.069833e+01  -4.094592e+01
  -7.354751e+01   2.445013e+01
  -6.561686e+01   7.899097e+00
  -5.203725e+01  -8.020741e+01
   3.951393e+01  -1.586410e+02
   7.249465e+01  -1.832328e+02
   1.149644e+02  -7.828474e+01
   1.269914e+02   5.541238e+01
   9.626081e+00   9.703209e+01
  -7.780181e+01   5.384160e+01
  -7.963587e+01  -2.348333e+01
   5.641269e+01  -5.435299e+01
   1.635423e+02   1.078629e+01
   7.508713e+01   5.975594e+01
  -9.245053e+01   1.767947e+02
  -1.737545e+02   1.183486e+02
  -1.409467e+02  -1.879255e+01
  -4.694859e+01  -2.922887e+01
   1.033346e+02  -8.716319e+01
   4.165373e+01   2.708272e+00
  -4.845088e+01   3.314211e+01
  -1.296005e+02  -5.649502e+01
  -2.618294e+01  -7.247301e+01
   8.974365e+01  -1.144414e+02
   1.370524e+02  -5.086246e+01
   1.348975e+02   9.234121e+01
   5.346408e+01   2.230023e+02
  -1.405971e+02   1.120777e+02
  -1.358111e+02  -2.785994e+01
  -4.594334e+01  -1.346022e+02
  -2.268843e+01  -8.909058e+01
  -1.308032e+01   1.727508e+01
   1.804856e+01   6.777163e+01
   1.118779e+01  -1.838491e+01
  -3.887456e+01  -1.631372e+01
  -2.953514e+00   2.146790e+00
   3.666312e+01   6.382070e+01
   3.454332e+01   8.553914e+01
  -3.710986e+01   8.133676e+01
  -1.509463e+02   6.859002e+00
  -1.817066e+02  -4.666607e+01
  -3.268158e+01  -7.153750e+01
   7.234691e+01  -2.770879e+01
   7.844557e+01  -4.025205e+01
   1.031041e+01   5.544502e+01
   5.017562e+00   7.491071e+01
   2.520010e+01   5.723610e+01
  -2.954647e+01   2.979042e+01
  -2.056291e+00  -5.521123e+01
  -8.918657e+01   6.119939e+00
  -1.367168e+02  -7.571514e+01
  -3.090440e+01  -1.180060e+02
   9.560562e+01  -1.073819e+02
   2.032847e+02  -3.076722e+01
   1.711394e+02   6.939787e+01
   9.001679e+01   1.841531e+02
  -9.137463e+01   1.167100e+02
  -1.596706e+02   5.783540e+01
  -1.376059e+02  -6.406488e+01
  -4.460198e+01  -1.183288e+01
   2.013891e+01   1.054816e+01
  -5.039720e+00   5.450222e+01
  -4.508136e+01  -4.401827e+01
  -1.075148e+01  -1.062009e+02
   1.677642e+01  -3.504343e+01
   5.665982e+01   1.304432e+01
   3.380066e+01   9.095565e+01
   6.447716e+00   1.119115e+02
  -6.584694e+01   5.343485e+01
  -9.298951e+01  -2.117004e+01
  -4.502052e+01  -9.358964e+01
   8.226294e+01  -6.803245e+01
   1.064896e+02  -1.826770e+01
   6.933997e+01   6.927036e+01
  -6.742410e+01   1.019834e+02
  -1.370954e+01   4.037156e+00
   1.953859e+01   3.132663e+01
   3.405565e+01  -3.927261e+01
   5.150035e+01   1.177070e+01
  -6.399453e+01   6.987582e+01
  -7.863808e+01   5.729504e+01
  -8.608973e+01  -6.597255e+00
   8.520240e+00  -6.082090e+01
   4.667081e+01  -5.998869e+01
   6.112522e+01  -1.175891e+01
  -2.560999e+00   6.249852e+01
  -1.489809e+01   5.671505e+01
  -3.505623e+01   7.826252e-01
  -2.708970e+01  -8.329241e+01
  -2.631889e+01  -4.413281e+01
   7.617671e+01   8.980484e+01
   8.117515e+01   7.033386e+01
   4.827711e+00   3.297866e+01
   1.210548e+01  -6.790318e+00
   1.403337e+00  -1.288677e+01
  -3.047850e+01   2.669430e+01
   3.058945e+01   3.880246e+01
  -2.925119e+01   3.778073e+00
   6.648424e+00  -4.867482e+01
  -5.612553e+00  -5.659599e+01
   7.000836e+01   1.766069e+01
   4.700380e+01   2.080236e+01
   2.655915e+01   3.644040e+01
  -5.086198e+01   7.697347e+01
  -1.060512e+02  -3.022512e+01
  -5.802225e+01  -3.446385e+01
   2.585869e+01  -5.566667e+01
   4.258008e+01  -7.733181e+01
   4.187969e+01  -1.270580e+01
   1.196675e+01   1.328744e+01
  -5.277460e+00   4.105816e+01
   3.706127e+01  -2.446879e+01
   8.564043e+01  -1.609999e+01
