
 $NMID
 id='ANONYMOUS ', fmtdat='(2E16.6)'
 volume=1.0
 tramp=1.0
 $END
  -3.963190e+03  -1.677736e+02
  -2.503496e+03  -2.274920e+03
   4.087353e+02  -2.292931e+03
   1.710362e+03  -8.761246e+02
   9.338801e+02   2.280991e+02
  -5.063229e+02   4.339119e+02
  -7.797452e+02  -3.708874e+02
   7.825479e+01  -8.037500e+02
   5.967172e+02  -5.801901e+02
   7.787806e+02   8.099203e+01
   5.038954e+02   6.452677e+02
  -1.677777e+02   7.790295e+02
  -4.681711e+02   1.681981e+02
  -4.226833e+02  -5.854837e+02
   1.405768e+02  -6.164372e+02
   5.256163e+02  -5.698948e-01
   3.399113e+02   6.325147e+02
  -2.666714e+02   6.357685e+02
  -5.214395e+02   2.270920e+02
  -4.130086e+02  -3.149408e+02
  -6.446866e+01  -4.013884e+02
   2.256474e+02  -2.417036e+02
   1.959399e+02  -2.260904e+01
  -1.490366e+02   9.653199e+01
  -3.092648e+02  -1.052711e+02
  -1.208740e+02  -3.957083e+02
   4.782157e+02  -3.569671e+02
   7.094871e+02   1.242062e+02
   2.697337e+02   4.366948e+02
  -4.141502e+02   3.645458e+02
  -7.143402e+02  -9.168839e+01
  -2.702614e+02  -4.194904e+02
   2.875100e+02  -5.102660e+02
   4.817657e+02  -2.321444e+02
   3.727339e+02   1.885177e+02
   1.049502e+02   4.053790e+02
  -1.276857e+02   2.328664e+02
  -8.788439e+01  -1.650975e+02
   1.779317e+02  -3.544732e+02
   3.778647e+02   6.822381e+01
   1.770102e+02   6.088711e+02
  -2.262862e+02   5.749388e+02
  -4.584744e+02  -1.207431e+01
  -2.260836e+02  -4.874182e+02
   2.849002e+02  -2.745925e+02
   3.313618e+02   3.278871e+02
  -6.939327e+01   4.903497e+02
  -5.702180e+02   1.282569e+02
  -6.218163e+02  -4.230231e+02
  -8.850719e+01  -5.897684e+02
   4.456318e+02  -2.976836e+02
   5.675706e+02   4.383388e+01
   3.768606e+02   3.092622e+02
  -1.425335e+02   2.747630e+02
  -3.770143e+02   9.049453e+00
  -2.046949e+02  -1.070457e+02
   1.150840e+02  -6.054420e+01
   1.571628e+02   1.609444e+02
  -1.364157e+02   1.443191e+02
  -3.308153e+02  -4.641274e+01
  -2.186324e+02  -2.999608e+02
   1.607324e+02  -2.521031e+02
   4.183372e+02  -9.929495e+01
   2.723898e+02   9.170842e+01
  -1.805436e+01   2.853653e+02
  -3.009047e+02   3.568779e+02
  -3.753712e+02   1.885087e+02
  -2.703595e+02  -1.531643e+02
  -4.326188e+01  -3.614395e+02
   1.329597e+02  -3.993147e+02
   8.451328e+01  -1.354869e+02
   7.376360e+00  -3.639243e+01
   6.165028e+01  -7.481250e+01
   2.138053e+02  -1.367689e+02
   2.465131e+02   6.931330e+01
   1.223467e+02   2.901872e+02
  -5.181040e+01   1.946079e+02
  -2.225797e+02  -1.180312e+01
  -1.528690e+02  -1.882284e+02
   4.810689e+01  -2.426035e+02
   2.896062e+02  -9.925764e+01
   3.596247e+02   1.767261e+02
   1.582907e+02   3.363359e+02
  -1.111161e+02   2.123223e+02
  -2.369930e+02   1.384192e+02
  -1.502528e+02   4.335149e+01
  -7.015273e+01   8.468342e+01
  -2.203683e+02   9.682505e+01
  -4.072572e+02  -8.007094e+01
  -3.574158e+02  -3.533006e+02
  -2.297618e+01  -4.696202e+02
   3.744658e+02  -3.722532e+02
   5.023340e+02  -1.473355e+02
   3.402134e+02   1.085131e+02
   1.364122e+01   2.540800e+02
  -9.328688e+01   2.753814e+02
  -6.441264e+01   6.164059e+01
   1.409134e+02  -8.947173e+01
   1.856657e+02   3.100016e+01
  -6.617226e+00   1.668804e+02
  -1.494597e+02   1.498121e+02
  -1.591815e+02  -3.447303e+01
   4.521526e+01  -2.131201e+02
   1.851348e+02  -4.601215e+01
   1.970177e+02   3.078565e+02
   9.143806e+00   3.866591e+02
  -2.139904e+02   2.182682e+02
  -3.785417e+02  -5.305094e+01
  -3.456561e+02  -2.399349e+02
  -8.119108e+01  -2.425662e+02
   1.367993e+02  -1.574740e+02
   2.287076e+02  -4.109057e+01
   8.056951e+00   4.177302e+00
  -1.035725e+02  -5.986402e+01
  -3.578076e+01  -1.346084e+02
   1.564274e+02  -1.226323e+02
   1.736268e+02   2.478547e+01
   3.473598e+01   8.337305e+01
  -8.927657e+01   3.093405e+01
  -6.375712e+01  -8.480257e+01
   7.689293e+01  -1.079666e+02
   2.736329e+02  -4.490915e+00
   2.528987e+02   1.991925e+02
   6.318970e+01   2.737346e+02
  -1.297292e+02   2.749335e+02
  -2.891466e+02   9.827635e+01
  -1.621290e+02  -9.566232e+01
   2.596531e+01  -1.018925e+02
   5.024796e+01  -1.463712e+01
  -7.164450e+01   8.922022e+01
  -2.353672e+02   2.222038e+01
  -2.145002e+02  -5.938880e+01
  -4.811369e+01  -2.243946e+02
   8.243786e+01  -1.348799e+02
   1.928154e+02  -2.039080e+01
   8.224735e+01   6.410466e+00
   8.652221e+00   1.624715e+01
   2.877484e+01  -9.800689e+01
   1.291599e+02  -7.650191e+01
   2.440098e+02   4.736488e-01
   1.882036e+02   1.304825e+02
   3.511238e+01   1.933206e+02
  -2.204004e+02   1.258936e+02
  -1.661082e+02  -1.657157e+00
   9.108292e-01  -1.113614e+02
   7.545482e+01  -6.175487e+01
   4.668706e+01  -3.143916e+01
  -8.493413e+00   3.322636e+01
  -4.068877e+01   4.755684e+01
  -2.009842e+00  -1.519062e+01
   4.632250e+01   6.547081e+00
   6.265167e+01   7.056007e+01
   4.112686e+01   1.395298e+02
  -1.538733e+02   1.477144e+02
  -2.562311e+02  -1.250078e+01
  -1.873763e+02  -1.713055e+02
  -7.917939e+01  -2.526561e+02
   1.244432e+02  -1.694842e+02
   1.487543e+02  -2.790765e+00
   5.907873e+01   4.984476e+01
   5.446696e+01   3.109311e+01
   7.990161e+01  -5.358245e+01
   9.893357e+01   1.854330e+01
   7.261049e+01   5.692204e+01
  -7.459148e+01   1.549428e+02
  -1.159191e+02   6.631212e+01
  -1.040620e+02  -6.073261e+01
   3.100399e+01  -1.796875e+02
   1.957128e+02  -1.064007e+02
   2.444586e+02   3.045455e+01
   1.195656e+02   1.951681e+02
  -1.026073e+02   2.707637e+02
  -3.273633e+02   8.450343e+01
  -2.931536e+02  -7.491816e+01
  -1.587571e+02  -2.104628e+02
   4.939008e+01  -1.078387e+02
   1.195873e+02  -4.979534e+01
   1.250516e+02  -7.844641e+01
   7.791347e+01  -1.380077e+02
   1.342195e+02  -8.820576e+01
   1.020690e+02  -2.050025e+01
   1.408551e+02   1.438072e+02
   9.331105e+01   2.378266e+02
  -8.553854e+01   1.641125e+02
  -1.536225e+02   1.868063e+01
  -1.505684e+02  -5.472026e+01
  -1.498822e+01  -1.586831e+02
   4.942018e+01  -8.757147e+01
   4.966480e+01   1.361759e+01
   1.291373e+01   4.346955e+01
  -5.801701e+00   1.245437e+01
   3.352159e+01  -1.907285e+01
   7.132553e+01  -1.440002e+01
   4.638316e+01   1.016278e+01
  -5.029183e+01   7.240493e+01
  -1.557386e+02  -2.809683e+01
  -1.758140e+02  -4.165696e+01
  -2.397018e+01  -9.987243e+01
   1.278926e+02  -7.133755e+01
   1.570690e+02  -4.329051e+01
   6.365909e+01   1.327784e+00
  -7.665242e+01   3.943166e+01
  -9.843578e+01  -1.649515e+01
  -5.421729e+01  -5.483344e+01
   1.792519e+01  -8.055099e+01
   9.935740e+01   2.682142e+01
   4.322921e+01   8.951984e+01
   6.478846e+01   6.410255e+01
   7.557297e+01   1.779014e+01
   5.937627e+01   7.151917e+00
   6.683423e+01   5.173791e+01
  -6.872114e+01   1.568756e+02
  -1.017018e+02   1.671720e+02
  -1.659513e+02   9.947932e+01
  -6.981598e+01  -5.425765e+01
  -2.585656e+00  -1.656498e+02
   9.396627e+01  -7.299300e+01
   7.522536e+01   6.753794e+00
  -5.231793e+01   2.953193e+01
  -1.208477e+02  -2.935856e+01
  -4.823074e+01  -1.205070e+02
   1.487259e+02  -1.221616e+02
   2.033962e+02  -3.256821e+01
   1.955931e+02   3.765794e+01
   1.677155e+01   1.107738e+02
  -7.738357e+01   3.399802e+01
  -9.912802e+01  -3.280012e+01
   2.260435e+01  -8.593689e+01
   9.525791e+01  -2.260306e+01
  -1.513342e+00   1.337964e+02
  -5.612244e+01   1.952571e+02
  -1.730317e+02   8.080137e+01
  -1.266227e+02  -1.050338e+02
  -1.303800e+01  -2.038042e+02
   1.024161e+02  -1.405155e+02
   9.390980e+01   1.822866e+01
   6.231978e+01   1.204495e+02
  -3.883158e+00   7.777150e+01
  -1.672152e+01   5.204844e+01
   6.134888e+00  -1.251362e+01
  -4.651095e+01   1.467426e+01
   3.983257e+00   1.916276e+01
  -6.048329e+01   5.224089e+00
  -8.893943e+01  -1.374711e+02
  -5.239329e+01  -1.224475e+02
   3.814108e+01  -4.542655e+01
   1.397615e+02   4.284534e+01
   1.806531e+02   4.737981e+01
   1.891039e+01   3.217983e+01
  -9.193669e+01   4.570785e+01
  -9.372256e+01   1.958801e+01
   7.311895e+00   7.851120e-01
   2.888922e+01  -2.276490e+01
   2.644747e+01  -2.473977e+01
  -2.594696e+01  -9.503148e+00
  -4.010631e+01   2.361627e+00
   4.693403e+01   8.125330e+00
   1.111426e+02   1.470402e+01
   8.081393e+01   9.559708e+01
  -3.997733e+01   1.338092e+02
  -1.890365e+02   9.268994e+01
  -1.122861e+02  -5.592166e+01
  -4.039100e+01  -1.388543e+02
   9.865077e+01  -1.324447e+02
   8.958808e+01  -1.839268e+01
   9.054428e+01   2.624797e+01
   1.337865e+01   4.453519e+01
  -4.210550e+01  -8.923380e+00
   3.002367e-02  -1.018782e+01
   3.020809e+01   6.644063e+01
   4.857072e+01   5.820542e+01
  -5.099805e+01   1.173060e+02
  -4.757477e+01  -1.985715e+01
  -9.638462e+01  -7.673238e+01
  -2.191296e+01  -9.735993e+01
   1.366965e+02  -2.099804e+01
   1.160911e+02   6.735670e+01
   7.303771e+00   1.322594e+02
  -5.844833e+01   8.419031e+01
  -1.181013e+02  -3.382939e+01
  -2.077828e+01  -6.468309e+01
   3.713694e+01  -9.891191e+01
   5.948324e+01  -3.067815e+01
  -3.889421e+01   1.912240e+01
  -2.818719e+01   3.014176e+01
   5.917562e-02  -2.754104e+01
   6.196950e+01  -1.042196e+02
   1.245742e+02  -8.667125e+01
   5.181860e+01  -7.020457e+00
  -1.270556e+01   8.663512e+01
  -2.021576e+01   6.988297e+01
  -6.213753e+01   8.236552e+00
  -2.653425e+01  -4.583297e+01
  -5.293854e+01  -2.929634e+01
   1.144404e+01   2.585916e+01
   4.763032e+01   1.568634e+01
   1.560893e+01   1.383532e+01
  -1.827604e+01  -1.868834e+01
   1.900939e+01  -8.014679e+00
  -1.106268e+01  -1.440665e+00
  -7.293220e+00  -5.667795e+00
  -3.158026e+01   1.294900e+01
  -1.170493e+01  -2.780834e+01
  -2.060814e+01  -4.597264e+01
   2.082662e+01   7.183762e+00
   6.252126e+01   4.633318e+01
   2.373462e+01   8.991930e+01
  -2.410165e+01  -5.098181e+00
  -7.073691e+01  -2.268865e+01
  -1.393435e+01  -7.850672e+01
   5.873386e+01  -4.936889e+01
   4.793565e+01   1.491953e+00
   5.563682e+01   6.144719e+01
  -4.584315e+01   2.639255e+01
  -8.778602e+01   5.665446e+01
  -1.810383e+01   1.855773e+01
   6.461724e+01  -2.036913e+01
   5.102875e+01   1.427134e+01
  -4.068744e+01   2.313225e+01
  -6.198953e+01  -2.407507e-01
