
 $NMID
 id='ANONYMOUS ', fmtdat='(2E16.6)'
 volume=1.0
 tramp=1.0
 $END
   3.217909e+03  -2.504818e+02
   1.918325e+03   1.554872e+03
   2.085784e+02   1.916151e+03
  -9.994248e+02   1.347787e+03
  -9.223928e+02   2.318538e+02
  -6.507324e+01  -1.138407e+02
   3.217951e+02   3.910448e+01
   9.147883e+01   3.866027e+02
  -2.939215e+02   5.089403e+02
  -5.614684e+02   2.417974e+02
  -4.018199e+02  -5.246337e+02
  -9.398610e+01  -6.432202e+02
   2.539284e+02  -2.831409e+02
   2.092123e+02   2.742507e+02
  -1.572581e+02   6.105533e+02
  -3.315944e+02   1.281671e+02
  -2.789926e+02  -3.784312e+02
   9.808088e+01  -5.498996e+02
   3.619317e+02  -2.511133e+02
   4.579560e+02   7.196848e+01
   1.974132e+02   3.630102e+02
  -9.237339e+01   2.088185e+02
  -4.116491e+01   1.159345e+02
   1.016888e+02   1.074559e+02
   2.605706e+02   2.536177e+02
  -2.927200e+01   2.926177e+02
  -4.284928e+02   1.111884e+02
  -5.224186e+02  -2.059332e+02
  -2.562871e+02  -2.610109e+02
   2.525047e+02  -8.194531e+01
   3.732690e+02   9.662647e+01
   1.781101e+02   3.033045e+02
  -1.664770e+02   2.714085e+02
  -3.815478e+02   1.650744e+02
  -3.026735e+02  -1.583898e+02
  -1.596070e+02  -3.201518e+02
  -1.887990e+01  -1.883678e+02
  -7.104553e+01   2.950480e+01
  -1.104392e+02   6.422424e+01
  -1.169820e+02  -1.256367e+02
   4.649200e+01  -4.312558e+02
   2.566776e+02  -3.777736e+02
   3.004791e+02  -2.833659e+01
   1.242131e+02   2.583442e+02
  -1.030379e+02   1.323272e+02
  -1.336965e+02  -2.745199e+02
   1.656585e+02  -3.133525e+02
   4.181047e+02   3.343677e+01
   4.665727e+02   3.878742e+02
   1.205716e+02   4.881940e+02
  -2.975495e+02   3.019205e+02
  -4.518619e+02  -2.272615e+01
  -3.500572e+02  -1.759462e+02
   2.030338e+01  -1.703767e+02
   2.448307e+02  -8.608087e+01
   2.031507e+02   1.234242e+01
   2.698672e+01   4.587537e+01
  -2.084542e+01   2.686561e+01
   1.000792e+02  -2.850399e+01
   1.766534e+02   3.422481e+01
   1.516070e+02   1.707082e+02
  -1.141753e+02   2.169611e+02
  -3.532484e+02   1.755174e+02
  -3.242331e+02  -4.415861e+01
  -2.258108e+01  -3.350517e+02
   2.499394e+02  -3.632073e+02
   4.270196e+02  -2.111443e+02
   2.518547e+02   1.209461e+02
   4.174737e+01   3.252391e+02
   5.299286e+00   3.270993e+02
  -3.465261e+01   1.919059e+02
   2.003311e+00   1.145091e+02
  -1.145042e+02   1.148196e+02
  -2.539650e+02   8.783992e+01
  -2.315287e+02  -7.829257e+01
  -8.605855e+01  -2.475766e+02
   7.603260e+01  -1.740560e+02
   1.640176e+02   2.328310e+01
   6.124926e+01   2.654606e+02
  -6.705498e+01   2.267105e+02
  -2.246097e+02   7.293112e+01
  -2.730801e+02  -1.877995e+02
  -1.765285e+02  -2.717079e+02
   2.438483e+01  -2.531594e+02
   1.295556e+02  -1.456011e+02
   1.331982e+02  -1.567076e+02
   1.963721e+02  -1.145050e+02
   3.114285e+02  -3.557360e+01
   4.196667e+02   1.200319e+02
   2.953766e+02   3.625367e+02
  -5.106942e+01   4.538647e+02
  -3.562809e+02   3.801511e+02
  -5.130333e+02   1.617767e+02
  -3.212604e+02  -7.062390e+01
  -3.388917e+01  -1.954312e+02
   4.507065e+01  -1.683200e+02
   1.639941e+01  -5.320690e+01
  -1.323954e+02   5.142618e+01
  -1.569380e+02  -7.172079e+01
   2.762153e+01  -1.507478e+02
   1.002020e+02  -1.230760e+02
   1.166920e+02   2.390179e+01
  -5.723134e+01   1.174502e+02
  -1.260991e+02   2.176389e+01
  -1.221052e+02  -2.795247e+02
  -1.816094e+01  -3.888096e+02
   1.859138e+02  -2.356892e+02
   3.378728e+02   6.630976e+01
   2.957372e+02   2.536424e+02
   9.618403e+01   2.429714e+02
  -1.174039e+02   1.838419e+02
  -1.239881e+02   2.623812e+01
  -6.930829e+01  -1.657406e+01
   3.511390e+01   7.157098e+01
   5.624731e+00   6.969410e+01
  -1.122006e+02   1.935778e+01
  -1.314812e+02  -4.829065e+01
  -2.998452e+01  -6.208037e+01
   7.830112e+01   2.964759e+01
   9.891836e+01   8.030393e+01
  -1.349119e+02   8.210702e+01
  -3.042753e+02  -6.800829e+01
  -2.956509e+02  -2.003313e+02
   4.073064e+00  -2.535810e+02
   2.323766e+02  -2.296598e+02
   2.791385e+02  -3.881198e+01
   1.226104e+02   2.581523e+01
  -1.952031e+00   6.590364e+01
  -5.304468e+01  -2.831424e+00
   7.476889e+01  -7.476935e+01
   1.903355e+02  -3.169156e+01
   1.609726e+02   9.305350e+01
   4.878669e+01   1.988459e+02
  -3.073352e+01   9.196126e+01
  -1.312376e+02  -1.873685e+01
  -2.110632e+01  -5.276444e+01
   5.548383e+01   4.172056e+01
   4.256458e+01   8.274997e+01
  -1.050425e+02   7.096456e+01
  -2.505370e+02   3.406009e+01
  -1.607000e+02  -1.606451e+02
  -3.465518e+00  -1.753492e+02
   1.476195e+02  -1.669001e+02
   1.620934e+02  -4.355558e+00
   8.075779e+01   7.886302e+01
  -4.210358e+01   1.164191e+02
  -5.465344e+01   1.344474e+01
   7.495635e-01  -4.390393e+01
   5.805858e+01  -1.609639e+01
  -2.539283e+01   3.112939e+01
  -7.254688e+01  -3.282248e+01
  -1.129093e+02  -1.131712e+02
   7.999862e+00  -1.914577e+02
   1.295358e+02  -1.942233e+02
   2.530193e+02  -2.511639e+01
   1.942178e+02   1.311149e+02
   9.005870e+00   2.519191e+02
  -6.370460e+01   1.209648e+02
  -9.688376e+01   4.860975e+01
  -1.127322e+02  -3.887326e+01
  -5.819413e+01  -1.303587e+01
  -7.258693e+01   3.415127e+00
  -1.242611e+02   1.671250e+01
  -4.169184e+01  -5.463346e+01
   5.164103e+01  -1.250295e+02
   1.213206e+02  -5.275143e+01
   9.676871e+01   5.384898e+00
  -5.177051e+01   1.455791e+02
  -1.505440e+02   9.634567e+01
  -2.074451e+02  -7.992175e+01
  -5.041161e+01  -1.751292e+02
   1.115247e+02  -2.059342e+02
   2.221031e+02  -7.616760e+01
   2.460251e+02   8.623744e+01
   7.175928e+01   8.055900e+01
   9.959813e+00   1.089087e+02
  -8.214198e+01   8.520136e+01
  -4.263940e+01   8.367544e+01
  -1.612929e+01   1.014175e+02
  -9.584695e+01   9.962661e+01
  -1.128686e+02  -2.427196e+01
  -1.350675e+02  -1.230692e+02
  -2.741625e+01  -1.747924e+02
   1.069019e+02  -1.324563e+02
   1.588364e+02  -7.175733e+01
   1.382609e+02   1.130130e+02
   3.787916e+01   1.566187e+02
  -9.882435e+01   8.776929e+01
  -3.335936e+01   9.195813e-01
  -1.743946e+01  -1.981373e+01
   5.047092e+01  -4.126249e+01
  -6.701209e+01  -2.624488e+01
  -7.579363e+01  -7.095461e+01
  -6.378655e+01  -3.051561e+01
   6.589360e+01  -2.733917e+01
   2.185165e+02  -2.536522e+01
   1.865840e+02   8.151800e+01
   1.195972e+01   1.214864e+02
  -1.663378e+02   9.487141e+01
  -1.359480e+02   4.212836e+01
  -3.746556e+01  -8.648928e+01
   6.211063e+01  -9.021736e+01
   6.451619e+01  -3.811855e+00
   8.169163e+01   8.077808e+01
  -2.073027e+01   6.181058e+01
  -1.019336e+02   2.152555e+01
  -3.998822e+01  -1.641476e+01
  -6.020886e+01  -3.457738e+01
  -9.145005e+01   1.173881e+00
  -6.840029e+01  -6.148687e+01
  -8.345617e+01  -6.739393e+01
   5.281184e+01  -1.648548e+02
   1.019722e+02  -1.556753e+02
   1.099601e+02  -1.628738e+01
   1.432422e+02   1.498304e+02
  -1.951251e+01   1.222261e+02
  -8.763471e+01   7.674299e+01
  -6.573903e+01   1.825429e+01
   3.826088e+01   4.548037e+01
   1.047090e+02   7.616611e+01
   3.301495e+01   1.018131e+02
  -9.464742e+01   1.536065e+02
  -1.734184e+02   4.049510e+01
  -1.541415e+02  -4.490056e+01
  -1.784071e+01  -8.475787e+01
   4.871516e+01  -5.529241e+00
   5.931156e+01   3.234616e+01
  -3.497345e+01   1.793831e+01
  -9.227921e+01  -5.654265e+01
  -4.275943e+01  -1.271758e+02
   9.133525e+01  -1.267009e+02
   1.615869e+02  -5.731537e+01
   1.318393e+02   1.134500e+02
   6.103570e+00   1.459841e+02
  -5.446038e+01   1.782642e+02
  -6.389971e+01   6.964195e+00
  -3.593629e+01  -6.968885e+01
  -2.923406e-01  -7.574787e+01
   1.559309e+00   2.740532e+01
   1.814990e+01   1.763490e+01
  -1.576406e+01   2.419198e+01
  -4.773450e+00  -2.257983e+01
   2.494866e+01  -1.065909e+01
   1.060516e+02   1.148857e+02
   6.230972e+01   1.155093e+02
  -5.992147e+01   2.576725e+01
  -1.183133e+02  -3.861147e+01
  -1.388531e+02  -2.381008e+01
   7.848097e+00  -7.018639e+01
   7.606123e+01  -4.567807e+01
   5.874424e+01  -1.012683e+01
   1.071562e+00   4.870577e+01
  -4.313547e+01   4.530374e+01
  -1.011128e+01  -1.125210e+01
  -2.462423e+01   1.353697e+01
   2.850023e+01  -1.942520e+01
  -4.665845e+01   2.941316e+01
  -7.987430e+01   6.265083e+00
  -1.986362e+01  -6.876036e+01
   1.162449e+02  -1.181169e+02
   1.327965e+02  -5.212102e+01
   1.200326e+02   2.686753e+00
   2.866709e+01   1.152751e+02
  -7.901522e+01   1.385331e+02
  -1.144620e+02   1.123714e+02
  -9.778173e+01  -3.466634e+01
  -1.064128e+01  -6.243651e+01
  -2.353867e+00  -3.195644e+01
  -5.401391e+01   6.732066e+00
  -2.681474e+01  -1.513842e+01
  -5.148440e+01  -3.542962e+01
  -1.376626e+01  -6.704573e+01
   3.853188e+01   5.852772e+00
   8.797588e+01   1.236620e+02
  -2.509005e+01   1.398967e+02
  -1.007526e+02   4.982813e+01
  -1.211186e+02  -4.956273e+01
  -4.597097e+01  -9.563287e+01
   1.574329e+01  -7.636322e+01
   1.264930e+02   3.795150e+00
   4.784138e+01   6.859341e+01
  -1.245079e+01   7.245938e+01
  -5.413720e+01   1.484517e+00
   3.681914e+01  -2.876013e+00
   1.069542e+02   3.475125e+00
   2.132067e+01  -8.726591e+00
  -9.508961e+01   2.385107e+01
  -1.238017e+02   2.724991e+01
  -8.528790e+01   1.435454e+01
   1.939893e+01  -9.159362e+01
   7.816087e+01  -7.422219e+01
   6.566907e+01  -1.147197e+01
   1.662205e+01   9.562742e+01
  -5.487384e+01   6.531057e+01
  -2.598217e+01  -4.547833e+01
  -3.585187e+01  -7.331078e+01
   1.094480e+01  -7.665077e+01
   4.250741e+01  -1.017035e+01
   5.045912e+01   4.019721e+01
   8.772437e+00   2.113781e+01
   1.148678e+00  -3.589172e+01
  -2.148840e+01  -9.331922e-01
  -2.090516e+01   2.138822e+01
  -3.389898e+01   6.247607e+01
  -3.054847e+01   6.079281e+01
  -5.917737e+01  -8.975744e+00
  -3.715187e+01  -2.204698e+01
   1.656049e+01  -1.808096e+01
   2.860470e+01  -1.810864e+01
   5.678708e+01   1.400974e+01
  -3.625814e+01   5.414279e+01
  -5.949908e+01   1.536396e+01
  -3.294817e+01  -1.866807e+01
   2.024586e+01  -2.273407e+01
   7.710600e+01   1.280127e+01
   4.863073e+01  -1.301162e+01
  -5.726290e+01  -2.715948e+01
  -3.811069e+01   4.166741e+01
  -1.384884e+01  -5.175686e+01
   7.699010e+01  -2.178312e+01
