
 $NMID
 id='ANONYMOUS ', fmtdat='(2E16.6)'
 volume=1.0
 tramp=1.0
 $END
   2.306533e+03   9.791519e+01
   1.238213e+03   9.933343e+02
   1.972404e+02   1.301798e+03
  -5.797178e+02   8.351319e+02
  -6.395530e+02   2.724190e+02
  -1.219157e+02  -1.375054e+02
   9.457028e+01  -8.801036e+00
   1.335447e+02   1.860935e+02
  -1.806341e+02   3.375314e+02
  -3.633116e+02   9.910296e+01
  -3.109894e+02  -3.127753e+02
  -5.960607e+01  -4.262640e+02
   5.879872e+01  -1.067905e+02
   9.259922e+01   2.578757e+02
  -2.956467e+01   3.596092e+02
  -2.233049e+02   7.197899e+01
  -1.750248e+02  -2.479324e+02
   2.011575e+01  -3.854683e+02
   2.203081e+02  -2.620448e+02
   3.137279e+02   4.628159e+01
   1.615559e+02   1.844155e+02
  -1.811290e+01   1.978165e+02
   2.284681e+01   8.489824e+01
   9.378528e+01   9.017618e+01
   8.774777e+01   2.432664e+02
  -1.083372e+02   1.521312e+02
  -3.062882e+02   8.639038e+01
  -4.428306e+02  -1.238352e+02
  -7.738452e+01  -2.027077e+02
   1.444216e+02  -7.037470e+01
   3.043868e+02   7.964371e+01
   1.291607e+02   1.260731e+02
  -1.556417e+02   2.410750e+02
  -2.310257e+02   8.114584e+01
  -2.342092e+02  -9.171245e+01
  -7.858410e+01  -1.871888e+02
  -8.480227e+01  -1.318194e+02
  -6.718259e+01   4.569647e+01
  -9.145016e+01   9.838017e+01
  -9.837686e+01  -9.393626e+01
   2.815244e+01  -2.630479e+02
   1.263337e+02  -2.505280e+02
   1.978136e+02   1.778514e+01
   9.366375e+01   1.585181e+02
  -6.749025e+01   5.228398e+01
  -7.247014e+01  -1.218003e+02
   3.120204e+01  -1.888325e+02
   2.228070e+02   3.866073e+00
   2.878744e+02   1.902810e+02
   9.607296e+01   3.515541e+02
  -1.541377e+02   1.562864e+02
  -3.299393e+02  -8.894455e+00
  -2.348474e+02  -1.380663e+02
  -1.726495e+01  -8.881271e+01
   1.627497e+02  -5.991343e+01
   1.251940e+02  -1.148227e+01
   2.729066e+01   6.587921e+00
  -1.537705e+01  -1.980645e+01
   5.309540e+01   1.658615e+01
   1.120232e+02   3.047764e+01
   1.027667e+02   8.819382e+01
  -1.042581e+02   1.680270e+02
  -2.340910e+02   1.188443e+02
  -1.574787e+02  -4.591636e+01
  -2.584174e+01  -2.417138e+02
   2.014496e+02  -2.659005e+02
   2.754050e+02  -1.515291e+02
   1.406362e+02   9.629337e+01
   5.620578e+01   2.081256e+02
   2.926444e+01   2.053676e+02
   3.441581e+01   1.082007e+02
   9.104575e+00   1.524733e+02
  -1.247767e+02   1.859395e+02
  -1.567017e+02   1.135529e+01
  -2.172526e+02  -1.178179e+02
  -7.363078e+01  -2.286049e+02
   9.122062e+01  -1.121270e+02
   1.638575e+02   5.918237e+01
   6.346286e+01   1.899390e+02
  -4.748371e+01   1.688957e+02
  -2.455165e+02   3.083097e+01
  -2.262753e+02  -9.343905e+01
  -1.339214e+02  -2.495277e+02
   1.246611e+01  -2.196164e+02
   1.214220e+02  -1.357492e+02
   1.051095e+02  -5.452260e+01
   7.839891e+01  -2.743245e+01
   2.027924e+02  -8.222094e+00
   3.165366e+02   8.873171e+01
   2.310987e+02   1.966208e+02
  -2.750769e+01   3.071441e+02
  -2.274042e+02   2.826499e+02
  -3.181348e+02   1.151814e+02
  -1.628987e+02  -6.197379e+01
  -3.353475e+00  -1.790157e+02
   6.930802e+01  -1.117033e+02
   4.288996e+01  -3.388317e+01
  -6.307890e+01   6.306818e+01
  -6.467109e+01   2.829497e+01
   2.393693e+01  -8.639132e+01
   4.964809e+01  -4.150193e+01
   1.357385e+01   2.946434e+01
  -1.374279e+01   9.556917e+01
  -1.807781e+02   8.618541e+00
  -1.644580e+02  -1.355861e+02
   1.825859e+01  -2.241361e+02
   1.585859e+02  -1.681866e+02
   2.275572e+02   7.108433e+01
   1.896944e+02   1.431652e+02
   4.574116e+01   2.033285e+02
  -7.991546e+01   9.832359e+01
  -9.982227e+01   5.833598e+00
  -3.717597e+00   1.960298e+01
   4.943900e+01   7.229125e+01
  -2.501499e-01   6.588375e+01
  -5.517130e+01   2.403786e+01
  -7.864914e+01   1.263322e+01
   8.849692e+00  -4.844880e+01
   8.040982e+01   4.897128e+01
   4.649450e+01   1.328914e+02
  -1.557481e+02   8.896855e+01
  -1.715151e+02  -1.896378e+01
  -1.669641e+02  -1.152469e+02
  -1.824297e+01  -1.643511e+02
   1.429782e+02  -1.552270e+02
   1.481781e+02  -6.476145e+01
   6.783935e+01   7.497966e+01
  -2.631247e+01  -1.859165e+01
  -5.032580e+01  -2.202257e+01
   4.123598e+01  -9.431016e+01
   1.468969e+02  -3.151183e+01
   1.197824e+02   5.099082e+01
   4.835087e+01   1.199009e+02
  -6.697047e+01   8.068682e+01
  -7.874321e+01   6.307365e+00
  -4.448461e+01  -2.887483e+00
   3.472363e+01  -5.060805e+00
   1.603323e+01   1.247827e+02
  -4.918940e+01   6.843598e+01
  -1.735688e+02  -4.043508e+01
  -1.489944e+02  -8.967962e+01
   2.070370e+00  -1.483484e+02
   7.470617e+01  -4.348096e+01
   1.130317e+02  -1.031641e+00
   6.093139e+01   4.962532e+01
  -4.300884e+01   8.620682e+01
  -1.478574e+01   2.111505e+01
   1.563406e+01   2.419666e+01
  -8.721838e+00   4.447232e+01
  -1.165996e+00   1.631400e+01
  -1.039733e+02  -3.944819e+01
  -1.164640e+02  -7.573061e+01
  -1.098154e+01  -1.545760e+02
   1.234166e+02  -1.009302e+02
   1.585944e+02   2.172449e+01
   1.361187e+02   8.610001e+01
   7.106483e+01   1.358495e+02
  -8.654672e+01   9.108586e+01
  -1.007100e+02   9.554024e+00
  -3.961208e+01   2.345220e+01
  -1.735795e+01   5.806242e+00
  -1.085721e+01   5.629452e+01
  -3.712640e+01  -5.555194e+01
  -5.352224e+01  -3.101636e+01
   8.192827e+01  -1.069663e+02
   1.094213e+02  -4.317321e+01
   6.047843e+01   5.888692e+01
  -4.216046e+01   1.139133e+02
  -1.326290e+02   9.595408e+01
  -1.337102e+02  -6.120711e+01
  -3.988328e+01  -1.829510e+02
   6.736796e+01  -1.795382e+02
   1.630518e+02  -6.498547e+01
   1.932081e+02   9.514753e+01
   5.204683e+01   1.356503e+02
  -4.875213e+01   8.739135e+01
  -1.845735e+00   2.110727e+01
  -4.524832e+01   1.942627e+01
  -6.046002e+01   6.581741e+01
  -9.165866e+01   4.275749e+01
  -1.329147e+02  -1.918674e+01
  -9.537639e+01  -1.127417e+02
  -3.334329e+01  -1.255260e+02
   8.429861e+01  -1.240996e+02
   9.213068e+01  -3.467568e+01
   6.772519e+01   8.529733e+01
   2.005552e+01   7.266587e+01
  -7.434752e+01   6.270288e+01
  -3.058871e+01  -1.803958e+01
  -3.902332e+00  -2.252259e+01
   6.281815e+01  -2.336046e+01
   1.312445e+01   3.393293e+01
  -2.505034e+01  -4.276369e+01
  -3.745207e+01  -6.553503e+01
   3.625119e+01  -3.261005e+01
   1.818061e+02  -5.215783e+01
   8.241114e+01   2.448672e+01
   1.547246e+01   6.614739e+01
  -7.051538e+01   3.512190e+01
  -9.349524e+01  -1.726206e+01
   1.490725e+01  -5.372288e+01
   7.619191e+01  -2.167307e+01
   6.330540e+01   4.824587e+01
   1.735928e+01   5.121420e+01
  -5.651121e+01   7.363310e+01
  -6.722432e+01   4.206328e+01
  -6.828535e+01  -2.331525e+00
  -6.232256e+01  -5.273856e+01
  -7.864094e+01  -4.042728e+01
  -6.463646e+01  -2.810948e+01
  -1.170617e+01  -5.169811e+01
   1.384361e+01  -1.059681e+02
   1.369773e+02  -6.809887e+01
   1.074850e+02   3.773667e+01
   9.842692e+01   8.402995e+01
  -5.006518e+00   9.345129e+01
  -9.333395e+01   3.671165e+01
  -1.820020e+01   3.478822e+01
   7.527139e+01  -3.152153e+01
   1.520961e+02   4.923307e+01
   8.862405e+01   7.797189e+01
  -8.721395e+01   8.297076e+01
  -1.462783e+02   3.580732e+01
  -6.080237e+01  -4.003220e+01
  -6.323916e+01  -4.397125e+01
   6.841334e+01  -3.671002e+01
   4.119708e+01   1.818210e+01
  -5.167984e+01   4.790562e+01
  -6.252695e+01  -4.654222e+01
  -4.770828e+01  -1.119384e+02
   2.807035e+01  -1.361496e+02
   1.444045e+02  -5.093625e+01
   7.529081e+01   2.890976e+01
   1.411168e+01   9.971684e+01
  -5.551766e+01   9.852159e+01
  -7.424732e+01  -6.357007e+00
  -5.067707e+01  -1.139647e+02
  -1.180432e+01  -1.191491e+02
   4.687320e+01   2.336163e+00
   4.088852e+01   3.302906e+01
   5.451888e+01   1.049436e+01
  -5.253470e+00  -7.981652e+00
   8.000966e+01   2.975842e+01
   5.018475e+01   9.995455e+01
   6.657954e+00   6.880208e+01
  -6.017093e+01   3.349039e+01
  -1.297453e+02  -5.791380e+00
  -1.028139e+02  -6.593384e+01
   2.798507e+01  -3.702303e+01
   8.893427e+01  -4.819823e+01
   9.553243e+01   3.938571e+01
   3.231285e+01   1.207616e+01
  -5.624486e+01   4.616580e+01
  -5.666390e+00   2.146657e+00
   1.586820e+01   2.548523e+01
  -1.013080e+01   2.261285e+01
  -1.736677e+01  -3.610313e+01
  -5.541697e+01  -9.881683e+00
  -6.366427e+01  -2.414530e+01
   9.450339e+01  -1.044496e+02
   1.221166e+02  -3.080370e+01
   1.290268e+02   4.762839e+01
  -1.292789e+00   1.000991e+02
  -4.893174e+01   1.056036e+02
  -6.527962e+01   9.744549e+00
  -5.250099e+01  -1.009117e+01
  -2.631753e+01  -3.508198e+01
  -6.940318e+00  -3.098220e+01
   1.353396e+01  -1.467245e+01
  -1.920037e+01  -4.573211e+01
   5.809022e+00  -1.091887e+02
   1.713176e+01  -3.540561e+01
   3.396504e+01  -6.137662e+00
   5.887778e+01   1.231773e+02
  -2.368876e+01   1.097427e+02
  -4.719726e+01   5.299439e+01
  -7.041506e+01  -2.258218e+01
  -1.641079e+01  -9.889087e+01
   1.920302e+01  -3.030003e+01
   8.728501e+01   1.368867e+01
   4.796378e+01   6.880312e+01
  -2.307577e+01   5.731959e+01
  -2.017626e+01  -4.713293e+01
   4.810967e+00  -1.443934e+01
   9.773722e+01  -1.951428e+01
   1.814770e+01   2.316297e+01
  -1.009823e+02   7.879634e+01
  -3.612585e+01   5.708711e+01
  -6.033032e+01  -1.557020e+01
   2.942559e+01  -6.839141e+01
   6.860559e+01  -8.301336e+01
   1.057250e+00   2.011348e+01
   4.223718e+01   3.595251e+01
  -3.495279e+01   4.037729e+01
  -6.389238e+00  -3.589743e+01
  -5.045926e+01  -7.188951e+01
   4.703302e+01  -8.139521e+01
  -1.960715e+01   1.194057e+01
   3.534020e+01   3.267658e+01
   5.131722e+01  -2.625594e+00
  -5.125449e+01  -2.143111e+01
  -2.294603e+01   1.157638e+01
   1.826680e+01   1.951916e+01
  -8.870862e+00   2.711943e+01
   4.826429e+00  -5.515725e+00
  -1.856916e+01  -6.950506e+01
   2.214271e+00  -1.265394e+01
   1.888457e+01  -2.750325e-01
   8.388161e+01   4.191025e+01
   7.502416e+01   4.593139e+01
  -5.520917e+01   4.190414e+01
  -9.233029e+01  -9.801607e+00
  -6.035572e+01  -1.398574e+01
  -2.228896e+01  -2.131885e+01
   1.842607e+01  -9.156156e+00
   2.354370e+01  -5.415209e+01
  -3.353598e+01   1.184284e+01
   1.524483e+00  -2.742912e+01
   3.449960e+01  -4.114716e+01
   3.273928e+01  -2.559066e+01
