
 $NMID
 id='ANONYMOUS ', fmtdat='(2E16.6)'
 volume=1.0
 tramp=1.0
 $END
  -3.709116e+03  -3.815820e+01
  -2.414390e+03  -2.157464e+03
   1.767837e+02  -2.530285e+03
   1.625607e+03  -1.197440e+03
   9.047455e+02   2.288981e+02
  -2.002215e+02   3.335985e+02
  -6.377986e+02  -1.547721e+02
  -8.879536e+01  -8.685199e+02
   5.418554e+02  -7.654042e+02
   7.476453e+02  -1.248530e+02
   5.932216e+02   6.541472e+02
  -6.661613e+01   7.788964e+02
  -4.715344e+02   2.796923e+02
  -3.639411e+02  -5.719546e+02
   1.936296e+02  -6.531198e+02
   4.982110e+02  -7.342526e+01
   2.957391e+02   5.871590e+02
  -1.787949e+02   7.047026e+02
  -4.845696e+02   1.720360e+02
  -4.324673e+02  -2.979856e+02
  -8.220881e+01  -5.311984e+02
   2.332525e+02  -3.414756e+02
   1.908782e+02  -4.757546e+01
  -2.603470e+02   1.919219e+01
  -3.890856e+02  -2.045671e+02
  -7.041674e+00  -3.636556e+02
   5.148419e+02  -2.734884e+02
   8.176912e+02   1.648271e+02
   2.788135e+02   4.276667e+02
  -4.285727e+02   3.317477e+02
  -6.827449e+02  -1.401553e+02
  -2.184242e+02  -5.082550e+02
   3.452697e+02  -4.151047e+02
   5.173262e+02  -1.642916e+02
   3.553791e+02   1.705350e+02
   6.198370e+01   4.401212e+02
  -1.362346e+02   2.139125e+02
  -1.927758e+01  -2.063719e+02
   2.429674e+02  -2.996931e+02
   3.046378e+02   1.194911e+02
   7.678692e+01   6.191215e+02
  -3.052551e+02   5.879548e+02
  -4.748530e+02  -2.815706e+01
  -1.418878e+02  -4.634706e+02
   2.236807e+02  -2.587255e+02
   2.775685e+02   2.926915e+02
  -9.618821e+01   4.908928e+02
  -5.213429e+02   1.143583e+02
  -5.620838e+02  -4.128851e+02
  -1.679570e+02  -5.807001e+02
   3.845000e+02  -3.321555e+02
   5.554596e+02   5.176881e+01
   3.474731e+02   3.039772e+02
  -7.367600e+01   2.966015e+02
  -3.245441e+02   1.201612e+02
  -2.370263e+02  -6.789298e+01
   3.109714e+01  -9.623298e+01
   6.278814e+01   6.135089e+01
  -1.042723e+02   8.126810e+01
  -2.252362e+02  -8.205561e+01
  -1.037444e+02  -2.268886e+02
   1.854689e+02  -2.603021e+02
   3.266010e+02  -1.066089e+02
   2.293981e+02   1.043161e+02
  -4.285313e+01   2.188767e+02
  -2.500759e+02   3.633400e+02
  -3.368268e+02   2.139330e+02
  -2.300260e+02  -1.689995e+02
  -3.103637e+01  -4.372413e+02
   4.840361e+01  -3.553925e+02
   4.739293e+01  -1.536154e+02
   7.402155e+01  -6.039374e+01
   1.023841e+02  -1.134896e+02
   2.153655e+02  -1.312751e+02
   2.583164e+02   7.881099e+01
   1.488752e+02   2.736515e+02
  -9.931320e+01   2.320553e+02
  -2.216294e+02  -2.161809e+00
  -1.589061e+02  -2.620198e+02
   8.780539e+00  -3.191507e+02
   2.829362e+02  -3.190696e+01
   3.527622e+02   2.325446e+02
   1.669320e+02   3.802435e+02
  -7.148762e+01   2.849125e+02
  -2.290197e+02   1.731070e+02
  -1.827291e+02   2.285906e+01
  -1.494636e+02  -4.656095e+00
  -2.691307e+02   5.734690e+01
  -3.993110e+02  -7.129193e+01
  -2.737564e+02  -3.165304e+02
   4.300222e+01  -4.778319e+02
   4.399235e+02  -4.026213e+02
   5.872358e+02  -1.740503e+02
   3.498218e+02   1.850670e+02
   2.497081e+01   2.994714e+02
  -1.501360e+02   2.411971e+02
   1.229908e+01   9.156925e+01
   1.223663e+02  -4.166022e+01
   1.368963e+02   6.922915e+01
   1.203160e+01   1.954690e+02
  -2.039121e+02   1.166770e+02
  -1.535865e+02  -1.221036e+02
   5.488556e+01  -1.883895e+02
   1.820264e+02  -4.212845e+01
   1.577012e+02   2.428986e+02
  -3.577400e+01   3.635030e+02
  -2.877474e+02   2.159615e+02
  -3.593285e+02  -8.102572e+01
  -2.763920e+02  -3.127460e+02
  -8.025711e+01  -2.963180e+02
   1.109753e+02  -1.342231e+02
   1.280067e+02   1.453705e+01
   7.757413e+01   2.462442e+01
  -4.527420e+01  -6.354024e+01
  -8.992383e+00  -9.526450e+01
   1.234689e+02  -5.530702e+01
   1.295994e+02  -1.256010e+01
   2.344713e+01   1.048328e+02
  -8.957895e+01  -1.475615e+01
  -6.843224e+01  -8.560572e+01
   1.696284e+02  -7.754355e+01
   2.923910e+02   3.282237e+01
   2.489094e+02   1.572466e+02
   2.414528e+01   2.373369e+02
  -2.125819e+02   2.629828e+02
  -2.948740e+02   1.326637e+02
  -1.685692e+02  -2.837114e+01
   2.147585e+01  -1.398293e+02
   6.643696e+01   1.116362e+00
  -3.376960e+01   1.099543e+02
  -1.918108e+02   6.180239e+01
  -2.158534e+02  -1.190807e+02
  -6.497719e+01  -1.776947e+02
   7.651853e+01  -1.044157e+02
   1.469704e+02  -1.561071e+01
   6.732763e+01   3.481915e+01
   3.724773e+00  -4.739762e+00
  -2.271501e+01  -8.572865e+01
   1.328277e+02  -1.431968e+02
   2.362741e+02  -2.203047e+01
   2.138122e+02   1.729027e+02
   5.317630e+00   2.788514e+02
  -1.732149e+02   1.927960e+02
  -1.815215e+02   1.007732e+01
  -7.635567e+01  -1.260974e+02
   4.731958e+01  -1.212174e+02
   8.095502e+01  -2.644128e+01
   5.310430e+01   1.191742e+01
  -2.987708e+01   3.983582e+01
  -2.577709e+00  -1.850415e+01
   9.793095e+01  -9.699693e+00
   1.024782e+02   6.027072e+01
   2.203888e+01   1.858809e+02
  -1.326150e+02   1.436828e+02
  -2.951142e+02  -2.716931e+00
  -1.660121e+02  -1.577335e+02
  -3.948899e+01  -2.522154e+02
   1.411836e+02  -1.730272e+02
   1.353249e+02  -3.408878e+01
   6.500560e+01   8.644153e+01
   4.251193e+01   5.865510e+01
   4.069891e+01  -1.120094e+01
   4.907554e+01  -3.548539e+01
   8.422017e+01   6.869089e+01
  -5.923047e+01   1.092638e+02
  -1.163189e+02   4.048528e+01
  -1.345194e+02  -6.487696e+01
   2.592646e+00  -1.298448e+02
   1.683967e+02  -5.813802e+01
   2.357099e+02   3.415163e+01
   1.112145e+02   1.803719e+02
  -1.130013e+02   2.387330e+02
  -2.917870e+02   7.660861e+01
  -2.667651e+02  -5.152773e+01
  -1.129479e+02  -1.734554e+02
   5.415569e+01  -1.480215e+02
   1.096647e+02  -1.331222e+02
   8.922322e+01  -6.911676e+01
   5.158583e+01  -9.672744e+01
   8.666746e+01  -7.304264e+01
   1.062218e+02   1.195511e+01
   1.294519e+02   1.923788e+02
  -1.342517e+00   2.333850e+02
  -9.180279e+01   1.985795e+02
  -1.908933e+02   1.140528e+00
  -1.415096e+02  -1.498628e+02
  -8.585777e+00  -1.528890e+02
   9.082968e+01  -1.179415e+02
   2.873328e+00   2.674700e+01
   5.253199e+00   5.435477e+01
  -3.236825e+01   2.641180e+01
   4.930478e+01  -1.127170e+01
   8.265044e+01   3.779005e+01
   7.414722e+01   3.915849e+01
  -6.955858e+01   8.091815e+01
  -2.116405e+02   1.540209e+01
  -1.438102e+02  -6.244957e+01
  -3.431862e+01  -8.839472e+01
   1.501840e+02  -6.886157e+01
   1.575372e+02  -7.441554e+00
   2.479139e+01   8.100037e+01
  -7.658320e+01   1.778750e+01
  -7.992543e+01   4.059781e-01
  -1.831061e+00  -8.830460e+01
   5.530203e+01  -4.587783e+01
   7.518901e+01  -2.039084e+01
   5.036121e+01   5.456827e+01
   4.312860e+01   7.547568e+00
   1.101578e+02   2.880861e+01
   5.170192e+01  -3.034167e+01
   2.479547e+01   8.544784e+01
  -1.305976e+01   1.660414e+02
  -1.282213e+02   1.576185e+02
  -1.432349e+02   3.072565e+01
  -1.197886e+02  -1.066271e+02
  -6.500351e+00  -1.812109e+02
   1.205470e+02  -1.161180e+02
   9.114905e+01   1.748270e+01
  -5.853989e+01   1.537272e+01
  -1.052352e+02  -5.830522e+01
  -1.227425e+02  -1.598614e+02
   1.153257e+02  -1.461252e+02
   1.922254e+02  -4.917122e+01
   1.572958e+02   4.525120e+01
   8.844057e+01   7.738173e+01
  -7.556369e+01   2.024090e+01
  -9.087016e+01  -2.499651e+01
   2.040898e+01  -4.825345e+01
   1.077730e+02   9.867650e+00
   8.015962e+01   6.721702e+01
  -3.110288e+01   1.699626e+02
  -1.288668e+02   8.262215e+01
  -1.360472e+02  -9.475639e+01
   1.717363e+01  -2.281284e+02
   9.671507e+01  -1.564655e+02
   5.912470e+01   2.778381e+01
   7.860507e+01   1.736458e+02
  -1.856715e+01   1.033765e+02
  -3.492709e+01   1.557906e+01
  -4.702308e+01  -3.213321e+01
  -9.158140e+00  -6.001141e+00
   1.262957e+01   3.155557e+01
  -3.656285e+00  -2.786397e+01
  -2.472730e+01  -9.724155e+01
  -4.447329e+01  -1.131770e+02
   4.625691e+01  -2.673005e+01
   1.598947e+02   6.034382e+01
   1.329977e+02   1.029037e+02
  -4.238537e+00   3.955234e+01
  -1.490037e+02   3.079799e+01
  -9.009370e+01   1.758161e+01
  -5.900389e+01   1.036440e+01
   3.493108e+01  -2.521489e+01
   1.154038e+01  -2.499831e+01
   1.542446e+01  -2.799320e+01
  -4.583978e+01   1.988193e+01
   1.215363e+02  -6.610413e+01
   1.056900e+02   1.904774e+01
   7.811326e+01   4.483537e+01
  -7.219866e+01   1.515490e+02
  -2.196107e+02   1.066426e+02
  -1.988284e+02  -3.319064e+00
   1.923931e+01  -1.265513e+02
   5.613529e+01  -1.879630e+02
   1.111720e+02  -6.041850e+01
   7.494888e+01  -1.920280e+01
   2.737941e+01   6.741537e+01
  -1.836315e+01   4.497150e+01
   3.762497e+01   1.494092e+01
   2.337462e+01   9.030191e-01
  -1.245048e+00   8.944550e+01
   4.950441e+00   8.722432e+01
  -8.973098e+01   8.345320e+00
  -1.095274e+02  -8.718293e+01
   3.541382e+00  -1.061700e+02
   3.536076e+01  -2.248105e+01
   1.081328e+02   4.174659e+01
   2.354547e+01   1.136756e+02
  -6.111870e+01   3.055028e+01
  -8.783891e+01  -1.948445e+01
  -4.099839e+01  -6.746602e+01
   1.129424e+01  -2.491993e+01
   2.879180e+01  -3.795596e+01
  -7.271132e+01  -2.171506e+01
  -1.116143e+02   4.733429e+00
   9.219382e+00  -1.870507e+01
   1.014234e+02  -6.390732e+01
   1.421638e+02  -2.714732e+01
   9.017430e+01   3.658889e+01
  -2.192156e+01   8.329616e+01
  -9.227748e+01   7.554631e+01
  -1.768107e+01  -2.313861e+01
  -1.480194e+01  -7.969621e+01
  -1.020216e+01  -2.591685e+01
   2.841262e+01   8.483571e+00
   3.039094e+01   1.031563e+01
   5.572749e-01   2.879333e+01
   9.231164e+00  -1.007793e+01
  -1.043469e+02  -2.759390e+01
  -4.908989e+01   1.907749e+01
   9.433261e+00   2.378292e+01
   3.452061e+01  -8.535747e+00
  -1.988129e+01   2.777807e+01
   1.688093e+01  -7.269051e+01
   3.257993e+01  -9.934433e+00
   2.014966e+01   3.978998e+01
  -2.122151e+01   8.294239e+01
  -6.152805e+01  -1.552280e+00
  -4.747028e+01  -3.532708e+01
  -3.107775e+01  -2.111409e+01
   7.861731e+01  -3.564837e+01
   9.144501e+01   2.930621e+01
   2.988397e+01   6.360241e+00
  -2.473970e+01   6.948887e+01
  -7.045115e+01  -1.528726e+00
  -1.898683e+01  -4.700460e+00
   2.115294e+01  -8.681511e+00
   4.513530e+01   5.592295e+00
  -3.295889e+00   5.307278e+01
  -6.002355e+01  -2.550373e+01
