
 $NMID
 id='ANONYMOUS ', fmtdat='(2E16.6)'
 volume=1.0
 tramp=1.0
 $END
   2.282004e+03   1.261023e+02
   1.067309e+03   1.162536e+03
  -2.441122e+02   1.250652e+03
  -8.433333e+02   6.566069e+02
  -4.959043e+02  -1.014810e+02
   8.057191e+01  -2.062162e+02
   4.009694e+02   1.577457e+02
   2.545700e+01   4.845761e+02
  -3.496788e+02   3.692689e+02
  -3.597791e+02   3.200177e+01
  -1.908989e+02  -2.979247e+02
   5.384596e+01  -3.992277e+02
   2.277223e+02  -1.721100e+02
   2.232366e+02   3.113671e+02
  -9.619222e+01   3.463237e+02
  -2.990454e+02   1.491312e+01
  -1.655797e+02  -2.781859e+02
   6.897694e+01  -3.697356e+02
   3.434714e+02  -4.817361e+01
   2.469851e+02   1.340776e+02
   7.163450e+01   2.221413e+02
  -7.678349e+01   2.208619e+02
  -7.339877e+01   9.006452e+01
   6.304313e+01  -1.581424e+01
   2.059077e+02   8.389527e+01
   4.499848e+01   2.457051e+02
  -2.602295e+02   1.511643e+02
  -3.953373e+02  -9.905093e+01
  -1.856416e+02  -3.344733e+02
   2.738544e+02  -1.245583e+02
   4.818225e+02   1.024138e+02
   1.355167e+02   2.898140e+02
  -2.101777e+02   2.551517e+02
  -2.789428e+02   7.669118e+01
  -1.704505e+02  -1.033944e+02
  -7.495512e+01  -1.285904e+02
   6.744572e+01  -6.990279e+01
  -5.922699e+00   1.140058e+02
  -1.186223e+02   1.523847e+02
  -1.833044e+02  -6.640368e+01
  -4.397647e+01  -3.696032e+02
   1.513844e+02  -3.239396e+02
   2.257862e+02   4.249374e+01
   6.212468e+01   3.139590e+02
  -1.720350e+02   1.481547e+02
  -1.746768e+02  -2.070345e+02
   7.502504e+01  -2.587063e+02
   2.801823e+02  -7.552524e+01
   3.122606e+02   2.385429e+02
   3.026973e+01   3.116585e+02
  -1.692697e+02   1.728085e+02
  -2.780489e+02  -4.263535e+01
  -1.669259e+02  -2.039264e+02
   6.487824e+01  -1.163793e+02
   2.067543e+02   2.316211e+01
   1.252407e+02   9.970141e+01
  -1.905151e+01   1.757240e+01
  -7.708647e+01  -6.060045e+01
   6.144286e+01  -6.901702e+01
   1.444089e+02   6.045369e+01
   3.895501e+01   1.171946e+02
  -1.208393e+02   1.201873e+02
  -2.079622e+02   4.237391e+01
  -1.549271e+02  -6.918949e+01
  -1.786668e+01  -1.959847e+02
   1.918839e+02  -2.059956e+02
   2.155984e+02  -1.112068e+02
   1.495097e+02   1.144585e+02
  -1.642233e+01   2.348604e+02
  -5.860981e+01   2.391927e+02
  -1.818654e+01   1.058284e+02
   2.016293e+01   4.953544e+01
  -4.948413e+01   6.924225e+01
  -2.006851e+02   8.153776e+01
  -1.816962e+02  -4.348354e+01
  -2.971754e+01  -1.645568e+02
   4.588281e+01  -1.680797e+02
   1.362264e+02  -2.191424e+00
   1.040912e+02   1.717873e+02
  -3.332343e+01   1.640535e+02
  -1.777253e+02   3.143677e+01
  -1.556209e+02  -1.236170e+02
  -1.383942e+02  -2.151226e+02
   2.721431e+01  -1.655094e+02
   1.026145e+02  -7.295791e+01
   7.943915e+01  -3.970318e+01
   8.712234e+01  -2.249450e+01
   1.735804e+02  -4.625492e+01
   2.308889e+02   8.749386e+01
   2.010224e+02   1.604512e+02
  -1.598105e+01   2.719020e+02
  -2.216892e+02   2.086238e+02
  -2.887554e+02   8.740169e+01
  -1.112677e+02  -6.461771e+01
   1.042147e+01  -1.018438e+02
   6.449401e+01  -1.046886e+02
   3.195320e+00   4.558752e+00
  -1.117592e+02   4.630966e+01
  -1.257010e+02  -1.363950e+01
  -9.979594e-01  -5.054150e+01
   7.933570e+01  -6.378022e+01
   8.305297e+01   2.926805e+01
  -6.130501e+01   3.827103e+01
  -8.748316e+01   2.370695e+01
  -9.549635e+01  -1.257431e+02
   5.346939e+01  -2.114433e+02
   1.611329e+02  -9.518359e+01
   1.978578e+02   5.566178e+01
   1.350980e+02   1.609627e+02
   4.304245e+01   1.500580e+02
  -5.888362e+01   1.047300e+02
  -1.097901e+02  -1.194626e+00
  -4.544457e+00  -2.178110e+00
   5.374902e+01   2.307321e+01
   4.036452e+01   1.880751e+01
  -7.376798e+01  -1.581497e+01
  -8.650334e+01   3.315531e+00
  -2.092286e+01  -7.979553e+01
   5.815302e+01  -2.926799e+01
   3.411465e+01   3.023872e+01
  -5.582964e+01   3.241924e+01
  -1.950343e+02  -1.396153e+00
  -1.389983e+02  -1.045608e+02
   1.871272e+00  -1.534997e+02
   1.800555e+02  -1.078264e+02
   2.111445e+02  -5.600108e+01
   1.156349e+02   3.091492e+01
  -4.287986e+01   7.009108e+01
  -3.027754e+01   2.792919e+01
  -5.169622e+00  -6.263702e+01
   9.247361e+01  -4.397832e+01
   1.680533e+02   4.519016e+01
   7.400873e+00   1.132188e+02
  -3.938554e+01   8.751957e+01
  -7.881169e+01   4.223870e+01
  -3.073905e+01   1.303183e+01
   9.689435e+00   3.430939e+01
   4.353976e-01   6.725214e+01
  -7.669210e+01   7.292657e+01
  -1.351035e+02   2.065757e+01
  -1.200076e+02  -4.179269e+01
  -3.526959e+01  -1.042528e+02
   6.795747e+01  -8.468967e+01
   9.078333e+01  -1.822006e+00
   1.639424e+01   9.103637e+01
  -4.236278e+01   4.366098e+01
  -7.476480e+01   2.535670e+01
  -2.941222e+01  -1.900828e+01
   2.333367e+01   7.061213e+00
  -3.421263e+00   2.562498e+01
  -5.638048e+01  -4.934696e+01
  -9.388961e+01  -5.897678e+01
  -1.330533e+01  -1.012399e+02
   7.728021e+01  -1.049666e+02
   1.276576e+02  -3.251514e+01
   1.372031e+02   1.320767e+02
   4.764038e+01   1.268171e+02
  -6.618521e+01   8.179697e+01
  -1.220619e+02   4.835700e+01
  -4.488883e+01  -1.255941e+01
  -6.645079e+00   1.599234e+01
  -2.887017e+01   5.575869e+00
  -5.263249e+01   2.240527e+01
  -4.177740e+01  -4.189980e+00
   5.684474e+01  -9.689232e+01
   7.582533e+01  -2.026596e+01
   4.136208e+01  -6.789699e+00
   1.415261e+01   3.709992e+01
  -7.766424e+01   1.834376e+01
  -1.180095e+02  -3.682473e+01
  -2.847735e+01  -1.115991e+02
   6.257098e+01  -1.378433e+02
   1.576109e+02  -4.583196e+01
   1.099365e+02   5.440288e+01
   4.868253e+01   7.474261e+01
  -2.401072e+01   5.201011e+01
  -9.097998e+01   4.761833e+01
  -6.145780e+01  -6.487457e+00
  -4.154772e+01   4.332381e+01
  -4.823700e+01  -2.062826e+00
  -4.382651e+01  -4.476915e+00
  -6.942599e+01  -1.004326e+02
  -4.654729e+01  -1.395387e+02
   8.396111e+01  -1.034096e+02
   1.269212e+02   2.295988e+01
   5.498453e+01   7.785908e+01
  -2.289565e-01   9.321411e+01
  -1.445656e+01   5.199411e+01
  -4.083645e+01  -2.254791e+01
  -8.383051e+00  -5.707733e+01
  -1.040609e+01  -3.587656e+01
  -4.119040e+01   2.120974e+01
  -3.903934e+01  -1.940183e+01
   5.461838e+00   2.761849e+01
   4.076436e+01  -2.766556e+01
   1.254806e+02   7.068539e+00
   7.835291e+01   6.017449e+01
  -4.436524e+00   2.779340e+01
  -1.152828e+02   2.942149e+01
  -1.058697e+02   2.109861e+01
  -4.342197e+01  -5.058309e+01
   3.427544e+01  -3.009450e+01
   5.432820e+01   5.836437e+00
   2.519391e+01   4.851643e+01
  -2.094414e+01   3.184802e+00
  -8.411121e+01  -3.398164e+00
  -1.628610e+01  -7.874700e+01
  -3.147544e+01  -1.994701e+01
  -3.295595e+01  -1.258675e+01
  -4.573052e+01   3.062982e+00
  -1.418909e+01  -2.516312e+01
   2.377533e+01  -1.215995e+02
   7.510929e+01  -1.038824e+02
   1.311682e+02  -2.087041e+01
   1.099046e+02   3.569284e+01
   6.510791e+01   9.320976e+01
  -5.317590e+01   3.557706e+01
  -8.257198e+01  -2.591888e+01
   1.684064e+01  -5.742268e+00
   7.706519e+01  -1.490716e+01
   5.571687e+01   5.456754e+01
  -6.124450e+01   4.637480e+01
  -1.256407e+02   1.911413e+01
  -8.792138e+01  -6.639594e+01
   1.378137e+00  -5.216082e+01
   2.901090e+01  -4.940573e+01
   3.028381e+01   5.376065e+01
  -4.079388e+01  -7.830594e+00
  -6.223115e+01  -7.896691e+01
  -1.907784e+01  -7.478567e+01
   5.631034e+01  -7.818054e+01
   1.305199e+02  -6.205009e+01
   8.634570e+01   6.483220e+01
  -6.815381e+00   1.484238e+02
  -5.376198e+01   7.280644e+01
  -5.830695e+01  -6.927026e+00
  -3.435492e+01  -6.596914e+01
   4.901775e+01  -3.484537e+01
   2.473912e+01  -3.995740e+01
  -8.177653e+00   1.162148e+01
  -3.564954e+01   3.935508e+01
   4.463056e+00   2.566967e+01
  -3.634846e+00   1.133248e+00
   8.591755e+01   7.716175e+01
   3.862470e+01   6.605060e+01
  -5.950560e+01   4.958594e+01
  -8.398870e+01  -7.770558e+00
  -9.082240e+01  -4.068390e+01
   2.020819e+01  -1.206929e+01
   8.392359e+01   1.785895e+01
   1.627257e+01   2.129729e+01
   1.156253e+01  -3.577496e-01
  -1.235509e+01  -7.804662e+00
  -3.274211e+01  -2.022510e+01
   1.099629e+01   2.922774e+01
  -2.769055e+01  -1.493721e+00
  -4.771640e+01  -5.573363e+00
  -3.276216e+01  -4.305746e+00
  -2.580166e+01  -6.862975e+01
   8.096282e+01  -1.135101e+02
   1.275206e+02  -7.070478e+01
   1.126073e+02   3.826690e+01
   5.454222e+01   1.189659e+02
  -3.578943e+01   7.312942e+01
  -9.562801e+01   5.817934e+01
  -3.900208e+01   4.413496e+01
  -1.542017e+01  -1.802032e+01
  -2.590126e+01  -2.226474e+01
  -4.722432e+01   1.237563e+01
  -2.300466e+01  -3.518033e+01
  -1.605593e+01  -4.770783e+01
   2.007908e+01  -2.360484e+00
   4.404291e+01  -1.227499e+00
   5.461658e+01   4.780296e+01
   5.784845e+00   5.380408e+01
  -4.184009e+01   6.267062e-01
  -3.179243e+01  -4.647913e+01
   2.013808e+01  -8.806059e+01
   1.040502e+01  -2.307256e+01
   1.209804e+01   2.445873e+01
   3.917955e+01   1.585328e+01
  -3.650203e+01   2.359560e+01
  -9.082862e+01  -6.040519e+00
   1.600416e+01  -3.330890e+01
   3.496881e+01  -9.025317e+00
   5.439166e+01   2.427808e+01
  -4.992559e+01   4.023859e+01
  -8.552673e+01   2.738846e+01
  -7.915592e+01  -7.963509e+00
   1.192296e+01  -6.467559e+01
   8.374400e+01  -2.761340e+01
   5.238693e+01  -1.293695e+01
  -2.700072e+00   4.695370e+01
  -1.862493e+01   5.196174e+01
  -3.083214e+01   5.148616e+00
  -2.878149e+01  -2.740374e+01
   1.249201e+01   6.995447e+00
   2.644126e+01  -1.619766e+01
   6.523705e+01   6.786387e+00
   2.515971e+00  -4.218334e+00
  -9.621322e+00  -9.727740e+00
   7.501566e+00   2.436719e+01
  -3.092141e+01   3.040572e+01
  -8.843215e+00   5.644516e+01
  -1.509704e+01   3.979804e+01
  -3.200016e+01  -2.505744e+01
  -3.644688e+01  -4.157529e+01
   7.464051e+01  -3.195938e+01
   4.845310e+01   6.696992e+00
   7.814686e+00   2.742524e+01
  -4.357254e+00   3.541964e+01
  -7.506373e+01  -3.177203e+01
  -2.217686e+01  -2.977919e+01
   3.795641e+01  -1.766866e+01
   8.448207e+01  -4.119841e+00
   1.698819e+01  -1.815041e+01
   1.099810e+01   2.200365e+01
  -3.458069e+01   1.583967e+01
   5.432977e+01  -6.385165e+01
   2.441514e+01  -3.643340e+00
