
 $NMID
 id='ANONYMOUS ', fmtdat='(2E16.6)'
 volume=1.0
 tramp=1.0
 $END
  -6.060969e+02  -9.245950e+01
  -1.409070e+02  -9.274323e+01
  -5.101749e+01  -1.247604e+01
  -5.197416e+00  -2.049687e+01
  -6.961560e+00   3.754387e+01
   6.065988e+00   6.653505e+01
  -1.152249e+01   2.869732e+01
   1.788234e-01  -3.008437e+01
   3.865880e+01   7.709819e+00
   2.295515e+01   5.849863e+01
   6.986366e+01  -1.213531e+01
   3.148419e+01   1.764154e+01
   6.872184e+01  -8.688758e+00
   5.256472e+01   1.737049e-01
   2.216299e+01  -6.447186e+01
   1.069102e+01   1.038870e+01
   3.545649e+01  -1.257525e+01
  -2.650804e+01  -5.164014e+01
  -3.340179e-01  -4.261053e+01
  -6.550035e+01  -3.989165e+01
   2.369062e+01   1.785601e+01
  -1.520421e+00   2.937509e+01
  -5.077811e+01   2.178904e+01
  -1.583102e+01   3.367611e+01
   4.413699e+00  -9.520608e+00
   3.704586e+01  -7.819882e+00
   2.333301e+01   1.623432e+01
   3.613910e+01   2.150545e+01
  -5.256356e+01  -1.705385e+00
   1.157608e+01  -1.308568e+01
  -1.560589e+00   1.241096e+01
   2.507166e+01  -1.782378e+01
   4.198874e+01  -9.558327e+00
  -1.138581e+01  -2.764104e+01
   3.910280e+00  -1.145678e+01
  -3.487967e+01  -3.507351e-01
   4.904712e+01   5.667169e+01
   3.171382e+01  -7.573352e+00
   8.909311e+00   2.121070e+01
   5.138697e+00  -1.320604e+01
  -1.868095e+01  -4.173128e+01
   1.899925e+01  -2.251484e+01
  -3.373898e+01  -2.627934e+00
  -3.229948e+00   5.658266e-01
  -3.059233e+01   3.357624e+01
  -2.548572e+01   1.002653e+01
  -5.627350e+00  -3.094924e+01
  -4.849922e+00  -3.264536e+01
  -3.648135e+01  -4.478032e+01
   4.828730e+00   1.172014e+01
   4.354632e+00   1.440736e+01
  -1.945603e+01   1.359558e+01
  -2.156627e+01   3.897676e+00
  -4.594729e+00   2.793728e+01
  -1.618328e+01  -2.379571e+01
  -2.470522e+01  -2.435077e+01
  -2.161285e+00  -4.188791e+00
  -7.959680e+00  -1.396345e+01
   4.453005e+01   1.447531e+01
  -8.739321e+00  -5.529194e-01
  -1.233460e+01   8.320474e+00
   9.722580e+00  -2.522621e+01
  -9.157603e+00  -1.319550e+01
  -2.916410e+01  -9.713913e+00
  -2.115802e+01  -2.320563e+01
   4.028223e+00  -1.409110e+01
   1.964136e+01   2.625291e+00
   1.993714e+01  -9.934791e+00
   2.299507e+01   1.294974e+01
  -1.954775e+01  -1.806755e+01
   6.366992e+00  -5.400349e+01
   2.047268e+01  -1.551665e+01
  -2.177639e+01  -1.212747e+01
  -1.471837e+01  -1.613657e+01
  -1.074088e+01   9.497448e+00
   5.778538e+00  -7.871022e+00
   3.784718e+01  -1.332753e+01
  -2.284589e+01  -4.679264e+00
   2.726789e+01   7.036711e-01
  -1.005734e+01  -4.105000e+01
   2.134506e+01   1.131642e+01
   8.046663e-01  -1.069353e+00
  -2.195152e+00   1.977256e+01
   2.643150e+00   2.520402e+01
  -1.372057e+01  -9.781076e+00
   3.350544e+00  -6.641592e+00
   1.297385e+01  -2.616284e+00
  -4.766012e+01   2.943851e+01
   1.423779e+01  -1.970097e+01
   3.643311e+00   1.024881e+01
   3.002464e+01   4.594142e+01
   4.111551e+01  -9.585436e+00
  -6.598017e+00  -7.776263e+00
   4.472809e+00  -1.496137e+01
   2.699197e+00  -1.905943e+00
   3.424355e+01   5.447277e+00
   2.360000e+01   6.584138e+00
  -1.193761e+01  -3.303287e+00
   1.584067e+01   5.831763e+00
   1.228142e+01  -5.766013e+00
  -2.004143e+01   1.118505e+01
  -3.240529e+01   1.872328e+01
  -2.269853e+00   3.630449e+01
  -2.707162e+00  -1.000840e+01
   8.446323e+00   2.471329e+01
   1.662388e+01   1.253912e+01
  -1.482500e+01   7.607154e+00
  -3.814291e+00  -3.438018e+00
   2.748475e+01  -2.246592e+01
   3.346034e+01   3.659201e+00
  -2.848894e+00   2.821327e+01
   3.099876e+01  -2.388048e+01
  -2.848501e+01   1.927101e+00
   2.605924e+01  -2.088603e+00
  -3.545954e+01   1.842162e+01
  -7.519904e+00   3.731554e+01
  -2.506664e+01   2.555842e+01
  -1.355900e+01   1.650824e+01
  -1.258886e+01  -1.936534e+00
   1.350808e+01  -1.429572e+01
   1.068866e+01   5.584606e+01
   2.829711e+01   2.437700e+01
  -1.538507e+01   5.959088e+00
  -2.812984e+00  -1.009940e+01
  -2.193315e+01  -2.355080e+01
  -1.566518e+00   2.598499e-01
   6.593469e+00   2.299716e+01
   2.936070e+01   1.158232e+01
   1.124120e+01  -1.299665e+00
   1.552756e+01   1.697640e+01
   4.380782e+01   5.561957e+01
  -2.382982e+01  -1.674029e+00
   1.881909e+01   1.449542e+01
   2.131767e+01  -2.924905e+00
   2.290968e+01  -1.697414e+00
  -1.284156e+01   6.375203e+00
   7.718044e+00   1.711829e+01
   1.095682e+01   6.076395e+00
   1.946711e+01  -9.285709e+00
   6.339602e+00   1.707824e+01
   6.766961e+00  -1.664014e+00
   1.653475e+01  -1.358108e+01
   3.292819e+01   2.864859e+00
  -9.430445e+00   7.862006e+00
   3.193686e+01   3.554452e+01
  -1.656118e+01  -1.641332e+01
   7.869792e+00  -9.278606e+00
  -1.969633e+01   2.792516e+01
   2.095873e+01   8.661518e+00
   4.587965e+00   5.946550e+00
   1.562200e+01   3.235418e+00
  -2.861604e+01  -2.103381e+01
   7.302069e-01   1.745363e+00
   4.287964e+00  -7.470171e+00
  -1.112526e+01   1.125435e+01
   5.789461e+00  -2.922598e+01
  -4.752758e+00  -2.367727e+01
   1.298832e+01  -6.030811e+00
   3.437305e+01   1.300422e+01
   1.203714e+01   4.399003e+00
   2.076135e+01   1.176570e+00
   1.627466e+01   6.752006e+00
   6.085588e+00   9.859578e+00
  -2.242593e+01  -2.175997e+01
  -3.225509e+01   1.053236e+01
   9.028956e+00   6.814244e+00
  -2.258039e+01   3.859565e+01
   3.376267e+01  -2.931042e+00
   2.032314e+01  -1.460240e+01
  -2.778137e+00   2.690190e+01
  -3.186027e+01   1.773211e+01
  -2.833792e+01  -1.172174e+01
   2.217039e+01   3.373844e+01
   2.467473e+01  -1.467399e+01
  -4.752869e+00  -1.031330e+01
   2.745162e+01  -3.038074e+01
   3.443868e+01   1.566311e+01
   3.533851e+01  -2.807125e+01
   7.406123e+00   1.125802e+01
  -1.263064e+01   3.188314e+00
   1.540186e+01   1.232781e+00
  -3.774445e+01   8.350379e+00
   4.889569e+01  -7.298915e+00
   1.446544e+01   3.937911e+01
  -1.296586e+01  -2.173012e+01
  -8.902947e+00  -2.855906e+01
   1.021832e+00  -2.756957e+01
   2.156983e+01  -1.305243e+01
  -1.406154e+01   1.397188e+01
  -2.461889e+01  -4.326572e+00
   3.890684e+01  -7.824332e+00
   5.192268e+01  -2.910171e+01
  -2.369959e+01  -2.198709e+01
  -1.030858e+01   8.401567e+00
   1.876559e+01   2.335604e+01
   2.904797e+01  -1.389915e+01
   1.945247e+01  -1.568774e+01
   4.366936e+01   2.235513e+01
  -7.340552e+00   4.551778e+00
   4.566034e+01   2.361983e+01
   5.327129e+00  -6.674589e+00
   2.350974e+01   1.261693e+01
  -5.964463e+00  -1.512727e+01
   3.010687e+01   1.834040e+01
  -3.636544e+00   4.025462e+01
   1.835974e+01   4.672249e+00
   1.238894e+01  -1.550477e+01
   2.819663e+01   2.300115e+01
  -2.718252e+00   8.823988e+00
  -4.007081e+00   4.193734e+00
  -2.725311e+01   3.462525e+01
  -1.836888e+01   6.444112e-01
   9.469816e+00  -1.162608e+00
  -8.897286e+00   2.880888e+01
  -1.545756e+01   1.567979e+01
   1.258539e+01   2.417072e+01
  -2.627230e+01   2.326385e+00
  -1.980222e+01  -4.132776e+00
  -3.025329e+01  -4.008853e+01
  -4.628205e+01  -2.241804e+01
   1.360458e+01  -3.000772e+01
   7.204162e+00   3.696592e+01
   1.776916e+01   7.105752e+00
   1.058358e+01   1.738681e+01
   7.445803e+00  -2.076876e+01
  -7.134340e+00   2.107020e+01
  -2.574057e+01   2.357259e+01
   2.747426e+01   2.980693e+00
  -2.264550e+00   1.469304e+01
   1.982695e+01  -5.156742e+00
  -4.549907e+00  -1.936121e+01
  -1.500414e+01   1.693204e+01
  -9.584584e+00  -8.466258e+00
  -1.784539e+01  -4.895513e+00
   3.147468e+00  -1.972421e+01
   1.228963e+01   1.132217e+00
  -2.545675e+01   2.864875e+01
   1.097293e+01  -4.385502e+00
  -5.567200e+01  -7.096871e+00
   3.445103e+00   2.026778e+01
  -1.718742e+01  -1.947143e+01
  -1.443648e+01  -1.297838e+01
  -9.885239e+00   4.418145e+00
  -3.374250e+01   9.577607e+00
  -1.147606e+01   1.621709e+01
  -1.271017e+01   3.294247e+00
   3.453551e+01  -2.721664e+01
  -8.753839e+00   3.440390e+00
  -2.432078e+01  -3.682594e+01
  -1.006210e+00  -1.438992e+01
   2.027557e+01   1.141386e+01
  -8.416548e-02   1.143703e+01
   2.304716e-01   8.058743e+00
  -4.156864e+01  -2.552540e+01
   5.336970e+01  -2.157682e+01
  -1.315737e+00  -3.559241e+00
  -1.083453e+00  -2.219801e+01
   2.974687e+01   3.535244e+01
  -5.936242e+00   3.646836e+01
  -1.128076e+01   8.039010e+00
  -6.304774e+01   2.326572e+01
  -1.040460e+01   1.375314e+01
   3.531596e+01  -2.247627e+01
   1.503690e+01  -2.068821e+00
  -3.521850e+00  -2.895405e+01
  -1.276257e+00   3.004490e+01
  -8.267943e+00   2.020325e+01
  -1.194945e+01   4.525140e+01
  -9.328029e+00  -2.424316e+01
  -6.525268e+00  -4.877746e+00
  -1.087305e+01   8.304745e+00
  -9.504744e+00   1.687908e+01
   6.252207e+00  -9.133363e+00
   1.989331e+01   1.356274e+01
   2.593612e+01  -7.481679e+00
  -2.500882e+01   5.670627e+00
  -1.749299e+01   2.451366e+01
  -1.838213e+01  -1.318783e+01
   8.252195e+00  -1.781685e+00
  -1.203996e+01  -1.310738e+01
   2.185450e+01  -1.635333e+00
  -1.236026e+01   5.216859e+00
   7.225827e+00   6.943091e-01
   1.273386e+01   1.731962e+01
   9.342207e-01   2.047021e+01
   2.826242e+00  -2.948447e+01
  -7.832865e+00   2.065485e+01
  -3.843104e+00  -7.035691e+00
  -4.927511e+00   2.770767e+01
   6.064374e+00   1.567268e+01
  -6.831640e-01   1.044442e+01
   7.122479e+00   1.716783e+01
  -7.299708e+00  -8.966551e+00
  -1.325862e+01  -5.756753e+00
  -1.602818e+01   5.176234e+00
   2.276053e+00   9.705829e+00
   1.770417e+01   9.516737e+00
  -4.903425e+01   1.739957e+01
  -1.913489e+01   1.259396e+01
  -2.519342e+01   8.242558e+00
   1.335401e+01  -2.677882e-01
  -1.062951e+01  -3.113923e+01
   3.327496e+01  -2.344314e+01
  -1.958851e+01  -3.923530e+00
   2.182251e+01   3.602500e+01
  -1.775805e+01   2.941111e+01
  -2.068699e+01  -2.641796e+00
   2.860498e+00  -6.463416e+00
   2.072676e+01  -3.184319e+01
  -7.000490e+00  -7.975086e+00
  -3.102299e+01   1.092252e+01
   7.980050e+00  -4.028427e+00
  -1.044994e+01  -2.536414e+01
   5.249730e+00   3.305684e+01
  -2.847804e+01  -9.088310e+00
   4.098218e+00  -1.104520e+01
  -7.033418e+00  -9.270095e+00
   4.291647e+00  -2.757350e+01
  -2.463914e+01  -1.679402e+01
  -1.017967e+01   2.175534e+01
