
 $NMID
 id='ANONYMOUS ', fmtdat='(2E16.6)'
 volume=1.0
 tramp=1.0
 $END
   2.870572e+03  -1.741039e+02
   1.857714e+03   1.439374e+03
   9.170103e+00   1.929209e+03
  -1.119685e+03   1.151430e+03
  -8.714368e+02   5.919795e+01
  -7.901750e+01  -1.624077e+02
   3.476543e+02   1.135610e+02
  -1.417753e+01   4.242720e+02
  -5.333770e+02   5.263333e+02
  -6.763964e+02   7.539018e+01
  -4.257954e+02  -5.295142e+02
  -8.823748e+00  -5.578668e+02
   2.508740e+02  -1.754923e+02
   2.212573e+02   3.356842e+02
  -8.571709e+01   4.348011e+02
  -3.516964e+02   6.002199e+01
  -2.532743e+02  -4.450920e+02
   1.460601e+02  -5.899819e+02
   4.761456e+02  -2.312321e+02
   3.722313e+02   1.153417e+02
   1.107974e+02   2.897743e+02
  -7.097191e+01   2.188129e+02
  -1.469346e+02   5.319767e+01
   1.348407e+02   7.012178e+01
   2.681921e+02   2.098115e+02
   2.407124e+01   2.894923e+02
  -2.948714e+02   1.137348e+02
  -4.618864e+02  -1.489466e+02
  -1.828793e+02  -3.017601e+02
   2.615907e+02  -1.503870e+02
   5.002280e+02   1.789610e+02
   1.794989e+02   3.670095e+02
  -2.075506e+02   2.970375e+02
  -4.003981e+02   1.068647e+02
  -2.826049e+02  -1.589403e+02
  -8.320356e+01  -2.805549e+02
   6.687739e+00  -2.455508e+02
   7.381694e+00   6.984591e+01
  -1.106891e+02   1.656853e+02
  -1.798470e+02  -8.442114e+01
  -5.699254e+01  -4.327235e+02
   1.479450e+02  -3.912571e+02
   2.748336e+02  -5.108759e-01
   1.591906e+02   2.626162e+02
  -5.812445e+01   1.221942e+02
  -1.524446e+02  -2.216227e+02
   6.276909e+01  -2.992884e+02
   3.335001e+02  -4.347785e+01
   3.995190e+02   2.824515e+02
   1.532807e+02   4.329995e+02
  -2.592167e+02   2.645532e+02
  -4.839848e+02  -4.558388e+01
  -3.132519e+02  -2.416011e+02
   5.424077e+01  -1.924944e+02
   2.490090e+02  -7.657295e+01
   1.882808e+02  -3.815324e+00
   2.813083e+01   3.898892e+01
  -3.956804e+01  -3.425812e+00
   5.543599e+01  -6.545587e+01
   1.913660e+02  -8.524966e+00
   1.140161e+02   1.279930e+02
  -1.079882e+02   1.738957e+02
  -2.930844e+02   1.049260e+02
  -2.480143e+02  -7.848848e+01
  -1.817351e+01  -2.695995e+02
   2.165288e+02  -3.550962e+02
   2.870022e+02  -1.493529e+02
   1.963349e+02   1.239280e+02
   4.293706e+01   2.750083e+02
   1.235466e+01   2.808977e+02
   1.362197e+01   1.902619e+02
   8.264456e+00   8.369926e+01
  -9.744751e+01   1.338035e+02
  -2.121612e+02   8.932094e+01
  -2.152001e+02  -4.172327e+01
  -1.270619e+02  -2.214960e+02
   8.631616e+01  -1.817794e+02
   1.670708e+02   1.507103e+01
   1.355851e+02   2.298392e+02
  -4.294634e+01   2.230591e+02
  -2.412581e+02   5.051719e+01
  -2.768551e+02  -1.617850e+02
  -1.269670e+02  -2.442543e+02
   2.981001e+01  -2.339830e+02
   1.767262e+02  -1.537683e+02
   8.570362e+01  -1.048987e+02
   1.298257e+02  -4.501911e+01
   2.491673e+02   2.724921e+01
   3.631052e+02   1.085760e+02
   2.589886e+02   3.297809e+02
  -4.037453e+01   3.877043e+02
  -2.909619e+02   3.230581e+02
  -4.489351e+02   1.233058e+02
  -2.575282e+02  -1.195590e+02
   1.444003e+01  -2.335735e+02
   9.270003e+01  -2.397909e+02
   4.899963e+01  -5.578258e+01
  -9.232416e+01   6.393788e+00
  -1.156348e+02  -2.141861e+01
   4.982749e+00  -1.389908e+02
   7.240172e+01  -9.578710e+01
   9.517097e+01   4.162782e+01
  -3.371748e+01   1.404113e+02
  -1.424584e+02   1.857127e+00
  -9.316053e+01  -2.261652e+02
   1.191427e+01  -3.694894e+02
   2.632616e+02  -2.259494e+02
   3.421526e+02   8.598279e+01
   2.601589e+02   2.583667e+02
   8.796073e+01   2.281057e+02
  -8.743849e+01   1.526519e+02
  -7.483478e+01  -1.427644e+01
  -2.745057e+01  -1.147861e+00
   8.524635e+01   8.007218e+01
   1.708998e+00   1.149817e+02
  -9.141561e+01   4.767740e+01
  -1.420903e+02  -1.336465e+01
  -5.867291e+01  -4.777107e+01
   3.799496e+01  -5.819468e+00
   3.548958e+01   1.095032e+02
  -9.061768e+01   6.216884e+01
  -2.608716e+02  -8.048261e+01
  -2.146371e+02  -1.922131e+02
  -1.676614e-01  -2.498312e+02
   1.868801e+02  -1.644487e+02
   2.733536e+02  -6.320155e+01
   1.404081e+02   7.282829e+01
   6.633296e+00   1.005374e+02
  -3.546290e+01  -1.314321e+01
   5.765037e+01  -8.399213e+00
   1.439042e+02  -1.756623e+01
   1.540544e+02   1.174954e+02
  -2.495252e-01   1.710124e+02
  -9.978596e+01   1.044599e+02
  -1.329581e+02  -4.263068e+01
  -9.985317e+01  -6.758834e+01
   5.833800e+01   1.102610e+01
   5.422842e+01   7.519988e+01
  -9.597183e+01   6.900546e+01
  -1.710951e+02   2.496705e+01
  -1.492581e+02  -6.972896e+01
  -1.497741e+01  -1.738000e+02
   1.163156e+02  -1.115006e+02
   1.423468e+02  -2.715970e+01
   6.940450e+01   5.609713e+01
  -3.257152e+01   8.609990e+01
  -7.536596e+01   1.509063e+01
   6.516955e+00  -1.644178e+01
   5.081908e+01   3.613030e+00
  -2.044782e+01  -2.011088e+01
  -1.252575e+02  -3.299417e+01
  -1.451674e+02  -4.409497e+01
   5.788455e-01  -1.103313e+02
   7.985217e+01  -1.340572e+02
   2.168790e+02  -3.583514e+01
   1.584616e+02   6.854250e+01
   6.320972e+00   2.133909e+02
  -8.659706e+01   1.550553e+02
  -1.293089e+02   7.644400e+01
  -7.034259e+01  -5.360342e+01
  -2.160367e+01  -1.143752e+01
  -7.229688e+01   1.933769e+01
  -9.277991e+01  -2.931971e+01
  -1.324266e+01   7.416675e+00
   1.038788e+01  -8.546922e+01
   9.001285e+01  -6.376748e+01
   7.436958e+01  -1.696514e+01
  -2.551483e+01   1.032256e+02
  -5.221771e+01   1.086826e+02
  -1.562166e+02  -3.629385e+01
  -9.985599e+01  -1.665405e+02
   8.664231e+01  -1.839098e+02
   2.241111e+02  -1.045640e+02
   1.837250e+02   2.804178e+01
   7.969363e+01   1.318539e+02
  -6.383924e+00   1.362478e+02
  -8.812822e+01   9.677391e+01
  -8.285154e+01   5.711742e+01
  -7.509807e+01   7.098874e+01
  -6.943453e+01   5.834426e+01
  -1.263926e+02  -4.972629e-01
  -1.292372e+02  -1.097021e+02
  -1.924571e+01  -1.896830e+02
   7.040416e+01  -1.535405e+02
   1.514104e+02  -4.070306e+01
   1.277199e+02   1.156253e+02
   1.448314e+01   1.328027e+02
  -8.745955e+01   7.889648e+01
  -6.712635e+01  -1.050555e+01
   2.865477e+01  -3.397132e+01
   1.661930e+00  -1.307646e+01
  -4.149522e+00  -3.890242e+01
  -7.735564e+01  -1.301006e+01
  -2.918827e+01  -6.284908e+01
   5.566360e+01  -4.003677e+01
   1.712806e+02   6.393767e+00
   8.548916e+01   9.520410e+01
   2.693586e+01   8.857863e+01
  -1.242424e+02   1.484451e+01
  -1.108993e+02  -8.517050e+00
  -7.049007e+01  -3.109581e+00
   6.355931e+01  -1.338470e+01
   8.902136e+01   1.631790e+01
  -3.361983e+01   8.244782e+01
  -5.927559e+01   1.788409e+01
  -7.514174e+01  -3.900091e+01
  -3.154860e+01  -4.189222e+01
  -4.554574e+01  -1.584369e+01
  -4.655848e+01   2.295093e+01
  -7.022313e+01  -9.943711e+00
  -2.839252e+01  -6.701553e+01
  -1.485982e+01  -1.501841e+02
   9.543777e+01  -8.515592e+01
   1.516511e+02  -4.012810e+01
   1.417822e+02   8.055126e+01
   2.898992e+01   1.094874e+02
  -8.636246e+01   4.615784e+01
  -6.396566e+01  -1.607446e+01
   3.716600e+01  -6.576685e+00
   9.508451e+01   4.334234e+00
   4.719729e+01   4.391208e+01
  -6.207884e+01   8.648299e+01
  -1.052292e+02   6.122618e+01
  -1.432554e+02  -3.670346e+00
  -4.082509e-03  -1.138144e+02
   4.157935e+01  -6.419076e+01
   5.577358e+01  -7.767076e+00
  -1.641519e+01   1.331638e+01
  -9.010179e+01  -2.436123e+01
   1.113621e+00  -7.692226e+01
   6.136156e+01  -1.445687e+02
   9.277614e+01  -6.681708e+01
   1.004566e+02   6.124379e+01
   5.077365e+01   1.739380e+02
  -5.561755e+01   1.579790e+02
  -1.111705e+02   2.982644e+01
  -6.341597e+01  -1.153626e+02
   2.238537e+01  -9.144575e+01
   7.437841e+01  -4.559683e+00
   6.838320e+01   3.458181e+01
   1.895448e+01   1.881248e+01
   3.156403e+01   7.078180e+00
   1.548401e+01   2.024613e+01
   7.586863e+01   8.332233e+01
   1.084846e+01   1.116224e+02
  -3.610321e+01   8.268798e+01
  -1.066470e+02  -3.127292e+01
  -1.233095e+02  -7.155893e+01
  -4.038257e+01  -8.991841e+01
   3.552424e+01  -4.699220e+01
   6.908502e+01  -1.836960e+01
   1.807006e+01  -2.439218e+01
  -8.155446e+00   1.942237e+01
   3.124764e+01  -4.765660e+01
   4.019070e+01   1.331659e+00
   2.697976e+01  -1.853600e+01
  -6.319972e+01   2.761908e+01
  -6.419391e+01   3.824198e+01
  -3.359434e+01  -2.449572e+01
   9.810452e+01  -9.939459e+01
   1.298167e+02  -7.238323e+01
   1.530677e+02   3.637073e+01
   3.066905e+01   1.090620e+02
  -4.116899e+01   1.363374e+02
  -1.052974e+02   6.900870e+01
  -8.490179e+01   1.039818e+01
  -6.864061e+01  -2.409518e+01
  -4.191592e+00  -3.394362e+01
  -1.997442e+01   4.317676e+00
  -3.114688e+01  -4.702944e+01
  -1.874295e+01  -7.882834e+01
   3.385081e+01  -4.349271e+01
   3.124076e+00   3.401301e+01
   8.652895e+01   5.266698e+01
   3.819541e+01   9.201217e+01
  -9.490163e+01   2.757119e+01
  -6.809598e+01  -5.248128e+01
  -2.846177e+01  -7.481220e+01
   7.536353e+01  -4.415183e+01
   1.122367e+02   2.852341e+01
   3.032694e+01   5.094153e+01
  -2.775609e+01   9.259189e+01
  -3.170495e+01   3.787325e+00
   2.861266e+01   1.766396e+00
   4.378052e+01  -4.915568e+01
   2.295509e+01  -4.863140e+00
  -3.492439e+01   9.639496e+01
  -1.047245e+02   9.686678e+01
  -4.726212e+01   2.888603e+01
  -3.519062e+01  -6.697635e+01
   5.539646e+01  -1.121498e+02
   6.319199e+01  -1.598446e+01
   1.080126e+00   2.630254e+01
   4.190162e+01   8.181222e+01
  -2.294367e+01  -1.300926e+01
  -3.849162e+01  -5.665280e+01
   2.981228e+01  -1.912420e+01
   3.115879e+01  -1.761960e+00
   3.241815e+01   6.349670e+01
   4.179824e+01   7.312957e+01
   1.367953e+01  -2.370910e+01
  -2.627289e+01  -4.991680e+01
  -2.743259e+00   7.336435e+01
   2.816859e+01   4.115173e+01
  -4.868503e+01   4.469753e+01
  -9.098108e+01  -8.412387e+00
  -1.747422e+01  -7.454176e+01
   4.661309e+01  -4.642803e+01
   1.173930e+02   4.910942e+01
   5.239889e+01   6.559922e+01
  -6.589666e+01   4.801004e+01
  -3.423094e+01  -9.020638e+00
  -7.948877e-01  -4.579671e+01
  -7.882071e+00  -4.788722e+01
   4.579912e+01   2.060307e+01
   1.494098e+01  -1.889421e+01
  -3.372307e+01   2.255652e+01
  -1.827047e+01   3.696333e+01
  -4.094566e+01  -4.875842e+01
   1.099792e+02  -1.272448e+01
