
 $NMID
 id='ANONYMOUS ', fmtdat='(2E16.6)'
 volume=1.0
 tramp=1.0
 $END
  -3.211962e+03   1.530136e+02
  -1.949278e+03  -1.724704e+03
   3.282833e+02  -2.020423e+03
   1.495966e+03  -7.683475e+02
   8.762970e+02   3.603785e+02
  -3.236960e+02   4.437144e+02
  -5.844888e+02  -3.020021e+02
   4.193706e+00  -7.356068e+02
   6.079431e+02  -5.246246e+02
   6.274421e+02   1.137027e+02
   3.948455e+02   5.730409e+02
  -9.152838e+01   6.667787e+02
  -4.534615e+02   1.147090e+02
  -2.309066e+02  -5.652240e+02
   8.477273e+01  -5.981333e+02
   3.682227e+02  -8.312444e+01
   2.285142e+02   4.494261e+02
  -8.149683e+01   5.277469e+02
  -4.426995e+02   2.013114e+02
  -3.841889e+02  -3.240225e+02
  -3.548751e+01  -3.703793e+02
   2.445666e+02  -2.462362e+02
   1.845568e+02  -4.321481e+01
  -1.774625e+02  -3.559891e+01
  -3.109231e+02  -2.414674e+02
  -7.852658e+01  -3.367564e+02
   3.687810e+02  -2.383646e+02
   6.120966e+02   1.121107e+02
   2.316738e+02   3.153198e+02
  -3.792009e+02   3.077189e+02
  -6.444738e+02  -1.561679e+02
  -2.066465e+02  -3.768012e+02
   2.293245e+02  -3.851316e+02
   3.786918e+02  -1.117267e+02
   2.540766e+02   1.674796e+02
   3.779281e+01   3.877857e+02
  -6.715020e+01   2.275251e+02
  -6.801277e+01  -1.225061e+02
   1.205886e+02  -1.932288e+02
   1.920904e+02   7.699267e+01
   9.691573e+01   4.951415e+02
  -2.448074e+02   5.085809e+02
  -4.206148e+02   1.855661e+01
  -1.975369e+02  -3.948714e+02
   1.629187e+02  -1.814937e+02
   2.674025e+02   2.277864e+02
  -1.308582e+02   3.563634e+02
  -3.794978e+02   6.818344e+01
  -4.454068e+02  -3.266025e+02
  -1.197843e+02  -4.840254e+02
   2.986432e+02  -2.504261e+02
   4.943523e+02   5.989225e+01
   3.487421e+02   3.121611e+02
  -8.377808e+01   2.841544e+02
  -2.841868e+02   1.059299e+02
  -2.621872e+02  -9.881210e+01
   4.148421e+01  -8.298622e+01
   8.458023e+01   8.742598e+01
  -1.071310e+02   1.631949e+02
  -2.238524e+02  -4.410072e+01
  -1.194429e+02  -2.163442e+02
   1.063284e+02  -2.346744e+02
   2.218621e+02  -9.734817e+01
   2.037698e+02   1.260912e+01
   1.123493e+01   1.851405e+02
  -2.140372e+02   3.115335e+02
  -3.513928e+02   1.173520e+02
  -2.900153e+02  -1.663096e+02
  -4.930717e+01  -3.839542e+02
   4.149021e+01  -3.048212e+02
   8.565326e+01  -9.817166e+01
  -1.888802e+01  -4.341364e+01
   6.506664e+01  -8.987551e+01
   1.840070e+02  -1.214465e+02
   2.817056e+02   5.274219e+01
   1.065147e+02   2.091704e+02
  -8.352452e+01   1.228164e+02
  -1.437300e+02  -1.674931e+01
  -1.248289e+02  -1.577415e+02
   1.733418e+01  -1.954716e+02
   1.549289e+02  -5.911680e+01
   3.093518e+02   1.408702e+02
   1.442546e+02   3.027038e+02
  -5.286299e+01   2.524623e+02
  -1.705248e+02   1.064299e+02
  -1.647390e+02   7.553291e+00
  -1.007407e+02   7.969300e+01
  -2.065251e+02   4.812806e+01
  -3.907157e+02  -8.350423e+01
  -2.556006e+02  -2.782293e+02
   4.847792e+01  -3.834268e+02
   3.622604e+02  -3.288884e+02
   3.557664e+02  -1.002079e+02
   2.966509e+02   9.460778e+01
   3.445673e+01   2.480077e+02
  -8.058104e+01   1.888272e+02
  -8.046373e+01   1.925941e+01
   1.088179e+02  -7.813579e+01
   1.361640e+02   3.108417e+01
   5.629607e+01   1.426494e+02
  -1.533409e+02   1.553250e+02
  -1.095904e+02  -1.078429e+01
   3.681203e+01  -1.147862e+02
   1.817271e+02  -4.203113e+01
   1.076201e+02   1.797821e+02
  -3.259771e+01   3.328708e+02
  -2.244081e+02   1.803167e+02
  -3.073337e+02  -4.907937e+01
  -1.834579e+02  -2.262800e+02
  -2.833417e+01  -2.493370e+02
   1.110094e+02  -1.983680e+02
   1.367958e+02  -2.835020e+00
   5.105226e+01  -1.885027e+01
  -9.451023e+01  -1.808886e+01
  -2.761746e+01  -6.550018e+01
   9.823952e+01  -9.371965e+01
   1.585470e+02   4.260151e+01
   4.159622e+01  -8.561975e-01
  -5.417682e+01  -5.287007e+00
  -3.171033e+01  -8.434861e+01
   1.146468e+02  -7.156017e+01
   1.985802e+02  -8.624480e+00
   2.289438e+02   1.273034e+02
   7.532033e+01   2.248130e+02
  -1.826938e+02   2.137571e+02
  -3.387278e+02   1.244761e+02
  -2.044367e+02  -1.906054e+01
   2.745685e+01  -1.168225e+02
   5.478745e+01  -5.232735e+01
  -4.345516e+01   4.066640e+01
  -1.558592e+02   5.850229e+00
  -1.210483e+02  -6.152044e+01
   2.018120e+00  -1.736332e+02
   2.146336e+01  -1.464959e+02
   1.057100e+02  -1.672213e+01
   2.257649e+01   6.176465e+01
  -3.487975e+01  -5.068637e+01
  -4.556255e+00  -1.165434e+02
   8.887879e+01  -1.039870e+02
   1.762282e+02  -8.779340e+00
   1.348197e+02   1.089492e+02
   3.707916e+01   2.331871e+02
  -1.473233e+02   1.295957e+02
  -1.160933e+02   3.712805e+01
  -4.348746e+01  -1.017712e+02
   9.790721e+01  -1.164171e+02
   5.546972e+01   4.149615e+00
   1.180675e+01   6.707607e+01
  -1.886853e+01   1.221249e+01
   2.870739e+01  -2.135650e+01
   4.522020e+01   4.508236e+01
   9.330539e+01   7.594097e+01
   8.942377e+00   1.452698e+02
  -1.483431e+02   1.375543e+02
  -1.686742e+02   6.276707e+00
  -1.891489e+02  -1.190343e+02
  -4.469806e+01  -2.127261e+02
   1.669731e+02  -1.733527e+02
   1.148081e+02  -2.683754e+01
   9.406529e+01   8.026875e+01
   6.603876e+01   6.655958e+01
   5.625521e+01   2.223726e+01
   1.078362e+02   1.761206e+01
   4.763798e+01   1.802304e+01
  -5.976242e+01   1.133300e+02
  -1.129722e+02   1.297495e+01
  -4.097906e+01  -1.395780e+01
  -1.693140e+01  -1.000284e+02
   1.457832e+02  -9.693920e+01
   1.512770e+02   3.428605e+01
   1.017791e+02   1.646992e+02
  -1.403020e+02   2.104841e+02
  -2.795236e+02   6.087094e+01
  -2.410190e+02  -8.403468e+01
  -5.113639e+01  -1.494781e+02
   8.105571e+01  -1.482229e+02
   7.612762e+01  -1.268822e+02
   1.108329e+02  -8.511719e+01
   4.691351e+01  -1.099902e+02
   9.563116e+01  -6.146740e+01
   1.286046e+02  -9.995738e+00
   1.114847e+02   1.192630e+02
   4.576387e+01   2.067666e+02
  -1.219260e+02   1.601925e+02
  -1.675477e+02  -1.048174e+01
  -1.005435e+02  -8.706912e+01
  -4.430839e+00  -1.276948e+02
   5.337377e+01  -1.030042e+02
   6.186413e+01  -9.861199e+00
   3.404362e+00   4.433992e+01
  -3.906828e+01   1.182931e+01
   4.988024e+01   5.575502e+01
   6.752686e+01  -4.123775e+00
   3.153906e+01   4.700310e+01
  -5.603840e+01   4.285578e+01
  -1.928963e+02   4.079023e+01
  -1.346131e+02  -4.246843e+01
  -1.472092e+01  -7.339188e+01
   9.810316e+01  -7.092935e+01
   1.295403e+02   5.163294e+01
   4.259802e+01   7.715697e+01
  -6.113932e+01   2.440101e+01
  -8.899771e+01   6.229467e+00
  -3.990804e+01  -8.023613e+01
   4.245007e+01  -7.698834e+01
   3.473391e+01   2.590049e+01
   5.402635e+01   6.289552e+01
   1.545536e+01   4.933905e+01
   1.041504e+01  -1.562525e-01
   3.652578e+01  -2.737180e+01
   3.165764e+01   4.562356e+01
  -2.574576e+01   1.134898e+02
  -7.362403e+01   1.319182e+02
  -1.474034e+02   3.373641e+01
  -8.761116e+01  -9.901607e+01
   1.412769e+01  -9.755119e+01
   1.212816e+02  -4.922270e+01
   6.144813e+01   5.436565e+01
  -9.383927e+01   4.299275e+01
  -9.760232e+01  -3.679458e+01
  -4.983593e+01  -1.019146e+02
   5.881446e+01  -1.004295e+02
   1.659957e+02  -1.882287e+01
   1.637468e+02   4.596260e+00
   5.830973e+01   1.151765e+02
  -3.437775e+01   7.827542e+01
  -2.991489e+01   7.494320e+00
  -2.378114e+01  -6.201679e+01
   9.950556e+01   2.497951e+01
   3.970696e+01   1.106347e+02
  -9.062992e+01   1.492003e+02
  -1.509154e+02   6.908377e+01
  -1.307545e+02  -8.202441e+01
  -1.282600e+00  -1.639098e+02
   3.857426e+01  -1.095280e+02
   9.842890e+01  -9.562224e+00
   4.548186e+01   9.133148e+01
  -5.239956e+00   1.073441e+02
  -5.732982e+01   1.946372e+01
  -2.747292e+01   1.040207e+01
  -6.867719e+01   1.018166e+01
  -4.511780e+01   1.303999e+01
  -7.873102e+01  -2.197391e+01
  -6.787919e+01  -1.011080e+02
  -2.794679e+00  -6.284013e+01
   3.478585e+01  -9.480481e+01
   1.351054e+02   2.233792e+01
   1.309760e+02   4.703228e+01
   3.184960e+01   1.327134e+01
  -1.212876e+02   4.841184e+01
  -9.053913e+01   1.386724e+01
   2.729776e+00  -5.062063e+01
  -5.052179e+00  -6.789185e+00
   3.319822e+01   5.063717e+00
  -1.218853e+01   1.055752e+01
   1.787107e+01  -6.967799e+00
   6.659248e+01   3.849204e+01
   3.995159e+00   2.398763e+01
  -1.070750e+01   8.013976e+01
  -8.673105e+01   1.023527e+02
  -1.466324e+02   3.957091e+01
  -1.474842e+02  -1.544765e+01
  -3.142436e+01  -1.467754e+02
   7.037773e+01  -1.286395e+02
   1.030284e+02  -5.361787e+01
   6.838112e+01   5.403027e+01
  -4.002885e+01   1.472724e+01
  -1.802527e+00   4.048902e+01
   5.044320e+01   2.055171e+01
   7.307377e+01   3.455114e+01
  -2.453622e+01   8.207360e+01
  -1.358605e+01   7.195053e+01
  -9.969248e+01  -6.012326e+00
  -6.757670e+01  -8.106256e+01
   1.443354e+00  -9.928867e+01
   6.317425e+01  -7.163829e+00
   9.770681e+01   4.464045e+01
   2.653912e+00   1.415524e+02
  -5.883506e+01   1.083323e+02
  -1.354996e+02   7.455985e+00
   5.877509e+00  -7.368449e+01
   7.426748e+00  -5.730255e+01
   3.458917e+01  -3.971458e+01
  -2.196499e+01   8.919521e+00
  -5.585042e+01   7.668769e-02
   3.063643e+01  -2.321107e+01
   1.938955e+01  -6.856915e+01
   1.024654e+02  -3.269662e+01
   4.154467e+01   3.832036e+01
  -4.061941e+01   3.939451e+01
  -3.179409e+01   2.726338e+01
  -2.278613e+01  -3.077379e+01
  -5.366606e+00  -5.295901e+01
   3.443701e+01  -2.493280e+01
   3.779041e+01   3.738535e+00
   3.984517e+01   4.148222e+01
  -2.153287e+01   4.091696e+01
  -5.728983e+01   3.290650e+01
  -5.425735e+01   3.191501e+00
  -1.266934e+01  -3.775943e+01
  -1.357289e+01   1.162985e+01
   4.470285e+01   2.084835e+01
  -5.263376e+01  -1.360973e+00
   1.411607e+01   1.168790e+00
   2.515655e+01  -1.065937e+01
  -1.017188e+00   3.390490e+01
  -1.747305e+01   6.865368e+01
  -8.779730e+01   3.441725e+00
  -4.672670e+01  -3.800352e+01
   1.802001e+01  -5.498535e+01
   5.237627e+01  -2.520036e+01
   1.943983e+01   1.909002e+01
   4.089515e+01   8.908665e+01
  -5.334784e+01   3.948380e+01
  -7.221561e+00   7.056841e-01
  -5.908353e+01   7.985094e+00
   3.657435e+01   4.012752e+00
   6.283376e+01   1.024676e+01
  -4.490654e+01   3.955527e+01
  -9.543273e+01  -4.599921e+01
