
 $NMID
 id='ANONYMOUS ', fmtdat='(2E16.6)'
 volume=1.0
 tramp=1.0
 $END
  -5.001991e+03  -1.326400e+02
  -3.173203e+03  -3.072225e+03
   9.260537e+02  -3.243411e+03
   2.709761e+03  -1.032961e+03
   9.693158e+02   9.082301e+02
  -8.135703e+02   7.841003e+02
  -1.097608e+03  -5.574769e+02
   1.001690e+02  -1.252177e+03
   1.079598e+03  -8.878250e+02
   1.134408e+03   1.124078e+02
   3.552681e+02   1.027439e+03
  -3.238555e+02   1.021640e+03
  -7.454467e+02   1.375070e+02
  -4.323230e+02  -9.000078e+02
   3.439384e+02  -8.505238e+02
   7.174112e+02   3.670014e+01
   2.274459e+02   8.222135e+02
  -3.656565e+02   6.961401e+02
  -6.265171e+02  -5.236429e+00
  -4.471179e+02  -5.294916e+02
  -3.656065e+01  -4.624167e+02
   3.738402e+02  -2.499671e+02
   2.874611e+02   1.817628e+01
  -7.881167e+01   1.332886e+02
  -4.945335e+02  -4.781072e+01
  -2.243077e+02  -5.137903e+02
   5.006854e+02  -5.475142e+02
   9.826651e+02   4.004810e+01
   4.775950e+02   6.649607e+02
  -4.383616e+02   5.658627e+02
  -8.803561e+02  -1.341936e+01
  -3.826222e+02  -6.397304e+02
   3.908060e+02  -5.877098e+02
   6.572355e+02  -2.548599e+02
   4.509447e+02   3.328567e+02
   4.018850e+01   5.738114e+02
  -2.485099e+02   3.605920e+02
  -2.503421e+02  -2.642196e+02
   2.204681e+02  -5.473359e+02
   5.130030e+02  -1.006323e+01
   3.417148e+02   7.879075e+02
  -3.536801e+02   8.306506e+02
  -7.401603e+02   1.172484e+01
  -3.259739e+02  -6.972312e+02
   3.950216e+02  -3.616260e+02
   4.985987e+02   3.453072e+02
  -4.060236e+01   6.112813e+02
  -6.425293e+02   1.315842e+02
  -6.653495e+02  -4.673416e+02
  -1.777892e+02  -6.950473e+02
   4.618593e+02  -3.469318e+02
   7.631184e+02   1.031141e+02
   4.210072e+02   4.594681e+02
  -1.995757e+02   4.487800e+02
  -5.983852e+02   7.762181e+01
  -2.799931e+02  -2.772145e+02
   1.942196e+02  -1.555874e+02
   2.400764e+02   1.683732e+02
  -1.677589e+02   2.566354e+02
  -4.234353e+02  -9.186349e+01
  -1.439109e+02  -3.656275e+02
   2.354822e+02  -2.751067e+02
   3.252530e+02  -4.626535e+01
   1.961986e+02   8.924390e+01
   3.537351e+01   2.398427e+02
  -2.613876e+02   3.534095e+02
  -3.929693e+02   2.396749e+02
  -3.287264e+02  -1.405961e+02
  -4.934629e+01  -4.606768e+02
   2.210388e+02  -4.623193e+02
   1.427302e+02  -9.911080e+01
  -2.439615e+01   3.797418e+01
   1.618451e+01  -6.397258e+01
   2.512455e+02  -1.431973e+02
   3.419497e+02   3.620149e+01
   1.871197e+02   2.760519e+02
  -9.347110e+01   2.699975e+02
  -2.710909e+02  -2.243561e+01
  -2.408023e+02  -2.702422e+02
   6.482480e+00  -3.874570e+02
   2.960520e+02  -1.836487e+02
   4.308399e+02   1.481913e+02
   2.858956e+02   4.255960e+02
  -5.427384e+01   4.115091e+02
  -2.182626e+02   1.525577e+02
  -1.370495e+02  -3.050924e+01
  -5.164991e+01   7.690931e+01
  -2.537962e+02   1.400389e+02
  -4.386518e+02  -2.654473e+01
  -4.070067e+02  -3.006903e+02
   1.515491e+01  -4.292569e+02
   3.749009e+02  -4.449902e+02
   5.272485e+02  -2.157625e+02
   3.488190e+02   1.328814e+02
   3.952350e+01   3.433119e+02
  -1.581794e+02   2.721954e+02
  -5.680636e+01   1.227605e+01
   1.239958e+02  -1.531833e+02
   2.547740e+02  -3.434539e+01
   7.115399e+01   2.072209e+02
  -1.683854e+02   2.208641e+02
  -1.642238e+02  -7.875984e+01
   3.902982e+01  -2.719861e+02
   2.150376e+02   1.847208e+01
   1.603862e+02   3.550195e+02
  -2.818927e+01   4.472010e+02
  -2.429996e+02   2.208698e+02
  -3.390611e+02  -7.096377e+01
  -3.116316e+02  -2.622389e+02
  -1.175042e+02  -2.426864e+02
   7.699900e+01  -1.290096e+02
   1.944493e+02  -3.416878e+01
   9.366565e+01   1.116560e+01
  -7.122000e+01  -4.355448e+01
  -6.074540e+01  -1.481764e+02
   1.611052e+02  -1.319921e+02
   2.144396e+02   4.505478e+00
   7.018007e+01   9.769816e+01
  -9.497338e+01   4.387941e+01
  -1.027004e+02  -7.334385e+01
   7.381869e+01  -1.175906e+02
   2.859485e+02  -4.880711e+01
   2.749197e+02   1.156340e+02
   8.810078e+01   2.612936e+02
  -1.838398e+02   3.236012e+02
  -3.333003e+02   1.452139e+02
  -1.783523e+02  -3.598969e+01
   1.058358e+01  -1.284825e+02
   1.238742e+02  -7.493028e+01
  -2.040930e+01   8.780151e+01
  -2.046382e+02   1.138250e+02
  -2.523068e+02  -7.109428e+01
  -9.728094e+01  -2.074646e+02
   1.181521e+02  -1.962056e+02
   1.874206e+02   1.330209e+01
   9.752189e+01   8.662838e+01
  -2.479420e+01   4.149100e+01
  -1.691011e+01  -3.939116e+01
   9.152531e+01  -8.281084e+01
   1.961393e+02  -1.715136e+01
   1.447153e+02   1.098094e+02
   7.466244e+00   2.360105e+02
  -1.540465e+02   1.257062e+02
  -1.660561e+02  -2.738020e+01
  -6.688647e+01  -1.225337e+02
   5.725957e+01  -9.846976e+01
   8.855425e+01  -1.690377e+01
   6.107953e-01   1.984033e+01
  -1.019926e+01   3.434347e+00
   3.324385e+01  -1.816584e+01
   7.854486e+01   3.959810e+01
   5.343769e+01   9.630390e+01
  -2.330579e+01   1.134606e+02
  -1.309327e+02   1.301483e+02
  -2.293216e+02   3.969087e+01
  -1.810736e+02  -1.375227e+02
  -1.069202e+02  -2.506878e+02
   1.194089e+02  -1.472815e+02
   1.873678e+02  -5.022269e+01
   7.715813e+01   2.930294e+01
   2.356444e+01  -5.564527e+00
   2.906029e+01  -2.487105e+01
   1.091635e+02  -3.044790e+01
   5.873215e+01   6.595926e+01
  -7.566934e+01   8.649578e+01
  -8.208882e+01   1.061581e+01
  -5.177998e+01  -9.936816e+01
   5.052598e+01  -1.153281e+02
   1.562272e+02  -7.558344e+01
   2.404871e+02   1.451450e+01
   1.067483e+02   1.837169e+02
  -9.853683e+01   2.565763e+02
  -3.494654e+02   1.372891e+02
  -3.075956e+02  -1.464740e+02
  -8.617897e+01  -2.475567e+02
   1.000244e+02  -1.704479e+02
   9.664076e+01  -6.427550e+01
   6.906699e+01  -7.470640e+01
   8.903262e+01  -5.681427e+01
   7.301930e+01  -1.151994e+02
   1.395268e+02   3.056940e+01
   1.159122e+02   1.642156e+02
   9.899327e+01   2.709603e+02
  -9.095078e+01   1.973781e+02
  -2.531090e+02   3.092069e+01
  -1.670813e+02  -8.160004e+01
  -5.496135e+00  -2.247795e+02
   9.357305e+01  -6.302541e+01
   8.451232e+01  -2.436735e+00
  -2.510340e+01   3.586543e+01
   4.241776e+01  -1.985980e+01
   5.861848e+01   2.052412e+01
   1.094517e+02   3.296175e+01
   3.196853e+01   2.552481e+01
  -3.106084e+00   1.796792e+01
  -8.996984e+01  -2.235968e+01
  -1.273539e+02  -6.191255e+00
  -4.818441e+01  -7.017675e+01
   1.201611e+02  -8.646500e+01
   1.547388e+02  -4.139201e+01
   3.739925e+01   2.672734e+01
  -8.629083e+01   1.782396e+01
  -9.880891e+01   2.797000e+01
  -7.185905e+00  -4.771732e+01
   7.538474e+01  -4.620749e+01
   2.613794e+01  -8.989212e+00
  -7.700924e+00   4.771363e+01
   7.040221e+01   6.744053e+00
   1.024881e+02  -2.051313e+01
   8.619331e+01   3.626256e+00
  -4.130937e+00   1.054971e+02
  -5.736924e+01   1.590486e+02
  -1.030871e+02   1.792106e+02
  -1.304694e+02   3.797345e+00
  -1.540355e+02  -1.557424e+02
  -1.392853e+01  -1.619459e+02
   1.429690e+02  -8.444958e+01
   9.136824e+01   5.432778e+01
  -9.092437e+01   5.613336e+01
  -1.681992e+02  -8.120621e+01
  -1.095919e+02  -1.681819e+02
   1.078343e+02  -1.120932e+02
   2.378278e+02  -3.942547e+01
   1.904131e+02   5.779302e+01
   2.757813e+01   1.159367e+02
  -6.902046e+01   3.319457e+01
  -7.760154e+01  -5.997965e+00
   3.775707e+01  -1.366606e+01
   9.811726e+01   1.049440e+01
   5.105037e+01   1.268359e+02
  -1.097079e+02   1.813461e+02
  -2.076007e+02   4.698275e+01
  -1.239698e+02  -9.920568e+01
   4.637843e+01  -2.357677e+02
   8.522619e+01  -2.045353e+02
   1.103391e+02   3.587389e+00
   1.163652e+02   1.082540e+02
   3.790817e+01   1.176294e+02
  -1.316472e+01   1.076131e+00
  -4.319048e+01  -6.887284e+00
  -6.218631e+00  -6.264900e+00
   1.770271e+01   1.110632e+01
   6.341982e+01  -4.983489e+01
  -7.397849e+01  -8.516185e+01
  -5.717346e+01  -1.119271e+02
   2.172479e+01  -3.205381e+01
   1.383775e+02   3.085302e+01
   1.830400e+02   1.196249e+02
   2.582839e+01   5.013197e+01
  -1.144414e+02  -1.141032e+00
  -5.148443e+01  -6.467331e+00
   1.813751e+01   1.700957e+01
  -2.593707e+01  -2.748158e+01
   1.506169e+01  -2.086051e+01
  -4.974410e+01   1.452923e+01
   9.478965e+00  -1.121644e+01
   7.606449e+01   1.529526e+01
   1.106530e+02   1.771953e+01
   2.794793e+01   8.269239e+01
  -1.193716e+02   1.020530e+02
  -1.665400e+02   4.242787e+01
  -1.215645e+02  -5.670693e+01
   2.703934e+00  -1.695162e+02
   9.910204e+01  -1.289053e+02
   1.096049e+02  -4.932858e+01
   6.720839e+01   8.947475e-01
   7.885865e+01   3.556672e+01
   1.714766e+01   5.273714e+01
   1.702156e+01   2.153662e+01
   3.175728e+01   6.228324e+01
   4.019297e+01   9.795758e+01
  -4.078176e+01   9.675535e+01
  -8.729612e+01  -2.532901e+01
  -9.029789e+01  -1.725967e+02
   6.813151e+00  -1.768344e+02
   8.980499e+01  -3.119172e+01
   1.177449e+02   1.356849e+02
   1.239857e+01   1.314653e+02
  -7.387312e+01   5.838716e+01
  -1.293027e+02  -1.244795e+01
  -2.905227e+01  -5.511249e+01
   1.005531e+01  -6.168762e+00
   2.146380e+01  -3.227906e+01
  -1.784408e+01   3.302842e+01
  -9.399378e+01   3.092051e+01
  -1.266314e+01   7.451408e+00
   9.596552e+01  -3.767027e+01
   8.602336e+01  -1.042606e+02
   4.308342e+01   1.027826e+00
  -1.436753e+01   7.191637e+01
  -3.814013e+01   9.115131e+01
  -3.623216e+01   3.583102e+01
  -3.095915e+01  -6.749951e+01
   2.544115e+01  -5.138058e+01
   4.904069e+01   3.417863e+01
   6.183735e+01   5.362472e+01
  -5.504987e+00   8.776492e-01
  -3.249252e+01  -1.005794e+01
  -5.669604e+01   5.424292e-01
   1.202845e+01   5.101894e+00
   6.486908e+01   6.308024e+01
  -3.632937e+01  -9.054357e+00
   6.513114e+00  -4.992318e+01
  -1.413409e+01  -2.076431e+01
   5.304429e+01  -5.872399e+00
   2.261060e+01   5.572525e+01
  -2.753235e+01   5.921065e+01
  -6.442081e+01   4.147464e+01
  -9.607131e+01  -3.765624e+01
  -2.718801e+01  -8.517604e+01
   7.246658e+01  -1.106135e+01
   7.749260e+01   1.894470e+01
   5.860570e+01   1.461476e+01
  -3.129327e+01   6.492455e+01
  -7.165997e+01   2.718984e+01
  -4.880736e+01  -8.223497e+00
   7.782269e+00   8.139226e+00
   3.159600e+01   5.521757e+01
  -3.110004e+01   5.764012e+01
  -1.093412e+02   1.882656e+01
