
 $NMID
 id='ANONYMOUS ', fmtdat='(2E16.6)'
 volume=1.0
 tramp=1.0
 $END
   5.036068e+03   8.243619e+01
   2.999896e+03   3.027414e+03
  -8.130589e+02   3.264268e+03
  -2.609075e+03   1.037788e+03
  -1.120721e+03  -7.349394e+02
   7.827660e+02  -6.990895e+02
   1.004981e+03   5.120135e+02
  -2.454754e+02   1.215432e+03
  -9.356152e+02   8.133922e+02
  -1.218542e+03  -4.822415e+01
  -4.512120e+02  -9.570387e+02
   2.762552e+02  -1.009474e+03
   7.420699e+02  -1.204502e+02
   3.776202e+02   7.495371e+02
  -3.202897e+02   8.314095e+02
  -5.656279e+02  -8.313214e+01
  -1.447314e+02  -8.148378e+02
   3.809397e+02  -5.952210e+02
   6.611930e+02   1.686246e+01
   4.219289e+02   3.911715e+02
  -5.542826e+00   5.034093e+02
  -1.756301e+02   2.299366e+02
  -1.912180e+02   1.101766e+01
   1.491133e+02  -1.162889e+02
   4.502068e+02   9.767466e+01
   2.684046e+02   3.509158e+02
  -5.035343e+02   4.676705e+02
  -8.883827e+02  -8.703903e+01
  -4.606141e+02  -5.922311e+02
   3.676618e+02  -5.073305e+02
   7.951439e+02  -1.178904e+01
   4.091066e+02   4.351698e+02
  -2.030342e+02   5.603660e+02
  -5.738357e+02   2.281361e+02
  -4.113179e+02  -2.118616e+02
  -7.435908e+01  -4.950618e+02
   1.605488e+02  -3.083630e+02
   2.182621e+02   1.822432e+02
  -1.470168e+02   5.113104e+02
  -4.198544e+02  -1.743970e+01
  -3.065095e+02  -7.212702e+02
   2.897760e+02  -7.454861e+02
   6.216268e+02  -3.843720e+01
   2.805869e+02   6.249853e+02
  -2.819336e+02   3.596838e+02
  -4.310296e+02  -3.425955e+02
   4.542881e+01  -6.068736e+02
   5.949305e+02  -1.928876e+02
   6.302306e+02   4.034889e+02
   1.829563e+02   6.317729e+02
  -3.965071e+02   3.887207e+02
  -6.438082e+02  -1.209254e+02
  -3.460962e+02  -3.892087e+02
   1.420669e+02  -4.237338e+02
   4.587670e+02  -7.800891e+01
   2.547331e+02   1.691418e+02
  -6.266942e+01   1.402323e+02
  -1.096416e+02  -1.544163e+02
   2.231335e+02  -1.629097e+02
   4.263241e+02   7.622150e+01
   1.285434e+02   3.380142e+02
  -2.181063e+02   2.372653e+02
  -4.001350e+02   3.423825e+01
  -2.230874e+02  -1.099900e+02
   5.194286e+01  -2.565601e+02
   2.702827e+02  -2.925653e+02
   3.198142e+02  -2.777093e+02
   3.130174e+02   1.873880e+02
   8.220213e+01   4.962773e+02
  -1.193189e+02   4.648505e+02
  -1.821013e+02   1.739450e+02
  -1.296587e+02  -5.931048e+01
  -2.328202e+01   1.032296e+01
  -1.717310e+02   1.161301e+02
  -2.243426e+02  -4.080910e+01
  -1.501320e+02  -2.275114e+02
   6.239646e+01  -2.869597e+02
   2.002920e+02   9.219002e+00
   2.517310e+02   2.462736e+02
  -2.290646e+01   2.826643e+02
  -2.697324e+02   1.136683e+02
  -3.763404e+02  -2.109627e+02
  -1.674015e+02  -4.025566e+02
   1.690859e+02  -3.054910e+02
   2.448883e+02  -1.169747e+02
   1.729125e+02  -2.420983e+01
   1.089449e+02  -1.671618e+01
   2.656138e+02  -7.610753e+01
   4.293012e+02   7.082734e+01
   3.083279e+02   3.064865e+02
  -3.035095e+00   4.681532e+02
  -3.576510e+02   3.983786e+02
  -4.331491e+02   1.789633e+02
  -3.654733e+02  -1.304814e+02
  -5.310668e+01  -2.790933e+02
   1.176200e+02  -2.559605e+02
   7.279689e+01  -6.398872e+01
  -1.332298e+02   1.571859e+02
  -2.938568e+02   2.769958e+01
  -1.010849e+02  -2.071145e+02
   1.663627e+02  -1.633780e+02
   1.530623e+02   1.633957e+01
  -7.293976e+01   1.041625e+02
  -2.072854e+02  -1.519312e+01
  -1.766253e+02  -2.738029e+02
  -1.009234e+00  -3.654968e+02
   2.284481e+02  -1.460848e+02
   3.732194e+02   7.005399e+01
   2.617792e+02   2.399068e+02
   8.444900e+01   2.716206e+02
  -1.090913e+02   1.565107e+02
  -1.911022e+02   8.066980e+01
  -7.648405e+01  -3.464818e+01
   7.133020e+01   3.527188e+01
  -3.735572e+00   1.374416e+02
  -1.383245e+02   9.699693e+01
  -1.317847e+02  -7.565512e+00
  -2.295766e+01  -8.680862e+01
   1.230222e+02  -4.182726e+01
   6.635055e+01   3.461431e+01
  -1.239311e+02   1.631918e+01
  -2.401551e+02   4.589404e+00
  -2.289309e+02  -9.973770e+01
  -5.519182e+01  -2.857588e+02
   1.927299e+02  -2.692155e+02
   3.315125e+02  -1.697130e+02
   1.630537e+02   5.587102e+00
  -3.327594e+01   1.220128e+02
  -1.159774e+02   2.243036e+01
   3.807449e+01  -1.075600e+02
   2.076372e+02  -6.668446e+01
   2.245862e+02   6.958350e+01
   3.431755e+01   1.805363e+02
  -1.031329e+02   2.027567e+02
  -1.655377e+02   3.904562e+01
  -9.725744e+01  -5.879351e+01
   4.062215e+01  -1.776085e+00
   1.770843e+01   3.291001e+01
  -8.101830e+01   9.292492e+01
  -1.683278e+02  -7.922999e+00
  -1.638015e+02  -1.472596e+02
   8.409676e+00  -2.093092e+02
   1.409500e+02  -1.215409e+02
   2.142401e+02  -1.489938e+01
   9.757958e+01   1.335876e+02
  -2.151049e+01   8.863755e+01
  -5.436226e+01   6.012043e+01
  -2.192483e+01  -1.058562e+00
   3.111210e+01  -5.370734e+00
  -7.535408e+00  -7.085230e+00
  -9.028235e+01  -7.884564e+01
  -7.162471e+01  -1.033255e+02
  -7.695997e+00  -1.816299e+02
   1.245876e+02  -1.294227e+02
   2.460060e+02  -3.141238e+01
   1.986509e+02   1.105312e+02
   4.173773e+01   1.952199e+02
  -9.254240e+01   1.649486e+02
  -1.107613e+02  -4.085322e-01
  -6.001554e+01  -5.307554e+01
  -3.052753e+01  -3.252909e+01
  -3.957993e+01   4.706143e+00
  -1.182838e+02  -1.646147e+01
  -9.374953e+01  -3.040594e+01
   4.933496e+01  -7.962427e+01
   1.091496e+02  -1.931172e+01
   5.018517e+01   4.886005e+01
  -4.038892e+01   6.588932e+01
  -1.396164e+02   9.425286e+01
  -2.172263e+02  -4.950297e+01
  -1.028962e+02  -1.995208e+02
   3.686732e+01  -2.574440e+02
   2.136368e+02  -1.262781e+02
   2.837459e+02   7.104349e+01
   1.384648e+02   1.817550e+02
  -5.356841e+00   1.855729e+02
  -1.123034e+02   8.968693e+01
  -1.283102e+02   7.503078e+01
  -7.874528e+01   7.811053e+01
  -5.433920e+01   9.381799e+01
  -1.145738e+02  -4.435734e+01
  -7.157328e+01  -1.483836e+02
  -3.234732e+01  -2.509569e+02
   1.151628e+02  -2.170870e+02
   2.275579e+02  -1.197100e+01
   1.674361e+02   1.469065e+02
   9.927332e+01   1.811306e+02
  -1.103744e+01   1.434105e+02
  -1.024000e+02   2.021433e+01
  -4.593907e+01  -1.083118e+02
  -6.343639e+00  -6.105753e+01
  -6.137349e+01  -7.118946e+01
  -6.885625e+01  -2.679064e+01
  -3.808996e+01  -4.448477e+01
   1.450737e+01   5.282412e+00
   8.670949e+01  -1.969210e+01
   6.855767e+01  -2.018548e+00
  -1.775275e+01   3.835158e+01
  -1.157375e+02   5.210506e+01
  -1.336279e+02  -2.273894e+01
  -4.140988e+01  -3.851334e+01
   5.141282e+01  -3.039060e+01
   5.468657e+01   1.207267e+01
  -2.187027e+01   4.326674e+01
  -3.550508e+01   1.011080e+01
  -8.301072e+01   3.059142e+01
  -5.145450e+01  -4.605824e+01
  -1.005635e+02  -1.921771e+01
  -6.087777e+01   1.057161e+00
  -7.148190e+01  -1.327341e+01
  -1.552105e+01  -9.882676e+01
   3.465044e+01  -1.237488e+02
   1.113179e+02  -1.208301e+02
   1.688961e+02  -6.585458e+00
   1.320831e+02   1.032375e+02
   5.662063e+00   1.243923e+02
  -1.078986e+02   8.507261e+01
  -5.384989e+01   4.326460e-01
   1.093368e+02  -1.790556e+01
   1.523504e+02   3.113821e+01
   3.593501e+01   9.361572e+01
  -7.627003e+01   7.007798e+01
  -2.140072e+02   5.141314e+01
  -1.575475e+02  -1.644226e+01
  -5.322538e+01  -8.468895e+01
   6.432272e+00  -7.808247e+01
   3.085508e+01  -3.098025e+00
  -3.265024e+01   5.069513e+01
  -1.022570e+02  -4.331862e+01
  -5.946640e+00  -1.463111e+02
   1.260935e+02  -1.725993e+02
   1.471908e+02  -8.456476e+01
   9.601179e+01   6.342561e+01
  -3.891422e+00   2.109651e+02
  -6.479345e+01   1.584836e+02
  -1.392300e+02  -2.848471e+01
  -1.016015e+02  -1.173360e+02
  -6.151772e+01  -1.449087e+02
   3.332545e+01   8.744515e+00
   1.588435e+01   1.230027e+01
   2.454082e+01   9.167216e+00
  -9.109267e+00  -4.223837e+01
   9.246199e+00  -4.580297e+01
   9.008865e+01   1.589495e+02
   6.000589e+01   1.223525e+02
  -8.550445e+01   1.368142e+01
  -1.422188e+02  -6.900066e+01
  -1.083158e+02  -6.494564e+01
  -3.908543e+00  -7.501905e+01
   7.590416e+01  -3.506630e+01
   6.458626e+01  -4.327535e+01
  -3.932225e+01   6.879953e-01
  -4.534428e+01   3.779342e+01
  -3.211315e+01   6.346235e+01
  -4.632815e-01  -3.965753e+01
  -1.978665e+00  -3.128314e-01
  -8.492039e+01  -2.375279e+01
  -6.825382e+01  -5.665498e+01
   5.020956e+01  -1.129808e+02
   1.338595e+02  -1.158662e+02
   1.672109e+02   9.823456e+00
   1.149130e+02   1.030316e+02
  -1.591096e+00   1.856258e+02
  -9.539205e+01   1.590020e+02
  -1.110422e+02   4.454294e+01
  -7.045412e+01   1.363267e+01
  -4.288374e+01   1.299821e+01
  -3.570457e+01   2.267995e+01
  -1.623570e+00  -1.355387e+01
  -5.297652e+01  -5.570138e+01
  -3.193858e+01  -6.775188e+01
   3.200743e+01  -6.507961e+01
   1.039652e+02   1.957742e+01
   6.029125e+01   7.674433e+01
  -1.334625e+01   1.180682e+02
  -1.177498e+02   1.453233e+00
  -1.007468e+02  -8.546756e+01
  -4.190483e+01  -1.134639e+02
   6.794222e+01  -7.429965e+01
   1.501980e+02  -2.417158e+01
   9.811167e+01   4.308854e+01
   3.114714e+01   4.560355e+01
  -9.184376e+00   5.142882e+01
   2.943161e+01   1.840419e+01
   5.134643e+01  -2.241991e+01
   1.114082e+01   6.336937e+01
  -1.311363e+02   7.741963e+01
  -9.801269e+01   9.120143e+01
  -5.351410e+01   3.663285e+01
   4.396780e+00  -1.082080e+02
   4.898336e+00  -8.378455e+01
   5.586385e+01   9.331848e+00
  -2.311981e+01   6.602022e+01
  -1.960170e+01   3.122013e+01
  -3.072061e+01  -1.335506e+01
  -6.803612e+01  -7.053516e+01
  -1.404908e+01  -1.803599e+01
   8.916641e+01  -1.734161e+01
   4.488915e+01   5.756543e+01
  -1.529115e+00   3.017096e+01
  -2.312336e+01   6.872323e+00
   1.537506e+01   6.132933e+01
  -3.327230e+01   7.345100e+01
  -5.604704e+01   3.478921e+01
  -7.916037e+01  -4.493985e+01
  -7.882985e+00  -5.013378e+01
   2.561867e+01  -5.832572e+01
   1.612524e+01  -3.466579e+01
   1.518678e+01   7.719682e+01
   5.612942e+01   4.366629e+01
  -3.410311e+01   2.485697e+01
  -8.170724e+01  -3.687433e+01
  -4.400303e+01  -3.220012e+01
  -3.831936e+01  -2.749243e+01
   6.159855e+01  -3.009209e+01
   2.553304e+01   3.466164e+01
  -1.289197e+01   1.768196e+00
  -5.896348e+01  -5.132768e+00
   2.561357e+01  -2.218612e+01
   5.434912e+01   1.185930e+01
