
 $NMID
 id='ANONYMOUS ', fmtdat='(2E16.6)'
 volume=1.0
 tramp=1.0
 $END
   3.369460e+03  -2.225760e+02
   2.153750e+03   1.842772e+03
  -3.726405e+02   2.141348e+03
  -1.620599e+03   9.166666e+02
  -7.917555e+02  -3.355690e+02
   3.749692e+02  -3.689402e+02
   5.993623e+02   2.109528e+02
   2.942949e+01   7.294018e+02
  -6.586800e+02   5.536691e+02
  -6.388826e+02  -1.436481e+02
  -4.299045e+02  -6.515112e+02
   9.991158e+01  -7.320481e+02
   5.748732e+02  -1.125904e+02
   3.762736e+02   5.686265e+02
  -8.458856e+01   6.748787e+02
  -4.684517e+02   4.239618e+01
  -2.855902e+02  -5.723376e+02
   2.085739e+02  -5.619895e+02
   5.420230e+02  -2.513458e+02
   4.596439e+02   2.555908e+02
   2.626008e+01   3.190183e+02
  -2.187157e+02   2.395833e+02
  -1.111215e+02   1.001514e+02
   9.882568e+01  -5.634098e-01
   2.355116e+02   9.791642e+01
   1.278221e+02   3.482241e+02
  -3.168555e+02   2.605398e+02
  -6.300251e+02  -8.278720e+01
  -3.691109e+02  -4.591532e+02
   2.911754e+02  -3.361221e+02
   6.114149e+02   2.892313e+01
   2.499219e+02   3.844939e+02
  -2.448203e+02   3.763133e+02
  -4.711906e+02   1.626134e+02
  -2.998663e+02  -1.543398e+02
  -1.009846e+02  -3.214579e+02
   7.135820e+01  -2.089071e+02
   7.280898e+01   1.107706e+02
  -1.393605e+02   2.977823e+02
  -3.560312e+02  -3.042873e+01
  -1.224436e+02  -5.240809e+02
   2.969329e+02  -5.775069e+02
   4.111191e+02  -2.636720e+01
   2.177820e+02   4.199628e+02
  -1.998131e+02   2.487650e+02
  -2.108097e+02  -2.723139e+02
   1.137272e+02  -4.628107e+02
   4.463434e+02  -9.171629e+01
   4.881626e+02   3.250559e+02
   1.650977e+02   4.730234e+02
  -2.730495e+02   2.495469e+02
  -5.164443e+02  -8.788725e+01
  -3.453268e+02  -2.540740e+02
   3.107596e+01  -2.532363e+02
   3.166252e+02  -9.531948e+01
   2.286359e+02   9.553381e+01
   7.181948e+00   5.730795e+01
  -5.659180e+01  -5.369147e+01
   1.466457e+02  -1.330762e+02
   2.444335e+02   2.532675e+01
   1.213119e+02   2.450865e+02
  -1.506963e+02   2.250721e+02
  -3.018629e+02   1.200972e+02
  -1.977627e+02  -6.358821e+01
   6.844347e+01  -2.472422e+02
   2.586991e+02  -3.372514e+02
   2.748416e+02  -1.836502e+02
   1.822125e+02   1.277665e+02
   6.746594e+01   4.025454e+02
  -8.952785e+01   3.597060e+02
  -9.380784e+01   1.069290e+02
  -1.416870e+01   1.240341e+01
  -5.420582e+01   7.639048e+01
  -1.316060e+02   6.451493e+01
  -2.275150e+02  -7.693807e+01
  -1.284917e+02  -2.039676e+02
   9.085052e+01  -2.003669e+02
   1.969096e+02  -1.494127e+01
   1.959324e+02   1.765677e+02
   4.739349e+01   1.890537e+02
  -1.693709e+02   6.851004e+01
  -2.801816e+02  -1.442953e+02
  -1.959320e+02  -2.703921e+02
   7.407218e+01  -2.375995e+02
   1.297472e+02  -8.677730e+01
   1.230788e+02   3.630845e+01
   6.694457e+01  -1.990260e+01
   1.683585e+02  -6.836598e+01
   3.409399e+02   2.423938e+01
   2.954792e+02   2.098828e+02
   1.632287e+01   3.697392e+02
  -3.122185e+02   3.404845e+02
  -4.272652e+02   1.804565e+02
  -2.591510e+02  -8.244925e+01
  -1.069934e+01  -2.743820e+02
   1.166125e+02  -2.483892e+02
   7.435268e+01  -3.390509e+01
  -1.642385e+02   8.195256e+01
  -1.981877e+02   5.792739e+00
  -4.990251e+01  -1.511551e+02
   1.497067e+02  -1.256225e+02
   1.736961e+02   5.487222e+01
  -1.121938e+01   1.171400e+02
  -1.427580e+02   2.717564e+01
  -1.282560e+02  -2.248996e+02
  -1.151470e+01  -3.072268e+02
   2.135334e+02  -2.076968e+02
   3.371680e+02   8.022298e+01
   2.372353e+02   1.843005e+02
   1.006697e+02   2.406943e+02
  -7.218131e+01   4.738449e+01
  -1.069667e+02  -2.215360e+01
  -3.264871e+01   1.017696e+01
   8.619280e+01   6.400248e+01
   5.236137e+00   8.425688e+01
  -1.568513e+02   1.121883e+02
  -1.608240e+02  -1.950909e+01
  -4.018822e+01  -7.282246e+01
   1.056611e+02  -3.743201e+01
   6.588781e+01   3.532884e+01
  -1.130187e+02   1.266096e+02
  -2.286820e+02  -2.295169e+01
  -2.099120e+02  -1.401840e+02
  -1.635342e+01  -2.299128e+02
   1.921411e+02  -1.992124e+02
   2.422534e+02  -9.702842e+01
   1.271183e+02   9.495254e+00
  -1.839217e+01   4.618949e+01
  -6.167586e+01  -2.327778e+01
   6.334625e+01  -9.431508e+01
   1.998157e+02  -8.874301e+01
   1.951864e+02   8.504106e+01
   4.555156e+01   2.018810e+02
  -7.110469e+01   1.615384e+02
  -1.354406e+02   2.323274e+01
  -6.162673e+01  -3.587720e+01
   4.323367e+01  -2.408191e+01
   5.707056e+01   6.206688e+01
  -5.857442e+01   7.871345e+01
  -1.795323e+02   1.962014e+01
  -2.041230e+02  -9.265432e+01
  -1.295097e+01  -1.842581e+02
   1.719624e+02  -1.273533e+02
   1.363308e+02  -1.494403e+01
   5.074187e+01   1.387861e+02
  -4.692129e+01   8.610120e+01
  -4.888103e+01  -3.022451e+01
  -4.870418e+00  -4.091583e+01
   2.020992e+01  -5.679069e+01
   1.715354e+01  -2.111066e+01
  -6.064372e+01  -4.379123e+01
  -2.416097e+01  -4.666689e+01
  -1.548069e+01  -1.450509e+02
   1.264551e+02  -1.337735e+02
   1.949004e+02   4.950740e+01
   1.470987e+02   1.450502e+02
   4.595898e+00   1.864616e+02
  -1.199307e+02   1.476806e+02
  -1.442169e+02   1.337555e+01
  -3.844093e+01  -1.007001e+02
  -7.891011e+00  -8.891546e+01
  -6.385997e+01   4.435974e+01
  -4.564814e+01   2.606494e+01
  -9.106036e+01  -3.964280e+01
   1.908818e+01  -3.425219e+01
   1.514987e+02  -6.436008e+01
   1.069609e+02   1.971632e+01
  -2.794350e+01   1.384608e+02
  -1.329767e+02   9.461295e+01
  -2.148730e+02  -2.413660e+01
  -1.001741e+02  -1.754055e+02
   6.567352e+01  -1.797965e+02
   2.068651e+02  -6.440229e+01
   2.575776e+02   7.722489e+01
   7.285159e+01   1.491629e+02
  -4.221510e+01   1.486948e+02
  -7.652660e+01   5.789861e+01
  -8.004627e+01   3.643007e+01
  -4.668137e+01   6.173499e+01
  -5.753679e+01   5.472746e+01
  -7.802900e+01   5.908553e+00
  -4.194069e+01  -1.155198e+02
  -4.570096e+01  -1.556883e+02
   5.138090e+01  -1.792338e+02
   1.387629e+02   2.035890e+01
   1.377910e+02   1.483165e+02
   6.050875e+01   1.736495e+02
  -4.430285e+01   1.432384e+02
   2.968248e+00  -1.246387e+01
  -1.977383e+01  -4.873838e+01
  -3.355078e+01   4.595558e+00
  -4.116642e+01  -4.958894e+00
  -7.220086e+01  -4.336380e+01
  -3.653165e+01  -5.075945e+01
   5.720497e+01  -1.166399e+01
   1.250324e+02  -1.564619e+01
   1.170387e+02   8.076705e+00
  -3.188533e+01   1.045276e+02
  -1.238261e+02   8.011853e+01
  -1.803928e+02   4.455081e+00
  -8.285301e+01  -9.582280e+01
   7.715255e+01  -2.565610e+01
   7.924665e+01   9.912751e+00
   2.517616e+01   3.832862e+01
  -5.764879e+01   5.728675e+00
  -5.413015e+01  -1.287082e+01
  -1.143720e+01  -5.272471e+01
  -5.012410e+01  -2.245920e+01
  -2.734238e+01   7.925708e+00
  -7.001574e+01   1.865782e+01
  -1.800779e+01  -5.026266e+01
   3.061644e+01  -1.399411e+02
   1.068895e+02  -1.145355e+02
   1.853211e+02  -3.802050e+01
   1.075065e+02   8.364295e+01
  -4.256955e+01   4.345638e+01
  -7.310442e+01   6.048141e+01
  -2.117145e+01  -1.986079e+00
   5.196462e+01  -2.996549e+01
   9.350089e+01   7.527726e+00
   6.755413e+01   8.168633e+01
  -9.159359e+01   1.067632e+02
  -1.340349e+02   3.296138e+01
  -1.436980e+02  -2.294258e+01
   7.854328e+00  -3.325874e+01
   4.041059e+01  -7.417307e+01
   2.488961e+01  -4.640683e+01
   1.452614e+01   1.562620e+01
  -8.372235e+01  -7.483287e+00
  -8.957333e+00  -7.665979e+01
   6.509993e+01  -1.166842e+02
   1.389714e+02  -4.093718e+01
   1.213428e+02   6.276836e+01
   2.191454e+01   1.686056e+02
  -4.203083e+01   1.400315e+02
  -1.391590e+02  -2.683961e+01
  -5.063033e+01  -9.534646e+01
   9.053430e+00  -1.089800e+02
  -2.890370e+00  -1.243695e+01
  -2.612218e+00   3.722901e+01
   3.200065e+01  -3.373071e+01
  -6.877169e-01  -1.518668e+01
   6.222723e+00   2.002911e+01
   4.146035e+01   8.542780e+01
   1.060474e+01   6.190712e+01
  -3.976788e+01   4.092662e+01
  -1.375737e+02   1.409830e+01
  -1.531678e+02  -2.425038e+01
  -4.033608e+01  -2.917364e+01
   3.286901e+01  -5.106040e+01
   9.714542e+01  -1.043923e+01
   2.359973e+01   8.092823e+00
  -7.638318e+01   4.187911e+01
  -3.090681e+01   2.983520e+01
   5.419133e+00   1.171945e+00
  -3.519282e+01   8.862856e+00
  -6.463425e+01  -3.647164e-01
  -6.790602e+01  -1.457268e+01
  -9.208977e+00  -1.233080e+02
   8.007160e+01  -1.439035e+02
   1.588450e+02  -9.611472e+01
   1.283198e+02   3.362405e+00
   1.317663e+01   1.567926e+02
  -9.314789e+01   1.468091e+02
  -1.168528e+02   8.627300e+01
  -1.318616e+02  -2.293541e+01
  -2.078471e+01  -3.637650e+01
  -9.501653e+00  -4.568338e+01
  -3.649162e+01  -1.590603e+01
  -8.335199e+01  -6.555294e+01
   1.065654e+01  -1.338439e+02
   3.729783e+01  -7.870612e+01
   7.501347e+01   1.915492e+01
   6.368299e+01   5.892693e+01
   3.323720e+01   1.403870e+02
  -5.440981e+00   5.699173e+01
  -7.014167e+01  -6.424795e+01
  -9.023041e+00  -7.411442e+01
   5.120316e+01  -9.585487e+01
   1.086933e+02  -2.872220e+01
   6.586576e+01   6.558193e+01
  -7.332069e+01   5.130329e+01
  -3.327953e+01   6.389590e+01
  -3.546015e+00  -4.752641e+01
   7.716249e+01  -3.224794e+01
   4.207099e+01  -1.967924e+01
  -5.111557e+01   2.376819e+01
  -1.273965e+02   8.024813e+01
  -5.121967e+01   1.723705e+00
   4.712484e+01  -7.638408e+01
   8.540195e+01  -9.091106e+01
   6.718601e+01   7.097727e+00
   5.542773e+00   3.815700e+01
  -2.902949e+01   7.135850e+01
  -5.347020e+00   3.218601e+00
  -4.563208e+01  -6.216462e+01
  -1.950416e+01  -5.930193e+01
   2.588201e+01  -9.579222e+00
   6.607995e+01   1.256439e+01
   4.670209e+00  -1.061660e+01
  -7.506819e+00  -1.884380e+01
   4.755318e+01  -2.299087e+01
  -1.599976e+01   2.923041e+01
  -2.232532e+01   3.711186e+01
  -3.941670e+01  -3.255676e+01
  -3.404686e+00  -6.975118e+01
   3.354680e+01   8.102189e+00
   2.009475e+01  -1.466605e+00
   2.015573e+01   5.144034e+01
   2.686848e+01   6.231349e+01
  -2.454986e+00   2.667410e+01
  -7.271356e+01   4.275457e+01
  -3.526112e+01  -5.824359e+01
   3.345631e+01  -4.795872e+01
  -4.717822e+00  -3.312940e+01
  -7.422291e+00  -1.454229e+01
  -5.504660e+01   9.684023e+00
  -2.295908e+01  -5.052153e+01
   8.257054e+01  -6.285900e+01
   1.259359e+02   2.022501e+01
