
 $NMID
 id='ANONYMOUS ', fmtdat='(2E16.6)'
 volume=1.0
 tramp=1.0
 $END
   3.981062e+03  -6.386688e+00
   2.534647e+03   2.370570e+03
  -2.953873e+02   2.846885e+03
  -1.886268e+03   1.277577e+03
  -9.853453e+02  -1.288856e+02
   4.011577e+02  -3.331520e+02
   7.718713e+02   2.575198e+02
  -4.418445e+01   9.165681e+02
  -7.945383e+02   7.998346e+02
  -7.722259e+02  -2.000525e+01
  -4.186766e+02  -7.535655e+02
   1.419144e+02  -9.016329e+02
   6.521024e+02  -1.765943e+02
   3.340942e+02   6.351768e+02
  -1.916535e+02   7.116038e+02
  -4.850812e+02   1.002362e+02
  -3.738941e+02  -5.181015e+02
   2.114507e+02  -6.497940e+02
   6.251542e+02  -1.976386e+02
   3.973601e+02   2.372326e+02
   1.026501e+02   4.435210e+02
  -1.523307e+02   2.116769e+02
  -1.558107e+02   4.034891e+01
   1.618184e+02   1.282133e+01
   3.504879e+02   2.375302e+02
   2.127700e+02   3.943674e+02
  -3.372171e+02   3.683701e+02
  -7.385381e+02  -1.214933e+02
  -4.597063e+02  -4.333778e+02
   3.366100e+02  -3.377218e+02
   7.208431e+02   3.598809e+01
   3.721251e+02   4.027087e+02
  -2.910875e+02   4.578211e+02
  -5.798727e+02   2.687471e+02
  -4.047960e+02  -1.966694e+02
  -3.450232e+01  -4.846386e+02
   1.297333e+02  -3.033801e+02
   8.342327e+01   1.527022e+02
  -1.667248e+02   4.197649e+02
  -3.528714e+02  -2.037674e+01
  -1.541749e+02  -6.686207e+02
   2.673990e+02  -7.081037e+02
   5.418853e+02  -6.359047e+01
   2.778343e+02   4.612060e+02
  -2.187773e+02   2.517334e+02
  -3.055744e+02  -3.365036e+02
   8.674734e+01  -5.315122e+02
   5.548574e+02  -1.094937e+02
   6.244627e+02   3.740027e+02
   2.386315e+02   5.812221e+02
  -3.453960e+02   3.294613e+02
  -5.812594e+02  -4.458162e+01
  -3.574633e+02  -3.082154e+02
   1.235344e+02  -2.907770e+02
   3.763259e+02  -4.838035e+01
   2.444380e+02   1.542118e+02
  -4.849358e+01   6.897589e+01
  -7.993374e+01  -1.159050e+02
   1.318201e+02  -1.121572e+02
   3.394785e+02   7.361741e+01
   1.717034e+02   2.887269e+02
  -2.187016e+02   2.995966e+02
  -3.822401e+02   1.462150e+02
  -1.920748e+02  -4.229401e+01
   7.285606e+00  -2.232110e+02
   2.555541e+02  -3.556481e+02
   3.677460e+02  -2.107835e+02
   2.362188e+02   2.190724e+02
  -4.733209e+00   4.014292e+02
  -7.141494e+01   3.689634e+02
  -3.459558e+01   1.276246e+02
   3.916980e-01   1.305464e+01
  -7.673365e+01   1.297643e+02
  -2.250878e+02   1.676689e+02
  -2.439990e+02  -7.015688e+01
  -1.053760e+02  -2.410661e+02
   7.536081e+01  -2.457201e+02
   2.080294e+02   4.897207e+01
   2.156960e+02   3.050833e+02
   6.341400e+00   3.176928e+02
  -2.950723e+02   1.479040e+02
  -3.862293e+02  -1.510829e+02
  -2.966508e+02  -3.587670e+02
   8.132937e+01  -3.274891e+02
   1.420902e+02  -1.707195e+02
   9.805221e+01  -2.859446e+01
   1.191839e+02  -6.335137e+01
   2.677273e+02  -8.763460e+01
   4.148752e+02   5.799452e+01
   3.733279e+02   2.389043e+02
   6.757840e+00   4.197427e+02
  -2.841302e+02   4.082409e+02
  -4.719934e+02   2.537003e+02
  -3.057222e+02  -3.794808e+01
  -2.653639e+01  -2.684557e+02
   9.804723e+01  -2.644186e+02
   7.735354e+01  -6.222962e+01
  -1.522893e+02   4.509375e+01
  -1.825821e+02   5.923895e+01
  -1.964385e+00  -1.467969e+02
   1.474738e+02  -1.473274e+02
   1.777905e+02   5.042490e+01
  -4.504174e+01   1.674697e+02
  -1.651388e+02   6.515477e+01
  -1.712855e+02  -1.965380e+02
   2.416926e+01  -3.587661e+02
   2.313058e+02  -1.862987e+02
   3.425959e+02   6.008275e+01
   2.717528e+02   2.335906e+02
   9.356957e+01   2.531237e+02
  -9.241991e+01   1.733828e+02
  -1.714978e+02   7.682704e+01
  -3.389640e+01   3.334460e+00
   8.357036e+01   5.815390e+01
   7.860807e+01   1.033413e+02
  -1.088012e+02   9.975258e+01
  -1.484469e+02   4.462109e+01
  -3.567336e+01  -4.180078e+01
   8.096244e+01  -1.260360e+01
   3.095565e+01   7.802340e+01
  -1.498237e+02   1.052885e+02
  -2.793142e+02   4.714413e+01
  -2.607773e+02  -8.567763e+01
  -3.051464e+01  -2.662371e+02
   1.722909e+02  -2.859701e+02
   2.712166e+02  -1.440716e+02
   1.840057e+02   2.881218e+01
   2.986470e+01   6.112723e+01
  -6.649551e+01   2.399130e+01
   4.840166e+01  -7.789651e+01
   1.551987e+02  -4.926119e+01
   2.006317e+02   1.230835e+02
   1.022057e+02   1.869799e+02
  -5.411542e+01   1.775592e+02
  -1.366077e+02  -6.697890e+00
  -1.104433e+02  -2.413586e+01
   2.775059e+01   3.825139e+01
   5.231056e+01   1.116134e+02
  -8.586718e+01   1.411340e+02
  -1.767718e+02   6.170749e+01
  -2.152431e+02  -9.927811e+01
  -1.236729e+01  -1.682502e+02
   1.513955e+02  -1.260713e+02
   1.711843e+02  -5.693891e+01
   6.084219e+01   8.127748e+01
  -3.972623e+01   1.241938e+02
  -8.301660e+01   2.093121e+01
  -1.674821e+01  -2.117782e+01
   3.229481e+01   8.787075e+00
  -9.147615e+00   2.460209e+01
  -8.485178e+01   3.070981e+01
  -9.305234e+01  -6.276433e+01
  -1.089459e+01  -1.285999e+02
   7.923765e+01  -1.704772e+02
   2.120471e+02  -2.165262e+01
   1.637852e+02   1.453986e+02
   1.364117e+01   2.710745e+02
  -9.495115e+01   1.632100e+02
  -1.009042e+02   5.407573e+01
  -1.272643e+02  -7.275822e+01
  -2.553836e+01  -5.411855e+01
  -5.229780e+01   3.736435e+01
  -7.077498e+01   1.481035e+01
  -1.091182e+02  -1.005337e+02
   4.302964e+01  -9.513882e+01
   6.315381e+01  -9.727021e+01
   1.313941e+02   9.870659e+00
   2.326914e+01   1.156372e+02
  -1.214504e+02   9.707506e+01
  -2.361610e+02  -5.166901e+01
  -1.345349e+02  -2.147483e+02
   1.336407e+02  -2.703616e+02
   2.622913e+02  -1.252452e+02
   2.961096e+02   4.689465e+01
   9.690464e+01   1.737275e+02
  -4.075511e+01   1.545448e+02
  -1.213937e+02   8.576264e+01
  -6.506421e+01   5.166705e+01
  -6.011445e+01   7.609181e+01
  -9.406058e+01   8.973263e+01
  -1.364262e+02  -1.479276e+01
  -1.084327e+02  -1.926510e+02
  -2.357309e+01  -2.112716e+02
   8.722397e+01  -1.829215e+02
   1.766656e+02  -8.064037e+00
   1.473342e+02   1.315706e+02
   1.603168e+01   2.267484e+02
  -7.675412e+01   1.319052e+02
  -1.103794e+02  -1.815084e+01
   6.538148e+00  -6.781870e+01
   3.027705e+01  -9.977640e+00
  -3.455451e+01   1.910490e+00
  -1.350101e+02   4.194603e+00
  -5.203296e+01  -3.406545e+01
   3.628023e+01  -1.483582e+01
   1.903905e+02   2.431887e+01
   1.589585e+02   5.155223e+01
   1.806047e+01   2.785553e+01
  -1.332141e+02   4.936017e+01
  -1.424087e+02   4.133656e+01
  -7.677872e+01  -8.295189e+00
   5.331699e+01  -3.160714e+01
   8.651655e+01   1.898949e+01
   1.689066e+00   7.790873e+01
  -4.587850e+01   6.746887e+01
  -9.597669e+01   1.630370e+01
  -4.754942e+01  -3.975873e+01
  -5.189407e+01  -8.092898e+01
  -7.457798e+01  -2.235689e+01
  -8.412060e+01  -8.604710e+00
  -3.378494e+01  -8.915857e+01
   2.477515e+01  -1.602711e+02
   1.348341e+02  -1.348952e+02
   1.707182e+02  -5.874150e+01
   1.436591e+02   1.188437e+02
   2.193578e+01   1.725396e+02
  -9.363101e+01   4.893938e+01
  -1.030545e+02  -1.471564e+01
   7.284215e+01  -8.856447e+01
   1.362280e+02   2.526195e+01
   4.481157e+01   7.919198e+01
  -9.587055e+01   1.026392e+02
  -1.863040e+02   5.245201e+01
  -1.895939e+02  -7.619509e+01
  -4.248925e+01  -1.152529e+02
   8.650845e+01  -3.677881e+01
   9.197242e+01  -2.077159e+01
  -1.608531e+01   3.488002e+01
  -7.399826e+01  -1.222465e+01
  -7.103420e+01  -1.060806e+02
   4.347182e+01  -1.285866e+02
   1.938482e+02  -9.340503e+01
   1.296297e+02   7.781117e+01
   4.348274e+01   1.998101e+02
  -6.234841e+01   1.659788e+02
  -1.565801e+02   1.918016e+01
  -7.665738e+01  -1.131971e+02
  -4.126897e+01  -1.495043e+02
   3.052263e+01  -2.519157e+01
   4.244843e+01   3.821790e+01
   5.549416e+01   7.223553e+00
   2.303294e+01  -3.577327e+01
   4.241009e+01  -3.212127e+01
   8.596467e+01   1.314399e+02
   3.235551e+01   1.255578e+02
  -7.336699e+01   4.654719e+01
  -1.297601e+02  -6.928004e+01
  -1.581816e+02  -9.411083e+01
  -2.481936e+01  -4.843072e+01
   7.131779e+01  -4.282737e+01
   1.259181e+02  -2.131547e+01
  -1.388107e+01  -1.254100e-01
  -4.102006e+01   2.624306e+01
  -6.000105e+01   7.515675e+00
   6.189926e+00  -2.613486e+01
   4.035779e+01  -1.993415e+01
  -4.864895e+01   8.964404e-01
  -1.026920e+02  -1.144719e+01
  -2.857557e+01  -6.332577e+01
   1.172383e+02  -1.314339e+02
   1.864440e+02  -7.722280e+01
   1.813747e+02   9.533171e+00
   7.230756e+01   1.163949e+02
  -6.138314e+01   1.384684e+02
  -9.074557e+01   6.505551e+01
  -7.907284e+01  -5.044047e+00
   8.368336e-01  -4.603272e+01
   4.870650e+01   2.060588e+00
   2.531345e+00   1.230373e+01
  -2.527180e+01  -6.977221e+00
  -4.035903e+01  -6.931298e+01
   5.904994e+00  -1.053299e+02
   6.803103e+01  -3.100599e+01
   1.207990e+02   1.122552e+02
   5.469172e+00   1.152964e+02
  -7.334506e+01   5.222499e+01
  -1.073011e+02  -4.933628e+01
  -3.132411e+01  -1.244974e+02
   5.786528e+01  -3.293831e+01
   1.271991e+02   5.954755e+00
   2.678604e+01   7.187048e+01
  -5.608533e+01   9.773957e+01
  -4.078053e+01   1.381900e+01
   1.562155e+01  -2.630177e+01
   6.493899e+01  -3.348496e+01
   2.101918e+01   1.122911e+01
  -7.330376e+01   1.111160e+02
  -9.625173e+01   1.008271e+02
  -4.610695e+01  -1.396291e+01
  -2.676656e+01  -8.116372e+01
   1.472187e+01  -5.459708e+01
   1.889866e+01   1.885222e+00
  -1.425058e+01   5.770489e+01
  -1.285080e+01   2.959044e+01
  -4.186792e+01  -4.234776e+01
  -3.227808e+01  -4.389182e+01
   6.071368e+00  -1.269348e+01
   2.806144e+01  -5.257750e+00
   1.166065e+01  -5.982040e+00
   6.558579e+01  -3.076275e+01
   2.234624e+01  -3.335864e+01
   2.386826e-01  -5.437028e-01
  -1.967970e+01   2.817781e+01
  -1.816020e+01   6.450606e+01
  -8.219159e+01  -2.220454e+01
  -4.408027e+01  -3.151045e+00
  -4.799398e+00  -8.688399e+01
   3.360449e+01  -1.628427e+01
   7.066349e+01   3.710652e+01
   2.497366e+00   5.927970e+01
  -4.911858e+01   7.649493e+01
  -8.296530e+01  -2.539204e+01
  -6.681870e+01  -9.266135e+01
   5.222862e+01  -6.708417e+01
   7.637034e+01  -7.437042e+00
   3.862597e+01  -1.543332e+01
  -3.483285e+01   3.483886e+01
  -3.493031e+01   2.327437e+01
  -2.245900e+01  -1.778879e+01
   7.494886e+01  -1.939732e+01
