
 $NMID
 id='ANONYMOUS ', fmtdat='(2E16.6)'
 volume=1.0
 tramp=1.0
 $END
  -2.906809e+03  -3.792914e+02
  -2.020753e+03  -1.312058e+03
  -8.129640e+01  -1.975552e+03
   1.230261e+03  -1.211326e+03
   9.034383e+02  -2.823256e+02
   8.930843e+01   9.192412e+01
  -2.151415e+02  -1.119393e+02
   9.251850e+01  -5.632109e+02
   4.724458e+02  -5.132149e+02
   5.993768e+02  -1.586017e+02
   3.680686e+02   4.476355e+02
  -4.713262e+01   6.752935e+02
  -2.499565e+02   1.498281e+02
  -2.209551e+02  -4.429529e+02
   1.007072e+02  -5.500758e+02
   3.610802e+02  -3.904251e+01
   3.486118e+02   4.890804e+02
  -1.220386e+02   5.041805e+02
  -4.389523e+02   1.511091e+02
  -3.293208e+02  -2.136605e+02
  -1.646442e+02  -3.286041e+02
   1.027199e+02  -2.702401e+02
   7.362359e+01  -6.225586e+01
  -1.554059e+02  -1.530608e+02
  -2.513413e+02  -2.217878e+02
  -4.890586e+01  -2.723841e+02
   4.610301e+02  -7.316174e+01
   4.872884e+02   1.731615e+02
   1.490949e+02   2.691751e+02
  -3.054636e+02   1.378874e+02
  -4.849864e+02  -1.553081e+02
  -1.685348e+02  -3.472934e+02
   2.738661e+02  -3.543920e+02
   4.180825e+02  -1.209883e+02
   2.856641e+02   1.499887e+02
   2.096560e+01   2.434550e+02
  -1.996653e+01   1.330129e+02
   1.094509e+02  -7.524440e+01
   1.478637e+02  -1.009304e+02
   1.289011e+02   1.160570e+02
  -2.439280e+01   4.673854e+02
  -2.185986e+02   3.650012e+02
  -2.646774e+02   6.598169e+01
  -1.103824e+02  -2.534216e+02
   1.170760e+02  -1.146374e+02
   1.260810e+02   2.048557e+02
  -1.282154e+02   3.008487e+02
  -3.866965e+02  -1.525528e+01
  -3.711589e+02  -3.288128e+02
  -9.345957e+01  -3.927472e+02
   3.000137e+02  -2.117602e+02
   5.031350e+02   4.987675e+01
   3.226815e+02   2.322888e+02
  -1.972639e+01   1.925320e+02
  -2.974366e+02   1.066858e+02
  -1.806336e+02   2.708605e+01
  -4.781572e+01  -1.016642e+01
   4.150486e+01   6.903061e+01
  -4.846797e+01   4.318410e+01
  -2.032466e+02  -1.927452e+01
  -1.397624e+02  -1.499576e+02
   1.136834e+02  -2.415793e+02
   2.750022e+02  -1.529051e+02
   2.149574e+02   2.137370e+01
  -8.399849e+00   2.376916e+02
  -2.746628e+02   2.546103e+02
  -3.373423e+02   1.533157e+02
  -1.517545e+02  -1.413742e+02
  -5.877179e+01  -2.642103e+02
   2.799223e+01  -3.340881e+02
   2.818957e+01  -1.453042e+02
   5.935032e+01  -8.770940e+01
   1.342686e+02  -1.173806e+02
   2.243500e+02  -4.235481e+01
   1.694080e+02   1.177145e+02
   5.987036e+01   2.346350e+02
  -6.504226e+01   1.621000e+02
  -1.048284e+02  -6.124221e+01
  -1.045976e+02  -1.939775e+02
   6.848382e+01  -1.709659e+02
   1.844532e+02  -1.428415e+01
   2.447684e+02   1.114131e+02
   1.396796e+02   2.208461e+02
  -7.849248e+01   1.804962e+02
  -1.182335e+02   1.504429e+02
  -1.193903e+02   7.920740e+01
  -1.345096e+02   1.113289e+02
  -2.321210e+02   3.297525e+01
  -3.205095e+02  -1.113000e+02
  -2.684236e+02  -2.699269e+02
   3.044308e+01  -3.946663e+02
   3.570938e+02  -3.360878e+02
   4.797986e+02  -1.681530e+02
   2.762844e+02   6.842255e+01
   3.272033e+01   2.247591e+02
  -6.502816e+01   1.960000e+02
  -1.170869e+01   4.293361e+01
   9.986564e+01   1.624589e+01
   1.115814e+02   1.632710e+01
  -4.893821e+01   1.069085e+02
  -8.812487e+01   7.016829e+01
  -9.652110e+01  -1.915394e+01
  -2.519828e+01  -9.048847e+01
   8.534890e+01   1.721527e+01
   1.113777e+02   1.439548e+02
   3.968580e+01   2.882100e+02
  -2.000817e+02   1.876708e+02
  -2.912174e+02  -7.569183e+01
  -2.456578e+02  -2.824557e+02
  -4.550027e+01  -2.451240e+02
   1.145038e+02  -1.281086e+02
   1.227244e+02   5.558845e-01
   2.067612e+00   5.874948e+00
  -4.237689e+01  -2.313391e+01
   2.511154e+01  -1.059273e+02
   1.128959e+02  -8.258408e+01
   1.106166e+02   8.096897e+01
   1.114766e+01   3.465474e+01
  -7.837645e+01   1.715609e+01
  -7.974181e+00  -1.035714e+02
   1.748719e+02  -1.289292e+02
   2.989318e+02   5.639710e+01
   2.350863e+02   1.761866e+02
   1.115784e+01   2.462677e+02
  -1.946932e+02   1.853174e+02
  -2.405762e+02   5.581978e+01
  -9.744613e+01  -6.019922e+01
   3.749539e+01  -5.400034e+01
   9.459081e+01   3.371585e+01
  -4.352150e+01   8.265574e+01
  -1.664204e+02   6.262472e+01
  -1.917297e+02  -1.407301e+02
  -9.077854e+01  -1.610201e+02
   6.815798e+01  -1.181909e+02
   1.691166e+02  -1.765263e+01
   6.495003e+01   1.856189e+01
  -1.368691e+01  -9.325377e+00
  -2.363348e+01  -1.080178e+02
   6.944016e+01  -1.181166e+02
   1.872107e+02   1.794051e+01
   1.864192e+02   1.247650e+02
  -3.392947e+01   1.933330e+02
  -1.479578e+02   1.266753e+02
  -1.601048e+02  -3.648862e+00
  -4.602501e+01  -5.587208e+01
   6.162316e+00  -1.097952e+02
   5.433030e+01  -5.477963e+01
   9.212144e-01   1.250385e+01
  -7.671079e+00   2.232129e+01
  -3.111740e+01   3.172218e+01
   5.389760e+01   5.222057e+00
   5.037091e+01   8.049497e+01
  -7.279724e+00   1.453425e+02
  -9.454615e+01   1.254508e+02
  -1.903008e+02  -3.262870e+01
  -1.861739e+02  -1.534169e+02
  -4.673096e+01  -1.826330e+02
   5.436630e+01  -9.961716e+01
   8.193416e+01  -3.533566e+01
   9.796160e+01   6.638836e+01
   1.133329e+01  -1.026307e+01
   9.731632e+01  -6.648582e+01
   7.396815e+01  -3.406584e+01
   6.153401e+01   6.813850e+01
  -6.298044e+01   6.094027e+01
  -6.180353e+01   6.218581e+01
  -5.988435e+01  -5.232762e+01
  -7.052548e+00  -8.200177e+01
   1.634383e+02  -6.451408e+01
   2.135870e+02   9.769058e+01
   5.411194e+01   1.578656e+02
  -1.324914e+02   2.050638e+02
  -2.534026e+02   5.269617e+01
  -2.009342e+02  -6.306674e+01
  -7.134051e+01  -1.221638e+02
   3.565994e+01  -1.125123e+02
   9.863655e+01  -8.563260e+01
   5.473226e+01  -7.583378e+01
   5.864554e+00  -1.013349e+02
   8.625393e+01  -7.942619e+01
   1.319485e+02  -3.866479e+01
   1.021502e+02   1.266379e+02
   2.719448e+01   1.678127e+02
  -5.362717e+01   1.150653e+02
  -1.405385e+02  -1.635200e+00
  -1.383841e+02  -1.479703e+02
  -4.421925e+01  -1.509709e+02
   7.624961e+01  -8.457431e+01
   4.925009e+01   2.208221e+01
  -2.115399e+01   4.318604e+01
  -4.988957e+01  -1.258745e+01
   2.558201e+01  -3.851434e+00
   4.572503e+01  -1.546982e+01
   5.387104e+01   1.250635e+01
  -6.200420e+01   5.485873e+01
  -1.422888e+02  -1.227460e+01
  -1.531171e+02  -7.035435e+01
  -2.023708e+00  -8.039113e+01
   1.464578e+02  -7.608155e+01
   1.412737e+02  -1.504567e+01
   2.981365e+01   3.552191e+01
  -7.244590e+01   5.182791e+01
  -7.577038e+01  -3.528679e+01
  -3.987471e+01  -6.504536e+01
   9.349923e+00  -5.581660e+01
   5.298883e+01  -6.493556e+01
   7.459339e+01   6.870790e+01
   2.588355e+01   8.519130e+01
  -1.509865e+01   3.751295e+00
   5.753009e+01  -2.964169e+01
   5.431307e+01   5.783463e+01
  -3.667343e+01   1.380646e+02
  -1.041956e+02   1.111344e+02
  -9.483472e+01   9.013531e+00
  -1.142212e+02  -9.614867e+01
   1.903432e+01  -1.241455e+02
   7.703482e+01  -5.767485e+01
   6.877479e+01   3.394118e+01
  -4.135354e+01   4.640976e+00
  -1.560254e+02  -5.302786e+01
  -7.376010e+01  -1.016710e+02
   8.349579e+01  -1.262029e+02
   1.903790e+02  -1.672892e+01
   1.585476e+02   1.238109e+01
   1.978052e+00   1.001971e+02
  -3.311107e+01   5.411866e+01
  -6.875112e+01  -1.309752e+01
   5.452936e+01  -7.045640e+00
   1.008749e+02  -1.035319e+01
   3.607732e+01   1.039110e+02
  -7.737461e+01   1.042276e+02
  -1.304907e+02   8.602400e+01
  -7.340911e+01  -4.018042e+01
   3.259560e+01  -1.387126e+02
   7.444300e+01  -1.313636e+02
   1.054240e+02   2.878454e+01
   8.456284e+01   1.518464e+02
   1.012406e+01   6.581765e+01
  -8.831670e+00   5.259783e+00
  -3.090642e+01  -5.701611e+01
   2.647629e+01   3.820856e+00
  -2.941158e+01  -2.778667e+00
  -6.555906e+01   2.202503e+01
  -3.205183e+01  -7.976929e+01
  -2.354574e+01  -1.215234e+02
   3.240691e+01  -5.195071e+01
   1.411653e+02   2.818992e+01
   1.281090e+02   9.259412e+01
   4.426253e+01   4.722978e+01
  -3.795380e+01   2.062410e+01
  -4.717556e+01   3.503553e+01
  -2.665821e+01  -2.228351e+00
   5.892409e+00  -5.188659e+01
   4.939175e+01   3.460315e+01
   5.424926e-01   3.172425e+01
  -4.333536e+01   1.873987e+01
   4.221064e+01  -3.114195e+01
   7.895327e+01   4.199435e+01
   6.155298e+01   9.845230e+01
  -6.017061e+01   1.309708e+02
  -1.608326e+02   7.587905e+01
  -1.328572e+02  -2.549916e+01
  -1.519187e+01  -1.526489e+02
   6.932659e+01  -1.477444e+02
   1.264135e+02  -9.057447e+01
   5.905287e+01   1.650581e+01
   3.496022e+01   5.369513e+01
  -2.352603e+01  -5.689982e+00
   3.781256e+01  -2.293787e+01
   4.702406e+01   1.224783e+01
   1.451040e+01   1.054054e+02
  -1.029857e+01   5.476877e+01
  -1.031379e+02  -6.915358e+01
  -4.811228e+01  -1.362246e+02
   2.169555e+01  -1.135613e+02
   3.601163e+01  -2.639146e+01
   1.184639e+02   2.431846e+01
   8.452735e+01   6.844349e+01
  -3.437993e+00   2.346616e+01
  -1.111100e+02  -1.277089e+01
  -1.193249e+01  -6.152192e+01
   6.531988e+01  -6.441003e+01
   1.829258e+01  -1.690505e+01
  -2.128975e+01   7.304189e+01
  -4.784612e+01  -1.456788e+00
  -2.600906e+01  -3.227620e+00
   2.671614e+01  -6.731960e+01
   1.229724e+02  -6.151029e+01
   8.767955e+01  -4.105043e+00
   3.310647e+01   5.614803e+01
  -5.858240e+01   6.316708e+01
  -2.375276e+00   6.642888e+00
   8.584393e+00  -4.757502e+01
  -3.343543e+01  -7.846623e+01
   1.175378e+01   1.166237e+01
   3.329786e+01   1.765817e+01
   5.251968e+01   1.156056e+01
  -2.501320e+01  -5.995250e+01
  -5.904310e+01  -5.364090e+00
  -4.434480e+01  -2.131161e+01
   3.877437e+01  -5.869660e+00
  -1.878242e+01   6.077724e+01
  -6.255854e+00  -3.420833e+01
  -5.369909e+01  -6.106598e+01
   4.464466e+01  -3.582430e+01
   4.030687e+01   3.847561e+01
  -2.070697e+00   5.935240e+00
  -4.842868e+01   8.417502e+00
  -1.012191e+02  -5.398503e+01
  -2.358995e+01  -4.956938e+01
   7.674374e+01  -2.837134e+01
   1.009484e+02   4.293586e+01
   6.841946e+01   1.104138e+01
  -5.631372e+01   5.661873e+01
  -9.157264e+01  -4.381469e+00
  -5.416414e+01  -7.902353e+00
   1.947500e+01  -7.877419e+01
   5.668270e+01  -1.591963e+01
  -4.427451e+01   1.476431e-01
  -4.221035e+01   4.568507e+01
