
 $NMID
 id='ANONYMOUS ', fmtdat='(2E16.6)'
 volume=1.0
 tramp=1.0
 $END
  -4.830299e+03  -6.376804e+01
  -2.745571e+03  -2.915461e+03
   7.932040e+02  -3.072899e+03
   2.376428e+03  -9.464880e+02
   1.090449e+03   6.747614e+02
  -6.946550e+02   6.411235e+02
  -1.132046e+03  -4.323025e+02
   9.531074e+01  -1.151884e+03
   9.887020e+02  -9.803272e+02
   1.128945e+03   1.608460e+02
   4.831841e+02   8.952816e+02
  -2.154608e+02   1.076150e+03
  -6.884685e+02   9.777283e+01
  -4.023435e+02  -8.174877e+02
   3.383275e+02  -7.469142e+02
   6.735172e+02   8.097573e+00
   2.851946e+02   6.419079e+02
  -3.638473e+02   5.766357e+02
  -5.876060e+02   4.998788e+01
  -4.538593e+02  -4.918027e+02
   8.552192e+01  -5.007765e+02
   2.160167e+02  -3.687371e+02
   2.191831e+02  -5.777047e+01
  -5.577318e+01   1.319106e+01
  -4.371837e+02  -1.111211e+02
  -2.178475e+02  -4.390707e+02
   4.629696e+02  -4.459736e+02
   9.190281e+02   1.047142e+02
   4.919368e+02   5.333523e+02
  -3.626448e+02   5.227006e+02
  -7.751538e+02   3.477355e+01
  -3.341882e+02  -5.419686e+02
   3.273981e+02  -5.676165e+02
   5.534644e+02  -2.885027e+02
   3.751602e+02   2.481322e+02
   7.839628e+01   5.087141e+02
  -1.973438e+02   2.004429e+02
  -2.088432e+02  -2.479440e+02
   1.774841e+02  -4.507033e+02
   4.780999e+02   3.342266e+01
   3.294197e+02   7.588064e+02
  -2.695230e+02   7.610166e+02
  -6.567620e+02   2.146906e+01
  -2.934389e+02  -6.142006e+02
   3.268086e+02  -3.370497e+02
   4.694198e+02   3.469381e+02
  -1.103351e+02   5.917595e+02
  -5.836955e+02   1.391915e+02
  -6.359505e+02  -4.905230e+02
  -1.796984e+02  -6.247402e+02
   4.317578e+02  -3.500945e+02
   6.658411e+02   5.996319e+01
   3.887041e+02   3.844519e+02
  -1.285132e+02   3.614645e+02
  -5.207616e+02   2.934503e+01
  -2.943156e+02  -2.010409e+02
   1.397477e+02  -1.128740e+02
   1.452492e+02   1.494287e+02
  -1.992141e+02   1.858530e+02
  -3.525651e+02  -1.052965e+02
  -1.349495e+02  -3.292648e+02
   2.357709e+02  -2.408944e+02
   3.507222e+02  -2.484590e+01
   1.836968e+02   1.465350e+02
  -5.346459e+01   2.216874e+02
  -2.365794e+02   2.754218e+02
  -2.871538e+02   2.190131e+02
  -2.989129e+02  -1.044903e+02
  -9.916205e+01  -4.284949e+02
   9.819700e+01  -3.730808e+02
   1.071238e+02  -1.135499e+02
   4.306861e+01   1.230393e+01
   3.494904e+01  -1.023876e+02
   1.961716e+02  -1.482611e+02
   2.482399e+02   7.127795e+01
   1.725351e+02   2.730917e+02
  -5.118488e+01   2.535256e+02
  -1.937223e+02   5.286569e+01
  -1.813253e+02  -1.570190e+02
  -3.065412e+01  -2.871524e+02
   2.098066e+02  -1.620400e+02
   3.512487e+02   1.201233e+02
   1.854148e+02   3.377277e+02
  -8.886766e+01   3.215891e+02
  -2.332811e+02   1.493954e+02
  -1.824493e+02   6.554459e+01
  -1.498118e+02   2.563219e+01
  -2.227763e+02   5.781373e+01
  -4.116549e+02   2.212029e+00
  -3.249948e+02  -3.198090e+02
   1.679725e+01  -4.480761e+02
   3.002533e+02  -4.291452e+02
   4.451528e+02  -1.960414e+02
   3.118349e+02   1.020641e+02
   9.654812e+01   2.558047e+02
  -1.139572e+02   2.416110e+02
  -1.250035e+02   7.405882e+01
   8.984992e+01  -1.129633e+02
   1.968113e+02  -1.390721e+00
   9.059792e+01   2.210146e+02
  -1.365921e+02   2.189610e+02
  -2.278877e+02  -8.008920e+01
  -2.525033e+01  -2.387501e+02
   1.839192e+02  -1.984200e+01
   1.469000e+02   2.420637e+02
  -4.818962e+01   3.266701e+02
  -2.327370e+02   1.675175e+02
  -2.931151e+02  -6.946045e+01
  -1.875976e+02  -2.608019e+02
  -5.495760e+01  -2.733362e+02
   1.318986e+02  -1.562081e+02
   1.472544e+02  -2.056733e+01
   6.645685e+01   2.325011e+01
  -6.185283e+01  -2.451834e+01
  -2.596593e+01  -1.022163e+02
   1.475833e+02  -8.559385e+01
   1.852676e+02   2.183699e+01
   3.131926e+01   1.244153e+02
  -1.034790e+02   1.864804e+01
  -5.532126e+01  -5.917791e+01
   8.641503e+01  -8.692965e+01
   2.625765e+02   3.301052e+01
   2.360806e+02   9.328467e+01
   9.591786e+01   2.222299e+02
  -1.826346e+02   2.631765e+02
  -3.190221e+02   1.689326e+02
  -1.807059e+02  -1.233849e+01
   3.707445e+01  -1.230226e+02
   1.253872e+02  -2.728719e+01
   1.769609e+00   1.015087e+02
  -1.376618e+02   1.172688e+02
  -2.390314e+02  -2.986309e+01
  -7.272356e+01  -1.738639e+02
   2.671049e+01  -1.889282e+02
   1.545027e+02  -7.249440e+01
  -1.004129e+01   6.452933e+01
  -5.384770e+01  -1.557347e+01
  -5.642110e+01  -8.983164e+01
   1.036748e+02  -1.408590e+02
   1.763996e+02   1.829086e+01
   1.772348e+02   1.041037e+02
   3.611823e+01   1.538612e+02
  -1.345091e+02   1.365871e+02
  -1.852469e+02   7.047798e+01
  -7.682338e+01  -1.310064e+02
   4.040272e+01  -1.285866e+02
   4.220208e+01  -3.765145e+01
   4.191432e+01   1.002449e+00
   8.195971e-01   5.329847e+01
   3.707341e+01  -2.328371e+01
   3.100957e+01   1.810797e+01
   6.440133e+01   2.669152e+01
   1.903563e+01   1.273557e+02
  -1.086496e+02   1.425437e+02
  -2.133322e+02   9.395950e+00
  -1.602964e+02  -1.504439e+02
  -4.907078e+01  -2.331029e+02
   1.102294e+02  -1.512088e+02
   1.807870e+02  -1.415314e+01
   8.387918e+01   4.155704e+01
   4.597086e+01   7.364024e+01
   4.055091e+01  -1.188533e+01
   3.734459e+01  -2.020236e+01
   3.432828e+01   9.604717e+01
  -7.065792e+01   7.006497e+01
  -7.606018e+01  -8.547216e-01
  -9.114342e+01  -4.394141e+01
  -3.036434e+01  -9.011540e+01
   1.247628e+02  -1.094624e+02
   2.065144e+02   5.376390e+01
   7.925504e+01   1.740891e+02
  -7.846653e+01   2.380831e+02
  -2.678619e+02   1.279500e+02
  -2.844345e+02  -1.076819e+02
  -9.912093e+01  -1.597093e+02
   5.448771e+01  -1.445995e+02
   8.051334e+01  -1.265478e+02
   6.830065e+01  -9.442413e+01
   6.713154e+01  -1.596804e+02
   7.664724e+01  -4.749059e+01
   1.181348e+02   5.141446e+01
   1.388408e+02   1.807819e+02
   8.933716e+01   2.266645e+02
  -9.727120e+01   1.527229e+02
  -1.546807e+02  -2.831880e+00
  -1.311076e+02  -1.312905e+02
  -2.224835e+01  -1.884857e+02
   9.870191e+01  -9.287432e+01
   7.054740e+01   7.419000e+00
  -7.142670e+00   7.015419e+01
  -4.564182e+01   1.337765e+01
  -2.604292e+01   1.511532e+01
   6.190056e+01   1.980879e+01
   3.218043e+01   8.814711e+01
  -6.243908e+01   4.502684e+01
  -1.341172e+02   1.927152e+01
  -1.309777e+02  -9.636615e+01
  -1.771752e+01  -9.799975e+01
   1.133738e+02  -1.189401e+02
   1.365308e+02  -2.219208e+01
   2.623324e+01   3.656011e+01
  -6.118862e+01   4.575275e+01
  -5.062309e+01  -1.721849e+01
  -3.065011e+00  -6.674949e+01
   4.103832e+01  -7.352506e+01
   4.579583e+01  -9.153785e+00
   1.922913e+01   5.331975e+01
   1.839828e+01   8.565858e+01
   4.500735e+01   2.996722e+01
   3.474806e+01  -4.538752e+00
   2.266430e+01   4.078770e+01
  -1.902467e+01   1.206834e+02
  -8.726220e+01   1.531999e+02
  -1.664282e+02  -6.668879e-01
  -1.564769e+02  -1.287093e+02
   1.015888e+00  -1.463554e+02
   8.544328e+01  -7.509184e+01
   1.065136e+02   6.519156e+01
  -9.937042e+01   9.929965e+00
  -1.878858e+02  -6.369769e+01
  -6.047554e+01  -1.375427e+02
   7.749193e+01  -1.184683e+02
   2.192843e+02  -1.036034e+02
   2.194091e+02   4.275841e+01
   5.491210e+01   9.694286e+01
  -4.669276e+01   1.178348e+02
  -1.007223e+02   1.520895e+01
   2.243383e+01  -2.138696e+01
   9.117149e+01  -6.361774e+00
   4.709465e+01   1.199899e+02
  -1.215390e+02   1.644997e+02
  -1.501672e+02   6.432277e+01
  -1.379691e+02  -6.044174e+01
  -1.435330e+01  -1.990238e+02
   9.898108e+01  -1.713317e+02
   1.057413e+02   1.361704e+01
   4.511756e+01   1.108512e+02
  -4.725642e+01   1.106791e+02
  -5.648533e+01  -1.213828e+01
  -4.503086e+01  -7.275229e+01
  -3.039094e+01  -2.846896e+00
   3.343821e+01   3.322008e+01
  -1.734781e+01  -3.266350e+01
  -4.808021e+01  -8.945732e+01
  -5.842996e+01  -9.036638e+01
   5.476852e+01   9.041560e+00
   1.574089e+02   5.760061e+01
   1.159518e+02   1.260534e+02
  -4.033801e+01   1.113243e+02
  -1.008784e+02  -3.074091e+01
  -9.730913e+01  -7.327464e+00
   1.015546e+01  -8.868689e+00
   5.554155e+01  -5.653497e+01
   2.949071e+01  -3.698025e+01
  -1.917471e+00   3.135963e+01
  -4.202459e+01   1.819939e+01
   4.823486e+01  -4.055406e+01
   1.090469e+02  -2.158900e+01
   1.149650e+01   1.015283e+02
  -1.006404e+02   9.855136e+01
  -1.262781e+02   1.055540e+01
  -1.562599e+02  -2.127522e+01
  -4.155606e+00  -1.443119e+02
   4.621963e+01  -1.830115e+02
   9.035865e+01  -2.859988e+01
   1.211582e+02   4.109566e+01
   4.404515e+01   2.709118e+01
   1.150919e+00   1.626953e+01
   1.183719e+01   1.704147e+01
   3.354928e+01   2.517664e+01
   3.506161e+01   2.198535e+01
  -4.331563e+01   8.175480e+01
  -6.723188e+01   7.608546e+00
  -8.611016e+01  -6.874645e+01
  -7.551355e+00  -1.114416e+02
   8.448666e+01  -3.037534e+01
   9.697470e+01   1.201926e+02
   6.533975e+01   6.872643e+01
  -6.205038e+01   4.011254e+01
  -9.606306e+01  -2.272255e+01
  -3.745563e+01  -1.981846e+01
   7.174624e+01  -3.649664e+01
   3.742821e+01  -3.249935e+00
   2.651806e+00  -8.279629e+00
  -7.994727e+01   5.344377e+00
  -5.457143e+01  -3.005866e+01
   1.140985e+02  -9.929497e+01
   1.137502e+02  -6.114038e+01
   7.070337e+01   2.216011e+01
  -1.571569e+01   1.138984e+02
  -5.971347e+01   1.525635e+02
  -5.482546e+01   1.248347e+01
  -4.895025e+00  -7.682295e+01
  -1.609381e+01  -4.727183e+01
   4.196312e+01   6.293300e+01
  -8.579686e-01   7.649888e+01
   6.010269e+00   1.905604e+01
  -3.981748e+01   7.408246e+00
  -8.185134e+01  -2.241820e+01
  -6.363309e+01   8.787166e+00
  -3.063175e+01   2.837869e+01
   2.285485e+01  -1.458105e+01
   6.314345e+01  -9.691630e+00
  -3.456660e+01  -4.814075e+01
  -5.464628e+00  -4.902271e+01
   2.604087e+01   1.958721e+01
   1.729217e+01   7.799527e+01
  -4.902812e+01   3.610737e+00
  -2.345243e+01  -6.779675e+01
  -1.119910e+01  -6.103386e+01
   5.457462e+01  -3.033991e+01
   7.657490e+01   8.698045e+00
   5.033206e+01   4.803455e+01
  -2.871179e+01   7.294721e+01
  -5.956843e+01   4.046350e+01
  -3.552851e+01   1.100803e+01
  -1.933751e+01  -1.165263e+01
   8.104524e+01  -2.865415e+01
  -2.073669e+01   3.238441e+01
  -6.312663e+01  -6.984751e+00
