
 $NMID
 id='ANONYMOUS ', fmtdat='(2E16.6)'
 volume=1.0
 tramp=1.0
 $END
  -5.171533e+03  -3.333691e+02
  -3.039356e+03  -2.838337e+03
   6.841078e+02  -3.352531e+03
   2.480289e+03  -1.181498e+03
   1.084314e+03   7.261493e+02
  -6.696399e+02   5.964291e+02
  -1.020962e+03  -5.664851e+02
   1.517022e+00  -1.185347e+03
   9.439472e+02  -8.303852e+02
   1.036199e+03   7.539635e+01
   5.179791e+02   8.624826e+02
  -1.728292e+02   1.009967e+03
  -7.434177e+02   2.179054e+02
  -4.439090e+02  -8.158277e+02
   2.479445e+02  -8.550960e+02
   7.132503e+02  -9.318499e+01
   3.237366e+02   6.983928e+02
  -3.602986e+02   5.674848e+02
  -5.845474e+02   9.491822e+01
  -4.070656e+02  -3.247960e+02
   2.907246e+01  -5.610816e+02
   2.336873e+02  -2.657715e+02
   2.335261e+02  -1.144985e+02
  -1.532040e+02   1.795810e+02
  -4.233107e+02  -8.612500e+01
  -2.318385e+02  -4.932750e+02
   5.778625e+02  -5.154043e+02
   9.615657e+02   9.682417e+01
   4.655742e+02   5.879916e+02
  -3.682702e+02   5.159374e+02
  -7.749809e+02  -4.992073e+01
  -3.778605e+02  -4.758091e+02
   2.987853e+02  -5.452900e+02
   5.725178e+02  -2.086587e+02
   4.787025e+02   1.931904e+02
   9.829021e+01   5.586260e+02
  -2.138894e+02   3.012163e+02
  -2.520270e+02  -1.866901e+02
   1.042413e+02  -4.639288e+02
   4.888930e+02  -4.760229e-01
   2.975513e+02   6.989725e+02
  -2.693881e+02   8.292358e+02
  -6.999999e+02   6.649041e+01
  -3.452130e+02  -5.504216e+02
   3.000626e+02  -4.033287e+02
   4.750828e+02   3.319777e+02
  -4.387407e+01   5.868118e+02
  -6.207808e+02   1.972042e+02
  -6.801851e+02  -4.341172e+02
  -2.026898e+02  -6.569720e+02
   4.135631e+02  -4.118686e+02
   6.758233e+02   5.061144e+01
   4.379278e+02   3.886114e+02
  -1.392308e+02   4.142023e+02
  -5.053845e+02   7.787638e+01
  -2.860416e+02  -2.048444e+02
   1.273494e+02  -9.926181e+01
   1.761570e+02   1.128244e+02
  -1.915235e+02   2.134749e+02
  -4.028592e+02  -2.040793e+01
  -2.320733e+02  -3.030213e+02
   1.925905e+02  -3.209408e+02
   3.773933e+02  -6.024600e+01
   2.624323e+02   1.796431e+01
  -1.902743e+01   2.473306e+02
  -1.955966e+02   3.241516e+02
  -3.823556e+02   2.498928e+02
  -3.354059e+02  -6.490749e+01
  -9.453890e+01  -5.014282e+02
   1.015284e+02  -4.155133e+02
   7.928684e+01  -1.216641e+02
   5.305676e+01  -1.603761e+00
  -6.105834e+00  -1.077069e+02
   1.466850e+02  -1.478175e+02
   2.886844e+02   5.821533e+01
   2.144683e+02   2.408149e+02
  -2.462264e+01   3.090641e+02
  -1.991660e+02   3.816102e+01
  -2.097898e+02  -2.147438e+02
  -3.941892e+01  -2.806383e+02
   2.864127e+02  -1.159254e+02
   3.507507e+02   2.279053e+02
   1.491090e+02   3.977277e+02
  -1.114163e+02   3.186245e+02
  -2.344711e+02   1.830363e+02
  -1.663113e+02   7.597261e+01
  -8.540790e+01   2.278220e+01
  -2.254103e+02   6.727024e+01
  -4.602973e+02  -1.106162e+02
  -3.746477e+02  -3.303458e+02
  -6.605218e+01  -4.791756e+02
   4.097925e+02  -4.667802e+02
   5.224443e+02  -2.171257e+02
   3.488255e+02   7.734239e+01
   5.304024e+01   3.025679e+02
  -7.910387e+01   2.764759e+02
  -7.410871e+01   7.503769e+01
   1.119189e+02  -1.660928e+02
   1.740403e+02  -4.290251e+00
   4.843543e+01   1.980625e+02
  -1.786309e+02   1.844069e+02
  -1.463911e+02  -8.062167e+00
   3.727411e+01  -1.486859e+02
   2.691234e+02  -5.002854e+01
   1.807271e+02   3.063906e+02
   5.961886e+00   3.775062e+02
  -2.351316e+02   2.148619e+02
  -3.234474e+02  -6.472059e+01
  -3.108048e+02  -2.657639e+02
  -8.319574e+01  -2.995498e+02
   1.266341e+02  -1.742489e+02
   1.840038e+02  -3.564102e+01
   9.928019e+01  -8.793067e+00
  -5.632488e+01  -1.171426e+02
  -3.302704e+01  -1.722097e+02
   1.208155e+02  -8.629638e+01
   2.174155e+02   3.347370e+01
   7.321424e+01   7.681983e+01
  -7.959822e+01   4.550027e+01
  -5.165017e+01  -7.574365e+01
   9.788392e+01  -5.039388e+01
   2.593428e+02   8.742999e+00
   2.585641e+02   1.074308e+02
   4.198742e+01   2.834927e+02
  -1.909051e+02   2.512947e+02
  -3.145372e+02   9.692353e+01
  -1.401864e+02  -5.845030e+01
   1.983983e+01  -1.798969e+02
   1.229702e+02   9.446052e-01
  -7.491160e+01   1.229373e+02
  -1.824627e+02   1.233393e+02
  -2.216322e+02  -1.171108e+02
  -6.444058e+01  -2.488455e+02
   7.818669e+01  -1.707903e+02
   1.761831e+02   9.762566e+00
   4.348265e+01   2.071771e+01
  -5.019186e+01  -4.617565e+01
  -8.373927e+01  -9.221347e+01
   1.077297e+02  -1.239171e+02
   2.420532e+02   3.108878e-01
   2.146886e+02   1.369415e+02
   3.997099e+01   2.679019e+02
  -1.691600e+02   2.321087e+02
  -2.042061e+02  -1.808940e+01
  -7.341156e+01  -1.393844e+02
   8.184752e+01  -1.185886e+02
   5.424157e+01  -3.792748e+00
   7.122348e+01   1.620473e+01
  -3.846229e+00   2.911534e+00
  -9.268026e-02  -1.313437e+01
   1.109704e+02   2.129834e+01
   1.279320e+02   1.101042e+02
  -9.916314e+00   1.901243e+02
  -1.545537e+02   1.624713e+02
  -2.648320e+02   2.192191e+01
  -2.271248e+02  -1.311884e+02
  -2.357928e+01  -2.227490e+02
   1.099385e+02  -1.849304e+02
   1.117473e+02  -5.743610e+01
   5.127182e+01   4.591842e+01
   2.750232e+01   2.291745e+01
   2.787455e+01  -2.715211e+01
   5.427740e+01  -2.762883e+01
   4.453035e+01   8.529682e+01
  -7.543803e+01   1.079342e+02
  -7.685562e+01   7.854021e+01
  -1.157809e+02  -5.985200e+01
   5.814444e+00  -1.258440e+02
   1.698501e+02  -8.634216e+01
   1.910269e+02   2.576105e+01
   6.299324e+01   2.059945e+02
  -8.107012e+01   2.098325e+02
  -2.522007e+02   8.668877e+01
  -2.333067e+02  -9.785093e+01
  -7.851476e+01  -1.657469e+02
   3.840786e+01  -2.065388e+02
   7.380636e+01  -8.565681e+01
   5.155004e+01  -7.316578e+01
   8.515625e+01  -4.400062e+01
   8.848272e+01  -9.119391e+01
   1.379042e+02  -1.024502e+01
   1.637884e+02   1.335313e+02
   6.451523e+01   2.129237e+02
  -9.700512e+01   2.198582e+02
  -1.705486e+02   1.052393e+01
  -1.522703e+02  -1.018662e+02
  -2.635418e+01  -1.486019e+02
   3.989547e+01  -1.076582e+02
   3.245051e+01  -8.185965e+00
  -4.871162e+01   5.159955e+01
  -4.318628e+01   4.573935e+01
   4.368701e+01  -1.489360e+00
   1.211030e+02  -2.801042e+01
   7.980338e+01   6.353975e+01
   2.208138e+01   2.815049e+01
  -1.270708e+02   1.766497e+01
  -1.427343e+02   1.366392e+01
  -4.272913e+01  -6.821212e+01
   1.042473e+02  -3.688730e+01
   1.182806e+02   4.161403e+00
   3.399385e+01   1.557821e+01
  -1.207838e+02   4.244711e+00
  -9.201630e+01  -3.733116e+01
  -2.010618e+01  -1.209199e+02
   1.006480e+02  -5.871086e+01
   1.048077e+02   1.143479e+01
   6.739798e+01   7.196909e+01
   5.767390e+01   1.032313e+02
   8.497978e+01   2.883558e+01
   4.284537e+01  -7.703680e+00
   2.275123e+01   5.702572e+01
  -8.905760e+00   1.810165e+02
  -1.046257e+02   1.778628e+02
  -1.393718e+02   4.838201e+01
  -1.437248e+02  -7.125064e+01
  -4.906059e+00  -1.645351e+02
   8.451527e+01  -5.606895e+01
   1.038956e+02   2.117311e+01
  -4.887896e+01   2.756136e+01
  -1.566156e+02  -1.082760e+02
  -9.853283e+01  -2.026069e+02
   5.676506e+01  -1.730195e+02
   2.295001e+02  -1.041109e+02
   2.230662e+02  -7.763421e+00
  -7.601060e+00   6.162737e+01
  -6.289673e+01   1.208544e+02
  -5.842789e+01   8.519614e+00
   3.762949e+01  -4.052451e+01
   1.643871e+02   2.057004e+01
   3.154119e+01   1.911488e+02
  -1.322704e+02   1.847757e+02
  -2.246532e+02   5.729777e+01
  -1.425862e+02  -1.514582e+02
  -1.532958e+01  -2.163046e+02
   1.253043e+02  -2.037574e+02
   1.583010e+02  -2.054526e+01
   6.821901e+01   1.020322e+02
   5.156052e+01   9.147316e+01
  -3.047971e+01   5.832523e+01
  -3.538486e+01   3.250259e+01
   5.598147e+00   7.231955e+00
  -9.776030e+00   2.863632e+01
   4.452405e+01  -3.434255e+01
  -1.819918e+01  -9.425062e+01
  -7.403216e+01  -1.212207e+02
   3.964858e+01  -3.239461e+01
   1.203800e+02   1.664886e+01
   7.972419e+01   3.357859e+01
   5.232178e+01   7.559194e+01
  -4.131523e+01  -4.269570e+00
  -7.742708e+01  -1.172965e+01
  -6.926357e+01  -1.971894e+00
   1.372114e+01  -2.952724e+01
   1.940188e+01  -2.551667e+01
  -1.488561e+01  -2.515370e+01
   2.331248e+01  -9.381313e+00
   8.918249e+01   3.223625e+01
   4.309354e+01   2.102991e+01
  -6.165013e+00   9.384297e+01
  -1.479143e+02   1.656684e+02
  -2.292449e+02   5.531247e+01
  -1.735737e+02  -6.432089e+01
  -3.382486e+01  -1.986635e+02
   9.414838e+01  -1.789107e+02
   1.179421e+02  -8.418548e+01
   3.068851e+01   4.899047e+01
  -9.298290e+00   7.374047e+01
  -2.306673e+01  -1.494692e+01
   5.869351e+01  -3.904375e+01
   6.891463e+01  -6.487086e+00
   3.903113e+01   7.639749e+01
  -5.715527e+01   8.953736e+01
  -8.443548e+01   2.856319e+01
  -1.033479e+02  -7.469493e+01
  -9.528759e+00  -1.739164e+02
   6.052407e+01  -4.295313e+01
   6.848420e+01   6.928496e+01
   2.405375e+01   9.806515e+01
  -1.055308e+02   7.674432e+01
  -1.425088e+02  -1.310642e+01
  -4.344466e+01  -8.765107e+01
   1.880060e+01  -7.923899e+01
   7.799911e+01  -2.902172e+01
  -1.408771e+01  -2.791232e+01
  -8.243236e+01  -3.520264e+01
  -9.208583e+00  -2.232050e+01
   1.026610e+02  -4.130975e+01
   7.672798e+01  -6.813526e+01
   4.169555e+01   5.991162e+01
  -9.017005e+01   1.119413e+02
  -9.105239e+01   1.082468e+02
  -4.391882e+01  -1.282822e+01
   1.310912e+01  -8.371571e+01
  -1.683206e+01  -3.279744e+01
   2.216691e+01   1.758790e+01
  -1.056028e+01   8.715322e+01
  -1.861284e+01   2.643482e+01
  -3.524254e+01   7.239283e+00
  -7.262385e+00  -5.343016e+01
  -6.479566e+01  -3.823001e+01
  -1.751964e+00   2.459341e+01
   2.212176e+01   2.390715e+01
   1.977117e+01  -1.009586e+01
   4.692186e+01  -4.630564e+01
   5.662496e+01  -2.883415e+01
   2.982473e+01   4.213960e+01
  -3.391758e+01   5.292977e+01
  -5.434942e+01   2.330024e+01
  -4.057606e+01  -3.634312e+01
  -3.681809e+00  -1.096111e+02
   1.074092e+02  -1.133163e+02
   9.460686e+01  -1.557645e+00
   7.642472e+01   3.101111e+01
  -7.659310e+01   3.848721e+01
  -7.656923e+01  -5.583126e+00
  -1.514533e+01  -3.579156e+01
   3.075644e+01  -7.916010e+01
   4.358980e+01   6.135716e+01
   6.117452e+00   9.464321e+01
  -1.150939e+02   6.564617e+01
