
 $NMID
 id='ANONYMOUS ', fmtdat='(2E16.6)'
 volume=1.0
 tramp=1.0
 $END
   4.131360e+03   1.314345e+02
   2.506108e+03   2.454883e+03
  -7.511569e+02   2.554652e+03
  -2.161799e+03   8.112843e+02
  -9.695578e+02  -7.686128e+02
   7.057271e+02  -5.412401e+02
   8.482318e+02   4.726850e+02
   1.158177e+02   1.036029e+03
  -7.681027e+02   7.596201e+02
  -8.834612e+02  -9.163448e+01
  -4.230749e+02  -8.413762e+02
   2.664117e+02  -8.446294e+02
   6.556670e+02  -1.488396e+02
   4.748346e+02   6.650423e+02
  -2.005269e+02   7.212959e+02
  -4.999301e+02  -1.369570e+02
  -2.787425e+02  -6.989858e+02
   2.522434e+02  -5.791439e+02
   6.890539e+02  -3.661980e+01
   3.922656e+02   3.511664e+02
  -2.757069e+01   4.162500e+02
  -2.061085e+02   1.819195e+02
  -1.520208e+02   3.128493e+01
   8.593571e+01  -1.335684e+02
   4.529197e+02   6.075949e+01
   1.746062e+02   4.666393e+02
  -4.113735e+02   4.561378e+02
  -9.635788e+02  -2.956064e+01
  -4.682971e+02  -4.417172e+02
   3.706020e+02  -4.365516e+02
   6.825408e+02  -2.610009e-01
   3.509504e+02   4.173156e+02
  -2.742646e+02   5.049191e+02
  -5.377235e+02   2.043448e+02
  -3.296855e+02  -2.204346e+02
  -6.504006e+01  -4.355662e+02
   1.434454e+02  -2.810134e+02
   2.001686e+02   2.148789e+02
  -1.768116e+02   4.645997e+02
  -5.071228e+02   2.586529e+01
  -3.102582e+02  -6.248720e+02
   2.868070e+02  -7.461261e+02
   5.651476e+02  -5.541138e+01
   2.709885e+02   5.209331e+02
  -3.280597e+02   3.776248e+02
  -4.371671e+02  -2.734185e+02
   6.759439e+00  -5.263952e+02
   5.201254e+02  -1.498626e+02
   6.397201e+02   3.671998e+02
   1.991079e+02   5.272357e+02
  -3.775341e+02   3.352538e+02
  -5.995792e+02  -5.637070e+01
  -3.892045e+02  -3.848151e+02
   1.464128e+02  -3.680691e+02
   4.609861e+02  -5.903449e+01
   2.212001e+02   1.727271e+02
  -1.375660e+02   1.139734e+02
  -1.969754e+02  -1.546034e+02
   1.057787e+02  -1.975119e+02
   3.552343e+02   7.402703e+01
   1.713022e+02   2.764806e+02
  -1.807106e+02   2.452229e+02
  -3.337677e+02   2.693696e+01
  -1.739213e+02  -6.781351e+01
   5.452531e+01  -1.909560e+02
   2.161352e+02  -2.920187e+02
   3.338947e+02  -2.164445e+02
   2.649157e+02   1.177625e+02
   5.445651e+01   4.060481e+02
  -1.392082e+02   3.718866e+02
  -1.012927e+02   8.822473e+01
  -2.806761e+01  -4.289756e+01
  -5.737621e+01   8.641952e+01
  -1.955536e+02   1.373660e+02
  -2.597324e+02  -5.597312e+01
  -1.492597e+02  -2.698570e+02
   5.942179e+01  -2.055527e+02
   1.878317e+02  -3.643839e+01
   2.176963e+02   1.877285e+02
  -3.512702e-01   2.561882e+02
  -2.037063e+02   8.230083e+01
  -3.120999e+02  -1.360692e+02
  -1.655824e+02  -3.175420e+02
   1.139536e+02  -2.779933e+02
   2.447934e+02  -8.494513e+01
   1.185995e+02  -2.077958e+01
   4.432118e+01  -7.215971e+01
   1.793866e+02  -6.131400e+01
   3.780340e+02   4.318685e+01
   3.113267e+02   2.596954e+02
   3.391551e+01   4.260797e+02
  -3.163653e+02   3.947620e+02
  -4.196821e+02   2.119126e+02
  -3.583661e+02  -5.262997e+01
  -5.585608e+01  -2.762940e+02
   1.120399e+02  -2.454276e+02
   9.522895e+01  -3.161804e+01
  -9.700754e+01   1.087158e+02
  -2.208739e+02   7.678374e+01
  -2.724664e+01  -2.015584e+02
   1.685862e+02  -1.675106e+02
   1.211093e+02   3.756992e+01
  -2.691345e+01   1.880485e+02
  -1.656725e+02   5.675353e+01
  -1.325613e+02  -2.202735e+02
   2.995042e+01  -3.101258e+02
   2.316794e+02  -2.027713e+02
   2.770284e+02   3.531342e+00
   2.398949e+02   1.834865e+02
   1.472599e+02   2.354261e+02
  -8.967079e+01   1.677893e+02
  -2.075653e+02   3.602883e+01
  -3.643977e+01   9.981083e+00
   8.798883e+01   4.065140e+01
  -2.730484e+00   5.845811e+01
  -9.863040e+01   1.177972e+02
  -1.481024e+02  -5.219702e+00
  -5.223034e+01  -7.529482e+01
   4.895556e+01   1.794112e+00
   7.090857e+01   1.860981e+01
  -2.669032e+01   6.960915e+01
  -2.440502e+02  -1.936555e+01
  -2.926592e+02  -9.708130e+01
  -9.196293e+01  -1.871381e+02
   1.597971e+02  -2.504277e+02
   2.636265e+02  -1.667836e+02
   1.890797e+02   9.887769e+01
  -2.022815e+00   1.333268e+02
  -6.886356e+01   8.405132e+00
   1.568717e+01  -8.517440e+01
   1.787008e+02  -1.069905e+02
   1.933376e+02   5.937036e+01
   3.069921e+01   2.326230e+02
  -1.070400e+02   1.616445e+02
  -1.447261e+02   1.244790e+01
  -3.776775e+01  -1.145034e+02
   3.949908e+01  -4.929608e+01
   2.146886e+01   9.092128e+01
  -3.938549e+01   8.327693e+01
  -1.777574e+02   3.893908e+01
  -1.908547e+02  -1.116475e+02
  -4.387003e+01  -2.086763e+02
   1.236331e+02  -1.419974e+02
   2.234315e+02  -2.007134e+01
   1.209612e+02   1.345135e+02
  -2.905038e+01   1.182087e+02
  -1.077666e+02   8.697582e+00
  -1.878864e+01  -2.763816e+01
   8.846361e+01  -8.794950e+01
  -2.501942e+00  -3.110235e+00
  -5.993424e+01   3.200137e+01
  -7.883405e+01  -4.553082e+01
  -2.100718e+01  -1.297393e+02
   1.615153e+02  -1.716785e+02
   2.851564e+02  -9.094517e+01
   2.180990e+02   1.498301e+02
   7.966323e+01   2.669248e+02
  -9.307025e+01   2.383252e+02
  -1.140363e+02  -7.187528e+00
  -8.467786e+01  -6.120778e+01
  -3.933964e+01  -6.446501e+01
  -6.243063e+01  -7.893077e+00
  -7.150713e+01   2.319520e+01
  -4.176034e+01  -1.203944e+02
   2.841136e+01  -1.016947e+02
   1.129577e+02  -8.148969e+01
   9.815595e+01   2.261456e+01
  -3.896982e+00   1.040886e+02
  -7.382236e+01   9.244235e+01
  -1.181361e+02  -5.176110e+01
  -7.676823e+01  -2.226585e+02
   5.302330e+01  -2.389997e+02
   2.609098e+02  -9.205403e+01
   1.871454e+02   7.042476e+01
   1.277386e+02   1.911394e+02
  -3.227443e+01   1.237403e+02
  -7.242588e+01   6.783343e+01
  -1.571776e+01   7.833995e+01
  -9.640981e+01   1.141035e+02
  -1.360430e+02   1.249321e+02
  -1.676468e+02   8.728405e+00
  -1.139191e+02  -1.709811e+02
  -5.800606e+01  -2.368843e+02
   8.072380e+01  -1.885822e+02
   2.345354e+02  -8.132255e+01
   9.093466e+01   9.534925e+01
   1.208269e+01   1.567274e+02
  -5.770766e+01   1.107789e+02
  -3.284717e+01  -1.823812e+01
  -1.614385e+01  -5.104114e+01
  -1.538783e+01  -6.521620e+01
  -2.119018e+01   1.612106e+01
  -7.886297e+01   8.509488e+00
  -8.512722e+00  -4.275118e+01
   6.527078e+01  -9.115116e+01
   9.494625e+01  -3.717115e+01
   1.278817e+02   5.276875e+01
   2.220198e+01   1.287907e+02
  -6.376571e+01   7.969021e+01
  -1.077028e+02   5.990945e+01
  -7.714873e+01  -8.711684e+00
   6.432090e+00  -1.885506e+01
   5.049858e+01   9.677091e+00
   1.453000e+01   2.158445e+01
  -6.610091e+01   9.114108e+01
  -6.167100e+01   4.159505e+01
  -5.505628e+01  -4.228764e+01
  -1.791432e+01  -3.966986e+01
   1.631596e+01   3.240347e+01
  -5.320133e+01  -2.360915e+01
  -2.697069e+01  -4.528346e+01
   2.575761e+01  -9.934893e+01
   8.715351e+01  -1.468422e+02
   7.882055e+01  -5.971545e+01
   1.179583e+02   6.442249e+01
   2.148510e+01   1.250577e+02
  -5.701588e+01   6.263922e+01
  -2.502291e+01  -3.081079e+01
   5.122838e+01  -2.728746e+01
   1.330859e+02  -2.269524e+01
   1.011419e+02   7.994077e+01
  -4.042553e+01   9.054568e+01
  -1.382813e+02   1.150986e+02
  -1.034127e+02  -7.854707e+01
  -4.052515e+00  -6.824388e+01
   4.034103e+01  -6.955709e+01
   2.430615e+01   1.132032e+01
  -5.233328e+01   3.120146e+01
  -1.074342e+02   1.319611e+01
  -5.185859e+01  -1.381015e+02
   7.385357e+01  -1.125396e+02
   9.818482e+01  -3.240287e+01
   5.536357e+01   1.201066e+02
  -3.852708e+01   1.292623e+02
  -8.782120e+01   1.290378e+02
  -1.399523e+02  -1.680831e+01
  -5.235266e+01  -1.527606e+02
  -2.445271e+01  -8.112076e+01
   4.685320e+01  -2.864764e+01
   5.800200e+01   6.256292e+00
   2.503452e+01  -1.068759e+01
   4.146443e+01  -5.551949e+01
   2.127187e+01   9.514736e-01
   9.397200e+01   5.229961e+01
   4.558425e+01   5.882623e+01
  -3.165864e+01   8.989754e+01
  -1.637742e+02  -1.353690e+01
  -1.383309e+02  -5.118027e+01
  -2.956955e+01  -9.139257e+01
   8.730512e+01  -3.148853e+01
   6.562178e+01   1.495877e+01
  -6.968491e+00   4.076425e+01
  -8.208577e+01   5.400482e+01
  -9.880595e+00   3.480644e+01
   6.233346e+01  -2.088004e+01
  -3.092166e+01  -1.534871e+01
  -5.281221e+01   4.606158e+00
  -5.914418e+01  -2.519986e+01
  -8.532150e+00  -3.802809e+01
   4.253285e+01  -1.054170e+02
   1.421455e+02  -9.817905e+01
   1.610041e+02   6.204292e+01
   8.163469e+01   1.471139e+02
  -7.516525e+01   1.949149e+02
  -1.093101e+02   8.622525e+01
  -7.127033e+01  -4.002987e+01
  -3.621514e+01  -2.918494e+01
   2.940860e+01   8.535167e+00
  -4.292689e+00   6.246762e+01
  -2.807671e+01  -6.807986e+01
  -2.271789e+01  -3.141107e+01
   2.748032e+01  -5.884889e+01
   1.065606e+02  -5.697590e+00
   9.110307e+01   5.938853e+01
   3.068716e+01   1.278655e+02
  -1.116948e+02   5.478517e+01
  -1.145456e+02  -8.029720e+01
  -2.517897e+01  -1.118321e+02
   7.710144e+01  -6.982814e+01
   1.217600e+02  -3.333251e+00
   7.333292e+01   3.173955e+01
   1.555596e+00   5.486988e+01
  -6.521093e+01   4.502218e+01
   6.147660e+00   4.885673e+00
  -3.933946e-01  -1.148404e+01
  -3.682129e+00   2.948214e+01
  -1.230957e+02   5.148366e+01
  -8.727235e+01   2.919967e+01
  -7.660748e+01  -3.160076e+01
  -2.432109e+00  -9.651956e+01
   7.890505e+01  -3.914479e+01
   7.370905e+01   2.701717e+01
  -8.205246e+00   7.355127e+01
   2.239378e+01   1.745484e+01
   1.347718e+01   6.259992e+00
   3.434432e+01  -2.095176e+01
   2.524083e+00  -3.806037e+01
   4.748258e+01   2.236486e+01
   5.636297e+01   3.996804e+01
   6.531203e+01  -8.971775e-01
  -1.817007e+01  -8.761947e+00
  -5.875396e+01  -1.419450e+01
  -3.128253e+01   3.755857e+01
   2.941983e+01   3.921277e+01
  -3.601445e+00   2.361540e+01
  -2.897382e+01  -4.264048e+01
   2.003715e+01  -5.411332e+01
  -2.983604e+01  -2.142831e+01
   2.179813e+01   4.313295e+01
   1.677257e+01   6.204513e+01
  -3.587677e+01   3.300982e+01
  -6.080581e+01  -1.645693e+01
  -1.066258e+01  -2.507205e+01
   7.467808e+01  -9.412412e+00
   5.184089e+01   1.797500e+01
  -1.111610e+01   2.147123e+01
  -5.065301e+01   2.338366e+01
  -6.986615e+01  -3.284521e+01
   6.093521e+01  -6.931473e+01
   1.111757e+02  -3.344639e+01
