
 $NMID
 id='ANONYMOUS ', fmtdat='(2E16.6)'
 volume=1.0
 tramp=1.0
 $END
   3.586218e+03   4.049619e+02
   2.412580e+03   1.702314e+03
   1.185293e+02   2.300071e+03
  -1.464104e+03   1.521745e+03
  -9.750162e+02   1.617862e+02
   2.350785e+01  -2.885496e+02
   4.431655e+02   1.748642e+02
   4.725770e+01   6.574307e+02
  -4.403615e+02   6.818292e+02
  -6.320451e+02   1.605600e+02
  -4.551461e+02  -5.643378e+02
   1.473610e+01  -7.596618e+02
   2.645964e+02  -2.857641e+02
   2.858456e+02   4.542770e+02
  -8.040534e+01   6.853159e+02
  -4.792650e+02   5.420621e+01
  -4.021308e+02  -5.661325e+02
   1.455467e+02  -6.544027e+02
   4.772666e+02  -2.791775e+02
   4.127987e+02   2.086229e+02
   1.913146e+02   4.472691e+02
  -9.020997e+00   3.057696e+02
  -3.747571e+01   1.198658e+02
   7.971212e+01   6.777010e+01
   2.018401e+02   2.512073e+02
  -5.578292e+01   3.709391e+02
  -4.931604e+02   1.801781e+02
  -6.023135e+02  -1.231848e+02
  -3.388633e+02  -3.446998e+02
   3.043580e+02  -2.359262e+02
   5.115057e+02   6.182245e+01
   1.855909e+02   3.785902e+02
  -2.075894e+02   3.463995e+02
  -3.991296e+02   1.496954e+02
  -3.041177e+02  -1.273147e+02
  -1.445736e+02  -3.082279e+02
   3.405587e+01  -2.224074e+02
   2.745984e+01   1.046494e+02
  -1.379627e+02   2.408614e+02
  -1.828706e+02  -1.957693e+01
  -1.247707e+02  -4.819836e+02
   2.480078e+02  -5.035470e+02
   3.760135e+02  -6.135736e+01
   2.303710e+02   3.285092e+02
  -1.725866e+02   1.555794e+02
  -2.295536e+02  -2.898490e+02
   1.326915e+02  -4.330937e+02
   4.994118e+02  -9.731825e+01
   5.158816e+02   3.871047e+02
   1.804407e+02   5.190648e+02
  -2.766139e+02   2.537191e+02
  -5.588603e+02  -1.029550e+02
  -3.462384e+02  -2.509548e+02
   7.127151e+01  -2.711189e+02
   3.880990e+02  -5.837842e+01
   2.611779e+02   5.740256e+01
   1.671028e+00   7.700153e+01
  -5.282986e+01  -8.940357e+01
   8.149043e+01  -1.060830e+02
   3.211444e+02   7.417411e+01
   1.352268e+02   2.348280e+02
  -1.352462e+02   3.035287e+02
  -3.412888e+02   1.543560e+02
  -1.808149e+02  -8.724092e+01
   7.249063e+01  -3.515102e+02
   2.974356e+02  -3.928778e+02
   3.564013e+02  -1.725491e+02
   2.641079e+02   1.718785e+02
   5.796263e+01   3.686679e+02
   8.416768e+00   3.530989e+02
  -3.466340e+01   1.938620e+02
  -6.808016e+01   6.115570e+01
  -2.024932e+02   6.735806e+01
  -2.825423e+02   8.480603e+01
  -2.250504e+02  -1.252035e+02
  -1.250675e+02  -2.238884e+02
   1.043116e+02  -1.502664e+02
   1.593032e+02   7.459313e+01
   1.055247e+02   2.643222e+02
   2.485408e+01   2.503548e+02
  -2.487474e+02   7.042473e+01
  -3.675579e+02  -9.440233e+01
  -2.362099e+02  -3.099481e+02
   4.377035e+01  -2.214756e+02
   2.239864e+02  -1.610318e+02
   2.107678e+02  -4.275317e+01
   1.743360e+02  -7.091544e+01
   2.913832e+02  -3.435271e+01
   4.085597e+02   1.168244e+02
   3.244701e+02   3.624468e+02
   7.872781e+00   4.916924e+02
  -4.078036e+02   4.175322e+02
  -5.253077e+02   2.307785e+02
  -2.688168e+02  -6.876100e+01
  -4.464185e+01  -2.239466e+02
   1.025183e+02  -1.666669e+02
   2.254863e+01  -4.100068e+01
  -1.042307e+02   5.033320e+01
  -1.547946e+02   3.149122e+01
   1.558943e+01  -1.502927e+02
   9.485305e+01  -1.000994e+02
   9.076286e+01   5.813607e+01
  -7.159267e+01   2.184874e+02
  -1.963052e+02   2.883946e+01
  -1.821520e+02  -2.436309e+02
  -5.956756e+01  -3.364018e+02
   2.307307e+02  -2.423610e+02
   3.285959e+02   2.894522e+01
   3.170715e+02   2.820969e+02
   7.746288e+01   2.873843e+02
  -1.289771e+02   1.818725e+02
  -2.216983e+02   2.433728e+01
  -5.093154e+01  -3.236539e+01
   9.204368e+01   1.163472e+02
   3.014691e+01   7.375214e+01
  -1.195597e+02   8.178775e+01
  -1.752517e+02  -6.344325e+01
  -6.300622e+01  -8.154093e+01
   1.060243e+02   2.464622e-01
   4.223252e+01   1.046633e+02
  -1.445288e+02   1.330310e+02
  -2.931094e+02  -5.577621e+00
  -3.067083e+02  -1.343009e+02
   3.288676e+00  -2.625672e+02
   1.474917e+02  -2.805000e+02
   2.760016e+02  -1.723199e+02
   1.402761e+02   2.196011e+01
   3.166715e+00   9.039087e+01
  -5.898059e+01  -2.591875e+00
   4.079171e+01  -9.906550e+01
   2.102428e+02  -3.464629e+01
   2.269626e+02   8.732273e+01
   7.076555e+01   1.359421e+02
  -5.126205e+01   1.378285e+02
  -9.415219e+01   4.169691e+01
  -4.462429e+01   1.132615e+01
   6.336664e+00   2.561662e+01
   5.978788e+01   1.076804e+02
  -8.360087e+01   8.574993e+01
  -1.820857e+02   3.004227e+01
  -2.146901e+02  -1.388431e+02
  -1.644861e+01  -1.965656e+02
   1.435099e+02  -1.459827e+02
   1.753896e+02   3.839098e+01
   7.766446e+01   1.171213e+02
  -6.575565e+01   1.407461e+02
  -7.223931e+01  -1.402349e+01
  -3.637644e+01  -4.560707e+01
   3.157551e+01  -2.734806e+01
   6.228920e-01   1.747292e+00
  -8.322322e+01  -1.498724e+01
  -9.210646e+01  -1.263154e+02
   2.459406e+01  -1.608596e+02
   1.787145e+02  -1.782730e+02
   3.402881e+02  -2.488113e+01
   1.964075e+02   1.570474e+02
   1.165011e+01   2.997160e+02
  -1.265167e+02   1.541613e+02
  -1.300030e+02  -2.694800e+00
  -7.403450e+01  -6.897121e+01
  -7.923422e+00  -1.396687e+01
  -7.450604e+01  -1.366145e+01
  -7.022904e+01   1.712866e+01
  -6.568057e+01  -7.123560e+01
   5.916202e+01  -1.140439e+02
   1.410305e+02  -4.971218e+01
   8.187498e+01   7.272292e+01
   1.222350e+00   1.749208e+02
  -1.608232e+02   1.122761e+02
  -2.282154e+02  -1.014199e+02
  -1.535719e+02  -2.249903e+02
   1.966547e+02  -2.416830e+02
   2.765334e+02  -4.426799e+01
   3.153152e+02   1.822047e+02
   1.199379e+02   1.417046e+02
  -2.154445e+00   1.432882e+02
  -9.310723e+01   1.455041e+02
  -7.710111e+01   1.180865e+02
  -7.238361e+01   1.013906e+02
  -9.282944e+01   4.421886e+01
  -1.337824e+02  -6.928198e+01
  -1.405348e+02  -1.689796e+02
   6.283179e-01  -2.406021e+02
   1.297263e+02  -2.166025e+02
   2.086196e+02   1.851930e-01
   1.250057e+02   1.670167e+02
  -8.625087e+00   1.950205e+02
  -3.850581e+01   1.244903e+02
  -7.824513e+01  -2.162024e+01
   1.885080e+01  -8.440206e+01
   7.395226e+00  -5.295161e+01
   1.551488e+01   1.159633e+01
  -7.804992e+01   2.477558e+01
  -6.723567e+01   9.762127e+00
   4.452061e+01  -8.890567e+00
   1.131382e+02   2.154657e+00
   1.215752e+02   4.410614e+01
   1.589223e+01   6.862313e+01
  -1.564031e+02   7.264022e+01
  -1.650606e+02   1.569565e+01
  -4.693969e+01  -6.212250e+01
  -1.365167e-01  -5.311309e+01
   8.543284e+01   8.223931e+00
   6.106109e+01   2.106823e+01
  -7.532164e+01   7.894847e+01
  -1.004143e+02  -4.666426e+01
  -5.733987e+01  -6.891719e+01
  -1.090110e+01  -5.516422e+01
  -6.255615e+01   6.062190e+00
  -9.334380e+01  -2.286464e+01
  -9.979533e+01  -9.491583e+01
   2.446671e+01  -2.063701e+02
   1.355932e+02  -1.658485e+02
   2.025361e+02  -6.252365e+01
   1.391865e+02   1.058405e+02
  -1.953257e+01   1.880985e+02
  -1.195370e+02   5.000177e+01
  -5.000463e+01  -3.850923e+00
  -5.167976e+00  -5.323394e+01
   1.092375e+02   1.170769e+01
   5.829873e+01   1.396108e+02
  -5.265323e+01   1.099070e+02
  -1.365534e+02   4.980766e+01
  -1.550146e+02  -1.859711e+01
  -7.922257e+01  -6.049353e+01
   2.895839e+01  -3.999683e+01
   4.366865e+01   5.627617e+00
  -1.214907e+01  -2.431568e+01
  -1.052750e+02  -3.762891e+01
  -8.317434e+00  -1.535693e+02
   1.105609e+02  -1.446761e+02
   2.047279e+02  -7.676466e+01
   1.281466e+02   6.797319e+01
  -4.023770e+01   2.307692e+02
  -6.542110e+01   1.102352e+02
  -1.292266e+02  -2.609494e+01
  -4.227035e+01  -1.264408e+02
   3.069935e+01  -1.031663e+02
   4.465424e+01   1.471900e+01
   5.052609e+01   5.621858e+01
   3.793247e+00   2.785002e+01
  -2.351432e+00   9.987714e+00
  -5.229299e-01   3.265061e+01
   5.393830e+01   1.250452e+02
   8.629126e+01   1.147925e+02
  -3.874727e+01   4.135935e+01
  -1.073462e+02   1.356200e+01
  -1.592554e+02  -1.093581e+02
  -7.542319e+01  -5.190520e+01
   7.595093e+01  -4.640950e+01
   3.241735e+01   4.682458e+00
   5.004267e+01  -1.157418e+01
   1.267962e+01   2.687015e+00
   2.762936e+01   3.711981e+01
   6.352696e+00   2.508170e+00
  -2.929929e+01   2.268157e+01
  -6.623974e+01   5.990576e+00
  -9.650716e+01  -1.529465e+01
  -1.134696e+01  -7.866758e+01
   1.149806e+02  -9.397573e+01
   1.810352e+02  -4.108846e+01
   1.836145e+02   5.549354e+01
   4.158505e+01   1.364267e+02
  -6.733005e+01   1.328151e+02
  -1.171900e+02   5.120901e+01
  -1.299288e+02   2.295902e+00
  -3.314929e+01  -2.713410e+01
  -4.809301e+00  -3.462342e+01
   1.644832e+00  -1.965369e+01
   3.209467e+01  -5.436862e+01
  -2.437977e+01  -9.423806e+01
   2.105268e+01  -8.720214e+01
   6.941638e+01   1.405683e+01
   5.846910e+01   1.143407e+02
  -1.629066e+01   1.048440e+02
  -9.132411e+01   3.112863e+01
  -8.071287e+01  -5.149050e+01
  -3.330112e+01  -1.201707e+02
   4.779310e+01  -6.262896e+01
   7.668979e+01  -6.481386e+00
   5.838831e+01   7.913250e+01
   9.523533e+00   3.983179e+01
  -5.701578e+01   4.199412e+01
   4.496922e+01   3.204407e+00
   5.114993e+01   3.023305e+01
   2.131392e+01   5.232575e+01
  -6.494421e+01   1.144520e+02
  -1.517389e+02   6.065291e+01
  -9.042435e+01  -2.584117e+01
   9.431342e+00  -1.226372e+02
   3.695882e+01  -9.276290e+01
   8.950936e+01  -4.290658e+01
  -1.162013e+01   5.351999e+01
  -4.544948e+01   5.648850e+01
  -6.599955e+00  -2.153135e+01
  -1.076080e+01  -7.876566e+01
   1.656141e+01  -3.361329e+01
   3.389793e+01   1.896796e+00
   1.531038e+01   3.066577e+01
   3.788124e+01   4.154189e+00
   1.190848e-01   5.774040e+00
   1.343861e+01   2.595551e+00
   4.356547e-01   5.217876e+01
  -3.368027e+01   3.669579e+01
  -8.392579e+01   3.167736e+01
  -3.573035e+01  -6.429242e+00
  -3.278888e+01  -8.018831e+01
   5.682447e+01  -2.513610e+01
   6.030494e+01   2.098044e+01
   3.192812e+01   6.782021e+01
  -4.662252e+01   2.926893e+01
  -7.793089e+01  -7.053351e+00
  -6.864553e+01  -2.513688e+01
   3.985073e+01  -9.265083e+01
   6.044731e+01   3.668400e+01
   7.859916e+01  -2.973894e+01
   3.167530e+00  -5.219493e-01
  -1.061116e+01  -9.402893e+00
   1.027396e+01  -5.194935e+01
   6.889408e+01  -3.339012e+00
