
 $NMID
 id='ANONYMOUS ', fmtdat='(2E16.6)'
 volume=1.0
 tramp=1.0
 $END
  -2.339847e+03   1.785922e+02
  -1.469324e+03  -1.466736e+03
   4.478842e+02  -1.514229e+03
   1.201756e+03  -4.056234e+02
   3.089142e+02   2.885391e+02
  -4.320609e+02   2.350403e+02
  -4.291082e+02  -3.569192e+02
   6.223560e+01  -5.987167e+02
   4.564069e+02  -3.988025e+02
   5.068083e+02   5.412148e+01
   2.428084e+02   4.494893e+02
  -1.648447e+02   4.738816e+02
  -3.706306e+02   1.350740e+01
  -2.278884e+02  -4.119410e+02
   1.707543e+02  -4.781860e+02
   3.266567e+02   3.854450e+01
   2.962007e+00   3.900357e+02
  -2.335964e+02   3.661448e+02
  -2.928688e+02   8.709775e+01
  -2.226459e+02  -1.728818e+02
  -1.623970e+01  -3.352738e+02
   1.257763e+02  -8.952116e+01
   1.121241e+02  -4.342153e+01
  -1.058690e+02   1.979612e+01
  -2.559971e+02  -6.203076e+01
  -1.089672e+02  -2.729655e+02
   2.406422e+02  -2.861374e+02
   4.817744e+02   3.116247e+01
   2.803875e+02   2.958075e+02
  -2.489309e+02   2.249751e+02
  -4.556475e+02  -6.069022e+01
  -1.738480e+02  -2.945442e+02
   1.211687e+02  -3.198328e+02
   2.889688e+02  -5.739408e+01
   2.201475e+02   1.292793e+02
   5.596809e+01   3.047301e+02
  -1.139827e+02   1.441244e+02
  -1.296414e+02  -1.574570e+02
   7.915357e+01  -2.719142e+02
   2.405266e+02   1.006418e+01
   1.635528e+02   4.279954e+02
  -1.984487e+02   4.317996e+02
  -4.212039e+02  -2.769177e+01
  -1.246202e+02  -3.159283e+02
   1.733161e+02  -2.062691e+02
   2.153573e+02   2.209426e+02
  -2.396483e+01   2.958532e+02
  -3.013469e+02   7.861467e+01
  -2.560707e+02  -2.090836e+02
  -8.783335e+01  -2.680061e+02
   1.781948e+02  -1.687755e+02
   3.046987e+02   5.429913e+01
   1.941017e+02   1.495744e+02
  -2.452457e+01   2.078242e+02
  -2.187511e+02   1.103969e+02
  -1.466487e+02  -4.405533e+01
   7.074426e+01  -4.263119e+01
   5.148142e+01   1.129459e+02
  -8.938994e+01   9.534400e+01
  -1.985964e+02  -4.944736e+01
  -8.237302e+01  -1.932603e+02
   7.748628e+01  -1.642689e+02
   2.029508e+02  -1.624423e+01
   8.827597e+01   5.105858e+01
  -5.132697e+01   1.389356e+02
  -1.106206e+02   1.335609e+02
  -1.602305e+02   1.209312e+02
  -1.913846e+02  -1.041736e+02
  -6.554218e+01  -2.629141e+02
   8.272683e+01  -2.307470e+02
   7.957367e+01  -5.543385e+01
   1.682752e+01   2.960569e+01
   5.514101e+01  -4.017226e+01
   1.013146e+02  -8.054183e+01
   1.311488e+02   2.344162e+01
   1.273437e+02   1.156314e+02
  -7.679241e+01   1.466127e+02
  -1.335615e+02  -1.747332e+01
  -9.552928e+01  -1.665147e+02
   1.013890e+01  -1.306103e+02
   1.576157e+02  -4.838042e+01
   1.871110e+02   1.484642e+02
   6.560058e+01   2.017997e+02
  -7.106497e+01   1.663074e+02
  -1.317865e+02   7.704470e+01
  -6.631835e+01  -1.211369e+01
  -6.164791e+01   6.011341e+01
  -1.280314e+02   3.371242e+00
  -2.196316e+02  -7.065853e+01
  -1.722588e+02  -1.348797e+02
  -2.953117e+00  -2.424837e+02
   2.069549e+02  -2.111912e+02
   2.551840e+02  -1.358787e+02
   1.866261e+02   6.204215e+01
   2.275296e+01   1.759928e+02
  -3.600549e+01   1.576828e+02
  -3.066965e+01  -1.227461e+01
   5.980005e+01  -7.733712e+01
   1.333508e+02   4.384029e+01
   2.110444e+01   1.313844e+02
  -5.635292e+01   9.169599e+01
  -1.066028e+02   1.528426e-01
  -1.615265e+01  -1.094463e+02
   7.273556e+01  -2.516147e+01
   4.462939e+01   1.360317e+02
  -5.318578e+01   1.746822e+02
  -1.282865e+02   1.080456e+02
  -1.759730e+02  -2.092759e+01
  -1.767029e+02  -1.045244e+02
  -8.392406e+01  -1.977381e+02
   9.342770e+01  -1.352292e+02
   9.303431e+01  -5.030337e+01
   5.370580e+01   4.176431e+00
  -2.837312e+01  -6.896263e+01
  -2.585140e+01  -7.746117e+01
   6.276473e+01  -4.449572e+01
   9.185035e+01   2.392760e+01
   9.064293e+01   2.510203e+01
  -1.340196e+01   1.569525e+01
  -1.653745e+01   4.453080e+00
   8.802211e+01  -8.765201e-01
   1.232925e+02  -5.740627e+01
   1.139060e+02   8.782871e+00
   6.038827e+01   1.065523e+02
  -7.627363e+01   1.508391e+02
  -1.408464e+02   6.730849e+01
  -8.178813e+01  -5.605846e+01
  -1.165690e+01  -6.155390e+01
   6.135586e+01  -4.324768e+01
   8.126141e+00   6.780341e+01
  -9.385437e+01   2.697700e+01
  -1.102116e+02  -5.306438e+01
  -1.035571e+02  -1.137368e+02
   6.210569e+01  -6.841937e+01
   9.324555e+01  -6.175709e+01
   7.333613e+01   4.647783e+00
   2.145550e+01  -1.017120e+01
  -4.831444e+01  -5.967703e+01
   1.149381e+01  -5.085007e+01
   1.003550e+02  -1.107505e+01
   1.505988e+02   6.127584e+01
  -1.026682e+01   1.260607e+02
  -1.287517e+02   1.051337e+02
  -1.142245e+02  -1.150522e+01
  -1.581594e+01  -5.893642e+01
   4.435288e+01  -5.906943e+01
   4.002218e+01   2.269298e+01
  -3.030891e+01   7.611611e+00
  -3.260510e+00  -2.964775e+01
   1.114762e+01  -1.469494e+01
   8.171492e+01   3.539986e+01
   4.169101e+01   6.085209e+01
   1.554102e+01   6.443996e+01
  -6.653338e+01   7.860458e+01
  -1.254485e+02  -1.978211e+01
  -1.227310e+02  -9.024016e+01
  -1.320778e+01  -1.001279e+02
   1.023073e+02  -9.182766e+01
   7.271898e+01   5.825967e+00
   1.758435e+01   8.090307e+01
  -4.011578e+01   5.576109e+00
   2.819504e+00  -6.281448e+01
   8.136812e+01   2.772757e+00
   2.515355e+01   5.475766e+01
  -3.451591e+01   7.482485e+01
  -3.779473e+01  -6.021949e+00
  -2.592964e+01  -3.092638e+01
  -1.568086e+01  -6.143698e+01
   8.582045e+01  -4.920077e+01
   1.279751e+02  -2.256241e+01
   5.646961e+01   9.991097e+01
  -5.864450e+01   1.418062e+02
  -1.576864e+02   7.777771e+01
  -1.620271e+02  -7.531917e+01
  -6.843260e+01  -1.299919e+02
   3.806311e+01  -6.639318e+01
   3.079477e+01  -7.501907e+01
   1.492269e+01  -1.280203e+01
   3.976958e+01  -9.418843e+01
   7.801806e+01  -1.265575e+01
   8.610097e+01  -2.477846e+00
   5.417282e+01   7.213704e+01
  -2.625261e+01   1.589350e+02
  -4.860530e+01   1.125354e+02
  -4.838298e+01  -9.268231e+00
  -3.672337e+01  -7.900052e+01
   1.955525e+01  -1.285891e+02
   4.059791e+01  -9.717585e+01
   3.896502e+01   2.562052e+01
  -1.484262e+01   8.191018e+01
  -6.525029e+00   2.629860e+01
   1.812685e+01  -8.023533e+00
   4.634964e+01   4.209578e+01
   4.445593e+01   1.263759e+01
  -2.154953e+01   5.153713e+01
  -1.232657e+02   4.766855e+01
  -5.354476e+01  -2.551085e+01
  -3.205908e+01  -5.374144e+01
   7.844086e+01  -2.793415e+01
   1.053681e+02  -1.582842e+01
   5.349254e+01   3.687306e+01
  -2.772718e+01   2.260551e+01
  -8.654863e+01   2.254208e+00
   1.547543e+01  -2.332246e+01
   6.474286e+01  -3.657013e+01
  -4.753804e+00  -1.552378e+00
  -1.138043e+00   1.642462e+01
   1.196932e+00   2.770258e+00
   3.382742e+01  -4.197840e+01
   2.079902e+01  -3.480102e+01
  -2.438364e+01   4.563382e+01
  -6.503493e+01   4.290012e+01
  -5.721123e+01   6.175301e+01
  -4.308192e+01   4.579351e+01
  -9.746582e+01  -3.161075e+01
  -6.066230e+01  -7.924250e+01
   2.101583e+01  -6.200389e+01
   3.372650e+01   1.887687e+01
  -4.618940e+01  -1.283116e+01
  -9.806555e+01  -7.091611e+01
  -6.653614e+01  -1.055375e+02
   8.930713e+01  -4.480802e+01
   1.285552e+02   1.462787e+00
   8.642305e+01   4.027671e+01
   6.144119e+01   4.942124e+01
  -4.554933e+01   1.299951e+01
  -3.096923e+01   3.539032e+01
  -2.422495e+00   2.476821e+01
   7.363663e+01   1.414301e+00
   1.905999e+01   4.815758e+01
  -2.438829e+01   1.193453e+02
  -1.118614e+02   6.368714e+01
  -8.760486e+01  -2.782486e+01
  -2.058354e+01  -9.186705e+01
   3.841776e+01  -7.308907e+01
   3.784639e+01  -3.659201e+01
   4.397395e+01   7.271806e+01
  -1.762206e+00   6.650408e+01
  -6.643110e+01  -1.729487e+00
  -6.642163e+01  -5.078289e-01
  -3.268663e+01   1.595115e+01
  -2.516370e+01  -7.670062e+00
  -3.668988e+01  -1.473817e+01
  -1.464258e+01  -9.042725e+01
  -4.146421e+00  -3.525585e+01
   2.127297e+01  -4.244900e+01
   3.735066e+01   1.414224e+01
   8.763761e+01   1.585627e+01
  -4.934727e+00   3.175292e+01
  -5.679096e+01   2.202841e+01
  -3.813221e+01  -2.064219e+01
   1.005276e+00  -3.240300e+01
   8.924652e+00   1.185618e+01
   2.730489e+01  -8.143851e-01
  -2.351149e+01  -1.294400e+01
   3.087682e+01   5.841194e+00
   5.660260e+01   1.408908e+01
   5.015636e+01   7.536370e+00
  -6.158577e+00   7.904324e+00
  -4.303138e+01   9.522074e+01
  -9.344211e+01   1.117959e+02
  -9.174080e+01  -6.292060e+01
  -2.255164e+01  -1.157218e+02
   7.324967e+01  -7.197810e+01
   9.964560e+01  -5.034507e+01
   9.347152e+00  -1.621235e+01
  -7.929941e+00  -7.561795e+00
   1.575904e+01  -1.479106e+01
   2.418089e+01   1.382726e+01
   3.674286e+01   5.557136e+01
  -2.815871e+01   9.636960e+01
  -1.522073e+01   5.637894e+01
  -4.143529e+01   3.582465e+01
  -2.700598e+01  -8.496118e+01
  -1.976695e+01  -6.278442e+01
   1.564385e+01  -1.923976e+01
   1.118929e+01   4.731066e+01
   9.123071e+00   7.041794e+01
  -3.361811e+01   2.457796e+01
  -4.836855e+01   3.323974e+01
  -1.042950e+01  -2.803616e-01
   3.268882e+01  -1.896095e+01
  -1.122822e+01  -1.368349e+01
  -2.677134e+01   5.065824e+01
  -4.291377e+01   1.453493e+01
  -3.443505e+01  -7.482726e+00
   1.775518e+01  -5.165565e+01
   8.431168e+01  -6.150857e+01
   4.571633e+01   5.165519e+01
  -1.058241e+01   7.776570e+01
  -1.493231e+01   6.554744e+01
   1.218518e+01   4.481118e+00
   3.905253e+01  -4.506580e+01
   1.394061e+01  -1.163966e-02
   4.326427e+01   2.356670e+01
  -1.114941e+01   4.545773e+01
   2.317894e+01   4.128894e+01
  -4.218380e+00  -2.293807e+01
  -9.083315e+00  -5.601750e+01
  -3.218253e+01  -2.272597e+01
  -1.747583e+01  -2.889807e+01
   1.298960e+00  -3.871040e+01
   2.219200e+01  -3.993858e+01
   3.146389e+01   9.625519e+00
   1.713862e+01   7.713665e+00
   1.896305e+01   1.114265e+01
  -8.916404e+00   4.141764e+01
  -3.548093e+01  -1.212799e+01
  -4.024379e+01   7.417951e+00
  -1.618930e+01  -3.084873e+01
   7.626637e+01  -2.864154e+01
   1.782254e+01   4.524147e+01
   1.440267e+01   1.750604e+01
   4.605185e+01  -2.532599e-01
  -1.623430e+01  -1.795308e+01
   5.295059e+00   2.051580e+01
   2.991258e+01  -1.186184e+01
   5.748567e+01  -1.036817e+00
   2.701743e+01   1.695724e+01
   6.743338e+00   4.530275e+01
