
 $NMID
 id='ANONYMOUS ', fmtdat='(2E16.6)'
 volume=1.0
 tramp=1.0
 $END
  -3.195923e+03   1.008017e+02
  -2.298558e+03  -1.868195e+03
   1.232970e+02  -2.467405e+03
   1.603070e+03  -1.144210e+03
   1.037962e+03   1.477949e+02
  -2.259884e+02   3.236832e+02
  -5.250250e+02  -2.101652e+02
  -5.976565e+01  -7.048271e+02
   5.166674e+02  -6.492796e+02
   7.401248e+02  -4.717210e+01
   4.139185e+02   5.973345e+02
  -1.752434e+01   7.036516e+02
  -3.553425e+02   1.101318e+02
  -2.624603e+02  -4.824223e+02
   1.969820e+02  -6.873924e+02
   5.014800e+02  -2.050666e+01
   3.259961e+02   5.170774e+02
  -1.502463e+02   7.402034e+02
  -4.964326e+02   2.300701e+02
  -4.157762e+02  -1.506084e+02
  -1.347059e+02  -3.731278e+02
   1.951556e+02  -2.784488e+02
   9.491589e+01  -7.237692e+01
  -1.854726e+02  -1.766346e+01
  -3.451845e+02  -2.290500e+02
  -1.803264e+01  -4.129065e+02
   5.858415e+02  -2.513094e+02
   6.853400e+02   1.746341e+02
   3.152442e+02   3.908016e+02
  -3.718485e+02   2.472059e+02
  -6.267146e+02  -8.225425e+01
  -2.442961e+02  -3.903618e+02
   2.746068e+02  -3.732408e+02
   4.694956e+02  -2.017356e+02
   3.239107e+02   2.162663e+02
   6.819903e+01   3.651813e+02
  -1.496871e+02   1.777980e+02
  -4.113043e+01  -1.495868e+02
   1.862063e+02  -2.811804e+02
   2.807036e+02   9.571893e+01
   1.583980e+02   5.463201e+02
  -1.970048e+02   5.110820e+02
  -3.748626e+02   3.000912e+01
  -1.570291e+02  -3.438735e+02
   2.085525e+02  -1.956081e+02
   2.346901e+02   2.868313e+02
  -8.739829e+01   4.207362e+02
  -4.362160e+02   8.749735e+01
  -5.021651e+02  -3.459962e+02
  -1.454556e+02  -4.654898e+02
   3.069678e+02  -2.791454e+02
   5.504812e+02   1.158442e+01
   3.495538e+02   2.554630e+02
  -1.257844e+02   2.873985e+02
  -3.474881e+02   1.365371e+02
  -2.560642e+02  -8.874419e+01
   4.981628e+01  -1.283216e+02
   1.283043e+02   5.232188e+01
  -6.643867e+01   7.095832e+01
  -2.858145e+02  -3.012310e+01
  -1.516644e+02  -1.994496e+02
   1.811133e+02  -2.285789e+02
   3.347489e+02  -1.139140e+02
   2.639733e+02   1.308697e+02
  -1.563500e+01   3.357806e+02
  -2.825534e+02   3.928158e+02
  -3.619432e+02   1.731412e+02
  -2.426803e+02  -1.575238e+02
  -9.628274e+01  -3.601507e+02
   4.622527e+01  -3.366255e+02
   3.495173e+01  -1.138307e+02
  -2.710599e+01  -9.300990e+01
   9.240709e+01  -1.201417e+02
   2.310656e+02  -9.155435e+01
   2.495819e+02   7.335720e+01
   1.190774e+02   2.896028e+02
  -1.141917e+02   2.315243e+02
  -2.392046e+02  -6.410903e+01
  -1.715004e+02  -2.676419e+02
   6.268003e+01  -2.639999e+02
   2.835865e+02  -4.068175e+01
   3.290981e+02   2.237540e+02
   2.005920e+02   3.344828e+02
  -9.868866e+01   3.004844e+02
  -2.125941e+02   1.736933e+02
  -1.608583e+02   8.509121e+01
  -7.455537e+01   4.715819e+01
  -2.323072e+02   9.936882e+01
  -3.961031e+02  -7.406302e+01
  -2.996953e+02  -2.969395e+02
   1.784348e+01  -4.325319e+02
   3.598308e+02  -3.737587e+02
   4.961588e+02  -1.830677e+02
   3.129563e+02   1.141051e+02
   3.731001e+01   2.465360e+02
  -8.391990e+01   2.387855e+02
  -8.435487e+01   5.785691e+01
   1.108669e+02  -5.085134e+01
   1.754155e+02   1.718793e+01
   6.401938e+01   1.464457e+02
  -1.278799e+02   1.362432e+02
  -1.151281e+02  -1.231580e+02
   3.801023e+01  -1.998830e+02
   2.153216e+02  -2.072717e+01
   1.531050e+02   2.322019e+02
  -1.206293e+01   3.516521e+02
  -2.237760e+02   1.772842e+02
  -3.349175e+02  -5.461939e+01
  -2.460546e+02  -2.291548e+02
  -7.719140e+01  -2.746896e+02
   8.827751e+01  -1.379096e+02
   1.755148e+02   1.549613e+01
   7.127093e+01  -1.701049e+01
  -7.032319e+00  -3.684357e+01
   4.795493e+00  -1.412810e+02
   1.448970e+02  -7.160754e+01
   1.872075e+02   4.678818e+01
   4.172279e+01   2.700945e+01
  -1.224815e+02  -6.397430e+00
  -8.171570e+01  -6.945878e+01
   1.563974e+02  -8.507522e+01
   3.045383e+02  -4.848707e+00
   2.833122e+02   1.669206e+02
   5.295249e+01   2.675790e+02
  -2.241839e+02   2.626300e+02
  -2.704751e+02   8.916321e+01
  -1.545166e+02  -3.632728e+00
   4.324547e+01  -8.526528e+01
   5.716970e+01   1.398410e+01
  -5.471624e+01   4.673379e+01
  -1.761945e+02   5.326638e+01
  -1.965714e+02  -9.183539e+01
  -6.680138e+01  -1.939752e+02
   7.309000e+01  -1.388336e+02
   1.155232e+02  -3.596777e+01
   1.046030e+02   4.631021e+01
   5.040796e+01  -3.053613e+01
   9.167802e+00  -6.291130e+01
   1.060310e+02  -9.346262e+01
   1.846767e+02  -8.481187e+00
   1.259654e+02   1.177701e+02
  -2.096101e+00   2.294544e+02
  -1.995268e+02   1.207908e+02
  -1.884055e+02   2.712166e+00
  -8.488822e+01  -7.409527e+01
   5.604509e+01  -5.646923e+01
   7.601291e+01  -2.750225e+01
  -2.595103e+01  -5.076729e+01
  -4.639648e+01  -7.522631e+01
  -1.684294e+01  -2.566468e+01
   4.637540e+01  -6.152435e-01
   1.466678e+02   1.289136e+01
   6.276719e+01   1.692848e+02
  -1.176830e+02   1.069782e+02
  -2.545626e+02   5.327274e+01
  -2.276221e+02  -1.534802e+02
   1.416136e+01  -2.498661e+02
   1.494541e+02  -1.826238e+02
   1.921039e+02   2.925798e+00
   7.320058e+01   8.764038e+01
   4.314721e+01   2.758173e+01
   6.178766e+01  -8.287822e+00
   7.047500e+01   1.827551e+01
   2.918288e+01   1.465957e+01
  -5.639341e+01   8.232355e+01
  -7.962618e+01   4.819416e+01
  -1.098476e+02  -4.642999e+01
   3.595773e+01  -1.006107e+02
   1.456583e+02  -8.125747e+01
   2.254705e+02   2.996718e+01
   1.409160e+02   2.416469e+02
  -9.721367e+01   1.943848e+02
  -2.865293e+02   1.280491e+02
  -2.159354e+02  -6.693052e+01
  -1.191108e+02  -1.862856e+02
   4.277444e+01  -1.047955e+02
   7.075985e+01  -8.809399e+01
   9.662872e+01  -1.084851e+02
   4.042366e+01  -1.204170e+02
   8.636829e+01  -1.108703e+02
   8.663977e+01   6.227072e+01
   1.123830e+02   1.191329e+02
   3.048253e+01   2.350073e+02
  -8.228801e+01   1.468146e+02
  -1.688472e+02   2.515950e+01
  -1.035353e+02  -1.333347e+02
  -3.141976e+01  -1.170597e+02
   9.130907e+01  -1.277368e+02
   7.255932e+00   6.187211e+01
  -8.225914e+00   7.883028e+01
  -1.317392e+01   7.438568e+00
   2.239315e+01  -9.994263e+00
   9.199573e+01   3.213600e+01
   1.045081e+01   6.335293e+01
  -7.738743e+01   5.838719e+01
  -1.151513e+02   1.089186e+00
  -1.574232e+02  -1.008132e+02
   3.239427e+01  -9.322275e+01
   1.553240e+02  -5.850969e+01
   1.410999e+02   9.519665e+00
   2.261905e+01   6.980422e+01
  -3.077146e+01   2.374154e+01
  -1.547871e+02  -5.218085e+01
   1.490773e+01  -4.385471e+01
   4.395460e+01  -7.995063e+01
   4.201587e+01   1.476261e+01
   6.481090e+01   7.297919e+01
   3.324429e+01  -1.364000e+00
   1.764213e+01  -1.686247e+01
   7.632088e+01  -2.448726e+01
   2.089431e+01   5.970307e+01
  -1.158024e+01   2.193065e+02
  -1.134693e+02   9.285949e+01
  -1.883509e+02   3.411380e+00
  -1.129635e+02  -9.961597e+01
   3.566343e+01  -9.239196e+01
   6.433318e+01  -1.272059e+01
   5.037912e+01  -1.285649e+01
  -9.609294e+01  -2.196373e+00
  -1.298608e+02  -1.050899e+02
  -1.023239e+02  -9.044606e+01
   6.886932e+01  -1.358596e+02
   1.713273e+02  -6.555089e+01
   1.726356e+02   1.883510e+01
   5.576728e+01   8.011365e+01
  -3.744223e+01   1.070537e+02
  -3.458725e+01   1.477378e+01
   6.817014e+01  -5.426735e+01
   1.478255e+02   3.997561e+01
   4.425568e+01   1.582442e+02
  -7.115609e+01   1.681941e+02
  -1.012770e+02   7.902731e+01
  -1.114126e+02  -5.874031e+01
  -4.037449e+00  -1.784707e+02
   6.050882e+01  -1.547521e+02
   8.138721e+01   7.810638e+00
   3.780595e+01   9.800614e+01
   9.544445e+00   9.325503e+01
  -1.161543e+02   1.376284e+01
  -6.479493e+01   1.642207e+01
  -4.194534e+01  -5.225848e+01
   2.078759e+01  -1.944598e+01
  -5.731500e+01  -5.857032e+01
   4.978474e+00  -1.384881e+02
  -6.492233e+01  -8.912811e+01
   6.830229e+01  -4.156615e+01
   1.376562e+02   4.970888e+01
   1.029961e+02   8.051139e+01
   8.770971e+01   2.703660e+01
  -4.820475e+01   2.723140e+01
  -7.416213e+01   3.942669e+01
  -8.246233e+00   1.553697e+00
   1.020399e+02  -1.113903e+01
   4.600418e+01   2.099508e+01
  -2.115443e+01  -3.241360e+00
  -1.176337e+01   3.492570e+01
   5.077946e+01   3.520987e+01
   7.081318e+01  -2.876346e+00
   3.472333e+01   3.386144e+01
  -1.128421e+02   7.379371e+01
  -1.788213e+02   2.906509e+01
  -1.598861e+02  -6.566160e+01
   1.667712e+00  -1.493741e+02
   9.164165e+01  -1.683281e+02
   6.890955e+01  -7.089499e+01
   4.939872e+01  -1.621721e+01
   1.887176e+00   5.687269e+00
   6.277193e+00   2.034553e+01
   2.842214e+01   6.809979e+01
   6.976341e+01   4.779169e+01
   5.205178e+01   1.416329e+02
  -1.039504e+01   4.292270e+01
  -1.416831e+02  -1.394356e+01
  -6.286655e+01  -6.961300e+01
  -1.034198e+01  -1.408095e+02
   2.667423e+01  -1.672929e+01
   7.959800e+01   8.299454e+01
   2.981487e+01   5.368384e+01
  -8.500715e+01   5.961658e+01
  -7.306648e+01   3.882472e+00
  -4.258451e+01  -9.242331e+00
   3.651143e+01  -3.630879e+01
   4.802530e+01  -7.588438e+01
  -2.254159e+01   2.582963e+01
  -5.294261e+00   4.722060e+01
  -4.720443e+01  -4.636546e+01
   1.136472e+02  -6.809753e+01
   9.420337e+01  -6.056976e+01
   5.156178e+01   1.337159e+00
  -8.684893e+00   1.225175e+02
  -1.040831e+02   6.367947e+01
   6.836179e+00   8.383023e+01
  -1.289218e+01  -5.761121e+01
   7.869858e+01  -1.433403e+01
   3.219825e+01   3.349425e+01
   2.106790e+01  -1.409694e+00
  -7.816966e+00   2.572805e+01
   3.668795e+00   1.304435e+01
  -5.664879e+01  -8.143004e+01
   9.502283e-01   4.248671e+01
  -1.443525e+01   1.696301e+01
  -3.213485e+01   1.355834e+01
  -1.400890e+01  -2.263941e+01
   2.039787e+01  -6.145696e+01
   2.084828e+01  -3.447476e+01
   1.535755e+01  -9.949519e+00
  -1.807566e+01   1.705529e+01
  -3.095307e+01  -1.106395e+01
  -3.914241e+01  -1.112023e+01
  -7.578762e+00  -5.412902e+01
   9.543975e+01   1.841057e+01
   9.575511e+01   3.382643e+00
   5.564211e+01   1.128301e+02
  -4.656927e+01   1.475894e+01
  -5.082917e-01  -4.491790e+01
   9.795343e+00  -1.346537e+01
   6.788363e+01   2.445428e+00
   2.186635e+01   8.339213e+01
  -4.200421e+01   5.330751e+01
  -1.057887e+02  -2.370884e+01
