
 $NMID
 id='ANONYMOUS ', fmtdat='(2E16.6)'
 volume=1.0
 tramp=1.0
 $END
   4.050611e+03  -4.970179e+01
   2.668702e+03   2.460827e+03
  -7.874367e+02   2.720267e+03
  -1.900058e+03   9.649630e+02
  -8.941197e+02  -4.167709e+02
   5.871880e+02  -4.034829e+02
   8.313774e+02   3.720999e+02
  -2.704774e+01   1.035404e+03
  -7.806988e+02   7.274885e+02
  -9.651926e+02  -2.369668e+01
  -5.029120e+02  -7.832397e+02
   2.379633e+02  -7.790249e+02
   6.001354e+02  -1.213038e+02
   3.429548e+02   6.418402e+02
  -2.615361e+02   6.334003e+02
  -5.669087e+02  -3.492039e+01
  -2.618799e+02  -6.254019e+02
   3.010860e+02  -5.967734e+02
   5.258932e+02  -1.327168e+02
   3.722767e+02   2.724367e+02
   4.435916e+01   3.605024e+02
  -1.642434e+02   2.124800e+02
  -2.109293e+02  -1.382175e+01
   1.739035e+02  -4.465182e+01
   4.335202e+02   1.670307e+02
   1.498526e+02   5.521532e+02
  -4.157808e+02   4.876511e+02
  -8.323523e+02  -2.324738e+01
  -4.550917e+02  -5.787690e+02
   3.584969e+02  -3.799512e+02
   6.389924e+02   1.051639e+02
   3.414681e+02   4.559553e+02
  -2.570875e+02   4.743194e+02
  -5.540684e+02   1.957164e+02
  -3.905809e+02  -2.069755e+02
  -7.810367e+01  -4.552251e+02
   1.644824e+02  -2.727656e+02
   1.679546e+02   2.001198e+02
  -1.631768e+02   4.683361e+02
  -4.081172e+02   5.656355e+01
  -2.401478e+02  -6.400202e+02
   2.886086e+02  -6.515512e+02
   5.687844e+02  -2.303925e+01
   2.498004e+02   5.396871e+02
  -2.954901e+02   3.459698e+02
  -4.443456e+02  -2.826495e+02
   1.470269e+01  -4.924338e+02
   5.273450e+02  -1.743700e+02
   5.893888e+02   3.506664e+02
   2.353872e+02   5.858411e+02
  -4.266938e+02   3.801490e+02
  -5.901020e+02  -7.155011e+01
  -3.505569e+02  -3.783517e+02
   1.445870e+02  -3.492313e+02
   4.440299e+02  -9.202216e+00
   1.815794e+02   1.537816e+02
  -6.542558e+01   1.356639e+02
  -1.869625e+02  -1.552845e+02
   1.155275e+02  -1.642535e+02
   3.845858e+02   6.950656e+01
   1.919111e+02   2.855457e+02
  -1.700098e+02   2.260810e+02
  -3.369786e+02   1.501708e+02
  -2.868423e+02  -6.038718e+01
   1.754160e+01  -2.447447e+02
   2.239189e+02  -3.238421e+02
   3.515412e+02  -2.429148e+02
   2.728493e+02   1.482038e+02
   6.526939e+01   3.710749e+02
  -1.339736e+02   3.583534e+02
  -7.229963e+01   7.257811e+01
  -8.476387e+00  -4.839152e+01
  -2.574020e+01   9.921937e+01
  -1.962927e+02   1.497466e+02
  -2.753379e+02  -4.020804e+01
  -1.780590e+02  -2.494609e+02
   1.212252e+02  -2.482389e+02
   2.297604e+02   2.438750e+01
   1.981215e+02   2.342451e+02
  -1.573729e+01   2.786177e+02
  -2.855595e+02   9.319683e+01
  -3.215941e+02  -1.220503e+02
  -1.469702e+02  -3.122724e+02
   1.257433e+02  -2.979869e+02
   2.232035e+02  -1.136604e+02
   1.463596e+02  -3.253220e+00
   7.347953e+01   1.936991e+00
   2.508184e+02  -1.614313e+01
   3.748287e+02   8.244481e+01
   3.657609e+02   2.158208e+02
  -2.441263e+00   4.407519e+02
  -3.536839e+02   4.452155e+02
  -4.916735e+02   2.517381e+02
  -3.277725e+02  -8.206050e+01
  -9.899422e+01  -3.336466e+02
   1.114323e+02  -2.861911e+02
   5.343607e+01  -3.295308e+01
  -1.473178e+02   1.186542e+02
  -1.825687e+02   2.360703e+01
  -3.067958e+01  -1.761765e+02
   1.445125e+02  -1.878891e+02
   1.633984e+02   5.642081e+01
  -1.125957e+01   2.304160e+02
  -1.591534e+02   4.424638e+01
  -1.956152e+02  -2.255260e+02
   3.384370e+01  -2.954822e+02
   2.534573e+02  -2.258036e+02
   3.101068e+02   9.423296e+00
   2.265812e+02   2.011204e+02
   1.306474e+02   2.676368e+02
  -1.410564e+02   1.721829e+02
  -1.883429e+02   3.158191e+01
  -9.119620e+01  -1.126569e+01
   6.416191e+01   4.545854e+01
  -1.911386e+01   1.098236e+02
  -8.774452e+01   9.196212e+01
  -1.630771e+02   2.976802e+01
  -9.630340e+01  -8.037449e+01
   5.880532e+01  -2.966151e+01
   6.080235e+01   7.424299e+01
  -1.842203e+02   7.557193e+01
  -2.606830e+02  -7.009111e+01
  -2.663547e+02  -1.544335e+02
  -8.098736e+01  -2.139665e+02
   2.198254e+02  -2.358995e+02
   2.494323e+02  -1.301983e+02
   1.837851e+02   7.629524e+01
  -3.208726e+01   1.804850e+02
  -9.451726e+01   1.858181e+01
   5.560557e+01  -8.614133e+01
   1.861514e+02  -4.019495e+01
   2.674895e+02   1.774963e+02
   1.369621e+02   2.413504e+02
  -1.173230e+02   1.900973e+02
  -1.229034e+02   4.062333e+01
  -8.527692e+01   4.285404e+01
  -1.066851e+01   1.321438e+01
   1.172784e+01   1.234268e+02
  -4.587252e+01   1.132446e+02
  -1.341006e+02   6.077918e+01
  -1.627706e+02  -9.471996e+01
  -6.721922e-01  -1.615325e+02
   1.684670e+02  -1.451989e+02
   1.905371e+02   1.713336e+01
   4.951260e+01   9.192365e+01
  -6.773392e+01   1.098469e+02
  -1.114685e+02  -8.369758e+00
  -3.084004e+01  -4.081427e+01
  -1.421403e+01  -8.073802e+01
  -2.103439e+01  -3.847360e+01
  -5.974291e+01   2.244550e+01
  -6.509719e+01  -2.797511e+01
   1.175915e+01  -1.631687e+02
   1.206692e+02  -1.617858e+02
   1.968230e+02  -3.511870e+01
   2.431651e+02   1.484673e+02
   1.744890e+01   2.486468e+02
  -7.074358e+01   1.308159e+02
  -9.064348e+01  -1.273973e+01
  -7.662264e+01  -6.825486e+01
  -4.305518e+01   4.450395e+00
  -4.779422e+01   4.319297e+01
  -1.038388e+02   1.631070e+01
  -3.795710e+01  -3.452128e+01
   6.685921e+01  -5.693126e+01
   9.341238e+01  -4.883764e+01
   4.852049e+01  -3.528107e+00
  -3.283087e+01   7.141893e+01
  -1.373493e+02   9.824272e+01
  -1.909352e+02  -2.710931e+01
  -8.612946e+01  -1.873099e+02
   9.210817e+01  -2.414331e+02
   2.670991e+02  -8.003263e+01
   2.825239e+02   1.409453e+02
   1.060831e+02   2.180616e+02
  -4.213723e+01   1.281807e+02
  -8.901556e+01   6.844745e+01
  -5.195214e+01   8.792288e+01
  -8.587136e+01   8.187939e+01
  -9.602493e+01   1.050851e+02
  -1.639222e+02   1.291105e+01
  -1.483197e+02  -1.558019e+02
  -2.390577e+01  -2.667542e+02
   1.003578e+02  -2.016891e+02
   2.066935e+02  -3.036790e+01
   8.358848e+01   9.517340e+01
   4.572000e+01   1.119977e+02
  -4.232396e+01   1.227374e+02
  -3.452539e+01  -3.079455e+01
  -7.618334e+00  -6.099722e+01
   6.265662e+01  -4.966271e+01
  -4.579564e+01  -5.250776e+01
  -9.051307e+01   1.267981e+00
  -2.094967e+01  -2.242903e+01
   8.732327e+01  -7.786743e+01
   1.293508e+02   2.272812e+01
   1.557424e+02   6.264394e+01
   3.308022e+01   6.167141e+01
  -1.150145e+02   7.110757e+01
  -1.483282e+02   4.883173e+01
  -5.779589e+01  -1.847631e+01
   7.242398e+01  -5.400266e+01
   7.118543e+01   1.014492e+01
   5.058377e+01   9.343552e+01
  -3.936863e+01   5.794015e+01
  -4.611776e+01  -3.675165e+01
  -2.673808e+01  -4.262111e+01
  -5.573871e+01  -3.993880e+01
  -5.223506e+01   1.850994e+01
  -8.372029e+01   4.298164e+00
  -1.482916e+01  -5.980520e+01
   4.011670e+01  -1.318098e+02
   1.143875e+02  -1.711405e+02
   1.535449e+02   1.602541e+00
   9.278289e+01   6.340511e+01
   2.719113e+01   8.704753e+01
  -3.867028e+01   5.884908e+01
  -5.889789e+01  -7.819999e+00
   3.477512e+01  -2.937184e+01
   1.279350e+02   7.361656e+01
   4.868987e+01   1.193208e+02
  -9.083403e+01   1.241922e+02
  -2.326752e+02   6.918244e+01
  -1.551905e+02  -4.770735e+01
  -5.152683e+01  -5.005678e+01
   7.221902e+01  -7.236922e+01
   6.911071e+01  -4.085963e+01
  -3.646229e+01  -8.369349e+00
  -8.829511e+01  -1.585121e+01
  -2.387588e+01  -1.202426e+02
   6.891200e+01  -1.403387e+02
   1.435554e+02  -7.402556e+01
   1.138467e+02   1.114759e+02
  -1.688892e+01   2.245475e+02
  -5.103354e+01   1.398744e+02
  -1.044088e+02  -3.515215e+01
  -2.817150e+01  -8.020567e+01
   1.277652e+01  -5.027892e+01
   8.187599e+01   8.689683e+00
   5.356599e+01   1.810083e+01
   2.101606e+01  -8.582671e+00
   2.108311e+01  -6.290015e+01
   5.577462e+01   4.246121e+01
   6.868900e+01   8.536858e+01
   7.721302e+01   5.034698e+01
  -5.861981e+01   6.051543e+01
  -1.343382e+02  -7.391779e+01
  -1.146699e+02  -7.925827e+01
  -2.927623e+01  -2.503837e+01
   6.350252e+01   1.518406e+01
   7.680063e+01   7.284307e+00
  -1.230016e+01   4.355834e+01
  -2.116927e+01   1.215853e+01
  -6.536208e+01   1.564664e+01
   3.365326e+01  -5.565279e+00
  -1.039656e+01  -1.773639e+01
  -9.510977e+01   1.816539e+01
  -8.481425e+01  -1.458579e+01
  -4.464931e+00  -7.573650e+01
   1.292503e+02  -1.196043e+02
   1.660135e+02  -7.850717e+01
   1.221299e+02   1.609152e+01
   3.606500e+01   1.413266e+02
  -7.949847e+01   1.490013e+02
  -7.920130e+01   4.272444e+01
  -8.405786e+01  -2.886802e+01
  -2.538189e+01  -5.235403e+01
  -1.044431e+01   3.039499e+01
  -2.181564e+01   4.658973e-01
  -2.486908e+01  -2.033222e+00
  -2.568656e+01  -8.606890e+01
  -1.587178e+01  -5.828660e+01
   4.671011e+01   3.960746e+01
   9.062352e+01   6.777886e+01
   1.030337e+01   1.025627e+02
  -4.775763e+01   5.728910e+00
  -6.139629e+01  -6.616958e+01
  -4.798752e+01  -7.311462e+01
   3.054378e+01  -2.017056e+01
   8.294699e+01   7.410027e+01
   5.742740e+01   4.426434e+01
  -3.774774e+01   8.461717e+01
  -8.112022e+01   2.501821e+01
  -9.327876e+00  -3.430356e+01
   5.154190e+01  -7.222485e+01
   6.865204e+00  -9.627748e+00
  -7.434670e+01   8.587060e+01
  -9.695589e+01   5.111556e+01
  -3.285501e+01  -3.678253e+01
   7.137705e+01  -8.151420e+01
   9.618310e+01  -7.396412e+01
   3.562482e+01   3.073135e-01
  -2.678193e+01   6.238571e+01
  -3.247157e+01   7.532870e+01
  -3.815714e+01  -2.050719e+01
  -1.532251e+00  -7.255572e+01
  -2.143319e+01  -2.709463e+01
  -1.581466e+01  -1.305614e+01
   1.395911e+01   5.132520e+01
   3.669498e+01   1.851680e+00
  -7.713595e+00  -8.456973e+00
  -3.820686e+01  -1.083131e+01
  -8.263484e+00   1.303325e+01
  -1.176237e+01   4.032312e+01
  -3.702744e+01   2.420834e+01
  -1.679104e+01  -2.066202e+01
  -1.661905e+01  -5.497833e+01
   4.905969e+01  -2.135270e+01
   5.483302e+01   2.853779e+01
  -1.071083e+00   7.934704e+01
  -7.432258e+01   5.541895e+01
  -1.317323e+02  -3.251314e+01
  -6.429635e+01  -7.057206e+01
  -7.932425e+00  -7.189994e+01
   4.086058e+01  -2.268530e+01
   3.683041e+01   1.049634e+01
  -2.637124e+01  -2.077808e+01
  -4.302796e+01   4.513988e+01
  -4.335367e+00   3.413511e+01
   7.816569e+01   4.728432e+00
