
 $NMID
 id='ANONYMOUS ', fmtdat='(2E16.6)'
 volume=1.0
 tramp=1.0
 $END
   4.080039e+03  -6.821689e+01
   2.528127e+03   2.814483e+03
  -8.793780e+02   2.852693e+03
  -2.254449e+03   8.163166e+02
  -1.036584e+03  -7.071647e+02
   8.127169e+02  -6.743700e+02
   9.275555e+02   5.452461e+02
   1.413431e+01   1.078808e+03
  -8.464057e+02   7.426029e+02
  -8.300526e+02  -1.289958e+02
  -4.082745e+02  -9.122152e+02
   2.682959e+02  -8.947677e+02
   7.356706e+02  -6.214008e+01
   4.081831e+02   6.470415e+02
  -2.687772e+02   7.729034e+02
  -6.001183e+02  -5.164732e+01
  -3.426682e+02  -7.513822e+02
   4.256959e+02  -6.332709e+02
   7.114417e+02   4.519815e+01
   3.953526e+02   3.421265e+02
   5.375902e+01   4.308444e+02
  -2.451248e+02   3.532857e+02
  -2.901444e+02  -2.434061e+01
   9.246532e+01  -1.794434e+02
   4.583907e+02   7.908304e+01
   1.773981e+02   4.492230e+02
  -4.908242e+02   4.984448e+02
  -8.499967e+02  -5.802740e+01
  -4.169661e+02  -5.895587e+02
   3.870231e+02  -4.965901e+02
   7.717114e+02   1.169114e+01
   4.152884e+02   5.195166e+02
  -2.897014e+02   5.804179e+02
  -6.079991e+02   2.710534e+02
  -4.537090e+02  -2.184592e+02
  -5.929849e+01  -5.376510e+02
   2.586350e+02  -3.312681e+02
   2.152894e+02   2.160785e+02
  -1.938693e+02   5.934658e+02
  -5.166221e+02   1.166187e+01
  -3.098500e+02  -7.624939e+02
   3.298605e+02  -7.826861e+02
   6.669325e+02  -7.172879e-01
   2.263465e+02   5.821621e+02
  -3.267511e+02   3.181852e+02
  -4.195205e+02  -3.313810e+02
   7.636199e+01  -5.163448e+02
   5.225230e+02  -1.032998e+02
   6.292996e+02   3.462769e+02
   1.986043e+02   5.158072e+02
  -3.827291e+02   3.517323e+02
  -6.114478e+02  -1.467634e+01
  -3.891210e+02  -4.128471e+02
   1.501799e+02  -4.409413e+02
   4.105913e+02  -1.254852e+02
   3.122261e+02   2.162984e+02
  -1.137657e+02   1.233341e+02
  -1.224572e+02  -2.200696e+02
   1.234928e+02  -2.077941e+02
   3.925493e+02   1.052355e+02
   1.691692e+02   3.171932e+02
  -1.908484e+02   2.482316e+02
  -3.088738e+02   3.109444e+01
  -2.013541e+02  -1.049313e+02
   3.381067e+01  -1.903001e+02
   1.442689e+02  -2.959033e+02
   2.973324e+02  -2.396038e+02
   2.930849e+02   1.018922e+02
   1.347521e+02   3.823517e+02
  -6.180887e+01   4.020144e+02
  -1.428648e+02   1.404737e+02
  -5.326260e+00   4.672138e+01
  -8.429425e+01   7.807217e+01
  -2.256778e+02   8.173417e+01
  -2.218940e+02  -2.853517e+01
  -1.697870e+02  -2.432999e+02
   4.571730e+01  -2.330238e+02
   1.927669e+02  -4.130691e+01
   1.842616e+02   1.901642e+02
   2.713913e+00   3.025201e+02
  -2.873606e+02   1.221735e+02
  -3.626029e+02  -1.633857e+02
  -1.879092e+02  -4.138793e+02
   1.154986e+02  -3.488656e+02
   2.591794e+02  -1.365595e+02
   1.454617e+02  -2.004378e+01
   1.083600e+02   2.462205e+01
   1.937570e+02  -6.340470e+01
   4.167536e+02   8.891741e+00
   3.544368e+02   3.016098e+02
   2.512458e+01   4.415260e+02
  -3.412652e+02   4.260764e+02
  -4.846541e+02   1.799524e+02
  -3.552964e+02  -7.883732e+01
  -1.081143e+02  -2.952231e+02
   8.367913e+01  -3.052917e+02
   8.638249e+01  -9.143419e+00
  -1.066496e+02   1.324097e+02
  -1.737494e+02  -3.598579e+00
  -3.884981e+01  -2.551894e+02
   1.361704e+02  -2.075930e+02
   2.060635e+02   4.421119e+01
   1.202112e+01   2.088868e+02
  -1.552351e+02   9.659816e+01
  -1.799034e+02  -1.865946e+02
   2.487965e+01  -3.203797e+02
   2.243900e+02  -1.973558e+02
   3.412414e+02   1.510827e+01
   3.038160e+02   2.367213e+02
   1.086620e+02   2.176163e+02
  -1.046574e+02   1.661590e+02
  -1.563922e+02   5.140265e+01
  -7.290493e+01  -1.033073e+01
   1.123128e+02   2.422127e+01
   4.303012e+01   1.087015e+02
  -1.120570e+02   8.722830e+01
  -1.983264e+02  -2.239748e+01
  -8.282591e+01  -4.458955e+01
   9.329376e+01  -1.127385e+01
   6.096430e+01   7.435890e+01
  -1.087189e+02   8.439301e+01
  -2.872876e+02  -5.005154e+01
  -2.569878e+02  -9.441079e+01
  -8.151713e+01  -2.400997e+02
   1.528051e+02  -2.771326e+02
   3.168730e+02  -7.917497e+01
   1.885231e+02   1.442653e+01
  -1.724746e+01   1.174461e+02
  -1.114914e+02   4.730245e+01
   1.523065e-01  -1.255460e+02
   1.887845e+02  -1.127717e+02
   2.180864e+02   8.189123e+01
   5.618392e+01   2.196767e+02
  -1.001889e+02   1.944771e+02
  -2.038466e+02   1.931074e+01
  -6.944337e+01  -7.455838e+01
   3.709269e+01  -5.964348e+01
   3.936605e+01   3.688799e+01
  -5.459059e+01   6.905736e+01
  -1.561267e+02   8.847798e+01
  -1.741419e+02  -1.067497e+02
  -9.890710e-01  -2.188923e+02
   1.280532e+02  -1.684851e+02
   2.237933e+02  -4.092567e+01
   8.287478e+01   1.301105e+02
  -6.426115e+01   6.122364e+01
  -6.290792e+01   3.534442e+01
   7.930938e+00  -4.726108e+01
   3.949033e+01  -6.312607e+01
   3.100503e+01   3.982382e+00
  -1.121345e+02   3.941676e+01
  -1.129637e+02  -3.615515e+01
  -3.647775e+01  -1.390963e+02
   1.058836e+02  -1.432434e+02
   1.760331e+02  -5.206560e+01
   2.090637e+02   1.479420e+02
   6.922827e+01   2.244921e+02
  -1.028009e+02   1.721485e+02
  -1.409764e+02   5.777124e+01
  -6.069250e+01  -7.126872e+01
   1.480579e+01  -1.058217e+01
  -6.189427e+01   2.953389e+01
  -6.720228e+01   4.374897e+01
  -6.441246e+00  -5.171522e+01
   3.951111e+01  -7.758470e+01
   6.633984e+01  -7.429090e+01
   4.634807e+01   2.395319e+01
  -5.512237e+01   1.251461e+02
  -7.300460e+01   6.297876e+01
  -1.288847e+02  -4.890996e+01
  -1.192460e+02  -2.194544e+02
   4.873896e+01  -2.494037e+02
   2.914613e+02  -6.352600e+01
   2.445854e+02   1.542222e+02
   1.228477e+02   1.477844e+02
  -3.733877e+01   1.565257e+02
  -9.387449e+01   1.054013e+02
  -7.849427e+01   1.184792e+02
  -7.037688e+01   8.860207e+01
  -5.730639e+01   7.336866e+01
  -1.042381e+02  -3.020511e+01
  -8.558286e+01  -1.793602e+02
  -3.564621e+01  -1.956103e+02
   6.760641e+01  -2.091427e+02
   1.986019e+02  -1.697776e+01
   1.627075e+02   1.047187e+02
  -4.438247e+00   1.434955e+02
  -4.252277e+01   9.218026e+01
  -8.572471e+01  -2.942089e+01
   2.272782e+01  -3.424714e+01
  -1.147085e+01  -6.553583e+01
  -2.703490e+01  -2.594758e+01
  -3.086424e+00  -4.182353e+01
  -1.161490e+01  -1.780934e+01
   5.788178e+01  -2.872342e+01
   1.470204e+02   5.699919e-01
   1.625439e+02   4.535273e+01
   3.396050e+01   1.302399e+02
  -1.165369e+02   1.430345e+02
  -1.518064e+02   3.267311e+01
  -6.958986e+01  -5.062315e+01
   5.943719e+01  -8.939285e+01
   5.988479e+01   2.849325e+01
   2.167234e+01   8.434847e+01
  -4.618269e+01   3.025296e+01
  -6.426618e+01  -8.495428e+00
  -4.279048e+01  -5.284126e+01
  -1.604345e+01  -3.882332e+00
  -8.622255e+01   4.268353e+01
  -9.630433e+01  -2.060340e+01
  -3.848815e+01  -8.803937e+01
   7.974489e+01  -1.063975e+02
   1.331029e+02  -1.104012e+02
   1.465010e+02   1.291125e+01
   1.531636e+02   7.151239e+01
   1.472764e+01   8.985554e+01
  -8.775829e+01   9.605074e+01
  -9.279872e+00  -2.052144e+01
   6.982167e+01  -2.931837e+01
   1.739560e+02   9.021790e+00
   7.471747e+01   1.069779e+02
  -8.654571e+01   8.440711e+01
  -1.864421e+02   6.538173e+01
  -1.143251e+02  -2.090857e+01
  -2.330027e+01  -1.160819e+02
   7.167143e+01  -6.231103e+01
   4.910741e+01  -3.668191e+01
  -6.445712e+01   3.690257e+01
  -5.361625e+01  -5.238787e+01
  -1.176819e+01  -1.374718e+02
   4.175519e+01  -1.480856e+02
   1.419669e+02  -8.837188e+01
   1.336468e+02   1.003859e+02
   2.773035e+01   2.134331e+02
  -6.247900e+01   1.551560e+02
  -7.737524e+01   5.533259e+01
  -8.456760e+01  -9.789502e+01
   2.445212e+00  -7.983125e+01
   5.616844e+01  -2.611938e+01
   7.360975e+01  -3.175392e+00
   4.732465e+00  -6.476874e+00
  -6.898612e+01  -3.232078e+01
  -1.880154e+00   2.575558e+01
   6.316988e+01   8.206730e+01
   7.373108e+01   8.776109e+01
  -6.810439e+01   4.965689e+01
  -1.317959e+02   2.118786e+01
  -1.485451e+02  -5.735452e+01
  -1.197048e+01  -4.776484e+01
   5.823877e+01  -3.023998e+01
   5.002046e+01  -3.142967e+01
  -2.783712e+01   6.901578e-01
  -5.918500e+00   3.469837e+01
  -3.527039e+01   3.596725e+01
   5.443042e+00   4.313462e+01
  -6.824434e-01  -7.201200e+00
  -8.134146e+01  -3.327967e+01
  -8.910050e+01  -2.374817e+01
  -3.353952e+01  -7.475934e+01
   1.394980e+02  -1.410558e+02
   1.920351e+02  -2.363417e+01
   1.345485e+02   9.024459e+01
   5.188452e+01   1.475921e+02
  -7.518340e+01   1.751852e+02
  -9.039866e+01  -4.691638e-01
  -3.618187e+01   1.506370e+01
  -2.556540e+01  -1.430725e+01
   4.052919e+01   6.070515e+00
  -3.332778e+01  -8.975544e+00
  -1.940665e+01   4.578532e+00
  -6.144070e+01  -1.334990e+02
   6.635661e+00  -7.674747e+01
   6.148759e+01   1.117687e+01
   1.149539e+02   1.119912e+02
  -9.317950e+00   7.438027e+01
  -7.045234e+01  -2.188142e+00
  -9.665885e+01  -3.369487e+01
  -2.380425e+01  -6.808995e+01
   7.521796e+01  -5.092507e+01
   8.127730e+01   2.158203e+01
   2.697883e+01   4.526856e+01
  -1.307686e+01   3.370505e+01
  -1.817868e+01   8.990516e+00
   4.438933e+01   2.471020e+01
   7.035506e+01   8.063440e+00
   1.412702e+01   2.728329e+01
  -1.183302e+02   1.146680e+02
  -9.585234e+01   8.237927e+01
  -7.540326e+01  -1.117110e+00
   9.686170e-01  -4.213330e+01
   4.953570e+01  -5.865250e+01
  -2.204553e+01  -4.118986e-01
  -2.076491e-01   5.824452e+01
  -5.552710e+01   3.326570e+01
  -1.387489e+01   1.371616e+01
  -2.262196e+01  -7.408087e+01
  -1.984954e+01  -5.104499e+01
   2.153989e+01  -6.647175e+00
   6.745608e+01   2.271691e+01
   5.372280e+00   1.297354e+01
   4.514047e+00   3.114910e+01
   2.017445e+01   4.105227e+01
   1.650624e+00   3.030073e+01
  -6.212196e+01   8.268306e+01
  -8.636776e+01   1.012264e+01
  -5.041329e+01  -3.784693e+01
   1.574169e+01  -7.531251e+01
   5.244449e+01  -2.186935e+01
   2.975861e+01  -2.168521e+01
  -1.720705e+00   3.480919e+01
  -7.199097e+01   7.383211e+01
  -8.486330e+01   4.831782e+00
  -6.760840e+01  -4.000643e+01
   3.682622e+01  -6.043745e+01
   3.300634e+01  -1.305159e+01
   2.948049e+01  -3.220529e+01
  -2.631622e+01  -5.180961e+00
  -4.655495e+01  -3.154699e+01
   1.491889e+01  -5.881352e+01
   8.549705e+01  -5.067963e+00
