
 $NMID
 id='ANONYMOUS ', fmtdat='(2E16.6)'
 volume=1.0
 tramp=1.0
 $END
  -4.156560e+03   1.361046e+02
  -2.443573e+03  -2.887223e+03
   7.993807e+02  -2.841671e+03
   2.189491e+03  -7.102211e+02
   8.577522e+02   7.400824e+02
  -6.067816e+02   5.951871e+02
  -9.128095e+02  -4.141697e+02
   4.415115e+00  -1.077311e+03
   7.830628e+02  -7.403108e+02
   7.793261e+02   1.281172e+02
   4.681350e+02   8.689568e+02
  -2.920081e+02   9.476776e+02
  -7.041760e+02   1.422442e-01
  -3.984723e+02  -7.943907e+02
   2.264732e+02  -7.710388e+02
   6.430456e+02  -3.918107e+00
   1.625745e+02   6.212296e+02
  -2.346945e+02   6.014745e+02
  -6.202224e+02   9.035302e+01
  -3.281141e+02  -3.985314e+02
  -4.813137e+00  -4.612738e+02
   3.170726e+02  -2.936136e+02
   2.297388e+02   5.443560e+01
  -1.018549e+02   1.656625e+02
  -4.930940e+02  -8.368245e+01
  -1.757172e+02  -4.428664e+02
   5.187848e+02  -4.454584e+02
   8.561351e+02   6.851225e+01
   4.162091e+02   5.496168e+02
  -4.562316e+02   5.341353e+02
  -8.437832e+02  -3.436879e+01
  -4.263840e+02  -5.253688e+02
   2.951964e+02  -5.654781e+02
   5.915888e+02  -1.367059e+02
   3.901507e+02   2.839930e+02
  -1.562246e+01   4.534104e+02
  -2.284335e+02   2.198983e+02
  -2.016667e+02  -3.155063e+02
   2.114558e+02  -4.264256e+02
   4.334281e+02   1.520852e+01
   2.890133e+02   7.249134e+02
  -3.543206e+02   7.350726e+02
  -6.779845e+02   8.868685e+00
  -2.973890e+02  -6.729606e+02
   4.204886e+02  -4.216070e+02
   4.434736e+02   3.350186e+02
  -7.032791e+01   5.756508e+02
  -6.235536e+02   1.841085e+02
  -6.218285e+02  -4.031303e+02
  -2.011363e+02  -6.363547e+02
   3.887059e+02  -3.763207e+02
   7.097119e+02   9.267064e+01
   3.755487e+02   4.137849e+02
  -1.748137e+02   3.597766e+02
  -4.787552e+02   5.249854e+01
  -2.478371e+02  -2.514946e+02
   1.122224e+02  -1.184479e+02
   1.134703e+02   1.819062e+02
  -2.114962e+02   2.130335e+02
  -3.324027e+02  -1.142021e+02
  -8.570304e+01  -2.825989e+02
   1.989317e+02  -2.910811e+02
   3.391609e+02  -5.908196e+01
   1.673252e+02   7.845544e+01
   1.568544e+01   1.987943e+02
  -2.317113e+02   3.440264e+02
  -3.385639e+02   2.314518e+02
  -3.494622e+02  -1.259005e+02
  -1.059269e+02  -5.005600e+02
   1.814937e+02  -3.832657e+02
   1.491172e+02  -5.316058e+01
  -1.855825e+01   4.995456e+01
   1.473668e+01  -9.154810e+01
   1.878386e+02  -1.533928e+02
   2.917077e+02   6.768240e+01
   1.474418e+02   2.879069e+02
  -1.222892e+02   2.821449e+02
  -2.906452e+02   1.670482e+01
  -2.304518e+02  -2.716634e+02
   4.067202e+01  -3.312169e+02
   2.659350e+02  -1.443916e+02
   3.556150e+02   1.600255e+02
   1.805430e+02   3.951827e+02
  -1.160151e+02   2.542586e+02
  -2.509213e+02   1.077277e+02
  -1.592508e+02   2.811045e+00
  -9.315988e+01   2.801314e+01
  -2.028533e+02   6.709606e+01
  -4.051400e+02  -6.186889e+01
  -3.042718e+02  -3.201673e+02
   3.890305e+01  -4.552405e+02
   3.543715e+02  -3.851657e+02
   5.128633e+02  -1.964923e+02
   3.676833e+02   1.324663e+02
   6.705767e+01   2.954936e+02
  -1.470378e+02   2.766006e+02
  -9.694193e+01   1.167875e+01
   1.232051e+02  -1.606894e+02
   2.192048e+02   6.684939e+00
   6.826937e+01   2.283344e+02
  -1.714235e+02   1.528166e+02
  -2.260999e+02  -4.248358e+01
   5.207319e+01  -2.100820e+02
   2.703596e+02  -2.153613e+01
   1.543007e+02   3.139721e+02
  -9.054655e+00   3.466545e+02
  -2.284977e+02   1.765947e+02
  -3.014464e+02  -5.287476e+01
  -2.749401e+02  -2.304456e+02
  -9.706166e+01  -2.355863e+02
   1.054304e+02  -1.208385e+02
   2.002342e+02  -2.611825e+01
   1.610804e+02   2.631835e+01
  -9.424852e+01  -3.876705e+01
  -2.065629e+01  -1.602078e+02
   1.181252e+02  -1.233915e+02
   1.902489e+02   3.320472e+01
   9.824206e+01   5.765775e+01
  -6.162520e+01   1.826450e+01
  -9.086091e+01  -3.624320e+01
   8.796299e+01  -1.213373e+02
   2.811654e+02  -4.831533e+01
   2.964670e+02   1.039818e+02
   7.908610e+01   2.653781e+02
  -2.178429e+02   2.763751e+02
  -3.221094e+02   1.322387e+02
  -1.523371e+02  -7.615524e+01
   5.253155e+01  -1.648857e+02
   1.155211e+02   2.663300e+01
  -1.321292e+01   1.197611e+02
  -2.021042e+02   7.753988e+01
  -2.105986e+02  -9.215943e+01
  -7.577138e+01  -2.103158e+02
   1.397797e+02  -1.590137e+02
   1.241933e+02  -6.070144e+01
   7.197562e+01   6.954589e+01
  -2.969577e+01  -4.058037e+00
  -5.657919e+01  -7.080496e+01
   6.338835e+01  -1.613471e+02
   1.685884e+02  -4.033265e+01
   2.086323e+02   1.353150e+02
   1.196808e+01   2.835779e+02
  -2.090518e+02   1.355868e+02
  -2.488052e+02   1.608949e+01
  -5.875485e+01  -1.480648e+02
   4.273278e+01  -1.268786e+02
   8.982576e+01  -2.954870e+01
   3.446633e+01   3.393174e+01
  -1.068795e+00  -6.232471e+00
   4.223806e+01   1.841271e+01
   5.919359e+01   6.892270e+00
   6.671686e+01   5.585794e+01
   2.179788e+01   1.792029e+02
  -1.616118e+02   1.962151e+02
  -2.774440e+02  -3.447471e+00
  -2.681828e+02  -1.264117e+02
  -3.155396e+01  -2.338642e+02
   1.345927e+02  -1.579413e+02
   1.796691e+02  -5.097964e+01
   4.971967e+01   4.196119e+01
   3.766559e+00   4.519684e+01
   9.492744e+01   1.722598e+01
   7.050834e+01  -6.367884e+00
   4.201081e+01   6.523607e+01
  -5.779846e+01   1.189046e+02
  -1.107120e+02   2.293346e+01
  -6.111985e+01  -3.970389e+01
   2.637955e+01  -8.542000e+01
   1.592421e+02  -1.387907e+02
   2.592160e+02   8.110915e+01
   9.427447e+01   2.480059e+02
  -1.395485e+02   2.416725e+02
  -3.261285e+02   1.095426e+02
  -2.559360e+02  -1.342584e+02
  -8.877850e+01  -2.333568e+02
   9.113647e+01  -1.153618e+02
   7.772973e+01  -5.671362e+01
   6.107964e+01  -3.433035e+01
   4.313967e+01  -7.404732e+01
   8.211000e+01  -5.046231e+01
   1.242668e+02   3.923244e+01
   9.671569e+01   1.143045e+02
   9.367577e+01   1.929350e+02
  -7.939810e+01   1.643825e+02
  -1.306813e+02   3.747568e+01
  -1.082255e+02  -1.186811e+02
  -6.032171e+01  -1.382724e+02
   7.790831e+01  -4.584611e+01
   6.233570e+01   1.540774e+01
  -4.183303e+01   7.245527e+01
  -4.881038e+01   1.522609e+01
   8.312398e+00   1.093103e+01
   1.149601e+02  -1.785127e+01
   3.945927e+01   5.202024e+01
  -3.309331e+01   7.580867e+01
  -1.831830e+02  -2.227879e+01
  -1.217905e+02  -3.734849e+01
  -1.765855e+01  -1.093235e+02
   1.080082e+02  -9.154661e+01
   1.625807e+02  -1.558674e+01
   3.159746e+01   4.629697e+01
  -4.553235e+01   2.517870e+01
  -8.698090e+01  -2.057173e+01
  -4.995214e+01  -9.081675e+01
   5.947728e+01  -7.019681e+01
   9.180242e+01   4.766047e+01
   6.964906e+01   5.917418e+01
   6.862019e+01   1.480454e+01
   5.699735e+01   4.378923e+01
   3.493887e+01   3.838301e+00
   2.147506e+01   3.376631e+01
  -3.805705e+01   1.369375e+02
  -1.269196e+02   5.194206e+01
  -1.697237e+02   6.158919e+01
  -1.409725e+02  -4.073276e+01
  -1.111616e+01  -1.472949e+02
   1.032904e+02  -3.786166e+01
   1.576122e+01   2.278205e+01
  -5.862862e+01   5.871094e+01
  -1.379730e+02  -2.069917e+01
  -1.140820e+02  -1.273422e+02
   1.072162e+02  -1.139837e+02
   1.397832e+02  -6.098871e+01
   2.038656e+02   3.011011e+00
  -1.558090e+01   4.244042e+01
  -7.978763e+01   1.176399e+02
  -1.844138e+01  -1.037203e+01
   2.050639e+01  -2.669718e+01
   8.673328e+01  -1.108652e+01
   5.349882e+01   9.989622e+01
  -1.030569e+02   1.478613e+02
  -1.479825e+02   5.114315e+01
  -1.291718e+02  -1.041939e+02
  -4.298410e+01  -2.218431e+02
   8.809627e+01  -1.506034e+02
   1.024792e+02  -1.032424e+01
   7.076265e+01   5.700990e+01
   2.882883e+01   1.073177e+02
  -1.992379e-02   3.712918e+00
  -4.400376e+00  -4.497375e+00
  -8.246964e+01  -1.638237e+00
   3.838973e+00   2.128469e+01
  -1.385598e+01   1.688365e+01
  -1.859035e+01  -5.625879e+01
  -3.599248e+01  -5.930712e+01
   2.757801e+01  -6.643974e+01
   1.167108e+02   6.508733e+01
   1.203469e+02   8.695181e+01
  -1.098947e+01   8.342557e+01
  -1.262534e+02  -1.010293e+01
  -1.233316e+02  -3.832309e+01
   1.666272e+01   8.035520e+00
   3.965577e+01   5.866357e-01
   1.822202e+01  -5.982077e+01
  -1.959497e+01  -3.857314e+01
   6.635760e+00   2.900628e+01
   8.194851e+01  -3.778562e+00
   6.965187e+01   3.242926e+01
   3.434807e+01   8.348884e+01
  -1.281973e+02   1.028204e+02
  -2.133918e+02   3.726118e+01
  -1.135275e+02  -5.527064e+01
   3.502995e+01  -1.348784e+02
   5.253317e+01  -1.520605e+02
   1.167162e+02  -1.842582e+01
   5.283014e+01   4.220147e+01
   2.789406e+01   4.318032e+01
   4.547627e+01   1.260359e+01
   1.759996e+01  -1.348183e+01
   8.512478e+01   6.073712e+00
   2.766788e+00   6.440603e+01
  -4.527161e+01   6.474554e+01
  -1.126831e+01  -1.239051e+01
  -4.171660e+01  -9.375411e+01
  -2.174115e+01  -1.041183e+02
   6.809825e+01   5.150125e+01
   7.172972e+01   9.869774e+01
   3.672448e+01   8.937424e+01
  -8.805214e+01   5.890767e+01
  -8.907050e+01  -2.388392e+01
  -5.918668e+01  -8.096266e+01
   7.038457e+01  -2.883065e+01
   4.178753e+01  -8.314905e+01
  -1.307601e+01   1.922277e+01
  -5.806723e+01   3.911595e+01
   7.223683e+00  -2.664775e+01
   7.391061e+01  -9.518474e+01
   8.911264e+01  -8.080177e+01
   8.032206e+01  -1.139757e+01
  -2.247139e+01   7.355558e+01
  -1.229693e+00   5.042872e+01
  -1.264140e+01  -4.197476e+01
   1.905536e+01  -7.200806e+01
   5.689015e+01  -3.864595e+01
   6.579000e+01   2.940541e+01
   1.156301e+01   9.205183e+01
   1.391689e+01   3.779398e+01
   8.912176e+00  -2.302859e+01
  -3.015676e+01  -4.353615e+00
  -2.320237e+01   2.932797e+00
  -5.558638e+00   2.600644e+01
   8.000213e+00   3.565177e+01
   3.633251e+01  -2.757009e+01
   1.453074e+01  -1.095034e+01
   5.804746e+00  -2.278837e+01
   8.549806e-01   4.005471e+01
  -4.480660e+01   1.876753e+01
  -8.181651e+01   1.675473e+01
  -7.233321e+01  -3.732615e+01
  -1.016344e+01  -3.566499e+00
   5.380858e+01  -7.894147e+00
   7.108705e+01   1.128004e+01
  -5.764102e-04   3.236466e+01
  -7.975423e+01   2.966625e+01
  -7.030650e+01   2.334660e+01
  -2.877250e+01  -2.401810e+00
  -1.453015e+01   2.547957e+00
   2.761271e+01  -2.406417e+00
  -4.429877e+01  -4.250850e+01
  -8.202651e+01  -6.266647e+00
