
 $NMID
 id='ANONYMOUS ', fmtdat='(2E16.6)'
 volume=1.0
 tramp=1.0
 $END
  -4.248027e+03   3.253958e+02
  -2.602611e+03  -2.662436e+03
   7.613971e+02  -2.640720e+03
   1.989855e+03  -9.040530e+02
   9.958319e+02   4.386531e+02
  -4.909292e+02   6.011054e+02
  -8.385211e+02  -2.655293e+02
  -4.762744e+01  -9.469683e+02
   7.389243e+02  -8.065808e+02
   8.549275e+02   8.548114e+01
   4.531672e+02   7.949504e+02
  -2.476597e+02   8.703339e+02
  -6.822893e+02   1.600902e+02
  -3.389814e+02  -7.252730e+02
   2.649107e+02  -6.516393e+02
   5.613884e+02  -7.850136e+01
   2.833392e+02   6.471881e+02
  -3.649356e+02   7.003481e+02
  -6.107990e+02   5.221843e+01
  -2.942987e+02  -4.068043e+02
   1.355643e+01  -4.052447e+02
   2.275546e+02  -2.955185e+02
   1.652574e+02  -7.361100e+01
  -1.323320e+02   8.814218e+01
  -4.303707e+02  -1.581694e+02
  -1.838051e+02  -4.494419e+02
   4.970074e+02  -4.101449e+02
   9.096549e+02   1.057790e+02
   3.993855e+02   5.510984e+02
  -3.735620e+02   4.690398e+02
  -7.399248e+02  -1.460560e+02
  -3.257282e+02  -5.028336e+02
   2.825535e+02  -4.207518e+02
   5.631414e+02  -1.684501e+02
   3.876634e+02   2.170218e+02
   1.158076e+02   4.671813e+02
  -1.198103e+02   2.808309e+02
  -4.991790e+01  -2.118394e+02
   1.411320e+02  -4.295864e+02
   4.276005e+02   1.640838e+01
   2.356172e+02   6.965245e+02
  -2.795901e+02   7.276844e+02
  -5.323717e+02  -1.997310e+01
  -2.833167e+02  -5.413009e+02
   2.830979e+02  -3.242166e+02
   3.640170e+02   3.884170e+02
  -1.700843e+01   4.752462e+02
  -5.410337e+02   1.082854e+02
  -6.387172e+02  -4.506536e+02
  -2.062265e+02  -5.885881e+02
   3.763468e+02  -2.797269e+02
   6.261486e+02   7.598242e+01
   3.757724e+02   3.610355e+02
  -1.995879e+02   3.117625e+02
  -4.723414e+02   5.131514e+01
  -2.952962e+02  -1.371413e+02
   1.594351e+02  -1.103815e+02
   1.726503e+02   1.825681e+02
  -1.446800e+02   1.692864e+02
  -2.935052e+02  -4.675411e+01
  -1.146019e+02  -2.427985e+02
   2.129140e+02  -2.194225e+02
   3.414960e+02  -1.693180e+01
   2.231041e+02   1.234554e+02
  -3.594548e+01   2.525081e+02
  -3.158662e+02   3.412455e+02
  -3.331248e+02   2.598000e+02
  -2.866324e+02  -1.362395e+02
  -1.010782e+02  -4.109954e+02
   1.100333e+02  -3.201205e+02
   7.478983e+01  -4.289013e+01
   4.675906e+00   1.022521e+01
   6.058753e+01  -1.122400e+02
   2.465010e+02  -7.787800e+01
   2.606152e+02   8.728254e+01
   1.652159e+02   2.398843e+02
  -8.757518e+01   2.349917e+02
  -2.523031e+02  -9.259046e+00
  -1.496540e+02  -2.147767e+02
   4.082717e+00  -3.430951e+02
   2.617800e+02  -1.535265e+02
   3.771306e+02   1.263241e+02
   1.941526e+02   3.630656e+02
  -1.070523e+02   3.736162e+02
  -1.921163e+02   1.536913e+02
  -1.494901e+02   8.843164e+00
  -1.269994e+02   5.177867e+01
  -2.161689e+02   4.037061e+01
  -3.794395e+02  -3.298939e+01
  -2.859781e+02  -2.778396e+02
  -3.460780e+00  -4.098778e+02
   3.712793e+02  -4.297081e+02
   4.442700e+02  -2.105428e+02
   3.204404e+02   8.002875e+01
   4.128666e+01   2.478903e+02
  -1.337512e+02   2.753298e+02
  -9.126526e+01   2.544149e+01
   1.155402e+02  -1.122277e+02
   1.897720e+02  -3.899609e+01
   1.661659e+01   2.251624e+02
  -1.609875e+02   1.679186e+02
  -1.406082e+02  -8.936563e+01
   2.791709e+01  -1.785564e+02
   1.956721e+02  -3.177098e+01
   1.599789e+02   1.928755e+02
  -5.744398e+00   3.639291e+02
  -2.106624e+02   2.060521e+02
  -2.981494e+02  -3.754836e+01
  -2.384021e+02  -2.602688e+02
  -5.869228e+01  -2.322259e+02
   1.031638e+02  -1.286248e+02
   1.644331e+02   1.396573e+01
   6.508816e+01   2.735442e+01
  -4.917735e+01  -7.287570e+00
  -4.773402e+01  -4.996187e+01
   1.150425e+02  -8.083378e+01
   1.187228e+02   2.663302e+01
   2.589460e+01   6.411010e+01
  -6.225990e+01  -1.782235e+00
  -5.595623e+01  -1.014300e+02
   1.077786e+02  -6.554745e+01
   3.025643e+02   3.640461e+01
   2.756160e+02   1.561000e+02
   1.071659e+01   2.418284e+02
  -1.571932e+02   2.221127e+02
  -2.356831e+02   1.475925e+02
  -1.148230e+02  -3.583777e+01
   1.882007e+01  -1.094667e+02
   6.899259e+01  -2.597128e+01
  -7.635368e+01   1.573168e+02
  -1.902246e+02   8.947673e+01
  -1.919057e+02  -1.040413e+02
  -4.543351e+01  -2.180479e+02
   8.562885e+01  -2.019470e+02
   1.669123e+02  -4.113990e+01
   8.958712e+01   6.357515e+01
  -4.878594e+00  -8.688547e+00
  -3.200132e+01  -7.426923e+01
   9.322678e+01  -1.137770e+02
   1.993963e+02  -2.983285e+01
   1.938159e+02   8.083675e+01
   2.902319e+01   1.653197e+02
  -1.917291e+02   1.594821e+02
  -2.107877e+02   3.601616e+01
  -4.040101e+01  -4.190152e+01
   4.836074e+01  -5.780456e+01
   8.659838e+01  -4.404478e+01
  -4.336016e+01   3.724387e+01
  -2.346811e+01   2.812343e+01
  -4.945942e+00   2.784600e+01
   1.062605e+02  -3.723828e+01
   1.086087e+02   6.245856e+01
   3.287411e+01   1.821326e+02
  -1.699598e+02   1.213998e+02
  -2.245992e+02   5.088327e+01
  -1.844962e+02  -1.808241e+02
   5.349735e+00  -2.093800e+02
   7.290395e+01  -1.865546e+02
   1.304406e+02  -3.052116e+01
   2.976706e+01   4.378579e+01
   2.425061e+01   6.721320e+01
   5.317662e+01  -8.326216e+00
   6.154085e+01  -2.904513e+01
   3.412458e+01  -7.051334e+00
  -4.279960e+01   8.324477e+01
  -4.046874e+01   4.563542e+01
  -8.800462e+01  -4.195422e+01
   2.925837e+01  -1.537837e+02
   9.250944e+01  -8.011729e+01
   2.079163e+02   6.799827e+01
   1.164158e+02   2.098142e+02
  -1.130734e+02   2.357895e+02
  -3.270587e+02   1.094217e+02
  -2.549634e+02  -7.326348e+01
  -7.757001e+01  -1.796409e+02
   5.919806e+01  -1.244815e+02
   1.178058e+02  -9.385697e+01
   5.546457e+01  -8.896892e+01
   4.433495e+01  -1.394086e+02
   1.078828e+02  -7.722942e+01
   1.907642e+02   1.206204e+01
   9.018546e+01   1.355303e+02
   1.688733e+01   2.046411e+02
  -6.655014e+01   1.389039e+02
  -1.754908e+02  -3.234153e+01
  -1.285169e+02  -9.803642e+01
   5.841843e+00  -1.344227e+02
   8.277676e+01  -6.722630e+01
   4.945781e+01   6.149117e+01
  -2.306567e+01   4.732640e+01
  -6.651157e+01   1.193796e+01
  -2.666029e+01   7.696909e-01
   5.932268e+01   4.191703e+01
   4.904266e+01   1.811128e+01
  -1.110243e+02   5.000158e+01
  -1.506240e+02   3.844996e+01
  -1.455082e+02  -5.748395e+01
  -4.207039e+01  -7.004799e+01
   7.358424e+01  -1.417382e+01
   1.320876e+02  -6.140712e+01
   3.834061e+01   3.667002e+01
  -4.090923e+01  -6.188286e-01
  -4.891245e+01   2.028209e+01
   4.461905e+00  -4.845394e+01
   4.905966e+01  -7.306660e+01
   6.356524e+01  -8.273898e+00
   9.658186e+00   1.969487e+01
   1.006807e+01   3.428520e+01
   5.511901e+01   3.022222e+01
   5.809367e+01   4.904012e+01
   1.830341e+01   6.880626e+01
  -8.928973e+01   1.471641e+02
  -1.268267e+02   1.365731e+02
  -1.344082e+02  -7.515464e+00
  -1.152741e+02  -1.098353e+02
  -2.993801e+01  -1.089124e+02
   5.559479e+01  -4.379502e+01
   5.122799e+01  -2.932697e+00
  -4.553486e+01  -1.323855e+00
  -1.783400e+02  -6.788089e+01
  -5.530470e+01  -1.044866e+02
   1.183259e+02  -1.246447e+02
   2.315653e+02  -6.891544e+01
   1.953821e+02  -2.617096e+00
   6.556928e+01   6.769471e+01
  -8.426884e+01   9.035130e+01
  -6.427131e+01   6.446459e+01
   8.116665e+01  -3.846429e+01
   8.073655e+01   3.394423e+01
   9.069015e+00   1.084461e+02
  -9.972119e+01   1.499387e+02
  -1.496617e+02   6.171056e+01
  -1.452570e+02  -1.143200e+02
   1.439346e+01  -2.438731e+02
   5.270977e+01  -1.632205e+02
   1.646116e+02   1.772365e+01
   6.927530e+01   1.194441e+02
   4.680137e+01   1.308239e+02
  -6.832167e+01   6.144654e+01
  -1.078517e+02  -6.341625e+01
  -6.696089e+01  -2.437755e+01
  -4.384216e+01   5.928977e+00
   1.712296e+01  -6.826360e+01
  -2.078392e+01  -9.785322e+01
   1.557805e+00  -1.286317e+02
   8.453398e+01   5.023039e+00
   1.431984e+02   5.922838e+01
   1.365648e+02   8.042921e+01
  -5.590582e+00   1.858381e+01
  -6.135475e+01  -3.698525e+00
  -7.838556e+01   4.110504e+01
  -2.134219e+01   1.078246e+01
   4.524195e+01  -4.096177e+01
  -2.640795e+01  -6.153442e+01
  -5.104459e+01  -1.265547e+01
   5.128595e+00   1.407370e+01
   5.637193e+01  -2.948983e+01
   8.280824e+01   6.659766e+01
   1.726890e-01   9.526592e+01
  -1.292301e+02   1.573859e+02
  -2.320078e+02   8.565444e+01
  -1.596997e+02  -6.468160e+01
  -2.928070e+01  -1.640003e+02
   3.231262e+01  -1.644256e+02
   1.238323e+02  -6.347314e+01
   6.969941e+01   3.989274e+01
   7.377610e+00   4.499796e+01
   1.855136e+01  -1.980847e+01
   3.259590e+01  -1.069882e+00
   2.893533e+01   3.933154e+01
   1.881433e+01   5.843078e+01
  -1.744653e+01   7.252472e+01
  -9.281619e+01  -1.733946e+01
  -1.039672e+02  -8.847006e+01
  -1.786596e+01  -1.336998e+02
   9.679678e+01   1.292804e+01
   8.399977e+01   4.077915e+01
   1.151194e+01   8.946509e+01
  -1.118880e+02   8.312983e+01
  -1.060206e+02  -1.568957e+01
  -4.615718e+01  -7.258964e+01
   4.080347e+01  -1.064413e+02
   1.084799e+01  -2.685016e+01
  -4.549668e+00   1.864856e+01
  -5.138408e+01   7.665769e+00
   4.369091e+01  -1.026069e+01
   9.110568e+01  -6.651149e+01
   1.006364e+02  -5.671072e+01
   3.978887e+01   2.979101e+01
  -2.178398e+01   1.086916e+02
  -7.792784e+01   1.295769e+02
  -4.608315e+01   1.113943e+01
   3.383010e+01  -7.608982e+01
  -2.266505e+00  -7.845727e+01
   5.831658e+01   5.079810e+00
   3.682107e+01   6.791043e+01
   2.014675e+01   5.066823e+01
  -4.072352e+01  -1.681835e+00
   2.015535e+01  -6.253504e+00
  -2.522091e+01  -5.126112e+01
   8.249247e+00   2.947450e+01
   1.875101e+01  -2.362149e+01
   1.414416e+01  -5.515751e+01
   2.390406e+01  -3.392529e+00
   3.871072e+01  -3.268019e+01
  -6.254390e+00   6.464107e+01
  -3.420595e+01   9.381014e+01
  -4.466682e+01   3.082173e+01
  -4.170414e+00   4.480855e+00
   1.767448e+01  -5.909846e+01
   5.479418e+01  -2.881493e+01
   6.264881e+01   1.887573e+01
   8.558504e+01   5.592605e+01
  -1.684476e+01   7.356724e+01
  -8.762710e+01   3.311939e+01
  -8.662417e+00   4.839202e+01
   6.324782e+01  -1.340319e+01
   8.157168e+01   9.163145e+00
  -5.033406e+01   5.347967e+01
  -1.026985e+02  -1.495861e+00
