
 $NMID
 id='ANONYMOUS ', fmtdat='(2E16.6)'
 volume=1.0
 tramp=1.0
 $END
   2.629565e+03  -1.549129e+02
   1.430965e+03   1.611843e+03
  -5.154126e+02   1.585045e+03
  -1.368975e+03   5.101437e+02
  -7.050548e+02  -5.154982e+02
   2.814331e+02  -4.685336e+02
   5.279286e+02   1.985947e+02
  -1.398878e+01   6.018994e+02
  -5.318572e+02   4.732585e+02
  -6.510938e+02  -4.574178e+01
  -3.514220e+02  -5.809521e+02
   1.556171e+02  -5.791308e+02
   3.861946e+02  -1.019356e+02
   2.671020e+02   3.191604e+02
  -1.749925e+02   4.595421e+02
  -3.875206e+02  -1.032343e+02
  -1.835072e+02  -4.403634e+02
   1.674881e+02  -4.624474e+02
   3.783803e+02  -1.769437e+01
   2.034907e+02   1.427514e+02
  -3.588004e+01   1.984855e+02
  -1.637712e+02   1.166972e+02
  -1.264074e+02  -2.579073e+01
   4.707588e+01  -5.004586e+01
   2.505244e+02   7.363049e+01
   1.034715e+02   2.778398e+02
  -2.713883e+02   2.024686e+02
  -5.422963e+02  -3.106519e+01
  -2.196788e+02  -4.059458e+02
   2.416357e+02  -3.044986e+02
   4.705755e+02  -1.895007e+01
   2.071931e+02   3.446246e+02
  -1.835754e+02   2.711355e+02
  -3.794956e+02   9.353366e+01
  -2.214110e+02  -1.193991e+02
   3.273591e+01  -2.337149e+02
   1.591070e+02  -1.926749e+02
   1.355922e+02   1.357319e+02
  -1.470902e+02   2.408800e+02
  -2.771399e+02  -7.844514e+01
  -1.322921e+02  -4.100207e+02
   2.354477e+02  -4.090008e+02
   3.876674e+02   2.730861e+01
   1.817936e+02   3.626451e+02
  -1.689229e+02   2.112942e+02
  -2.081896e+02  -2.219850e+02
   3.769441e+01  -3.140641e+02
   3.322238e+02  -7.256283e+01
   3.163682e+02   2.696049e+02
   1.072452e+02   3.924499e+02
  -2.144164e+02   2.199783e+02
  -3.829233e+02  -6.112311e+01
  -2.537903e+02  -3.123037e+02
   1.097224e+02  -2.832497e+02
   2.886050e+02  -4.862376e+01
   1.774979e+02   1.530738e+02
  -4.047087e+01   6.722217e+01
  -7.441377e+01  -6.482300e+01
   1.368473e+02  -8.671704e+01
   2.424280e+02   4.028430e+01
   8.337616e+01   2.018581e+02
  -1.489174e+02   1.412562e+02
  -1.876418e+02   2.681950e+01
  -1.337921e+02  -8.507044e+01
   4.234010e+01  -1.678111e+02
   1.244735e+02  -1.846171e+02
   2.415002e+02  -1.210503e+02
   2.057816e+02   8.713283e+01
   2.674813e+01   3.125285e+02
  -8.468915e+01   2.447308e+02
  -2.269074e+01   4.025833e+01
  -6.648567e+00   1.466180e+01
   1.795608e+01   2.780513e+01
  -1.114816e+02   7.750421e+01
  -1.650904e+02  -6.331751e+01
  -6.837436e+01  -1.340525e+02
   5.659960e+01  -1.567020e+02
   1.477962e+02  -1.541622e+01
   1.311689e+02   1.636386e+02
  -7.824682e+00   1.844705e+02
  -1.369159e+02   1.125009e+02
  -2.549805e+02  -7.797224e+01
  -1.387859e+02  -2.094982e+02
   9.630049e+01  -1.737056e+02
   1.131260e+02  -5.445109e+01
   1.323538e+02   3.970704e+01
   5.115149e+01  -2.990072e+01
   1.224739e+02  -1.248848e+01
   1.997834e+02   6.250961e+01
   1.788395e+02   2.165973e+02
  -2.937595e+00   3.051766e+02
  -2.450639e+02   2.162433e+02
  -3.413443e+02   1.047753e+02
  -1.974174e+02  -7.200151e+01
  -5.881346e+01  -2.004056e+02
   7.389861e+01  -1.660531e+02
   2.590532e+01  -2.418145e+01
  -7.308158e+01   4.596532e+01
  -1.264321e+02  -3.431989e+01
  -9.998921e+00  -1.299228e+02
   1.704096e+02  -1.063845e+02
   1.551192e+02   4.154655e+01
  -1.740515e+01   1.583406e+02
  -1.565378e+02   6.217121e+01
  -1.287729e+02  -1.297836e+02
   5.047884e+01  -1.702821e+02
   1.260564e+02  -9.456661e+01
   1.951892e+02   1.540733e+01
   8.132746e+01   1.376961e+02
   1.582076e+01   1.926477e+02
  -9.469835e+01   6.578732e+01
  -1.407463e+02   9.636991e+00
  -7.005658e+01  -6.848087e+00
   8.726206e+01  -2.192926e+00
   6.009965e+01   6.458230e+01
  -6.127275e+01   6.667115e+01
  -9.624400e+01  -7.528327e+00
  -7.013692e+01  -5.688112e+01
   7.313648e+01  -2.322700e+01
   6.177056e+00   1.428547e+01
  -1.160114e+02  -8.439579e+00
  -1.493457e+02   8.194291e+00
  -1.783913e+02  -7.814482e+01
  -2.523611e+01  -1.665631e+02
   9.187913e+01  -1.995399e+02
   2.047069e+02  -7.365426e+01
   1.170832e+02   7.914105e+00
  -2.329367e+01   7.252259e+01
  -7.821245e+01  -1.527664e+01
   3.561818e+01  -1.109947e+02
   1.277702e+02  -7.632015e+01
   1.669748e+02   4.300065e+01
   7.854576e+01   1.730181e+02
  -5.169370e+01   7.724248e+01
  -1.031036e+02   1.652497e+01
   3.597255e+00  -3.118474e+01
   1.331582e+01   6.317147e+01
   1.777860e+01   5.455305e+01
  -5.086638e+01   4.521961e+01
  -1.709550e+02   2.321101e+01
  -1.421736e+02  -7.132036e+01
  -1.233987e+01  -1.548069e+02
   1.029077e+02  -7.421288e+01
   1.214714e+02  -1.844114e+01
   6.196337e+01   4.890950e+01
  -2.283947e+01   6.857030e+01
  -5.341064e+01   2.505765e+01
   3.090762e+01  -2.018643e+01
   6.857317e+00  -1.554285e+00
  -1.997485e+01  -2.714120e+01
  -4.140818e+01  -3.582629e+01
  -2.107542e+01  -6.139700e+01
   1.289840e+01  -7.216634e+01
   1.450239e+02  -6.054436e+01
   1.470474e+02   2.936196e+00
   1.011835e+02   8.422806e+01
  -6.951040e+00   1.415472e+02
  -6.198970e+01   1.219804e+02
  -1.486220e+02   8.735517e+00
  -1.280693e+01  -4.251484e+01
   3.568588e+01  -3.168567e+01
  -3.371613e+01  -2.106993e+01
  -3.000933e+01   1.298049e+01
  -7.329975e+00  -1.550978e+01
   3.233979e+01  -7.598085e+01
   9.791076e+01  -4.315534e+01
   9.337961e+01   2.436702e+01
  -3.214836e+00   3.244487e+01
  -4.227051e+01   5.701369e+01
  -1.246235e+02  -1.957852e+01
  -5.466891e+01  -1.265490e+02
   5.144246e+01  -1.208359e+02
   1.677896e+02  -6.598600e+01
   1.247034e+02   1.024287e+02
   1.219164e+01   1.014053e+02
  -1.970712e+01   5.301982e+01
  -6.281718e+01   7.450228e+01
  -8.095020e+01   6.962759e+01
  -4.869635e+01   7.750618e+01
  -6.344996e+01   6.036905e+01
  -7.879180e+01  -2.892614e+00
  -4.519414e+01  -8.462831e+01
  -2.031086e+01  -9.943301e+01
   8.580541e+01  -1.153182e+02
   8.358709e+01  -3.490963e+01
   1.510438e+01   9.070948e+01
  -4.749578e+01   7.885584e+01
  -2.283040e+01   3.888854e+01
   1.198710e+01   4.000517e+01
   1.087893e+01  -1.601647e+01
  -1.004391e+01  -2.882034e+01
  -5.044952e+01  -2.513209e+01
  -3.672506e+01  -1.886247e+01
   7.887397e+00   1.339661e+01
   6.864165e+01  -2.703877e+01
   1.276293e+02  -3.104373e+01
   6.978704e+01   1.717298e+01
  -2.740646e+01   2.950054e+01
  -3.697487e+01   5.842128e+01
  -8.292882e+01   4.300798e+01
   2.340311e+01  -1.167156e+01
   6.379582e+01  -1.907944e+01
   8.659099e+01   3.832439e+01
  -2.276133e+01   4.432675e+01
  -1.865282e+01   4.543807e+01
  -6.062232e+00  -6.443020e+00
  -5.942460e+00  -2.773775e+01
  -3.674912e+01  -5.221811e+01
  -3.929997e+00  -3.348609e+01
  -3.296621e+01   1.760845e+00
   1.021889e+01   8.495793e+00
   2.985859e+01  -4.317904e+01
   2.945772e+01  -6.269420e+01
   8.568734e+01  -4.323222e+01
   2.850965e+01   6.413371e+01
   3.497722e+00   5.843756e+01
  -5.077334e+01   5.980297e+01
  -2.313269e+01  -3.651470e+01
   4.768940e+01  -8.726678e+00
   4.979086e+01  -2.415036e+00
   1.034511e+01   5.755212e+01
  -4.273721e+01   6.338906e+01
  -1.032316e+02   6.845944e+01
  -9.908267e+01  -1.699185e+01
  -2.510018e+01  -4.571053e+01
   2.821220e+01  -5.580545e+01
   1.486161e+01  -3.234675e+01
  -2.112852e+01   3.300459e+01
  -6.308099e+01  -2.823665e-01
  -4.582690e+01  -3.979942e+01
   4.456773e+01  -1.124699e+02
   1.243801e+02  -5.233266e+01
   4.855089e+01   5.814461e+01
   2.859153e+01   7.940478e+01
  -6.441508e+01   7.057207e+01
  -4.340649e+01   9.180040e+00
  -2.198490e+01  -4.586351e+01
   7.893345e+00  -2.517771e+01
   2.373660e+01  -5.342676e+01
   5.605725e+01   3.093059e+01
   2.404782e+01   3.329157e+01
  -1.127106e+00   2.803656e+01
   1.845882e+01   3.705674e+01
   3.713406e+01   3.927917e+01
   5.333343e+01   7.592033e+01
  -5.931289e+01   5.956382e+01
  -6.802944e+01  -3.731397e+01
  -6.313918e+01  -6.794597e+01
   1.831335e+01  -5.035382e+01
   3.952861e+01  -2.226782e+00
   2.308631e+01  -9.646129e+00
  -1.628610e+01  -1.304416e+01
  -1.159365e+01  -1.768289e+01
  -4.210971e+01  -5.729316e+00
   7.910853e+00   4.414897e+01
  -1.008776e+01  -2.090153e+01
  -9.912685e+00  -2.934025e+00
  -4.738900e+01   4.771247e+00
  -5.016082e+01  -4.062657e+01
   1.000501e+02  -2.667094e+01
   1.168886e+02   1.075502e+01
   1.106905e+02   5.175741e+01
   1.362435e+01   8.475103e+01
  -7.394030e+01   8.033367e+01
  -6.432786e+01  -1.058071e+01
  -1.154809e+01   7.882605e+00
  -3.407252e+01  -2.251890e+01
  -5.648319e+00   1.369578e+01
  -9.687813e+00   3.638466e+01
  -2.703211e+01  -2.635821e+01
  -1.135431e+01  -7.066393e+01
  -1.104157e+01  -6.204785e+01
   4.059663e+01   8.588122e+00
   9.436085e+00   8.958652e+01
  -1.461653e+00   7.481553e+01
  -2.623301e+01   6.144771e+00
  -5.484101e+01  -1.086853e+02
  -2.621568e+01  -1.481465e+01
   5.493939e+01  -2.071934e+01
   5.603457e+01   4.141436e+01
   2.451974e+01   3.422331e+00
  -2.741036e+01   1.009056e+01
  -2.526672e+01   3.867410e+01
   3.710809e+01   1.683122e+01
   8.265988e+01  -3.971174e+01
   9.864365e+00   3.807044e+01
  -4.340551e+01   2.318676e+01
  -7.505705e+01   1.917436e+01
  -1.097411e+01  -3.283694e+01
   4.136062e+01  -5.964772e+01
   6.606953e+01  -5.686058e+01
   2.284257e+01   1.025143e+00
  -5.906566e-01   3.408993e+01
  -4.985874e+01   3.875534e+01
  -1.875587e+01   3.644616e+01
  -7.164514e+00  -1.530422e+01
   1.181136e+01  -2.229029e+01
   1.352485e+01   9.703166e+00
   3.469209e+01   8.953804e+00
  -2.573328e+00   2.988140e+01
  -2.159684e+01  -1.678060e+01
  -4.918299e+00  -1.907242e+01
   6.539222e+00   1.969169e+01
  -4.176737e+01   9.130661e-01
  -4.038781e+01   1.749339e+01
  -6.200822e+01  -3.861940e+01
   1.692559e+01  -4.197001e+01
   9.918326e+00  -3.106275e+01
   1.192926e+01   4.318952e+01
  -5.536847e+01   2.261956e+01
  -3.216744e+01   1.740752e+01
  -5.167503e+01  -5.262915e+01
  -1.633302e+01  -4.649126e+01
   1.399355e+01  -4.915765e+01
   5.839087e+01  -8.365048e+00
   1.290587e+01   2.651175e+01
  -7.153389e+01   3.101552e+01
  -5.267043e+01   7.270583e+00
  -1.786594e+00  -4.497459e+01
   8.183955e+01  -4.964131e+01
