
 $NMID
 id='ANONYMOUS ', fmtdat='(2E16.6)'
 volume=1.0
 tramp=1.0
 $END
  -4.620159e+03   1.282640e+02
  -2.391082e+03  -2.956702e+03
   9.962712e+02  -3.095148e+03
   2.420045e+03  -7.734831e+02
   9.241003e+02   9.880047e+02
  -9.747088e+02   6.748357e+02
  -1.089019e+03  -6.735847e+02
   7.429527e+01  -1.272543e+03
   8.638310e+02  -8.284554e+02
   9.903523e+02   2.735384e+02
   4.368802e+02   1.022693e+03
  -4.060549e+02   8.819563e+02
  -6.688476e+02   4.862239e+01
  -3.266539e+02  -7.445592e+02
   5.070097e+02  -7.895256e+02
   6.237654e+02  -2.832184e+00
   3.557146e+02   7.638914e+02
  -4.102672e+02   6.553033e+02
  -6.181969e+02   8.939543e+01
  -4.387906e+02  -3.596872e+02
   9.779037e+00  -4.076939e+02
   2.838364e+02  -2.673828e+02
   2.343734e+02   6.930655e+01
  -1.728564e+02   2.454734e+02
  -4.108781e+02  -1.416645e+02
  -2.705968e+02  -5.399248e+02
   5.348543e+02  -5.561393e+02
   9.096790e+02  -3.665175e+00
   5.328905e+02   6.761484e+02
  -4.959905e+02   5.251640e+02
  -8.145366e+02  -5.717372e+01
  -3.518655e+02  -5.493433e+02
   3.397500e+02  -5.179642e+02
   5.757577e+02  -1.279485e+02
   4.229029e+02   3.285799e+02
   6.862487e+01   5.681780e+02
  -2.797264e+02   3.464708e+02
  -2.098908e+02  -1.959718e+02
   1.626651e+02  -4.498601e+02
   5.211583e+02   3.164690e+01
   1.996556e+02   7.236344e+02
  -4.349652e+02   7.407659e+02
  -6.920048e+02  -2.082308e+01
  -2.982928e+02  -6.484136e+02
   3.176255e+02  -4.011694e+02
   3.934247e+02   3.346535e+02
  -7.778119e+01   5.643100e+02
  -5.775618e+02   1.513754e+02
  -5.904075e+02  -3.934970e+02
  -1.518242e+02  -6.547409e+02
   4.359643e+02  -3.771409e+02
   6.423783e+02   1.004376e+02
   4.060649e+02   5.105375e+02
  -2.379552e+02   4.311236e+02
  -5.088517e+02   1.113234e+01
  -2.727471e+02  -2.872985e+02
   2.007145e+02  -1.178239e+02
   1.602524e+02   1.943873e+02
  -2.358668e+02   1.726893e+02
  -3.642689e+02  -1.511985e+02
  -1.273067e+02  -3.715392e+02
   2.703404e+02  -2.949461e+02
   3.395870e+02  -2.011796e+00
   1.766295e+02   9.864996e+01
  -7.650569e+01   2.220967e+02
  -2.294901e+02   3.209396e+02
  -4.001439e+02   2.124445e+02
  -3.763420e+02  -1.357306e+02
  -1.343701e+02  -4.932990e+02
   1.352522e+02  -4.458825e+02
   1.578116e+02  -6.395963e+01
   3.066712e+01   8.385432e+01
   1.744846e+01  -4.026439e+01
   2.288082e+02  -1.730796e+02
   2.783026e+02   1.354271e+01
   1.921690e+02   2.987689e+02
  -5.838467e+01   3.327568e+02
  -2.613085e+02   6.955686e+01
  -2.074600e+02  -2.283591e+02
  -3.028637e+01  -3.564365e+02
   3.098726e+02  -1.168124e+02
   3.699582e+02   1.849230e+02
   1.563239e+02   4.553120e+02
  -1.574751e+02   2.930619e+02
  -2.772852e+02   6.469777e+01
  -1.750694e+02  -8.564985e+01
  -8.241524e+01   5.726861e+01
  -1.982140e+02   8.356094e+01
  -3.993661e+02  -8.235180e+01
  -3.209273e+02  -3.159141e+02
   5.599223e+00  -3.962225e+02
   3.562301e+02  -3.990347e+02
   4.908328e+02  -2.020684e+02
   3.775716e+02   5.243825e+01
   7.177930e+01   3.257161e+02
  -1.338252e+02   3.049442e+02
  -1.221570e+02   1.049184e+01
   9.994156e+01  -1.541867e+02
   2.661992e+02   3.037058e+01
   7.295030e+01   2.540896e+02
  -2.158679e+02   2.419502e+02
  -2.234478e+02  -4.195600e+01
   4.803799e+01  -2.024995e+02
   2.072050e+02  -6.561736e+01
   1.073544e+02   2.698290e+02
  -7.657604e+01   3.867442e+02
  -1.892929e+02   1.926935e+02
  -3.131645e+02  -6.065107e+01
  -2.656408e+02  -2.590352e+02
  -7.130311e+01  -2.969289e+02
   1.742475e+02  -2.277768e+02
   2.255421e+02  -2.425777e+01
   1.013802e+02   4.393403e+01
  -4.983793e+01  -4.089403e+01
  -2.384468e-01  -1.729789e+02
   1.493520e+02  -1.341577e+02
   1.995192e+02   9.597881e+00
   8.820832e+01   6.752904e+01
  -2.437967e+01   2.382028e+01
  -6.468061e+01  -9.360118e+01
   1.065489e+02  -9.472040e+01
   2.916391e+02   1.819868e+00
   2.798616e+02   1.026538e+02
   1.151740e+02   2.621233e+02
  -1.598853e+02   2.905209e+02
  -2.976412e+02   1.685548e+02
  -1.963897e+02  -1.065115e+02
   1.087518e+01  -5.434471e+01
   1.288195e+02   1.889259e+01
  -9.136203e+01   1.494332e+02
  -2.588254e+02   5.242410e+01
  -2.084256e+02  -1.145288e+02
  -4.353598e+01  -1.841934e+02
   9.821703e+01  -1.686597e+02
   1.175838e+02  -4.874060e+01
   8.913945e+01  -4.992367e+01
  -3.655387e+01  -1.150795e+01
   4.040048e+01  -1.509493e+02
   5.668470e+01  -1.134569e+02
   2.358298e+02  -8.962740e+00
   2.125207e+02   1.485777e+02
   5.765415e+01   1.974822e+02
  -1.466320e+02   1.652326e+02
  -1.774595e+02  -2.088446e+01
  -4.104986e+01  -1.104251e+02
   5.617860e+01  -1.461141e+02
   6.691790e+01   2.317940e+01
   4.584212e+01   2.279788e+00
  -1.781006e+01  -1.933169e+00
  -1.152010e+01  -6.439128e+01
   7.707743e+01  -6.704705e+00
   6.180119e+01   6.540931e+01
   2.582920e+01   1.733195e+02
  -1.230256e+02   1.851967e+02
  -2.411793e+02   1.179543e+00
  -2.290438e+02  -1.657741e+02
  -7.878487e+01  -2.668206e+02
   1.336876e+02  -2.050909e+02
   1.493137e+02  -1.979781e+00
   5.629904e+01   1.072494e+02
   4.498379e+01   2.680612e+01
   4.227259e+01   3.575354e+00
   9.410114e+01  -1.179096e+01
   5.071119e+01   5.448692e+01
  -1.275127e+01   8.634053e+01
  -5.594271e+01   4.321586e+01
  -5.449959e+01   9.942665e+00
   9.172606e+00  -1.041158e+02
   1.050578e+02  -1.374995e+02
   2.089397e+02   3.960355e+01
   6.551046e+01   2.361861e+02
  -9.990494e+01   3.174860e+02
  -2.576989e+02   1.308935e+02
  -2.855254e+02  -7.609362e+01
  -1.668472e+02  -2.201051e+02
   7.669826e+00  -1.668391e+02
   9.212309e+01  -8.993330e+01
   6.325072e+01  -5.900285e+01
   1.395302e+02  -1.017924e+02
   8.872601e+01  -9.448163e+01
   1.484464e+02   1.869155e+01
   1.824160e+02   1.616254e+02
   7.591460e+01   2.123693e+02
  -8.690283e+01   2.153435e+02
  -2.076860e+02   6.098707e+01
  -1.578153e+02  -1.285343e+02
  -3.098384e+01  -1.947359e+02
   5.426740e+01  -9.297858e+01
   7.630263e+01  -2.798742e+01
   6.363837e+01   6.907681e+01
  -8.001613e+00   5.535773e+01
   2.657114e+01   2.206180e+01
   2.291032e+01   1.962692e+01
   2.268713e+01   1.436464e+01
  -3.436695e+01   4.166604e+01
  -1.394191e+02   2.429537e+01
  -1.325187e+02  -6.592294e+00
   1.586566e+01  -5.635430e+01
   1.392299e+02  -1.135578e+02
   1.420235e+02  -1.328997e+01
   1.267544e+01   4.619882e+01
  -7.523047e+01   3.228782e+01
  -4.744273e+01   7.387600e+00
   6.463538e+01  -7.647647e+01
   6.645872e+01  -8.300765e+01
   3.768423e+01   3.056567e+01
   2.751363e+01   2.191482e+01
   2.790889e+01  -8.045767e+00
   3.352443e+01   6.576695e+01
   5.674684e+01   2.581734e+00
   5.185768e+01   7.234256e+01
  -5.483605e+01   1.108613e+02
  -9.685141e+01   1.442853e+02
  -1.485083e+02   8.444433e+01
  -1.671860e+02  -7.020684e+01
   3.008988e+01  -1.253629e+02
   1.158313e+02  -6.506417e+01
   8.756851e+01   2.332712e+01
  -8.942098e+01   5.645156e+01
  -1.499787e+02  -3.497649e+01
  -1.001025e+02  -1.481998e+02
   4.164967e+01  -1.312575e+02
   1.845332e+02  -8.977403e+01
   1.835445e+02   2.665930e+00
   6.878548e+01   6.961417e+01
  -8.639103e+01   7.953824e+01
  -3.020254e+01  -1.625151e+01
  -9.081578e+00   7.954297e+00
   9.984624e+01   5.605478e+01
   2.992649e+01   1.373008e+02
  -8.276499e+01   1.833067e+02
  -1.621285e+02   9.580206e+01
  -1.310935e+02  -1.213074e+02
  -1.078793e+01  -1.982702e+02
   8.517669e+01  -1.309902e+02
   1.634663e+02   1.968885e+01
   7.194273e+01   1.126994e+02
   6.716350e+00   1.624522e+02
  -8.913976e+01   4.593654e+01
  -6.902834e+01  -4.577587e+01
  -3.758870e+01  -6.454270e+01
   4.820893e+01   4.026241e+00
  -2.022319e+01  -6.909467e+01
  -3.668142e+01  -1.022310e+02
  -2.423449e+01  -1.167990e+02
   7.083487e+01  -3.614330e+01
   1.240624e+02   7.611664e+01
   1.061986e+02   6.407755e+01
   5.294686e+01   2.572469e+01
  -1.526233e+02   1.060027e+01
  -1.120169e+02  -2.404003e-02
  -4.662049e+01   4.818216e+00
   7.184822e+01   1.963002e+01
   2.370415e+00  -1.719388e+01
   2.810109e+01   7.028503e+00
   4.442977e+01   2.453641e+00
   1.103752e+02   1.836615e+00
   2.999164e+01   5.855843e+01
  -4.792066e+00   1.159984e+02
  -1.296825e+02   1.065505e+02
  -2.306271e+02   2.977091e+01
  -1.651692e+02  -9.010443e+01
  -5.850645e+01  -1.811126e+02
   8.029832e+01  -1.405102e+02
   7.902142e+01  -9.973130e+01
   5.381228e+01   4.784929e+01
   3.448458e+01  -8.668351e+00
   2.202026e+01   1.261880e+01
  -1.863871e+01   1.468021e+01
   2.004971e+01   6.225513e+01
   1.033698e+01   9.175598e+01
  -4.907388e+01   7.349478e+01
  -9.606490e+01  -9.706270e+00
   1.576486e+01  -1.294193e+02
  -1.040690e+01  -1.325841e+02
   4.630502e+01  -3.522424e+01
   8.622297e+01   1.326862e+02
   5.993727e+00   1.273891e+02
  -8.334104e+01   8.962178e+01
  -1.090219e+02   2.199880e+01
  -3.014760e+01  -5.703393e+01
   2.421417e+01  -5.577952e+01
  -2.410386e+01  -2.430020e+01
  -2.114445e+01   2.083618e+01
  -5.543453e+01   4.742396e+01
   3.942725e+00  -4.901379e+01
   3.696556e+01  -3.134400e+01
   1.152247e+02  -5.866485e+01
   3.223959e+01   2.039859e+01
  -1.437443e+01   7.800829e+01
  -1.022856e+02   8.681464e+01
  -2.774380e+01  -2.089579e+01
  -1.356245e+01  -4.689663e+01
  -3.007931e+00  -6.518764e+01
   5.602024e+01   1.655305e+01
   5.312305e+01   2.303953e+01
   4.733513e+01   2.891639e+01
  -4.870308e+01  -5.194037e+00
  -3.924018e+01  -1.372904e+01
   1.414353e+01   2.473562e+01
  -1.893872e+01   5.176245e+01
   1.536920e+01   1.123077e+01
   1.135021e+01  -2.287288e+01
   4.851617e+01  -3.774917e+01
   7.049648e+01  -2.045229e+01
   6.094997e+01   6.497756e+01
  -2.254544e+01   1.016588e+02
  -8.418130e+01   3.082039e+01
  -1.433643e+01  -1.066947e+01
  -1.465996e+01  -1.066190e+02
   3.015980e+01  -4.126378e+01
   8.984310e+01   2.108103e+01
   4.208241e+01   3.447387e+01
   5.696453e+00   1.079541e+01
  -4.940295e+01  -1.747464e+01
  -7.672025e+01   4.792980e+01
   7.516860e+00   6.592434e+01
   2.244906e+01   4.085538e+01
  -4.941316e+01   2.913175e+01
  -8.423878e+01  -3.425529e+01
