
 $NMID
 id='ANONYMOUS ', fmtdat='(2E16.6)'
 volume=1.0
 tramp=1.0
 $END
   4.462561e+03  -1.362074e+02
   2.437629e+03   2.590611e+03
  -8.218393e+02   2.563888e+03
  -2.127883e+03   6.244997e+02
  -9.517502e+02  -7.077668e+02
   7.069263e+02  -5.752664e+02
   9.783686e+02   6.210717e+02
  -4.204086e+01   1.200955e+03
  -8.851140e+02   9.255341e+02
  -1.009709e+03  -1.239997e+02
  -4.182660e+02  -9.730928e+02
   3.589067e+02  -8.430710e+02
   7.028241e+02  -1.185291e+02
   3.401274e+02   7.740505e+02
  -2.669760e+02   8.096191e+02
  -7.258267e+02  -1.272815e+01
  -3.306633e+02  -7.747796e+02
   3.702259e+02  -7.166103e+02
   6.085300e+02  -7.846195e+01
   3.446329e+02   3.692767e+02
   2.443251e+01   5.116776e+02
  -2.309859e+02   2.999712e+02
  -3.400544e+02   2.127981e+01
   2.761581e+01  -1.334214e+02
   4.358270e+02   8.228665e+01
   2.381134e+02   4.139370e+02
  -4.341515e+02   4.016423e+02
  -8.243226e+02  -1.337245e+02
  -5.400568e+02  -5.592649e+02
   3.784854e+02  -4.541364e+02
   8.233271e+02   4.382306e+01
   3.982636e+02   5.057181e+02
  -2.856408e+02   5.588742e+02
  -5.717204e+02   2.021572e+02
  -4.654746e+02  -2.200702e+02
  -8.764183e+01  -5.014445e+02
   2.562391e+02  -2.600350e+02
   1.715094e+02   2.412633e+02
  -1.495332e+02   4.861056e+02
  -4.642849e+02  -4.510079e+01
  -2.797557e+02  -7.017603e+02
   3.193926e+02  -7.319075e+02
   6.759890e+02  -3.137480e+01
   3.064619e+02   5.628369e+02
  -3.193967e+02   3.726095e+02
  -4.184040e+02  -3.218274e+02
   3.588502e+01  -5.838104e+02
   5.796230e+02  -1.331623e+02
   6.515679e+02   4.418596e+02
   2.054875e+02   6.484445e+02
  -4.367130e+02   3.540181e+02
  -7.107077e+02  -1.688619e+01
  -4.416917e+02  -3.830455e+02
   8.476237e+01  -3.978123e+02
   3.849501e+02  -7.093607e+01
   2.332676e+02   1.383509e+02
  -9.207138e+01   3.393834e+01
  -1.110547e+02  -1.831476e+02
   1.795949e+02  -1.607224e+02
   3.673243e+02   9.817156e+01
   1.522469e+02   3.200277e+02
  -2.024842e+02   2.676260e+02
  -3.432702e+02   4.757119e+01
  -1.371880e+02  -5.462837e+01
  -6.753011e+00  -1.896446e+02
   2.059800e+02  -3.046271e+02
   3.617535e+02  -2.007362e+02
   2.820159e+02   1.764918e+02
   4.667060e+01   4.897905e+02
  -8.980886e+01   3.762681e+02
  -1.318115e+02   1.118427e+02
  -5.396010e+01  -5.734445e+01
  -1.895754e+01   9.665863e+01
  -1.793772e+02   1.240861e+02
  -2.679149e+02  -5.744626e+01
  -1.433637e+02  -2.470922e+02
   5.959618e+01  -2.809624e+02
   2.159909e+02  -1.760798e+01
   1.995085e+02   1.674309e+02
   4.317474e+01   3.211825e+02
  -2.395139e+02   1.558508e+02
  -3.819945e+02  -1.898325e+02
  -2.434977e+02  -4.126333e+02
   7.230846e+01  -3.378137e+02
   2.165822e+02  -1.392979e+02
   1.652047e+02   5.773047e+00
   1.578957e+02  -4.835629e+00
   2.150171e+02  -2.208970e+01
   3.884184e+02   4.564351e+01
   3.595107e+02   2.819832e+02
  -1.711124e-01   4.421913e+02
  -3.510227e+02   4.297605e+02
  -5.028452e+02   2.290724e+02
  -3.422019e+02  -4.980333e+01
  -9.437912e+01  -2.652419e+02
   1.580323e+02  -2.609027e+02
   8.991366e+01  -2.306652e+01
  -1.275564e+02   1.014458e+02
  -2.181373e+02   1.411079e+01
  -5.505960e+01  -1.598319e+02
   1.651946e+02  -2.073119e+02
   1.347949e+02   6.327869e+01
  -5.395249e+01   2.198283e+02
  -1.994403e+02   9.565473e+01
  -1.726617e+02  -2.431508e+02
  -2.257147e+01  -3.212135e+02
   1.987336e+02  -2.293169e+02
   2.638938e+02   6.978028e+01
   1.952556e+02   2.620098e+02
   1.442308e+02   2.000845e+02
  -7.423366e+01   1.519266e+02
  -1.482075e+02   4.524000e+00
  -5.832424e+01  -5.029269e+01
   6.102257e+01   6.086608e+00
   7.519179e+01   1.330619e+02
  -1.124415e+02   1.303047e+02
  -1.179454e+02   1.570800e+01
  -5.610588e+01  -4.831494e+01
   8.051093e+01  -1.917294e+01
   3.631878e+01   7.372294e+01
  -6.672828e+01   5.374883e+01
  -2.678969e+02  -1.679324e+01
  -2.831497e+02  -1.049769e+02
  -7.630907e+01  -2.226189e+02
   1.804306e+02  -2.536956e+02
   3.041933e+02  -2.189506e+02
   2.055082e+02   3.327005e+01
   1.821509e+01   1.238664e+02
  -1.288659e+02   5.832246e+01
   4.735386e+01  -9.147745e+01
   1.548579e+02  -6.974899e+01
   2.456060e+02   1.119945e+02
   5.374717e+01   2.302712e+02
  -8.490563e+01   2.161308e+02
  -1.697250e+02   7.152705e+01
  -1.414147e+02  -5.295521e+01
  -2.991283e+01  -5.043929e+01
   6.502877e+01   2.279060e+01
  -6.097871e+01   1.347077e+02
  -1.475656e+02   5.629115e+01
  -1.993558e+02  -1.202834e+02
  -4.559056e+01  -2.234927e+02
   1.140587e+02  -1.476353e+02
   1.873457e+02  -1.357497e+01
   7.816698e+01   1.325677e+02
  -5.289846e+01   1.454500e+02
  -9.272468e+01   6.217107e+01
  -6.611335e+01   7.127015e+00
   3.510684e+00  -6.752417e+01
  -3.688242e+01   3.149869e+00
  -5.119197e+01  -8.664556e+01
  -5.523999e+01  -2.940838e+01
  -5.458661e+00  -1.199901e+02
   1.242669e+02  -1.206769e+02
   2.409702e+02  -3.155676e+01
   2.418968e+02   1.070220e+02
   7.019602e+01   2.358187e+02
  -7.210946e+01   1.935211e+02
  -1.466381e+02   3.950181e+01
  -6.804932e+01  -2.214573e+01
  -2.491094e+01   1.190644e+01
  -6.803302e+01   1.419220e+01
  -3.709470e+01   2.325732e+01
  -6.648213e+01  -1.674848e+01
   4.845062e+01  -1.182861e+02
   1.030931e+02  -4.680097e+01
   9.971314e+01   7.024904e+01
  -1.140666e+01   9.330524e+01
  -1.435175e+02   1.003685e+02
  -1.787414e+02  -1.447613e+01
  -1.093113e+02  -1.684134e+02
   1.532978e+02  -2.426984e+02
   2.877979e+02  -7.460128e+01
   2.849409e+02   7.088689e+01
   9.340276e+01   2.655034e+02
  -4.102495e+01   1.989786e+02
  -1.250622e+02   1.037878e+02
  -6.844094e+01   1.432183e+00
  -8.802335e+01   3.779374e+01
  -9.927542e+01   6.723996e+01
  -8.757690e+01   2.570305e+01
  -1.371212e+02  -1.727289e+02
  -2.721000e+01  -1.733623e+02
   1.423482e+02  -1.975095e+02
   2.056725e+02  -9.112746e+01
   1.667096e+02   9.332324e+01
   3.434410e+01   1.761152e+02
  -6.852484e+01   8.726496e+01
  -4.890776e+01   2.384207e+01
   1.066502e+01  -4.688097e+01
   7.720346e+00   1.552867e+00
  -7.439230e+01  -1.673470e+00
  -1.125828e+02  -6.819140e+01
  -5.983586e+01  -4.468340e+01
   6.667079e+01  -8.975726e+01
   1.607170e+02  -6.808420e-01
   1.214552e+02   8.496830e+01
   3.787855e+00   8.257045e+01
  -1.383398e+02   3.288581e+01
  -1.343243e+02   4.659339e+01
  -8.979353e+01  -1.359484e+01
   5.853216e+01  -1.308918e+01
   8.732862e+01   4.171749e+01
   2.616979e+01   7.057327e+01
  -2.966124e+01   7.581385e+01
  -6.810644e+01   4.520418e+01
  -6.771145e+01  -6.629938e+01
  -6.208715e+01  -1.608950e+01
  -1.340634e+02   7.029410e+00
  -7.234444e+01   2.627210e+01
   1.906103e+01  -3.009183e+01
   5.100448e+01  -1.641146e+02
   9.813549e+01  -1.225948e+02
   1.845546e+02  -5.025482e+01
   1.567688e+02   6.319292e+01
   2.735973e+01   1.376877e+02
  -1.219249e+02   8.030984e+01
  -5.321409e+01   4.573296e+01
   7.744277e+01  -3.437659e+01
   1.434559e+02   6.236719e+01
   9.974080e+01   1.403720e+02
  -1.449010e+02   1.124229e+02
  -1.869262e+02   3.113557e+01
  -1.611963e+02  -5.519390e+01
  -3.237370e+01  -5.716043e+01
   3.248511e+01  -6.096899e+01
   6.571373e+01  -9.209844e+00
  -1.775201e+01   3.040408e+01
  -9.046105e+01   4.944118e+00
  -4.489761e+01  -1.254568e+02
   5.393319e+01  -1.887826e+02
   1.657702e+02  -7.316093e+01
   1.572926e+02   7.529208e+01
  -3.623524e+00   1.588307e+02
  -5.915427e+01   1.258506e+02
  -8.489700e+01   3.015231e+01
  -7.324914e+01  -1.204445e+02
  -4.061995e+01  -1.230448e+02
   7.674307e+01  -2.146157e+01
   5.836986e+00   3.856261e+01
   4.319538e+01   8.015620e+01
  -7.378196e+00  -6.299964e+01
  -2.285178e+00  -2.438108e+00
   6.108567e+01   1.026833e+02
   8.210518e+00   8.314438e+01
  -3.225030e+01   1.287442e+02
  -1.761764e+02  -5.106788e+01
  -1.568620e+02  -5.244436e+01
  -8.009104e+01  -4.450053e+01
   7.161492e+01  -5.797497e+01
   1.047279e+02  -5.858211e+00
   2.209939e+01  -1.301805e+00
  -9.800570e+01   1.564259e+01
  -6.462938e+00   1.178182e+01
   2.673757e+01   1.262925e+01
   2.024110e+01  -1.543852e+01
  -7.331332e+01   1.650326e+01
  -8.141309e+01  -1.744414e+01
  -1.995261e+01  -3.800514e+01
   1.188487e+02  -7.266686e+01
   1.805665e+02  -7.422850e+01
   1.756781e+02   8.550871e+01
  -6.934334e+00   1.391591e+02
  -2.723481e+01   1.658254e+02
  -1.306316e+02   2.647796e+01
  -9.796304e+01  -2.256165e+01
  -4.028056e+01  -5.841843e+01
  -1.963130e+01  -2.850846e+01
   1.239481e+01   1.952772e+01
  -4.200947e+01  -2.991397e+01
  -3.878418e+01  -1.202530e+02
  -1.315757e-01  -2.744327e+01
   5.157025e+01   1.974777e+01
   5.281743e+01   1.405765e+02
  -3.764786e+01   1.007676e+02
  -6.895165e+01   5.651496e+01
  -1.076849e+02  -1.107597e+02
  -3.476333e+01  -1.499468e+02
   1.061857e+02  -6.196320e+01
   1.557117e+02  -8.778863e+00
   3.992117e+01   2.108757e+01
  -6.460626e+01   2.758133e+01
  -4.633999e+01   1.176339e+01
   1.513521e+01   3.672923e+01
   1.270521e+02  -3.176411e+01
   2.448813e+01   3.874980e+01
  -1.158654e+02   2.743355e+01
  -1.391834e+02   5.257961e+01
  -9.168005e+01  -2.229476e+01
   2.983841e+01  -5.829572e+01
   3.126320e+01  -1.415880e+02
   6.517964e+01  -1.438910e+01
  -6.603751e+00   7.103768e+01
  -9.645512e+00   3.074265e+01
  -5.001326e+01  -1.869456e+01
  -1.394541e+01  -8.102055e+01
  -2.613965e+01  -9.331895e+00
   1.137944e+01   2.770169e+01
   1.044158e+00   5.645991e+00
   1.445509e+01  -9.714517e-01
  -1.261034e+00   2.952843e+01
  -2.453387e+01   4.793182e+01
  -2.221782e+00   3.539909e+01
  -2.482870e+01   2.662336e+01
  -6.211389e+01  -1.587389e+00
  -7.770481e+01  -4.163552e+01
  -6.891645e+01  -5.432847e+01
   7.970316e+01  -3.294556e+01
   9.635109e+01   3.242192e+01
   2.560663e+01   4.237376e+01
  -6.986856e+01   5.444412e+01
  -8.510040e+01  -2.525763e+01
  -7.114355e+01  -4.574985e+01
   2.844197e+01  -2.608915e+01
   5.836500e+01  -1.995567e+01
   1.906159e+01  -1.561343e+00
  -2.238186e+01  -2.350712e+01
  -3.182323e+01  -1.007588e+00
   2.472725e+01  -2.092659e+01
   1.129957e+02  -1.937859e+01
