
 $NMID
 id='ANONYMOUS ', fmtdat='(2E16.6)'
 volume=1.0
 tramp=1.0
 $END
  -2.795052e+03   2.049533e+02
  -1.696943e+03  -1.652462e+03
   2.106966e+02  -1.700565e+03
   1.145125e+03  -8.787497e+02
   8.592005e+02   2.156384e+01
  -2.517602e+01   2.680792e+02
  -3.331199e+02  -8.057233e+01
  -1.052311e+02  -5.170708e+02
   4.000481e+02  -4.529698e+02
   5.623605e+02  -8.680558e+00
   3.552277e+02   5.055130e+02
  -4.431596e+01   5.487866e+02
  -3.078058e+02   1.619245e+02
  -1.686823e+02  -3.788718e+02
   1.360467e+02  -4.689435e+02
   3.587089e+02  -6.402893e+01
   2.424709e+02   4.504984e+02
  -1.610557e+02   5.078181e+02
  -4.730162e+02   1.507161e+02
  -3.547364e+02  -1.248957e+02
  -1.565671e+02  -3.024793e+02
   1.415203e+02  -2.220771e+02
   1.440769e+01  -3.470449e+01
  -2.349553e+02  -1.308867e+02
  -2.583925e+02  -2.805050e+02
  -8.837501e+01  -3.631175e+02
   3.840152e+02  -1.399826e+02
   5.796740e+02   1.781391e+02
   1.834944e+02   3.131815e+02
  -2.836387e+02   1.826330e+02
  -4.817646e+02  -1.172233e+02
  -1.662945e+02  -2.994009e+02
   2.405251e+02  -3.083983e+02
   3.913310e+02  -9.305224e+01
   2.654931e+02   1.736431e+02
   3.490193e+01   2.188032e+02
  -3.633180e+00   1.630277e+02
  -6.472351e+00  -6.812242e+01
   1.551948e+02  -1.722933e+02
   2.301766e+02   1.169913e+02
  -1.424520e+01   3.952024e+02
  -2.286889e+02   3.292560e+02
  -3.391339e+02  -6.082113e+01
  -4.641799e+01  -3.129883e+02
   1.949713e+02  -1.105418e+02
   1.654520e+02   2.095468e+02
  -1.220609e+02   3.683244e+02
  -3.963328e+02   4.154030e+01
  -3.851088e+02  -3.212644e+02
  -1.466935e+02  -4.100274e+02
   2.776090e+02  -2.427970e+02
   4.709195e+02   3.763587e+01
   3.708714e+02   2.232339e+02
  -6.229239e+01   2.328499e+02
  -2.334633e+02   1.025687e+02
  -2.111147e+02  -3.461820e+01
  -1.140642e+01  -1.012043e+01
   3.630269e+01   5.263024e+01
  -1.016275e+02   7.561468e+01
  -2.823931e+02  -1.897832e+01
  -1.259300e+02  -1.758457e+02
   1.064966e+02  -2.234773e+02
   2.557574e+02  -1.342406e+02
   2.679821e+02   9.467454e+01
  -5.113749e+00   2.794729e+02
  -1.930310e+02   2.981776e+02
  -3.183992e+02   1.462534e+02
  -1.859818e+02  -1.596454e+02
  -6.239436e+01  -3.397829e+02
   3.395862e+01  -2.657402e+02
   1.023733e+02  -1.296168e+02
   5.501880e+01  -5.343212e+01
   1.231051e+02  -1.317475e+02
   1.876068e+02  -5.098059e+01
   2.182930e+02   9.893412e+01
   7.264839e+01   2.428226e+02
  -1.069913e+02   2.280575e+02
  -1.838371e+02  -6.629015e+01
  -1.185633e+02  -2.644337e+02
   5.858619e+01  -2.534120e+02
   1.930574e+02   6.778661e-01
   2.605303e+02   1.453153e+02
   1.268155e+02   2.468208e+02
  -6.763686e+01   2.419592e+02
  -1.495590e+02   1.179831e+02
  -1.020015e+02   4.577201e+01
  -1.296288e+02   3.710306e+01
  -2.337040e+02   5.927920e+01
  -3.886005e+02  -6.478389e+01
  -2.830180e+02  -2.230019e+02
  -9.040433e+00  -3.758938e+02
   3.300220e+02  -3.080844e+02
   4.076944e+02  -9.379150e+01
   2.234951e+02   5.727407e+01
  -1.780895e+01   1.593925e+02
  -1.004783e+02   1.574557e+02
  -2.286372e+00   5.006847e+00
   1.226453e+02  -7.039506e+01
   1.542350e+02  -3.381164e+00
   4.942288e+01   1.409866e+02
  -8.859405e+01   1.332552e+02
  -1.076734e+02  -5.856772e+01
   6.354962e+01  -1.427191e+02
   1.545860e+02   1.118318e+00
   1.075350e+02   2.461609e+02
  -3.480338e+01   2.804083e+02
  -2.631908e+02   1.896889e+02
  -3.332405e+02  -2.636879e+01
  -2.781411e+02  -1.480684e+02
  -7.117191e+01  -3.389024e+02
   1.175104e+02  -1.752040e+02
   1.651335e+02  -2.843389e+01
   4.765244e+01  -2.672334e+01
  -6.175107e+01   2.527860e+00
   1.699542e+01  -1.053908e+02
   1.090211e+02  -5.943993e+01
   1.403575e+02   9.689723e-02
   4.883569e+01   7.341924e+00
  -9.014907e+01   3.363525e+01
  -6.230504e-01  -6.497571e+01
   1.355197e+02  -3.022964e+01
   2.624024e+02   4.781697e+01
   2.635275e+02   1.519994e+02
   9.592920e+00   2.514078e+02
  -1.759634e+02   2.075484e+02
  -2.271264e+02   1.042494e+02
  -1.653218e+02  -2.837149e+01
   1.594352e+01  -1.098842e+02
   6.446894e+01  -4.646347e+01
  -2.112169e+01   7.027912e+01
  -1.438224e+02   6.939349e+01
  -1.486253e+02  -8.171433e+01
  -7.104243e+01  -2.034678e+02
   9.857223e+01  -6.279306e+01
   1.099713e+02  -3.190646e+01
   3.136748e+01   3.738972e+01
  -1.616486e+01   3.431902e+01
  -3.152257e+01  -7.450392e+01
   2.664560e+01  -4.844075e+01
   1.929191e+02  -1.608373e+01
   1.811925e+02   9.516383e+01
   1.934274e+01   1.885175e+02
  -1.319343e+02   1.160395e+02
  -1.318321e+02  -3.112746e+01
  -5.264725e+01  -5.805485e+01
   5.488874e+01  -7.412641e+01
   1.138967e+02  -4.706543e+01
  -2.224651e+01   5.968709e+01
  -8.898492e+01   1.681257e+01
   1.226225e+01  -3.814273e+01
   7.890030e+01  -1.012679e+01
   1.019480e+02   8.225272e+01
   2.410859e+01   1.299953e+02
  -1.338422e+02   1.405640e+02
  -2.060419e+02  -1.189800e+01
  -1.838796e+02  -1.291997e+02
   1.298729e+01  -1.966080e+02
   1.010151e+02  -1.602617e+02
   1.549189e+02  -2.493824e+00
   7.964060e+01   5.000985e+01
   8.819091e+00   1.701898e+01
   5.636475e+01   3.052603e+00
   9.504769e+01  -2.057629e+00
   2.166009e+01   7.098203e+01
  -5.421749e+01   1.002727e+02
  -1.016671e+02   3.006376e+01
  -1.261916e+02  -4.680843e+01
   3.480570e+00  -1.039753e+02
   1.699620e+02  -9.268600e+01
   2.233939e+02   4.715725e+01
   1.211692e+02   1.674739e+02
  -1.058584e+02   2.098540e+02
  -2.511218e+02   6.087426e+01
  -2.658405e+02  -9.702582e+01
  -4.593335e+01  -1.600559e+02
   6.119833e+01  -1.109986e+02
   1.103487e+02  -4.254506e+01
   5.207935e+01  -5.417324e+01
   3.687632e+01  -1.085120e+02
   7.231566e+01  -1.251993e+02
   1.229472e+02  -2.212142e+01
   9.415346e+01   1.513497e+02
   4.362066e+01   1.777304e+02
  -7.759912e+01   1.734261e+02
  -1.751590e+02   5.308083e+01
  -1.201485e+02  -1.250295e+02
   5.609870e+01  -1.560417e+02
   7.326256e+01  -1.000551e+02
   8.669500e+00   4.125867e+01
  -1.019767e+01   3.883653e+01
  -2.956284e+01   6.074439e+01
   7.269166e+00   3.734285e+01
   1.045728e+02   2.613543e+01
   9.621719e+01   7.549298e+01
  -8.287207e+01   5.032788e+01
  -1.772432e+02   2.799132e+01
  -1.283275e+02  -5.974506e+01
  -2.987480e+01  -1.237339e+02
   1.594409e+02  -8.798120e+01
   1.365860e+02  -8.335154e+00
   5.029461e+01   7.601492e+01
  -9.401533e+01   1.526956e+01
  -9.034251e+01  -4.118851e+01
  -1.436601e+01  -1.044709e+02
   2.822567e+01  -1.004613e+02
   7.617522e+01   2.059842e+01
   2.337951e+01   3.087701e+01
   2.188037e+01   6.461002e+01
   5.357433e+01  -1.769962e+01
   2.993711e+01  -4.890836e+00
   3.742298e+01   3.075880e+01
  -3.637340e+01   1.170666e+02
  -1.447001e+02   9.538276e+01
  -1.660877e+02   3.638301e+01
  -1.428246e+02  -5.055773e+01
  -4.507916e+01  -8.673238e+01
   3.210228e+01  -2.193541e+01
   6.428385e+01   1.817697e+01
  -8.215721e+01   2.448222e+01
  -1.184517e+02  -6.357826e+01
  -3.185237e+01  -1.140254e+02
   7.602201e+01  -1.049215e+02
   1.588168e+02   1.982440e+00
   1.090341e+02   3.425342e+01
   5.299994e+01   6.262715e+01
  -5.857550e+01   6.462777e+01
  -3.194869e+01   1.108325e+01
   8.351836e+01  -2.078509e+01
   6.783477e+01   2.281589e+01
   4.501562e+01   5.641345e+01
  -8.338906e+01   1.648097e+02
  -1.416737e+02   6.766325e+01
  -1.047883e+02  -9.899387e+01
  -4.756424e+00  -1.203050e+02
   1.173951e+02  -1.385464e+02
   8.588050e+01   1.722885e+01
   6.644156e+01   9.601572e+01
   5.524352e+00   4.857070e+01
  -8.521227e+01   1.087124e+01
  -4.499317e+01  -7.621537e+00
  -2.951411e+01  -3.405595e+01
  -2.329642e+01  -1.977919e+01
  -2.117431e+01  -4.731231e+01
  -5.319872e+01  -5.482178e+01
  -4.301466e+01  -3.025124e+01
   1.212231e+01   1.867649e+01
   1.101250e+02   5.721966e+01
   7.002917e+01   6.360022e+01
   7.053627e+00   3.114317e+01
  -9.613657e+01   7.278392e+00
  -9.492739e+01   2.877863e+01
  -4.587215e+01  -2.903558e+01
   4.308436e+01  -5.368295e+01
  -1.060944e+01  -1.053043e+00
   3.177284e-01  -6.767120e+01
   7.391520e+00  -2.544803e+00
   4.875246e+01  -2.736776e+01
   6.278827e+01   2.717361e+01
   1.526378e+01   8.423046e+01
  -7.472115e+01   1.271331e+02
  -1.415101e+02   4.515078e+01
  -1.366826e+02  -3.223282e+01
  -5.598627e+01  -1.167385e+02
   6.735327e+01  -1.605988e+02
   5.950286e+01  -6.016391e+01
   1.014659e+02   3.892439e+01
   6.207852e+01   5.874791e+01
  -2.599144e+01   6.351824e+01
  -6.099374e-01   2.493748e+01
  -1.330770e+00   4.729316e+01
   1.326070e+01   8.448220e+01
  -4.927837e+01   1.397266e+01
  -9.927900e+01  -7.559302e+00
  -8.496295e+01  -1.051664e+02
  -2.584915e+01  -9.975550e+01
   9.203381e+01  -1.775586e+01
   1.097805e+02   5.200595e+01
   2.853362e+01   8.955937e+01
  -6.699418e+01   5.154320e+01
  -1.070378e+02   8.712512e+00
  -1.473569e+01  -5.196127e+01
   1.833831e+01  -4.929943e+01
   4.104461e+01  -1.527577e+01
   3.039362e+00   1.824923e+01
  -1.115261e+02   3.355219e+01
  -1.782650e+00  -1.198690e+01
   8.006281e+01  -4.398920e+01
   1.093974e+02  -5.537065e+01
   1.164702e+02   4.013326e+01
   9.551130e+00   7.455078e+01
  -2.504799e+01   5.501622e+01
  -9.062897e+01   3.908369e+01
  -3.689818e+01  -2.923594e+01
   3.484922e+01  -3.982554e+01
   3.243873e+01  -1.517910e+00
   5.744936e+00   6.218013e+01
  -9.932373e+00   1.500348e+01
  -1.473659e+01  -2.829850e+00
  -4.724360e+01  -1.010447e+01
  -9.098935e+01  -5.092605e+01
   2.586456e+00  -1.956917e+01
  -6.646864e+00   1.020854e+01
  -5.196061e+00  -3.026643e+01
  -1.809489e+01  -2.421780e+01
   1.795771e+01  -5.948453e+01
   5.921510e+00   6.431193e+00
   1.979254e-01   4.131795e+01
  -6.703012e+01  -7.174654e+00
  -3.345431e+01  -4.965727e+01
  -8.387366e+00  -6.405461e+01
   5.743973e+01   2.047864e+01
   1.097644e+02   3.018929e+01
   5.245014e+01   8.478689e-01
  -9.148323e+00  -1.735421e+01
  -4.503097e+01   2.751152e+01
  -5.953283e+00   5.289560e+01
   1.325110e+01   3.546575e+00
   1.366092e-01  -7.087920e+00
  -1.755639e+01   2.030380e+01
  -1.195720e+02   2.145250e+01
