
 $NMID
 id='ANONYMOUS ', fmtdat='(2E16.6)'
 volume=1.0
 tramp=1.0
 $END
  -3.259992e+03  -4.416952e+01
  -1.944299e+03  -1.502890e+03
  -9.157778e+01  -1.975551e+03
   1.154706e+03  -1.230930e+03
   1.033448e+03  -3.463080e+02
   1.448147e+02   1.673026e+02
  -3.135677e+02  -1.260298e+02
  -1.162147e+02  -4.990848e+02
   4.557702e+02  -5.967758e+02
   5.474873e+02  -1.113503e+02
   4.869536e+02   4.515376e+02
   1.447253e+01   6.353842e+02
  -2.826907e+02   2.292238e+02
  -2.985048e+02  -4.402202e+02
   1.246129e+02  -4.867946e+02
   3.746372e+02  -1.800413e+02
   2.376841e+02   5.093040e+02
  -9.484842e+01   5.575399e+02
  -5.347530e+02   3.522562e+02
  -5.124906e+02  -1.303377e+02
  -1.400506e+02  -3.677880e+02
   7.705026e+01  -2.180981e+02
   3.001495e+01  -1.549071e+02
  -1.732162e+02  -1.160091e+02
  -2.166466e+02  -3.099021e+02
   7.865933e+01  -2.951247e+02
   4.197926e+02  -1.031558e+02
   5.188894e+02   2.284746e+02
   1.873877e+02   3.214500e+02
  -4.147921e+02   1.427107e+02
  -4.526316e+02  -1.697932e+02
  -2.109546e+02  -3.690691e+02
   2.366254e+02  -3.098832e+02
   5.013231e+02  -6.536172e+01
   2.922459e+02   1.976393e+02
   9.121451e+01   2.967545e+02
   2.419467e+01   2.228918e+02
   8.401197e+01  -4.230484e+01
   1.558714e+02  -1.397018e+02
   1.065540e+02   1.791366e+02
  -7.689546e+01   4.761744e+02
  -2.954075e+02   3.775811e+02
  -3.271143e+02  -4.859522e+01
  -9.017761e+01  -2.618676e+02
   1.529112e+02  -6.002862e+01
   1.210930e+02   3.201884e+02
  -1.045336e+02   4.000586e+02
  -4.758050e+02   2.893877e+01
  -4.944334e+02  -3.575873e+02
  -1.186969e+02  -4.619979e+02
   2.925106e+02  -2.836815e+02
   5.149668e+02   1.336832e+01
   3.574477e+02   1.952085e+02
  -3.258519e+01   2.003119e+02
  -2.877850e+02   6.166538e+01
  -2.319997e+02  -2.424631e+01
  -3.898449e+01  -4.127737e+01
   3.918231e+01   3.398538e+01
  -8.975022e+01   3.719470e+01
  -2.277532e+02  -1.047061e+02
  -8.039889e+01  -2.312629e+02
   1.729144e+02  -2.459993e+02
   3.957279e+02  -7.410355e+01
   2.734988e+02   1.133460e+02
  -4.633964e+01   2.621556e+02
  -2.684197e+02   3.054999e+02
  -3.894320e+02   1.510054e+02
  -2.269042e+02  -1.672792e+02
  -4.838912e+01  -3.393685e+02
   1.228453e+01  -3.304490e+02
  -8.465209e+00  -1.868575e+02
   3.103811e+01  -1.126611e+02
   2.128173e+02  -1.291194e+02
   3.008909e+02  -3.166844e+01
   2.336149e+02   1.598396e+02
   3.974913e+01   2.567683e+02
  -1.263807e+02   2.018456e+02
  -1.926976e+02  -1.094080e+02
  -8.838972e+01  -2.826188e+02
   7.744639e+01  -2.359811e+02
   2.666521e+02  -2.110037e+01
   3.295955e+02   1.974353e+02
   1.724999e+02   3.414193e+02
  -6.963170e+01   2.936308e+02
  -2.097014e+02   1.558936e+02
  -1.891135e+02   8.101067e+01
  -1.651089e+02   7.121818e+01
  -3.401849e+02   1.366779e+01
  -4.451653e+02  -1.769913e+02
  -2.913332e+02  -3.691730e+02
   5.578979e+01  -5.011884e+02
   4.210596e+02  -3.952838e+02
   5.200246e+02  -1.433529e+02
   2.703098e+02   1.190063e+02
  -1.612427e+01   2.113811e+02
  -9.048676e+01   1.533534e+02
  -2.112383e+01   3.520435e+01
   1.438311e+02  -3.328607e+01
   9.425419e+01   5.715265e+01
   5.740014e+01   1.476024e+02
  -8.421565e+01   1.207730e+02
  -7.900700e+01  -2.431131e+01
   4.870330e+01  -1.069867e+02
   1.514709e+02   1.190687e+01
   1.214210e+02   2.680003e+02
  -3.408909e+01   3.700086e+02
  -2.502485e+02   2.341121e+02
  -2.976318e+02  -7.565748e+01
  -2.851311e+02  -2.798877e+02
  -4.004077e+01  -2.772983e+02
   1.481460e+02  -1.225839e+02
   1.632220e+02   1.084590e+01
   5.925136e+01  -2.226897e+01
  -1.391624e+01  -5.275826e+01
   1.976038e+01  -1.047118e+02
   1.173245e+02  -6.454849e+01
   1.414552e+02   5.175830e+00
   7.526418e+01   6.894650e+01
  -2.872937e+01  -1.877598e+01
  -2.176554e+00  -1.054702e+02
   2.161597e+02  -8.955999e+01
   3.189121e+02   6.182502e+01
   2.215764e+02   2.291533e+02
   3.545868e+01   3.028627e+02
  -2.232005e+02   2.596748e+02
  -2.567502e+02   5.676113e+01
  -1.190616e+02  -3.027886e+01
   7.456456e+00  -4.698568e+01
   3.133318e+01  -2.458705e+01
  -4.453042e+01   5.513712e+01
  -1.702352e+02   5.160343e+00
  -1.326138e+02  -1.026745e+02
  -4.092929e+01  -1.579847e+02
   1.050406e+02  -1.349628e+02
   9.348836e+01  -7.530457e+00
   3.860401e+00   3.901241e+01
  -1.176579e+01  -6.051056e+01
   3.446548e+01  -1.082751e+02
   1.601672e+02  -1.234268e+02
   2.332470e+02   4.429878e+00
   1.811034e+02   1.569234e+02
  -5.916600e+00   2.771281e+02
  -1.623147e+02   1.575502e+02
  -1.537847e+02   6.699747e+01
  -8.282208e+01  -7.245906e+01
  -4.700689e+00  -4.121440e+01
   1.552814e+01  -4.759331e+01
  -9.927534e+00  -1.468165e+01
  -6.768443e+01  -3.326832e+01
   5.546664e+01  -6.274692e+01
   1.343540e+02  -2.010076e+01
   1.100137e+02   1.312322e+02
  -5.395213e+01   1.933184e+02
  -2.030426e+02   1.234923e+02
  -2.914575e+02  -3.242205e+01
  -1.863933e+02  -1.732103e+02
   2.693669e+01  -2.443361e+02
   9.395111e+01  -1.820317e+02
   1.539811e+02   4.419625e+00
   9.521202e+01   5.270369e+01
   2.760392e+01   1.007812e+01
   6.977710e+01  -3.589202e+01
   1.176931e+02   3.640590e+01
   3.805003e+01   8.046879e+01
  -7.746352e+01   1.250687e+02
  -1.263153e+02   9.160853e+01
  -1.123550e+02  -7.694276e+01
   5.416563e+01  -1.657069e+02
   1.835361e+02  -6.705099e+01
   1.977790e+02   5.120181e+01
   7.133439e+01   2.488436e+02
  -1.229270e+02   2.337532e+02
  -3.175007e+02   9.018306e+01
  -2.719828e+02  -9.917342e+01
  -1.179605e+02  -1.937123e+02
   4.389374e+01  -1.478146e+02
   7.426383e+01  -6.741446e+01
   6.183945e+01  -8.475534e+01
   9.265497e+01  -1.153443e+02
   8.514187e+01  -8.614610e+01
   1.062817e+02   4.449699e+01
   1.104471e+02   1.858345e+02
   9.320959e+00   2.640652e+02
  -1.423684e+02   1.372841e+02
  -1.568650e+02  -2.060658e+01
  -1.247002e+02  -1.313909e+02
   2.030663e+01  -1.885093e+02
   8.910680e+01  -3.671640e+01
   9.404190e+01   6.122594e+01
  -2.950253e+01   9.253126e+01
  -6.287054e+01   3.640324e+01
   3.996471e+01  -6.021926e+00
   3.563670e+01   1.300460e+01
   3.198609e+01   3.966188e+01
  -1.202602e+02   2.629589e+01
  -2.348890e+02  -3.487460e-01
  -1.552756e+02  -6.543997e+01
   6.982313e-01  -1.055239e+02
   1.424383e+02  -8.902786e+01
   1.658486e+02   3.292923e+01
   3.197200e+01   9.316104e+01
  -1.074620e+02   4.544664e+01
  -8.189844e+01   2.651239e+01
  -2.937472e+01  -6.154216e+01
   3.014743e+01  -1.031485e+02
   9.455587e+01   1.673549e+01
   5.951072e+01   7.416959e+01
   2.605255e+01   5.408933e+01
   3.811278e+01   2.275970e+01
   4.511771e+01   8.337612e+00
   3.561814e+01   6.865954e+01
   1.718696e+01   1.584779e+02
  -1.518879e+02   1.256473e+02
  -1.699764e+02   3.626213e+01
  -1.546888e+02  -1.210896e+02
   5.922565e+01  -1.530807e+02
   8.738072e+01  -7.981725e+01
   6.816496e+01   1.252102e+00
  -4.151682e+01   5.726126e+00
  -9.585488e+01  -1.259820e+01
  -5.580315e+01  -7.453381e+01
   8.820894e+01  -1.103512e+02
   1.454699e+02  -6.473626e+01
   1.421181e+02   3.779310e-01
  -4.596547e+00   9.697829e+01
  -4.582311e+01   4.066709e+01
  -1.381609e+01  -1.940977e+01
   2.884359e+01  -4.008780e+01
   1.269899e+02   4.161468e+01
   3.725497e+01   1.000149e+02
  -1.136535e+02   1.555621e+02
  -1.429570e+02   9.287200e+01
  -9.147650e+01  -8.160182e+01
  -6.362105e+00  -1.474368e+02
   3.342624e+01  -1.228151e+02
   1.242630e+02   8.359081e+00
   7.548450e+01   1.137990e+02
  -8.434932e+00   1.036328e+02
  -3.887244e+01  -3.025173e+01
  -8.821047e+01  -6.552473e+01
   1.114425e+01   2.121254e+00
  -8.575066e-01   2.006407e+01
  -6.834665e+01  -3.005074e+01
  -4.768756e+01  -6.608721e+01
  -1.624216e+01  -1.168083e+02
   1.321117e+02  -2.317681e+01
   1.370050e+02   6.347966e-01
   1.614062e+02   6.076251e+01
   3.174064e+01   1.068243e+02
  -8.278584e+01   2.052869e+01
  -9.471062e+01   6.032508e+01
  -7.774935e+01   1.298386e+01
  -1.889659e+01  -3.808070e+01
   4.345764e+00  -1.005949e+01
  -2.412995e+01  -2.531677e+01
   1.220006e+01  -5.256136e+00
   5.794573e+01  -2.172875e+01
   1.261465e+02   3.271695e+01
   1.447500e+01   7.115321e+01
  -1.087572e+02   1.298696e+02
  -1.782830e+02   8.203937e+01
  -1.418738e+02  -2.343662e+01
  -8.204980e+01  -1.950379e+02
   9.780699e+01  -1.486601e+02
   1.481051e+02  -1.074446e+02
   1.514131e+02   2.108031e+01
   7.385078e+01   4.096119e+01
   2.145418e+01   4.707354e+01
  -2.146263e+00  -1.104553e+01
   3.948037e+01   1.925832e+01
   3.675035e+01   4.414162e+01
   1.227738e+01   8.073281e+01
  -1.049983e+02   2.832190e+00
  -9.706384e+01  -1.089673e+02
   1.522813e+01  -1.152486e+02
   8.344148e+01  -1.304558e+01
   1.048910e+02   1.296570e+01
   2.496009e+01   9.740516e+01
  -1.460194e+02   7.114540e+01
  -1.220311e+02  -8.786360e+00
  -7.115704e+01  -8.430913e+01
   1.951265e+00  -9.311664e+01
   2.068280e+01  -6.955371e+01
  -5.564332e+00  -3.915677e+01
  -9.828599e+01  -1.577810e+01
   3.894045e+00  -2.024739e+01
   8.227662e+01  -5.633610e+01
   1.380065e+02  -2.199785e+01
   4.269202e+01   2.346115e+01
   1.878581e+01   5.617489e+01
  -7.462993e+01   7.647062e+01
  -4.717427e+01  -1.074554e+01
  -6.778063e+00  -5.291542e+01
   4.093243e+01  -4.736775e+01
   4.490666e+01   6.603456e+00
   3.442191e+01   7.461600e+01
  -9.942844e-01  -1.212414e+01
  -4.433710e+01   3.293635e+01
  -3.910434e+01  -2.060461e+01
  -4.810232e+01  -3.353573e+00
  -1.335677e+01   4.324823e+01
   1.273446e+01   1.891659e+01
  -2.874142e+01  -4.682418e+01
  -7.176722e+00  -6.265206e+01
   4.714928e+01  -4.363870e+01
   3.343437e+01  -4.249198e+00
   3.583502e+01   7.010841e+01
  -3.786424e+01   1.713985e+01
  -6.891139e+01  -2.171020e+00
  -5.210591e+01  -7.817371e+01
   5.680632e+01  -2.649350e+01
   1.105801e+02   2.788970e+01
   7.685842e+01   8.753117e-01
  -3.408067e+01   3.960574e+01
  -1.408345e+01   4.431893e+01
  -3.162649e+01  -6.512124e+00
   7.368289e+00   7.458399e+00
   5.800155e+01   5.632936e+01
  -1.617597e+01   1.536630e+01
  -6.545479e+01   6.000431e+01
