
 $NMID
 id='ANONYMOUS ', fmtdat='(2E16.6)'
 volume=1.0
 tramp=1.0
 $END
   3.171755e+03   1.460177e+02
   1.469299e+03   1.666840e+03
  -5.735139e+02   1.926470e+03
  -1.543656e+03   4.012297e+02
  -5.990387e+02  -6.341568e+02
   6.261753e+02  -4.865011e+02
   6.880009e+02   4.231982e+02
  -1.037520e+02   8.214265e+02
  -5.361298e+02   5.909500e+02
  -5.949992e+02  -1.386126e+02
  -1.916782e+02  -6.395026e+02
   2.213615e+02  -5.548933e+02
   4.571031e+02  -8.052128e+01
   2.701076e+02   4.740520e+02
  -1.919348e+02   4.233552e+02
  -3.317900e+02  -4.884499e+01
  -1.052556e+02  -4.568232e+02
   1.589335e+02  -3.815430e+02
   3.301160e+02  -1.163620e+02
   1.982835e+02   2.148894e+02
   5.373839e+00   2.929725e+02
  -1.952845e+02   1.863989e+02
  -1.536885e+02  -1.068700e+01
   6.529500e+01  -3.574572e+01
   3.341875e+02   7.144857e+00
   1.575719e+02   2.962101e+02
  -3.127183e+02   3.059513e+02
  -5.442436e+02  -3.241241e+01
  -3.430491e+02  -3.781113e+02
   2.576471e+02  -3.327361e+02
   4.856892e+02   7.008338e+00
   2.236798e+02   3.263949e+02
  -2.031521e+02   3.490424e+02
  -4.418265e+02   1.215657e+02
  -2.341892e+02  -1.910187e+02
  -1.442613e+01  -3.296792e+02
   1.566016e+02  -2.123552e+02
   1.098281e+02   1.204503e+02
  -8.085072e+01   3.045479e+02
  -2.560364e+02   3.260538e+01
  -1.976611e+02  -4.441936e+02
   1.413011e+02  -4.913343e+02
   3.671848e+02  -1.937302e+00
   1.833825e+02   3.555269e+02
  -1.849932e+02   2.264142e+02
  -2.538512e+02  -2.104900e+02
  -1.117445e+01  -3.814893e+02
   4.021131e+02  -8.415453e+01
   4.163666e+02   2.468949e+02
   1.045575e+02   3.750222e+02
  -2.695525e+02   2.089519e+02
  -3.667231e+02  -1.525285e+01
  -2.027947e+02  -2.585886e+02
   8.825363e+01  -2.315329e+02
   2.594729e+02  -2.347228e+01
   1.035673e+02   1.404412e+02
  -6.219171e+01   3.719545e+01
  -1.070785e+02  -1.660165e+02
   1.267646e+02  -1.299105e+02
   2.329203e+02   6.563960e+01
   1.105892e+02   1.886368e+02
  -9.753569e+01   1.098149e+02
  -1.655936e+02   3.257231e+00
  -9.810034e+01  -2.355780e+01
   3.722559e+01  -1.009439e+02
   8.311098e+01  -1.865241e+02
   1.314218e+02  -1.190359e+02
   1.768739e+02   8.687083e+01
   8.487571e+01   2.873540e+02
  -1.700358e+01   2.773499e+02
  -8.099443e+01   1.081345e+02
  -1.621794e+01   2.979020e+01
  -2.251570e+01   9.179403e+01
  -1.048429e+02   9.565849e+01
  -1.431935e+02  -9.236289e+00
  -7.276014e+01  -1.987030e+02
   2.806751e+01  -1.748302e+02
   1.209792e+02  -4.575311e+01
   1.249451e+02   1.581534e+02
  -6.675122e+00   2.201479e+02
  -1.493897e+02   1.031067e+02
  -2.464583e+02  -4.789477e+01
  -1.531762e+02  -2.020756e+02
   5.604780e+01  -1.889227e+02
   1.304288e+02  -1.109499e+02
   7.758032e+01   3.124879e+01
   9.949316e+00   8.473267e+00
   1.057735e+02   2.737761e+00
   2.238274e+02  -7.563159e+01
   2.136178e+02   9.910385e+01
   1.991787e+01   2.778608e+02
  -2.275383e+02   2.614891e+02
  -3.023893e+02   1.035325e+02
  -1.876644e+02  -4.869565e+01
  -5.917860e+01  -1.662279e+02
   1.019649e+02  -1.695312e+02
   7.422344e+01  -2.668418e+01
  -1.044599e+02   4.338098e+01
  -1.732571e+02  -2.035575e+01
  -3.504155e+01  -1.663372e+02
   1.437506e+02  -1.363514e+02
   1.349561e+02   4.283167e+01
  -2.101531e+01   1.433151e+02
  -1.209997e+02   3.168558e+01
  -1.106699e+02  -1.252695e+02
  -6.511979e+00  -2.325106e+02
   1.734610e+02  -1.216555e+02
   2.076846e+02   2.677651e+01
   1.575269e+02   1.536823e+02
   6.349616e+01   1.111079e+02
  -7.529505e+01   1.175900e+02
  -1.679744e+02   2.842471e+01
  -3.588367e+01  -2.890109e+01
   7.770818e+01   5.352338e+01
   6.747824e+01   1.098915e+02
  -6.558803e+01   1.213549e+02
  -1.352659e+02   7.058208e+00
  -3.957383e+01  -2.803346e+01
   3.904844e+01  -1.359948e+01
   4.441877e+01   3.877030e+01
  -9.636847e+01   2.969144e+01
  -1.523433e+02   2.659004e+01
  -1.787061e+02  -1.069761e+02
  -1.589899e+01  -1.647887e+02
   8.343152e+01  -1.344590e+02
   1.910502e+02  -1.084554e+02
   1.530340e+02   3.708678e+01
  -3.285366e+01   8.916489e+01
  -5.167548e+01   4.833634e+01
   2.188320e+01  -7.009275e+01
   1.504481e+02  -6.258264e+01
   1.346693e+02   3.316307e+01
   8.658046e+01   1.721808e+02
  -1.081073e+02   1.223972e+02
  -1.562087e+02   4.918978e+01
  -5.425963e+01  -5.048300e+01
  -1.327800e+01  -2.385880e+01
   4.168035e+01  -9.703128e+00
   3.383854e+00   7.894733e+01
  -1.039718e+02   6.254231e+01
  -1.422675e+02  -4.641188e+01
  -1.662513e+01  -1.287016e+02
   9.686476e+01  -1.292779e+02
   1.591180e+02   1.687528e+01
   4.359317e+01   2.482078e+01
  -4.290196e+01   6.519609e+01
  -3.658862e+01  -3.156848e+01
  -2.645039e+01  -2.321783e+01
   4.575229e+01  -5.362230e+01
   2.227216e+01   2.950355e+01
  -2.775054e+01  -1.194705e+01
  -5.843360e+01  -4.747930e+01
  -5.772071e+01  -8.408207e+01
   3.046202e+01  -8.461416e+01
   1.522992e+02  -3.195249e+01
   1.539532e+02   1.389694e+02
  -4.412172e+00   1.491410e+02
  -9.631192e+01   1.144171e+02
  -8.257252e+01   5.209546e+01
  -5.278747e+00  -5.470925e+01
   2.963116e-01  -5.117194e+01
  -4.523099e+01   4.579603e+01
  -1.787941e+01   7.737329e+01
  -2.769991e+01  -7.205567e+00
  -4.859376e-01  -2.760963e+01
   5.098749e+01  -6.588263e+01
   2.726805e+00   3.244121e+00
  -6.376847e+00   3.697572e+01
  -1.157008e+02   2.394626e+01
  -8.152394e+01  -1.643231e+01
  -7.396948e+01  -1.523905e+02
   3.865147e+01  -1.510667e+02
   1.586514e+02  -2.983089e+01
   1.516346e+02   5.944213e+01
   7.320418e+01   7.998825e+01
  -4.637673e+01   1.434854e+02
  -8.531014e+01   4.486112e+01
  -5.893171e+01   3.556077e+01
  -5.094363e+01   6.195975e+01
  -5.523389e+01   5.628910e+01
  -1.232411e+02  -5.711964e+00
  -1.094250e+02  -1.428054e+02
  -3.482342e+01  -1.509097e+02
   1.134227e+01  -1.534409e+02
   1.084318e+02  -7.684520e+01
   5.624992e+01   4.380602e+01
  -7.981829e+00   1.136795e+02
  -4.471242e+01   6.422868e+01
  -3.608613e+00   6.721037e+00
  -1.721311e+01   6.542237e+00
   4.198428e+01  -2.217733e+01
  -2.750629e+00  -2.080860e+01
  -2.466130e+01   3.869232e+01
  -3.609010e+01   3.379629e+01
   4.065228e+01  -3.097885e+01
   6.849403e+01  -3.970288e+01
   7.722336e+01   5.995671e+00
  -2.464663e+01   3.964323e+01
  -9.773143e+01   6.102954e+01
  -6.678637e+01   1.825902e+01
  -4.224037e+01  -8.524138e+00
   6.952459e+01  -2.490136e+01
   6.127705e+01   5.847594e+00
   5.602549e+01  -4.963821e+00
  -4.153323e+01   2.678056e+01
  -4.243103e+01   3.437887e+01
  -3.146873e+01  -3.802694e+01
  -3.034129e+00  -3.176129e+01
  -1.307982e+01   5.088424e+00
  -5.004483e+01  -2.889931e+01
  -1.422510e+01  -7.444748e+01
   1.951149e+01  -7.347281e+01
   5.535515e+01  -9.856456e+01
   1.022801e+02   4.167790e+01
   1.266754e+02   8.107908e+01
   2.606564e+01   6.403888e+01
  -3.694346e+01   4.778246e+01
  -2.824386e+01  -4.947346e+01
   5.212960e+01   2.262700e+01
   2.172098e+01   3.752457e+01
   3.872671e+01   8.985898e+01
  -3.363149e+01   3.342486e+01
  -8.893613e+01   4.848903e+01
  -1.128739e+02   2.678268e+00
  -2.911238e+01  -7.999683e+01
  -2.953036e+01  -4.084556e+01
   1.347473e+01  -2.551623e+01
  -3.289900e+01   6.483238e+00
  -2.783937e+01  -1.022196e+01
  -7.874769e+00  -9.857295e+00
   1.782682e+01  -1.165474e+02
   1.124132e+02  -6.001725e+01
   1.019475e+02  -1.328863e+01
   2.904194e+01   9.306986e+01
  -6.698482e+01   1.242241e+02
  -3.874468e+01  -2.836010e+01
  -7.842988e+01  -1.016176e+02
  -4.221915e+01  -5.893571e+01
   3.888347e+01  -1.152694e+01
   1.894235e+01   4.809106e+01
   3.626138e+01  -2.734830e+01
   1.432507e+01  -3.325922e+01
  -5.564368e+00   1.515231e+01
   2.230990e+01   7.434445e+01
   3.769746e+00   4.494547e+01
  -1.086530e+01   1.528800e+01
  -1.066610e+02   1.230387e+01
  -1.416524e+02  -5.516993e+01
  -2.787731e+01  -2.748320e+01
   2.953396e+01  -2.897803e+01
   8.104758e+01  -1.143115e+01
   1.074522e+01   1.778315e+01
  -5.396402e+01   2.107196e+01
  -2.037102e+01  -6.266135e+00
   3.168929e+01   1.836193e+01
  -8.618881e+00   2.285211e+00
  -7.277956e+01   2.858067e+01
  -5.198772e+01  -1.456472e+01
   1.829942e+01  -7.558079e+01
   9.462888e+01  -5.047880e+01
   1.064369e+02  -2.867206e+01
   5.247626e+01   3.519192e+01
  -1.932906e+00   1.184650e+02
  -4.169108e+01   1.108754e+02
  -7.909616e+01   5.516851e+01
  -2.554936e+01  -4.569545e+01
  -1.803212e+01  -3.918027e+01
  -6.312020e+00  -1.954882e+01
  -2.154831e+01  -1.004650e+01
  -5.016526e+01  -1.026490e+01
  -4.213229e+00  -7.562895e+01
   1.764388e+01  -6.578448e+01
   4.279679e+01  -5.949600e+00
   1.937156e+01   7.417732e+01
  -3.651840e+01   2.434609e+00
  -3.455083e+01  -1.240263e+01
  -2.679971e+01  -5.225688e+01
  -1.955605e+01  -2.838194e+01
   3.330260e+01  -4.301750e+01
   4.600605e+01  -1.092714e+01
   5.595633e+00   3.030026e+01
  -3.066669e+01   4.116051e+01
  -2.638551e+01   4.722563e+01
   3.895271e+01   2.550782e+00
   4.966896e+01  -1.205684e+01
  -1.461194e+01   3.442293e+01
  -3.512693e+01   2.805443e+01
  -5.587023e+01   4.803561e+01
  -2.925425e+01   1.486291e+01
  -1.144441e+00  -6.373333e+01
   2.215039e+01  -5.256895e+01
   3.382743e+01  -1.431644e+01
  -3.090835e+01  -1.188189e+01
   3.974341e+01   4.929321e+01
  -6.587337e+00  -2.227801e+01
   3.331085e+01  -3.554717e+01
  -9.908158e+00  -7.663548e+00
   5.201214e+01  -6.388741e+00
  -1.210327e+01   4.679062e+01
  -8.441537e+00   1.109220e+01
   4.410380e+01  -4.723311e+01
  -1.700304e+01  -8.463826e+00
   1.235601e+01   2.968079e+01
  -1.599399e+01   1.881537e+01
   3.106813e-01   8.023852e-01
   7.476269e+00  -1.739083e+01
   1.666684e+01  -2.202032e+01
   5.981660e+01   1.545140e+01
   4.156495e+01   2.330446e+01
   1.242797e+01   2.867434e+01
  -4.070479e+01   1.102140e+01
  -5.542298e+01   4.431819e+01
  -3.714601e+01  -5.378707e+01
  -7.720024e+00  -4.770826e+01
   9.459467e+01   1.277814e+01
   3.087041e+01  -6.182234e+00
  -7.454479e+00   4.786803e-01
  -1.585059e+01  -1.951919e+01
   2.738438e+01  -1.101531e+01
   5.064225e+01  -2.611420e+00
