
 $NMID
 id='ANONYMOUS ', fmtdat='(2E16.6)'
 volume=1.0
 tramp=1.0
 $END
  -4.962757e+03   1.319434e+02
  -2.747909e+03  -2.614599e+03
   1.059110e+03  -2.902502e+03
   2.396687e+03  -7.667179e+02
   1.068853e+03   9.461724e+02
  -9.380971e+02   7.101411e+02
  -1.102940e+03  -5.369536e+02
  -4.535994e+01  -1.327944e+03
   9.640676e+02  -9.241563e+02
   9.823551e+02   1.425674e+02
   4.852698e+02   1.113491e+03
  -2.035046e+02   9.862020e+02
  -7.354764e+02   1.362445e+02
  -4.787635e+02  -8.173025e+02
   2.731069e+02  -8.027984e+02
   7.056448e+02   4.873014e+01
   2.274564e+02   8.270462e+02
  -4.276826e+02   6.023841e+02
  -5.748471e+02   1.087350e+02
  -4.765793e+02  -4.125582e+02
   9.524650e+00  -4.759566e+02
   3.084079e+02  -2.761730e+02
   2.102695e+02   5.495555e+01
  -4.072050e+01   1.218640e+02
  -4.868556e+02  -5.293146e+01
  -2.805085e+02  -4.226279e+02
   5.260594e+02  -5.470340e+02
   9.798284e+02  -4.402784e-01
   4.671693e+02   5.817963e+02
  -4.157372e+02   5.968261e+02
  -8.444423e+02  -8.313124e-01
  -4.151284e+02  -5.913514e+02
   2.790458e+02  -5.942524e+02
   6.259846e+02  -2.828379e+02
   4.762690e+02   2.290661e+02
   8.131971e+01   5.216783e+02
  -2.504339e+02   3.290583e+02
  -2.297168e+02  -2.639480e+02
   1.418917e+02  -5.580359e+02
   5.512099e+02  -3.418451e+01
   3.442585e+02   6.894800e+02
  -3.292668e+02   7.790361e+02
  -6.959063e+02  -2.256720e+00
  -3.807369e+02  -5.998284e+02
   2.554350e+02  -4.086042e+02
   4.278090e+02   2.090252e+02
  -4.531855e+01   5.465871e+02
  -5.759972e+02   1.302710e+02
  -7.158105e+02  -3.890626e+02
  -1.858062e+02  -5.896191e+02
   3.974187e+02  -4.831835e+02
   6.872326e+02   1.155798e+01
   4.289871e+02   4.259516e+02
  -1.549499e+02   4.045671e+02
  -4.728100e+02   1.178518e+02
  -2.282923e+02  -2.314638e+02
   1.416823e+02  -6.703518e+01
   1.439537e+02   2.262223e+02
  -2.167213e+02   2.627454e+02
  -3.607519e+02  -5.765755e+01
  -1.368451e+02  -3.811663e+02
   1.927069e+02  -2.702564e+02
   3.058222e+02  -5.707135e+01
   2.539358e+02   9.826037e+01
   3.955803e+01   2.741769e+02
  -2.175371e+02   3.825926e+02
  -3.394968e+02   2.345675e+02
  -3.116386e+02  -1.536246e+02
  -7.873951e+01  -5.047234e+02
   1.298050e+02  -5.059121e+02
   1.318390e+02  -1.064206e+02
   7.605418e+01   8.872664e+01
   2.096189e+01  -4.675731e+01
   1.578067e+02  -1.533210e+02
   3.032810e+02   3.432250e+01
   1.892629e+02   2.506799e+02
  -8.949296e+01   3.043136e+02
  -2.704554e+02   4.801468e+01
  -2.728576e+02  -2.485049e+02
  -1.059456e+02  -2.813509e+02
   2.819685e+02  -1.570534e+02
   4.131845e+02   1.326393e+02
   2.283206e+02   3.362678e+02
  -9.839283e+01   3.410307e+02
  -2.207899e+02   1.491037e+02
  -2.269624e+02   1.659182e+01
  -7.458744e+01   6.688886e+01
  -1.805240e+02   7.164434e+01
  -4.347471e+02   1.819090e+01
  -3.577323e+02  -2.441572e+02
  -6.267387e+01  -4.680308e+02
   3.331014e+02  -4.522829e+02
   5.384930e+02  -2.677325e+02
   3.700676e+02   7.326890e+00
   1.142900e+02   2.723181e+02
  -1.417421e+02   3.333986e+02
  -5.918462e+00   2.408056e+01
   8.028474e+01  -9.155758e+01
   2.018749e+02   2.589310e+01
   8.689650e+01   1.862921e+02
  -1.271681e+02   1.991946e+02
  -1.500462e+02  -1.406346e+01
  -1.563288e+01  -1.915613e+02
   1.772769e+02  -1.586462e+01
   1.881768e+02   2.372861e+02
  -3.163229e+00   3.326219e+02
  -2.204659e+02   1.897041e+02
  -3.338901e+02   1.051250e+01
  -3.191197e+02  -2.529039e+02
  -1.581473e+02  -2.327975e+02
   1.095667e+02  -1.828032e+02
   1.792710e+02  -7.373226e+01
   7.668297e+01   1.783967e+01
  -2.982633e+01   8.971991e+00
   2.488664e+01  -9.062487e+01
   1.190358e+02  -1.148566e+02
   1.395749e+02   1.088477e+01
   1.058692e+02   9.466723e+01
  -7.347511e+01   7.755806e+01
  -1.077705e+02  -4.399910e+01
   1.133360e+02  -6.282953e+01
   2.560733e+02   3.462608e+01
   2.580732e+02   1.325757e+02
   7.987788e+01   2.093143e+02
  -1.575146e+02   3.037266e+02
  -2.830247e+02   1.560912e+02
  -1.758940e+02  -4.533785e+01
   7.810848e+00  -1.096967e+02
   2.666645e+01  -4.579596e+01
  -3.298645e+01   9.699774e+01
  -1.426422e+02   4.430263e+01
  -2.215753e+02  -7.207246e+01
  -5.685788e+01  -2.335736e+02
   5.051963e+01  -2.119581e+02
   1.509722e+02  -4.902701e+01
   1.143211e+02   7.606874e+01
   7.715806e+00   5.152049e+01
  -4.402915e+01  -4.906307e+01
   2.525884e+01  -1.087677e+02
   1.636456e+02  -5.710078e+01
   1.982560e+02   8.947766e+01
   1.011531e+01   2.452349e+02
  -1.967495e+02   2.131984e+02
  -2.009797e+02   3.845293e+01
  -8.629326e+01  -1.086011e+02
   4.734150e+01  -1.504438e+02
   2.625444e+01  -2.643877e+01
   3.824042e+01   2.853598e+01
  -2.036496e+01   6.758495e+01
  -8.197182e+00  -2.755382e+01
   1.920257e+01   3.298070e+01
   1.033550e+02   1.336402e+02
   5.901416e+00   1.098963e+02
  -8.265525e+01   1.615228e+02
  -1.996899e+02   4.964563e-01
  -2.006576e+02  -1.299814e+02
  -8.354157e+01  -2.168306e+02
   1.172556e+02  -1.645910e+02
   1.715600e+02  -2.871891e+01
   7.335768e+01   8.964194e+01
   7.666878e+01   6.816090e+01
   1.134399e+01   3.414912e+01
   4.418619e+01   2.210558e+01
   7.945764e+01   5.160065e+01
  -9.395463e+00   5.506922e+01
  -1.256019e+02   8.573280e+01
  -5.290023e+01   1.469168e+00
   1.895625e+01  -1.168510e+02
   1.422805e+02  -6.317785e+01
   1.764395e+02   4.285984e+00
   8.774018e+01   1.861889e+02
  -6.946264e+01   2.679740e+02
  -3.160914e+02   1.174051e+02
  -2.295117e+02  -7.273173e+01
  -1.309012e+02  -1.660393e+02
  -2.656006e+00  -1.576183e+02
   4.752086e+01  -1.193351e+02
   1.429895e+02  -9.519009e+01
   1.091652e+02  -7.031666e+01
   1.059147e+02  -6.458901e+01
   1.356679e+02   2.443239e+00
   9.772892e+01   1.241883e+02
   7.200717e+01   2.062804e+02
  -4.698715e+01   1.857253e+02
  -1.761719e+02   2.247975e+00
  -1.490030e+02  -1.022732e+02
  -2.408522e+01  -1.400189e+02
   6.851426e+01  -5.704168e+01
   4.783364e+01   1.703852e+01
   1.632977e-01   7.283923e+01
  -3.103725e+01   5.511093e+01
   2.237620e+01  -1.277577e+01
   1.140495e+02  -3.597785e+01
   5.601851e+01   4.731022e+01
  -7.296289e+01   5.468897e+01
  -1.726462e+02  -2.542227e+00
  -1.572935e+02  -2.065686e+01
  -6.764353e+01  -8.451558e+01
   8.424266e+01  -1.147882e+02
   1.731435e+02  -1.036738e+02
   6.139162e+01   3.740736e+01
  -4.971427e+01   6.368167e+01
  -1.028018e+02  -8.239780e+01
   1.353989e+01  -8.675823e+01
   3.901146e+01  -8.328513e+01
   1.135611e+02  -1.928449e+01
   8.137695e+01   1.044071e+02
   9.626632e+00   5.018313e+01
   4.252257e+01  -2.455576e+01
   1.509735e+01  -4.069147e+01
   8.404305e+00   8.107117e+01
  -6.486273e+01   1.171496e+02
  -1.185938e+02   1.558842e+02
  -1.609364e+02   2.520661e+01
  -1.202597e+02  -1.455100e+02
  -1.098202e+01  -9.276523e+01
   9.114244e+01  -5.753517e+01
   6.705640e+01   5.998826e+01
   7.305407e-01   4.729752e+01
  -1.634043e+02  -1.809232e+01
  -1.421099e+02  -1.418705e+02
   1.079981e+02  -9.882769e+01
   1.814545e+02  -9.934184e+01
   1.474389e+02  -1.837102e+01
   7.401170e+01   7.758375e+01
  -8.079112e+01   5.333128e+01
  -6.432751e+01   2.631313e+01
   2.523246e+01  -6.925527e+01
   1.543195e+02   4.715879e+01
   5.011581e+01   1.168976e+02
  -2.870382e+01   1.893130e+02
  -1.395499e+02   8.641348e+01
  -9.202524e+01  -8.363631e+01
  -4.263017e+01  -2.267106e+02
   3.831752e+01  -1.878597e+02
   1.192405e+02  -2.630224e+01
   9.760773e+01   9.091927e+01
   1.350290e+01   1.031538e+02
  -6.222305e+01   2.861519e+01
  -5.479932e+01  -4.342803e+01
  -4.072946e+01   3.030891e+01
   1.035823e+01   2.885341e+01
  -4.743885e+01  -5.716420e+01
  -1.668742e+01  -1.007469e+02
  -6.894267e+01  -6.434771e+01
   6.167153e+01  -5.648840e+01
   1.626677e+02  -1.576489e+01
   1.180684e+02   5.042203e+01
   2.389080e+01   4.499619e+01
  -1.185882e+02   1.708120e+01
  -1.637105e+02   8.242696e+01
  -2.188740e+01   8.845899e+00
   3.130224e+01  -7.723216e+01
   2.760638e+01  -3.019996e+01
   2.467080e+01  -1.350637e+01
  -1.310751e+01   1.440955e+01
   8.231854e+01  -2.489081e+01
   8.822668e+01  -1.198743e+01
  -2.745905e+01   9.353298e+01
  -1.350270e+02   1.384512e+02
  -1.289404e+02   7.347626e+01
  -1.007140e+02  -8.890143e+01
  -1.012878e+00  -1.381606e+02
   5.175763e+01  -1.368209e+02
   7.019180e+01  -3.235780e+01
   5.404492e+01  -2.059812e+01
   4.265630e+01   7.125013e+01
   1.585024e+01   1.635736e+00
   1.404468e+01  -3.683429e+01
   7.480163e+01   2.303177e+01
   1.984141e+01   8.610735e+01
  -8.122967e+01   7.141901e+01
  -1.168493e+02  -5.667118e+01
  -6.629703e+01  -1.246652e+02
  -1.968643e+01  -9.928169e+01
   6.776392e+01   8.544098e+00
   1.162354e+02   8.504878e+01
   4.472190e+01   9.695910e+01
  -7.159504e+01   1.058182e+02
  -9.453923e+01   1.791325e+00
  -9.107303e+01  -4.617841e+01
   4.516646e+00  -5.829652e+01
   2.795313e+01  -2.425102e+01
  -1.507143e+00   1.569737e+00
  -4.408867e+01  -1.392958e+01
  -5.423731e+01  -5.548881e+01
   7.475466e+01  -6.494470e+01
   9.195094e+01  -5.945637e+01
   8.032376e+01   2.448457e+01
  -2.832243e+01   1.164167e+02
  -3.327440e+01   7.372396e+01
   1.087916e+01   4.036623e+00
   2.871793e+01  -2.656653e+01
   1.285576e+01  -2.987037e+00
   1.930160e+01   5.052264e+01
  -2.507589e+01   9.328746e+01
  -9.198124e+00   1.232307e+00
  -2.897493e+00  -8.334204e+00
  -3.347812e+01  -3.536678e+01
   5.155480e+00  -2.945896e+01
  -2.469168e+01   3.392703e+00
  -1.093393e+01  -4.188491e+01
  -1.904489e+01  -4.717503e+01
   3.221449e+01  -3.118766e+01
   7.040489e+01   1.557931e+01
   7.655372e+01   1.063932e+02
   4.616340e+01   5.380739e+01
  -2.420457e+01   3.214907e+01
  -2.272672e+01   1.650567e+01
  -3.858433e+01  -6.619469e+01
   6.750997e+01  -2.283003e+01
   8.136565e+01  -2.848008e+01
   7.938121e+00   1.760813e+01
  -5.375575e+01   2.427231e+01
  -6.260613e+01  -6.734666e+00
  -2.513871e+01   4.671637e+00
   2.927642e+01  -1.286620e+01
   7.962995e+01   4.405594e+01
  -2.041502e+01   4.844562e+01
  -8.750538e+01   1.054754e+01
