
 $NMID
 id='ANONYMOUS ', fmtdat='(2E16.6)'
 volume=1.0
 tramp=1.0
 $END
   3.206991e+03   2.312859e+02
   1.975578e+03   1.642912e+03
  -1.366662e+02   1.820597e+03
  -1.210361e+03   8.504967e+02
  -6.176424e+02  -3.636513e+00
   1.990502e+02  -1.852381e+02
   3.992228e+02   2.886782e+02
   6.339592e+01   6.108443e+02
  -4.669312e+02   5.199582e+02
  -5.675681e+02   2.336065e+01
  -2.869678e+02  -5.228703e+02
   7.386219e+01  -5.365448e+02
   3.193289e+02  -7.157294e+01
   2.569215e+02   4.456712e+02
  -4.335082e+01   5.019996e+02
  -3.284227e+02  -2.580124e+01
  -2.109428e+02  -3.946621e+02
   1.002520e+02  -4.820934e+02
   3.683647e+02  -1.989347e+02
   2.705347e+02   1.147024e+02
   3.643919e+01   2.998739e+02
  -1.817554e+02   1.624472e+02
  -1.275337e+02   1.377963e+01
   1.928587e+02  -3.131948e+01
   3.635113e+02   2.405322e+02
   8.394210e+01   2.644578e+02
  -4.332208e+02   1.669250e+02
  -5.360407e+02  -1.318293e+02
  -2.552495e+02  -3.137290e+02
   2.607047e+02  -3.032645e+02
   4.677799e+02   8.619142e+01
   2.214639e+02   3.807512e+02
  -2.331618e+02   3.170872e+02
  -3.671334e+02   1.890357e+02
  -3.000461e+02  -1.599735e+02
  -4.949859e+01  -2.972361e+02
   7.812088e+01  -1.798274e+02
   5.269324e+00   1.633527e+02
  -1.993061e+02   2.525038e+02
  -2.822546e+02  -8.005660e+01
  -1.255921e+02  -5.218158e+02
   2.265338e+02  -4.465794e+02
   4.224876e+02  -5.583442e+01
   2.061516e+02   3.501468e+02
  -1.376193e+02   1.509381e+02
  -2.048018e+02  -1.762374e+02
   2.677964e+01  -3.220054e+02
   3.974279e+02  -3.052744e+01
   4.266856e+02   2.938670e+02
   1.828938e+02   4.178463e+02
  -3.199145e+02   2.197781e+02
  -4.998696e+02  -1.161032e+02
  -3.064654e+02  -2.926348e+02
   1.270966e+02  -2.866301e+02
   3.245949e+02  -7.694266e+01
   2.107797e+02   7.186862e+01
   6.901753e+00   4.699932e+01
  -3.150590e+01  -1.320334e+01
   6.006457e+01  -8.109241e+01
   2.026734e+02   4.138684e+01
   7.447429e+01   1.677107e+02
  -1.324884e+02   1.881240e+02
  -2.420986e+02   5.251097e+01
  -1.702587e+02  -3.332767e+01
  -1.218364e+01  -2.071001e+02
   2.084570e+02  -2.912042e+02
   3.119183e+02  -2.178205e+02
   2.195364e+02   1.093908e+02
   2.336941e+01   2.918917e+02
  -6.447130e+01   3.201364e+02
  -4.658563e+01   1.033501e+02
   6.542525e+00   1.943415e+01
  -4.280680e+01   5.797202e+01
  -1.163172e+02   7.796645e+01
  -1.739919e+02  -7.331075e+01
  -1.575133e+02  -2.247678e+02
   4.255310e+01  -2.407582e+02
   2.038004e+02   4.114915e+01
   1.779196e+02   2.580367e+02
  -1.412107e+01   2.129406e+02
  -2.013957e+02   6.040769e+01
  -3.230275e+02  -1.505887e+02
  -1.659777e+02  -2.236394e+02
   4.037971e+01  -2.307375e+02
   1.933193e+02  -1.032104e+02
   9.340847e+01  -4.169064e+01
   9.568264e+01  -7.332427e+01
   2.155681e+02  -7.021978e+01
   3.725602e+02   5.565198e+01
   2.818559e+02   2.472732e+02
   1.727369e+01   3.717136e+02
  -3.192690e+02   3.964948e+02
  -3.895560e+02   2.436847e+02
  -2.568774e+02  -5.164924e+01
  -2.812504e+01  -2.682935e+02
   5.318842e+01  -2.496423e+02
   2.370655e+00  -4.377107e+01
  -8.486586e+01   5.851324e+01
  -9.295706e+01  -2.045960e+01
  -3.808324e+01  -9.927829e+01
   1.365012e+02  -1.000004e+02
   1.325839e+02   3.978360e+01
   4.193418e+01   8.229797e+01
  -1.316901e+02   7.043042e+01
  -1.391561e+02  -1.543921e+02
   3.251347e+01  -2.273915e+02
   1.964013e+02  -1.993194e+02
   3.021321e+02   2.386813e+01
   2.229203e+02   1.621258e+02
   6.317125e+01   2.266548e+02
  -9.320022e+01   1.275377e+02
  -1.349621e+02   6.614929e+01
  -5.100381e+01   3.111223e+01
   7.039118e+01   3.994981e+01
   3.323121e+00   9.414965e+01
  -1.435784e+02   3.937923e+01
  -1.812276e+02  -4.623917e+01
  -4.150998e+01  -6.886219e+01
   1.304021e+02  -4.336374e+01
   7.740858e+01   3.290954e+01
  -8.618024e+01   9.340144e+01
  -2.393654e+02   2.503516e+01
  -2.178713e+02  -1.221621e+02
  -1.350251e+01  -2.377092e+02
   1.992865e+02  -2.140893e+02
   2.530195e+02  -7.942641e+01
   1.178481e+02   3.176058e+01
  -3.534360e+01   6.446322e+01
  -6.502269e+01   2.951812e+01
   8.278020e+01  -3.774459e+01
   1.893484e+02  -6.147697e+01
   1.864341e+02   1.097336e+02
   5.082144e+01   1.666530e+02
  -1.027495e+02   1.365796e+02
  -1.107130e+02   1.753520e+01
  -5.367604e+01  -3.911246e+01
   4.171740e+01  -1.958760e+01
   3.751785e+01   4.524003e+01
  -2.878827e+01   6.988768e+01
  -1.436397e+02   2.643625e+01
  -1.207236e+02  -1.942983e+02
   3.795487e+00  -1.823190e+02
   1.214821e+02  -1.147420e+02
   1.839693e+02   4.017417e+01
   8.148709e+01   8.383801e+01
  -4.597250e+01   8.392407e+01
  -6.189960e+01   5.985518e+01
  -2.122353e+01   4.631545e+01
   2.714639e+01  -3.246869e+00
   1.913908e+01   2.781050e+01
  -1.044826e+02  -2.491547e+01
  -7.559681e+01  -1.173545e+02
   2.466437e+01  -1.571387e+02
   1.616788e+02  -1.157311e+02
   2.323485e+02   2.954794e+01
   1.454900e+02   1.471530e+02
  -4.897467e+00   1.778576e+02
  -9.182241e+01   9.704735e+01
  -1.057099e+02   1.053803e+01
  -2.726744e+01  -4.890408e+01
   2.594560e+01  -4.573770e+01
  -4.285769e+01   1.751725e+01
  -5.954186e+01   1.244188e+01
  -4.193063e+01  -3.959276e+01
   6.785897e+01  -1.004920e+02
   8.805346e+01  -4.163538e+01
   1.040933e+02   5.908468e+01
  -1.659152e+01   5.715313e+01
  -8.538336e+01   5.011096e+01
  -1.710277e+02  -2.752587e+01
  -1.015124e+02  -1.595279e+02
   9.768058e+01  -1.584834e+02
   2.557819e+02  -9.500863e+01
   2.089544e+02   7.177510e+01
   5.596942e+01   1.375090e+02
  -5.513832e+01   1.392305e+02
  -3.380323e+01   7.638627e+01
  -5.236991e+01   3.635742e+01
  -3.300764e+01   7.405192e+01
  -6.444254e+01   9.036337e+01
  -1.554883e+02  -2.378035e+01
  -8.105926e+01  -1.125680e+02
  -3.428753e+01  -1.907899e+02
   8.344961e+01  -1.474352e+02
   2.261435e+02  -9.295684e+00
   1.239823e+02   1.165483e+02
   3.439119e+01   1.824633e+02
  -1.096949e+02   1.103742e+02
  -6.521653e+01   4.241868e+01
   2.707932e+01  -1.287965e+01
   1.527955e+01  -9.893823e+00
   2.345376e+00  -1.459385e+00
  -4.772351e+01   2.392728e+01
  -7.365110e+01   1.417541e+01
   2.560207e+01   6.297784e+00
   1.792350e+02  -3.159065e+01
   1.223842e+02   4.789549e-01
   5.887928e+00   2.130293e+01
  -1.019549e+02   7.056237e+01
  -1.046276e+02   1.365963e+01
  -2.357516e+01  -1.881303e+01
   4.978550e+01  -3.048126e+00
   9.988070e+01   2.214860e+01
  -4.057206e+00   5.462674e+01
  -1.051111e+01   1.462221e+01
  -6.187891e+01   5.544286e+00
  -9.833849e+01  -6.275893e+01
  -2.390884e+01  -2.792321e+01
  -6.014250e+01   4.553574e+00
  -2.259276e+01   1.199425e+01
  -2.524294e+01  -8.545276e+01
   4.646064e+01  -1.265505e+02
   1.274866e+02  -1.097868e+02
   1.724667e+02  -9.572227e+00
   1.045213e+02   7.538045e+01
   3.754605e+01   1.131062e+02
  -3.840419e+01   2.886459e+01
  -3.683663e+01   1.009388e+01
   5.115615e+01  -2.351601e+01
   8.948158e+01   8.325228e+01
   1.024719e+02   1.079807e+02
  -6.470482e+01   1.017727e+02
  -1.537832e+02   9.055323e+01
  -1.276439e+02   9.406625e+00
  -4.252094e+01  -1.386942e+02
   7.474679e+01  -3.467124e+01
   5.495922e+01   1.237862e+00
  -4.352864e+01   3.495610e+01
  -5.892934e+01   9.021238e+00
  -5.628418e+01  -1.095714e+02
   7.117193e+01  -1.203831e+02
   1.463362e+02  -7.943286e+01
   1.087656e+02   6.749715e+01
   1.704346e+01   1.844600e+02
  -1.263662e+02   1.191695e+02
  -9.201644e+01  -1.530681e+01
  -2.335067e+01  -8.532333e+01
  -2.834932e+01  -1.141232e+02
   2.905753e+01  -9.856092e+00
   8.051694e+01   4.148311e+00
  -2.596510e+00   3.465636e+01
  -2.883096e+01  -1.174759e+00
   1.679096e+01   1.453193e+01
   3.046555e+01   8.076659e+01
   8.637948e+01   8.049930e+01
  -1.139173e+01   5.757811e+01
  -1.471372e+02  -7.915093e+00
  -1.403938e+02  -4.704674e+01
  -5.045343e+01  -2.439728e+01
   7.338982e+01  -2.494417e+01
   7.335427e+01  -2.149549e+00
   3.929551e+00   2.110641e+01
  -6.734306e+01   2.780047e+01
  -3.793415e+01  -2.283207e+01
   3.569190e+01  -2.738621e+01
   2.193383e+01   1.212363e+01
  -7.229057e+01   5.995636e+00
  -1.090420e+02  -4.326641e+01
  -4.994590e+00  -8.106009e+01
   1.056439e+02  -1.050844e+02
   1.933379e+02  -7.879363e+01
   1.544135e+02   4.782486e+01
   5.195294e+01   1.683806e+02
  -1.367294e+02   1.991512e+02
  -1.064461e+02   8.124568e+01
  -7.885652e+01   1.100392e+01
  -2.836927e+01  -5.831163e+00
   2.095723e+01  -6.152060e-01
   1.061972e+01   1.737424e+01
  -3.981313e+01  -2.226400e+01
  -1.131120e+01  -6.301195e+01
   2.600606e+01  -9.670822e+01
   6.418005e+01  -2.385091e+01
   5.512893e+01   7.626032e+01
   1.507550e+01   1.207560e+02
  -5.907577e+01   7.169615e+01
  -8.622973e+01  -2.517370e+01
  -4.223970e+01  -5.182599e+01
   2.469773e+01  -5.239404e+01
   7.695433e+01   1.423670e+01
   2.682950e+01   5.682609e+01
   1.241340e+01   6.125375e+01
  -2.281604e+01   4.459793e+01
   3.975065e+01   3.913029e+01
   4.586250e+01   1.919300e+00
   3.545326e+01   1.341200e+01
  -5.349712e+01   3.731107e+01
  -1.326373e+02   5.181424e+01
  -6.669033e+01   4.817435e+01
   2.812581e+01  -7.480553e+00
   2.840741e+01  -6.795957e+01
   2.975568e+01   2.092970e+01
   1.567030e+01   5.389239e+01
  -4.213700e+01   9.760736e+01
  -5.302433e+01   4.713072e+01
  -3.451913e+01   1.099227e+01
  -1.999991e+01  -3.599444e+01
   6.820639e+00   4.061965e+01
   1.306276e+01   5.475798e+01
   4.276071e+01   3.055774e+01
  -5.159550e+01  -6.475817e+01
   3.118386e+00  -8.676848e+00
   3.928549e+01   2.651684e+01
   9.702556e+00   5.671433e+01
  -6.328325e+00   4.095513e+01
  -4.175091e+01  -6.442141e-01
  -1.924625e+01  -5.833390e+01
  -1.299147e+01  -1.914284e+01
   5.652757e+01  -1.014276e+01
   4.993483e+01   8.033824e+01
  -7.374056e+01   6.754652e+01
  -9.802797e+01   2.801029e+00
  -8.325609e+01  -9.950801e+00
   3.536280e+01  -1.231683e+01
   3.986211e+01  -8.070697e+01
   7.965732e+00  -3.712308e+01
  -3.001927e+01   2.859336e+01
  -3.918250e+01   6.622708e+01
  -1.695732e+01  -2.063531e+01
   5.943304e+01  -2.311587e+01
