
 $NMID
 id='ANONYMOUS ', fmtdat='(2E16.6)'
 volume=1.0
 tramp=1.0
 $END
  -5.193777e+03  -2.348582e+02
  -2.786881e+03  -2.793027e+03
   9.790972e+02  -2.770155e+03
   2.441541e+03  -8.933822e+02
   1.047895e+03   8.475246e+02
  -9.864632e+02   6.631902e+02
  -9.593965e+02  -6.697322e+02
   6.512593e+01  -1.130482e+03
   9.829107e+02  -7.745100e+02
   1.000135e+03   1.507921e+02
   4.698967e+02   8.714947e+02
  -1.871980e+02   9.068111e+02
  -7.310044e+02   1.181340e+02
  -4.681215e+02  -9.453654e+02
   3.731914e+02  -7.288088e+02
   6.557974e+02   5.631384e+01
   2.732040e+02   7.587361e+02
  -4.396755e+02   6.500054e+02
  -6.882647e+02  -2.040152e+01
  -4.297057e+02  -2.822798e+02
  -6.931382e+01  -4.659193e+02
   1.878721e+02  -2.331215e+02
   2.713452e+02  -6.593848e+01
  -1.230308e+02   1.206003e+02
  -4.111358e+02  -1.118869e+02
  -2.436880e+02  -4.438808e+02
   4.766551e+02  -3.939962e+02
   9.417352e+02   7.537514e+01
   4.198131e+02   5.829681e+02
  -4.387164e+02   5.177923e+02
  -8.089682e+02  -4.179561e+01
  -4.450976e+02  -4.616919e+02
   3.033564e+02  -6.052400e+02
   6.583806e+02  -2.250505e+02
   4.350621e+02   1.768640e+02
   6.973600e+01   4.812058e+02
  -2.071344e+02   3.571259e+02
  -1.861744e+02  -2.607126e+02
   1.738150e+02  -4.875019e+02
   4.936334e+02  -3.052799e+01
   2.930562e+02   7.417282e+02
  -3.347341e+02   7.693447e+02
  -6.407979e+02   2.008187e+00
  -2.818494e+02  -5.862390e+02
   2.852458e+02  -4.046322e+02
   4.061503e+02   3.602262e+02
  -5.638316e+01   6.495912e+02
  -5.472479e+02   1.831973e+02
  -6.438198e+02  -4.126529e+02
  -1.903006e+02  -6.700795e+02
   4.054782e+02  -3.541525e+02
   6.260093e+02   9.127493e+01
   4.021649e+02   4.426790e+02
  -1.878339e+02   4.026020e+02
  -4.631108e+02   8.203369e+01
  -2.607954e+02  -2.016135e+02
   1.422133e+02  -1.003812e+02
   1.463550e+02   1.755470e+02
  -1.661755e+02   2.456694e+02
  -3.734393e+02  -9.485663e+01
  -1.724303e+02  -3.147945e+02
   2.389270e+02  -2.113305e+02
   3.289971e+02  -5.071624e+01
   1.643256e+02   1.130822e+02
   4.996396e+00   1.759918e+02
  -2.402131e+02   3.148512e+02
  -3.648929e+02   2.312429e+02
  -3.083930e+02  -1.027722e+02
  -8.895657e+01  -4.809696e+02
   1.294119e+02  -4.189275e+02
   7.335603e+01  -6.938265e+01
   1.818509e+01   1.741588e+01
   8.750470e+01  -5.758521e+01
   2.168302e+02  -1.515562e+02
   2.873234e+02   7.080560e+01
   1.308684e+02   3.859659e+02
  -1.380586e+02   3.552847e+02
  -2.829601e+02   3.386114e+01
  -2.527346e+02  -2.447112e+02
  -4.327734e+01  -3.467880e+02
   3.059311e+02  -1.859794e+02
   4.286700e+02   1.721164e+02
   2.087000e+02   3.798803e+02
  -1.448571e+02   3.656258e+02
  -2.628639e+02   1.493524e+02
  -2.010990e+02   1.632749e+01
  -6.864377e+01   7.415898e+01
  -2.462362e+02   6.400874e+01
  -3.925532e+02  -6.956974e+01
  -3.742502e+02  -2.682667e+02
  -1.531923e+01  -4.613557e+02
   3.581758e+02  -4.548624e+02
   4.234738e+02  -1.872196e+02
   3.399092e+02   7.878808e+01
   6.434773e+01   2.858032e+02
  -1.380621e+02   2.649679e+02
  -7.352204e+01   1.342460e+01
   8.673002e+01  -1.508346e+02
   1.741146e+02  -1.451512e+01
   5.209890e+01   1.806119e+02
  -1.305664e+02   1.387370e+02
  -1.830078e+02  -4.200722e+01
   2.514966e+01  -1.805199e+02
   2.276713e+02   5.197862e+00
   2.158324e+02   2.676745e+02
  -2.753184e+01   3.710326e+02
  -2.887480e+02   1.862241e+02
  -3.159972e+02  -5.912039e+01
  -2.489344e+02  -1.979254e+02
  -1.163833e+02  -2.315144e+02
   1.175454e+02  -1.838615e+02
   1.744814e+02  -6.812028e+01
   7.498883e+01  -3.290314e+00
  -5.169288e+01  -1.395819e+01
  -5.974570e+01  -9.961100e+01
   1.423303e+02  -1.320653e+02
   1.632935e+02   3.290134e+01
   8.084970e+01   1.523840e+02
  -9.233413e+01   5.697056e+01
  -8.992173e+01  -1.076129e+02
   1.083303e+02  -1.021028e+02
   2.624940e+02  -2.510327e+01
   2.465243e+02   1.389876e+02
   5.295230e+01   2.104810e+02
  -1.052382e+02   2.729186e+02
  -2.954091e+02   1.880079e+02
  -1.626066e+02  -5.624456e+01
   1.863241e+01  -1.767692e+02
   1.108875e+02  -6.949559e+01
  -3.859750e+00   7.148680e+01
  -1.415880e+02   9.021420e+01
  -1.850841e+02  -7.067561e+01
  -4.790471e+01  -2.079561e+02
   4.071935e+01  -1.319872e+02
   1.585178e+02  -3.587035e+01
   7.479006e+01  -6.558333e+00
  -2.591306e+01  -3.201399e+01
  -2.660151e+01  -5.061436e+01
   9.428572e+01  -1.431255e+02
   1.555409e+02  -2.759544e+01
   1.900432e+02   1.409284e+02
   1.195227e+01   2.451566e+02
  -1.977407e+02   1.495755e+02
  -2.170421e+02   4.873348e+01
  -7.484488e+01  -1.127404e+02
   5.088062e+00  -1.234313e+02
   5.030924e+01  -4.170938e+01
  -1.316300e+01  -7.109959e+00
   2.953146e+01  -3.324941e+01
   2.502418e+01  -2.935815e+01
   5.789423e+01   4.473243e+00
   1.250500e+02   6.842765e+01
   4.542086e+01   1.536002e+02
  -8.579107e+01   1.636005e+02
  -1.664671e+02   7.692869e+01
  -1.733799e+02  -1.166478e+02
  -4.520390e+01  -2.262958e+02
   9.515397e+01  -1.569238e+02
   1.682987e+02  -3.045387e+01
   3.122757e+01   9.208313e+01
   7.369939e+01   6.758650e+01
   3.164697e+01  -1.460797e+01
   6.400356e+01  -5.907834e+01
   1.927439e+01   3.188096e+01
  -5.662265e+01   7.454378e+01
  -1.228241e+02   5.103159e+01
  -2.070420e+01  -2.564825e+01
   4.615998e+01  -1.175113e+02
   1.465956e+02  -4.109743e+01
   2.466621e+02   1.708422e+01
   7.892946e+01   1.642999e+02
  -8.982042e+01   2.021709e+02
  -2.273649e+02   1.468813e+02
  -2.341540e+02  -5.677007e+01
  -8.624692e+01  -1.204875e+02
   4.787618e+01  -1.434426e+02
   9.412325e+01  -1.201135e+02
   6.133494e+01  -2.634889e+01
   1.094823e+02  -5.874046e+01
   8.539943e+01  -3.612582e+01
   1.579965e+02   1.075970e+01
   6.303321e+01   1.620614e+02
   1.865366e+01   2.776727e+02
  -1.052274e+02   1.240533e+02
  -1.283053e+02  -2.008136e+01
  -1.455775e+02  -1.378179e+02
   3.131513e+01  -1.984902e+02
   7.353595e+01  -8.357811e+01
   7.116418e+01  -7.557817e+00
  -8.033791e+00   1.841698e+01
  -4.801402e+01   2.625259e+01
   1.464680e+01   2.424821e+01
   8.181800e+01  -5.811411e+00
   4.494129e+01   1.684941e+01
  -5.579284e+01   3.679428e+01
  -1.625500e+02  -2.070383e+01
  -1.107925e+02  -2.708418e+01
   4.554886e+01  -7.065710e+01
   1.302061e+02  -7.943342e+01
   1.309284e+02   9.731591e+00
   3.639073e+01   3.354994e+01
  -9.447042e+01   1.682689e+01
  -7.928432e+01  -2.815744e+01
   1.452064e+01  -6.473450e+01
   5.719921e+01  -8.231592e+01
   6.635466e+01   1.662646e+01
  -1.609326e+01   5.874764e+01
   1.530926e+01   3.420961e+01
   7.275351e+01  -3.461894e+01
   1.041474e+02  -2.829311e+00
   4.159836e+01   8.487097e+01
  -1.069215e+01   1.640904e+02
  -9.910825e+01   1.465068e+02
  -1.308219e+02   3.888310e+01
  -1.099787e+02  -9.598851e+01
  -3.074948e+01  -1.432205e+02
   8.584482e+01  -1.012477e+02
   1.266076e+02  -1.258898e+00
  -9.347670e+00   2.466855e+01
  -8.833183e+01   1.661636e+00
  -7.240120e+01  -1.050103e+02
   7.069318e+01  -1.088251e+02
   1.614428e+02  -2.627800e+01
   1.305498e+02   5.803269e+01
   1.160067e+01   1.211516e+02
  -9.779855e+01   6.151799e+01
  -4.366497e+01   1.875738e+01
   4.049659e+01  -1.384628e+01
   9.658029e+01   7.830753e+00
   1.226230e+01   4.306074e+01
  -1.092076e+02   1.095781e+02
  -1.420337e+02   4.773791e+01
  -1.228157e+02  -9.465872e+01
  -5.002851e+00  -1.523372e+02
   1.243553e+02  -1.637226e+02
   1.148768e+02   3.812561e+00
   7.698351e+01   1.060506e+02
   3.331987e+01   1.334654e+02
  -6.695177e+01   1.685653e+01
  -9.710487e+01  -2.278974e+01
  -5.611739e+01   2.290847e+01
   2.059762e+01  -2.072775e+00
  -2.806258e+01   1.463719e+01
  -8.064734e+01  -6.741857e+01
  -2.198070e+01  -9.911107e+01
   1.694088e+00  -8.569347e+01
   1.159256e+02   4.306432e+01
   1.527655e+02   7.158685e+01
  -2.620144e+00   4.388988e+01
  -8.742640e+01   2.782269e+01
  -1.010080e+02   1.969201e+01
   1.335933e+01  -2.759687e+01
   1.100958e+02  -4.586683e+01
   1.271491e+01   1.010666e+01
  -2.330661e+01   4.412128e+01
  -1.099721e+01   9.167319e+00
   6.799755e+01  -3.466758e+01
   7.816350e+01   3.096085e+01
   2.851488e+01   7.824568e+00
  -1.149807e+02   1.197260e+02
  -1.827045e+02   7.907230e+01
  -1.578829e+02  -8.881424e+01
  -2.646818e+01  -1.714884e+02
   5.232877e+01  -1.858579e+02
   8.122241e+01  -3.780310e+01
   1.152908e+02   4.234543e+01
   4.771023e+01   5.497327e+01
  -1.308258e+01  -1.493206e+01
   1.473913e+01   2.781766e+01
   5.066701e+01   4.263154e+01
   4.235101e+01   8.185176e+01
  -1.452713e+01   5.929396e+01
  -8.765310e+01   2.300417e+01
  -9.404082e+01  -1.015023e+02
  -1.652904e+01  -9.519080e+01
   7.589717e+01  -4.010372e+01
   9.937476e+01   8.428193e+01
   1.966900e+01   1.022835e+02
  -5.808413e+01   6.716194e+01
  -1.025588e+02  -1.742684e+01
  -6.880650e+01  -9.757645e+01
   4.176287e+01  -3.340218e+01
   6.239334e+01  -1.129451e+01
   5.718473e+00   4.712671e+01
  -3.913381e+01   4.511865e+01
  -9.318884e+00  -2.052182e+01
   5.067858e+01  -6.580508e+01
   1.010718e+02  -5.871414e+01
   5.790804e+01   4.024471e+01
  -3.175300e+01   6.668709e+01
  -7.619992e+01   3.729633e+01
  -1.681484e+01   3.430894e+01
   1.097546e+01  -6.889615e+01
   1.357271e+01  -6.128876e+01
   2.728638e+01  -3.572298e+00
   2.453982e+01   5.617810e+01
   4.734380e+00   4.128908e+01
  -3.298128e+01   4.251554e+01
  -3.557944e+01   8.227567e+00
  -4.594362e+01   2.302212e+01
  -2.655869e+01   2.869380e-01
  -9.093941e+00  -5.730201e+01
   2.940661e+00  -5.518624e+01
   3.347041e+01  -3.338015e+01
   4.792486e+01   2.157488e+01
   2.940193e+01   7.630821e+01
  -2.162106e+00   4.312821e+01
  -4.827783e+01  -1.617271e+01
  -5.592853e+01  -5.229640e+01
   1.477023e+01  -6.897898e+01
   9.209494e+00  -3.116471e+01
   8.197355e+01   1.662217e+01
   7.474381e-01   1.865229e+01
  -2.419223e+01   5.850134e+01
  -7.849119e+01  -4.147438e+00
  -2.828373e+01  -3.622695e+00
   1.576564e+01  -3.818405e+01
   9.537556e+00  -1.690629e+01
   2.709469e+00   1.035631e+01
  -7.953215e+01   4.006578e+01
