
 $NMID
 id='ANONYMOUS ', fmtdat='(2E16.6)'
 volume=1.0
 tramp=1.0
 $END
  -4.759870e+03  -2.703809e+02
  -2.830965e+03  -2.918968e+03
   6.147164e+02  -3.100825e+03
   2.407746e+03  -1.114210e+03
   1.141004e+03   8.566931e+02
  -8.381082e+02   6.319724e+02
  -1.018041e+03  -5.427378e+02
   1.047040e+02  -1.153957e+03
   1.016351e+03  -8.771460e+02
   1.175618e+03   1.318590e+02
   3.910290e+02   9.877130e+02
  -1.991339e+02   1.045638e+03
  -6.836788e+02   1.609283e+02
  -3.288329e+02  -8.254940e+02
   2.036274e+02  -8.245440e+02
   6.442458e+02   2.153969e+01
   2.572369e+02   7.701503e+02
  -3.097000e+02   6.916068e+02
  -6.404065e+02   6.042697e+01
  -3.639446e+02  -4.366992e+02
   1.041035e+02  -4.241850e+02
   2.843940e+02  -2.799230e+02
   3.234050e+02   5.583275e+00
  -1.210341e+02   1.423866e+02
  -4.540838e+02  -1.343688e+02
  -2.009915e+02  -5.233351e+02
   5.996790e+02  -5.085840e+02
   9.014211e+02   6.663371e+01
   4.654400e+02   6.041535e+02
  -3.991306e+02   5.352017e+02
  -7.552164e+02   5.123317e+00
  -3.487882e+02  -3.983797e+02
   2.998360e+02  -6.061314e+02
   5.298552e+02  -1.989498e+02
   4.788889e+02   2.076062e+02
   9.148292e+01   4.858529e+02
  -2.390624e+02   3.352609e+02
  -2.137105e+02  -1.956161e+02
   1.557604e+02  -4.965406e+02
   5.038262e+02  -1.787286e+01
   3.471817e+02   7.311078e+02
  -2.847648e+02   8.004538e+02
  -7.187403e+02   7.919593e+01
  -3.036208e+02  -5.742633e+02
   2.976448e+02  -3.958232e+02
   4.146058e+02   3.329322e+02
  -1.106163e+02   6.143187e+02
  -6.181522e+02   1.685195e+02
  -6.244478e+02  -5.410711e+02
  -1.109921e+02  -6.320788e+02
   4.626524e+02  -3.464502e+02
   6.191085e+02   8.335520e+01
   3.151898e+02   4.263557e+02
  -2.604937e+02   3.580640e+02
  -4.624851e+02   4.386740e+01
  -2.297447e+02  -2.261709e+02
   1.792239e+02  -1.184511e+02
   1.491443e+02   2.004055e+02
  -1.880254e+02   2.213776e+02
  -3.673685e+02  -9.980862e+01
  -1.989320e+02  -4.115613e+02
   2.137017e+02  -3.099477e+02
   3.162970e+02  -9.872979e+01
   2.187454e+02   6.891861e+01
  -3.430608e+01   1.607999e+02
  -2.151112e+02   2.617212e+02
  -3.021559e+02   1.972474e+02
  -2.928105e+02  -1.016267e+02
  -8.981242e+01  -4.349719e+02
   1.029356e+02  -4.295779e+02
   4.759511e+01  -1.064688e+02
   3.842807e+01   1.496443e+01
   7.244571e+01  -7.115967e+01
   2.275530e+02  -1.541902e+02
   2.775383e+02   3.971644e+01
   1.368916e+02   2.351032e+02
  -3.503622e+01   2.487107e+02
  -1.871478e+02  -1.459446e+00
  -2.092506e+02  -2.591314e+02
  -2.320062e+01  -3.147925e+02
   2.350606e+02  -1.348670e+02
   3.693353e+02   1.496226e+02
   2.241043e+02   3.988439e+02
  -9.353316e+01   2.827107e+02
  -2.384567e+02   9.197848e+01
  -1.919883e+02  -2.453709e+01
  -1.161670e+02  -1.346006e+01
  -1.867061e+02   8.484951e+01
  -3.766678e+02  -3.391740e+01
  -3.214789e+02  -2.509235e+02
   5.055689e+01  -4.738872e+02
   3.488903e+02  -3.685375e+02
   4.914902e+02  -2.192716e+02
   3.752871e+02   5.675747e+01
   8.741503e+01   3.095262e+02
  -1.172088e+02   2.875799e+02
  -1.035354e+02   4.256793e+01
   1.089520e+02  -1.021940e+02
   2.173538e+02  -8.698922e+00
   1.013494e+02   2.064275e+02
  -2.090197e+02   2.392397e+02
  -1.568245e+02  -3.172312e+01
   6.423599e+01  -1.653124e+02
   2.034039e+02  -3.112976e+01
   1.610641e+02   2.936199e+02
  -3.017753e+01   3.457226e+02
  -2.745312e+02   2.540696e+02
  -3.544869e+02  -7.039977e+01
  -3.045922e+02  -2.887995e+02
  -1.110457e+02  -3.236602e+02
   9.956309e+01  -1.723547e+02
   2.027967e+02  -2.050256e+01
   1.218699e+02   1.773625e+01
  -5.887910e+01  -8.254964e+01
   2.726418e+01  -1.549352e+02
   1.490643e+02  -1.276185e+02
   1.721847e+02   5.099974e+01
   9.574768e+01   9.274428e+01
  -2.861161e+01   2.987929e+01
  -2.576223e+01  -6.773544e+01
   1.058222e+02  -7.726045e+01
   2.149876e+02  -2.638044e+01
   3.168006e+02   1.370097e+02
   9.611575e+01   2.529346e+02
  -1.529368e+02   2.995031e+02
  -3.379288e+02   1.451855e+02
  -1.649312e+02  -4.585330e+01
   8.255793e+00  -1.343087e+02
   1.150595e+02  -3.016696e+01
  -1.397717e+01   9.028127e+01
  -2.000609e+02   6.504775e+01
  -2.248890e+02  -9.367202e+01
  -7.335643e+01  -2.737109e+02
   1.256358e+02  -1.867212e+02
   1.563335e+02  -1.062239e+02
   8.084032e+01  -1.891878e+01
  -1.368723e+01   4.619360e+00
  -4.713321e+01  -5.321147e+01
   7.924796e+01  -1.304322e+02
   1.572550e+02  -8.923904e-02
   1.924540e+02   1.221429e+02
   1.212010e+01   2.019659e+02
  -2.079558e+02   1.709883e+02
  -2.122924e+02   2.329675e+01
  -9.580804e+01  -1.331785e+02
   3.072618e+01  -1.691978e+02
   8.092434e+01  -7.620543e+01
  -2.630620e+01   1.096862e+00
  -1.345539e+01   1.455449e+01
  -5.311647e+00   4.448360e+01
   7.690989e+01   5.163968e+01
   1.079883e+02   1.110973e+02
   6.969077e+01   1.550311e+02
  -8.267000e+01   1.654320e+02
  -2.455205e+02   1.307881e+01
  -2.079779e+02  -1.448223e+02
   1.883837e+01  -2.050738e+02
   9.505595e+01  -1.787404e+02
   1.415338e+02  -4.307935e+01
   7.256956e+01   1.322892e+02
   4.371427e+01  -7.236080e+00
   9.765942e+01  -1.680819e+01
   9.357733e+01   3.709125e+01
   2.360184e-01   5.192316e+01
  -4.794887e+01   4.945028e+01
  -1.106712e+02   1.234918e+01
  -7.898596e+01  -5.432211e+01
   2.177434e+01  -1.205726e+02
   1.058841e+02  -6.463724e+01
   2.194393e+02   6.909526e+01
   5.981124e+01   2.020074e+02
  -8.129617e+01   2.250378e+02
  -3.189540e+02   1.109214e+02
  -2.619107e+02  -5.867225e+01
  -1.135962e+02  -1.604341e+02
   5.473677e+00  -1.353345e+02
   9.535786e+01  -1.352474e+02
   1.093746e+02  -9.922268e+01
   6.275308e+01  -6.084992e+01
   7.673295e+01  -5.188285e+01
   7.624408e+01   2.754392e+01
   1.354835e+02   1.429425e+02
   4.348085e+01   2.185400e+02
  -6.787915e+01   2.498070e+02
  -1.675732e+02   1.763151e+01
  -1.681697e+02  -1.155899e+02
  -1.904847e+01  -1.667171e+02
   3.637397e+01  -9.328733e+01
   7.322097e+00  -2.437210e+00
  -3.790978e+01   3.609933e+01
  -1.540231e+01   3.933076e+01
   1.012618e+02   2.257153e+01
   1.291891e+02   7.905645e+01
   6.049812e+01   2.790281e+01
  -8.772532e+01   3.614044e+01
  -1.337072e+02   3.197154e+01
  -1.853184e+02  -5.472491e+00
  -1.672138e+00  -9.828710e+01
   1.688018e+02  -2.810663e+01
   1.808251e+02   3.733147e+01
   5.116840e+01   6.366810e+01
  -4.695315e+01   2.274209e+01
  -8.933438e+01  -2.953214e+01
  -2.857560e+01  -5.347457e+01
   6.295405e+01  -1.831155e+01
   6.970368e+01   4.795378e+01
   8.211978e+01   5.233782e+01
   6.493644e+01   3.225865e+01
   1.187883e+02  -4.873455e+01
   1.390205e+02  -1.821670e+00
   9.991090e+01   5.139833e+01
  -2.913916e+01   1.455860e+02
  -1.692034e+02   1.331781e+02
  -1.089705e+02   4.675439e+01
  -1.260250e+02  -7.288874e+01
  -1.711398e+01  -1.615127e+02
   7.573030e+01  -6.032881e+01
   6.339295e+01   5.014214e+01
  -8.998381e+01   4.800200e+01
  -1.253260e+02  -5.793790e+01
  -8.111825e+01  -6.402588e+01
   1.232531e+02  -1.166928e+02
   1.798366e+02  -4.971333e+01
   1.829822e+02  -1.345300e+01
   6.453196e+01   4.816870e+01
  -5.752130e+01   9.540723e+01
  -2.943275e+01  -1.175694e+01
   5.941475e+01  -6.454575e+01
   1.577692e+02   5.119276e+01
   6.107615e+01   1.338943e+02
  -1.053185e+02   1.738656e+02
  -1.741842e+02   1.043877e+02
  -1.750022e+02  -6.610908e+01
  -2.460938e+01  -2.407392e+02
   9.093059e+01  -1.634609e+02
   9.412714e+01   1.978779e+01
   5.119639e+01   6.931923e+01
   2.725020e+00   9.594882e+01
  -8.718741e+01  -1.010639e+01
  -4.682388e+01  -1.677715e+01
   1.682999e+01  -1.611756e+01
   2.920606e+01  -2.688316e+01
  -3.434733e+00   3.198325e+01
  -6.715206e+01  -4.545962e+01
  -5.279535e+01  -8.603917e+01
   8.937200e+01  -6.465714e+01
   1.388016e+02   7.651856e+01
   2.035636e+02   1.457647e+02
   2.660764e+01   7.495039e+01
  -1.161331e+02  -4.232021e+01
  -1.156283e+02  -3.378003e+01
  -6.869513e+01  -3.576956e+01
   8.973100e+01  -5.251799e+01
   2.457414e+01  -4.000205e+01
  -2.002301e+00  -2.964300e+01
   3.381217e+01   4.307467e+01
   5.825547e+01   2.955804e+01
   1.159013e+02   2.717583e+01
  -4.159269e+01   1.418427e+02
  -1.076539e+02   7.626784e+01
  -2.172863e+02   7.032552e+01
  -2.286632e+02  -7.940077e+01
  -3.406861e+01  -2.048839e+02
   8.868758e+01  -1.486946e+02
   1.222769e+02  -4.636279e+01
   7.065295e+01   5.274370e+01
   3.502409e+01   7.410015e+00
   9.615720e+00   6.465118e+00
   1.736358e+01   3.175381e+01
   4.689773e+01   6.651703e+01
   6.054329e+01   1.053789e+02
  -2.577125e+01   5.161394e+01
  -9.988126e+01   1.438927e+00
  -7.819787e+01  -1.134705e+02
  -1.208736e+01  -1.144661e+02
   7.745211e+01  -3.587791e+01
   9.510255e+01   4.776855e+01
  -2.664472e+00   6.192236e+01
  -5.825560e+01   6.323353e+01
  -1.077453e+02  -7.313719e+00
  -5.337885e+01  -4.357195e+01
   3.541291e+01  -3.979886e+01
   4.441437e+01   1.356910e+00
  -3.479589e+01   2.287230e+01
  -3.004749e+01  -2.066911e+01
   4.293722e+01   1.302761e+01
   8.657282e+01  -3.368759e+01
   1.420924e+02  -7.434394e+01
   6.311374e+01  -2.255533e+01
  -2.920852e+00   1.049027e+02
  -2.754472e+01   7.081537e+01
  -4.472305e+01   1.884329e+01
   1.008959e+01  -6.108365e+01
   4.964617e+01  -5.687913e+01
   4.059632e+01   5.208311e+01
   3.533341e+01   4.241530e+01
  -6.120255e+01   7.145446e+01
  -1.494859e+01   2.422165e+01
  -3.209667e+01  -1.011663e+01
  -4.685014e+01   1.753132e+01
   3.167187e+01   7.888920e+00
  -2.357154e+00  -1.280467e+01
   4.310781e+01  -1.464840e+01
   3.237834e+01  -5.869659e+01
   5.372907e+01   3.822162e+01
   4.945989e+01   8.828685e+01
  -3.038559e+01   8.589633e+01
  -5.302525e+01   1.700887e+01
  -9.065385e+01  -3.121336e+01
   7.366894e+00  -9.667441e+01
   1.070862e+02  -7.438306e+01
   1.095105e+02   9.166923e+01
   1.985003e+01   9.949380e+01
  -8.499501e+00   3.420182e+01
  -5.964111e+01  -1.068097e+01
  -4.996221e+01   1.892826e+01
  -2.633957e+01   1.682542e+01
   5.198982e+01  -8.984023e+00
  -6.568118e+01   7.589108e+01
  -8.327477e+01   3.187871e+01
