
 $NMID
 id='ANONYMOUS ', fmtdat='(2E16.6)'
 volume=1.0
 tramp=1.0
 $END
  -2.576713e+03  -1.790177e+02
  -1.792118e+03  -1.163312e+03
  -2.709095e+02  -1.573867e+03
   8.304641e+02  -1.213717e+03
   8.049151e+02  -3.998256e+02
   1.470192e+02  -7.608533e+01
  -8.707710e+01  -7.699078e+01
   1.466341e+02  -2.981518e+02
   4.311396e+02  -2.793080e+02
   4.630507e+02  -7.128247e+01
   3.684811e+02   2.938141e+02
   7.243985e+01   4.931217e+02
  -7.316845e+01   1.487805e+02
  -7.525636e+01  -3.131129e+02
   6.873451e+00  -3.531571e+02
   2.649784e+02  -8.444240e+01
   2.719500e+02   3.427195e+02
  -5.942329e+01   5.056590e+02
  -3.248938e+02   2.166347e+02
  -4.202437e+02  -5.407090e+01
  -1.583705e+02  -2.787709e+02
   9.429582e+01  -1.488366e+02
  -3.939748e-01  -1.558624e+02
  -1.731624e+02  -1.694734e+02
  -1.663279e+02  -2.673286e+02
   1.406986e+02  -2.443730e+02
   4.721657e+02   3.029842e+01
   3.742225e+02   2.481375e+02
   7.401915e+01   2.962943e+02
  -3.274495e+02   6.990595e+01
  -4.252029e+02  -1.684118e+02
  -7.740215e+01  -3.005120e+02
   2.230649e+02  -2.861873e+02
   3.051938e+02  -8.324550e+01
   2.254158e+02   1.178706e+02
   7.505165e+01   2.419770e+02
   7.834767e+01   1.174860e+02
   1.452743e+02  -6.029392e+01
   1.627611e+02   3.933697e+00
   1.073869e+02   2.201577e+02
  -7.699140e+01   3.806949e+02
  -1.787870e+02   3.358060e+02
  -1.980002e+02   2.192217e+01
  -9.373281e+01  -1.176820e+02
   3.902878e+01  -8.141770e-01
   2.889112e+01   2.174995e+02
  -1.122761e+02   2.740668e+02
  -3.451602e+02   2.013840e+00
  -4.015866e+02  -3.118363e+02
  -1.152615e+02  -3.919427e+02
   2.063514e+02  -1.377541e+02
   3.960143e+02   6.044206e+01
   3.056612e+02   1.826886e+02
   1.600090e+01   1.619000e+02
  -1.892308e+02   1.234642e+02
  -1.980339e+02   7.703241e+01
  -7.969519e+01   5.488889e+01
  -4.784594e+01   2.206648e+01
  -1.631697e+02  -5.266738e+01
  -2.089007e+02  -2.150272e+01
  -7.011505e+01  -7.046908e+01
   1.030279e+02  -1.542089e+02
   2.411109e+02  -1.413936e+02
   2.006291e+02   7.221803e+01
  -4.382916e+01   2.706592e+02
  -2.458930e+02   3.008160e+02
  -3.150928e+02   1.389509e+02
  -2.041849e+02  -1.517124e+02
  -3.283529e+01  -2.761056e+02
  -1.094009e+01  -2.533787e+02
  -2.629299e+01  -1.555799e+02
   7.248910e+00  -1.096906e+02
   1.719105e+02  -1.413445e+02
   2.557505e+02  -2.421727e+01
   1.700910e+02   1.843359e+02
   6.408997e+01   2.323740e+02
  -9.055742e+01   8.822157e+01
  -1.541330e+02  -6.099179e+01
  -9.615163e+01  -2.307663e+02
   6.700989e+01  -2.019775e+02
   1.866089e+02  -2.763429e+01
   2.490516e+02   1.192915e+02
   1.398304e+02   2.388357e+02
  -3.571208e+01   1.868512e+02
  -5.762809e+01   1.651349e+02
  -1.189958e+02   1.425597e+02
  -1.349340e+02   1.163789e+02
  -2.523509e+02   4.166792e+01
  -3.867423e+02  -8.827548e+01
  -2.511912e+02  -2.684232e+02
  -1.080932e+00  -3.664010e+02
   3.154551e+02  -3.155032e+02
   4.116173e+02  -1.648720e+02
   2.561325e+02   7.050070e+01
   4.278303e+01   2.406150e+02
  -2.253242e+01   1.437171e+02
   3.930754e+01   5.792222e+01
   7.057822e+01   2.643701e+01
   9.853535e+01   5.704486e+01
  -1.808635e+01   1.388276e+02
  -8.253634e+01   4.240522e+01
  -4.696511e+01  -1.933249e+01
   7.503333e+00  -9.628857e+01
   1.465491e+02   5.447255e+01
   1.088610e+02   1.925950e+02
  -2.393607e+01   2.452357e+02
  -1.977588e+02   1.447982e+02
  -3.522829e+02  -2.832358e+01
  -2.495075e+02  -2.219078e+02
  -2.288033e+01  -2.311367e+02
   9.356261e+01  -1.123712e+02
   1.082749e+02  -1.661037e+01
   6.947243e+01  -1.323472e+01
   1.027292e+01  -1.185809e+02
   4.817384e+01  -9.137437e+01
   1.418642e+02  -1.762665e+01
   1.232626e+02   4.725395e+01
   4.230750e+01   5.810365e+01
  -1.300585e+02  -1.118249e+01
  -1.257028e+01  -8.087996e+01
   1.477621e+02  -2.680958e+01
   2.733021e+02   4.715481e+01
   2.336699e+02   2.134299e+02
   4.767991e+01   2.353230e+02
  -2.027771e+02   1.903563e+02
  -2.103504e+02   6.497379e+01
  -1.244057e+02  -3.350125e+01
   1.532233e+00  -4.662431e+01
   2.384501e+01   4.797528e+01
  -1.103017e+02   1.020417e+02
  -1.637686e+02   2.070107e+01
  -1.699882e+02  -5.538882e+01
  -6.023842e+01  -1.506622e+02
   4.384023e+01  -7.184200e+01
   8.803573e+01  -1.590066e+01
  -1.386378e+00  -1.134768e+01
  -9.296264e+01  -6.977260e+01
  -3.365172e+01  -1.559668e+02
   5.331772e+01  -1.006005e+02
   2.041032e+02   3.123450e+01
   1.701605e+02   1.290460e+02
   4.311232e+00   1.738645e+02
  -1.306264e+02   1.177991e+02
  -1.579803e+02  -2.432008e+01
  -4.061774e+01  -9.949759e+01
   7.197047e+01  -8.961607e+01
   9.004274e+01  -2.899231e+01
   4.609841e+00   5.273815e+00
  -3.785426e+01   7.807718e+00
   9.827575e+00  -4.299891e+01
   9.466485e+01   3.998161e+01
   6.628005e+01   9.167842e+01
  -1.719529e+01   1.717436e+02
  -1.671261e+02   1.466701e+02
  -2.138150e+02  -4.539013e+01
  -1.606627e+02  -1.780975e+02
  -1.078161e+01  -1.652851e+02
   1.065793e+02  -7.620341e+01
   5.932315e+01  -3.291934e+01
   1.546156e+01   3.949602e+01
   2.050442e+01   2.587842e+01
   6.215349e+01  -4.365153e+01
   8.095827e+01  -2.241361e+01
   4.662084e+01   3.767417e+01
  -4.001661e+01   1.140211e+02
  -1.200302e+02   8.720141e+01
  -7.612114e+01  -3.640965e+01
   4.963342e+01  -9.758319e+01
   1.236513e+02  -4.637168e+01
   1.766595e+02   9.201148e+01
   4.135183e+01   2.292288e+02
  -1.215279e+02   1.724481e+02
  -2.540703e+02   4.189275e+01
  -2.233829e+02  -9.257460e+01
  -8.807536e+01  -9.815156e+01
   2.656054e+01  -1.363262e+02
   2.245495e+01  -3.030325e+01
   2.330655e+01  -3.611985e+01
   6.530921e+01  -9.029895e+01
   4.604035e+01  -5.310045e+01
   8.098278e+01   2.180339e+01
   8.236211e+01   1.609936e+02
  -1.275944e+01   1.874318e+02
  -9.459287e+01   8.290383e+01
  -1.427562e+02  -6.481323e+01
  -1.358655e+02  -1.527381e+02
   3.545853e+01  -1.441666e+02
   8.908638e+01  -3.690361e+01
   6.079357e+01   3.751682e+01
  -5.181490e+01   3.335573e+01
  -7.364514e+01   3.106338e+01
   4.374539e+01   2.589055e+01
   4.949561e+01   1.099448e+01
   4.046266e+01   2.117417e+01
  -1.159137e+02   1.297439e+01
  -1.754897e+02  -9.108429e+00
  -1.338713e+02  -4.894093e+01
   3.328309e+01  -6.454413e+01
   1.639860e+02  -4.495731e+01
   1.465164e+02   5.651040e+00
  -2.318597e+00   4.914979e+01
  -8.833585e+01   4.115467e+01
  -1.180064e+02   8.136801e+00
  -5.783317e+01  -5.689020e+01
   3.226232e+01  -4.803221e+01
   6.417059e+01  -3.020768e+01
   6.169395e+01   1.532394e+01
   4.444267e+00   1.791831e+01
   7.907025e+01   5.351875e+00
   6.995518e+01  -1.752352e+01
   3.858067e+01   7.460608e+01
  -7.496264e+01   1.361194e+02
  -1.143630e+02   1.398268e+02
  -1.377888e+02   2.906803e+01
  -6.662463e+01  -8.128879e+01
   8.371658e+00  -1.068413e+02
   1.066103e+02  -7.226884e+01
   8.470889e+01   3.245944e+01
  -7.172860e+01   2.918428e+01
  -1.539288e+02  -3.144226e+01
  -4.602395e+01  -7.776812e+01
   1.026371e+02  -9.814745e+01
   1.746089e+02  -9.375363e+01
   1.331892e+02   2.131785e+01
  -7.570719e+01   7.082975e+01
  -7.389507e+01   4.622008e+01
  -2.567930e+01   9.482847e+00
   5.644399e+01  -5.278454e+01
   8.519468e+01   2.684745e+01
   2.090229e+01   6.660528e+01
  -9.750377e+01   1.117614e+02
  -1.535508e+02   2.866404e+01
  -9.851541e+01  -6.708141e+01
  -2.527942e+01  -1.908411e+02
   9.929573e+01  -6.357124e+01
   7.728182e+01   1.343363e+01
   3.171265e+01   1.055670e+02
  -1.541030e+01   7.098334e+01
  -1.680182e+01  -6.880063e+00
  -2.461340e+01  -3.431271e+01
  -2.774692e+01  -4.296519e+01
  -4.527823e+01   2.066228e+01
  -8.259552e+01  -5.993099e+01
  -2.333296e+01  -1.142598e+02
  -1.669215e+01  -1.242016e+02
   7.867867e+01  -3.655491e+01
   1.334805e+02   3.703844e+01
   1.289822e+02   5.437643e+01
   3.093067e+01   1.861935e+01
  -4.951283e+01   4.865810e+00
  -3.856373e+01  -9.456502e-01
   2.220653e+01   1.545473e+01
   6.512646e+01  -2.726180e+01
   2.141658e+01  -1.570240e+00
  -4.469664e+01  -6.698309e+00
  -8.933028e-01  -1.953251e+01
   4.639622e+01   2.083748e+01
   9.106373e+01   4.886951e+00
   4.168177e+01   3.179670e+01
  -9.348455e+01   1.347366e+02
  -1.805534e+02   3.391312e+01
  -1.075897e+02  -3.832959e+01
  -1.737834e+01  -1.505337e+02
   7.353594e+01  -1.612844e+02
   1.040665e+02  -5.134149e+00
   6.240273e+01  -1.002511e+01
   3.826897e+01   1.991964e+01
   2.258349e-01   4.757369e+01
   2.674519e+01  -1.750830e+00
   1.447851e+01   3.405425e+01
  -2.733878e+01   9.209982e+01
  -9.035871e+01   8.875745e+01
  -1.124076e+02  -5.318145e+01
  -8.275199e+01  -1.033739e+02
  -9.278131e+00  -6.632027e+01
   1.053397e+02  -3.619123e+01
   9.668938e+01   3.592250e+01
   2.307738e+01   6.694351e+01
  -1.088172e+02   8.283243e+01
  -9.478420e+01   1.620665e+01
  -1.550364e+01  -7.246024e+01
   7.049146e-01  -6.848045e+01
   3.971123e+01  -3.086200e+01
  -2.056968e+01   2.403367e+01
  -3.580655e+01  -1.518544e+01
  -7.915844e+00  -4.780756e+00
   7.961231e+01  -4.458670e+01
   1.534548e+02  -5.373855e+01
   3.509186e+01   7.060022e+01
  -7.649255e+01   1.371125e+02
  -6.245247e+01   5.546633e+01
  -5.584475e+01  -6.842727e+00
   1.041907e+01  -4.777809e+01
   5.135276e+01  -2.586610e+01
   5.079242e+01   4.790682e+01
   6.608076e+00   3.502476e+01
  -2.255180e+01   7.810812e+01
  -2.548597e+01   1.779198e+01
  -2.779382e+01  -4.242326e+01
  -1.666246e+01  -3.082778e+01
   3.959700e+01   4.228268e+01
  -3.179355e+01   1.173088e+01
  -1.068774e+01  -8.046910e-01
   9.037535e+00  -5.648833e+01
   3.038163e+01  -5.292167e+01
   4.419743e+00   2.299650e+01
   3.399077e+00   7.019183e+01
  -3.610128e+01   9.144761e+00
  -3.585665e+01  -1.872718e+01
  -2.971130e+01  -1.042098e+02
   3.671027e+01  -3.104554e+01
   8.470775e+01  -7.933126e+00
   4.621383e+01   4.434428e+01
  -1.233218e+01   5.809940e+01
  -2.239270e+01   4.388645e+01
  -3.710002e+01   1.426300e+01
   1.762564e+01  -2.118533e+01
   2.790793e+01  -2.808589e+01
  -6.181693e+01   3.721702e+01
  -5.385404e+01   3.577318e+01
