
 $NMID
 id='ANONYMOUS ', fmtdat='(2E16.6)'
 volume=1.0
 tramp=1.0
 $END
  -2.802867e+03  -1.240146e+02
  -2.110425e+03  -1.355556e+03
  -1.855955e+02  -1.755905e+03
   1.060098e+03  -1.271285e+03
   9.216965e+02  -2.996234e+02
   8.696539e+01   1.402272e+02
  -2.933187e+02  -4.866487e+01
  -4.057389e+01  -5.064301e+02
   4.123744e+02  -5.250335e+02
   5.644214e+02  -1.364478e+02
   5.116678e+02   4.130767e+02
   5.031550e+01   5.762124e+02
  -2.384546e+02   1.783732e+02
  -2.673055e+02  -4.754331e+02
   7.513699e+01  -4.954591e+02
   3.554800e+02  -1.602472e+02
   2.967324e+02   3.678350e+02
  -8.080015e+01   5.752208e+02
  -4.798750e+02   2.935107e+02
  -4.655214e+02  -1.529315e+02
  -1.317285e+02  -3.631830e+02
   2.034004e+01  -2.103201e+02
   2.533544e+00  -1.260098e+02
  -1.618172e+02  -9.180887e+01
  -3.193331e+02  -3.125024e+02
   3.887548e+01  -2.904418e+02
   3.970009e+02  -1.527040e+02
   5.603821e+02   1.294508e+02
   1.366827e+02   3.458300e+02
  -3.459479e+02   1.677202e+02
  -5.017456e+02  -2.016379e+02
  -1.957030e+02  -3.581972e+02
   2.650554e+02  -3.464109e+02
   4.902733e+02  -1.114565e+02
   3.479820e+02   1.043863e+02
   9.466217e+01   2.722859e+02
   3.277356e+01   1.951060e+02
   1.068510e+02  -8.846775e+01
   2.259508e+02  -6.970879e+01
   1.762891e+02   1.748144e+02
  -6.669902e+01   5.170139e+02
  -2.732469e+02   3.633138e+02
  -2.791168e+02   5.164467e+00
  -6.402680e+01  -2.765217e+02
   1.090091e+02  -8.655036e+01
   1.251647e+02   2.345057e+02
  -1.009652e+02   3.614821e+02
  -4.478897e+02   5.412353e+01
  -4.722449e+02  -3.565575e+02
  -1.529279e+02  -5.098665e+02
   2.972459e+02  -2.499635e+02
   5.570341e+02   5.574526e+01
   3.394283e+02   2.372894e+02
  -6.697310e+01   2.255414e+02
  -3.208375e+02   4.552375e+01
  -2.418703e+02  -8.246693e-01
  -4.075654e+01  -3.697167e+01
   6.761735e+01   1.449017e+01
  -7.463616e+01   8.380394e+01
  -1.667936e+02   2.378861e+01
  -1.705022e+02  -1.798380e+02
   1.107200e+02  -2.483323e+02
   3.000028e+02  -1.080482e+02
   2.265365e+02   6.431646e+01
  -2.395296e+01   2.982948e+02
  -3.102905e+02   3.343551e+02
  -3.091494e+02   1.143575e+02
  -1.704074e+02  -1.840278e+02
  -1.097913e+01  -3.965648e+02
   5.010787e+01  -3.249489e+02
   2.558949e+01  -2.026687e+02
   5.827957e+01  -1.032789e+02
   1.569769e+02  -1.366985e+02
   3.234302e+02  -3.684354e+01
   2.499282e+02   1.491419e+02
   1.184895e+02   2.552332e+02
  -1.193390e+02   1.675061e+02
  -2.271838e+02  -5.175715e+01
  -1.439614e+02  -2.602467e+02
   3.048017e+01  -2.472364e+02
   2.311244e+02  -1.587272e+01
   3.315468e+02   1.560473e+02
   1.580508e+02   2.764354e+02
  -2.002326e+01   2.864180e+02
  -1.446042e+02   1.686796e+02
  -1.354883e+02   1.322347e+02
  -1.666582e+02   4.117536e+01
  -2.847359e+02   1.189258e+01
  -4.246737e+02  -9.040205e+01
  -3.265482e+02  -2.967438e+02
   2.481888e+01  -4.059463e+02
   3.746197e+02  -3.794891e+02
   4.806366e+02  -1.976469e+02
   2.627004e+02   8.121128e+01
   7.860820e+00   2.142187e+02
  -1.092316e+02   2.048195e+02
  -9.634333e+00   3.404068e+01
   1.415376e+02  -5.237492e+01
   1.413688e+02  -1.344179e+01
   5.981174e+01   1.246178e+02
  -8.500204e+01   1.380216e+02
  -5.123092e+01   2.144107e+00
   6.036060e+00  -1.245245e+02
   1.365300e+02   1.647634e+00
   9.819314e+01   2.687314e+02
  -3.166011e+01   3.253991e+02
  -2.526216e+02   2.410339e+02
  -3.580215e+02  -8.156569e+01
  -2.882623e+02  -2.580455e+02
  -9.432920e+01  -2.763547e+02
   1.380572e+02  -1.683996e+02
   1.490399e+02  -2.750558e+01
   3.442404e+01   1.405101e+01
  -3.594654e+01  -5.405662e+01
  -1.364285e+01  -1.060938e+02
   1.348305e+02  -6.738675e+01
   1.390791e+02  -2.861538e+01
   3.402684e+01  -2.259852e+01
  -9.630006e+01   1.798186e+01
  -2.854382e+01  -5.355296e+01
   1.535079e+02  -1.249095e+02
   2.939450e+02  -1.182519e+01
   2.832865e+02   1.851920e+02
  -7.027058e+00   2.299476e+02
  -2.377360e+02   2.738486e+02
  -2.650216e+02   8.814646e+01
  -1.438043e+02  -7.669364e+01
  -6.676350e+00  -3.973295e+01
   4.942466e+01   2.358599e+01
  -7.059403e+01   9.527490e+01
  -2.019405e+02  -1.535758e+01
  -1.755642e+02  -1.282498e+02
  -4.117695e+01  -1.655263e+02
   7.747758e+01  -1.183848e+02
   8.642088e+01   3.798368e+00
   1.461548e+01   2.590373e+01
  -3.521414e+01  -5.930238e+01
  -2.755059e+01  -1.481906e+02
   1.352609e+02  -1.234069e+02
   2.487423e+02  -1.147743e+01
   1.552373e+02   8.133344e+01
   5.978898e+00   1.911375e+02
  -1.413601e+02   1.314739e+02
  -1.154908e+02   5.094805e+01
  -1.024667e+01  -1.464336e+02
   7.277149e+01  -1.076720e+02
   9.488049e+01  -3.782935e+01
   7.815819e+01   2.488820e+01
  -2.188609e+01   3.610234e+01
   5.609989e+00  -2.823844e+01
   1.021082e+02   2.328046e+01
   1.113245e+02   9.074804e+01
  -4.507770e+01   1.854886e+02
  -1.290967e+02   1.461773e+02
  -2.317476e+02  -7.575169e+00
  -1.400032e+02  -1.594084e+02
  -3.436562e+01  -1.917988e+02
   1.341452e+02  -1.108409e+02
   7.426851e+01   8.631720e+00
   6.861063e+01   2.675109e+01
   7.879408e+00  -2.162519e+01
   4.249290e+01  -4.601574e+00
   6.329882e+01   6.398191e+00
   3.170988e+01  -5.268307e-01
  -5.593479e+01   8.906508e+01
  -1.292468e+02   6.141742e+01
  -8.888867e+01  -2.158080e+01
   3.321041e+01  -1.206754e+02
   1.457034e+02  -9.407566e+01
   2.224777e+02   5.331930e+01
   9.439385e+01   1.669158e+02
  -9.360093e+01   2.153104e+02
  -2.228595e+02   8.812925e+01
  -2.151123e+02  -7.797969e+01
  -7.401084e+01  -1.500385e+02
   5.409380e+01  -8.356248e+01
   1.123888e+02  -3.794525e+01
   7.211425e+01  -5.784849e+01
   3.674492e+01  -1.202949e+02
   7.735252e+01  -6.496941e+01
   1.560101e+02   7.722200e+01
   1.145920e+02   1.981571e+02
   2.134608e+01   2.225811e+02
  -1.501817e+02   1.305583e+02
  -1.904182e+02   3.844055e+01
  -9.892001e+01  -1.424775e+02
  -2.678028e+01  -1.766088e+02
   6.493555e+01  -5.712134e+01
   6.417871e+01   1.524945e+01
  -1.750112e+01   1.921720e+01
  -3.436143e+01   1.721546e+01
   4.286341e+01   4.175365e+01
   9.471285e+01  -2.307961e+01
   6.240116e+01   6.840725e+01
  -6.763289e+01   2.312516e+01
  -1.574011e+02  -3.063687e+01
  -1.250795e+02  -7.553249e+01
   6.198269e-01  -1.048543e+02
   1.092196e+02  -3.394812e+01
   1.034451e+02  -9.683936e+00
   1.492660e+01   6.684277e+01
  -6.442161e+01   3.669527e+01
  -1.001317e+02  -7.795174e+00
  -6.125587e+01  -4.065124e+01
   2.768605e+01  -8.491992e+01
   8.128501e+01  -7.874215e+01
   6.441327e+01   3.454455e+01
   7.275498e+01   3.486616e+01
   4.456646e+01  -8.878563e+00
   2.337178e+01   1.158335e+01
   6.420270e+01   1.132327e+02
  -1.913880e+01   1.725203e+02
  -1.501978e+02   1.570743e+02
  -1.889673e+02   4.578255e+01
  -1.588704e+02  -8.903975e+01
  -3.911176e+01  -1.562181e+02
   1.357140e+02  -4.540925e+01
   7.046733e+01   3.614588e+01
  -5.849177e+01  -9.247671e+00
  -1.192790e+02  -5.811719e+00
  -1.102519e+02  -1.242699e+02
   1.046612e+02  -1.009999e+02
   1.901365e+02  -5.295151e+01
   1.219819e+02   4.757179e+01
   2.209414e+01   9.262804e+01
  -5.711265e+01   5.282093e+01
  -2.436654e+01   3.818202e+00
   4.570789e+01  -3.017187e+01
   6.763160e+01   4.186035e+01
   2.538153e+01   1.392405e+02
  -5.902691e+01   1.251795e+02
  -1.197695e+02   6.092979e+01
  -1.644495e+02  -8.166926e+01
  -2.361415e+01  -1.789898e+02
   1.237933e+02  -1.339131e+02
   1.152802e+02   2.305812e+01
   5.934778e+01   8.630839e+01
   5.606427e+00   1.199566e+02
  -2.528086e+01   3.348045e+01
  -3.729727e+01   1.131204e+01
  -4.303033e+01   2.686993e+01
  -2.294260e+01   7.412720e+00
  -9.097966e-01  -3.399431e+01
  -6.962326e+01  -7.779334e+01
  -2.732317e+01  -6.427980e+01
   8.174052e+01   7.896683e-01
   9.003492e+01   6.638477e+00
   6.129474e+01   7.288848e+01
  -2.812227e+00   2.714024e+01
  -9.307455e+01   1.209824e+01
  -5.848884e+01   2.361509e+01
  -1.043375e+01   2.847587e+00
   3.859194e+01  -1.210865e+01
   1.779490e+01  -6.834266e+00
  -5.312167e+00  -1.694622e+00
  -1.417602e+01   1.719892e+01
   1.260437e+01  -1.299366e+01
   7.827705e+01   1.563312e+01
   4.631612e+01   1.121657e+02
  -6.440665e+01   1.243868e+02
  -1.903141e+02   7.986424e+01
  -1.959822e+02  -6.448071e+01
  -6.031593e+01  -1.534414e+02
   5.775966e+01  -1.677895e+02
   1.224424e+02  -9.491877e+01
   1.347113e+02  -1.807032e+01
   4.961849e+01   1.008779e+01
   3.175726e+01  -1.257787e+01
  -9.568680e+00  -3.097628e+01
   2.675746e+01   5.050065e+01
   2.597265e+01   8.120551e+01
  -3.261424e+00   8.047147e+01
  -1.085777e+02  -2.321180e+01
  -8.596073e+01  -1.029506e+02
  -1.917174e+01  -1.280246e+02
   5.851175e+01  -2.312426e+01
   9.221231e+01   5.629574e+01
   4.838080e+01   9.153482e+01
  -4.716622e+01   1.049755e+02
  -8.647664e+01  -1.993931e+01
  -2.406125e+01  -7.422879e+01
   2.794113e+01  -6.136892e+01
   4.398444e+01   1.930849e+01
  -1.909474e+01   3.698058e+01
  -7.915239e+01   2.474725e+01
  -1.461621e+01   4.262514e+00
   6.409689e+01  -2.853287e+01
   9.467597e+01  -2.766160e+01
   1.958822e+01   1.830726e+01
  -5.830749e+01   9.368007e+01
  -5.932774e+01   7.465769e+01
  -9.498979e+01   1.966865e+01
  -6.208631e+01  -5.237951e+01
   1.757470e+01  -6.029182e+01
   5.178620e+01   5.300219e+01
   2.144409e+01   2.673717e+01
  -1.259594e+01   2.528410e+01
  -3.706496e+01  -1.086844e+01
  -3.442328e+01  -2.268490e+01
  -7.699127e+01   1.724095e+00
   1.074077e+01   1.198002e+01
   8.800954e-01   1.902544e+00
  -3.488970e+01  -5.304323e+01
  -8.354931e+00  -7.987249e+01
   7.581149e+00  -3.868419e+01
   8.574458e+01  -2.062346e+01
   2.239875e+01   7.911026e+01
  -6.317870e+01   1.240000e+01
  -7.696969e+01  -2.006178e+01
  -2.782619e+01  -6.629449e+01
   9.063514e+01  -4.178281e+01
   9.693287e+01  -6.037453e+00
   7.510433e+01   6.156821e+01
  -4.592723e+01   4.917415e+01
  -6.267198e+01   2.311865e+01
  -3.080864e+01   2.009320e+01
   3.553235e+01   2.637938e+00
   5.626754e+01   6.383277e+00
  -7.196559e+01   2.244047e+00
  -1.232756e+02  -4.124785e+01
