
 $NMID
 id='ANONYMOUS ', fmtdat='(2E16.6)'
 volume=1.0
 tramp=1.0
 $END
   4.263928e+03   3.020429e+01
   2.456853e+03   2.746393e+03
  -6.911634e+02   2.877875e+03
  -1.948525e+03   9.086990e+02
  -9.235565e+02  -6.690464e+02
   7.423232e+02  -4.875469e+02
   7.940539e+02   4.107863e+02
  -5.055590e+00   1.050454e+03
  -8.301323e+02   7.382307e+02
  -9.236556e+02  -4.816776e+01
  -4.631953e+02  -8.408734e+02
   3.634864e+02  -8.653270e+02
   6.678857e+02  -2.686669e+01
   3.056982e+02   7.046807e+02
  -2.058644e+02   6.864343e+02
  -6.142129e+02   4.463575e+00
  -2.954533e+02  -6.508847e+02
   3.557234e+02  -6.255373e+02
   6.549842e+02  -6.272450e+01
   3.361584e+02   3.518588e+02
  -4.769421e+00   4.415062e+02
  -2.516628e+02   2.422675e+02
  -1.901723e+02  -1.155041e+01
   1.155215e+02  -1.365575e+02
   4.185610e+02   1.216419e+02
   1.038817e+02   4.172323e+02
  -4.365630e+02   3.626675e+02
  -8.502296e+02  -8.885369e+01
  -4.848991e+02  -6.263226e+02
   4.231141e+02  -5.674984e+02
   7.713726e+02   6.281508e+01
   3.125995e+02   5.018880e+02
  -2.570759e+02   5.400019e+02
  -6.416641e+02   2.152338e+02
  -4.086880e+02  -2.453978e+02
  -6.271962e+01  -4.285134e+02
   1.852679e+02  -2.261681e+02
   2.410777e+02   2.266644e+02
  -2.186644e+02   4.166007e+02
  -4.553033e+02  -5.224447e+01
  -2.272793e+02  -7.530174e+02
   3.437576e+02  -6.940612e+02
   6.635396e+02   3.699724e+01
   2.416806e+02   5.766870e+02
  -3.288079e+02   3.759978e+02
  -3.894730e+02  -2.967079e+02
   2.391161e+01  -4.880330e+02
   5.095069e+02  -1.335056e+02
   5.750880e+02   3.929941e+02
   1.665692e+02   5.927879e+02
  -3.669303e+02   3.758568e+02
  -6.488076e+02  -8.325468e+01
  -4.083129e+02  -4.273738e+02
   1.621155e+02  -3.853238e+02
   4.313340e+02  -5.505890e+01
   2.162639e+02   1.955705e+02
  -1.219169e+02   1.289486e+02
  -1.608813e+02  -1.662544e+02
   1.726478e+02  -1.455644e+02
   3.492172e+02   6.785197e+01
   9.777464e+01   2.705998e+02
  -2.526333e+02   2.088220e+02
  -3.270800e+02   6.543481e+01
  -2.318627e+02  -1.080280e+02
  -3.761288e+01  -1.791317e+02
   1.447634e+02  -2.999468e+02
   3.690030e+02  -2.827886e+02
   3.314835e+02   4.427465e+01
   6.363998e+01   3.508758e+02
  -1.089427e+02   3.896207e+02
  -1.086135e+02   1.073989e+02
   4.691771e+01  -3.428533e+01
  -5.062313e+00   9.782449e+01
  -1.771955e+02   1.107739e+02
  -2.728224e+02  -2.005440e+01
  -1.345924e+02  -2.540294e+02
   1.636670e+02  -2.349167e+02
   2.677257e+02   3.609356e+01
   1.388442e+02   2.581300e+02
  -5.677214e+01   2.953206e+02
  -2.445816e+02   1.355739e+02
  -3.840552e+02  -1.514011e+02
  -1.790768e+02  -3.787052e+02
   7.267860e+01  -3.241101e+02
   2.241298e+02  -9.431326e+01
   1.768021e+02  -2.246558e+01
   8.750097e+01  -4.877581e+01
   2.612730e+02  -1.131677e+02
   3.923502e+02   2.318164e+01
   3.204386e+02   2.699954e+02
  -3.533386e+01   4.718880e+02
  -3.769574e+02   4.519994e+02
  -4.327689e+02   1.742556e+02
  -3.650307e+02  -1.019382e+02
  -6.437116e+01  -3.237442e+02
   1.075328e+02  -2.639081e+02
   1.133725e+02  -3.995462e+01
  -5.858176e+01   8.018504e+01
  -1.661839e+02  -4.109936e+01
  -1.463485e+01  -2.345730e+02
   1.617026e+02  -1.123486e+02
   1.595293e+02   9.474938e+01
  -1.821772e+01   1.827797e+02
  -2.120411e+02   4.675576e+01
  -1.814819e+02  -2.423201e+02
   4.532301e+01  -3.137472e+02
   2.934871e+02  -1.748936e+02
   3.266482e+02   7.201847e+01
   2.412934e+02   2.340345e+02
   1.098387e+02   2.445633e+02
  -1.331939e+02   1.544224e+02
  -1.580225e+02  -2.968632e+01
  -1.309593e+01   1.718541e+01
   8.960532e+01   9.522137e+01
   6.779414e+00   1.634796e+02
  -1.370628e+02   8.542979e+01
  -1.154241e+02  -8.548466e+01
  -7.038030e+01  -7.177092e+01
   1.435445e+00  -2.464608e+01
   9.127288e+01   9.505985e+01
  -9.266066e+01   7.348133e+01
  -2.709690e+02   2.548412e+01
  -2.644273e+02  -1.648908e+02
  -7.568735e+01  -2.955554e+02
   2.240715e+02  -3.252368e+02
   2.883252e+02  -1.329925e+02
   2.107138e+02   4.177511e+01
  -1.416057e+00   1.054028e+02
  -8.760775e+01  -7.054013e+00
   7.865244e+01  -8.459887e+01
   2.346215e+02  -3.098879e+01
   2.581672e+02   1.085757e+02
   7.484431e+01   2.396704e+02
  -1.626699e+02   1.506279e+02
  -1.333426e+02   3.277077e+01
  -5.433694e+01  -3.884324e+01
   9.109234e+01  -9.645885e+00
   5.076558e+01   5.603450e+01
  -9.385222e+01   1.667497e+02
  -2.216551e+02   2.189139e+01
  -1.840087e+02  -1.611178e+02
   1.395587e+00  -2.097382e+02
   1.450439e+02  -1.781268e+02
   1.557167e+02  -8.266337e+00
  -9.780803e+00   1.392458e+02
  -6.538992e+01   1.308534e+02
  -2.407702e+01   3.189479e+01
  -1.220434e+01  -4.161500e+01
  -1.202244e+01  -1.232056e+00
  -5.301777e+01  -3.184172e+01
  -4.384672e+01  -2.899309e+01
  -7.216634e+01  -9.828097e+01
  -1.073887e-01  -1.583471e+02
   1.246449e+02  -1.267902e+02
   2.740525e+02  -3.754784e+00
   1.799785e+02   1.305523e+02
   9.361822e+01   2.162559e+02
  -7.972656e+01   1.277282e+02
  -1.476016e+02   1.190412e+01
  -9.095044e+01  -6.159065e+01
  -2.254307e+00  -6.038847e+01
  -9.891841e+01   4.313275e+01
  -8.702343e+01   2.213820e+01
  -3.406287e+01  -7.666260e+01
   3.621609e+01  -9.923367e+01
   9.796633e+01  -7.223703e+01
   1.250282e+02   3.329147e+01
  -2.930993e+00   1.053963e+02
  -1.678674e+02   8.268082e+01
  -2.651794e+02  -2.985894e+01
  -1.125037e+02  -1.795075e+02
   1.176202e+02  -2.137935e+02
   2.905222e+02  -1.128700e+02
   2.685940e+02   8.192263e+01
   7.367683e+01   1.452679e+02
  -4.521179e+00   1.623054e+02
  -8.370111e+01   1.031311e+02
  -5.727856e+01   8.127122e+00
  -9.507384e+01   9.230337e+01
  -1.135957e+02   9.431884e+01
  -1.163286e+02   1.384799e+01
  -1.748314e+02  -1.433270e+02
  -5.132642e+01  -2.403755e+02
   6.557433e+01  -1.721252e+02
   1.356124e+02  -1.866683e+01
   8.538690e+01   1.048526e+02
   4.020695e+01   1.525513e+02
  -8.997901e+00   7.811909e+01
  -3.148259e+01   2.651559e+01
   6.598163e+00  -2.668847e+01
   1.920664e+01  -5.158324e+01
  -5.662187e+01  -2.847654e+01
  -1.064891e+02   1.234959e+01
  -1.450344e+01  -7.146427e+01
   6.638127e+01  -7.543536e+01
   1.671697e+02   4.569310e+00
   1.636887e+02   5.082517e+01
  -6.938407e+00   1.124563e+02
  -9.003077e+01   4.810789e+01
  -1.687209e+02  -7.437193e+00
  -5.920613e+01  -6.135316e+01
   5.545195e+01  -7.866845e+00
   1.195050e+02   3.249067e+01
   1.439445e+01   9.508997e+01
  -9.002964e+01   5.631053e+01
  -6.130554e+01  -2.503809e+01
  -4.374144e+01  -6.573980e+01
  -3.384581e+00  -6.838102e+01
  -4.964994e+01   4.391811e+01
  -6.076468e+01   2.294402e+01
  -1.886150e+01  -6.210709e+01
   2.113924e+01  -1.334370e+02
   9.398525e+01  -1.401561e+02
   1.571138e+02  -4.699862e+01
   1.349208e+02   7.196107e+01
  -3.363678e+01   1.046597e+02
  -4.230606e+01   6.501007e+01
  -6.180859e+01  -1.883087e+01
   7.494843e+01  -2.782164e+01
   1.101970e+02   4.559134e+01
   6.866189e+01   7.600262e+01
  -5.779389e+01   1.116663e+02
  -1.907314e+02   6.169641e+01
  -1.728342e+02  -2.903538e+01
  -6.879501e+01  -1.006406e+02
   1.090174e+00  -7.384805e+01
   5.677640e+01   1.231831e+01
  -7.914813e+00   5.354833e+01
  -6.794903e+01  -4.836641e+01
  -3.803273e+01  -7.811794e+01
   1.025305e+02  -1.219306e+02
   1.453901e+02  -7.553718e+01
   1.325808e+02   1.108609e+02
   1.593359e+01   1.606549e+02
  -9.931874e+01   1.352929e+02
  -1.132694e+02  -4.908167e-03
  -9.049117e+01  -1.327507e+02
  -1.308990e+01  -1.306821e+02
   4.395398e+01  -4.591814e+01
   3.545274e+01   2.532402e+01
   6.187452e+00   8.858873e+00
  -1.678348e+01  -1.522014e+01
   8.033884e+00  -1.346300e+01
   8.583338e+01   6.611062e+01
  -2.120575e+00   1.000721e+02
   1.465678e+01   4.113931e+01
  -1.205947e+02  -5.978941e+01
  -1.365167e+02  -4.575876e+01
   4.544928e+01  -3.171608e+01
   1.022169e+02   2.431358e+01
   7.826827e+01  -3.309291e+01
  -3.276905e+00  -1.129224e+01
  -5.333352e-01   4.086319e+01
  -1.267478e+01   3.776355e+01
   3.325330e+01   2.566568e+01
   1.957976e+00  -2.371730e+01
  -9.044240e+01   4.912605e+00
  -6.484025e+01  -4.401215e+01
   1.002574e+00  -8.420933e+01
   1.414640e+02  -1.344516e+02
   1.858520e+02  -5.828925e+01
   1.463923e+02   9.504774e+01
   2.963259e+01   1.677943e+02
  -7.935114e+01   1.433810e+02
  -1.259283e+02   7.701541e+01
  -7.485014e+01  -3.571094e+01
  -9.910060e+01  -6.122406e+01
  -1.865760e+01  -7.262231e+01
  -4.177053e+01   1.091808e+01
  -5.934373e+01  -4.872741e+01
  -3.959470e+01  -9.631838e+01
   3.118093e+01  -1.141320e+02
   6.423429e+01  -4.352273e+01
   6.177450e+01   8.864015e+01
  -2.603267e+01   1.131897e+02
  -5.917488e+01   1.795546e+01
  -3.585765e+01  -4.989532e+01
  -5.988851e+00  -1.321188e+02
   2.811410e+01  -4.694600e+01
   1.268661e+02  -4.918890e+00
   3.651738e+01   7.315745e+01
  -6.156899e+01   3.708738e+01
  -4.369029e+01  -2.593643e+00
   1.689775e+01   2.863939e+01
   6.550416e+01   4.248704e+01
   3.988978e+01   1.986751e+01
  -5.855196e+01   6.718924e+01
  -9.132697e+01   6.850783e+01
  -1.243574e+02  -4.570857e+01
   5.176527e+00  -8.322582e+01
   1.097921e+01  -8.126280e+01
   3.369033e+01  -2.803784e+01
   1.849720e+01   8.943196e+01
  -2.859892e+01   3.726729e+01
  -2.759644e+01  -6.786294e+01
  -1.644398e+01  -4.305929e+01
   1.348291e+01  -3.594132e+01
   2.399554e+01   3.375658e+01
   4.908295e+01   1.160339e+00
   5.243521e+01  -9.159022e+00
  -2.422059e+01   8.213012e+00
  -5.435132e+00   3.564544e+01
  -1.393447e+01   9.173032e+01
   9.163993e+00   4.807578e+01
  -1.797240e+01  -1.204277e+01
   1.779750e+01  -1.971703e+01
   1.946201e+00  -4.149599e+01
   4.328344e+01  -2.169870e+01
   7.579535e+01   5.229535e+01
   1.803875e+01   7.413839e+01
  -4.749740e+01   4.750670e+01
  -1.054508e+02   2.429369e+01
  -5.362263e+00  -4.649206e+01
   5.232213e+01  -3.573531e+01
   2.732505e+01  -2.591693e+01
   3.341684e+01  -3.001318e+01
  -2.150119e+01  -1.285717e+01
  -4.558662e+01  -1.491265e+00
   7.865007e+01   1.177367e+01
   9.688293e+01  -2.538555e+01
