
 $NMID
 id='ANONYMOUS ', fmtdat='(2E16.6)'
 volume=1.0
 tramp=1.0
 $END
  -2.893527e+03  -1.829385e+00
  -2.017134e+03  -1.659261e+03
   1.132850e+02  -2.060112e+03
   1.287291e+03  -1.097133e+03
   9.955026e+02  -1.266998e+02
  -6.319784e+01   2.078139e+02
  -3.712422e+02  -2.128827e+02
   4.019620e+01  -6.290304e+02
   5.533003e+02  -4.094320e+02
   6.287017e+02  -4.334906e+01
   3.833265e+02   5.102933e+02
  -1.161059e+01   5.612199e+02
  -4.092190e+02   1.637843e+02
  -2.590611e+02  -4.626611e+02
   1.670441e+02  -5.395812e+02
   4.427053e+02  -6.798591e+01
   3.055097e+02   5.156585e+02
  -1.631864e+02   6.221399e+02
  -5.298076e+02   2.186559e+02
  -4.815090e+02  -2.589202e+02
  -8.676222e+01  -3.890774e+02
   9.239072e+01  -2.084448e+02
   1.010701e+02  -1.539986e+02
  -9.276729e+01  -1.007852e+02
  -2.973984e+02  -2.629840e+02
  -1.088243e+02  -4.144202e+02
   3.434719e+02  -2.253123e+02
   6.081810e+02   7.521395e+01
   2.796641e+02   3.363662e+02
  -2.891392e+02   1.655454e+02
  -5.118192e+02  -1.119598e+02
  -2.088174e+02  -3.290397e+02
   2.432603e+02  -4.310795e+02
   4.411905e+02  -1.197167e+02
   3.234151e+02   1.948262e+02
   1.024715e+02   3.587669e+02
  -5.991029e+01   2.301178e+02
  -1.529567e+01  -1.306222e+02
   1.488518e+02  -2.090391e+02
   2.396602e+02   5.060183e+01
   8.988947e+01   4.825149e+02
  -2.220384e+02   4.504099e+02
  -3.342918e+02   2.094839e+01
  -1.371467e+02  -2.964129e+02
   1.589709e+02  -1.372316e+02
   2.374457e+02   2.020560e+02
  -6.042820e+01   3.511924e+02
  -3.732374e+02   5.181538e+01
  -4.636737e+02  -3.420633e+02
  -1.426687e+02  -4.506711e+02
   2.914687e+02  -2.335573e+02
   4.864465e+02   9.516812e+01
   3.319242e+02   2.734120e+02
  -7.250259e+01   2.420827e+02
  -3.015184e+02   7.651145e+01
  -2.128626e+02  -4.607182e+01
  -2.606512e+01   2.220983e+01
   5.629964e+01   8.458340e+01
  -1.280875e+02   1.124084e+02
  -2.806677e+02  -1.923924e+01
  -1.775449e+02  -1.808295e+02
   1.396772e+02  -2.437430e+02
   3.064422e+02  -1.237318e+02
   1.985231e+02   1.424031e+02
  -8.122969e+01   3.432982e+02
  -3.027523e+02   3.436856e+02
  -3.232837e+02   1.380600e+02
  -2.350649e+02  -1.777292e+02
  -5.800515e+01  -3.816518e+02
   5.421606e+01  -2.656708e+02
   8.427430e+01  -1.056052e+02
   6.981211e+01  -4.501759e+01
   1.154143e+02  -5.480483e+01
   1.952712e+02  -1.201672e+02
   2.322059e+02   6.848512e+01
   9.502775e+01   2.375572e+02
  -1.418114e+02   2.330957e+02
  -2.445530e+02   2.632353e+01
  -1.583319e+02  -2.446979e+02
   1.078650e+02  -2.729860e+02
   2.937071e+02  -7.610865e+01
   3.064493e+02   1.671719e+02
   1.713973e+02   2.890126e+02
  -2.807090e+01   2.795075e+02
  -2.081902e+02   1.581354e+02
  -1.314782e+02   9.482679e+01
  -1.501861e+02   1.088403e+02
  -2.354664e+02   3.742824e+01
  -4.136669e+02  -7.787302e+01
  -3.448291e+02  -2.794270e+02
  -1.982450e+01  -4.393621e+02
   3.568096e+02  -3.489939e+02
   4.878948e+02  -1.401506e+02
   2.775421e+02   1.051415e+02
   5.300297e+01   2.527288e+02
  -9.424150e+00   2.054582e+02
  -8.582075e+01   2.162743e+00
   7.109496e+01  -6.825939e+01
   8.872760e+01  -1.941970e+01
   3.269341e+01   1.370931e+02
  -1.054426e+02   1.388779e+02
  -1.508698e+02  -2.529436e+01
   4.292968e+01  -1.358606e+02
   1.574227e+02  -3.904634e+00
   1.123793e+02   2.230423e+02
  -2.533235e+01   3.113379e+02
  -2.249000e+02   2.333378e+02
  -3.007765e+02  -7.670395e+01
  -1.808806e+02  -2.161590e+02
  -4.705049e+01  -1.941950e+02
   6.258596e+01  -1.285238e+02
   1.245142e+02   2.035381e+01
  -6.114088e+00  -6.832357e+00
  -8.125212e+01  -7.177644e+01
  -2.186160e+01  -1.188826e+02
   9.607886e+01  -9.294132e+01
   1.610359e+02   7.594935e+01
   1.787835e+01   6.548929e+01
  -9.386814e+01  -3.476045e+01
  -4.737451e+01  -7.304621e+01
   1.553128e+02  -7.734873e+01
   2.637178e+02  -3.098632e+01
   2.449325e+02   1.188986e+02
   5.391079e+01   1.937551e+02
  -1.364603e+02   1.850668e+02
  -2.317396e+02   5.251236e+01
  -1.132132e+02  -4.934587e+01
   8.284653e+01  -6.649910e+01
   8.454544e+01   4.368415e+01
  -4.669170e+01   1.168797e+02
  -1.887221e+02   1.038565e+02
  -1.822660e+02  -4.824396e+01
  -6.576257e+01  -1.778268e+02
   3.921341e+01  -1.807216e+02
   1.048057e+02  -6.880591e+01
   2.358351e+01   2.227362e+01
   2.259449e+01  -8.897247e+00
   3.553980e+01  -7.927790e+01
   6.269608e+01  -1.019520e+02
   1.784390e+02  -1.728221e+01
   1.604511e+02   1.509273e+02
   1.008588e+01   1.912758e+02
  -7.969180e+01   1.551733e+02
  -1.458731e+02  -2.861030e+01
  -4.963379e+01  -9.003203e+01
   5.886342e+01  -8.291336e+01
   3.719343e+01  -5.139389e+01
   4.565254e+00  -1.358313e+01
  -5.024766e+01  -2.797515e+01
   8.890467e+00  -6.976933e+01
   8.630847e+01   5.314154e+00
   1.013716e+02   6.307786e+01
   1.859574e+01   1.457331e+02
  -1.262588e+02   1.131133e+02
  -1.925740e+02  -4.504698e-01
  -1.942236e+02  -1.382800e+02
  -1.512129e+01  -2.008605e+02
   1.189160e+02  -1.955357e+02
   9.168634e+01  -6.698438e+01
   8.401207e+01   4.044652e+01
   4.984304e+01   1.450933e+01
   4.918960e+01   1.099217e+01
   7.178056e+01  -1.328537e+01
   7.043081e+01   8.542333e+01
  -7.096867e+01   3.761648e+01
  -1.281908e+02   4.988991e+01
  -7.383328e+01  -4.078649e+01
   2.153510e+01  -1.068056e+02
   1.666960e+02  -5.612643e+01
   1.796506e+02   1.174621e+02
   2.906227e+01   2.364839e+02
  -1.451238e+02   1.797249e+02
  -2.276392e+02   5.945486e+01
  -2.227304e+02  -8.835133e+01
  -8.645252e+01  -1.416835e+02
   8.748859e+00  -1.320588e+02
   6.617391e+01  -5.495762e+01
   7.268121e+01  -4.475982e+01
   8.506097e+01  -9.683073e+01
   1.227123e+02  -4.232328e+01
   1.365664e+02   2.285328e+01
   1.328538e+02   1.462930e+02
   3.027045e+01   2.223995e+02
  -8.000228e+01   1.696702e+02
  -1.242837e+02   3.472152e+01
  -1.323499e+02  -1.593309e+02
   1.691559e+01  -1.472154e+02
   8.271530e+01  -6.467027e+01
   6.829863e+01   6.600012e+01
   2.531119e+01   4.058911e+01
  -9.880853e+00   3.400038e+01
   4.889295e+01   3.806506e+01
   3.252072e+01  -7.302537e+00
   4.106452e+01   6.620799e+01
  -8.715623e+01   5.271610e+01
  -1.479694e+02   1.803271e+01
  -1.014725e+02  -1.172908e+02
  -1.703499e+01  -1.197488e+02
   9.969099e+01  -9.035957e+01
   1.264779e+02  -3.508820e+01
   4.304424e+01   5.775377e+01
  -7.543698e+01  -6.751817e+00
  -3.991821e+01  -2.899440e+01
  -3.275544e+01  -5.356391e+01
   4.060042e+01  -3.471160e+01
   5.950543e+01   9.522954e+00
   4.213235e+01   3.703207e+01
   5.222946e+00   1.140447e+01
   4.582647e+01  -5.186847e+01
   6.599600e+01  -3.301210e+01
   7.713212e+01   7.940636e+01
  -5.471242e+01   1.248415e+02
  -9.355597e+01   9.800357e+01
  -1.668405e+02   4.546813e+01
  -1.447788e+02  -4.618732e+01
   9.214265e+00  -1.490264e+02
   9.001384e+01  -9.990712e+01
   2.509982e+01   1.722535e+01
  -8.494176e+01   3.686290e+01
  -1.218402e+02  -1.590940e+01
  -4.546541e+01  -5.561039e+01
   8.991130e+01  -8.814404e+01
   1.050431e+02  -2.123722e+01
   1.362426e+02   4.903054e+01
   1.150233e+01   8.375942e+01
  -2.358383e+01   1.114983e+02
  -3.484260e+01   1.324607e+01
   9.128021e+00   2.972972e+01
   3.235403e+01   4.209519e+01
   9.490080e+00   1.011543e+02
  -6.383152e+01   9.763806e+01
  -1.353144e+02   5.316242e+01
  -9.145223e+01  -7.347748e+01
   2.705887e+00  -1.568615e+02
   5.909102e+01  -9.051040e+01
   9.524599e+01   5.748739e+01
   4.460691e+01   1.123957e+02
  -1.334126e+01   5.571036e+01
  -1.453916e+01  -5.452075e+00
   6.284877e+00   2.198365e+01
  -7.353121e+00  -4.241084e+00
  -7.467373e+00  -1.025396e+01
  -1.444217e+01  -1.852352e+01
  -1.402910e+01  -5.891785e+01
  -5.028707e+00  -1.424814e+02
   7.125154e+01  -5.339462e+01
   1.536628e+02   3.626027e+01
   1.010167e+02   3.138117e+01
  -7.684549e+00   2.767715e+01
  -5.678995e+01   5.580357e+00
  -5.506594e+01  -1.625362e+01
  -2.968350e+00   1.686151e+01
   2.107403e+01  -2.073644e+01
   8.509083e+00  -2.453137e+01
  -5.519018e+01  -3.503112e+00
   1.495487e+01  -2.757961e+01
   3.511840e+01  -3.934935e+01
   8.587633e+01   5.409454e+01
   3.138383e+01   5.759877e+01
  -9.425444e+01   8.702479e+01
  -1.444288e+02   9.901872e+01
  -1.719982e+02  -2.907411e+01
  -4.493517e+01  -1.311594e+02
   6.256277e+01  -1.250008e+02
   1.277518e+02  -3.125759e+01
   8.038157e+01   3.806556e+00
   2.396164e+01   5.079184e+01
  -7.803698e+00   1.916020e+01
   2.333386e+01   7.618343e+00
   7.195189e+00   5.301131e+01
   2.451317e+01   1.212601e+02
  -2.496257e+01   9.698089e+01
  -5.148685e+01  -1.489118e+00
  -8.798853e+01  -8.973385e+01
   2.338457e+01  -8.409214e+01
   7.755727e+01  -2.947559e+01
   1.037184e+02  -1.905287e+01
   5.606525e+01   8.210804e+01
  -8.279448e+01   8.928613e+01
  -1.027414e+02  -4.353702e+01
  -2.462938e+01  -4.861392e+01
   3.970118e+01  -7.597802e+01
   1.836191e+01  -8.769859e+00
  -7.336863e+01   1.068921e+01
  -6.520395e+01   2.563055e+01
  -2.225474e+01  -2.837687e+01
   4.949110e+01  -1.029865e+02
   1.174377e+02  -6.167658e+01
   6.172377e+01  -6.756572e+00
  -1.285385e+01   7.501914e+01
  -3.298331e+01   7.402427e+01
  -2.384292e+01   2.739381e+01
  -8.899114e+00  -7.197208e+01
   2.369712e+01  -7.678837e+01
   2.478846e+01   8.930320e+00
   6.361730e+00   3.701817e+01
   9.422904e+00   4.591507e+01
  -5.993738e+01  -1.406723e+01
  -8.265994e+01  -4.996094e+01
  -3.368055e+01  -1.094331e+01
   6.918023e+01   3.711537e+01
   7.831322e-01   1.634467e+01
  -9.798211e+00  -5.522026e+01
   7.331145e+00  -6.413457e+01
  -4.739119e+00  -3.039566e+01
   5.843644e+01   3.314568e+01
   5.151913e+01   8.442817e+01
   1.029193e+01   2.912008e+01
  -7.832582e+01  -6.844468e+01
  -5.041925e+01  -2.433242e+01
   1.364050e+00  -3.238977e+01
   9.224343e+01   2.787264e+01
   3.118759e+01   1.213482e+01
  -9.059530e+00   2.618790e+01
  -5.617217e+01   1.325442e+01
  -6.298439e+01   1.196925e+01
   3.451237e+01  -1.537454e+01
   2.241489e+01   2.568761e+01
  -5.019148e+01  -6.028169e+00
  -7.730321e+01  -1.023513e+01
