
 $NMID
 id='ANONYMOUS ', fmtdat='(2E16.6)'
 volume=1.0
 tramp=1.0
 $END
   3.793493e+03   3.212804e+02
   2.356405e+03   2.364998e+03
  -3.533402e+02   2.799827e+03
  -1.801613e+03   1.063401e+03
  -8.911250e+02  -2.176932e+02
   4.430775e+02  -4.089670e+02
   7.482171e+02   3.282157e+02
   3.748252e+01   9.381760e+02
  -7.819050e+02   7.264453e+02
  -8.988746e+02  -7.173294e+01
  -4.947113e+02  -8.053439e+02
   1.682122e+02  -9.691656e+02
   7.579393e+02  -1.120319e+02
   3.810680e+02   7.197571e+02
  -2.087875e+02   7.319468e+02
  -5.140785e+02   2.472579e+01
  -2.709477e+02  -6.376968e+02
   2.833350e+02  -7.290885e+02
   5.659178e+02  -9.550446e+01
   4.531379e+02   2.917530e+02
   8.316851e+00   3.667670e+02
  -1.833562e+02   2.226144e+02
  -1.863416e+02  -7.101798e+00
   1.560094e+02  -4.295436e+01
   3.719102e+02   1.661083e+02
   1.393377e+02   4.018810e+02
  -3.999845e+02   3.566038e+02
  -7.739355e+02  -9.460288e+01
  -3.329879e+02  -4.795232e+02
   3.794022e+02  -3.764157e+02
   6.911695e+02   7.213695e+01
   2.758691e+02   4.562276e+02
  -3.059124e+02   4.937112e+02
  -5.689667e+02   1.709553e+02
  -3.268965e+02  -2.396359e+02
  -5.184026e+01  -4.182327e+02
   1.549599e+02  -2.831578e+02
   1.316775e+02   1.549248e+02
  -1.773964e+02   3.536982e+02
  -4.103251e+02  -9.853263e+01
  -1.617047e+02  -6.786805e+02
   3.338425e+02  -6.138014e+02
   5.722195e+02   6.123365e+01
   2.287995e+02   5.380026e+02
  -2.383750e+02   3.062661e+02
  -3.686066e+02  -3.081463e+02
   4.625479e+01  -5.080287e+02
   5.339079e+02  -1.552343e+02
   5.599279e+02   4.209093e+02
   1.282823e+02   5.950290e+02
  -4.006068e+02   3.253897e+02
  -5.896870e+02  -8.715817e+01
  -3.983049e+02  -3.901287e+02
   1.290978e+02  -3.661257e+02
   4.241189e+02  -9.664711e+01
   2.555481e+02   1.902007e+02
  -1.127210e+02   9.358979e+01
  -1.309935e+02  -7.571437e+01
   1.542805e+02  -1.641457e+02
   3.299559e+02   8.702846e+01
   1.605558e+02   2.890264e+02
  -1.828830e+02   2.831877e+02
  -3.272008e+02   7.885110e+01
  -2.236135e+02  -8.388582e+01
  -6.366321e+00  -2.197746e+02
   1.981341e+02  -3.135539e+02
   3.358662e+02  -1.771390e+02
   2.754208e+02   1.668990e+02
   1.173623e+02   3.723415e+02
  -1.365306e+02   3.330036e+02
  -7.588830e+01   1.305212e+02
  -5.461816e+01   6.084546e+01
  -1.039517e+02   1.018827e+02
  -2.243272e+02   7.703560e+01
  -2.769478e+02  -7.382173e+01
  -1.481085e+02  -2.590547e+02
   9.114393e+01  -2.614383e+02
   2.442362e+02  -1.361048e+01
   1.837319e+02   2.795135e+02
  -6.622220e+01   2.501634e+02
  -2.889481e+02   1.123860e+02
  -3.414887e+02  -2.091559e+02
  -1.638570e+02  -3.174623e+02
   9.825880e+01  -2.923297e+02
   2.498918e+02  -1.379410e+02
   1.458506e+02  -2.422364e+01
   7.703033e+01  -1.200486e+01
   2.040255e+02  -5.892156e+01
   3.707383e+02   6.723510e+01
   3.274586e+02   2.935348e+02
  -1.722140e+01   4.193522e+02
  -3.593232e+02   3.573398e+02
  -4.772712e+02   1.289035e+02
  -2.659351e+02  -1.261386e+02
  -3.621817e+01  -2.356102e+02
   1.069876e+02  -1.955474e+02
   2.047484e+01  -4.417135e+01
  -8.397819e+01   6.508180e+01
  -1.653021e+02  -3.467718e+01
   2.374832e+01  -2.146055e+02
   2.021704e+02  -1.409099e+02
   1.517343e+02   7.564176e+01
   3.939502e+00   1.311990e+02
  -1.696141e+02   1.900322e+01
  -1.978860e+02  -2.720949e+02
   5.332799e+01  -3.178231e+02
   2.364279e+02  -1.689015e+02
   3.487397e+02   5.908653e+01
   2.462207e+02   2.348763e+02
   1.076916e+02   2.594236e+02
  -1.010704e+02   1.199965e+02
  -1.801942e+02  -5.075345e+00
  -1.088300e+01  -1.554068e+01
   8.239115e+01   5.860345e+01
   1.322167e+00   1.323589e+02
  -1.182603e+02   3.705170e+01
  -1.478802e+02  -6.515003e+01
  -1.378281e+01  -6.734485e+01
   1.138350e+02   1.487903e+01
   5.542714e+01   9.723349e+01
  -6.606644e+01   1.630824e+02
  -2.848070e+02   6.931621e+01
  -2.445292e+02  -1.482647e+02
  -8.146613e+01  -2.424044e+02
   1.320001e+02  -2.522509e+02
   2.685663e+02  -1.389045e+02
   1.443492e+02  -1.757759e+01
   4.806234e+00   1.015116e+02
  -7.870380e+01  -1.307923e+01
   1.635944e+01  -3.670452e+01
   1.821574e+02  -1.807603e+01
   2.008708e+02   8.634793e+01
   6.750786e+01   1.660223e+02
  -6.679873e+01   1.610016e+02
  -1.202733e+02   4.280851e+01
  -4.390717e+01  -1.245014e+01
   1.274808e+01   2.570971e+00
   2.884654e+01   1.161488e+02
  -5.454248e+01   1.035929e+02
  -1.403008e+02   1.473417e+01
  -1.752379e+02  -1.106717e+02
  -4.755563e+01  -2.231836e+02
   1.128484e+02  -1.619134e+02
   1.866941e+02   3.668716e+01
   6.547524e+01   1.108229e+02
  -1.317159e+02   1.255879e+02
  -5.972920e+01   6.735122e+01
  -9.440407e+00  -2.782458e+01
  -3.335990e+00  -7.095079e+00
   3.126770e+01   1.638751e+01
  -7.338345e+01   1.973781e+01
  -1.210493e+02  -8.441467e+01
  -6.429661e+00  -1.975062e+02
   1.514109e+02  -9.410056e+01
   2.311526e+02  -1.895344e+01
   2.265905e+02   1.615371e+02
   5.874208e+01   2.225459e+02
  -9.267388e+01   1.262956e+02
  -1.685102e+02   3.506291e+01
  -8.696474e+01  -8.435078e+01
  -1.351996e+01  -1.219481e+01
  -5.098322e+01   1.754894e+01
  -7.227606e+01   2.001298e+01
  -3.305159e+01  -6.148893e+01
   6.252110e-01  -5.230179e+01
   1.113027e+02  -5.792693e+01
   8.773080e+01   4.337455e+00
  -3.931040e+01   1.328080e+02
  -1.716063e+02   6.528666e+01
  -1.628867e+02  -3.873996e+01
  -4.813304e+01  -1.786451e+02
   1.229154e+02  -2.018719e+02
   2.524369e+02  -6.115154e+01
   2.726363e+02   1.294574e+02
   1.462176e+02   2.251594e+02
  -1.584792e+01   1.371657e+02
  -4.526692e+01   9.672427e+01
  -8.096176e+01   1.122216e+02
  -9.570532e+01   5.956409e+01
  -1.374414e+02   3.741449e+01
  -1.101171e+02  -5.640253e+01
  -7.386526e+01  -2.299777e+02
  -3.826680e+01  -2.902533e+02
   9.590511e+01  -1.847448e+02
   1.811698e+02  -5.347810e+00
   1.538210e+02   1.237725e+02
   1.780574e+01   1.914024e+02
  -7.328491e+01   1.149926e+02
  -5.838924e+01   1.518186e+01
   1.384229e+01  -8.862983e+00
  -2.032690e+01  -8.092412e+00
  -7.497205e+01  -2.040884e+01
  -6.115357e+01   3.031401e+01
  -3.176313e+01  -5.210270e+01
   5.528146e+01  -3.926218e+01
   2.029479e+02  -9.572698e+00
   1.174056e+02   3.372300e+01
  -6.300534e+00   6.481004e+01
  -1.591160e+02   3.530610e+01
  -1.210042e+02  -4.019893e+01
  -2.871753e+01  -9.206797e+01
   6.839192e+01  -5.023728e+01
  -3.595908e+00   2.603058e+01
  -7.272913e+00   1.133469e+02
  -7.951184e+01   3.158132e+01
  -8.234041e+01  -2.976513e+01
  -3.048605e+01  -2.389102e+01
  -6.735942e+01  -4.399846e+01
  -1.078552e+02   1.889709e+01
  -5.355287e+01   1.575524e+01
  -3.387205e+01  -4.801526e+01
   6.158247e+01  -1.078678e+02
   9.621247e+01  -1.629375e+02
   1.165449e+02   1.358932e+01
   9.677639e+01   1.022708e+02
  -5.303017e-01   8.925383e+01
  -4.714092e+01   5.385208e+01
  -6.364328e+01   4.245815e+01
   5.799761e+01   7.484115e+00
   1.420671e+02   1.314971e+01
   7.127305e+01   7.668459e+01
  -8.269006e+01   8.001812e+01
  -1.368211e+02   2.920306e+01
  -1.637636e+02   1.196213e+01
  -5.546576e+01  -3.428493e+01
   3.198759e+01  -5.713836e+01
   3.128390e+01  -1.524328e+00
  -4.943977e+01   3.259572e+01
  -6.991608e+01  -1.653617e+01
  -7.935486e+00  -1.046578e+02
   9.727584e+01  -1.377551e+02
   1.425672e+02  -6.633100e+01
   1.226833e+02   1.057172e+02
   3.660064e+01   1.514203e+02
  -1.027414e+02   1.665960e+02
  -1.134244e+02  -4.501386e+01
  -4.628723e+01  -1.353002e+02
   9.205081e+00  -1.206426e+02
   5.762442e+01  -5.141239e+01
   5.881200e+00   3.270123e+00
   2.324230e+01  -2.208382e+01
  -1.348520e+01  -6.715140e+01
   5.030103e+01   2.512039e+01
   7.851286e+01   9.821179e+01
   5.255689e+00   1.286205e+02
  -5.484102e+01   6.863696e+01
  -1.622367e+02  -9.830476e+01
  -1.196704e+02  -1.076183e+02
  -3.159661e+01  -6.398863e+01
   1.120328e+02  -1.639993e+01
   6.055337e+01   1.671216e+01
  -1.202240e+01   4.097217e+01
  -3.801365e+01   2.659071e+01
   4.454935e+00  -8.366837e+00
   1.319704e+01  -1.354412e+01
  -1.181700e+01   1.751283e+01
  -8.860428e+01  -3.235148e+01
  -9.033785e+01  -1.061521e+01
  -4.642538e+01  -8.396765e+01
   1.041909e+02  -1.464503e+02
   2.051936e+02  -7.713121e+01
   1.531238e+02   3.437393e+01
   1.743392e+01   1.157421e+02
  -5.937846e+01   1.820878e+02
  -1.034901e+02   4.633188e+01
  -7.008286e+01  -3.871924e+01
  -7.384166e+01  -4.420115e+00
  -3.580030e+01  -1.119711e+01
  -7.428402e+00   1.903915e+01
  -2.229234e+01  -7.053496e+00
  -2.811323e+01  -1.030134e+02
   1.944111e+01  -9.122253e+01
   7.563062e+01   1.889656e+01
   2.757977e+01   1.383978e+02
  -5.887478e+00   9.647392e+01
  -3.708148e+01  -1.692213e+01
  -8.968153e+01  -7.984629e+01
  -2.554800e+01  -1.036789e+02
   8.253968e+01   3.502430e-01
   7.027113e+01   1.365298e+01
   8.871756e+00   5.654207e+01
  -4.921766e+01   8.029339e+01
  -3.601478e+01   2.370536e+00
   5.346444e+01  -2.313830e+01
   1.003424e+02  -5.693154e+00
   1.216008e-01   3.038389e+01
  -7.413637e+01   2.200475e+01
  -7.887358e+01   3.270849e+01
  -6.231244e+01  -3.116466e+01
   6.737076e+01  -4.741037e+01
   6.671936e+01  -5.217967e+01
  -2.294665e+01   2.618559e-02
  -1.062672e+01   5.893122e+01
  -3.385383e+01   1.545685e+01
   3.158083e+00   5.427582e+00
  -3.153005e+01  -8.036835e+01
   1.373904e+01  -9.985666e+00
   3.084678e+01   3.862107e+01
  -7.611223e-01  -2.811306e+01
   1.628026e+01  -1.074695e+01
   3.774698e+01  -3.044577e+01
   2.700277e+01  -4.419883e+00
   8.570676e+00   8.596988e+01
  -2.055915e+01   4.190780e+01
  -4.479114e+01   6.107216e+00
  -4.053529e+01  -7.609278e+01
   6.910715e+00  -7.496129e+01
   4.666984e+01  -3.311434e+01
   7.788964e+01   7.561351e+01
  -1.254208e+01   6.636563e+01
  -1.070822e+02   6.319276e+01
  -1.243174e+02  -4.274024e+01
  -4.044664e+01  -5.728162e+01
   6.405361e+01  -9.270575e+00
   8.032035e+01  -1.088662e+01
   5.722676e+00   1.802906e+01
  -3.662527e+01  -1.843240e+01
  -1.714315e+01  -1.153182e+01
   9.018108e+01  -1.680446e+01
   8.329798e+01  -2.099127e+01
