
 $NMID
 id='ANONYMOUS ', fmtdat='(2E16.6)'
 volume=1.0
 tramp=1.0
 $END
  -4.123725e+03   2.593209e+02
  -2.720691e+03  -2.446566e+03
   6.054554e+02  -2.798061e+03
   2.049018e+03  -9.637480e+02
   1.031764e+03   4.038564e+02
  -4.064031e+02   4.761200e+02
  -7.580128e+02  -3.530735e+02
   2.726322e+00  -9.358402e+02
   7.725163e+02  -6.372007e+02
   8.841366e+02   6.845405e+01
   5.041424e+02   7.672134e+02
  -1.986477e+02   7.369393e+02
  -5.769262e+02   7.951874e+01
  -3.978856e+02  -6.615191e+02
   2.023084e+02  -7.159587e+02
   5.286377e+02  -5.601591e+01
   2.969462e+02   5.968454e+02
  -2.277877e+02   6.153197e+02
  -6.334099e+02   1.625285e+02
  -4.137734e+02  -3.483833e+02
  -1.271004e+01  -3.727455e+02
   2.450131e+02  -2.127028e+02
   1.653285e+02   2.504602e+01
  -3.185844e+02  -3.115935e+00
  -3.965585e+02  -2.410248e+02
  -8.304680e+01  -3.904800e+02
   4.598983e+02  -2.999489e+02
   7.519657e+02   1.030612e+02
   3.497316e+02   5.138105e+02
  -3.803598e+02   3.543104e+02
  -6.353786e+02  -6.906837e+01
  -2.966895e+02  -4.515097e+02
   2.809608e+02  -5.321703e+02
   5.403639e+02  -2.094637e+02
   4.207969e+02   2.137639e+02
   7.721659e+01   4.635741e+02
  -2.047328e+02   2.668729e+02
  -1.682262e+02  -1.868366e+02
   1.569069e+02  -3.255291e+02
   4.188282e+02   4.415746e+01
   1.902166e+02   6.084499e+02
  -3.489310e+02   6.405967e+02
  -5.890571e+02   1.287196e+01
  -2.055990e+02  -5.034536e+02
   3.409916e+02  -2.632082e+02
   3.658443e+02   3.383300e+02
  -4.419337e+01   5.084392e+02
  -5.748223e+02   1.231934e+02
  -5.932457e+02  -3.907669e+02
  -1.723398e+02  -5.743553e+02
   3.759158e+02  -3.475480e+02
   5.852203e+02   1.362009e+02
   4.098444e+02   3.760746e+02
  -1.824476e+02   3.562056e+02
  -4.761364e+02   7.293079e+01
  -2.917782e+02  -1.553994e+02
   9.591105e+01  -7.548003e+01
   7.886893e+01   1.510100e+02
  -1.862431e+02   7.825631e+01
  -3.341219e+02  -8.749870e+01
  -1.191674e+02  -2.874400e+02
   2.472147e+02  -2.714073e+02
   3.858762e+02  -6.476439e+01
   2.509789e+02   1.030271e+02
  -2.272935e+01   2.827997e+02
  -2.671118e+02   3.441680e+02
  -3.983138e+02   2.519635e+02
  -2.894034e+02  -1.734689e+02
  -8.653025e+01  -3.785143e+02
   7.826252e+01  -3.345216e+02
   9.702595e+01  -7.497229e+01
  -2.884589e+01  -5.506350e+01
   7.970872e+01  -1.233755e+02
   1.954535e+02  -1.575193e+02
   2.731722e+02   8.384201e+01
   1.429852e+02   2.558306e+02
  -6.717692e+01   1.888297e+02
  -2.044857e+02  -3.991365e+01
  -1.482217e+02  -2.599368e+02
   3.504999e+01  -2.799054e+02
   2.823975e+02  -9.998928e+01
   3.462797e+02   1.873997e+02
   1.640647e+02   3.601094e+02
  -1.314553e+02   3.177039e+02
  -2.134299e+02   6.170390e+01
  -1.598132e+02   2.295921e+01
  -7.373138e+01   2.552838e+01
  -2.349500e+02   6.570693e+01
  -4.454323e+02  -1.072250e+02
  -3.703400e+02  -3.085155e+02
   9.821846e+00  -4.397220e+02
   3.781839e+02  -4.171280e+02
   4.991939e+02  -1.981532e+02
   3.088580e+02   1.160094e+02
   6.141230e+01   3.091809e+02
  -7.699738e+01   2.488956e+02
  -7.975777e+01   3.966436e+01
   1.121804e+02  -1.261450e+02
   1.804777e+02   4.517885e+01
   4.760368e+01   2.079674e+02
  -1.838731e+02   1.444948e+02
  -1.917841e+02  -3.063109e+01
   2.226479e+01  -2.215525e+02
   2.617882e+02  -5.330888e+01
   1.212473e+02   2.838601e+02
  -3.486420e+01   3.477357e+02
  -2.670799e+02   2.398710e+02
  -3.144841e+02  -6.380438e+01
  -2.221466e+02  -2.396012e+02
  -4.876301e+01  -2.448935e+02
   1.362376e+02  -1.728934e+02
   1.479180e+02  -6.165199e+01
   4.447590e+01   5.244233e+01
  -7.131437e+01  -6.267473e+01
  -1.118264e+01  -1.346577e+02
   1.695977e+02  -1.242199e+02
   2.275559e+02   5.038295e+01
   7.516624e+01   6.489577e+01
  -6.578275e+01   1.872131e+01
  -1.027987e+02  -4.021485e+01
   1.169119e+02  -3.386744e+01
   3.249830e+02  -2.404656e+00
   2.704556e+02   1.429412e+02
  -7.089386e+00   2.413365e+02
  -2.157028e+02   2.081736e+02
  -3.274733e+02   1.181328e+02
  -1.772849e+02  -4.387483e+01
   8.561884e+01  -1.386457e+02
   1.594490e+02   1.771673e+01
  -1.141742e+01   1.268283e+02
  -2.746270e+02   1.081214e+02
  -2.368501e+02  -7.039668e+01
  -3.726523e+01  -2.130178e+02
   9.560441e+01  -1.444141e+02
   1.287972e+02  -5.520811e+01
   6.802856e+01   3.498916e+00
  -3.902873e+01   3.337370e+01
  -1.704586e+01  -7.141511e+01
   6.609022e+01  -7.868888e+01
   2.027142e+02   3.556579e+01
   1.838762e+02   1.485260e+02
  -2.676304e+01   2.200321e+02
  -1.876835e+02   1.211314e+02
  -2.280577e+02   1.401880e+00
  -4.082931e+01  -9.694839e+01
   1.425088e+01  -8.992212e+01
   6.095362e+01  -3.280025e+01
   3.368147e+01  -3.452498e+01
   6.489553e+01   2.274183e+01
   6.179845e+01   1.896021e+01
   7.347545e+01   2.736037e+01
   8.875650e+01   1.124898e+02
   1.608066e+01   1.664411e+02
  -1.727195e+02   1.675992e+02
  -2.478440e+02  -1.027193e+01
  -1.803363e+02  -1.742577e+02
  -1.844784e+01  -2.134446e+02
   1.513723e+02  -1.494181e+02
   1.170565e+02  -3.041330e+01
   4.814637e+01   5.295041e+01
   3.916397e+00   1.830749e+01
   5.341497e+01   2.574236e+01
   6.402731e+01  -3.718319e+01
   3.587204e+01   6.372539e+01
  -1.983574e+01   9.185708e+01
  -9.322194e+01   3.760876e+01
  -9.471567e+01  -3.705583e+01
  -1.299462e+01  -8.623313e+01
   1.207496e+02  -1.506727e+02
   2.584403e+02   7.405812e+01
   9.343134e+01   1.862913e+02
  -5.240481e+01   2.312876e+02
  -2.321198e+02   1.142310e+02
  -2.863776e+02  -9.644015e+01
  -1.223832e+02  -1.451343e+02
   1.571470e+01  -1.061667e+02
   1.059630e+02  -8.618322e+01
   8.398684e+01  -1.168411e+02
   9.605901e+01  -1.123357e+02
   8.841377e+01  -8.987448e+01
   1.532021e+02   4.911443e+01
   1.033429e+02   1.453113e+02
   5.162401e+01   2.207160e+02
  -7.066521e+01   1.430154e+02
  -1.981045e+02   4.314362e+01
  -1.437547e+02  -9.215509e+01
   1.285922e+01  -1.728764e+02
   5.230784e+01  -1.015020e+02
   9.898791e+01   3.520900e+00
  -1.912373e+01   2.955657e+01
  -4.467754e+01   5.398082e+00
   3.957023e+01   9.777346e+00
   8.717568e+01   2.340663e+01
   1.123235e+02   1.129943e+01
  -8.871304e+01   3.185259e+00
  -1.977365e+02   1.544841e+01
  -1.292114e+02  -4.585645e+01
  -1.143514e+01  -8.422479e+01
   1.326699e+02  -1.069158e+02
   1.572206e+02  -2.673257e+01
   8.446600e+01   8.976769e+01
  -9.879061e+00   4.973882e+01
  -2.525015e+01  -2.063751e+01
   3.811208e+01  -1.026601e+02
   4.177835e+01  -8.902900e+01
   1.287889e+01   5.665226e+00
   6.125053e+01   4.673166e+01
   7.125205e+01   5.181077e+01
   2.837114e+01   8.283089e+00
   7.499030e+01   4.202994e+00
   6.780780e+01   5.191007e+01
   2.947684e+01   1.754877e+02
  -8.235358e+01   1.507569e+02
  -1.906239e+02   8.183126e+01
  -1.248096e+02  -9.708179e+01
  -3.862049e+01  -1.454566e+02
   1.198653e+02  -3.385292e+01
  -3.103266e+00   1.809228e+01
  -4.866967e+01   3.767400e+01
  -1.266627e+02  -7.158488e+01
  -2.011354e+01  -8.890745e+01
   8.691296e+01  -1.014450e+02
   1.839424e+02  -4.933424e+01
   1.763128e+02   2.406665e+01
   3.077102e+01   1.221856e+02
  -7.068982e+01   8.969939e+01
  -7.872478e+01   2.621080e+01
   1.264540e+01  -3.897283e+01
   9.306686e+01  -7.346040e+00
   2.798749e+01   1.221149e+02
  -9.526892e+01   1.296811e+02
  -1.760237e+02   5.687999e+01
  -1.346969e+02  -7.321728e+01
  -8.711974e+00  -1.863292e+02
   5.936864e+01  -9.507937e+01
   1.241992e+02   1.839704e+01
   5.957121e+01   1.084654e+02
   1.631634e+01   7.247961e+01
  -5.949281e+01   2.141910e+01
  -6.254144e+01   7.261822e+00
  -2.748397e+01  -3.070886e+01
  -8.968444e+00   5.932493e+01
  -6.957237e+01  -4.305379e+01
  -5.873912e+01  -9.461124e+01
  -2.318068e+01  -6.568801e+01
   2.254543e+01  -6.630778e+01
   1.026385e+02   3.423685e+01
   7.957252e+01   7.220925e+01
   1.525820e+01   3.547310e+01
  -1.095663e+02   4.269625e+00
  -1.133036e+02   1.372602e+01
  -2.691665e+00  -1.931077e+01
   7.958005e+01  -3.992076e+01
   1.042903e+00  -3.934270e+01
   1.201546e+01  -3.946951e+01
   2.751520e+01   1.404129e+01
   9.379955e+01   4.694505e+01
   6.644403e+01  -1.165407e+01
  -7.783101e+00   3.483192e+01
  -1.329264e+02   9.107188e+01
  -2.160242e+02   7.650051e+01
  -1.785400e+02  -5.671775e+01
   5.844500e-01  -1.438614e+02
   9.746483e+01  -1.466720e+02
   1.137535e+02  -7.370536e+01
   9.248595e+01  -1.673565e+01
   1.890642e+01   3.236154e+01
   1.668968e+01   3.521324e+01
   6.213239e+00   4.118916e+01
   6.908208e+01   5.157626e+01
   6.224586e+01   9.719035e+01
  -5.319237e+01   9.451700e+01
  -9.199168e+01  -4.292815e+00
  -1.089357e+02  -1.121367e+02
  -9.674886e+00  -1.232709e+02
   9.337821e+01  -2.760480e+00
   1.018548e+02   6.554612e+01
   3.378302e+01   1.396848e+02
  -9.200350e+01   3.324358e+01
  -6.673943e+01   1.134251e+01
  -2.706472e+01  -7.067629e+01
   2.584004e+01  -7.260198e+01
   1.911424e+01  -2.448057e+00
  -8.109175e+01  -1.243215e+00
  -5.681727e+01  -1.428363e+01
  -4.702755e+01  -1.449224e+01
   7.581870e+01  -5.148109e+01
   1.165647e+02  -6.343153e+01
   9.241921e+01   2.168156e+01
  -6.578905e+01   6.116347e+01
  -1.022809e+02   6.420002e+01
  -2.068378e+01  -2.632105e+01
   4.768723e+01  -8.358605e+01
  -1.189227e+01  -3.996278e+01
   5.992159e+01  -5.461592e+01
   3.618742e+01   5.673145e+01
   3.108849e+01   6.210415e+01
  -4.863088e+01   3.705770e+00
  -6.282224e+01  -7.956686e+00
  -4.337040e+01   2.760242e+00
   9.136842e+00   3.711346e+01
   3.340564e+01   1.980468e+01
   1.816405e+01  -1.442872e+01
  -3.017752e+00  -3.730683e+01
   1.208236e+01  -1.593821e+01
   3.148991e+01   3.691497e+01
   1.384045e+01   7.713461e+01
  -3.074647e+01   4.042454e+01
  -3.702457e+01  -3.667433e+01
  -6.095767e+00  -8.025580e+01
   3.788582e+01   8.599852e+00
   9.520894e+01  -1.391006e+00
   1.151511e+02   5.475112e+01
  -3.400279e+01   5.026764e+01
  -8.905103e+01   2.966861e+01
  -5.169205e+01   4.111736e+01
   1.639489e+01   3.743219e+01
   3.683487e+01   9.474183e+00
  -2.645091e+01   2.435547e+01
  -8.096037e+01   5.054855e+00
