
 $NMID
 id='ANONYMOUS ', fmtdat='(2E16.6)'
 volume=1.0
 tramp=1.0
 $END
   2.877604e+03   4.651766e+01
   1.820450e+03   1.282153e+03
   7.407476e+01   1.692293e+03
  -1.040655e+03   1.253506e+03
  -8.812443e+02   3.508936e+02
  -2.792900e+02  -1.966906e+02
   1.298065e+02  -2.258927e+01
   3.706458e+01   3.428509e+02
  -2.627773e+02   4.410995e+02
  -5.225526e+02   4.959949e+01
  -4.180199e+02  -3.984094e+02
  -1.208818e+02  -4.632383e+02
   7.812808e+01  -1.643392e+02
   1.684925e+02   2.275134e+02
  -5.018710e+01   4.396849e+02
  -4.485320e+02   1.057531e+01
  -2.988731e+02  -4.306209e+02
   5.679373e+01  -6.185699e+02
   4.096381e+02  -3.385192e+02
   4.603361e+02   8.636099e+01
   2.634454e+02   3.443999e+02
  -8.880573e+01   2.844944e+02
   2.627889e+01   9.156564e+01
   1.845350e+02   1.834351e+02
   1.556256e+02   3.518598e+02
  -5.430744e+01   3.499242e+02
  -4.843342e+02   4.713519e+01
  -4.880436e+02  -2.241116e+02
  -8.764648e+01  -2.892588e+02
   3.399892e+02  -1.408320e+02
   4.459391e+02   2.055521e+02
   1.177009e+02   3.349400e+02
  -2.733534e+02   3.087881e+02
  -4.325941e+02   9.860742e+01
  -3.309290e+02  -1.159877e+02
  -4.938981e+01  -2.534597e+02
   2.196792e+01  -2.219516e+02
  -8.930824e+01   4.464271e+01
  -1.180320e+02   3.992162e+01
  -8.038018e+01  -2.115891e+02
   6.598721e+01  -4.544436e+02
   2.437448e+02  -3.445606e+02
   2.401569e+02  -7.953918e+00
   6.314649e+01   2.787713e+02
  -1.497002e+02   1.024964e+02
  -8.888138e+01  -2.818324e+02
   1.622258e+02  -3.596831e+02
   4.474470e+02  -4.223582e+01
   4.398413e+02   3.995075e+02
   9.102525e+01   5.181983e+02
  -3.223064e+02   2.622925e+02
  -4.906839e+02  -6.035773e+01
  -3.278126e+02  -1.959330e+02
   3.568718e+01  -1.897494e+02
   2.747686e+02  -4.573151e+01
   1.754303e+02  -5.743363e+01
   7.436693e+01  -1.613343e+01
   4.234773e+01   4.872839e+00
   9.362343e+01  -3.495606e+01
   2.024824e+02   1.034183e+02
   1.003373e+02   2.167624e+02
  -1.522937e+02   2.273407e+02
  -3.261075e+02   1.142810e+02
  -2.711202e+02  -1.754871e+02
   9.098842e+00  -3.770601e+02
   2.451676e+02  -3.365370e+02
   3.570145e+02  -1.504224e+02
   2.193299e+02   1.444653e+02
   7.326491e+01   3.264365e+02
  -1.501603e+01   2.648748e+02
  -2.732902e+01   2.428195e+02
  -9.933881e+01   1.589444e+02
  -1.460445e+02   1.100857e+02
  -2.613894e+02   3.574528e-01
  -2.318713e+02  -1.196515e+02
  -7.649173e+01  -2.019112e+02
   1.113218e+02  -1.114358e+02
   2.126272e+02   7.395220e+01
   1.359767e+02   2.177072e+02
  -8.086082e+01   2.210597e+02
  -2.166860e+02   5.364340e+01
  -3.210528e+02  -1.128218e+02
  -1.240321e+02  -3.384145e+02
   6.198911e+01  -2.622847e+02
   1.734870e+02  -1.525138e+02
   1.517591e+02  -1.339422e+02
   1.687801e+02  -8.025205e+01
   2.856739e+02  -3.206882e+01
   4.114227e+02   1.807584e+02
   2.938040e+02   3.555238e+02
  -4.702443e+01   4.639324e+02
  -4.088873e+02   3.569235e+02
  -4.957362e+02   1.516202e+02
  -2.510811e+02  -1.345531e+02
  -1.265662e+01  -2.236264e+02
   8.341175e+01  -1.663340e+02
  -4.673551e+01  -8.261663e-01
  -1.686726e+02   3.540304e+01
  -9.296782e+01  -6.231527e+01
   8.700427e+01  -1.196476e+02
   1.006372e+02  -9.669141e+01
   8.938817e+01   1.018108e+02
  -4.898041e+01   1.331896e+02
  -1.551073e+02  -2.274452e+01
  -1.399092e+02  -2.573265e+02
   2.121539e+00  -3.846596e+02
   2.518668e+02  -2.061244e+02
   3.932450e+02   9.928670e+01
   3.266857e+02   2.072765e+02
   4.564938e+01   2.371861e+02
  -1.584086e+02   1.313894e+02
  -1.297569e+02  -2.296346e+01
  -9.899886e+00  -6.953291e+00
   6.521875e+01   1.006963e+02
  -3.176527e+01   1.322260e+02
  -1.593760e+02   1.242362e+02
  -2.055904e+02   8.262458e+00
  -1.468773e+01  -4.912936e+01
   6.936031e+01   2.585919e+01
   2.821979e+01   9.931882e+01
  -1.898309e+02   1.186366e+02
  -3.351440e+02  -2.682317e+01
  -2.868672e+02  -1.868892e+02
  -2.120338e+01  -2.834848e+02
   2.143036e+02  -2.228138e+02
   2.644361e+02  -9.068221e+01
   1.883403e+02   2.346396e+01
  -3.985322e+01   2.134749e+01
  -6.467808e+01  -7.248407e+01
   7.594825e+01  -1.033379e+02
   2.157412e+02  -3.244597e+01
   1.568846e+02   9.215694e+01
   5.005616e+01   2.068396e+02
  -8.959878e+01   1.194356e+02
  -9.596197e+01   3.592404e+01
  -2.400144e+01  -2.166781e+01
   2.980937e+01   5.226640e+01
  -1.794019e+01   1.327849e+02
  -1.464831e+02   1.286284e+02
  -1.786224e+02   8.129140e+00
  -1.710480e+02  -1.490524e+02
   2.490219e+01  -1.962785e+02
   1.599307e+02  -1.947424e+02
   1.457676e+02  -3.700984e+01
   1.570544e+01   5.060738e+01
  -3.693781e+01   1.067009e+02
  -3.086921e+01  -1.860093e+00
   3.500736e+01  -1.431860e+01
   4.258319e+01  -4.293489e+01
   6.298459e+00  -2.505518e+01
  -6.881095e+01  -1.967826e+01
  -9.467283e+01  -1.402654e+02
   5.669461e+01  -2.036277e+02
   1.382172e+02  -1.691739e+02
   2.513116e+02   6.115798e+00
   2.129981e+02   2.207993e+02
   2.373486e+01   2.686903e+02
  -1.077865e+02   1.831652e+02
  -1.708695e+02   2.506328e+01
  -9.692311e+01  -6.561475e+01
   1.198315e+01   2.611059e+00
  -7.585648e+01   5.010966e+01
  -1.110083e+02   2.038170e+01
  -2.211346e+01  -9.677737e+01
  -2.626087e+00  -1.299342e+02
   2.210424e+02  -6.762510e+01
   1.446951e+02   5.209342e+01
  -2.353605e+00   1.137991e+02
  -1.982651e+02   8.722300e+01
  -2.493928e+02  -7.740200e+01
  -8.494713e+01  -2.798095e+02
   1.695448e+02  -2.316847e+02
   2.701899e+02  -6.522596e+01
   2.588979e+02   6.121727e+01
   1.072678e+02   1.446997e+02
  -1.802966e+01   1.609761e+02
  -4.919727e+01   8.262463e+01
  -9.177309e+01   7.822033e+01
  -6.189933e+01   3.591600e+01
  -8.781752e+01   9.826815e+01
  -1.617405e+02  -1.582838e+01
  -1.174387e+02  -1.728385e+02
  -3.985563e+01  -2.471208e+02
   7.605084e+01  -1.673267e+02
   1.577189e+02   1.356554e+01
   9.833993e+01   1.387028e+02
  -1.740985e+00   1.430645e+02
  -1.078798e+02   4.201880e+01
  -5.703250e+01  -6.006012e+01
  -2.585348e+01  -2.472275e+01
   6.890608e+01  -4.049827e+01
   4.978217e+01  -2.077751e+01
  -6.615123e+01  -1.899161e+01
  -1.275516e+02  -2.346584e+01
   8.257731e+01  -8.642110e+00
   2.152134e+02  -9.791530e+00
   1.018092e+02   6.466445e+01
  -2.405064e+01   7.414934e+01
  -1.414755e+02   1.032524e+02
  -1.708136e+02   2.586167e+01
  -4.778905e+01  -5.449173e+01
   2.029994e+01  -7.365232e+01
   6.093706e+01   1.448061e+01
  -4.653220e+00   9.825517e+01
  -5.636231e+01   4.755104e+01
  -4.616498e+01   2.165856e+01
  -4.208223e+01  -7.490726e+01
  -5.971454e+01  -6.497264e+01
  -6.040425e+01  -4.576901e+01
  -7.504109e+01   5.912173e+00
  -2.466381e+01  -1.149542e+02
   4.512183e+01  -1.511431e+02
   1.271058e+02  -1.232424e+02
   1.676986e+02  -2.438972e+01
   1.410083e+02   1.375080e+02
  -2.049396e+01   1.349701e+02
  -9.969123e+01   1.201219e+02
  -4.116792e+01  -4.504447e+01
   2.510529e+01  -5.410813e+01
   1.442339e+02   4.323102e+01
   8.418699e+01   1.062550e+02
  -9.143313e+01   6.956858e+01
  -1.874124e+02   2.678628e+01
  -1.101947e+02  -3.011860e+01
   1.941481e+01  -3.252852e+01
   6.878993e+01  -5.224086e+01
   1.122507e+01   5.918648e+01
  -9.098845e+01   3.969106e+01
  -1.379303e+02  -4.379038e+00
  -4.642776e+01  -1.509310e+02
   8.517206e+01  -1.683828e+02
   1.749583e+02  -7.899537e+01
   1.560820e+02   1.086535e+02
  -1.659849e+01   1.899942e+02
  -1.253638e+02   1.201075e+02
  -1.287148e+02  -3.241116e+01
  -1.140852e+01  -1.536286e+02
   3.837335e+01  -1.050230e+02
   8.613594e+01   1.160358e+01
   4.999676e+01   5.427363e+01
   3.883705e+01   1.266317e+01
   4.940036e+01   2.504114e+01
   3.737070e+01   2.942076e+00
   8.605295e+01   5.723232e+01
   2.885126e+01   1.061225e+02
  -2.134346e+01   6.237503e+01
  -2.023822e+02  -4.751842e+01
  -9.259112e+01  -6.944818e+01
  -2.378320e+00  -8.957565e+01
   9.676040e+01  -5.346307e+01
   8.837524e+01  -8.335686e-01
   3.990468e+00   2.271195e+01
  -1.973392e+01   1.454229e+01
  -6.140987e+01   2.791527e+01
   3.503732e+01  -1.105229e+01
  -1.346968e+01  -3.029058e+01
  -9.170122e+01  -3.185643e+01
  -4.782722e+01  -2.615289e+01
  -1.592886e+01  -9.335527e+01
   9.599484e+01  -1.126711e+02
   1.983449e+02  -9.847942e+01
   1.839880e+02   8.716312e+01
   3.673808e+01   1.722890e+02
  -1.285533e+02   1.407185e+02
  -1.114835e+02   8.944239e+01
  -6.757260e+01   2.403984e+01
  -9.650029e+00  -5.501405e+01
  -2.183001e+01  -8.403488e+00
   7.529188e+00  -3.197853e+01
  -1.513513e+01  -2.712491e+00
  -3.122848e+01  -3.756722e+01
   2.971961e+01  -5.140254e+01
   8.328003e+01   4.452011e+01
   7.647262e+01   1.431832e+02
  -1.444357e+01   7.659741e+01
  -1.220895e+02   2.206590e+01
  -8.715481e+01  -8.005652e+01
  -1.677527e+01  -1.049717e+02
   4.494468e+01  -3.500386e+01
   4.292493e+01   1.808766e+01
   5.484813e+01   4.855433e+01
  -1.784942e+01   4.160251e+01
  -1.739652e+01   7.847866e+00
  -4.276783e+01  -2.274797e+01
   6.688669e+01  -1.053568e+01
   2.168096e+01   1.021701e+01
  -6.251296e+01   1.152364e+02
  -1.195107e+02   1.803318e+01
  -9.051044e+01  -3.109570e-01
   4.436144e+01  -8.231330e+01
   5.010241e+01  -6.631740e+01
   8.291201e+01  -7.421610e+00
  -3.668638e+00   3.679588e+01
  -1.866545e+01   2.150123e+01
  -5.375624e+01   1.332407e+00
  -1.933834e+01   3.914868e+00
  -2.999699e+01  -4.266746e+01
   1.824773e+01  -1.922206e+01
   6.822162e+01   8.944973e+01
   5.039268e+01   2.359487e+01
  -6.170779e+01  -1.180097e+01
  -2.336820e+01  -1.583199e+00
   4.843978e+00   2.184272e+01
   4.883026e+01   6.289535e+01
  -3.546399e+01   1.557459e+01
  -6.216867e+01  -5.489928e+00
   6.739950e+00  -5.371231e+01
   6.145567e+01  -2.059977e+01
   5.353990e+01   2.585978e+01
  -2.228573e+00   7.820873e+01
  -8.270535e+01   7.039948e+01
  -8.115808e+01  -1.605673e+01
  -4.892960e+01  -4.201521e+01
   7.297508e+01  -7.131091e+01
   1.148286e+02  -8.312686e+01
   4.194733e+01   1.428049e+01
  -2.479027e+00   3.054316e+01
   1.020123e+01   2.221092e+01
   1.972680e+01  -3.182963e+00
   7.028127e+01  -2.259255e+01
