
 $NMID
 id='ANONYMOUS ', fmtdat='(2E16.6)'
 volume=1.0
 tramp=1.0
 $END
  -2.515139e+03   1.453408e+02
  -1.913856e+03  -1.252571e+03
  -2.585869e+02  -1.704530e+03
   7.394521e+02  -1.216301e+03
   8.595010e+02  -5.469649e+02
   4.236462e+02  -3.906000e+01
  -9.959196e+01   8.709010e+01
  -4.513330e+01  -3.258988e+02
   3.085730e+02  -4.170187e+02
   5.283296e+02  -2.033728e+02
   3.521574e+02   2.873099e+02
   7.632942e+01   4.877168e+02
  -1.796938e+02   1.721560e+02
  -1.962339e+02  -2.844353e+02
   7.174315e+01  -4.481867e+02
   2.873682e+02  -1.004884e+02
   3.747111e+02   3.836883e+02
  -1.756221e+01   5.452443e+02
  -3.900345e+02   2.077924e+02
  -4.180748e+02  -1.494575e+02
  -1.452734e+02  -3.285158e+02
   1.084457e+02  -2.989882e+02
   2.312665e+01  -9.144035e+01
  -1.842771e+02  -2.627715e+02
  -2.124331e+02  -3.742862e+02
   6.361604e+01  -3.393373e+02
   4.405422e+02  -4.073639e+01
   4.023705e+02   1.809593e+02
   1.152352e+02   2.543795e+02
  -3.030374e+02   6.378581e+01
  -4.047611e+02  -1.694759e+02
  -1.609455e+02  -2.804174e+02
   1.985260e+02  -3.416799e+02
   3.450259e+02  -1.132750e+02
   2.754607e+02   9.184109e+01
   1.035493e+02   2.046719e+02
   6.712920e+01   1.094954e+02
   1.318646e+02  -7.610154e+01
   1.573225e+02  -1.822173e+01
   1.062860e+02   2.118256e+02
  -4.350349e+01   4.312359e+02
  -1.839456e+02   2.755980e+02
  -1.610216e+02   4.451249e+00
  -5.893795e+01  -1.937826e+02
   1.090389e+02  -4.909843e+01
   8.551055e+01   2.170863e+02
  -1.266012e+02   3.223154e+02
  -4.054073e+02   3.306480e+01
  -4.085847e+02  -3.221176e+02
  -9.717296e+01  -4.470368e+02
   2.560601e+02  -2.348065e+02
   4.238870e+02   2.685570e+01
   2.954167e+02   1.320281e+02
   2.387979e+01   1.683135e+02
  -1.878541e+02   1.193098e+02
  -1.879486e+02   1.025702e+02
  -4.648524e+01   5.988694e+01
  -9.400766e+00  -8.448247e+00
  -9.836032e+01  -1.173850e+01
  -1.743806e+02  -7.011835e+01
  -9.224023e+01  -1.410295e+02
   1.820255e+02  -2.061820e+02
   2.792953e+02  -1.527986e+02
   2.457547e+02   9.574871e+01
  -6.076867e+00   3.757052e+02
  -3.351991e+02   3.750460e+02
  -3.233622e+02   1.166261e+02
  -1.955415e+02  -2.394074e+02
  -6.391056e+01  -2.883282e+02
  -6.071348e+01  -2.197342e+02
  -5.338829e+01  -1.523166e+02
  -1.339669e+00  -1.361143e+02
   1.169439e+02  -1.665816e+02
   2.628738e+02  -4.245758e+01
   2.120861e+02   1.210024e+02
   8.987315e+01   2.583871e+02
  -1.146213e+02   1.370492e+02
  -2.125090e+02  -1.096970e+02
  -8.280290e+01  -2.360498e+02
   7.482399e+01  -2.301961e+02
   2.404086e+02  -2.150528e+01
   3.033006e+02   2.020601e+02
   1.639971e+02   2.968792e+02
  -5.105775e+01   2.710949e+02
  -1.461177e+02   1.905299e+02
  -1.721858e+02   8.208368e+01
  -1.279716e+02   6.624534e+01
  -3.043101e+02   2.728403e+01
  -4.152678e+02  -6.107614e+01
  -3.067190e+02  -2.333670e+02
   2.544291e+01  -3.841932e+02
   3.058515e+02  -3.195829e+02
   4.122738e+02  -1.581606e+02
   2.249369e+02   1.213682e+02
  -4.101691e+01   2.053209e+02
  -6.912754e+01   1.580417e+02
  -1.779784e+01   2.159861e+01
   1.289716e+02   1.473854e+01
   7.883672e+01   3.400013e+01
   2.588249e+01   9.554108e+01
  -7.392381e+01   4.211976e+01
  -5.079934e+01  -3.167835e+01
   1.256038e+01  -1.396415e+02
   1.396182e+02   3.319356e+01
   1.653419e+02   2.251964e+02
  -2.648719e+01   3.394118e+02
  -2.762890e+02   1.602664e+02
  -3.486396e+02  -2.405467e+01
  -2.770390e+02  -2.380133e+02
  -3.187003e+01  -2.861251e+02
   1.202755e+02  -1.231744e+02
   1.002346e+02  -4.618982e+01
  -6.678565e+00  -3.494840e+00
  -4.811187e+01  -1.211882e+02
   4.695101e+00  -1.106668e+02
   1.325275e+02  -8.685876e+01
   1.043710e+02  -2.407542e+01
   1.318485e+00  -8.185194e+00
  -8.979881e+01  -4.330356e+01
  -7.901508e+00  -1.523847e+02
   2.214685e+02  -9.819625e+01
   3.055003e+02   4.081040e+00
   2.728503e+02   1.874806e+02
   4.095683e+00   2.763364e+02
  -2.124659e+02   2.324429e+02
  -2.518503e+02   7.980777e+01
  -1.331771e+02  -9.939874e+01
   4.167242e+01  -5.329090e+01
   8.207890e+01   1.630420e+01
  -2.995124e+01   7.265511e+01
  -1.578941e+02   2.450096e+01
  -1.627656e+02  -1.228118e+02
  -6.367735e+01  -1.761463e+02
   4.557097e+01  -9.467920e+01
   1.179308e+02  -4.513974e+01
   2.506740e+01  -7.319538e+00
  -1.961029e+01  -4.131934e+01
  -1.716418e+01  -1.264317e+02
   1.545021e+02  -1.126396e+02
   2.264496e+02  -2.639943e+01
   1.893869e+02   1.466796e+02
  -1.529195e+01   1.330842e+02
  -1.549784e+02   9.869091e+01
  -1.277149e+02  -3.169488e+01
  -3.931103e+01  -8.087392e+01
   3.314861e+01  -4.129158e+01
   6.720460e+01   1.692963e+01
   1.945152e+00   2.917097e+01
  -4.546673e+01   8.403383e+00
   9.510219e+00  -3.976015e+01
   7.603579e+01   3.276988e-01
   1.058006e+02   1.355422e+02
   1.215685e+01   1.371382e+02
  -1.475547e+02   1.301291e+02
  -2.306819e+02   9.618398e+00
  -1.559836e+02  -1.459977e+02
  -1.903129e+01  -2.315874e+02
   6.959723e+01  -9.889092e+01
   7.289299e+01  -2.506263e+01
   4.808791e+01   3.585648e+01
   1.768064e+00   3.219400e+01
   4.993992e+01   2.365809e-01
   1.045970e+02  -2.646323e+00
   7.121736e+01   4.416654e+01
  -1.370310e+01   1.241384e+02
  -1.293343e+02   6.274391e+01
  -1.133028e+02   2.232634e+00
   2.323466e+01  -1.065109e+02
   1.351639e+02  -6.019954e+01
   1.810686e+02   1.242601e+02
   7.588103e+01   2.385926e+02
  -1.986028e+02   1.399135e+02
  -2.662662e+02   1.543115e+01
  -2.238895e+02  -1.251810e+02
  -7.843855e+01  -1.731183e+02
   6.830267e+01  -1.576521e+02
   1.135375e+02  -6.439056e+01
   1.375490e+02  -6.192656e+01
   5.926536e+01  -8.510487e+01
   1.021133e+02  -4.555033e+01
   1.287208e+02   2.065683e+01
   1.318768e+02   1.746399e+02
   4.271834e+01   2.319069e+02
  -1.062826e+02   1.373562e+02
  -1.893112e+02   3.310588e+01
  -1.401602e+02  -1.187449e+02
   1.139802e+00  -1.836948e+02
   5.722184e+01  -1.051403e+02
   3.123727e+01   5.741251e+00
  -2.144313e+01   4.222426e+01
  -2.003965e+01   1.866503e+01
   3.822096e+01   2.263806e+01
   7.637799e+01   8.054979e+00
   8.272844e+01   4.018705e+01
  -7.767903e+01   3.565220e+01
  -1.377650e+02   1.174889e+00
  -1.140804e+02  -7.976015e+01
   8.280037e+00  -1.117158e+02
   1.391494e+02  -7.355050e+01
   1.515065e+02   5.916430e+00
   7.752394e+01   5.705480e+01
  -8.404815e+01   4.619033e+01
  -7.729185e+01  -2.199226e+01
  -1.328736e+01  -6.661546e+01
   4.559739e+01  -3.469229e+01
   9.044494e+01  -6.212257e+01
   6.290417e+01   1.983486e+01
   5.568914e+01   6.039985e+01
   4.623845e+01   2.225513e+01
   4.377352e+01   2.432229e+01
   6.920771e+01   6.447615e+01
   5.663544e-01   1.417139e+02
  -1.235869e+02   1.420618e+02
  -1.906429e+02   8.440122e+01
  -1.619246e+02  -7.580571e+01
   4.055629e+01  -1.539314e+02
   1.077815e+02  -7.995096e+01
   7.744234e+01   8.476365e+00
  -4.972481e+01   1.802185e+01
  -1.095400e+02  -1.577680e+01
  -5.948709e+01  -9.140910e+01
   8.653676e+01  -8.557105e+01
   1.706650e+02  -5.513901e+01
   1.270693e+02   4.470255e+01
   3.315447e+01   1.101796e+02
  -4.033567e+01   6.848059e+01
  -4.718925e+01  -2.985505e+01
  -1.382920e+01  -3.630363e+01
   4.506242e+01   5.566771e+01
   2.541334e+01   8.540858e+01
  -1.777921e+01   1.432479e+02
  -1.641000e+02   4.572320e+01
  -1.349269e+02  -9.902032e+01
  -2.576404e+01  -1.609939e+02
   1.060302e+02  -1.228377e+02
   1.288989e+02   3.770252e+00
   9.390095e+01   5.726942e+01
  -2.863796e+01   1.264816e+02
  -3.473623e+01   1.551224e+01
  -1.608945e+01  -2.321054e+01
   7.214279e+00   4.684710e+00
  -3.193894e+01  -1.074062e+01
  -8.686785e+01  -3.372542e+01
  -4.629586e+01  -1.194200e+02
  -1.313670e+01  -6.933971e+01
   9.359582e+01   4.235815e+00
   1.205698e+02   6.141285e+01
   8.458197e+01   4.939848e+01
  -7.469576e+00   6.486167e+01
  -8.453316e+01   7.645439e+00
  -1.053964e+02   5.553262e+00
  -2.048870e+01  -3.270553e+01
   2.968992e+01  -3.231943e+01
  -1.390687e+00   3.456027e+01
   4.985709e+00   7.522015e+00
  -1.672229e+01   4.134984e+01
   5.451795e+01  -2.917622e+01
   6.815496e+01  -1.153931e+01
   3.391588e+01   7.663074e+01
  -8.387165e+01   1.230500e+02
  -1.850275e+02   4.417234e+01
  -1.653801e+02  -8.318091e+01
  -6.052460e+01  -1.400614e+02
   4.586386e+01  -1.577999e+02
   1.286072e+02  -4.485731e+01
   9.595339e+01   1.656166e+01
   3.441366e+01   1.425299e+01
   6.493982e+00   9.015840e+00
   3.360111e+01   3.673321e+01
   3.347277e+01   8.157371e+01
   6.132942e+00   5.990197e+01
   6.532425e+00   7.079022e+01
  -9.747884e+01  -2.882948e+01
  -7.240037e+01  -5.726749e+01
  -2.065046e+01  -5.568445e+01
   8.039746e+01  -4.560797e+01
   8.038981e+01   3.815127e+01
   7.184421e+01   1.493615e+02
  -5.769624e+01   7.309421e+01
  -8.380414e+01  -5.711252e+01
  -5.721037e+01  -6.914511e+01
   1.814896e+01  -6.259743e+01
   3.314150e+01  -3.727954e+00
  -1.456840e+01   3.142970e+01
  -3.112879e+01   4.263858e+01
  -4.943182e-01  -2.947084e+01
   1.072731e+02  -3.343092e+01
   1.139174e+02  -5.131912e+01
   4.204229e+01  -1.908305e+01
   1.828251e+01   4.227804e+01
  -4.436322e+01   1.080169e+01
  -2.052933e+01  -7.992870e+00
  -1.460889e+01  -1.045044e+01
   3.018180e+01  -1.914421e+01
   4.952842e+01   4.195505e+01
   3.655352e+01   5.571326e+01
   7.276196e+00   6.341594e+01
  -4.384706e+01  -1.492889e+01
  -6.745989e+00  -4.824151e+01
  -1.285164e+01  -3.722899e+01
   1.118856e+01   1.017396e+01
   1.137846e+01  -2.290151e+01
  -1.270519e+01  -4.671730e+01
  -2.052387e+01  -7.154128e+01
   7.735637e+01  -6.088748e+01
   6.665200e+01  -1.140550e+01
   1.794621e+01   7.425088e+01
  -7.441884e+01   4.159521e+01
  -8.331142e+01  -3.095051e+01
  -2.388872e+01  -2.219160e+01
   5.470574e+01  -6.380589e+00
   1.159293e+02  -2.796103e+01
   6.338269e+01   4.056940e+01
   2.948996e+01   3.583384e+01
  -9.226795e+00   8.458695e+01
  -4.241882e+01   3.273308e+01
   4.150308e+01   4.253367e+00
   1.060793e+01  -5.777790e+00
  -4.395761e+01   1.940131e+01
  -5.471133e+01   5.236767e+01
