
 $NMID
 id='ANONYMOUS ', fmtdat='(2E16.6)'
 volume=1.0
 tramp=1.0
 $END
   2.057012e+03  -3.108017e+01
   1.554279e+03   9.791132e+02
   1.548763e+02   1.376772e+03
  -6.763514e+02   1.024376e+03
  -6.270276e+02   3.870269e+02
  -1.742630e+02  -8.531167e+01
   1.623488e+02  -5.933827e+01
   1.538266e+02   2.801807e+02
  -1.167639e+02   4.640189e+02
  -4.204999e+02   1.420717e+02
  -3.179605e+02  -2.426510e+02
  -4.176812e+00  -3.578518e+02
   1.458931e+02  -1.100613e+02
   1.682385e+02   2.186794e+02
  -4.755909e+00   3.846453e+02
  -2.742320e+02   1.304854e+02
  -2.202784e+02  -2.679962e+02
   3.430848e+00  -3.570839e+02
   2.530812e+02  -1.944034e+02
   3.660298e+02   1.273568e+02
   1.076245e+02   2.562162e+02
  -1.172206e+02   1.695909e+02
  -4.145742e+01   1.051646e+02
   1.700234e+02   2.168303e+02
   1.398682e+02   3.370227e+02
  -1.038210e+02   2.144750e+02
  -3.713012e+02   5.753808e+01
  -3.664350e+02  -1.376575e+02
  -9.446482e+01  -2.044787e+02
   2.235695e+02  -8.599184e+01
   2.592683e+02   1.504652e+02
   2.582261e+01   2.637392e+02
  -2.027674e+02   1.648617e+02
  -2.957966e+02   5.170039e+00
  -2.166158e+02  -9.145637e+01
  -5.432066e+01  -1.250943e+02
  -5.631360e+01  -8.033451e+01
  -1.324479e+02   2.316182e+01
  -1.550060e+02  -2.319079e+01
  -6.641198e+01  -1.688553e+02
   5.165395e+01  -3.756133e+02
   1.842347e+02  -2.546921e+02
   1.859864e+02   3.109540e+01
   3.220724e+01   1.513774e+02
  -4.349784e+01   6.977160e+01
  -9.613594e+01  -1.975436e+02
   8.144938e+01  -2.662279e+02
   3.097683e+02  -1.854755e+01
   3.306580e+02   2.526774e+02
   7.712828e+01   3.200325e+02
  -1.990838e+02   1.668435e+02
  -3.109153e+02  -4.817947e+01
  -2.312843e+02  -1.490146e+02
   3.079406e+00  -1.087921e+02
   1.625725e+02  -3.341009e+01
   1.432594e+02  -1.703199e+01
   3.374246e+01  -2.602919e+01
  -2.184328e+01   8.726167e+00
   4.107346e+01  -3.631121e+01
   9.949590e+01   5.126788e+01
   9.830108e+01   1.341210e+02
  -9.253137e+01   1.578427e+02
  -2.604151e+02   1.239749e+02
  -2.193935e+02  -8.464646e+01
   7.398534e+00  -2.930173e+02
   2.198330e+02  -2.682907e+02
   2.830374e+02  -1.069347e+02
   1.374200e+02   1.418457e+02
   4.218812e+00   2.933658e+02
   1.093169e+01   2.168491e+02
   2.660530e+01   1.353176e+02
  -6.919243e+00   1.127016e+02
  -1.255976e+02   9.653768e+01
  -1.946937e+02   2.776675e+01
  -1.850848e+02  -7.569591e+01
  -1.019450e+02  -1.520854e+02
   5.601337e+01  -1.068912e+02
   8.658433e+01   3.501028e+01
   9.271359e+01   1.268061e+02
   5.165248e+00   1.567386e+02
  -1.719892e+02   4.651273e+01
  -2.185357e+02  -1.397607e+02
  -1.301693e+02  -1.599815e+02
  -6.196463e+00  -2.074539e+02
   9.355033e+01  -1.646401e+02
   1.129765e+02  -7.370715e+01
   1.379282e+02  -4.490740e+01
   2.362760e+02   4.986674e+01
   3.349117e+02   1.232116e+02
   2.362328e+02   2.776299e+02
  -4.576802e+01   3.275791e+02
  -3.342756e+02   2.971906e+02
  -3.725601e+02   1.260520e+02
  -1.727529e+02  -5.036356e+01
   7.186570e-02  -1.243219e+02
   5.988061e+01  -1.165232e+02
   4.442802e-01  -5.415707e+01
  -8.116970e+01  -1.273957e+01
  -5.148004e+01  -4.275090e+01
  -2.554884e+01  -9.920541e+01
   1.803103e+01  -5.813204e+01
   2.666258e+01   5.584767e+01
   8.800723e+00   1.080901e+02
  -1.207393e+02  -9.234644e+00
  -1.049481e+02  -1.895007e+02
  -1.570058e+01  -2.152380e+02
   1.666374e+02  -1.433013e+02
   3.064728e+02   3.031773e+01
   1.959341e+02   2.107390e+02
   2.536321e+01   2.080569e+02
  -9.461682e+01   1.109830e+02
  -8.827776e+01   2.267686e+01
  -5.896389e+00   1.612143e+01
   1.684897e+01   6.387740e+01
  -9.366386e+01   7.903995e+01
  -1.248406e+02   2.426890e+01
  -1.027809e+02  -3.730320e+01
  -2.022945e+01  -9.150773e+00
   6.788919e+01   5.617375e+00
  -1.601429e+01   2.101703e+01
  -1.146984e+02   6.226179e+01
  -2.201842e+02  -5.183760e+00
  -1.630817e+02  -7.461714e+01
  -2.632906e+01  -2.126766e+02
   1.442822e+02  -1.561905e+02
   1.932346e+02  -2.296009e+01
   1.175704e+02   5.636353e+01
  -7.586946e+00   6.153651e+01
  -6.271161e+01  -4.005950e+01
   4.220602e+01  -4.900238e+01
   1.183177e+02  -1.656550e+01
   1.273612e+02   1.101585e+02
   7.730719e+01   1.100033e+02
  -4.543838e+01   4.412225e+01
  -7.801251e+01  -1.105666e+01
  -3.048542e+01  -9.153293e+01
   6.778637e+01   3.046886e+01
   2.854784e+01   1.121212e+02
  -7.542023e+01   8.370736e+01
  -1.766317e+02   2.322561e+01
  -1.397877e+02  -6.717853e+01
  -3.939905e+01  -1.098604e+02
   1.069666e+02  -1.103962e+02
   1.296605e+02  -4.110471e+01
   2.486979e+01   5.939145e+01
  -5.165372e+01   9.528825e+01
  -3.964895e+01   2.594444e+01
   1.936708e+00  -3.238997e+01
   6.356769e+01  -3.762001e+00
  -5.013576e+01   5.464221e+01
  -5.606879e+01   2.800462e+01
  -8.744933e+01  -9.091333e+01
   1.109002e-01  -1.565699e+02
   1.333115e+02  -1.333555e+02
   1.991061e+02   6.651315e+00
   1.230046e+02   1.592032e+02
   3.481450e+00   1.945496e+02
  -5.299348e+01   1.048564e+02
  -7.244363e+01  -9.545159e+00
  -5.975855e+01   4.446974e+00
  -2.349990e+01   1.578863e+01
  -6.909199e+01   3.466181e+01
  -7.542693e+01  -6.264892e+00
  -6.143345e+01  -6.959404e+01
   5.132355e+01  -1.186537e+02
   1.303470e+02  -8.875671e+01
   1.200463e+02   1.109948e+01
   3.372633e+01   1.090259e+02
  -1.055872e+02   1.027499e+02
  -1.614059e+02  -4.883831e+01
  -8.434914e+01  -1.682674e+02
   1.233877e+02  -1.529074e+02
   1.939336e+02  -3.278085e+01
   1.384646e+02   8.710689e+01
   4.218137e+01   1.231804e+02
  -2.438337e+01   6.897083e+01
  -7.381920e+01   6.492040e+01
  -7.431810e+01   2.520663e+01
  -4.782465e+01   6.146176e+01
  -7.389993e+01   7.588339e+01
  -1.081776e+02   4.833534e+01
  -8.123171e+01  -1.250113e+02
  -3.396265e+01  -1.878898e+02
   3.801583e+01  -1.571356e+02
   1.286813e+02   4.492482e+00
   9.027349e+01   9.498895e+01
   4.973953e+01   9.411477e+01
  -1.525480e+01   5.587177e+01
  -7.830931e+01  -3.171150e+01
   2.001583e+01  -6.177755e+01
   1.562049e+01  -1.340570e+01
   3.502583e+00   1.334427e+01
  -6.876598e+01   1.558692e+00
  -5.565598e+01  -6.541380e+01
   6.987843e+01  -3.418728e+01
   1.617861e+02   1.052929e+01
   1.364984e+02   7.903688e+01
   6.298952e+01   8.480471e+01
  -8.978911e+01   5.978684e+01
  -1.035784e+02  -6.439281e+00
   1.561254e+00  -9.539073e+01
   5.287128e+01  -3.147121e+01
   6.134277e+01   1.367342e+01
   3.286306e+01   7.462357e+01
  -1.842710e+01   7.371042e+01
  -4.070074e+01   1.018227e+01
  -5.305238e+01  -1.610512e+01
  -6.651645e+01  -7.388955e+01
  -4.675088e+00  -3.760295e+01
  -9.983990e+00  -6.068337e+00
  -3.098317e+01  -6.464321e+01
   3.335426e+01  -9.605063e+01
   1.058587e+02  -1.017378e+02
   1.080464e+02  -6.065063e+01
   1.116154e+02   3.723366e+01
  -2.432844e+01   9.455577e+01
  -5.708565e+01   7.004270e+01
  -7.540386e+01   1.316229e+01
   2.345257e+01   1.306309e+01
   7.653794e+01   2.359371e+01
   6.061745e+01   9.047734e+01
  -8.795533e+01   7.483976e+01
  -1.121654e+02   1.163137e+01
  -1.530946e+02  -3.006904e+01
  -4.717463e+01  -8.915263e+01
   2.353728e+01  -4.222486e+01
  -1.326858e+00  -2.099628e+01
  -1.770077e+01  -6.689908e+00
  -3.185869e+01   4.390554e+00
   2.782268e-01  -1.109350e+02
   7.354960e+01  -1.062803e+02
   1.445066e+02  -7.023413e+01
   1.261487e+02   6.448589e+01
  -8.686719e+00   1.579402e+02
  -5.935478e+01   1.004760e+02
  -7.964735e+01   2.047925e+01
  -5.219902e+01  -1.073452e+02
   1.916455e+01  -1.240893e+02
   3.677620e+01  -1.611423e+01
   2.628745e+01   4.809518e+01
  -4.778018e+01   1.258219e+01
  -1.255044e+01  -1.456680e+00
  -2.007309e+01   1.852342e+01
   5.112148e+00   4.524460e+01
   5.155450e+00   4.599193e+01
  -5.997407e+01   6.296377e+00
  -1.176489e+02  -5.901123e+01
  -4.841648e+01  -6.698694e+01
   3.301612e+00  -4.838140e+01
   4.396432e+01  -3.465152e+01
   4.503889e+01  -1.533469e+01
   4.576639e+01   1.286092e+01
   3.583238e+00   7.918511e+00
  -1.070610e+01  -2.903935e+01
   9.255349e+00  -3.345545e+00
   2.412671e+01  -4.399984e+01
  -9.555601e+00   1.327325e+00
  -9.987553e+01  -7.997330e-01
  -3.059360e+01  -9.937339e+01
   5.968052e+01  -1.188866e+02
   1.537642e+02  -3.402131e+01
   1.244895e+02   4.195628e+01
   2.758349e+01   1.198675e+02
  -4.689221e+01   1.165251e+02
  -4.104534e+01   4.129040e+01
  -7.013936e+01  -3.678948e+01
   9.639567e+00  -5.287280e+01
   2.459785e+01  -3.342416e+00
  -1.461744e+01  -1.882660e+01
  -2.584404e+01  -4.286144e+00
  -1.831554e+01  -5.546634e+01
   5.157109e+01  -2.988156e+01
   4.496011e+01  -2.334856e+01
   5.737604e+01   6.116629e+01
   2.146032e+01   3.708994e+01
  -7.648774e+01  -1.185088e+01
  -1.035788e+02  -6.581936e+01
  -1.789884e+01  -1.426885e+02
   6.583808e+01  -7.096145e+01
   9.565898e+01  -8.210597e+00
   5.394654e+01   6.216223e+01
  -2.964375e+01   7.255499e+01
  -4.708017e+01   5.435123e+01
   4.335750e+01  -2.094722e+01
   6.421646e+01  -3.939951e+01
   6.624885e+00   1.174275e+01
  -5.354926e+01   7.270063e+01
  -1.039625e+02   3.829704e+01
  -2.214633e+01  -4.819762e+01
   3.477274e+01  -8.789386e+01
   5.391727e+01  -6.265370e+01
   4.566208e+01  -1.146187e+01
   1.395131e+01   3.646432e+01
  -5.245254e+01   5.804457e+01
  -2.178002e+01  -2.639728e+01
  -6.527540e+01  -1.573549e+01
  -8.773228e+00  -6.995366e+01
   6.039285e+01   1.467392e+01
   3.913973e+01   1.886049e+00
  -1.647046e+01  -1.201067e+01
  -7.099543e+01   3.784109e+01
  -5.210525e+01   1.284102e+01
  -3.088478e+01   1.030836e+01
  -5.930787e+00   6.098129e+01
  -5.522911e+01   2.942963e+01
  -7.697817e+01  -4.212472e+00
   2.774368e+00  -9.666079e+01
   9.413513e+00  -3.537374e+01
   9.899300e+01   2.428557e+01
   7.397584e+01  -2.429780e+01
   2.118091e+01   3.933061e+01
  -8.094298e+01  -1.126412e+01
  -2.334491e+01  -5.789672e+01
   6.084235e+01  -2.436505e+01
   5.422053e+01  -4.062018e+00
   3.132099e+01   6.590421e+00
  -4.615560e-01  -2.245763e+01
  -6.855663e+01   3.216834e+01
   1.472389e+01   3.302139e-01
   5.071179e+01  -1.167539e+01
