
 $NMID
 id='ANONYMOUS ', fmtdat='(2E16.6)'
 volume=1.0
 tramp=1.0
 $END
   1.461240e+03  -2.615677e+02
   9.475739e+02   6.078009e+02
  -1.288691e+02   8.462663e+02
  -6.274808e+02   5.173282e+02
  -4.039379e+02   6.986294e+01
  -1.249919e+02  -9.316855e+01
   1.103150e+02  -7.831440e+01
   1.454153e+01   7.377508e+01
  -1.622592e+02   2.166572e+02
  -3.892536e+02   7.623890e+01
  -1.977339e+02  -2.334887e+02
   2.742794e+01  -2.637352e+02
   9.770962e+01  -1.411511e+02
   3.271133e+01   3.165525e+01
  -1.666890e+00   1.500704e+02
  -1.814816e+02   5.087704e+01
  -1.858509e+02  -1.932718e+02
  -5.911826e+00  -2.598017e+02
   1.374819e+02  -1.228101e+02
   2.422611e+02  -1.796262e+01
   1.448005e+02   1.486966e+02
  -1.374252e+02   1.185343e+02
  -4.254642e+01   3.448279e+01
   4.977813e+01   9.826494e+01
   7.663354e+01   9.434322e+01
  -8.492573e+01   1.447198e+02
  -2.254679e+02   2.123094e+01
  -1.966419e+02  -1.622040e+02
  -5.076873e+01  -1.418160e+02
   1.490509e+02  -6.883906e+01
   2.049106e+02   9.148228e+01
   4.250311e+01   1.412287e+02
  -1.420676e+02   1.212366e+02
  -1.857795e+02   3.121657e+01
  -1.139202e+02  -3.776552e+01
  -1.591863e+01  -1.126103e+02
   2.048909e+00  -5.396376e+01
  -5.235910e+01   2.453846e+01
  -9.007754e+01   2.663314e+01
  -8.957975e+01  -7.327461e+01
   1.493620e+01  -2.608402e+02
   1.493156e+02  -1.604154e+02
   9.139524e+01   3.381783e+01
   2.754997e+01   1.389201e+02
  -7.303564e+01   3.932353e+01
  -6.653137e+01  -1.623518e+02
   7.650756e+01  -2.171521e+02
   1.955312e+02   1.881378e+01
   1.770398e+02   2.013144e+02
   7.762890e+01   2.433760e+02
  -1.093302e+02   1.215195e+02
  -2.343927e+02  -5.969148e+01
  -1.691105e+02  -1.201430e+02
   8.188000e+00  -6.714840e+01
   1.490794e+02  -8.175075e+01
   1.389633e+02  -1.218905e+01
   1.678721e+01  -2.040466e+01
  -1.145115e+01   2.997223e+00
   4.432329e+01   3.440297e+01
   8.866819e+01   6.440624e+01
   6.896376e+01   9.384834e+01
  -8.217240e+01   9.649392e+01
  -1.884840e+02   3.389832e+01
  -1.701587e+02  -5.928500e+01
  -2.326224e+01  -1.639019e+02
   1.431580e+02  -1.662910e+02
   1.873851e+02  -6.427495e+01
   9.168069e+01   5.892600e+01
   2.040838e+01   1.164244e+02
   1.495973e+01   7.770533e+01
   2.029878e+01   7.036762e+01
  -1.382341e+01   1.054544e+02
  -9.697386e+01   9.199935e+01
  -1.171040e+02  -1.480149e+01
  -9.708885e+01  -7.163322e+01
  -1.525992e+00  -1.221741e+02
   1.087694e+02  -4.321033e+01
   9.615047e+01   3.080835e+01
   2.635114e+01   1.158311e+02
  -2.729251e+01   1.019101e+02
  -1.337006e+02   5.475650e+01
  -9.881540e+01  -7.758851e+01
  -6.357337e+01  -9.633048e+01
   8.715920e+00  -1.063695e+02
   8.958413e+01  -1.122346e+02
   5.716638e+01  -6.321525e+01
   5.119653e+01  -5.585297e+01
   1.210028e+02   2.366122e+01
   1.779822e+02   8.536051e+01
   1.303308e+02   1.496167e+02
  -1.338827e+01   2.089889e+02
  -2.062335e+02   1.678890e+02
  -1.914873e+02   2.042226e+01
  -1.129218e+02  -5.811098e+01
  -1.580938e+01  -9.495970e+01
   1.614883e+01  -6.862663e+01
   1.017810e+01   3.036308e+01
  -7.977663e+01  -3.687984e+00
  -1.623870e+01  -3.852697e+01
   2.762895e+01  -5.889632e+01
   5.278181e+01   1.458827e+01
   3.868778e+01   3.583521e+01
  -3.435359e+01   4.780414e+01
  -7.143663e+01  -3.359346e+01
  -2.613602e+01  -1.222169e+02
   1.345110e+01  -1.062326e+02
   1.311299e+02  -7.134770e+01
   1.734513e+02   5.058333e+01
   9.949825e+01   7.604233e+01
  -7.558562e-01   1.118543e+02
  -8.336283e+01   4.755785e+01
  -1.220993e+01   1.385932e+00
   1.507770e+01  -1.292985e+01
   4.587909e+01   4.730267e+01
  -3.609458e+01   3.142683e+01
  -4.484941e+01  -1.146575e+01
  -3.980271e+01  -4.197174e+01
  -2.933068e+01   1.016863e+01
   2.500165e+01   4.445111e+01
   3.981624e+00   5.392051e+01
  -7.250364e+01   5.410681e+01
  -1.985483e+02   4.818771e+00
  -1.195863e+02  -1.222268e+02
  -3.425969e+01  -1.740685e+02
   1.221233e+02  -1.313283e+02
   1.461903e+02  -5.119479e+01
   2.985588e+01   1.376696e+01
  -1.827267e+01   5.320274e+00
  -4.002698e+01  -2.916513e+01
   7.574869e+01  -1.985476e+01
   8.096233e+01  -1.844826e+00
   7.759352e+01   2.006693e+01
   3.603930e+01   8.567998e+01
  -2.216847e+01   1.475626e+01
  -8.584640e+01   5.436810e+01
  -4.668925e+00   4.323017e+00
   4.847206e+01   2.958359e+01
   2.305936e+01   6.427863e+01
  -3.354891e+01   6.179798e+01
  -1.362000e+02   2.304476e+01
  -7.996539e+01  -7.837966e+01
   4.648811e+01  -9.487069e+01
   1.000789e+02  -3.911281e+01
   8.183650e+01   5.535454e+00
  -1.304685e+01   5.010564e+01
  -3.238338e+01   6.407600e+01
  -3.772212e+01   1.286111e+00
   1.935433e+01  -3.796309e+01
   4.252811e+00   1.209389e+01
  -4.652650e+01   2.730882e+01
  -4.328914e+01   2.761165e+01
  -6.065476e+01  -6.936587e+01
  -2.397596e+01  -8.018267e+01
   5.959822e+01  -1.106705e+02
   1.251458e+02  -1.667694e+01
   9.721141e+01   3.778861e+01
   2.527936e+01   9.202840e+01
  -5.646514e+01   6.583873e+01
  -3.061926e+01   3.120919e+01
  -4.777823e+01  -1.209003e+01
   9.385344e+00   3.569239e+00
   1.925551e+01   4.303956e+01
  -5.919915e+01   1.297693e+01
  -3.384069e+01  -3.504528e+01
   3.234643e+01  -4.615343e+01
   5.656192e+01  -1.817222e+01
   7.598905e+01   3.177667e+01
   1.653969e+01   4.926771e+01
  -8.813341e+01   3.367854e+01
  -9.372192e+01  -3.781665e+01
   7.867875e+00  -7.639470e+01
   5.347383e+01  -1.141057e+02
   1.277624e+02  -3.708227e+01
   1.148772e+02   2.681157e+01
   2.824735e+01   1.070632e+02
   3.271605e+00   7.655137e+01
  -6.178121e+01   4.009845e+01
  -4.104049e+01   2.393326e+01
  -2.992461e+01   3.044885e+01
  -4.045979e+01   2.329609e+01
  -5.088895e+01  -2.101485e+00
  -4.307803e+01  -8.853681e+01
   5.322896e-01  -9.779332e+01
   4.136887e+01  -6.752638e+01
   7.193932e+01   2.250427e+01
   6.207038e+01   6.952007e+01
  -3.886197e+01   7.949546e+01
  -4.421269e+01   5.145463e+01
  -6.771337e+01  -1.045196e+01
   8.249344e+00  -1.967967e+01
   8.467739e+00  -3.247706e+01
   1.267297e+00   9.450938e+00
  -5.424713e+01   2.738716e+00
   1.869378e+01   7.950165e+00
  -1.056741e+00  -1.531216e+00
   6.274245e+01  -1.906643e+01
   3.449559e+01   6.558735e+00
  -2.163199e+01   3.458089e+01
  -3.766144e+01   2.218545e+01
   1.460062e+00  -1.236433e+01
   8.784390e+00  -5.928440e+01
   8.594923e+01  -3.110357e+01
   3.380281e+01   8.713618e+00
  -6.793305e+00   6.016066e+01
  -7.031887e+01   9.560338e+00
  -9.762304e+00   8.784357e+00
  -3.510699e+01  -5.024822e+01
  -3.255698e+01  -5.625657e+01
  -5.523925e+01  -1.811495e+01
  -1.893860e+01   4.175734e+00
  -3.552885e+01  -2.950875e+01
   1.132928e+01  -7.088564e+01
   7.938884e+01  -5.609870e+01
   9.104270e+01  -3.183339e+01
   4.322122e+01   6.010194e+01
  -6.210087e+00   1.203598e+02
  -2.109539e+01   4.755237e+01
   5.622694e+00  -9.940634e-01
  -1.450103e+01  -1.004433e+01
   4.399243e+01   2.745300e+01
   2.214038e+01   6.365683e+01
  -5.735179e+01   6.766253e+01
  -8.677467e+01  -2.697106e+01
  -3.439741e+01  -4.056597e+01
  -8.430030e-01  -3.114944e+01
   2.699894e+01  -3.123413e+01
  -9.137555e-01  -3.422919e+01
   1.621939e+01   1.699495e+01
  -6.708865e+01  -1.106445e+01
  -5.279324e+01  -6.671785e+01
   6.706568e+01  -7.757452e+01
   1.079962e+02  -6.634357e+01
   4.443182e+01   1.863703e+01
   1.836035e+01   1.120677e+02
  -5.612580e+01   6.840097e+01
  -7.613158e+01  -4.096021e+01
  -4.403366e+01  -6.195775e+01
   3.911252e+01  -6.805078e+01
   4.944047e+01  -2.355485e+01
   2.424332e+01   2.423186e+01
   3.399042e+01   2.382532e+00
  -1.832804e+01  -1.793591e+01
   3.291940e+01   2.379621e+00
   2.822630e+01   7.500875e+01
   3.766261e+01   6.715451e+01
  -1.808976e+01   3.519552e+01
  -9.243633e+01  -1.409006e+01
  -9.507798e+01  -1.424681e+01
   7.062838e+00  -1.756165e+01
   6.079099e+01  -3.929557e+01
   3.859088e+01   1.630407e+01
   1.280464e+01   3.283307e+01
  -2.158872e+01   3.941273e+01
  -5.802579e+01  -5.462652e+00
  -3.976709e+01   3.669253e+00
   2.175255e+01  -4.621697e+01
   4.279834e+00  -3.921817e-01
  -6.470702e+01  -4.273957e+01
   3.308997e+01  -5.794805e+01
   5.366142e+01  -6.692706e+01
   1.007809e+02  -4.491194e+01
   7.433215e+01   3.171838e+00
   4.224536e+01   9.336677e+01
  -2.214616e+01   6.139979e+01
  -3.480582e+01   2.952908e+01
  -5.556005e+01  -1.052850e+01
  -2.256784e+01   3.314303e-01
  -3.659155e+01   6.276661e+00
   2.855850e+01   1.048261e+01
   4.377912e+00   8.088334e+00
   2.166983e+01  -4.655694e+01
   2.186790e+01  -3.259992e+01
   3.866434e+00   6.114130e+00
   2.401788e+01   4.426601e+01
   9.094561e+00   2.251247e+01
  -1.719344e+00   4.236383e+01
  -5.459539e+01   1.278706e+00
  -1.287033e+01  -7.555737e+01
   2.614735e+01  -2.782531e+01
   9.052721e+01   2.874428e+01
   3.305628e+01   3.955970e+01
  -1.008080e+01   3.004047e+01
  -1.451561e+01  -1.303052e+01
   1.826840e+01   4.812303e+00
   4.367337e+01  -8.555034e+00
   3.956284e+01   5.584648e+01
  -1.173669e+01   3.635256e+01
  -3.681263e+01  -6.626370e+00
  -6.381337e+01   6.473527e+00
   1.974131e+01  -5.487739e+01
   3.055745e+01  -3.571887e+01
   1.513317e+01   2.023765e+01
   3.372068e+00   3.088633e+01
  -8.614315e+01   3.148331e+01
  -7.774348e+01  -4.112052e+01
   1.560948e+00  -6.022361e+01
   3.721895e+01  -3.672698e+01
   4.790154e+01   1.840007e+01
   6.762166e+00   3.973356e+01
  -1.587072e+00   3.702597e+01
  -2.098956e+01   1.966457e+00
   3.491051e-01   6.998683e+00
   1.479549e+01  -4.414921e+00
   2.922862e+01   5.266814e+00
  -1.373411e+01  -5.455698e-01
  -1.725764e+01   1.066427e-01
  -2.581915e+01  -5.059953e+01
   4.674905e+01  -3.275747e+00
   6.810609e+01   5.677781e+00
   4.296988e+01  -7.149857e+00
  -3.669425e+01   3.372984e+01
  -3.532755e+01   2.223062e+01
  -5.111398e+01   1.829152e+01
  -3.310273e+01  -2.315873e+01
   5.497166e+01  -5.075372e+01
   2.898140e+01  -2.008085e+01
   4.645941e+01   8.751204e+00
  -3.009612e+01   4.116973e+01
   8.845427e+00   3.771247e+00
   9.159439e+00  -7.235532e+00
