
 $NMID
 id='ANONYMOUS ', fmtdat='(2E16.6)'
 volume=1.0
 tramp=1.0
 $END
  -2.203661e+03   2.295838e+02
  -1.474536e+03  -1.179802e+03
  -1.041534e+00  -1.520901e+03
   8.782787e+02  -9.666985e+02
   7.567592e+02  -1.779400e+02
   2.172007e+02   1.778770e+02
  -1.378227e+02   1.474302e+02
  -8.149353e+01  -2.848689e+02
   2.346866e+02  -3.813705e+02
   4.420949e+02  -6.260522e+01
   2.609634e+02   3.345474e+02
   1.223015e+00   4.306693e+02
  -2.081010e+02   1.392117e+02
  -1.714348e+02  -2.217341e+02
   8.632860e+01  -2.702188e+02
   2.957574e+02   2.621904e+01
   2.640056e+02   3.815644e+02
  -1.710680e+01   4.488071e+02
  -3.355780e+02   2.936393e+02
  -3.574608e+02  -6.210802e+01
  -1.954329e+02  -1.999431e+02
   8.074098e+01  -1.335229e+02
  -2.637728e+01  -4.084144e+01
  -1.753590e+02  -4.119339e+01
  -2.211299e+02  -2.309705e+02
   1.117452e+02  -3.159045e+02
   4.152778e+02  -8.936904e+01
   3.968949e+02   2.017476e+02
   1.437822e+02   2.767982e+02
  -2.047264e+02   8.391324e+01
  -3.103354e+02  -1.104531e+02
  -5.916496e+01  -2.736848e+02
   2.217441e+02  -2.351444e+02
   3.504788e+02  -9.683149e+01
   2.604325e+02   1.120026e+02
   9.167599e+01   1.590796e+02
   7.825007e+00   1.238637e+02
   5.059911e+01  -8.504751e+01
   1.704409e+02  -6.826381e+01
   1.106723e+02   1.446845e+02
  -3.085091e+01   3.709954e+02
  -2.202224e+02   2.966579e+02
  -2.013610e+02  -2.675952e+01
  -6.974927e+01  -2.493284e+02
   1.366774e+02  -9.824465e+01
   1.314298e+02   2.031389e+02
  -7.137207e+01   2.724576e+02
  -3.089919e+02   3.732398e+01
  -3.320247e+02  -2.907190e+02
  -7.864753e+01  -3.846946e+02
   2.262742e+02  -1.727448e+02
   3.623650e+02   5.172629e+01
   2.371528e+02   2.110457e+02
  -4.178405e+01   1.848131e+02
  -2.026145e+02   9.789741e+01
  -1.869537e+02   3.558637e+01
  -4.231876e+01  -4.566293e+00
  -1.804528e+01  -1.662173e+01
  -5.516990e+01   7.458850e+00
  -1.136766e+02  -3.780855e+01
  -6.508533e+01  -9.779897e+01
   1.061443e+02  -1.508797e+02
   2.743635e+02  -5.230143e+01
   2.168454e+02   1.212449e+02
  -2.303118e+01   2.989336e+02
  -2.353845e+02   2.901963e+02
  -3.453415e+02   9.078868e+01
  -1.828121e+02  -1.214585e+02
  -5.830572e+01  -2.370325e+02
  -1.122441e+01  -1.714430e+02
  -1.174274e+01  -1.813556e+02
   6.294706e+01  -1.230306e+02
   1.091540e+02  -7.161323e+01
   2.506909e+02   1.144554e+01
   1.426782e+02   1.280472e+02
  -4.191108e+01   2.097723e+02
  -9.946020e+01   1.182719e+02
  -1.329097e+02  -6.210294e+01
  -5.176974e+01  -1.803056e+02
   9.463155e+01  -1.960549e+02
   2.414183e+02  -5.353163e+01
   2.028429e+02   1.400934e+02
   1.161739e+02   2.461093e+02
  -1.926784e+01   2.078290e+02
  -1.136042e+02   1.198800e+02
  -7.657321e+01   5.821743e+01
  -1.108662e+02   7.813483e+01
  -2.117404e+02   6.484960e+01
  -3.251693e+02  -8.416280e+01
  -2.793484e+02  -2.970644e+02
   3.488533e+01  -3.639660e+02
   3.315875e+02  -2.816363e+02
   3.951794e+02  -1.085474e+02
   2.110810e+02   1.360125e+02
  -1.215450e+01   1.674800e+02
  -7.148330e+01   1.746354e+02
   1.646094e+01   1.385221e+01
   8.102015e+01  -8.057067e+00
   5.298468e+01   2.230261e+01
  -1.389123e+01   7.818036e+01
  -8.542836e+01   4.687288e+01
  -7.285141e+01  -7.797272e+01
   6.095471e+01  -7.232324e+01
   1.662336e+02   2.173178e+01
   1.348799e+02   1.579430e+02
   4.379541e+00   2.684948e+02
  -1.740877e+02   1.828251e+02
  -3.120251e+02  -2.882133e+01
  -1.988502e+02  -1.837494e+02
  -4.087947e+01  -2.333538e+02
   1.096505e+02  -9.334728e+01
   9.452318e+01  -7.770541e+00
  -7.202082e+00  -4.178729e+00
  -4.065365e+01  -1.651790e+01
   1.558452e+00  -8.624538e+01
   5.799041e+01   4.447631e+00
   1.096443e+02   5.703354e+01
   2.409621e+01   1.804877e+01
  -6.595655e+01  -6.838885e+01
  -5.795744e+01  -8.128515e+01
   1.231414e+02  -3.275163e+01
   2.236511e+02  -5.065741e+00
   1.801953e+02   1.554373e+02
   4.065676e+00   2.270869e+02
  -1.582409e+02   2.159371e+02
  -2.085973e+02   1.096300e+02
  -8.330737e+01  -3.578902e+01
  -1.799054e+01  -7.265545e+01
   3.260962e+01  -1.668257e+01
  -8.554701e+01   8.527973e+01
  -1.673274e+02   4.375044e+01
  -1.388747e+02  -1.355634e+02
  -6.574248e+01  -1.253112e+02
   5.916460e+01  -1.347119e+02
   1.178116e+02  -1.704201e+01
   2.718683e+01   6.392967e+01
  -2.604891e+01  -5.464322e+01
  -1.424430e+01  -1.211676e+02
   2.328924e+01  -8.481680e+01
   1.514413e+02   2.103190e+01
   1.501939e+02   1.148283e+02
   1.149837e+01   1.168357e+02
  -9.793095e+01   1.102262e+02
  -1.521332e+02   6.828463e+00
  -3.647788e+01  -6.230752e+01
   3.392396e+01  -6.222138e+01
   6.668381e+01  -2.200625e+01
   4.750545e-01  -7.432729e-01
  -2.967749e+01   1.082563e+01
   4.446137e+01   4.141945e+01
   5.458682e+01   1.184263e+01
   7.566323e+01   8.715005e+01
  -4.623491e+00   1.292527e+02
  -1.254256e+02   9.605092e+01
  -1.697322e+02  -7.976141e+00
  -1.002876e+02  -1.634516e+02
   2.267467e+01  -1.686424e+02
   1.325071e+02  -1.330475e+02
   1.032172e+02  -1.417834e+01
   8.698163e+01   6.888178e+01
   1.059763e+01   1.217656e+01
   3.167765e+01  -3.001630e+01
   9.258257e+01  -5.764977e+00
   1.315237e+01   5.952106e+01
   1.253664e+00   9.305941e+01
  -9.675356e+01   7.568826e+01
  -7.546605e+01  -5.317626e+01
  -5.146205e+00  -9.528009e+01
   1.208103e+02  -9.203329e+01
   1.452918e+02   9.299475e+01
   6.959078e+01   1.592802e+02
  -8.006031e+01   1.689375e+02
  -1.760325e+02   2.255665e+01
  -1.949379e+02  -9.541919e+01
  -3.439085e+01  -1.144202e+02
   2.496705e+01  -1.184479e+02
   5.909329e+01  -5.160168e+01
   3.590523e+01  -3.820315e+01
   7.210428e+01  -5.242056e+01
   8.458021e+01  -4.513172e+01
   1.501445e+02   2.390174e+01
   7.663627e+01   1.340463e+02
  -4.422104e+00   1.360670e+02
  -8.498078e+01   1.203770e+02
  -1.456960e+02   1.079525e+00
  -2.878852e+01  -8.636243e+01
   2.017481e+01  -1.565617e+02
   7.581560e+01  -4.311188e+01
   5.752241e+01   6.663739e+01
  -1.028640e+01   7.574822e+01
  -5.480199e+01   5.834200e+01
   1.541607e+00   1.997119e+01
  -1.446741e+01   1.321605e+01
   3.340828e+01   3.921033e+01
  -1.160434e+02   6.101697e+01
  -1.469668e+02  -4.279407e+01
  -8.950952e+01  -1.241970e+02
   4.327942e+01  -5.241671e+01
   8.012457e+01  -4.117271e+01
   6.779266e+01   1.231450e+01
   4.396958e+01   1.593009e+01
  -4.643011e+01   3.524806e+01
  -2.893523e+01   2.728004e+00
   2.904243e+01  -4.742802e+01
   8.407183e+01  -7.008675e-01
   7.365877e+01   1.870729e+00
   1.001812e+01   4.515215e+01
   1.585375e+01   4.455358e+01
   5.776872e+01  -3.074779e+01
   3.013353e+01   9.094053e-01
   3.311758e+01   5.090292e+01
  -2.604301e+01   9.485728e+01
  -1.114340e+02   1.146431e+02
  -1.628193e+02   5.151677e+00
  -7.141329e+01  -4.927178e+01
   5.275097e+01  -1.376849e+02
   7.443614e+01  -2.062594e+01
   2.190893e+01   4.184155e+01
  -4.993782e+01  -2.293227e+01
  -7.813971e+01  -4.869212e+01
  -4.868519e+01  -1.195495e+02
   5.846502e+01  -9.243981e+01
   1.427993e+02  -2.221910e+01
   1.109773e+02   5.913055e+01
  -1.450523e+01   8.454497e+01
  -5.385608e+01   3.790010e+00
  -2.852389e+01  -4.469979e+00
   5.209381e+01  -3.671552e+01
   1.179103e+02   1.267265e+01
   4.492964e+01   8.937673e+01
  -3.944056e+01   1.118380e+02
  -1.561104e+02   6.877796e+01
  -9.209923e+01  -2.754483e+01
  -1.621945e+01  -1.538421e+02
   6.676442e+01  -7.638400e+01
   1.271130e+02  -1.282066e+01
   1.411192e+01   7.412928e+01
  -3.295508e+01   9.431337e+01
  -4.041373e+01   1.664120e+01
  -2.933291e+01   3.573801e+01
  -4.579279e+01  -3.048847e+01
  -3.372925e+01  -2.838221e+01
   3.669772e+00  -3.847450e+01
  -4.922032e+01  -8.222201e+01
   2.875765e+01  -8.907102e+01
   8.035353e+01  -1.436906e+00
   6.431900e+01   8.505815e+00
   6.480645e+01   5.589389e+01
  -1.169028e+01   4.110506e+01
  -3.605510e+01  -8.102731e+00
  -2.042420e+00  -3.349732e+01
   2.783515e+01   4.395550e+01
   4.165231e+01   3.631189e+01
  -3.479453e+00   4.226621e+01
  -7.454243e+01  -1.747125e+01
   2.493958e+00   1.146066e+01
   2.010498e+01  -2.938223e+01
   1.013971e+02   1.101625e+01
   2.958774e+01   6.617797e+01
  -7.614577e+01   1.043339e+02
  -1.657683e+02   7.850150e+01
  -1.265748e+02  -6.135723e+01
  -1.401871e+01  -1.659116e+02
   5.862503e+01  -9.024762e+01
   9.923755e+01  -2.026705e+00
   7.858901e+01   3.288333e+01
   1.863174e+01   1.898378e+01
   1.276429e+01  -6.540052e+00
   3.011574e+01   5.727824e+00
   1.597956e+01   3.629767e+01
   3.924568e+00   1.300284e+01
  -4.324366e+01   7.017492e+01
  -4.311233e+01   1.620075e+01
  -7.137472e+01  -7.529398e+01
   4.391004e+00  -6.428012e+01
   4.215100e+01  -3.506901e+01
   6.476816e+01   4.532496e+01
   3.291101e+01   8.586965e+01
  -6.478968e+01   7.017701e+01
  -6.830414e+01  -3.874879e+01
  -3.748419e+01  -5.031736e+01
   3.730991e+01  -4.005676e+01
   7.181260e+01   1.280387e+00
   1.929884e+01   1.336336e+01
  -5.140028e+01   5.003889e+00
  -1.474979e+01  -4.656227e+01
   3.236018e+01  -3.759565e+01
   8.622302e+01  -1.192419e+01
   3.928813e+01   2.797342e+01
  -1.630918e+01   6.729027e+01
  -3.635988e+01   4.913827e+01
  -3.271824e+01   1.372782e+01
   3.556933e+01  -4.546781e+01
   3.306957e+01  -3.511050e+01
   1.912762e+01  -1.059930e+01
  -1.215008e+01   1.113223e+01
  -2.493214e+01   3.203064e+01
  -2.230634e+01   1.091244e+01
   1.512910e+00  -2.870473e+01
  -4.430985e+01  -5.563637e+00
   2.396347e+01  -3.814340e+00
  -3.112643e+01   5.099296e+00
  -8.438560e+00   1.178270e+01
  -3.727196e+01  -4.237418e+01
  -1.741349e+00   1.056015e+00
   6.896620e+01   2.561813e+01
  -2.903922e+01   9.763532e+00
   1.217520e+01  -4.057771e+00
  -7.266704e+01  -1.619150e+01
  -2.028643e+01  -5.483351e+01
   5.154513e+01  -3.109569e+01
   6.060826e+01   5.202526e+01
  -1.250276e+01   6.013498e+01
  -2.626395e+01   3.086154e+01
  -4.930188e+01  -8.510880e+00
   5.197813e+00  -3.019787e+01
   2.219935e+01  -3.290438e+00
   2.278988e+01  -1.226728e+00
  -5.156578e+01   1.770400e+01
  -7.676763e+01   3.314954e+01
