
 $NMID
 id='ANONYMOUS ', fmtdat='(2E16.6)'
 volume=1.0
 tramp=1.0
 $END
   2.546620e+03  -1.279345e+01
   1.666372e+03   1.349817e+03
   5.519644e+01   1.548041e+03
  -9.729336e+02   1.027271e+03
  -8.691074e+02   2.211327e+02
  -1.194236e+02  -1.304392e+02
   2.712432e+02  -2.912660e+01
   9.680229e+01   3.631242e+02
  -2.648198e+02   4.183072e+02
  -4.524117e+02   1.305829e+02
  -3.717764e+02  -4.243628e+02
  -3.811586e+01  -6.155733e+02
   1.750591e+02  -2.598419e+02
   2.488188e+02   3.089843e+02
  -3.425655e+01   4.703214e+02
  -3.926756e+02   2.977736e+01
  -3.191911e+02  -4.342567e+02
   6.193847e+01  -5.679100e+02
   3.461105e+02  -3.030264e+02
   3.518957e+02   1.203879e+02
   5.100399e+01   3.100502e+02
  -8.525795e+01   2.392585e+02
   1.000016e+01   1.008109e+02
   1.800634e+02   1.311821e+02
   2.301894e+02   2.612426e+02
  -7.417485e+01   2.860520e+02
  -3.832832e+02   7.954050e+01
  -4.503189e+02  -1.847537e+02
  -1.442788e+02  -3.373277e+02
   3.385118e+02  -1.534793e+02
   4.552935e+02   1.815609e+02
   1.335230e+02   3.471488e+02
  -2.606584e+02   3.134082e+02
  -3.845167e+02   8.549090e+01
  -2.429871e+02  -1.282876e+02
  -6.992917e+01  -2.716384e+02
   4.515231e+01  -2.370319e+02
  -7.637231e+01   4.481294e+01
  -2.040654e+02   6.895619e+01
  -1.248131e+02  -1.765666e+02
   7.702367e+01  -4.089461e+02
   2.079322e+02  -3.645039e+02
   2.789512e+02  -3.551211e+01
   4.953758e+01   2.271491e+02
  -1.271880e+02   4.569361e+01
  -1.269460e+02  -2.325433e+02
   1.108313e+02  -3.445044e+02
   3.730763e+02  -2.038534e+01
   4.040881e+02   3.667033e+02
   1.526178e+02   3.901363e+02
  -2.573842e+02   1.376851e+02
  -4.342110e+02  -9.756953e+01
  -2.599373e+02  -1.969072e+02
   4.238143e+01  -1.601499e+02
   2.133328e+02  -4.643530e+01
   1.930087e+02  -6.787776e-01
   5.554585e+01  -5.941449e+01
   3.537948e+01  -6.951029e+01
   1.041702e+02  -2.788219e+01
   2.201097e+02  -2.796455e+01
   1.304297e+02   1.533117e+02
  -1.243008e+02   2.090553e+02
  -2.793332e+02   1.352430e+02
  -2.357229e+02  -9.371628e+01
   3.158179e+01  -2.675526e+02
   2.767686e+02  -3.345012e+02
   3.606207e+02  -1.506267e+02
   2.024883e+02   1.305782e+02
   4.780252e+01   2.525275e+02
  -1.110239e+00   2.194732e+02
   5.307938e+01   1.472563e+02
  -1.967591e+01   1.486765e+02
  -1.167232e+02   1.210283e+02
  -2.685652e+02   1.908362e+01
  -2.248152e+02  -1.290256e+02
  -5.299866e+01  -2.347343e+02
   1.023149e+02  -2.109892e+02
   2.065286e+02   4.664169e+01
   1.018606e+02   2.203310e+02
  -2.904085e+01   2.431912e+02
  -2.660108e+02   2.064598e+01
  -2.807117e+02  -1.739818e+02
  -1.820021e+02  -2.354484e+02
   4.751999e+01  -1.939354e+02
   1.190438e+02  -1.236859e+02
   1.064984e+02  -3.831196e+01
   1.346655e+02  -4.631567e+01
   2.541635e+02  -2.166688e+01
   3.754948e+02   8.323778e+01
   2.600951e+02   2.663034e+02
  -7.538767e+01   3.660668e+02
  -3.446813e+02   2.990173e+02
  -4.750257e+02   1.091372e+02
  -2.455745e+02  -1.501133e+02
   2.798165e+01  -2.516058e+02
   1.323716e+02  -1.725335e+02
   4.899927e+01   3.205520e+00
  -9.791425e+01   5.160446e+01
  -9.568059e+01  -2.013365e+01
   2.049197e+01  -6.252040e+01
   1.080654e+02  -5.240880e+01
   6.430287e+01   4.971989e+01
  -3.505009e+01   1.020696e+02
  -1.835108e+02   1.295032e+01
  -1.217367e+02  -2.112943e+02
  -1.695298e+01  -3.148195e+02
   1.798619e+02  -1.971762e+02
   3.204211e+02   5.446213e+01
   2.232310e+02   2.553092e+02
   2.728131e+01   2.440965e+02
  -1.281708e+02   1.160456e+02
  -1.251835e+02  -5.315106e+01
  -6.809015e+00  -4.856307e+01
   3.989910e+01   2.572408e+01
  -2.488510e+01   8.595891e+01
  -1.139489e+02   5.737358e+01
  -1.446820e+02  -6.503594e+01
   6.504514e+00  -5.591939e+01
   1.151416e+02   2.627619e+01
   2.015598e+01   8.692653e+01
  -1.162019e+02   8.557862e+01
  -2.715036e+02  -2.821063e+01
  -2.518901e+02  -1.581891e+02
  -6.602424e+01  -2.736979e+02
   2.345880e+02  -1.757445e+02
   2.841401e+02  -1.000429e+02
   1.139798e+02   5.374303e+01
  -5.430010e+01   3.159619e+01
  -9.103572e+01   3.687732e+01
   5.158239e+01  -3.463941e+01
   1.444210e+02   7.472997e+00
   1.029265e+02   6.294638e+01
   2.802554e+01   1.251219e+02
  -8.325317e+01   7.374570e+01
  -1.261146e+02  -3.848208e+00
  -2.930266e+00  -6.331426e+01
   5.691492e+01  -6.224842e+01
   1.966472e+01   8.146016e+01
  -1.035316e+02   9.980103e+01
  -2.158946e+02   3.442543e+01
  -1.081193e+02  -1.246539e+02
   2.914179e+01  -2.157422e+02
   1.546815e+02  -1.587703e+02
   1.813791e+02  -5.981528e+01
   4.285148e+01   1.038730e+02
  -7.810340e+01   6.967371e+01
  -6.125470e+01   5.533207e+01
   2.177077e+01  -1.340286e+01
   6.179730e+01   2.716511e+01
  -1.542620e+01  -7.256609e+00
  -6.399996e+01   3.155478e+01
  -1.241799e+02  -5.573020e+01
  -6.777302e+01  -1.291641e+02
   1.227056e+02  -1.571219e+02
   2.550371e+02  -2.880366e+01
   1.769878e+02   1.361201e+02
   4.944209e+01   1.962002e+02
  -8.462153e+01   9.392771e+01
  -1.631979e+02   1.454145e+01
  -8.304580e+01  -2.982659e+01
  -4.549144e+01  -7.135689e+01
  -5.019802e+01  -2.649884e+01
  -8.182698e+01  -2.884539e+01
  -4.112187e+01  -3.465224e+01
   7.920121e+01  -7.109272e+01
   1.136155e+02  -6.036115e+01
   1.292135e+02   5.347296e+01
   1.465030e+01   1.327024e+02
  -2.056898e+02   1.256990e+02
  -2.664789e+02  -3.188985e+01
  -6.453127e+01  -1.856102e+02
   9.264897e+01  -2.493033e+02
   2.232806e+02  -9.223350e+01
   2.368651e+02   8.816327e+01
   1.272411e+02   1.238066e+02
  -5.275836e+01   1.383386e+02
  -9.035619e+01   6.458813e+01
  -4.561717e+01   8.354453e+01
  -1.740813e+01   1.003662e+02
  -8.163727e+01   5.580710e+01
  -1.521633e+02  -5.489371e+01
  -1.134394e+02  -1.796257e+02
  -2.796649e+01  -1.869214e+02
   2.767742e+01  -1.715052e+02
   1.880205e+02  -2.704530e-01
   1.056196e+02   1.298573e+02
   1.633517e+01   1.385226e+02
  -9.412689e+01   8.931656e+01
  -9.854915e+01  -1.716734e+01
   5.477258e+00  -2.385173e+01
   4.245357e+01  -5.506085e+01
   5.446134e+00  -3.643383e+01
  -6.120890e+01  -2.653628e+01
  -6.223960e+01  -5.198434e+01
   4.323492e+01  -1.699471e+01
   1.622807e+02   2.103315e+01
   1.225681e+02   9.184307e+01
   7.432864e+00   1.358859e+02
  -1.641535e+02   1.181396e+02
  -1.753262e+02  -2.217933e+01
  -5.961042e+01  -5.832772e+01
   4.264350e+01  -7.282572e+01
   6.800500e+01  -1.091197e+00
   2.783691e+01   2.239275e+01
  -3.481395e+01   4.329201e+01
  -9.402327e+01   2.846815e+01
  -8.389224e+01  -5.168656e+01
  -7.518947e+01  -4.220131e+01
  -5.505484e+01  -1.624232e+01
  -1.858056e+01  -2.394549e+00
  -5.265839e+01  -6.728354e+01
   1.152438e+01  -1.518257e+02
   1.474820e+02  -1.003281e+02
   1.377437e+02  -2.831911e+01
   1.326869e+02   7.092866e+01
   1.228442e+01   1.187574e+02
  -9.093682e+01   6.311308e+01
  -9.006584e+01   3.992498e+01
  -2.132872e+01   1.940766e+01
   1.287502e+02   4.279639e+01
   6.006568e+01   7.584769e+01
  -7.150462e+01   1.099032e+02
  -1.213873e+02   6.255842e+01
  -1.542289e+02  -7.753589e-01
  -2.651465e+01  -6.108358e+01
   5.709391e+01  -4.573967e+01
   2.172030e+01  -2.894143e+01
  -5.076549e+01   5.832227e+01
  -1.193307e+02  -2.772501e+01
  -5.897659e+01  -1.327772e+02
   4.636395e+01  -1.312548e+02
   1.377888e+02  -9.226635e+01
   9.614907e+01   4.469346e+01
   1.242339e+00   1.474143e+02
  -8.814193e+01   9.149097e+01
  -8.518715e+01  -1.582400e+01
  -3.246347e+01  -9.555198e+01
  -3.751543e+00  -1.163597e+02
   7.569949e+01  -4.667129e+01
   3.979955e-01   2.859889e+01
   2.814442e+01   1.402741e+01
   1.777395e+00  -3.187127e+01
   7.347729e+01  -1.354103e+01
   6.154396e+01   9.499355e+01
   2.056348e+01   1.001199e+02
  -5.853104e+01   5.025589e+01
  -1.510969e+02  -5.066840e+01
  -1.351721e+02  -7.732430e+01
  -2.855166e+01  -8.289420e+01
   7.318687e+01  -7.638054e+01
   1.022253e+02  -1.134855e+01
   2.598024e+01  -2.074006e+01
  -3.537382e+01   5.252904e+01
  -2.318567e+01   2.073595e+01
  -1.143699e+01  -1.471132e+00
  -5.347626e+00   5.208392e+00
  -6.541573e+01  -3.449304e+00
  -5.979079e+01   2.720961e+01
   3.467018e+00  -4.834897e+01
   7.002392e+01  -1.041151e+02
   1.682040e+02  -8.273244e+01
   1.403322e+02   3.766258e+01
   4.651192e+01   1.661244e+02
  -8.360524e+01   1.748164e+02
  -1.311203e+02   2.707534e+01
  -7.820888e+01   5.852214e+00
  -4.345910e+01  -5.310011e+01
   3.459385e+01  -5.317583e+01
  -4.320995e+00   8.712605e-01
  -2.287807e+01  -4.671244e+01
  -3.195925e+01  -7.353551e+01
   7.920154e+01  -5.716814e+01
   8.340309e+01  -1.346163e+01
   4.989490e+01   1.199540e+02
   9.276166e+00   1.121998e+02
  -8.594433e+01   5.255566e+01
  -1.439156e+02  -5.401740e+01
  -9.106317e+01  -9.893618e+01
   6.202109e+01  -9.605611e+01
   1.006103e+02   5.993766e+00
   3.556898e+01   3.030391e+01
  -4.514201e+01   2.612295e+01
  -4.715159e+01  -3.237579e+00
   3.244963e+01  -1.233274e+01
   5.798293e+01   2.818484e+01
  -4.055279e+01   3.492174e+01
  -5.156848e+01   6.505980e+01
  -1.091831e+02   1.030859e+01
  -7.742843e+01  -5.462112e+00
   8.776373e+00  -9.283031e+01
   8.872431e+01  -7.655390e+01
   8.955585e+01   4.773347e+01
   1.510434e+01   6.496887e+01
  -3.298466e+01   7.564827e+01
  -9.325484e+01  -1.537784e+01
  -2.220943e+01  -4.314203e+01
   1.241760e+01  -3.101952e+01
   2.981549e+01  -2.169125e+01
   1.931115e+01  -1.282555e+01
  -1.395059e+01  -2.437919e+01
  -5.013611e+01  -4.782900e+01
   4.792099e+01  -2.978204e+01
   4.309842e+01   2.046755e+01
   4.521694e+01   3.282663e+01
  -1.300321e+01   4.142424e+01
  -5.610075e+01  -4.194571e+01
  -4.525312e+01  -4.498643e+01
   4.620855e+01  -2.616909e+01
   7.094096e+01   6.010806e+01
   4.822196e+01   5.751460e+01
  -4.750025e+01   4.789514e+01
  -9.123820e+01  -1.347113e+01
  -4.288313e+01  -2.629515e+01
   3.614553e+01   2.446825e+00
   5.936706e+01  -4.954033e+01
   5.384843e+01   1.738877e+00
  -2.987969e+01   1.094298e+00
  -3.447197e+01   1.758755e+01
   8.148556e+00  -1.770279e+01
   5.815182e+01  -4.611142e+01
