
 $NMID
 id='ANONYMOUS ', fmtdat='(2E16.6)'
 volume=1.0
 tramp=1.0
 $END
   3.441856e+03  -3.220229e+02
   2.479604e+03   2.191697e+03
  -2.664592e+02   2.480266e+03
  -1.686384e+03   1.258851e+03
  -1.010977e+03  -3.219138e+02
   2.513987e+02  -5.110884e+02
   6.761800e+02   2.697535e+02
   1.973830e+02   7.729918e+02
  -6.601793e+02   7.207696e+02
  -8.531065e+02  -1.572543e+01
  -5.485707e+02  -6.813635e+02
   1.365601e+02  -7.881682e+02
   5.006361e+02  -7.296788e+01
   4.867343e+02   5.571557e+02
  -1.889171e+02   6.703257e+02
  -5.913317e+02   6.216742e+01
  -3.435505e+02  -6.982374e+02
   2.437087e+02  -6.957886e+02
   6.329764e+02  -2.173424e+02
   3.871637e+02   3.322154e+02
   2.998519e+01   3.776425e+02
  -1.896903e+02   2.528645e+02
  -9.391610e+01  -8.366222e+00
   1.651435e+02  -6.871160e+01
   3.104993e+02   1.475723e+02
   9.465319e+01   4.633902e+02
  -4.465379e+02   2.694130e+02
  -7.989270e+02  -1.277568e+02
  -3.556276e+02  -5.359476e+02
   4.155821e+02  -3.674140e+02
   6.272107e+02   7.768981e+01
   2.931430e+02   4.311714e+02
  -2.845557e+02   4.927488e+02
  -5.546684e+02   1.620570e+02
  -3.779737e+02  -2.032143e+02
  -5.589753e+01  -3.802523e+02
   9.860913e+01  -2.181676e+02
   6.233777e+01   1.556208e+02
  -1.844839e+02   2.906094e+02
  -3.498138e+02  -9.387549e+01
  -1.136579e+02  -5.095835e+02
   3.207163e+02  -5.173394e+02
   4.732284e+02   2.233883e+01
   2.004846e+02   4.308612e+02
  -2.401678e+02   2.251895e+02
  -2.938122e+02  -2.040361e+02
   7.473201e+01  -4.563531e+02
   5.299874e+02  -1.365378e+02
   5.538119e+02   3.389260e+02
   1.266131e+02   5.779912e+02
  -3.557723e+02   3.492736e+02
  -5.797280e+02  -8.281407e+01
  -3.625365e+02  -4.051562e+02
   1.632589e+02  -3.243304e+02
   3.688505e+02  -4.640181e+01
   2.003204e+02   1.888213e+02
  -6.201376e+01   5.403703e+01
  -7.202753e+01  -1.360232e+02
   1.702315e+02  -1.581371e+02
   3.023531e+02   4.579643e+01
   1.484864e+02   2.682231e+02
  -1.858879e+02   2.912004e+02
  -3.654038e+02   1.531154e+02
  -1.885315e+02  -9.684830e+01
   4.485633e+01  -2.949393e+02
   3.183401e+02  -3.364160e+02
   3.842926e+02  -1.471370e+02
   2.955865e+02   2.318892e+02
   1.872988e+01   4.138627e+02
  -9.567702e+01   2.895522e+02
  -7.226845e+01   1.923170e+02
  -1.978982e+01   5.966198e+01
  -1.095806e+02   1.096353e+02
  -2.366156e+02   3.156377e+01
  -2.911789e+02  -1.471241e+02
  -1.485850e+02  -2.694200e+02
   8.867994e+01  -2.139609e+02
   1.802988e+02   1.587528e+00
   1.971765e+02   2.086810e+02
   1.206176e+00   2.506230e+02
  -2.515521e+02   8.404797e+01
  -3.339123e+02  -1.922404e+02
  -1.429235e+02  -3.463500e+02
   1.108806e+02  -2.979124e+02
   1.903832e+02  -1.374630e+02
   1.409334e+02  -1.792338e+01
   1.670343e+02  -5.726129e+01
   2.780841e+02  -6.555799e+01
   4.689784e+02   1.088575e+02
   3.275391e+02   2.780457e+02
  -3.804863e+01   4.560062e+02
  -3.834643e+02   3.783755e+02
  -5.138036e+02   2.066018e+02
  -3.230471e+02  -9.903249e+01
   4.026239e-01  -3.428905e+02
   1.033006e+02  -2.284065e+02
   1.076560e+02  -4.880061e+01
  -6.962972e+01   7.436276e+01
  -1.735867e+02  -2.319505e+01
  -1.541933e+01  -1.459590e+02
   1.718218e+02  -8.902907e+01
   1.548484e+02   8.626784e+01
  -1.420539e+01   1.820507e+02
  -1.641395e+02   1.565272e+01
  -1.473330e+02  -2.371708e+02
   2.778115e+01  -3.136513e+02
   2.351031e+02  -1.471659e+02
   3.232170e+02   6.076837e+01
   2.396353e+02   2.429830e+02
   3.561352e+01   2.588912e+02
  -1.423959e+02   1.527716e+02
  -2.184249e+02  -8.814911e+00
  -7.318438e+01  -5.996147e+01
   2.700131e+01   6.600460e+01
  -2.432500e+00   1.151650e+02
  -1.318939e+02   8.152712e+01
  -1.458786e+02  -3.866002e+01
  -2.092731e+01  -5.965242e+01
   8.558624e+01   1.703577e+01
   5.036214e+01   1.305423e+02
  -1.720004e+02   9.436484e+01
  -2.881655e+02  -3.297617e+01
  -2.319441e+02  -1.817176e+02
  -4.443543e+01  -2.913109e+02
   1.750890e+02  -2.699571e+02
   2.649892e+02  -7.466675e+01
   1.862529e+02   4.473027e+01
   6.609945e+00   1.148337e+02
  -6.886606e+01  -1.325757e+01
   5.000235e+01  -8.518975e+01
   1.978770e+02  -5.299916e+01
   1.687461e+02   1.278519e+02
   4.164934e+01   1.833546e+02
  -9.943279e+01   1.491636e+02
  -1.124810e+02   2.724297e+00
  -3.560587e+01  -1.545856e+01
   7.980314e+01  -1.370015e+01
   5.249552e+01   1.135408e+02
  -8.014983e+01   1.446495e+02
  -2.160775e+02   4.892336e+01
  -2.473435e+02  -1.099574e+02
  -1.679587e+01  -2.073247e+02
   1.890342e+02  -1.204912e+02
   1.817863e+02  -2.042903e+01
   3.358870e+01   9.704957e+01
  -9.264260e+01   9.128051e+01
  -1.037686e+02   3.450058e+01
  -2.756559e+01  -5.378758e+01
   4.743790e+01   4.515385e+01
  -1.144598e+01  -1.297173e+01
  -9.734797e+01   2.803647e+01
  -1.393587e+02  -6.144163e+01
  -1.414914e+01  -1.966152e+02
   1.118639e+02  -1.480974e+02
   2.334483e+02  -2.020368e+01
   2.010946e+02   1.960548e+02
   3.843487e+01   2.687807e+02
  -1.043885e+02   1.980372e+02
  -1.773945e+02   1.300840e+01
  -8.142509e+01  -1.208707e+02
  -1.664178e+01  -3.201114e+01
  -6.266985e+01   5.685931e+01
  -7.862422e+01  -1.682200e+01
  -1.428015e+01  -4.140899e+01
   2.309078e+01  -1.118070e+02
   1.202326e+02  -8.127683e+01
   1.789484e+02   2.305568e+01
   2.706358e+01   1.740027e+02
  -1.897752e+02   9.001809e+01
  -2.698444e+02  -5.099266e+01
  -8.970300e+01  -2.003440e+02
   1.205179e+02  -1.826395e+02
   2.524469e+02  -6.982048e+01
   2.230640e+02   9.961910e+01
   9.898595e+01   1.449415e+02
  -5.894427e+01   1.720504e+02
  -1.005761e+02   1.187370e+02
  -6.604367e+01   6.775348e+01
  -8.807036e+01   7.564849e+01
  -1.165318e+02   5.539750e+01
  -1.180876e+02   8.546911e+00
  -1.474806e+02  -1.451541e+02
  -2.802241e+01  -2.418702e+02
   1.058501e+02  -1.769268e+02
   1.473599e+02  -2.644823e+01
   1.547468e+02   1.597459e+02
   4.793597e+00   2.123446e+02
  -1.010129e+02   1.025017e+02
  -6.739832e+01   2.895944e+01
  -3.028201e+01  -2.498708e+01
   3.494929e+00  -5.268837e+01
  -1.400875e+01  -9.250938e+00
  -8.840295e+01  -1.156676e+01
  -5.138025e+01  -3.620979e+01
   6.791905e+01  -5.383120e+01
   1.368100e+02  -3.436356e+01
   1.674160e+02   2.587158e+01
   1.510505e+01   6.415830e+01
  -1.144298e+02   1.835228e+01
  -1.499055e+02  -1.311193e+01
  -4.787560e+01  -7.428601e+01
   5.174658e+01  -3.968900e+01
   9.402741e+01   3.319758e+01
   4.432945e+01   6.218484e+01
  -4.934788e+01   3.908814e+01
  -6.913539e+01   1.747220e+01
  -4.763686e+01  -1.934219e+01
  -6.444888e+01  -5.501625e+01
  -7.327742e+01  -9.915785e-01
  -8.594942e+01   2.593764e+01
  -4.941017e+01  -5.062742e+01
   4.953730e+01  -1.501459e+02
   1.135901e+02  -1.234978e+02
   1.312214e+02  -3.794304e+01
   1.225758e+02   8.196493e+01
   1.885265e+01   1.087678e+02
  -6.360829e+01   4.026925e+01
  -1.520671e+01  -3.172225e+01
   1.045258e+02  -2.797758e+01
   1.600828e+02   4.375389e+01
   9.132436e+01   1.332165e+02
  -8.431463e+01   1.234862e+02
  -1.732461e+02   4.879593e+01
  -1.621589e+02  -3.214617e+01
  -5.601232e+01  -8.968789e+01
   1.076826e+02  -4.469475e+01
   4.438954e+01  -4.234626e+01
  -6.340456e+01  -3.359773e+01
  -6.450959e+01  -5.000168e+01
  -6.204420e+00  -1.016482e+02
   8.119496e+01  -1.300341e+02
   1.372298e+02  -4.793776e+01
   1.048672e+02   5.467866e+01
   2.405153e+00   1.815644e+02
  -1.112993e+02   1.700133e+02
  -1.144158e+02  -1.351085e+01
  -7.026636e+01  -1.101947e+02
   2.124307e+01  -1.158638e+02
   6.825943e+01  -4.479529e+01
   6.514398e+01   4.728425e+01
   1.182247e+00   2.777143e+01
   3.326412e+01  -1.346144e+01
   4.266352e+00   3.616856e+01
   6.398615e+01   8.922787e+01
   2.293960e+01   1.103867e+02
  -5.165606e+01   3.297787e+01
  -1.259175e+02  -5.092791e+01
  -1.146902e+02  -9.420880e+01
  -1.183486e+01  -4.393144e+01
   1.057042e+02  -2.735137e+01
   6.742622e+01   3.869191e+01
  -1.149579e+01  -3.817413e+00
  -2.762613e+01   2.670887e+01
  -7.044083e+00   1.150945e+00
   3.891855e+01   7.201925e+00
   1.780393e+00   4.646786e+00
  -6.355705e+01  -1.031679e+01
  -1.239619e+02  -4.578461e+01
  -3.393610e+01  -9.451770e+01
   1.187262e+02  -9.525580e+01
   1.683464e+02  -8.336687e+01
   1.416828e+02   4.160966e+01
  -8.616924e+00   1.552457e+02
  -1.031793e+02   1.207180e+02
  -1.493900e+02   5.697461e+01
  -3.161639e+01  -2.497374e+01
   1.471209e+01  -5.662033e+01
  -1.427588e+01   1.737685e+01
  -6.289884e+01   2.930885e+00
  -4.285788e+01  -1.177489e+02
  -2.571097e+01  -1.091790e+02
   6.820425e+01  -1.112741e+02
   1.248727e+02   2.081092e+01
   5.298531e+01   1.387537e+02
  -1.306883e+01   1.133587e+02
  -1.159939e+02   5.603925e+00
  -1.225305e+02  -7.880959e+01
  -3.577163e+01  -1.037304e+02
   7.301874e+01  -3.682956e+01
   6.627660e+01   4.252673e+01
   4.338704e+01   9.788947e+01
  -1.725927e+01   3.902699e+01
  -1.477477e+01  -1.035813e+01
   3.602592e+01  -1.663495e+01
   7.896651e+01   1.599445e+01
   3.183682e+01   2.681010e+01
  -6.821181e+01   3.031202e+01
  -9.211645e+01   1.649618e+01
  -4.300309e+01  -2.061192e+00
   2.313886e+01  -1.154658e+02
   1.060309e+02  -1.085520e+02
   6.678153e+01   1.496100e+01
   2.151547e+01   7.752800e+01
  -6.080396e+01   5.626610e+01
  -4.675711e+01  -1.744294e+01
   2.165659e+00  -5.068096e+01
  -1.359311e+01  -6.876841e+01
   5.428740e+01  -2.076442e+00
   1.280309e+01   2.133571e+01
   2.149539e+01  -1.334962e+01
   1.322353e+01  -1.637371e+00
   2.215246e+01   4.765795e-01
  -5.019961e+00   5.788096e+01
   2.281374e+00   6.590421e+01
  -3.823205e+00   5.985464e+00
  -6.121774e+01  -7.595389e+01
  -2.551449e+01  -8.406657e+01
   2.708742e+01  -4.451926e+01
   5.740409e+01   3.373655e+01
   1.929756e+00   5.429108e+01
  -8.313883e+01   5.810320e+01
  -7.230646e+01  -1.825095e+01
  -3.175641e+01  -3.876257e+01
   1.654064e+01  -2.532458e+01
   8.512013e+01   2.189607e+00
   4.350514e+01   1.909794e+01
  -4.275124e+01   3.612126e+01
  -2.659489e+01   3.648850e+01
   1.221465e+01  -4.411745e+01
   7.005172e+01  -1.830383e+01
