
 $NMID
 id='ANONYMOUS ', fmtdat='(2E16.6)'
 volume=1.0
 tramp=1.0
 $END
   3.255202e+03  -2.064097e+02
   1.917009e+03   1.776278e+03
  -1.979520e+02   1.941260e+03
  -1.477023e+03   1.049130e+03
  -9.505261e+02   5.354038e+01
   1.070623e+02  -3.391255e+02
   4.504879e+02   1.505790e+02
  -3.937238e+01   6.329447e+02
  -4.795693e+02   5.541832e+02
  -6.977723e+02  -1.494634e+01
  -4.740517e+02  -5.716066e+02
   4.348873e+00  -5.913605e+02
   4.240590e+02  -2.398786e+02
   3.259513e+02   3.807257e+02
  -1.710009e+02   5.236552e+02
  -4.884139e+02   2.646257e+01
  -3.285848e+02  -5.152611e+02
   2.504977e+02  -5.928929e+02
   4.534629e+02  -3.146938e+02
   4.341719e+02   1.795864e+02
   1.722681e+02   3.964888e+02
  -1.829060e+02   2.400456e+02
  -9.509042e+01   2.026068e+01
   2.222657e+02   6.949447e+01
   2.635894e+02   2.331624e+02
   3.122812e+01   3.497418e+02
  -4.676053e+02   1.707614e+02
  -6.147956e+02  -2.031324e+02
  -2.328880e+02  -3.946427e+02
   2.178008e+02  -2.532149e+02
   5.371639e+02   1.251141e+02
   2.132764e+02   3.925933e+02
  -2.443324e+02   3.641178e+02
  -4.451494e+02   7.289643e+01
  -3.547583e+02  -2.057571e+02
  -6.202754e+01  -3.359291e+02
   1.068579e+02  -2.186425e+02
   9.135732e+01   1.074329e+02
  -1.365991e+02   2.510773e+02
  -2.737345e+02  -5.841823e+01
  -6.499386e+01  -5.220852e+02
   2.762303e+02  -4.350940e+02
   3.677770e+02   1.778863e+01
   1.693495e+02   3.124356e+02
  -1.834548e+02   1.340821e+02
  -2.013817e+02  -2.668659e+02
   1.151271e+02  -3.939855e+02
   4.570637e+02  -6.748354e+01
   4.808830e+02   3.604463e+02
   1.723880e+02   5.198149e+02
  -2.807886e+02   2.770859e+02
  -5.414657e+02  -5.073817e+01
  -3.455492e+02  -2.682774e+02
   6.062609e+01  -2.535243e+02
   2.847543e+02  -7.341934e+01
   1.982189e+02   6.735663e+01
  -1.328296e+01   3.504850e+01
  -9.967118e+01  -8.666646e+01
   7.044247e+01  -1.130913e+02
   2.690569e+02   4.616581e+01
   1.353094e+02   1.905042e+02
  -1.264379e+02   2.152392e+02
  -2.946487e+02   9.013111e+01
  -2.556272e+02  -1.271959e+02
   1.278171e+01  -2.647415e+02
   2.804370e+02  -3.671125e+02
   3.924680e+02  -1.680924e+02
   2.521650e+02   1.801856e+02
   1.406601e+02   3.283659e+02
  -9.065765e+00   2.661914e+02
  -4.386722e+01   1.508259e+02
   1.799451e+01   1.339973e+02
  -4.473697e+01   1.306325e+02
  -2.381842e+02   9.025668e+01
  -2.948542e+02  -1.173487e+02
  -7.757856e+01  -2.636899e+02
   1.457727e+02  -2.106340e+02
   2.528844e+02   3.187801e+01
   1.703310e+02   2.424435e+02
  -8.187646e+01   2.619334e+02
  -2.646757e+02   7.787983e+01
  -3.161908e+02  -1.696622e+02
  -1.396813e+02  -3.166741e+02
   3.635180e+01  -2.741742e+02
   2.005904e+02  -2.016625e+02
   1.570316e+02  -4.991807e+01
   1.607327e+02  -1.511182e+01
   2.399656e+02  -6.176635e+01
   4.103261e+02   1.330880e+02
   3.192525e+02   2.808230e+02
   1.939806e+01   4.318425e+02
  -3.454673e+02   3.832846e+02
  -4.433822e+02   2.063317e+02
  -3.275083e+02  -7.667718e+01
  -2.019613e+01  -2.520055e+02
   8.672401e+01  -1.649626e+02
   1.782531e+01  -1.517129e+01
  -4.808771e+01   5.642139e+01
  -1.351281e+02  -2.195017e+01
  -4.915811e+01  -1.693732e+02
   7.531821e+01  -1.306829e+02
   1.537059e+02   8.132546e+01
  -3.596058e+01   1.404499e+02
  -1.862454e+02   1.197608e+01
  -1.417017e+02  -2.281753e+02
  -3.358662e+01  -3.646718e+02
   2.260819e+02  -2.631480e+02
   3.448089e+02   5.599064e+01
   2.887302e+02   2.536601e+02
   3.125771e+01   2.633053e+02
  -8.314418e+01   1.248221e+02
  -1.940621e+02   5.953827e+01
  -1.541677e+01  -2.841961e+01
   1.167660e+02  -7.778662e+00
   2.732383e+01   1.282625e+02
  -1.411177e+02   1.250197e+02
  -1.918540e+02  -4.046188e+00
  -7.100046e+01  -4.399063e+01
   6.370828e+01  -2.278143e+00
   2.220664e+01   6.442026e+01
  -1.142782e+02   1.317323e+02
  -3.110709e+02  -1.784301e+01
  -2.807625e+02  -1.702491e+02
  -8.585100e+01  -2.667638e+02
   2.233010e+02  -2.135446e+02
   2.807325e+02  -7.176135e+01
   1.612961e+02   3.690811e+01
  -2.890191e+01   3.222546e+01
  -5.991078e+01  -9.534941e+01
   3.340295e+01  -1.304242e+02
   1.959838e+02  -7.451965e+01
   2.071349e+02   8.702297e+01
   8.898623e+01   1.987319e+02
  -5.465790e+01   1.519453e+02
  -1.262598e+02  -3.631433e+00
  -8.857625e+01  -4.188962e+01
   2.905002e+01   2.509075e+01
   2.321714e+00   7.803439e+01
  -1.255854e+02   1.705021e+02
  -1.977950e+02   5.003623e+01
  -2.373759e+02  -1.060293e+02
  -5.488952e+01  -2.177778e+02
   1.761460e+02  -1.945735e+02
   1.655771e+02  -2.708290e+01
   4.623734e+01   1.696641e+02
  -6.003498e+01   1.278941e+02
  -5.173129e+01   8.411042e+00
   8.502934e-01   2.138094e+01
   8.988927e+01  -3.414604e+01
   2.962783e+01   3.718423e+01
  -1.172689e+02   4.753843e+01
  -1.089083e+02  -9.126447e+01
  -1.895110e+01  -1.447411e+02
   1.382688e+02  -1.750016e+02
   2.227876e+02  -3.990695e+01
   1.870674e+02   1.522013e+02
   7.010867e+01   3.046691e+02
  -1.273142e+02   1.479008e+02
  -1.688912e+02   2.683427e+01
  -1.435960e+02  -3.804869e+01
  -6.736539e+01  -7.679139e+01
  -1.105310e+01   4.142475e+01
  -6.044871e+01   5.940822e+01
  -6.157980e+01  -7.128316e+01
   2.758696e+00  -8.034509e+01
   1.433292e+02  -3.775131e+01
   1.386385e+02   6.101906e+01
   3.684057e+00   1.381969e+02
  -1.941386e+02   1.112987e+02
  -2.335005e+02  -5.613806e+01
  -8.269355e+01  -2.107762e+02
   1.381954e+02  -2.260343e+02
   2.726740e+02  -4.789665e+01
   2.580035e+02   8.808008e+01
   7.271931e+01   2.024796e+02
  -3.361356e+01   1.605516e+02
  -7.010614e+01   8.725443e+01
  -3.891227e+01   9.587934e+01
  -7.147304e+01   9.945933e+01
  -1.655771e+02   9.696252e+01
  -1.562746e+02  -3.791699e+01
  -1.411805e+02  -1.089199e+02
  -5.152259e+01  -2.103141e+02
   6.796142e+01  -1.685759e+02
   1.079769e+02  -4.573747e+01
   1.445652e+02   1.443605e+02
   3.978389e+01   1.425461e+02
  -3.772674e+01   6.113521e+01
  -6.811936e+01  -9.516746e+00
  -3.155932e+01  -6.025943e+01
   1.089547e+01  -6.497522e+01
  -4.487871e+00  -1.657567e+01
  -5.525871e+01  -3.226570e+01
  -3.812092e+01  -4.546432e+01
   1.090430e+02  -6.094300e+01
   2.194625e+02   4.052073e+01
   1.881680e+02   9.235302e+01
  -5.338798e+01   1.170972e+02
  -1.249985e+02   7.234564e+01
  -1.609543e+02  -2.071232e+01
  -5.109395e+01  -3.868228e+01
   3.965089e+01  -3.714646e+01
   4.171844e+01   3.165135e+00
   9.992297e+00   7.924275e+01
  -5.251046e+01   1.020868e+02
  -4.692844e+01   4.055326e+00
  -4.389317e+01  -4.448766e+01
  -3.339481e+01  -8.099017e+01
  -4.527785e+01  -3.132153e+01
  -8.251104e+01  -5.231514e+01
  -4.279431e+01  -2.427636e+01
   4.697776e+01  -1.722483e+02
   1.256740e+02  -1.129810e+02
   1.772700e+02  -5.924164e+01
   1.133685e+02   9.609238e+01
   5.492626e+01   1.039039e+02
  -5.808727e+01   8.220713e+01
  -5.027657e+01   1.253426e+01
   4.071193e+01  -2.399728e+01
   1.258873e+02   8.309981e+01
   3.288432e+01   1.020416e+02
  -1.174821e+02   1.497671e+02
  -1.845094e+02   5.055165e+00
  -1.823022e+02  -6.542174e+01
  -3.528016e+01  -6.982692e+01
   8.653976e+01  -2.718894e+01
   5.734746e+01  -1.739192e+00
   2.009867e+01   7.852758e+01
  -1.311605e+02  -3.517319e+01
  -7.826117e+01  -1.352107e+02
   8.198618e+01  -1.334544e+02
   1.482667e+02  -9.255382e+01
   1.477036e+02   4.797856e+01
   3.886326e+01   1.851409e+02
  -7.297445e+01   1.662867e+02
  -1.311110e+02   2.175992e+01
  -4.144469e+01  -1.421432e+02
   4.782331e+01  -9.454685e+01
   6.497013e+01  -7.403094e+01
   8.024573e+01   3.315455e+01
   6.954092e+00   7.541582e+00
   3.646348e+01   1.712092e+01
   5.508332e+01   2.292859e+01
   8.745879e+01   5.994576e+01
   6.479259e+01   1.239714e+02
  -8.367914e+01   4.956343e+01
  -2.009777e+02  -2.622177e+01
  -1.573494e+02  -9.492113e+01
  -3.713169e+01  -6.196355e+01
   9.280730e+01  -3.321515e+01
   8.951389e+01  -1.401864e+01
   4.285137e+01   4.065597e+01
  -3.729666e+01   5.611694e+00
  -3.381448e+01  -1.056813e+01
  -3.292818e+00  -1.095236e+00
  -4.528050e+01  -4.312799e+01
  -3.226021e+01  -1.057268e+01
  -8.100977e+01  -3.609757e+01
   3.001931e+00  -6.101984e+01
   7.257688e+01  -1.169213e+02
   2.368759e+02  -5.369117e+01
   1.673408e+02   4.932113e+01
   2.728792e+01   1.486266e+02
  -1.052642e+02   2.408728e+02
  -1.478283e+02   3.926018e+01
  -8.006681e+01  -7.029329e+00
  -2.694408e+01  -6.457681e+01
  -4.765831e+01   1.551204e+01
  -5.179283e+01  -1.067288e+01
  -7.020897e+01  -7.882744e+01
  -2.761882e+00  -1.159194e+02
   1.124409e+01  -9.107816e+01
   1.046239e+02   3.137230e-01
   5.218083e+01   1.021032e+02
  -2.163570e+00   1.123452e+02
  -4.436865e+01   2.556642e+00
  -1.325892e+02  -8.723443e+01
  -4.504107e+01  -1.518252e+02
   4.532345e+01  -4.770761e+01
   8.875972e+01   5.722678e+00
   2.788229e+01   2.143218e+01
  -2.818438e+01   3.818626e+01
  -4.317312e+01   5.283403e+01
  -3.832547e+00   2.703546e+01
   5.946037e+01   1.011547e+01
   4.805336e+01   1.862937e+01
  -6.819127e+01   1.033939e+02
  -7.659610e+01   6.801339e+01
  -8.135272e+01   3.058652e+01
   3.874440e+01  -7.603131e+01
   7.862523e+01  -9.749494e+01
   4.139130e+01  -5.673465e+01
   4.091080e+00   6.633055e+01
   2.734528e+00   3.858370e+01
  -1.878948e+01  -2.856960e+01
   1.294920e+01  -1.586999e+01
  -1.592738e+01  -4.456406e+01
  -5.029029e+00  -5.532133e+00
   1.328123e+01   1.792997e+01
   6.422915e+01  -4.065867e+01
  -1.322125e+01  -1.538173e+01
  -4.603611e+01  -6.770657e+00
   8.343109e+00   2.616119e+01
  -2.421118e+01   5.097038e+01
  -1.087380e+01   6.011441e-01
  -3.601600e+01  -4.377391e+01
  -3.434184e+01  -1.027993e+02
   3.877952e+01  -2.563022e+01
   7.553579e+01   4.006033e+01
   2.933272e+01   5.341542e+01
  -5.039964e+01   2.023852e+00
  -7.971720e+01  -5.545259e+01
  -2.132184e+01  -1.577892e+01
   4.262514e+01   1.931401e+01
   4.440016e+01   1.625909e+01
   3.237280e+01  -3.896702e+01
  -5.715247e+01  -2.656010e+01
  -5.294670e+01   2.922475e+00
   7.665696e+01  -3.515267e+01
   8.447569e+01  -2.196760e+01
