
 $NMID
 id='ANONYMOUS ', fmtdat='(2E16.6)'
 volume=1.0
 tramp=1.0
 $END
   3.033846e+03  -2.633109e+02
   1.976486e+03   1.208979e+03
   1.826083e+02   1.760663e+03
  -1.056243e+03   1.083426e+03
  -8.846155e+02   4.334913e+02
  -2.013799e+02  -1.380318e+02
   2.924213e+02  -1.804658e+01
   2.236037e+02   3.083942e+02
  -2.365006e+02   6.111202e+02
  -5.093610e+02   1.086211e+02
  -3.399034e+02  -4.105384e+02
  -6.323820e+01  -5.572262e+02
   1.939984e+02  -2.415968e+02
   2.585333e+02   3.756764e+02
   9.331730e-01   4.042420e+02
  -2.419552e+02   1.288929e+02
  -3.442743e+02  -4.388208e+02
   1.979748e+01  -5.746879e+02
   4.134625e+02  -3.918318e+02
   4.517869e+02   1.205508e+02
   1.214852e+02   3.507327e+02
  -1.414477e+02   2.300292e+02
  -6.901931e+01  -5.650812e+01
   1.798038e+02   7.717918e+01
   2.325598e+02   2.554464e+02
  -1.533315e+01   3.317796e+02
  -4.215946e+02   1.183946e+02
  -5.592206e+02  -1.965466e+02
  -1.402153e+02  -2.366484e+02
   2.885953e+02  -7.836523e+01
   4.159079e+02   1.288437e+02
   1.277342e+02   3.113475e+02
  -2.467727e+02   2.544282e+02
  -4.399790e+02   1.340306e+02
  -3.180489e+02  -1.110301e+02
  -8.609304e+01  -2.736060e+02
  -1.079075e+01  -1.266980e+02
  -9.694655e+01  -2.605062e+01
  -1.353096e+02   1.784030e+01
  -1.067113e+02  -2.017765e+02
   5.729862e+01  -3.838653e+02
   2.153311e+02  -3.318734e+02
   2.616201e+02  -4.970280e+00
   1.190804e+02   1.870782e+02
  -7.464144e+01   7.957624e+01
  -7.761611e+01  -1.920944e+02
   8.053879e+01  -3.338699e+02
   3.989497e+02  -2.008819e+01
   4.305797e+02   2.884262e+02
   1.829962e+02   4.621721e+02
  -2.450236e+02   2.639195e+02
  -4.928681e+02  -3.174221e+01
  -3.202935e+02  -1.853509e+02
  -6.557201e+00  -1.966128e+02
   2.651635e+02  -7.773296e+01
   1.825984e+02  -2.925530e+01
   6.156772e+01  -7.310488e+00
  -4.292770e+01  -1.917688e+01
   3.820235e+01   1.520527e+01
   1.764721e+02   1.047425e+02
   1.369475e+02   1.445922e+02
  -1.302198e+02   1.950293e+02
  -3.195082e+02   8.405377e+01
  -3.207842e+02  -1.151726e+02
   5.737915e+00  -2.927762e+02
   3.087743e+02  -4.150416e+02
   4.217867e+02  -1.833027e+02
   2.547993e+02   1.286541e+02
   4.375093e+01   3.598931e+02
   3.829920e+01   3.013918e+02
   1.170925e+00   1.467325e+02
  -2.741691e+01   1.408732e+02
  -1.452631e+02   1.206544e+02
  -2.889271e+02   4.969495e+00
  -2.254996e+02  -1.203842e+02
  -3.947812e+01  -2.019141e+02
   1.245175e+02  -1.518876e+02
   1.591245e+02   1.012907e+02
   4.978566e+01   1.916100e+02
  -8.559721e+01   1.885550e+02
  -2.097993e+02  -4.121673e+01
  -2.687820e+02  -1.278997e+02
  -1.409272e+02  -2.243633e+02
   1.033231e+01  -1.994994e+02
   1.474190e+02  -2.214566e+02
   1.687291e+02  -9.012140e+01
   1.733554e+02  -7.500052e+01
   2.513895e+02  -6.181085e-01
   3.570810e+02   1.298474e+02
   3.104477e+02   2.813520e+02
  -2.605330e+01   4.667325e+02
  -3.845423e+02   3.886052e+02
  -4.791650e+02   1.010769e+02
  -2.378953e+02  -1.261347e+02
   5.229240e+00  -2.208929e+02
   7.024693e+01  -1.230588e+02
  -3.951354e+01   1.058372e+01
  -1.976736e+02   2.009532e+01
  -1.053883e+02  -1.051505e+01
  -1.350118e+01  -1.296697e+02
   7.166371e+01  -3.973311e+01
   6.408726e+01   2.366461e+01
  -4.930673e+01   1.168275e+02
  -1.762378e+02  -4.711002e+01
  -1.215800e+02  -1.767914e+02
   6.086246e+01  -2.874254e+02
   2.759729e+02  -1.623506e+02
   3.847096e+02   1.058289e+02
   2.329494e+02   2.649653e+02
  -2.193893e+01   3.114531e+02
  -1.718349e+02   1.620548e+02
  -1.734366e+02   1.164220e+01
   8.321838e+00  -2.214613e+01
  -5.150092e-01   7.327433e+01
  -3.823299e+01   1.253743e+02
  -1.529519e+02  -1.690947e+01
  -1.685409e+02  -5.662426e+01
   1.128691e+01  -6.454653e+01
   1.254744e+02  -5.890079e-02
   7.893196e+01   9.549828e+01
  -1.198702e+02   9.503789e+01
  -3.086324e+02  -2.418275e+01
  -2.341828e+02  -1.792313e+02
   4.272549e+01  -1.987919e+02
   2.274123e+02  -1.954903e+02
   2.663397e+02  -1.007262e+02
   8.673354e+01   9.011516e+00
  -5.040107e+01   6.075562e+01
  -7.971343e+01  -3.413467e+01
   8.108518e+01  -8.729194e+01
   1.860837e+02  -1.229139e+01
   1.866975e+02   1.099934e+02
   5.054178e+01   1.589924e+02
  -7.431632e+01   1.405290e+02
  -1.479215e+02   1.225036e+01
  -2.153147e+01  -2.184740e+01
   6.650224e+01   6.156290e+01
   2.637045e+01   1.257242e+02
  -1.466183e+02   1.245604e+02
  -1.937404e+02   3.708392e+01
  -1.606139e+02  -1.550316e+02
   4.523248e+01  -2.020224e+02
   1.928716e+02  -1.357264e+02
   1.588376e+02   2.579798e+01
   5.427185e+01   1.095837e+02
  -1.013382e+02   8.305954e+01
  -4.787920e+01  -2.713991e+00
   5.147000e+01  -1.075397e+01
   4.696828e+01  -5.201307e+00
   1.930205e+01  -5.630522e+01
  -8.969421e+01  -1.639505e+01
  -1.005315e+02  -6.371794e+01
  -2.477249e-01  -1.643346e+02
   1.304218e+02  -1.209136e+02
   2.497356e+02   1.864873e+01
   1.432526e+02   1.409660e+02
  -3.050369e+01   1.928715e+02
  -9.994484e+01   1.422110e+02
  -1.363215e+02  -3.667960e+01
  -7.459415e+01  -6.103861e+01
   6.510271e+00  -3.871769e+01
   2.465104e+01  -9.408301e+00
  -8.613577e+01  -3.847673e+00
  -2.130755e+01   1.500279e+00
   6.879265e+01  -9.378069e+01
   1.174121e+02  -4.949286e+01
   1.214884e+02   2.700119e+01
  -5.834248e+01   1.292593e+02
  -1.713393e+02   6.973378e+01
  -2.100844e+02  -4.355970e+01
  -4.029861e+01  -1.875602e+02
   1.499462e+02  -2.238374e+02
   2.443542e+02  -7.853529e+01
   2.589555e+02   8.452861e+01
   1.201713e+02   1.606254e+02
  -2.484100e+00   1.400744e+02
  -1.032496e+02   1.025549e+02
  -7.733458e+01   3.313843e+01
  -3.460500e+01   1.083043e+02
  -7.745522e+01   8.597711e+01
  -9.144946e+01  -4.095833e+01
  -9.206808e+01  -1.458532e+02
  -1.441410e+01  -2.158207e+02
   1.074563e+02  -1.372544e+02
   1.411208e+02   4.532693e+01
   1.336635e+02   1.163323e+02
   3.622450e+01   2.116898e+02
  -1.101400e+02   5.964786e+01
  -1.016955e+02   1.295997e+01
   3.575129e+01  -6.699192e+01
  -3.170133e+01  -4.873102e+01
   3.614776e+00   7.408696e+00
  -1.103690e+02   1.020050e+01
  -6.415512e+01   2.114686e+01
   7.678469e+01  -1.240590e+01
   1.038816e+02   1.641887e+01
   1.112613e+02   5.622327e+01
  -5.796846e+01   5.492127e+01
  -1.268780e+02   3.297641e+01
  -1.284752e+02  -2.045713e+01
  -5.141375e+01  -4.448863e+01
   6.177559e+01  -8.560894e+01
   1.202763e+02   7.210899e+01
   4.709053e+01   7.831457e+01
  -3.980847e+01   5.431715e+01
  -3.200421e+01   1.466798e+01
  -4.843699e+01  -5.669975e+01
  -4.123806e+01  -2.321282e+01
  -2.390916e+01  -3.558236e+01
  -4.378437e+01   1.274617e+01
  -1.866688e+01  -8.349555e+01
   6.462249e+01  -7.749562e+01
   1.564697e+02  -9.156835e+01
   2.046955e+02   1.257551e+01
   1.175545e+02   8.528782e+01
  -4.881695e+01   1.285234e+02
  -1.019335e+02   8.538326e+01
  -7.122411e+01  -1.886028e+01
   8.127405e+00  -3.898523e+01
   1.038517e+02   3.293757e+01
   6.522864e+01   4.044923e+01
  -5.302475e+01   1.106435e+02
  -2.064903e+02   8.002747e+01
  -1.032565e+02  -4.244766e+01
  -6.972092e+01  -1.025349e+02
   5.347939e+01  -5.635457e+01
   1.054789e+02  -7.101033e+00
  -5.915474e+01   3.683410e+01
  -4.638404e+01   1.687857e+01
  -1.246216e+01  -7.846198e+01
   6.652086e+01  -1.688010e+02
   1.338355e+02  -9.373768e+01
   6.915144e+01   9.377232e+01
   7.906775e+00   1.550181e+02
  -7.956453e+01   1.720449e+02
  -8.302306e+01   2.317058e+01
  -8.410428e+01  -1.314773e+02
  -7.547209e+00  -1.329613e+02
   2.863922e+01  -6.370520e+01
   6.324443e+01   3.982599e+01
   1.323186e+01   3.348151e+01
   3.961687e+01  -6.100190e-01
   1.907190e+01  -1.719794e+00
   4.347519e+01   6.658851e+01
   5.947677e+01   1.127210e+02
  -3.272588e+01   7.129799e+01
  -1.535478e+02  -3.279947e+01
  -1.226178e+02  -1.104289e+02
  -8.661055e+01  -7.088165e+01
   5.171939e+01  -8.465086e+01
   7.949324e+01  -1.259488e+01
   6.962978e+01   2.500765e+01
   2.674015e+01   4.180542e+01
  -6.019302e+01   5.780048e+01
   1.444244e+01   1.028204e+01
  -4.371255e+01   6.497574e+00
  -6.977242e+01  -3.770336e+01
  -1.147978e+02  -4.218023e+00
  -3.908790e+01  -5.653024e+01
   8.396472e+01  -1.246308e+02
   1.983792e+02  -1.045088e+02
   1.329298e+02  -4.104079e-01
   1.971671e+01   1.308289e+02
  -8.976695e+01   1.697915e+02
  -7.677337e+01   5.516468e+01
  -3.224758e+01   3.142752e+01
  -2.434977e+01  -2.789147e+01
  -8.864512e+00   1.642982e-01
  -3.577433e-02  -5.652788e+01
  -2.972986e+01  -3.916202e+01
  -8.686744e+00  -9.233471e+01
   4.850885e+01  -8.398337e+01
   1.036034e+02  -1.469898e+01
   4.913952e+01   1.111101e+02
  -4.527389e+00   1.322121e+02
  -7.398811e+01   5.717517e+01
  -1.401733e+02  -6.983617e+01
  -4.931913e+01  -9.375984e+01
   4.329237e+01  -1.049010e+02
   8.675370e+01  -1.454374e+01
   4.869957e+01   4.476191e+01
  -4.111144e+01   1.027705e+02
  -2.970746e+01   6.784226e+01
  -1.676383e+01  -2.241622e+01
   1.002201e+02  -2.688036e+01
   5.875404e+01  -2.544171e+01
  -2.620268e+01   8.340294e+01
  -1.016589e+02   9.925318e+01
  -5.124431e+01  -3.655244e+01
   3.592713e+01  -7.834920e+01
   4.472583e+01  -7.406814e+01
   7.338064e+01  -1.828389e+01
   3.580849e+01   2.427149e+01
  -2.590769e+01   5.160046e+01
  -1.969260e+01   3.096053e+01
  -4.377021e+01  -3.021506e+01
  -4.514516e+01  -5.255383e+01
   4.190832e+01   1.614546e+01
   2.193042e+01   2.571366e+01
   2.827750e+01  -2.502764e+01
  -9.541923e+00  -2.034389e+01
   1.380096e+01  -1.246453e+01
   2.890143e+01   4.204285e+01
  -7.137216e+00   7.032874e+01
  -6.461624e+00   5.582947e+01
  -7.257137e+01  -3.139499e+01
  -1.645778e+01  -1.040652e+01
   4.491240e+01  -1.605573e+01
   1.349797e+02   1.992433e+01
   7.452410e+01   6.924903e+01
  -6.804412e+00   7.213833e+01
  -1.268240e+02  -1.067787e+01
  -7.567863e+01  -1.229640e+01
   3.779105e+01  -5.437178e+01
   5.092051e+01  -5.837652e+01
   2.636286e+01   1.209708e+00
  -5.041973e+00   3.367037e+01
   3.290978e+00  -1.132672e+01
   2.268738e+01  -2.972977e+01
   4.165458e+01  -5.008763e+01
