
 $NMID
 id='ANONYMOUS ', fmtdat='(2E16.6)'
 volume=1.0
 tramp=1.0
 $END
  -1.661959e+03   7.185401e+01
  -1.055921e+03  -7.328437e+02
  -4.021858e+01  -9.904988e+02
   5.479257e+02  -6.228119e+02
   4.701889e+02  -1.704051e+02
  -1.701015e+01   7.965701e+01
  -1.178449e+02   4.950540e+01
  -5.086683e+01  -1.977346e+02
   1.711173e+02  -2.468092e+02
   2.818306e+02  -9.319727e+00
   2.159950e+02   2.070443e+02
  -1.205836e+01   2.687604e+02
  -1.475361e+02   1.376695e+02
  -1.090839e+02  -1.698235e+02
   3.375341e+01  -1.375630e+02
   1.307934e+02  -3.060231e+01
   1.705309e+02   1.528641e+02
   7.500978e+01   2.750192e+02
  -1.924257e+02   2.082465e+02
  -3.046202e+02  -3.762022e+01
  -4.455974e+01  -1.433786e+02
   6.991956e+01  -1.319416e+02
   2.855927e+01  -8.460985e+01
  -7.612679e+01  -1.641962e+01
  -1.208622e+02  -1.535802e+02
  -1.599219e+01  -1.592402e+02
   2.218346e+02  -1.156085e+02
   2.633184e+02   5.335190e+01
   1.370099e+02   1.561176e+02
  -1.633509e+02   7.210817e+01
  -1.904115e+02  -6.427968e+01
  -9.801330e+01  -1.517065e+02
   7.281118e+01  -8.219234e+01
   1.762311e+02  -5.347443e+01
   8.517993e+01  -2.495048e+01
   5.061278e+01   3.781749e+01
  -3.489116e+01   7.643161e+01
   3.955563e+01   1.347754e+01
   9.295523e+01  -2.436429e+01
   1.390555e+02   7.060149e+01
   2.648268e+00   1.830717e+02
  -1.394238e+02   1.712725e+02
  -1.254327e+02   2.417090e+01
  -9.364405e+00  -9.771509e+01
   6.212839e+01  -1.485004e+00
   5.864921e+01   1.025742e+02
  -8.122091e+01   1.441331e+02
  -2.074538e+02  -1.618235e+01
  -1.714275e+02  -2.007411e+02
  -7.090775e+01  -2.155149e+02
   1.364366e+02  -1.288444e+02
   2.296889e+02   9.225156e+00
   1.495292e+02   1.306887e+02
  -3.403384e+01   8.906740e+01
  -1.143382e+02   5.483548e+01
  -8.030171e+01   2.306980e+01
  -2.536664e+01  -6.242653e+00
   3.749684e+01  -1.276833e+01
  -2.865378e+01  -1.633239e+01
  -9.528381e+01  -1.135110e+01
  -6.271867e+01  -4.812187e+01
   6.298399e+01  -1.017979e+02
   1.547517e+02  -7.744959e+01
   1.044120e+02   2.789768e+01
  -2.370024e+01   1.368865e+02
  -1.741568e+02   1.281034e+02
  -1.703026e+02   7.609610e+01
  -1.220706e+02  -5.537652e+01
  -5.096256e+01  -1.163391e+02
   2.477640e+01  -1.437441e+02
   3.814667e+01  -1.188992e+02
   4.965974e+01  -8.144422e+01
   7.664401e+01  -5.977026e+01
   1.287405e+02   2.812428e+01
   1.172529e+02   8.724977e+01
   6.358408e-01   9.393938e+01
  -6.231433e+01   3.625734e+01
  -8.525498e+01  -4.985218e+01
  -2.494363e+01  -9.705509e+01
   8.390004e+01  -1.059251e+02
   1.339049e+02  -1.031826e+01
   1.182415e+02   2.735507e+01
   7.456987e+01   1.082610e+02
   1.200751e+01   1.085433e+02
  -3.485068e+01   8.838381e+01
  -5.050861e+01   7.345579e+01
  -1.129448e+02   4.694674e+00
  -1.371967e+02   4.456789e+01
  -2.016179e+02  -4.308629e+01
  -1.341392e+02  -1.070390e+02
   5.081512e+00  -1.999385e+02
   1.845650e+02  -1.639612e+02
   1.881995e+02  -8.925156e+01
   8.779058e+01  -6.500778e-01
  -5.347741e+00   6.480985e+01
  -1.517327e+01   1.130350e+02
   5.859487e+00   8.292708e+01
   3.833920e+01   2.529321e+01
   1.491083e+01   1.950306e+01
  -2.932235e+01   5.088769e+01
  -8.645340e+01   3.755271e+01
  -1.745099e+01  -2.194535e+01
   2.768077e+01  -7.690959e+01
   9.246465e+01   1.633686e+00
   6.940823e+01   1.065509e+02
  -1.949566e+01   1.639199e+02
  -1.355681e+02   9.558731e+01
  -1.945215e+02  -2.000240e+01
  -1.563236e+02  -9.070074e+01
  -9.574691e+01  -1.048193e+02
   4.196889e+01  -8.946709e+01
   6.328056e+01  -8.141169e+00
   3.509726e+01   2.983194e+01
  -4.949016e+01   1.031777e+01
  -3.931460e+01  -8.368306e+01
   4.531244e+01  -7.923163e+01
   6.303281e+01  -1.467276e+01
  -1.234427e+01   3.010869e+01
  -4.310647e+01   1.852353e+01
  -1.153428e+01  -2.953927e+01
   7.330630e+01  -4.821367e+01
   9.565375e+01   3.555943e+00
   1.189568e+02   5.551862e+01
   3.693869e+01   9.902902e+01
  -8.258657e+01   9.164582e+01
  -1.342421e+02   5.211067e+01
  -6.476386e+01  -5.858366e+00
   3.578426e+01  -3.357532e+01
   5.544838e+01  -2.891305e+01
   1.795941e-01   1.332918e+01
  -6.927129e+01   1.917162e+00
  -8.067114e+01  -2.677783e+01
  -1.606896e+01  -5.496499e+01
   2.260986e+01  -7.407467e+01
   5.679280e+01  -2.289110e+01
  -8.239739e-02   1.456472e+01
  -2.870799e+01  -2.649272e+01
  -3.292197e+01   1.452384e+01
   7.961518e+00   5.835130e+00
   4.367789e+01   3.387702e+00
   7.509191e+01   6.250809e+01
   4.259371e+00   1.022874e+02
  -5.580984e+01   5.677705e+01
  -1.082475e+02  -5.937670e+00
  -2.999205e+01  -7.551408e-01
   4.947573e+01  -3.660751e+01
   3.504851e+01  -2.768971e+01
  -1.366336e+01  -8.987375e+00
  -2.759832e+01   4.035953e+01
   7.512035e+01   2.206037e+01
   3.724562e+01   4.449305e+01
   6.414582e+01   5.403108e+01
  -5.161998e+01   8.419908e+01
  -8.462087e+01   5.453538e+01
  -1.076270e+02  -3.307646e+01
  -5.135651e+01  -6.442680e+01
   8.492888e+00  -8.657630e+01
   4.485581e+01  -9.610520e+01
   2.753305e+01   2.093441e+01
   2.942794e+01   1.113058e+01
   2.667702e+01  -8.152594e-01
   2.858041e+01  -1.959628e+01
   2.370699e+01  -6.004435e+00
   4.975774e+01  -4.022379e+00
   6.712934e+00   3.554476e+00
  -8.129021e+01   1.547400e+01
  -4.873551e+01  -3.574526e+01
   2.993860e+01  -4.224732e+01
   4.623907e+01  -2.569555e+01
   6.505173e+01   1.988935e+01
   2.945263e+01   8.893169e+01
  -7.778756e+01   8.720636e+01
  -1.100526e+02   5.218732e+01
  -8.619221e+01  -4.558484e+01
  -3.070753e+01  -4.559118e+01
   1.812721e+01  -4.611615e+01
   5.551675e+01  -1.420055e+01
   1.473107e+01   1.136480e+01
   1.215333e+01  -4.349216e+01
   9.792257e+00  -5.230403e+01
   9.297754e+01   3.503445e+01
   4.352567e+01   8.466725e+01
   9.580574e+00   9.156908e+01
  -4.509409e+00   7.248776e+01
  -8.716437e+01   1.413219e+01
  -5.673631e+01  -6.745857e+01
  -1.394779e+01  -8.131739e+01
   4.060161e+01  -3.925958e+01
   3.963722e+01   6.106281e+01
  -1.641476e+01   2.062984e+00
  -5.447658e+01  -9.635210e+00
   3.161582e+01  -1.301069e+01
   6.343303e+01   4.217471e+01
  -6.953404e+00   5.109932e+01
  -3.587669e+01   1.425451e+01
  -8.665646e+01  -2.240128e+00
  -5.806918e+01  -4.793621e+01
   9.591719e-01   3.795977e+00
   6.967798e+01  -4.569441e+00
   7.941035e+01  -1.831285e+00
   1.179738e+01  -5.751346e+00
  -5.364445e+01   2.191205e+01
  -2.781248e+01   7.916274e+00
  -1.499971e+01  -4.226250e+01
   4.948110e+01  -2.758400e+01
   3.112910e+01   5.842241e+00
   6.462607e+01   1.785260e+01
   3.828442e+01   8.435363e+00
   8.458790e+00   1.125792e+01
   2.993422e+00  -2.927556e+01
   3.639903e+00   2.374466e+01
  -3.326204e+01   8.850766e+01
  -5.101320e+01   4.049856e+01
  -8.859842e+01  -2.748643e+01
  -2.364450e+01  -7.868390e+01
   1.514281e+01  -7.211222e+01
   3.891585e+01  -1.510225e+01
   5.915326e+01   1.754553e+01
  -6.465355e+01   4.982316e+01
  -8.929879e+01   1.650138e+01
  -3.461549e+01  -3.935421e+01
  -1.654110e+00  -5.872945e+01
   1.136638e+02  -1.128054e+01
   6.267283e+01   1.581881e+01
   2.369698e+01   1.250999e+01
  -2.379564e+01   7.820641e+00
  -6.901002e+00  -2.893896e+01
   1.425646e+01  -2.672718e+01
   7.427695e+01   1.971950e+01
   1.410080e+01   1.067888e+02
  -5.897357e+01   9.004575e+01
  -7.436170e+01   2.235012e+01
  -8.798966e+01  -2.423347e+01
   2.519183e+01  -9.796110e+01
   5.985293e+01  -6.490145e+01
   6.303726e+01  -1.429195e+01
   1.199424e+01   7.317652e+01
  -1.644875e+01   2.667408e+01
  -1.005267e+01   3.254577e+01
  -1.804619e+01  -4.437428e+01
   3.666531e+00  -1.600229e+01
  -1.250855e+01   2.301206e+01
   1.493327e+01  -1.168003e+01
  -1.544721e+01  -6.287041e+01
  -1.379852e+00  -6.065980e+01
   3.250651e+01  -5.137715e+00
   6.393798e+01   2.261305e+01
   7.418928e+01   5.382086e+01
   1.240566e+01   6.334820e+01
  -6.455250e+01   7.013775e+00
  -6.292916e+01   2.135202e+01
  -1.005632e+01  -1.278128e+01
  -4.960221e+00  -4.631426e+01
   2.338687e+00   6.421433e+00
   1.795393e+01   2.328907e+01
   3.930904e+01   3.370930e+01
   4.837500e+01  -5.888067e+01
   3.258327e+01  -8.743244e+00
  -2.287940e+01   8.268053e+01
  -5.882394e+01   7.791954e+01
  -8.827684e+01   4.376502e+01
  -4.161919e+01  -6.196348e+01
  -9.600854e+00  -7.267937e+01
   2.389728e+01  -4.859058e+01
   4.260329e+01  -2.450479e+01
   2.601147e+01  -1.840359e+01
  -3.891395e+01   9.978450e+00
   6.421535e+00  -5.763083e+00
   9.049969e+00   2.110163e+00
   3.965800e+01   2.556013e+01
   4.508713e+01   9.982115e+00
   2.226973e+01   1.900420e+01
  -3.307405e-01   8.396745e+00
  -1.952414e+01  -6.609132e+01
  -1.788603e+01  -7.905173e+01
   9.337239e+01  -8.155227e+00
   4.230933e+01   3.475107e+01
   1.295595e+01   6.564402e+01
  -1.333024e+01   7.171697e+01
  -3.286724e+01  -9.604283e+00
  -3.817427e+01  -5.406135e+01
   2.302113e+01  -5.085621e+01
   2.462099e+01  -7.657441e+00
   2.067286e+01   2.429478e+00
  -1.378548e+01   3.630671e+01
  -2.425777e+01  -4.323920e+01
   4.685295e+01  -6.833797e+01
   4.463753e+01  -2.880658e+01
   2.520533e+01   5.530743e+01
   3.044274e+00   9.308969e+01
  -2.132694e+01   7.605666e+01
  -2.562208e+01   1.534474e+01
   1.876893e+01  -6.300648e+01
   2.883648e+01  -5.339165e+01
   3.151842e+01   5.199698e+01
   1.318807e+01  -3.233358e+01
   8.656290e+00   3.420668e+01
  -2.570380e+01  -1.580720e+01
  -1.421454e+00   3.786210e+00
   8.593035e+00   5.573446e+01
   4.130156e+00   9.554219e+01
  -4.098356e+01   4.724307e+01
  -2.289694e+01  -4.871310e+01
  -7.229110e+00  -1.954767e-01
   3.365874e+01  -4.551709e+01
   6.721422e+01   9.015944e+00
   2.556894e+00   2.440334e+01
  -4.629247e+00   1.848843e+01
  -1.994913e+01   1.111276e+00
  -2.135234e+01  -1.733071e+01
   2.172307e+01  -2.668558e+01
   2.616983e+01  -3.936560e+01
   3.037237e+01   2.490237e+01
  -2.213086e+01   9.989637e+00
  -5.996250e+01   2.212351e+01
  -1.994289e+01   2.778591e+01
   1.427811e+01  -5.764925e+00
   7.398698e+01   1.293723e+01
  -1.601753e+01   7.197052e+01
  -1.828755e+01   1.966671e+01
