
 $NMID
 id='ANONYMOUS ', fmtdat='(2E16.6)'
 volume=1.0
 tramp=1.0
 $END
   1.028856e+03   4.844074e+01
   5.776394e+02   4.746170e+02
   8.338385e-01   6.130935e+02
  -2.477650e+02   4.543096e+02
  -3.162296e+02   2.217342e+02
  -1.087316e+02  -6.275620e+01
   8.703500e+01  -1.688107e+01
   5.959887e+01   1.607680e+02
  -1.563341e+02   1.726061e+02
  -1.760909e+02   4.497386e+01
  -1.077183e+02  -1.707443e+02
  -4.750335e+01  -2.079165e+02
   6.302741e+01  -2.313314e+01
   7.300640e+01   1.321606e+02
  -1.086905e+01   1.303112e+02
  -1.050816e+02   8.075387e+01
  -8.456966e+01  -1.350177e+02
   2.347703e+01  -2.055805e+02
   1.093617e+02  -8.246675e+01
   1.427165e+02   3.324804e+01
   5.789162e+01   9.381951e+01
  -2.411486e+01   9.917052e+01
   1.146834e+01   2.310012e+01
   8.090346e+01   4.944013e+01
   9.136794e+01   1.674064e+02
  -4.734178e+01   1.018247e+02
  -1.593309e+02   2.265102e+00
  -1.523732e+02  -1.173780e+02
  -5.474371e+01  -1.263082e+02
   1.026169e+02  -2.026845e+01
   1.668749e+02   8.500478e+01
   2.141096e+01   1.161415e+02
  -5.577699e+01   5.109049e+01
  -1.665760e+02  -2.471523e+00
  -8.305258e+01  -5.276992e+01
  -4.428230e+01  -1.401822e+02
   3.968411e+01  -3.828183e+01
  -4.682117e+00   2.509461e+01
  -4.626409e+01  -4.978243e+00
   3.266830e+01  -8.201286e+01
   2.872061e+01  -1.269081e+02
   5.851837e+01  -1.096062e+02
   9.137904e+01  -5.247712e+01
   2.496731e+01   3.314468e+01
   1.107675e+01   3.905500e+01
  -2.375053e+01  -8.898231e+01
   6.561292e+01  -1.219363e+02
   1.713893e+02  -2.074665e+01
   1.424662e+02   1.317564e+02
   5.626406e+01   1.395389e+02
  -7.118699e+01   9.567807e+01
  -1.895196e+02  -3.022469e+01
  -1.015850e+02  -8.149585e+01
   5.161341e+00  -7.643755e+01
   8.302160e+01  -2.298921e+01
   6.953893e+01   1.776759e+01
   3.011272e+01   9.435008e+00
  -1.195662e+01  -2.728104e+01
   5.931118e+01   1.316892e+01
   6.243608e+01   3.432792e+01
   6.907744e+01   8.438230e+01
  -3.612364e+01   9.049150e+01
  -1.144100e+02   8.020291e+01
  -9.734836e+01  -3.553569e+01
   8.025173e+00  -1.116200e+02
   1.077994e+02  -1.155637e+02
   1.546802e+02  -6.509378e+01
   4.563000e+01   4.175673e+01
   1.141032e+01   9.975070e+01
   8.165145e+00   9.683222e+01
  -2.143377e+01   6.884920e+01
  -3.235520e+01   3.452483e+01
  -6.046865e+01   4.346361e+01
  -9.243372e+01  -2.511141e+01
  -8.057158e+01  -6.956726e+01
  -2.525965e+01  -8.030685e+01
   5.484827e+01  -1.013974e+02
   4.826005e+01   2.630833e+00
   3.430560e+01   1.258820e+02
   3.719163e+00   9.334114e+01
  -8.559247e+01   4.980428e+00
  -1.051921e+02  -9.175836e+01
  -2.091935e+01  -1.269296e+02
   3.419791e+01  -1.225678e+02
   4.421745e+01  -3.921641e+01
   5.734357e+01   1.022113e+01
   8.302751e+01  -1.092694e+01
   8.239574e+01   1.367751e+00
   1.630715e+02   4.079921e+01
   1.026280e+02   1.371696e+02
  -2.495105e+01   1.389314e+02
  -1.657544e+02   1.051967e+02
  -2.086832e+02   3.702376e+01
  -8.826650e+01  -4.054533e+01
  -9.174466e+00  -5.287372e+01
   6.352068e+01  -7.731000e+01
   2.702466e+01  -6.621803e+00
  -4.542071e+01   1.183687e+01
  -4.141544e+01   1.502000e+01
  -4.681508e+01   4.575449e+00
   1.728233e+01  -6.218981e+00
   3.943873e+01   2.806364e+01
  -9.819079e+00   3.509936e+00
  -5.027833e+01  -8.189159e+00
  -8.034351e+00  -4.628042e+01
   4.842378e+01  -1.133232e+02
   5.393232e+01  -7.150518e+01
   1.266443e+02   2.856673e+01
   7.288679e+01   1.349049e+02
   9.079846e+00   8.135359e+01
  -4.352889e+01   5.889777e+01
  -1.844461e+01  -2.630124e+01
   8.642204e+00  -2.664361e-01
   1.092577e+01   4.190326e+01
  -3.236222e+01   4.196800e+01
  -4.881078e+01   3.626681e+01
  -5.574575e+01  -2.325802e+00
  -1.767353e+01  -2.559881e+01
   4.285684e+01  -1.240498e+01
   8.016317e+00   2.877914e+01
  -3.910814e+01   3.506598e-01
  -8.843406e+01  -1.452611e+01
  -9.409094e+01  -6.316215e+01
  -5.738595e+00  -1.223476e+02
   1.178968e+02  -5.715645e+01
   9.426044e+01  -1.568742e+01
   5.401044e+01   3.039335e+01
  -1.657159e+01   2.652599e+01
  -7.424328e+01   2.316614e+01
   1.164612e+01  -3.502065e+01
   4.185525e+01  -1.809611e+01
   5.733469e+01   6.404351e+01
  -7.719160e+00   6.329116e+01
  -4.368657e+01   2.614247e+01
  -3.920515e+01   2.858175e+01
  -3.552527e+00   5.760521e+00
   1.215778e+01   9.621920e+00
  -8.763488e-01   9.285647e+01
  -6.902120e+01   7.182779e+01
  -9.568091e+01   1.121228e+01
  -5.823595e+01  -7.161259e+01
  -1.524406e+01  -1.022683e+02
   8.612168e+01  -8.251453e+01
   8.740788e+01  -8.935843e+00
   2.027626e+01   5.310600e+01
  -1.607244e+01  -1.558809e+01
  -1.526329e+01  -4.705384e+00
  -3.410156e+01  -2.292217e+01
   2.616673e+00  -1.520921e+01
   1.023421e+01   8.009252e+00
  -4.481010e+01  -5.986774e+00
  -2.319960e+01  -7.119437e+01
  -4.916439e+00  -8.342830e+01
   6.330021e+01  -5.668040e+01
   5.843919e+01  -7.185116e+00
   8.672311e+01   6.235037e+01
  -5.134616e+00   5.697395e+01
  -2.927759e+01   5.520001e+01
  -6.065411e+01  -1.130323e+00
  -3.236569e+01  -2.015105e+01
  -2.002348e+01  -2.322917e+01
  -9.353411e+00  -3.818691e+01
  -2.991605e+00   2.409110e+00
  -1.192292e+00  -2.374197e+01
   2.598089e+01  -2.638861e+01
   5.045454e+01  -5.258705e+00
   2.598435e+01   3.331350e+01
  -6.024740e+01   4.011243e+01
  -7.864249e+01   2.836037e+01
  -5.759754e+01  -4.331107e+01
  -2.528231e+01  -8.201045e+01
   5.208953e+01  -1.051596e+02
   1.287107e+02  -2.416612e+01
   8.588526e+01   6.765659e+01
   3.457164e+01   7.367139e+01
  -2.199309e+01   4.214908e+01
  -6.282721e+01   1.671854e+01
  -4.333588e+01   2.720167e+01
   9.409976e-01   2.651402e+01
  -5.113547e+01   6.603097e+01
  -2.335265e+01  -1.299563e+01
  -5.650959e+01  -6.988190e+01
  -1.514592e+01  -5.755722e+01
  -8.125754e+00  -6.056779e+01
   4.271426e+01   3.097054e+01
   6.415215e+00   8.158484e+01
  -4.067708e+01   7.847237e+01
  -2.632948e+01   2.924706e+01
  -4.412802e+01  -3.404530e+00
   1.360372e+01  -1.678038e+01
  -6.671790e+00  -3.067836e+01
  -6.293259e+00  -9.022255e+00
  -3.484405e+01  -5.497006e-01
   1.527118e+01   7.737368e+00
   7.902908e+01   2.107979e+00
   8.594646e+01  -9.819598e+00
   5.102901e+01   6.004994e+01
  -9.108749e+00   6.099908e+01
  -8.209596e+01   2.493875e+01
  -7.624698e+01  -5.945590e+01
  -5.349937e+00  -2.550726e+01
   2.932486e+01  -1.057180e+01
   3.362601e+01  -2.124450e+01
   1.143818e+01   1.300388e+00
  -2.586080e+01   1.486613e+00
  -4.150428e+01  -1.868470e+01
  -6.143337e+01   2.685714e-01
  -4.762446e+01   4.067646e+00
  -6.056068e+01  -1.608278e+01
  -8.763837e+00  -3.526069e-01
  -7.108726e+00  -1.690694e+01
   3.661386e+01  -6.876736e+01
   4.296108e+00  -5.687429e+01
   2.116683e+01  -4.162050e+01
   3.285751e+01  -1.850637e+00
   2.787195e+01   3.791619e+01
  -9.610272e+00   4.671025e+00
   1.554378e+01  -3.902259e+01
   2.928699e+01   8.156205e+00
   2.551673e+01   1.165536e+01
   2.216387e+01   3.266695e+01
  -5.694673e+01   1.176136e+01
  -5.807398e+01   1.784621e+01
  -2.745041e+01  -2.419158e+01
   3.539212e+01  -9.430962e+00
   4.912207e+01   1.318643e+01
   3.287674e+01   1.481333e+00
  -2.216452e+00   6.291994e-01
  -2.048172e+01   1.379988e+01
  -3.009707e+01  -4.388707e+01
   4.767864e+01  -3.935209e+01
   7.359866e+01  -4.247473e+01
   4.549049e+01   2.647902e+01
   4.819898e+01   8.004092e+01
  -3.390162e+01   2.744696e+01
  -3.122477e+01   2.303559e+01
  -2.486720e+01  -1.477776e+01
  -2.242626e+00  -1.551510e+01
   1.808543e+01  -3.011684e+01
  -1.035385e+00   8.048517e+00
  -5.869228e+00   3.238274e+01
  -1.311108e+01  -1.444133e+01
   1.145061e+00  -1.758643e+01
   5.055192e+01   1.533472e+01
  -2.534951e+00   5.396236e+01
  -6.723685e+00  -5.364425e+00
  -6.227602e+01  -1.635829e+01
  -5.496641e+01  -5.466155e+01
  -1.829407e+00  -4.255453e+01
   4.626909e+01  -3.985852e+01
  -5.076919e+00   1.867006e+00
  -1.908030e+01  -7.237199e+00
  -3.728122e+01   7.179121e-01
   1.117723e+01  -1.267132e+01
   3.459034e+01  -4.098765e+01
   1.705108e+01  -1.615396e+00
  -2.292818e+01  -2.184251e+01
  -1.288178e+01  -2.967102e+01
  -7.865534e+00  -3.774133e+01
   2.847762e+01  -4.290898e+01
   1.019767e+02  -4.715658e-01
   4.345167e+01   1.359392e+01
   2.695351e+01   2.890229e+01
   1.355336e+00   3.866709e+01
  -1.317151e+01   2.198787e+01
  -2.801681e+01  -1.094974e+01
  -1.424995e+01   6.496665e+00
   1.400946e+01   4.525490e+00
  -6.313965e+00  -2.406748e+01
   3.250456e+01  -1.152323e+01
   9.779961e+00  -1.373928e+01
  -1.066320e+01  -1.945225e+01
  -3.378426e+01   5.283743e+01
   2.367938e+01   3.481163e+01
  -7.011609e+00   3.162022e+01
  -2.503233e+01   1.685398e+01
   9.665019e+00  -2.358281e+01
  -5.186290e-01  -6.757737e+01
   1.965771e+01  -3.822298e+01
   6.427253e+01   2.677895e+01
   5.387949e+01   6.016609e+00
  -1.242100e+01   2.714684e+01
   2.895157e+01   1.217879e+01
   3.303133e+01   5.102713e+00
   2.966681e+01  -3.216206e+01
   1.580634e+01   1.535324e+01
  -1.635018e+01   2.176644e+01
  -2.271428e+01  -2.120217e+01
  -4.258643e+01  -4.270555e+00
   1.510015e+01  -3.118591e+01
   1.366256e+01  -2.302858e+01
   2.168686e+01  -4.978222e+01
  -7.200056e+00   5.541155e+00
   9.194594e+00  -2.187091e+01
  -1.815282e+01  -1.373221e+01
  -3.145318e+01   1.034688e+01
  -1.650026e+01  -3.037801e+01
  -8.003961e-01   3.150418e+01
   8.513709e+00  -2.468511e+00
   6.699953e+00   4.047084e+00
  -1.834654e+01   1.842755e+01
   5.725960e+01  -1.186931e+01
   2.849330e+00  -1.179648e+01
   3.787923e+01   2.443300e+01
  -7.470734e+00   4.380866e+01
  -3.549270e+01  -7.978721e+00
   1.373084e+01   2.402184e+00
   2.784243e+01  -3.265642e+01
   1.793631e+01   1.184424e+01
   1.041252e+01   5.588905e+01
  -2.892633e+01   5.477453e+00
  -1.337315e+01   2.186537e-01
  -4.569631e+00  -9.690528e-01
  -5.100685e+00  -1.120335e+01
   1.501908e+01   5.813947e+00
   1.413197e+01   9.443075e+00
  -3.954548e+01   2.882042e+00
   1.535397e+01  -4.656377e+01
   2.718890e+01  -4.967844e+00
   5.092606e+00  -5.630405e+00
