
 $NMID
 id='ANONYMOUS ', fmtdat='(2E16.6)'
 volume=1.0
 tramp=1.0
 $END
  -9.266280e+02  -9.697069e+01
  -4.507354e+02  -2.977518e+02
  -6.626157e+01  -3.920776e+02
   2.017981e+02  -2.700054e+02
   1.515422e+02  -8.331591e+01
  -3.445331e+01  -6.092516e+01
  -5.537168e+01  -5.354910e+01
   1.452949e+01  -1.399887e+02
   7.260996e+01  -1.027015e+02
   1.001148e+02  -2.359727e+01
   3.861386e+01   6.191944e+01
   4.782851e+01   5.447012e+01
  -8.081658e+00   5.627288e+01
  -7.307540e+01  -7.978385e+01
   3.295320e+01  -3.915607e+01
  -3.154020e+00  -4.851275e+01
   3.136150e+00   2.126763e+01
   3.617171e+01   3.941367e+01
   1.059925e+01   6.673840e+00
  -3.527175e+00  -2.810083e+01
   6.802569e+00  -1.771786e+01
   4.988046e+01  -3.500757e+01
  -6.800707e+00  -2.262700e+01
   6.506043e-01   2.359325e+01
  -1.148130e+01   1.283280e+01
  -9.777694e+00   1.744233e+01
   8.803829e+01   3.270570e+01
   1.055312e+02   1.763889e+01
   2.277868e+00   5.130556e+01
  -3.906945e+01   1.188864e+01
  -7.144898e+01   7.658689e+00
  -6.398755e+01  -3.522304e+01
   2.220979e+01  -2.313535e+01
   4.635936e+01  -4.870371e+01
   2.888652e+01   7.130689e+00
   6.714787e+00   3.507225e+01
   3.666041e+01   3.437741e+01
   1.867550e+01  -2.633956e+01
  -4.742617e-01  -2.210165e+01
  -1.777758e+01   4.305684e+01
   2.022411e+00   7.594123e+01
  -5.693511e+01   3.087565e+01
  -8.549293e+01  -8.975962e-01
  -5.278771e+01  -4.716479e+01
  -5.546629e-01  -2.959033e+01
   1.197414e+01   6.905566e+00
  -1.649805e+01  -2.937284e+00
  -8.623491e+01  -3.151661e+01
  -3.269649e+01  -7.255089e+01
   9.751641e+00  -8.182428e+01
   8.339583e+01   1.094804e+01
   8.264023e+01   3.656842e+01
   3.742898e+01   6.861631e+01
  -1.702526e+01   1.314074e+01
  -4.169523e+01   1.483426e+01
  -2.022371e+01  -9.492131e+00
  -1.776674e+01  -1.690047e+01
  -2.144938e+01   2.076101e+01
  -3.135045e+01   6.813336e+00
  -2.299417e+01  -1.342633e+01
  -2.569008e+01  -2.463825e+01
   1.798720e+00  -3.354681e+01
   5.626517e+01  -8.696066e+00
   6.215656e+01  -1.617177e+01
   3.933945e+01   4.827703e+01
  -2.880410e+01   4.897431e+01
  -3.257975e+01   4.054121e+01
  -6.651261e+00   2.030520e+01
   8.532489e+00  -2.164777e+01
   8.660261e+00  -6.232681e+01
  -3.701671e+01  -2.620364e+01
  -3.593647e+01  -2.453171e+01
   7.067144e+00  -1.177376e+00
   2.310566e+01  -1.872249e+01
  -3.665149e+00   1.672952e+01
  -5.817524e+00   1.408832e+01
   2.784142e+00   1.433986e+01
   1.085171e+01   1.556978e+01
   2.583475e+01  -1.675174e+01
   3.051167e+01  -1.833765e+01
   4.847077e+01   6.853471e+00
   1.416149e+01   5.199829e+01
   4.819259e+01   7.347076e+01
  -3.893227e+01   1.428806e+01
  -3.202777e+01   2.112991e+01
  -1.175897e+01  -4.393946e+01
  -2.557992e+01  -6.829155e+00
  -1.852514e+01   1.510958e+01
  -9.175755e+01  -3.856673e+01
  -7.153284e+01  -5.468034e+01
   1.998768e+01  -7.937932e+01
   3.748208e+01  -6.258374e+01
   8.364168e+01  -2.807809e+01
   2.061803e+01  -1.130564e+01
   8.530820e+00   1.951217e+01
  -2.225248e+01   5.228289e+01
   7.774916e+00  -1.344332e+01
   2.720567e+01  -1.091396e+01
   2.410132e+01   2.838215e+01
  -3.633059e+00   6.223479e+00
  -4.848890e+01   2.965452e+01
  -4.684333e+01  -9.371342e+00
  -3.017333e+01  -1.377052e+01
  -8.860750e-01  -2.514627e+01
   2.099076e+01   4.800226e+01
   5.708761e+00   4.160869e+01
  -1.645771e+01   4.126315e+01
  -6.180899e+01   1.486910e+00
  -4.606462e+01  -1.256379e+01
   2.000344e+01  -2.278231e+01
   1.420955e+01  -3.345939e+01
   3.098443e+01   8.303542e+00
   1.213513e+01   2.755966e+00
  -6.479480e+00   3.141065e+01
   2.867507e+01  -1.322403e+01
  -2.502909e+00  -1.216220e+01
   2.401186e+01  -2.425940e+01
   5.320163e+00  -1.294766e+01
   1.709468e+01  -1.782429e+01
   2.757436e+01  -2.770370e+01
  -1.667752e+01   3.690069e+01
   2.352188e+01   7.799701e+00
   1.986507e+01   9.982449e+00
   3.644971e+00   4.047060e+01
  -1.873469e+01   2.289738e+01
  -2.333007e+01   1.905195e+00
  -3.450629e+01  -3.750077e+01
   1.152632e+01  -4.505695e+01
   4.327132e+01  -9.022211e+00
  -8.118698e+00  -2.475954e+01
  -3.093229e+01   8.422892e+00
  -6.660911e+01  -6.260017e+00
  -2.797837e+01  -3.747819e+00
   1.505628e+01  -5.060977e+00
   2.366240e+01  -4.198687e+01
  -1.002915e+01  -1.859926e+01
  -6.577363e+00  -2.221445e+01
  -1.667147e+01   2.537591e+00
   2.105253e+00  -3.263920e+00
   3.404671e+01   3.639629e-01
  -3.309035e+00   4.532040e+01
  -2.844436e+00   3.463665e+00
  -1.214134e+01  -1.531711e+00
  -2.923020e+01  -1.559962e+01
  -4.600673e+00  -1.770350e+01
   3.325556e+01  -3.374446e+01
  -1.919322e+01  -2.697530e+01
   3.368594e+01   1.253277e+01
  -7.546221e-01  -3.805579e+01
   6.584504e+00  -2.198685e+01
   4.474259e+01  -5.754419e+00
  -1.020695e-01  -9.129167e+00
   2.227719e+01   3.536411e+01
  -3.058905e+01   3.616723e+01
  -3.665308e+01   2.596266e+01
  -4.514521e+01  -2.319460e+01
  -1.876410e+00  -2.957041e+01
  -1.041738e+01  -4.677864e+01
   4.396826e+01   3.795180e+00
  -1.534210e+01  -1.313821e+01
  -5.728851e+00  -1.547002e+01
   2.559570e+00   3.510862e+00
   2.618149e+01  -5.316738e+00
   1.715112e+01   2.133478e+01
  -1.549799e+01   5.720150e+00
  -1.222081e+01   1.786935e+00
  -9.395158e+00  -3.141748e+01
  -6.489949e+00   1.726553e+01
   8.652177e+00  -3.922671e+01
   2.577586e+01   4.341567e+01
  -1.437847e+01   1.597627e+01
  -1.269688e+01   6.145103e+01
  -3.821378e+01   2.339020e+01
  -6.392857e+01  -1.726230e+01
  -3.151826e+01  -1.184185e+01
   5.317701e+01  -5.999646e+01
  -2.280984e+01  -1.100000e+01
   4.430446e+01   3.943618e+01
  -1.886365e+01  -5.116021e+01
   1.859324e+01  -5.468687e+00
   1.526797e+01  -1.744592e+01
   3.018083e+01   2.494182e+01
  -1.344710e+00   3.109302e+01
   2.369201e+01   1.207048e+01
   1.753084e+00  -7.781120e+00
  -2.138993e+01  -5.381452e+00
   1.744107e+01  -1.682547e-01
  -9.876482e+00   1.852732e+01
   3.752734e+01   1.233292e+01
   1.226452e+01   5.942223e+00
   4.571367e+00  -2.507556e+01
   1.110688e+01   1.087542e+01
  -3.492466e+00  -3.461728e+01
   3.460350e+01   2.622076e-01
  -2.087463e+01   8.100507e+00
  -3.205833e+01  -3.043253e+00
  -5.790786e+00  -2.187644e+00
   2.852051e+01  -8.317078e+00
  -1.252695e+00  -2.339755e+01
   1.665378e+01   6.083048e+00
   7.303978e-01  -3.233481e+01
  -1.484915e+00   1.782833e-01
  -3.911135e+01  -2.522180e+01
   1.064254e+00   1.926370e+01
   2.438185e+01   1.124374e+01
   5.760332e+00   7.573076e+00
   3.652403e+01   1.989754e+01
   3.125148e+01  -9.410643e+00
  -1.998628e+01  -1.252010e+01
   3.439049e+01  -7.243191e+00
   2.055275e+01  -4.312009e+00
  -9.948605e+00   3.679556e+01
  -1.736723e+01   2.702250e+01
  -1.660045e+01   1.687667e+01
  -5.638057e+00  -2.825642e+01
  -6.274509e-01  -3.416908e+01
   2.076584e+01   1.064134e+01
   1.653250e+01  -8.273282e+00
  -3.628008e+01   3.041741e+00
  -6.994616e+00   3.063250e+01
  -1.212073e+01  -3.441298e+01
   7.934352e+00   1.242133e+01
   1.561596e+01  -1.546142e+01
   3.478218e+00   2.614075e+01
  -1.031511e+00   1.013199e+01
   1.466280e+01   6.224321e-01
   8.309057e+00   3.475551e+01
  -7.848540e+00  -1.862562e+01
  -1.689830e+01  -2.691932e+01
  -1.943125e+01   1.072735e+01
   1.065507e+01   2.428157e+01
  -2.619121e+01  -2.830162e+00
  -3.494468e+01  -1.595938e+01
  -2.985106e+01  -4.129134e+01
   6.420871e+00  -4.919856e+01
   4.555325e+01  -7.342712e+00
   2.268867e+01   2.806048e+01
   5.423508e+01   3.314354e+01
  -1.254856e+01   1.840788e+01
   2.577269e+01   3.691807e+01
  -3.537351e+00  -3.691203e+00
   2.236410e+01  -5.856989e+00
  -7.323179e+00   9.597566e+00
   1.827534e+01  -3.925700e-01
  -6.683106e+00  -1.096892e+01
  -3.228329e+01   5.107084e+00
   1.126881e+01   2.666162e+01
  -1.468237e-01   2.801494e-01
   1.999948e+01  -9.551167e+00
  -2.134366e+01   3.548311e-01
   5.584322e+00   4.264734e+00
  -3.052582e+00   1.508176e+00
  -1.075073e+01   3.711611e+01
  -4.928044e+00  -9.334332e+00
  -9.823064e+00   3.005034e+01
   1.237326e+01  -7.715847e+00
   2.592410e+01   1.217737e+01
   3.052385e+01  -4.232661e+00
  -2.932558e+01   1.476805e+01
  -4.997825e+01   4.106274e+01
  -5.278373e+01  -2.337447e+01
   1.805487e+00   1.523850e+01
  -2.055800e+01  -1.167214e+01
   3.532000e+00  -3.292112e+01
   1.413880e+00  -2.764638e+01
   4.068532e+01   1.446693e+01
  -1.897003e+01   5.688699e+00
   1.757575e+01   2.739238e+01
   5.053714e+00  -2.950445e-01
   7.857600e+00  -1.780155e+01
  -1.618271e+01   2.541645e+01
   1.997562e+01   3.809793e+01
   9.358189e+00  -3.389114e+01
  -3.539209e+01  -1.669852e+01
  -8.142575e+00   1.351878e+01
  -1.178490e+01  -5.610559e+00
   3.855815e+00   1.438533e+01
   6.211429e+00   1.146378e+01
  -1.357798e+01  -2.561892e+01
   2.384324e-01  -1.799758e+01
  -3.181416e+01   8.439480e+00
   4.337957e+01  -1.588035e+01
   2.354996e+01  -2.428887e+01
  -2.153371e+01   1.542697e+01
   1.734427e+01   2.742222e+01
   5.027025e+00  -1.832073e+01
   8.135060e+00   2.685065e+01
  -1.901695e+01   4.445701e+00
   1.084056e+00  -1.406704e+01
   3.495883e+01   3.033532e+01
   1.772550e+01   5.033923e+00
  -2.103672e+00  -4.657373e+00
  -3.266189e+00  -1.852553e+00
  -1.311593e+01  -1.685190e+01
  -2.778665e+01  -2.526551e+00
   7.429423e+00  -9.541310e+00
   1.863612e+01  -1.495482e+01
   1.416276e+01   3.340012e+00
  -1.781856e+01   7.473176e+00
   1.134346e+01   6.967704e+00
   1.226499e+01  -3.892015e+01
  -1.436936e+01  -1.968201e+00
   7.463486e+00  -4.508378e+01
   2.982227e+01   2.040467e+01
   1.375899e+01  -1.115562e+01
  -1.623037e+01   4.201767e+01
   4.824907e+00   1.991802e+01
   4.172671e+01  -4.298218e+01
   5.449450e+00  -9.612613e+00
   4.397116e+01  -1.765116e+01
  -8.383252e+00   7.294244e+00
   2.745996e+01   4.777262e+01
  -9.979468e+00   1.568154e+01
   3.686290e+00  -6.298507e+00
  -5.799292e+00   1.781751e+00
   7.194276e-01   1.464733e+01
   2.474078e+01  -1.314518e+01
   1.000348e+00  -2.077222e+01
  -7.648231e+00   4.276490e+01
   2.668577e+01   2.400193e+01
