
 $NMID
 id='ANONYMOUS ', fmtdat='(2E16.6)'
 volume=1.0
 tramp=1.0
 $END
  -2.618813e+07   2.255287e+06
  -1.872609e+07  -1.151339e+07
  -1.055408e+06  -1.710252e+07
   1.099984e+07  -1.159442e+07
   9.627561e+06  -1.162862e+06
   6.912934e+05   4.842286e+06
  -5.321784e+06   2.390868e+06
  -4.082320e+06  -4.178720e+06
   1.098467e+06  -7.159127e+06
   4.825333e+06  -3.342850e+06
   4.398101e+06   3.075405e+06
   8.566716e+05   5.315471e+06
  -2.360404e+06   1.325046e+06
  -2.149511e+06  -4.237274e+06
   1.324084e+06  -5.271678e+06
   4.400369e+06  -6.834053e+05
   3.555332e+06   4.963789e+06
  -7.896038e+05   6.604223e+06
  -4.764404e+06   3.490861e+06
  -5.195730e+06  -1.022980e+06
  -2.585410e+06  -3.400257e+06
  -5.744522e+04  -3.007692e+06
   2.153222e+04  -1.846832e+06
  -1.685014e+06  -1.986604e+06
  -2.230549e+06  -3.406480e+06
   4.499140e+05  -4.175324e+06
   4.835983e+06  -2.670115e+06
   6.796672e+06   4.921312e+05
   3.993069e+06   2.923093e+06
  -1.087778e+06   2.815454e+06
  -3.540130e+06   6.018505e+05
  -1.429541e+06  -1.615231e+06
   2.325685e+06  -1.909788e+06
   3.678331e+06   3.834366e+04
   1.853028e+06   2.670548e+06
  -6.740669e+05   3.602279e+06
  -1.562725e+06   1.765831e+06
  -7.652903e+05  -1.081283e+06
   2.857061e+05  -1.793786e+06
   4.023683e+05   4.997869e+05
  -5.772861e+05   2.917074e+06
  -1.803558e+06   2.130646e+06
  -1.904136e+06  -1.276861e+06
  -2.037476e+05  -3.250057e+06
   2.095385e+06  -1.262890e+06
   2.558035e+06   2.531485e+06
   5.011764e+04   3.950058e+06
  -3.550380e+06   1.585114e+06
  -4.839392e+06  -2.085092e+06
  -2.317820e+06  -3.803327e+06
   1.924609e+06  -2.610355e+06
   4.169468e+06  -6.595026e+03
   2.677776e+06   1.832445e+06
  -7.290740e+05   1.727845e+06
  -2.657506e+06   1.829300e+05
  -1.598503e+06  -1.126216e+06
   7.350747e+05  -9.056214e+05
   1.534034e+06   4.313599e+05
   7.366398e+04   1.238208e+06
  -1.612793e+06   5.283745e+05
  -1.239755e+06  -9.427062e+05
   1.024032e+06  -1.581243e+06
   2.730129e+06  -5.653257e+05
   1.851461e+06   1.531465e+06
  -1.106828e+06   3.238318e+06
  -3.739458e+06   3.123752e+06
  -4.143733e+06   8.375265e+05
  -2.500469e+06  -2.287059e+06
  -4.856350e+05  -4.074089e+06
   5.348176e+05  -3.540617e+06
   6.148638e+05  -1.895363e+06
   7.354418e+05  -9.924319e+05
   1.491206e+06  -1.046093e+06
   2.407109e+06  -6.441906e+05
   2.476869e+06   9.693244e+05
   1.229817e+06   2.534756e+06
  -7.233526e+05   2.232087e+06
  -2.064357e+06  -1.064900e+03
  -1.729561e+06  -2.247210e+06
   1.859056e+05  -2.598228e+06
   2.297416e+06  -9.280116e+05
   2.951627e+06   1.279249e+06
   1.730119e+06   2.459594e+06
  -1.150532e+05   2.220517e+06
  -1.025654e+06   1.360601e+06
  -8.921265e+05   8.815168e+05
  -1.027909e+06   9.659026e+05
  -2.265272e+06   8.704682e+05
  -3.566397e+06  -1.777837e+05
  -3.056623e+06  -2.012785e+06
  -3.441775e+05  -3.491991e+06
   2.700814e+06  -3.428549e+06
   3.712896e+06  -1.643061e+06
   2.170448e+06   7.389449e+05
  -2.071846e+05   2.049270e+06
  -1.265666e+06   1.456412e+06
  -4.281181e+05  -1.846732e+05
   1.033605e+06  -1.072368e+06
   1.494361e+06  -3.485672e+05
   5.945080e+05   9.104373e+05
  -5.682222e+05   9.891600e+05
  -6.871391e+05  -2.676159e+05
   4.186534e+05  -1.124844e+06
   1.649129e+06  -6.736737e+04
   1.658604e+06   2.222584e+06
   5.792873e+04   3.483816e+06
  -2.200769e+06   2.325450e+06
  -3.504848e+06  -3.648466e+05
  -2.844936e+06  -2.452564e+06
  -7.235610e+05  -2.629160e+06
   1.170091e+06  -1.367636e+06
   1.464985e+06  -1.448102e+05
   4.329053e+05   2.325831e+04
  -3.542321e+05  -6.281151e+05
   1.847333e+05  -1.056950e+06
   1.395429e+06  -5.678382e+05
   1.693188e+06   4.688721e+05
   5.099343e+05   1.046563e+06
  -9.344172e+05   6.168382e+05
  -9.742894e+05  -3.350936e+05
   5.892122e+05  -7.918470e+05
   2.175069e+06  -1.823491e+05
   2.043677e+06   1.107785e+06
   9.832024e+04   2.047305e+06
  -1.999391e+06   1.789512e+06
  -2.465387e+06   4.303671e+05
  -1.092557e+06  -9.436810e+05
   6.536728e+05  -1.170745e+06
   1.141752e+06  -1.886628e+05
   1.093820e+05   8.174346e+05
  -1.245890e+06   6.636279e+05
  -1.551377e+06  -5.077824e+05
  -5.547883e+05  -1.406943e+06
   7.555163e+05  -1.095365e+06
   1.172924e+06  -1.679308e+04
   4.249356e+05   5.960749e+05
  -5.778673e+05   1.215469e+05
  -6.356447e+05  -8.531385e+05
   4.941758e+05  -1.227086e+06
   1.745097e+06  -4.826979e+05
   1.778689e+06   8.689685e+05
   4.168194e+05   1.761290e+06
  -1.114759e+06   1.490818e+06
  -1.468417e+06   3.324167e+05
  -5.561490e+05  -6.967096e+05
   4.981856e+05  -7.828895e+05
   6.608087e+05  -8.169499e+04
   2.118841e+03   5.188450e+05
  -5.828420e+05   4.054265e+05
  -4.300533e+05  -1.113701e+05
   2.351159e+05  -2.325366e+05
   5.829274e+05   3.419855e+05
   3.252377e+04   1.011265e+06
  -1.111863e+06   8.889484e+05
  -1.838561e+06  -2.428749e+05
  -1.352745e+06  -1.627928e+06
   9.541106e+04  -2.178594e+06
   1.391213e+06  -1.456938e+06
   1.644656e+06  -7.178790e+04
   1.015920e+06   8.962604e+05
   3.716600e+05   9.026020e+05
   2.475968e+05   3.808162e+05
   3.523047e+05   1.665762e+05
   8.365149e+04   5.273156e+05
  -6.638861e+05   8.702654e+05
  -1.305727e+06   4.631552e+05
  -1.113879e+06  -6.337534e+05
   5.738188e+04  -1.479035e+06
   1.494737e+06  -1.148645e+06
   2.077149e+06   2.958799e+05
   1.195070e+06   1.769841e+06
  -6.250327e+05   2.117957e+06
  -2.074867e+06   1.137469e+06
  -2.187548e+06  -3.041522e+05
  -1.150074e+06  -1.136707e+06
   1.018887e+04  -1.058951e+06
   4.767346e+05  -6.607337e+05
   3.135513e+05  -6.376725e+05
   1.712457e+05  -9.835837e+05
   4.897469e+05  -1.035326e+06
   1.039587e+06  -2.919221e+05
   1.180690e+06   9.175023e+05
   5.423201e+05   1.660979e+06
  -5.181816e+05   1.292738e+06
  -1.153871e+06   8.413877e+04
  -8.186237e+05  -1.019514e+06
   1.555568e+05  -1.236535e+06
   8.587090e+05  -5.655196e+05
   7.296409e+05   3.395394e+05
   1.050967e+05   8.213345e+05
  -2.303942e+05   7.451919e+05
   2.616361e+04   4.583607e+05
   3.547082e+05   3.256714e+05
   4.127763e+04   3.549083e+05
  -9.317455e+05   2.600972e+05
  -1.730565e+06  -1.654148e+05
  -1.467736e+06  -7.775305e+05
  -1.556920e+05  -1.170996e+06
   1.202419e+06  -1.027958e+06
   1.551825e+06  -4.142863e+05
   8.076533e+05   2.295324e+05
  -1.367457e+05   4.321474e+05
  -4.048763e+05   1.223731e+05
   8.085471e+03  -2.647270e+05
   4.371565e+05  -2.119489e+05
   4.168131e+05   2.875216e+05
   1.204405e+05   6.634081e+05
  -1.881875e+04   4.257833e+05
   1.346096e+05  -1.773834e+05
   3.376701e+05  -3.768831e+05
   2.773022e+05   1.809582e+05
  -1.528726e+05   9.197597e+05
  -7.483565e+05   9.514727e+05
  -1.044726e+06   1.233884e+05
  -6.360397e+05  -7.786521e+05
   3.229422e+05  -9.024076e+05
   1.010317e+06  -2.222200e+05
   6.485946e+05   5.216572e+05
  -5.653505e+05   6.270704e+05
  -1.470409e+06   4.480817e+04
  -1.096207e+06  -6.985230e+05
   2.696496e+05  -1.005925e+06
   1.352609e+06  -6.613039e+05
   1.221652e+06   3.170912e+04
   2.041014e+05   4.844163e+05
  -5.539559e+05   3.254375e+05
  -3.124983e+05  -2.060702e+05
   5.590279e+05  -4.216350e+05
   1.039592e+06   1.250154e+05
   5.211531e+05   1.073065e+06
  -6.017297e+05   1.482891e+06
  -1.355578e+06   7.500034e+05
  -1.137846e+06  -6.842786e+05
  -2.196684e+05  -1.626072e+06
   6.269034e+05  -1.250751e+06
   8.622640e+05   5.111413e+04
   5.087321e+05   1.048282e+06
  -6.387223e+04   9.407801e+05
  -4.728280e+05   1.396389e+05
  -5.062345e+05  -3.444627e+05
  -2.339980e+05  -1.483173e+05
  -9.535219e+03   1.145755e+05
  -1.436058e+05  -1.940779e+05
  -4.454910e+05  -8.253460e+05
  -3.068304e+05  -9.862910e+05
   5.150351e+05  -4.015550e+05
   1.358216e+06   3.743943e+05
   1.273186e+06   7.149499e+05
   2.012854e+05   6.024718e+05
  -8.357046e+05   3.909177e+05
  -9.113082e+05   2.251615e+05
  -2.587993e+05   1.556449e+04
   1.555875e+05  -1.971424e+05
  -6.833790e+04  -2.375650e+05
  -3.405073e+05  -1.366850e+05
  -9.024170e+03  -1.227008e+05
   6.946285e+05  -1.857358e+05
   9.239858e+05   1.410671e+04
   2.568404e+05   5.861626e+05
  -8.185161e+05   1.010229e+06
  -1.432303e+06   6.465086e+05
  -1.146624e+06  -4.047022e+05
  -2.387161e+05  -1.268051e+06
   6.264111e+05  -1.216822e+06
   9.218951e+05  -4.382613e+05
   6.038933e+05   2.488167e+05
   8.529426e+04   3.141482e+05
  -1.442775e+05  -7.435719e+02
   4.327002e+04  -8.488777e+04
   3.244110e+05   2.943647e+05
   2.791363e+05   7.186831e+05
  -1.641124e+05   5.899237e+05
  -6.281965e+05  -1.591127e+05
  -6.218033e+05  -8.961049e+05
  -2.140086e+04  -9.050364e+05
   7.207514e+05  -1.451102e+05
   9.065369e+05   7.050182e+05
   2.737159e+05   9.592027e+05
  -6.355121e+05   5.517018e+05
  -9.548458e+05  -6.829832e+04
  -4.381703e+05  -4.717206e+05
   2.326689e+05  -5.291836e+05
   2.557386e+05  -3.202137e+05
  -3.020293e+05  -3.846534e+04
  -6.009096e+05   3.413868e+04
  -1.095472e+05  -2.551237e+05
   7.243809e+05  -6.353557e+05
   1.046854e+06  -5.739246e+05
   6.058532e+05   7.469914e+04
  -7.432511e+04   7.458947e+05
  -4.028720e+05   7.458912e+05
  -2.929062e+05   9.752440e+04
  -1.276260e+04  -4.590067e+05
   2.186927e+05  -3.488063e+05
   3.190292e+05   1.974140e+05
   2.266334e+05   5.132681e+05
  -5.564611e+04   3.152336e+05
  -3.456585e+05  -6.428247e+04
  -4.069977e+05  -1.894779e+05
  -2.197365e+05  -3.576132e+04
  -8.405598e+02   7.460009e+04
   7.868041e+04  -8.150004e+04
   8.605910e+04  -3.582330e+05
   1.746319e+05  -4.059896e+05
   3.212042e+05  -6.595615e+04
   3.156591e+05   4.130385e+05
   2.197017e+04   5.816990e+05
  -3.945299e+05   2.506653e+05
  -5.476865e+05  -2.840531e+05
  -1.983570e+05  -5.355425e+05
   4.243605e+05  -3.258095e+05
   7.450237e+05   8.260461e+04
   4.128512e+05   3.296808e+05
  -2.529394e+05   3.080629e+05
  -5.442222e+05   1.488159e+05
  -1.657732e+05   1.161034e+04
   3.853748e+05  -5.008547e+03
   3.930417e+05   1.324841e+05
  -2.125238e+05   3.088152e+05
  -7.663333e+05   2.478194e+05
