
 $NMID
 id='ANONYMOUS ', fmtdat='(2E16.6)'
 volume=1.0
 tramp=1.0
 $END
  -5.120849e+06  -1.247617e+06
  -2.756692e+06  -2.843871e+06
   5.885232e+05  -2.959038e+06
   2.378357e+06  -1.850841e+06
   1.803511e+06  -2.131618e+05
   7.130363e+04   8.379687e+05
  -1.044771e+06   4.623041e+05
  -7.666953e+05  -8.382401e+05
   3.059072e+05  -1.481027e+06
   1.018530e+06  -5.975440e+05
   7.686845e+05   8.458454e+05
  -6.289362e+04   1.198849e+06
  -6.033364e+05   1.177822e+05
  -3.443891e+05  -1.113924e+06
   4.168626e+05  -1.156419e+06
   8.876489e+05  -2.470238e+04
   5.283293e+05   1.131044e+06
  -4.190038e+05   1.287687e+06
  -1.123338e+06   4.377708e+05
  -9.668379e+05  -5.641884e+05
  -1.943881e+05  -8.826287e+05
   3.259529e+05  -4.929056e+05
   6.098513e+04  -1.263563e+05
  -5.590683e+05  -3.782078e+05
  -6.050531e+05  -9.731425e+05
   2.734683e+05  -1.104837e+06
   1.374789e+06  -4.376824e+05
   1.630007e+06   4.970768e+05
   7.229432e+05   9.295311e+05
  -5.398439e+05   6.175155e+05
  -1.006919e+06  -7.724002e+04
  -3.271079e+05  -5.994862e+05
   7.164591e+05  -5.510613e+05
   1.050848e+06   8.447067e+04
   4.390853e+05   8.152704e+05
  -3.550996e+05   9.404829e+05
  -5.136363e+05   2.879270e+05
  -6.256420e+04  -4.486578e+05
   3.130956e+05  -4.312556e+05
   1.686680e+05   2.901020e+05
  -2.639068e+05   8.037637e+05
  -4.969955e+05   4.694969e+05
  -3.456350e+05  -2.981954e+05
   1.699117e+04  -5.831577e+05
   3.062359e+05  -8.331857e+04
   2.726377e+05   5.987292e+05
  -1.809608e+05   7.035831e+05
  -7.927727e+05   1.098797e+05
  -9.891371e+05  -6.373251e+05
  -4.308321e+05  -9.117189e+05
   4.912189e+05  -5.495819e+05
   9.560450e+05   7.795043e+04
   5.836465e+05   4.404066e+05
  -1.657530e+05   3.182645e+05
  -5.394017e+05  -4.929717e+04
  -2.881616e+05  -2.572608e+05
   1.840637e+05  -1.395272e+05
   3.438753e+05   1.307085e+05
   6.879586e+04   2.761736e+05
  -2.882494e+05   1.761631e+05
  -2.855211e+05  -6.635235e+04
   1.303862e+05  -2.160866e+05
   5.044220e+05  -7.304431e+04
   3.144574e+05   3.325022e+05
  -4.142696e+05   6.740458e+05
  -1.050569e+06   5.684543e+05
  -1.021715e+06  -2.466133e+04
  -4.379649e+05  -6.956531e+05
   9.497571e+04  -9.692030e+05
   2.093236e+05  -7.769449e+05
   1.127533e+05  -4.641379e+05
   1.913981e+05  -3.346464e+05
   4.971339e+05  -3.028513e+05
   7.395953e+05  -7.157925e+04
   6.493691e+05   4.043297e+05
   2.248641e+05   7.593978e+05
  -2.925448e+05   5.896920e+05
  -5.704334e+05  -5.509693e+04
  -3.894705e+05  -6.404425e+05
   1.485832e+05  -6.542762e+05
   6.243640e+05  -1.139783e+05
   6.479187e+05   4.796516e+05
   2.464833e+05   6.712836e+05
  -1.736609e+05   4.639079e+05
  -2.862005e+05   2.017768e+05
  -1.902271e+05   1.397957e+05
  -2.378317e+05   2.076631e+05
  -5.611977e+05   1.580843e+05
  -8.566866e+05  -1.436361e+05
  -6.842722e+05  -5.820898e+05
   2.268175e+04  -8.724530e+05
   7.884247e+05  -7.690191e+05
   1.001665e+06  -2.770377e+05
   5.248727e+05   2.914274e+05
  -1.479776e+05   5.339277e+05
  -3.962939e+05   3.174361e+05
  -9.990735e+04  -7.712865e+04
   3.078498e+05  -2.305386e+05
   3.746404e+05  -2.295061e+04
   9.355883e+04   2.498281e+05
  -1.854820e+05   2.285925e+05
  -1.769981e+05  -7.738334e+04
   9.256557e+04  -2.758966e+05
   3.664456e+05  -3.269334e+04
   3.722984e+05   5.134832e+05
   1.024620e+04   8.400204e+05
  -5.345769e+05   5.697611e+05
  -8.643183e+05  -1.219475e+05
  -6.870540e+05  -6.720010e+05
  -1.301235e+05  -6.911656e+05
   3.397150e+05  -3.140928e+05
   3.782880e+05   1.241337e+04
   1.059247e+05   1.852718e+04
  -6.729485e+04  -1.675282e+05
   7.983735e+04  -2.433733e+05
   3.508515e+05  -8.283279e+04
   3.860228e+05   1.639322e+05
   8.802926e+04   2.600289e+05
  -2.489515e+05   1.215217e+05
  -2.422805e+05  -1.103325e+05
   1.539103e+05  -1.967478e+05
   5.525219e+05  -1.372838e+04
   5.066476e+05   3.204765e+05
  -1.053637e+04   5.248029e+05
  -5.463641e+05   4.021169e+05
  -6.256458e+05   3.749438e+04
  -2.333746e+05  -2.615299e+05
   2.023235e+05  -2.525760e+05
   2.757126e+05   3.265457e+03
  -1.412932e+04   2.039141e+05
  -3.309010e+05   1.190551e+05
  -3.652795e+05  -1.688886e+05
  -1.029919e+05  -3.565482e+05
   2.044439e+05  -2.516282e+05
   2.841414e+05   1.773633e+04
   9.072851e+04   1.501437e+05
  -1.433345e+05   7.622127e+03
  -1.288210e+05  -2.368431e+05
   1.680832e+05  -2.939486e+05
   4.568472e+05  -6.308627e+04
   4.160047e+05   2.764671e+05
   4.675151e+04   4.493222e+05
  -3.186857e+05   3.314022e+05
  -3.674111e+05   3.946802e+04
  -1.160541e+05  -1.836611e+05
   1.456292e+05  -1.779539e+05
   1.739219e+05   7.824147e+01
  -4.567009e+03   1.413128e+05
  -1.636079e+05   1.035254e+05
  -1.292508e+05  -3.378061e+04
   4.440239e+04  -6.582933e+04
   1.350979e+05   8.270135e+04
  -1.121278e+04   2.454369e+05
  -2.983259e+05   1.905914e+05
  -4.509054e+05  -1.137498e+05
  -2.873494e+05  -4.467875e+05
   8.809092e+04  -5.426617e+05
   3.860366e+05  -3.306183e+05
   4.159358e+05   1.794512e+04
   2.452972e+05   2.515560e+05
   8.366637e+04   2.526150e+05
   4.842863e+04   1.214398e+05
   6.831245e+04   5.486609e+04
   6.291459e+02   1.266255e+05
  -1.834021e+05   1.995176e+05
  -3.385248e+05   8.970441e+04
  -2.741131e+05  -1.854059e+05
   4.212051e+04  -3.763739e+05
   4.038594e+05  -2.541891e+05
   5.146010e+05   1.298478e+05
   2.508709e+05   4.725835e+05
  -2.110325e+05   5.037136e+05
  -5.404421e+05   2.236537e+05
  -5.344508e+05  -1.280027e+05
  -2.670429e+05  -3.081162e+05
   1.809965e+04  -2.718106e+05
   1.403972e+05  -1.686938e+05
   1.152111e+05  -1.587862e+05
   8.724570e+04  -2.346221e+05
   1.555083e+05  -2.334607e+05
   2.646355e+05  -3.527871e+04
   2.651367e+05   2.678009e+05
   8.374917e+04   4.331139e+05
  -1.707603e+05   3.079091e+05
  -2.908854e+05  -1.196062e+04
  -1.734736e+05  -2.733420e+05
   6.901033e+04  -2.984084e+05
   2.168567e+05  -1.188513e+05
   1.623507e+05   9.318392e+04
   6.528662e+03   1.943866e+05
  -6.691122e+04   1.734608e+05
   5.785816e+02   1.167227e+05
   7.887140e+04   9.519583e+04
   2.210849e+01   9.179274e+04
  -2.350368e+05   3.718393e+04
  -4.206930e+05  -9.324136e+04
  -3.411750e+05  -2.343822e+05
  -7.089845e+03  -2.877986e+05
   3.246916e+05  -2.127246e+05
   3.933047e+05  -5.961104e+04
   1.910783e+05   7.037614e+04
  -4.577542e+04   9.680331e+04
  -9.952482e+04   2.131885e+04
   1.553411e+04  -6.108989e+04
   1.183566e+05  -4.009324e+04
   9.406296e+04   8.430726e+04
   4.657247e+03   1.751712e+05
  -2.409832e+04   1.102057e+05
   3.618027e+04  -4.659680e+04
   9.820290e+04  -9.501932e+04
   6.705162e+04   5.149651e+04
  -6.618211e+04   2.314323e+05
  -2.165712e+05   2.157615e+05
  -2.608683e+05  -9.698208e+03
  -1.281342e+05  -2.195852e+05
   1.119628e+05  -2.096906e+05
   2.585880e+05  -1.565795e+04
   1.468255e+05   1.524990e+05
  -1.567151e+05   1.401102e+05
  -3.691779e+05  -2.593923e+04
  -2.622356e+05  -1.987282e+05
   8.559526e+04  -2.452697e+05
   3.533599e+05  -1.372329e+05
   3.082975e+05   3.456853e+04
   4.152057e+04   1.267517e+05
  -1.456737e+05   6.755872e+04
  -6.825380e+04  -6.077563e+04
   1.588269e+05  -8.757546e+04
   2.596096e+05   6.885836e+04
   9.318718e+04   2.915579e+05
  -2.049488e+05   3.549886e+05
  -3.685379e+05   1.441715e+05
  -2.655279e+05  -2.083940e+05
  -6.443868e+03  -4.161788e+05
   1.922011e+05  -2.988852e+05
   2.135691e+05   3.307675e+04
   1.009778e+05   2.749931e+05
  -3.630660e+04   2.345606e+05
  -1.201231e+05   2.261647e+04
  -1.221322e+05  -1.003101e+05
  -6.008629e+04  -4.332714e+04
  -3.051079e+03   2.856725e+04
  -2.127719e+04  -5.406869e+04
  -8.334704e+04  -2.207344e+05
  -5.364880e+04  -2.541784e+05
   1.339421e+05  -8.223648e+04
   3.305747e+05   1.341627e+05
   3.037509e+05   2.139772e+05
   3.284770e+04   1.555956e+05
  -2.263936e+05   7.558146e+04
  -2.362138e+05   3.233727e+04
  -5.962847e+04  -3.213731e+03
   4.719245e+04  -4.505598e+04
  -1.774811e+04  -6.078559e+04
  -8.999966e+04  -4.440189e+04
   3.366851e+03  -3.347658e+04
   1.883465e+05  -2.742898e+04
   2.323156e+05   3.432440e+04
   3.693648e+04   1.596971e+05
  -2.447841e+05   2.282950e+05
  -3.781850e+05   1.111932e+05
  -2.700702e+05  -1.448675e+05
  -1.931949e+04  -3.283470e+05
   1.943660e+05  -2.836997e+05
   2.478680e+05  -7.782945e+04
   1.474971e+05   8.416648e+04
   9.159238e+03   8.354558e+04
  -4.383978e+04  -4.830501e+03
   9.028917e+03  -2.298889e+04
   7.427569e+04   8.057676e+04
   5.015421e+04   1.880822e+05
  -6.206869e+04   1.426794e+05
  -1.568582e+05  -6.324094e+04
  -1.270197e+05  -2.510323e+05
   3.004376e+04  -2.313774e+05
   1.926073e+05  -1.032740e+04
   2.069951e+05   2.118334e+05
   3.491164e+04   2.515209e+05
  -1.804133e+05   1.152303e+05
  -2.362014e+05  -5.028692e+04
  -8.995505e+04  -1.305704e+05
   7.794423e+04  -1.206748e+05
   7.078946e+04  -6.844768e+04
  -8.079523e+04  -1.763991e+04
  -1.540229e+05  -9.918682e+03
  -1.728911e+04  -6.755528e+04
   2.013781e+05  -1.377120e+05
   2.740799e+05  -1.126202e+05
   1.420976e+05   3.677905e+04
  -4.378563e+04   1.831871e+05
  -1.212497e+05   1.698728e+05
  -7.377226e+04   8.535040e+03
   1.247361e+04  -1.195060e+05
   6.848944e+04  -7.871211e+04
   7.715600e+04   6.390389e+04
   4.030782e+04   1.367210e+05
  -2.773759e+04   7.403094e+04
  -8.589128e+04  -2.923568e+04
  -9.260830e+04  -5.820258e+04
  -5.218713e+04  -1.292779e+04
  -7.202536e+03   1.663757e+04
   1.752873e+04  -2.550618e+04
   3.752782e+04  -9.437363e+04
   6.904969e+04  -9.710763e+04
   9.099216e+04   2.419158e+02
   6.356275e+04   1.231446e+05
  -2.056303e+04   1.528033e+05
  -1.108675e+05   4.983460e+04
  -1.276598e+05  -9.367041e+04
  -3.189336e+04  -1.443588e+05
   1.160002e+05  -6.707571e+04
   1.833337e+05   4.812783e+04
   9.205259e+04   9.695974e+04
  -7.560579e+04   6.585777e+04
  -1.428985e+05   1.495025e+04
  -3.862501e+04  -5.352391e+03
   1.046709e+05   1.171098e+04
   9.981740e+04   4.988059e+04
  -6.561719e+04   7.664193e+04
  -2.075949e+05   4.210088e+04
