
 $NMID
 id='ANONYMOUS ', fmtdat='(2E16.6)'
 volume=1.0
 tramp=1.0
 $END
   2.661279e+07   5.501810e+04
   1.731562e+07   1.365401e+07
  -1.002799e+06   1.721501e+07
  -1.198537e+07   1.003298e+07
  -9.212633e+06  -1.140396e+05
  -1.217746e+04  -4.719188e+06
   5.239649e+06  -1.603007e+06
   3.350490e+06   4.400461e+06
  -1.732037e+06   6.597036e+06
  -4.916072e+06   2.665454e+06
  -4.065000e+06  -3.338339e+06
  -4.921549e+05  -5.215321e+06
   2.412596e+06  -1.198430e+06
   1.843990e+06   4.120030e+06
  -1.642978e+06   4.862318e+06
  -4.303281e+06   2.064666e+05
  -3.012916e+06  -5.163383e+06
   1.372547e+06  -6.396062e+06
   5.037366e+06  -3.072502e+06
   5.180914e+06   1.407006e+06
   2.445451e+06   3.701626e+06
  -2.029288e+05   3.246423e+06
  -4.521243e+05   1.930840e+06
   1.204567e+06   1.831689e+06
   1.915147e+06   3.108085e+06
  -5.087474e+05   3.889946e+06
  -4.690762e+06   2.424968e+06
  -6.551191e+06  -7.192184e+05
  -3.797473e+06  -3.054156e+06
   1.087156e+06  -2.796193e+06
   3.394495e+06  -5.792690e+05
   1.409730e+06   1.464658e+06
  -2.062847e+06   1.682478e+06
  -3.330366e+06  -7.257228e+04
  -1.700270e+06  -2.463959e+06
   6.584871e+05  -3.397791e+06
   1.605159e+06  -1.736604e+06
   8.949448e+05   1.044892e+06
  -2.421293e+05   1.867347e+06
  -4.712466e+05  -3.084085e+05
   5.512840e+05  -2.689310e+06
   1.805587e+06  -1.907893e+06
   1.698225e+06   1.416627e+06
  -2.246505e+05   3.151821e+06
  -2.349064e+06   9.097551e+05
  -2.326875e+06  -2.864617e+06
   4.013279e+05  -3.949184e+06
   3.677242e+06  -1.275401e+06
   4.501181e+06   2.359442e+06
   1.907574e+06   3.766907e+06
  -2.000158e+06   2.311740e+06
  -3.903251e+06  -2.932021e+05
  -2.347097e+06  -1.911804e+06
   8.817712e+05  -1.555481e+06
   2.577926e+06   7.246821e+04
   1.416085e+06   1.234851e+06
  -8.054825e+05   8.160072e+05
  -1.405017e+06  -5.065261e+05
   6.873815e+04  -1.079488e+06
   1.501499e+06  -2.320355e+05
   8.906354e+05   1.041872e+06
  -1.290115e+06   1.330576e+06
  -2.683083e+06   1.946748e+05
  -1.616273e+06  -1.688685e+06
   1.265370e+06  -3.100081e+06
   3.740883e+06  -2.858995e+06
   4.067843e+06  -6.308986e+05
   2.371335e+06   2.352156e+06
   2.703051e+05   3.978483e+06
  -7.637412e+05   3.318205e+06
  -6.998678e+05   1.648846e+06
  -6.305393e+05   8.235843e+05
  -1.305486e+06   9.700537e+05
  -2.240562e+06   6.305818e+05
  -2.337874e+06  -9.079147e+05
  -1.137196e+06  -2.382390e+06
   6.906153e+05  -2.070364e+06
   1.888231e+06   3.920002e+04
   1.532071e+06   2.135155e+06
  -2.610847e+05   2.441651e+06
  -2.229788e+06   8.211881e+05
  -2.818000e+06  -1.339298e+06
  -1.589813e+06  -2.498159e+06
   2.494199e+05  -2.215142e+06
   1.143667e+06  -1.287756e+06
   9.706921e+05  -7.604734e+05
   1.040433e+06  -8.122697e+05
   2.174346e+06  -6.765709e+05
   3.348889e+06   3.620905e+05
   2.777809e+06   2.051130e+06
   1.588829e+05   3.300123e+06
  -2.687023e+06   3.111867e+06
  -3.562554e+06   1.418106e+06
  -2.041023e+06  -7.563096e+05
   2.342105e+05  -1.930062e+06
   1.232479e+06  -1.352461e+06
   4.072317e+05   1.803577e+05
  -1.011672e+06   9.772292e+05
  -1.435361e+06   2.605976e+05
  -5.353018e+05  -9.019263e+05
   5.638505e+05  -9.111806e+05
   6.052954e+05   2.732828e+05
  -4.633199e+05   9.752311e+05
  -1.503278e+06  -1.067734e+05
  -1.341298e+06  -2.185510e+06
   1.921933e+05  -3.176583e+06
   2.156391e+06  -1.958331e+06
   3.192281e+06   5.378227e+05
   2.504569e+06   2.383309e+06
   5.606049e+05   2.459040e+06
  -1.144965e+06   1.235778e+06
  -1.379155e+06   8.567911e+04
  -4.055617e+05  -4.071291e+04
   3.031189e+05   6.064574e+05
  -2.372323e+05   9.902642e+05
  -1.358047e+06   4.611134e+05
  -1.569324e+06  -5.407919e+05
  -4.139203e+05  -1.015569e+06
   9.077975e+05  -5.283525e+05
   8.831904e+05   3.524509e+05
  -5.863674e+05   6.850358e+05
  -2.011316e+06   5.358967e+04
  -1.829067e+06  -1.110552e+06
   4.904482e+03  -1.888647e+06
   1.941454e+06  -1.571980e+06
   2.326192e+06  -2.900049e+05
   9.807571e+05   9.457856e+05
  -6.821028e+05   1.081995e+06
  -1.101290e+06   1.199639e+05
  -7.041804e+04  -7.881490e+05
   1.206085e+06  -5.691265e+05
   1.427900e+06   5.545929e+05
   4.401040e+05   1.339204e+06
  -7.633610e+05   9.700729e+05
  -1.085734e+06  -5.494488e+04
  -3.528950e+05  -5.773646e+05
   5.567806e+05  -7.922774e+04
   5.619091e+05   8.355809e+05
  -5.164813e+05   1.136699e+06
  -1.663101e+06   3.828540e+05
  -1.637496e+06  -8.944291e+05
  -3.116031e+05  -1.676295e+06
   1.120501e+06  -1.347260e+06
   1.393073e+06  -2.382187e+05
   4.818331e+05   6.790831e+05
  -5.044244e+05   7.060728e+05
  -6.149630e+05   5.323027e+04
   2.011658e+04  -4.655739e+05
   5.417715e+05  -3.443015e+05
   3.732958e+05   1.036476e+05
  -2.322980e+05   1.755532e+05
  -5.127192e+05  -3.622723e+05
   3.072480e+04  -9.467044e+05
   1.086913e+06  -7.782289e+05
   1.714322e+06   3.129364e+05
   1.198243e+06   1.590614e+06
  -1.836475e+05   2.037394e+06
  -1.360861e+06   1.294161e+06
  -1.527989e+06  -8.282235e+03
  -9.005953e+05  -8.629574e+05
  -3.190098e+05  -8.301262e+05
  -2.413232e+05  -3.583476e+05
  -3.383691e+05  -1.891442e+05
  -5.123269e+04  -5.125001e+05
   6.658110e+05  -7.806443e+05
   1.236612e+06  -3.687601e+05
   1.005258e+06   6.328448e+05
  -1.196933e+05   1.364583e+06
  -1.445426e+06   1.001345e+06
  -1.927869e+06  -3.691242e+05
  -1.032111e+06  -1.711742e+06
   6.954349e+05  -1.953102e+06
   2.002703e+06  -9.591175e+05
   2.023253e+06   3.939660e+05
   1.006436e+06   1.106136e+06
  -5.802222e+04   9.678591e+05
  -4.537143e+05   5.888875e+05
  -2.992167e+05   6.000545e+05
  -2.001813e+05   9.371160e+05
  -5.155163e+05   9.591948e+05
  -9.982944e+05   2.278164e+05
  -1.072419e+06  -9.133159e+05
  -4.387611e+05  -1.582749e+06
   5.407002e+05  -1.191733e+06
   1.083247e+06  -2.603655e+04
   7.152020e+05   9.976239e+05
  -2.127394e+05   1.148408e+06
  -8.367417e+05   4.715579e+05
  -6.597893e+05  -3.731156e+05
  -4.111376e+04  -7.793602e+05
   2.663667e+05  -6.763846e+05
  -9.099770e+02  -4.194803e+05
  -3.245016e+05  -3.188730e+05
  -2.653068e+04  -3.344243e+05
   8.910934e+05  -1.972465e+05
   1.624067e+06   2.400169e+05
   1.340043e+06   8.007036e+05
   7.832920e+04   1.108415e+06
  -1.189471e+06   9.085697e+05
  -1.474875e+06   3.095119e+05
  -7.350946e+05  -2.640752e+05
   1.574283e+05  -4.035267e+05
   3.860638e+05  -8.847019e+04
  -1.936344e+04   2.600575e+05
  -4.159457e+05   1.855015e+05
  -3.808195e+05  -2.886277e+05
  -9.773977e+04  -6.308358e+05
   2.478095e+04  -4.039236e+05
  -1.283707e+05   1.533582e+05
  -3.190001e+05   3.339630e+05
  -2.495220e+05  -1.819978e+05
   1.754478e+05  -8.557913e+05
   7.454884e+05  -8.625289e+05
   1.003865e+06  -7.092415e+04
   5.772536e+05   7.653454e+05
  -3.480433e+05   8.440233e+05
  -9.719103e+05   1.719627e+05
  -5.901333e+05  -5.148184e+05
   5.594240e+05  -5.599447e+05
   1.372831e+06   2.541857e+04
   9.809390e+05   6.974900e+05
  -3.027225e+05   9.160617e+05
  -1.285351e+06   5.470124e+05
  -1.129259e+06  -8.549531e+04
  -1.659423e+05  -4.571172e+05
   5.320557e+05  -2.749151e+05
   2.860787e+05   2.125967e+05
  -5.402399e+05   3.803850e+05
  -9.761185e+05  -1.535636e+05
  -4.565130e+05  -1.030412e+06
   6.174366e+05  -1.377335e+06
   1.301999e+06  -6.576950e+05
   1.041692e+06   6.857812e+05
   1.407581e+05   1.532607e+06
  -6.369448e+05   1.140421e+06
  -8.001936e+05  -9.041695e+04
  -4.245299e+05  -1.001144e+06
   1.063218e+05  -8.684098e+05
   4.498721e+05  -1.051793e+05
   4.538387e+05   3.386664e+05
   2.065583e+05   1.419995e+05
   1.546940e+04  -1.028435e+05
   1.349621e+05   1.997631e+05
   3.860290e+05   7.972756e+05
   2.375217e+05   9.304816e+05
  -5.098550e+05   3.470010e+05
  -1.256228e+06  -4.067686e+05
  -1.154520e+06  -7.186886e+05
  -1.612895e+05  -5.746452e+05
   7.924390e+05  -3.369078e+05
   8.592165e+05  -1.715758e+05
   2.474944e+05   4.712716e+03
  -1.514409e+05   1.809479e+05
   4.727924e+04   2.157316e+05
   3.065581e+05   1.314023e+05
   7.708389e+03   1.170188e+05
  -6.506214e+05   1.553786e+05
  -8.695493e+05  -4.883090e+04
  -2.310760e+05  -5.703949e+05
   8.032881e+05  -9.259865e+05
   1.381898e+06  -5.520569e+05
   1.075566e+06   4.277059e+05
   1.772556e+05   1.200526e+06
  -6.423474e+05   1.118718e+06
  -8.873041e+05   3.806459e+05
  -5.583564e+05  -2.517889e+05
  -7.156947e+04  -3.009384e+05
   1.298089e+05  -4.058737e+03
  -4.374352e+04   6.932141e+04
  -2.861960e+05  -2.902020e+05
  -2.286023e+05  -6.840706e+05
   1.772209e+05  -5.504877e+05
   5.850197e+05   1.670998e+05
   5.570257e+05   8.631904e+05
  -6.134499e+03   8.576395e+05
  -6.817434e+05   1.197502e+05
  -8.307157e+05  -6.915623e+05
  -2.244786e+05  -9.158133e+05
   6.213352e+05  -5.005653e+05
   9.003592e+05   1.023965e+05
   3.945903e+05   4.703074e+05
  -2.451939e+05   4.961453e+05
  -2.622281e+05   2.883608e+05
   2.751087e+05   4.034795e+04
   5.641966e+05  -1.044978e+04
   9.475821e+04   2.473360e+05
  -7.053832e+05   5.662133e+05
  -1.010488e+06   4.861348e+05
  -5.711885e+05  -1.061473e+05
   1.009581e+05  -7.015009e+05
   4.180988e+05  -6.839276e+05
   2.911659e+05  -8.162382e+04
   8.061715e+01   4.304414e+05
  -2.202639e+05   3.245144e+05
  -2.953115e+05  -1.901283e+05
  -1.936849e+05  -4.915969e+05
   6.653024e+04  -3.022454e+05
   3.242758e+05   7.095251e+04
   3.746421e+05   2.013217e+05
   2.024996e+05   4.743022e+04
   2.983099e+03  -7.835695e+04
  -7.065864e+04   6.041979e+04
  -8.150294e+04   3.336516e+05
  -1.691098e+05   3.912592e+05
  -3.068458e+05   6.627293e+04
  -2.955495e+05  -3.966015e+05
  -1.224666e+04  -5.534105e+05
   3.786426e+05  -2.258242e+05
   5.113555e+05   2.861433e+05
   1.707978e+05   5.099648e+05
  -4.147443e+05   2.891463e+05
  -7.033593e+05  -1.061463e+05
  -3.772715e+05  -3.272554e+05
   2.530331e+05  -2.854219e+05
   5.232534e+05  -1.244517e+05
   1.632086e+05  -2.369503e+03
  -3.567680e+05   3.912051e+02
  -3.651622e+05  -1.293178e+05
   2.019704e+05  -2.800190e+05
   7.181748e+05  -2.087909e+05
