
 $NMID
 id='ANONYMOUS ', fmtdat='(2E16.6)'
 volume=1.0
 tramp=1.0
 $END
  -8.594412e+05  -4.357209e+05
  -1.273746e+05  -7.409533e+05
   4.329221e+05  -4.181590e+05
   3.896702e+05   3.151542e+04
   6.125732e+04   1.594587e+05
  -8.979164e+04   2.800053e+04
  -2.070948e+04  -7.748842e+04
   5.557532e+04  -6.626789e+04
   6.537901e+04  -1.856728e+04
   7.367903e+04   3.183663e+04
   7.467409e+04   9.414757e+04
   1.342290e+04   1.139293e+05
  -6.247803e+04   4.011744e+04
  -5.172056e+04  -5.472987e+04
   3.253750e+04  -4.977491e+04
   7.303902e+04   5.755712e+04
   8.594523e+03   1.533783e+05
  -1.088624e+05   1.481583e+05
  -1.926194e+05   4.445713e+04
  -1.824823e+05  -9.769782e+04
  -6.687208e+04  -1.923887e+05
   7.963186e+04  -1.660149e+05
   1.240686e+05  -4.112650e+04
   2.519451e+04   5.046548e+04
  -8.302135e+04   1.268837e+04
  -4.815486e+04  -8.678093e+04
   9.506437e+04  -1.068217e+05
   1.748837e+05  -1.875822e+04
   1.123797e+05   7.973887e+04
  -7.083104e+03   1.084520e+05
  -8.004628e+04   7.136727e+04
  -8.675584e+04  -7.129015e+02
  -4.053508e+04  -7.412670e+04
   4.474103e+04  -8.542680e+04
   1.061779e+05   2.132430e+03
   6.377827e+04   1.043457e+05
  -4.993450e+04   8.787086e+04
  -9.387213e+04  -3.641533e+04
  -1.193144e+04  -1.043386e+05
   7.551594e+04  -3.067175e+04
   5.117981e+04   6.466986e+04
  -2.164895e+04   4.371630e+04
  -8.602084e+03  -3.884260e+04
   7.742641e+04  -2.995515e+04
   9.764063e+04   8.114236e+04
   1.246034e+03   1.508891e+05
  -1.081558e+05   9.326785e+04
  -1.287887e+05  -1.818313e+04
  -7.603860e+04  -7.521883e+04
  -1.579505e+04  -6.173302e+04
   2.515959e+04  -2.443848e+04
   4.246664e+04   3.898828e+03
   2.331163e+04   1.151586e+04
  -1.921659e+04  -5.498983e+03
  -3.549408e+04  -2.731607e+04
  -6.780448e+03  -2.275531e+04
   2.201307e+04  -1.502663e+01
   1.485889e+04  -1.161464e+03
   3.027390e+03  -2.895384e+04
   2.749129e+04  -3.271349e+04
   6.625903e+04   8.820450e+03
   7.016853e+04   4.923015e+04
   3.716207e+04   5.413069e+04
  -1.808947e+03   5.821226e+04
  -4.182396e+04   9.081201e+04
  -9.077946e+04   1.011353e+05
  -1.187053e+05   3.125129e+04
  -8.602313e+04  -7.277419e+04
  -1.764078e+04  -1.067245e+05
   1.396142e+04  -5.407171e+04
  -1.196965e+04  -5.526082e+03
  -3.688279e+04  -2.526197e+04
  -9.599385e+03  -7.098931e+04
   4.808233e+04  -7.124325e+04
   8.255885e+04  -2.136860e+04
   7.272704e+04   3.147388e+04
   3.075608e+04   5.310607e+04
  -2.164100e+04   3.728434e+04
  -5.091610e+04  -7.159802e+03
  -2.307856e+04  -4.857648e+04
   4.765320e+04  -4.165895e+04
   9.023230e+04   1.918429e+04
   5.494457e+04   7.716834e+04
  -1.981478e+04   7.695831e+04
  -5.640214e+04   3.271467e+04
  -3.760679e+04   9.221368e+02
  -1.614456e+04   3.571461e+03
  -3.168302e+04   1.370922e+04
  -6.167935e+04   4.505901e+03
  -6.213873e+04  -2.370587e+04
  -2.335984e+04  -5.803095e+04
   2.814801e+04  -8.024358e+04
   6.013154e+04  -6.528145e+04
   5.586878e+04  -8.629199e+03
   2.337510e+04   4.676488e+04
  -7.202901e+03   4.860040e+04
  -9.594435e+03   3.931273e+03
   9.799641e+03  -2.689789e+04
   2.231334e+04  -1.177913e+04
   1.600490e+04   1.669395e+04
   5.234592e+03   1.984779e+04
   1.086969e+03   7.352627e+03
  -2.471615e+03   7.435894e+03
  -6.865937e+03   1.712992e+04
  -1.197024e+03   1.682070e+04
   1.064326e+04   1.057158e+04
   2.840566e+03   1.443092e+04
  -3.134984e+04   1.920515e+04
  -5.568263e+04   2.851019e+03
  -3.619368e+04  -2.650126e+04
   6.907482e+03  -3.645020e+04
   2.483307e+04  -1.971014e+04
   7.843297e+03  -4.092566e+03
  -7.235349e+03  -7.720328e+03
   4.273654e+03  -1.518824e+04
   2.322845e+04  -8.718658e+03
   2.233559e+04   4.261117e+03
   4.541381e+03   9.002216e+03
  -8.931019e+03   6.430085e+03
  -7.877656e+03   2.811801e+03
   4.435765e+03  -4.041986e+03
   2.126149e+04  -1.177101e+04
   3.031464e+04  -4.979399e+03
   1.693286e+04   2.024654e+04
  -1.448250e+04   3.828054e+04
  -3.442961e+04   2.384025e+04
  -2.118042e+04  -9.183038e+03
   8.848640e+03  -2.287327e+04
   2.063941e+04  -5.629350e+03
   4.296653e+03   1.584457e+04
  -1.775540e+04   1.594447e+04
  -2.329714e+04  -9.646054e+01
  -1.264467e+04  -1.183495e+04
   8.787766e+02  -1.102496e+04
   6.640290e+03  -4.150506e+03
   9.409078e+02  -1.892607e+02
  -1.058497e+04  -4.750983e+03
  -1.241379e+04  -1.723203e+04
   5.973774e+03  -2.662538e+04
   3.165384e+04  -1.860674e+04
   3.783706e+04   6.150931e+03
   1.660439e+04   2.805274e+04
  -1.020184e+04   2.961344e+04
  -1.864783e+04   1.405103e+04
  -9.307520e+03  -2.542174e+03
   1.331097e+03  -9.956711e+03
   4.396810e+03  -8.161149e+03
   2.812315e+03  -7.441020e+02
   5.107522e+02   6.977352e+03
  -6.404718e+02   8.892283e+03
   1.718693e+03   5.787898e+03
   5.506702e+03   7.091896e+03
   1.074624e+03   1.628161e+04
  -1.628763e+04   2.032994e+04
  -3.405802e+04   5.171253e+03
  -3.399730e+04  -2.182294e+04
  -1.470258e+04  -3.766454e+04
   7.667023e+03  -3.168674e+04
   2.023450e+04  -1.554970e+04
   2.409667e+04  -4.163427e+03
   2.412897e+04   9.841607e+02
   2.019797e+04   5.634765e+03
   1.194508e+04   1.134911e+04
   2.273634e+03   1.648519e+04
  -7.896522e+03   1.962097e+04
  -1.915909e+04   1.608671e+04
  -2.439421e+04   2.451429e+02
  -1.153066e+04  -2.133273e+04
   1.683005e+04  -2.823038e+04
   3.672148e+04  -8.787514e+03
   2.726061e+04   2.137907e+04
  -3.523735e+03   3.511414e+04
  -2.799597e+04   2.493631e+04
  -3.057865e+04   7.208963e+03
  -1.965069e+04  -2.887481e+03
  -1.026477e+04  -7.387483e+03
  -7.060583e+03  -1.443681e+04
  -5.929682e+03  -2.346870e+04
  -2.206755e+03  -2.769242e+04
   6.841474e+03  -2.326845e+04
   1.996378e+04  -1.019766e+04
   2.836703e+04   9.000699e+03
   2.130723e+04   2.551784e+04
   4.434123e+02   2.620726e+04
  -1.705030e+04   8.032004e+03
  -1.602123e+04  -1.330562e+04
  -8.360597e+02  -1.808830e+04
   1.033860e+04  -4.816705e+03
   7.028447e+03   9.754028e+03
  -3.059932e+03   1.213665e+04
  -5.236973e+03   5.679758e+03
   4.167932e+03   1.430452e+03
   1.279517e+04   3.444625e+03
   5.447614e+03   7.374857e+03
  -1.721388e+04   8.040594e+03
  -3.515368e+04   3.152592e+03
  -2.863239e+04  -6.997003e+03
  -1.433025e+03  -1.802921e+04
   2.157270e+04  -2.149052e+04
   2.210339e+04  -1.237435e+04
   6.970214e+03   2.570026e+03
  -4.894087e+03   9.082743e+03
  -5.668775e+03   9.970940e+02
  -8.189619e+02  -1.123691e+04
   4.934133e+03  -1.166069e+04
   1.122543e+04   2.045665e+03
   1.400688e+04   1.480197e+04
   7.729661e+03   1.191546e+04
  -2.310221e+03  -2.320704e+03
  -2.949787e+03  -8.840336e+03
   6.115494e+03   2.843540e+03
   7.228960e+03   2.066586e+04
  -9.924858e+03   2.349879e+04
  -2.829566e+04   5.888834e+03
  -2.289372e+04  -1.608966e+04
   4.503924e+03  -2.337481e+04
   2.510325e+04  -1.282907e+04
   1.834394e+04   3.739827e+03
  -5.446953e+03   1.359406e+04
  -2.134337e+04   1.187334e+04
  -1.781306e+04   9.685445e+02
  -2.473051e+03  -1.183233e+04
   1.112442e+04  -1.685336e+04
   1.418624e+04  -9.295903e+03
   5.867968e+03   3.349125e+03
  -5.398334e+03   6.403561e+03
  -6.320879e+03  -4.817966e+03
   7.644183e+03  -1.596301e+04
   2.374763e+04  -8.084476e+03
   2.363681e+04   1.816956e+04
   4.065846e+03   3.861529e+04
  -1.919642e+04   3.044538e+04
  -2.831928e+04  -1.143101e+03
  -1.939524e+04  -2.688786e+04
  -1.823480e+03  -2.506241e+04
   1.181147e+04  -3.805546e+03
   1.353622e+04   1.188313e+04
   4.027385e+03   1.042787e+04
  -7.097858e+03   2.626198e+03
  -9.190378e+03   1.361415e+03
  -2.613615e+03   3.673967e+03
   8.245500e+02  -4.571316e+02
  -6.344891e+03  -9.799928e+03
  -1.505862e+04  -1.369364e+04
  -9.964905e+03  -9.415680e+03
   9.617948e+03  -5.431064e+03
   2.638389e+04  -5.528152e+03
   2.457338e+04  -1.880702e+03
   7.328699e+03   9.687525e+03
  -8.640464e+03   1.808335e+04
  -1.183571e+04   1.154496e+04
  -5.455606e+03  -2.622229e+03
  -1.857104e+02  -6.408372e+03
  -1.637585e+03   2.427565e+03
  -5.383650e+03   6.602748e+03
  -2.746022e+03  -4.110073e+03
   8.510049e+03  -1.554303e+04
   1.897011e+04  -7.893210e+03
   1.524936e+04   1.595298e+04
  -4.940579e+03   3.224407e+04
  -2.712668e+04   2.431982e+04
  -3.282153e+04  -6.213760e+02
  -1.787487e+04  -2.260559e+04
   4.273804e+03  -2.844566e+04
   1.704190e+04  -1.873159e+04
   1.523867e+04  -3.060881e+03
   5.679540e+03   7.426430e+03
  -1.724110e+03   7.525673e+03
  -1.376394e+03   2.426969e+03
   5.040355e+03   2.242761e+03
   8.982942e+03   9.277274e+03
   1.599656e+03   1.375930e+04
  -1.488581e+04   5.762903e+03
  -2.434889e+04  -1.102008e+04
  -1.248292e+04  -2.166199e+04
   1.352132e+04  -1.564386e+04
   2.831890e+04   2.696404e+03
   1.618509e+04   1.866916e+04
  -9.653675e+03   1.989752e+04
  -2.209859e+04   6.028122e+03
  -1.180472e+04  -1.075848e+04
   4.353411e+03  -1.564823e+04
   6.754139e+03  -5.326557e+03
  -3.751327e+03   7.583482e+03
  -1.089314e+04   7.554699e+03
  -5.029040e+03  -6.020380e+03
   7.513429e+03  -1.768476e+04
   1.505154e+04  -1.367302e+04
   1.289478e+04   2.871124e+03
   4.035824e+03   1.646547e+04
  -5.986256e+03   1.588125e+04
  -1.141998e+04   3.524391e+03
  -8.027948e+03  -9.028026e+03
   2.442991e+03  -1.151435e+04
   1.106823e+04  -2.822656e+03
   9.543938e+03   8.179940e+03
  -4.393629e+02   1.061897e+04
  -8.695088e+03   3.233251e+03
  -8.151695e+03  -3.583900e+03
  -2.425933e+03  -8.866289e+02
  -3.652546e+02   5.920098e+03
  -4.737234e+03   3.512542e+03
  -8.609645e+03  -9.998077e+03
  -3.531697e+03  -1.983799e+04
   9.456237e+03  -1.277650e+04
   1.848349e+04   5.307869e+03
   1.249225e+04   1.643866e+04
  -5.236734e+03   1.188206e+04
  -1.777537e+04  -5.179496e+02
  -1.178489e+04  -8.936565e+03
   6.895106e+03  -9.545900e+03
   1.868410e+04  -4.558299e+03
   1.193374e+04   3.552331e+03
  -4.610574e+03   1.072335e+04
  -1.302233e+04   1.008090e+04
  -6.362514e+03  -2.099534e+02
   5.978683e+03  -1.004440e+04
   1.080187e+04  -6.561950e+03
   4.240011e+03   8.327986e+03
  -7.153241e+03   1.679598e+04
