
 $NMID
 id='ANONYMOUS ', fmtdat='(2E16.6)'
 volume=1.0
 tramp=1.0
 $END
  -3.834486e+07  -1.325463e+06
  -2.329669e+07  -2.227492e+07
   3.946517e+06  -2.514363e+07
   1.827442e+07  -1.180644e+07
   1.218015e+07   2.609607e+06
  -1.214881e+06   6.518917e+06
  -7.128821e+06   6.750231e+05
  -3.284069e+06  -6.536680e+06
   3.476723e+06  -7.944357e+06
   6.892019e+06  -2.506203e+06
   5.224965e+06   4.701458e+06
   4.492026e+05   6.786636e+06
  -3.197362e+06   1.702623e+06
  -2.149682e+06  -4.988507e+06
   2.598348e+06  -5.772591e+06
   5.788830e+06   4.232608e+05
   3.517592e+06   7.316235e+06
  -2.511989e+06   8.595322e+06
  -7.220917e+06   4.015906e+06
  -7.372520e+06  -1.987804e+06
  -3.799091e+06  -5.379269e+06
   1.456916e+05  -5.241069e+06
   1.390972e+06  -3.317929e+06
  -3.251157e+05  -2.229205e+06
  -1.813327e+06  -3.143291e+06
   4.125046e+05  -4.368435e+06
   5.469023e+06  -3.153864e+06
   8.165462e+06   6.276889e+05
   5.079405e+06   3.841602e+06
  -8.953931e+05   3.777079e+06
  -3.888686e+06   1.170217e+06
  -1.880968e+06  -1.210130e+06
   1.837194e+06  -1.613403e+06
   3.350071e+06  -4.927983e+04
   1.994350e+06   2.439085e+06
  -3.923505e+05   3.916915e+06
  -1.911408e+06   2.519563e+06
  -1.701090e+06  -9.344769e+05
  -2.515657e+05  -2.635748e+06
   6.581607e+05  -3.280777e+05
  -3.822044e+05   2.894778e+06
  -2.234410e+06   2.165054e+06
  -2.024058e+06  -2.154959e+06
   1.058573e+06  -4.319533e+06
   4.011278e+06  -8.727136e+05
   3.254510e+06   4.507254e+06
  -1.096041e+06   5.696962e+06
  -5.243446e+06   1.584169e+06
  -5.597801e+06  -3.387131e+06
  -1.944158e+06  -4.873553e+06
   2.709638e+06  -2.586583e+06
   4.671315e+06   8.153567e+05
   2.526566e+06   2.636836e+06
  -1.487395e+06   1.851866e+06
  -3.409303e+06  -4.411011e+05
  -1.659148e+06  -1.855434e+06
   1.195139e+06  -1.028266e+06
   1.624667e+06   7.542805e+05
  -4.777896e+05   1.107243e+06
  -1.907770e+06  -4.065137e+05
  -4.408217e+05  -1.862163e+06
   2.480012e+06  -1.531754e+06
   3.718330e+06   3.787042e+05
   1.901610e+06   2.607311e+06
  -1.673660e+06   4.031362e+06
  -4.610034e+06   3.641201e+06
  -5.164035e+06   8.980173e+05
  -3.215111e+06  -2.936328e+06
  -3.667882e+05  -5.068891e+06
   1.281291e+06  -4.052160e+06
   1.120857e+06  -1.643224e+06
   5.437928e+05  -5.744838e+05
   1.049138e+06  -1.073915e+06
   2.311304e+06  -1.016420e+06
   2.726868e+06   7.081788e+05
   1.485626e+06   2.529371e+06
  -5.859731e+05   2.305311e+06
  -1.981705e+06   3.148812e+02
  -1.688391e+06  -2.368992e+06
   2.697022e+05  -2.840757e+06
   2.656558e+06  -1.099840e+06
   3.583922e+06   1.527506e+06
   2.167113e+06   3.208556e+06
  -3.040426e+05   3.054710e+06
  -1.667327e+06   1.804655e+06
  -1.480863e+06   9.021419e+05
  -1.403451e+06   8.133480e+05
  -2.640452e+06   6.190504e+05
  -3.978336e+06  -6.182082e+05
  -3.215705e+06  -2.556789e+06
  -7.436435e+04  -3.892911e+06
   3.206894e+06  -3.600142e+06
   4.160853e+06  -1.687138e+06
   2.430400e+06   7.883770e+05
  -1.492837e+05   2.227736e+06
  -1.360201e+06   1.646667e+06
  -4.968353e+05  -1.663510e+05
   1.167528e+06  -1.155953e+06
   1.736889e+06  -2.874885e+05
   6.829473e+05   1.108825e+06
  -6.315918e+05   1.056039e+06
  -6.031237e+05  -3.461528e+05
   7.125713e+05  -9.632051e+05
   1.734856e+06   5.262231e+05
   1.181388e+06   2.824346e+06
  -7.227811e+05   3.533371e+06
  -2.703901e+06   1.821914e+06
  -3.517799e+06  -9.484249e+05
  -2.624434e+06  -2.792356e+06
  -5.255997e+05  -2.765199e+06
   1.324073e+06  -1.404840e+06
   1.586843e+06  -1.036055e+05
   4.731851e+05   5.764489e+04
  -3.341839e+05  -7.220122e+05
   3.475854e+05  -1.191826e+06
   1.682472e+06  -5.012608e+05
   1.854741e+06   7.517676e+05
   4.142752e+05   1.254098e+06
  -1.096385e+06   5.686457e+05
  -9.639394e+05  -4.407808e+05
   7.404818e+05  -6.820374e+05
   2.260215e+06   1.095199e+05
   1.955538e+06   1.340188e+06
  -1.276942e+05   2.099291e+06
  -2.291786e+06   1.703957e+06
  -2.709874e+06   2.505524e+05
  -1.126116e+06  -1.171242e+06
   8.613007e+05  -1.304228e+06
   1.363463e+06  -1.183610e+05
   9.444783e+04   9.660249e+05
  -1.444211e+06   6.455133e+05
  -1.646930e+06  -7.228331e+05
  -4.133889e+05  -1.582186e+06
   9.680048e+05  -1.044452e+06
   1.242578e+06   1.720854e+05
   3.357348e+05   7.065370e+05
  -6.911719e+05   6.075199e+04
  -6.505347e+05  -1.006898e+06
   6.203085e+05  -1.330767e+06
   1.954285e+06  -4.270936e+05
   1.906917e+06   1.081374e+06
   3.186378e+05   1.982531e+06
  -1.374319e+06   1.545079e+06
  -1.645678e+06   2.132271e+05
  -5.167741e+05  -8.201717e+05
   6.234353e+05  -7.932624e+05
   6.845347e+05  -5.188427e+04
  -6.179568e+04   4.752769e+05
  -5.840800e+05   3.239360e+05
  -3.281627e+05  -1.036843e+05
   3.229879e+05  -1.006011e+05
   5.495516e+05   5.106779e+05
  -1.184335e+05   1.114261e+06
  -1.312235e+06   8.620883e+05
  -1.995722e+06  -4.250894e+05
  -1.360263e+06  -1.898294e+06
   2.681816e+05  -2.361152e+06
   1.611766e+06  -1.425215e+06
   1.730295e+06   8.582611e+04
   9.566199e+05   9.794437e+05
   3.363383e+05   8.626838e+05
   3.374476e+05   3.606781e+05
   4.583637e+05   2.633503e+05
   5.118110e+04   6.476657e+05
  -8.215159e+05   8.773500e+05
  -1.436194e+06   3.578995e+05
  -1.103505e+06  -7.490274e+05
   2.073113e+05  -1.525794e+06
   1.704156e+06  -1.084876e+06
   2.213435e+06   4.947406e+05
   1.119899e+06   2.034951e+06
  -9.216723e+05   2.258899e+06
  -2.401941e+06   1.019653e+06
  -2.316410e+06  -5.735739e+05
  -1.059714e+06  -1.313646e+06
   1.331576e+05  -1.052180e+06
   4.891831e+05  -6.136008e+05
   2.744657e+05  -7.089288e+05
   2.190108e+05  -1.149282e+06
   6.473035e+05  -1.146891e+06
   1.201696e+06  -2.504307e+05
   1.241517e+06   1.089548e+06
   4.780414e+05   1.855239e+06
  -6.538233e+05   1.376764e+06
  -1.257218e+06  -9.867341e+03
  -7.886321e+05  -1.208892e+06
   3.240215e+05  -1.334483e+06
   1.035434e+06  -4.698727e+05
   7.582542e+05   5.349164e+05
  -3.356049e+04   9.505089e+05
  -3.990570e+05   7.653726e+05
  -3.635809e+04   4.578886e+05
   3.850344e+05   3.661286e+05
   3.147976e+04   3.851935e+05
  -1.068942e+06   1.946139e+05
  -1.921951e+06  -3.415181e+05
  -1.540423e+06  -9.946240e+05
  -1.491978e+04  -1.324526e+06
   1.465177e+06  -1.038471e+06
   1.744686e+06  -2.878894e+05
   8.286494e+05   3.848635e+05
  -2.204132e+05   4.919226e+05
  -4.662821e+05   6.737154e+04
   1.464631e+04  -3.399638e+05
   4.719883e+05  -2.183168e+05
   4.442971e+05   3.457454e+05
   1.432071e+05   7.299235e+05
   2.383616e+03   4.714432e+05
   1.458239e+05  -1.458498e+05
   3.432984e+05  -3.469936e+05
   2.773379e+05   2.228694e+05
  -2.033033e+05   9.806594e+05
  -8.941812e+05   9.952215e+05
  -1.226766e+06   8.188171e+04
  -7.058887e+05  -9.100884e+05
   4.305606e+05  -1.016895e+06
   1.171437e+06  -2.163425e+05
   6.838324e+05   6.011674e+05
  -6.768109e+05   6.286313e+05
  -1.577239e+06  -8.744015e+04
  -1.065167e+06  -8.437542e+05
   4.158531e+05  -1.018482e+06
   1.492999e+06  -5.430215e+05
   1.269493e+06   1.572422e+05
   1.596461e+05   5.236781e+05
  -6.296764e+05   2.848232e+05
  -3.408217e+05  -2.700050e+05
   6.195980e+05  -4.536791e+05
   1.140753e+06   1.688836e+05
   5.500193e+05   1.197129e+06
  -7.039193e+05   1.611436e+06
  -1.510126e+06   7.692145e+05
  -1.200735e+06  -8.037798e+05
  -1.373161e+05  -1.774969e+06
   7.622620e+05  -1.287391e+06
   9.164076e+05   1.499378e+05
   4.407852e+05   1.173192e+06
  -1.781095e+05   9.810576e+05
  -5.342561e+05   9.489131e+04
  -4.927145e+05  -3.943577e+05
  -2.074908e+05  -1.567624e+05
  -3.088568e+04   1.085098e+05
  -1.934062e+05  -2.600460e+05
  -4.458642e+05  -9.448248e+05
  -2.191987e+05  -1.074966e+06
   6.407580e+05  -3.805179e+05
   1.443284e+06   4.980842e+05
   1.289765e+06   8.562538e+05
   1.696121e+05   6.775993e+05
  -8.974425e+05   3.806795e+05
  -9.887036e+05   1.702127e+05
  -3.109941e+05  -3.147049e+04
   1.680875e+05  -2.114039e+05
  -1.642674e+04  -2.301017e+05
  -3.173087e+05  -1.344439e+05
  -2.182822e+04  -1.351677e+05
   7.194640e+05  -1.868989e+05
   1.016027e+06   6.124435e+04
   3.141963e+05   6.789219e+05
  -9.160280e+05   1.089258e+06
  -1.645207e+06   6.441238e+05
  -1.293116e+06  -4.982591e+05
  -2.016899e+05  -1.394069e+06
   7.773786e+05  -1.302335e+06
   1.041631e+06  -4.539320e+05
   6.417143e+05   2.803370e+05
   9.468874e+04   3.533614e+05
  -1.201691e+05   2.795346e+04
   6.203021e+04  -5.306856e+04
   3.093583e+05   3.522897e+05
   2.393352e+05   7.984496e+05
  -2.080088e+05   6.464273e+05
  -6.728458e+05  -1.774724e+05
  -6.593676e+05  -9.899278e+05
  -2.068152e+04  -1.005508e+06
   7.758177e+05  -1.666300e+05
   9.712711e+05   7.849215e+05
   2.716493e+05   1.073103e+06
  -7.267683e+05   6.009828e+05
  -1.065272e+06  -1.232925e+05
  -4.710101e+05  -5.796918e+05
   2.979089e+05  -6.066693e+05
   3.398461e+05  -3.370733e+05
  -2.879635e+05  -3.553484e+04
  -6.485805e+05   1.000800e+04
  -1.175331e+05  -2.965763e+05
   8.289035e+05  -6.440062e+05
   1.209255e+06  -5.237273e+05
   6.938621e+05   1.605369e+05
  -1.258018e+05   8.283823e+05
  -5.264272e+05   8.010818e+05
  -3.748515e+05   1.119461e+05
  -1.261003e+04  -4.888711e+05
   2.561388e+05  -3.930452e+05
   3.416371e+05   1.959005e+05
   2.234822e+05   5.741209e+05
  -7.576555e+04   3.785612e+05
  -3.788524e+05  -7.407913e+04
  -4.420733e+05  -2.609281e+05
  -2.338953e+05  -7.651044e+04
   8.557746e+03   1.155942e+05
   7.969003e+04  -2.124577e+04
   5.658964e+04  -3.715060e+05
   1.461034e+05  -4.905218e+05
   3.436084e+05  -1.288817e+05
   3.812651e+05   4.332108e+05
   6.037714e+04   6.438650e+05
  -4.296576e+05   2.740805e+05
  -6.132415e+05  -3.212384e+05
  -2.087576e+05  -5.849782e+05
   4.958118e+05  -3.351655e+05
   8.363903e+05   1.202175e+05
   4.441808e+05   3.856210e+05
  -2.998399e+05   3.516840e+05
  -6.209641e+05   1.654660e+05
  -2.139613e+05   3.763816e+03
   3.842848e+05  -2.287380e+04
   4.132208e+05   1.203790e+05
  -2.099815e+05   3.055905e+05
  -7.944185e+05   2.391129e+05
