
 $NMID
 id='ANONYMOUS ', fmtdat='(2E16.6)'
 volume=1.0
 tramp=1.0
 $END
  -4.988272e+07   9.391052e+05
  -3.022804e+07  -3.069056e+07
   6.385935e+06  -3.386753e+07
   2.418419e+07  -1.290144e+07
   1.432483e+07   6.342966e+06
  -2.997039e+06   8.186977e+06
  -8.519809e+06  -1.216262e+06
  -2.304375e+06  -8.530006e+06
   5.399795e+06  -7.980342e+06
   8.367116e+06  -1.688321e+06
   6.203343e+06   5.272178e+06
   9.121181e+05   7.423507e+06
  -3.413936e+06   2.540270e+06
  -2.413119e+06  -4.507329e+06
   3.152424e+06  -5.586388e+06
   6.861398e+06   1.148611e+06
   3.984750e+06   8.862755e+06
  -3.169835e+06   1.036357e+07
  -8.792953e+06   5.372495e+06
  -9.618845e+06  -1.561704e+06
  -6.106549e+06  -6.527993e+06
  -7.997671e+05  -7.804451e+06
   2.664814e+06  -5.506098e+06
   1.884199e+06  -2.225159e+06
  -9.158588e+05  -1.500610e+06
  -4.954897e+05  -3.435942e+06
   4.365873e+06  -4.048061e+06
   8.298668e+06  -8.582123e+05
   6.299867e+06   3.342412e+06
   5.158184e+05   4.482966e+06
  -3.035809e+06   2.527136e+06
  -2.234530e+06   2.911759e+05
   1.874235e+05  -7.516125e+05
   1.689449e+06  -6.413933e+05
   1.966867e+06   9.263609e+05
   9.145735e+05   3.291820e+06
  -1.419606e+06   3.498345e+06
  -3.012643e+06   8.082244e+04
  -1.744721e+06  -3.223375e+06
   7.022956e+05  -1.905828e+06
   5.347225e+05   1.981192e+06
  -1.999982e+06   1.996393e+06
  -2.137673e+06  -2.772243e+06
   2.167966e+06  -5.387526e+06
   6.251866e+06  -9.052061e+05
   4.643529e+06   6.111193e+06
  -1.625688e+06   7.569632e+06
  -6.503701e+06   2.257036e+06
  -6.066377e+06  -3.722031e+06
  -1.632411e+06  -5.124060e+06
   2.928772e+06  -2.328562e+06
   4.456268e+06   1.254214e+06
   2.044903e+06   2.949910e+06
  -2.115693e+06   1.898291e+06
  -3.943516e+06  -7.725285e+05
  -1.698354e+06  -2.359577e+06
   1.491001e+06  -1.218064e+06
   1.475455e+06   8.481740e+05
  -1.203578e+06   7.149930e+05
  -2.122925e+06  -1.647344e+06
   6.861349e+05  -3.082222e+06
   4.172191e+06  -1.656714e+06
   4.649918e+06   1.220716e+06
   2.035711e+06   3.482627e+06
  -1.415645e+06   4.627134e+06
  -4.125602e+06   4.364967e+06
  -5.302593e+06   1.741291e+06
  -4.129165e+06  -2.583735e+06
  -1.023164e+06  -5.309213e+06
   1.530980e+06  -4.100749e+06
   1.507673e+06  -9.518419e+05
   2.282826e+04   3.284051e+05
  -2.585097e+05  -8.633954e+05
   1.189645e+06  -1.724439e+06
   2.402528e+06  -4.621041e+05
   1.887255e+06   1.459576e+06
   2.166326e+05   1.792403e+06
  -1.219971e+06   2.898885e+05
  -1.483054e+06  -1.613872e+06
  -1.464421e+05  -2.472559e+06
   2.295467e+06  -1.561519e+06
   3.932246e+06   8.309594e+05
   2.955231e+06   3.175175e+06
   8.637307e+04   3.736774e+06
  -1.964681e+06   2.457816e+06
  -1.965742e+06   1.013862e+06
  -1.569860e+06   5.770525e+05
  -2.476448e+06   4.507386e+05
  -3.700392e+06  -5.403991e+05
  -3.026711e+06  -2.243772e+06
  -2.375918e+05  -3.478716e+06
   2.562417e+06  -3.408008e+06
   3.436914e+06  -1.983026e+06
   2.292926e+06   2.088223e+05
   3.830745e+05   1.881900e+06
  -8.229346e+05   1.719192e+06
  -4.923136e+05   9.093018e+03
   8.598426e+05  -1.161959e+06
   1.617924e+06  -4.044280e+05
   8.477247e+05   1.009579e+06
  -3.779284e+05   9.647325e+05
  -3.329222e+05  -3.093904e+05
   9.203938e+05  -5.409636e+05
   1.564905e+06   1.172106e+06
   5.003533e+05   2.981872e+06
  -1.383914e+06   2.812937e+06
  -2.623995e+06   8.561133e+05
  -2.727876e+06  -1.187310e+06
  -1.911857e+06  -2.201757e+06
  -4.532198e+05  -2.125827e+06
   9.763907e+05  -1.277032e+06
   1.315721e+06  -2.653253e+05
   4.178068e+05   2.205029e+04
  -3.252629e+05  -6.256922e+05
   3.289164e+05  -1.161289e+06
   1.630404e+06  -5.435019e+05
   1.756753e+06   7.223749e+05
   3.470961e+05   1.207054e+06
  -9.802709e+05   5.077539e+05
  -7.386526e+05  -3.538459e+05
   7.092788e+05  -4.160367e+05
   1.799993e+06   2.474776e+05
   1.446820e+06   1.073595e+06
  -1.707212e+05   1.616477e+06
  -1.881118e+06   1.436165e+06
  -2.325649e+06   3.103889e+05
  -1.069295e+06  -1.049789e+06
   7.501416e+05  -1.324795e+06
   1.348826e+06  -2.086108e+05
   2.175796e+05   9.311573e+05
  -1.269735e+06   6.773395e+05
  -1.472618e+06  -6.231762e+05
  -3.059465e+05  -1.384386e+06
   9.117000e+05  -8.229775e+05
   1.054900e+06   2.612904e+05
   2.001178e+05   6.599219e+05
  -6.907441e+05   6.043658e+04
  -6.652016e+05  -8.770449e+05
   4.351404e+05  -1.234292e+06
   1.684221e+06  -5.379337e+05
   1.767320e+06   8.195674e+05
   3.911777e+05   1.751627e+06
  -1.180487e+06   1.435496e+06
  -1.458058e+06   2.183473e+05
  -4.372887e+05  -7.241675e+05
   5.382673e+05  -6.905999e+05
   5.161180e+05  -9.116387e+04
  -9.645169e+04   2.720625e+05
  -3.741113e+05   1.645505e+05
  -5.418504e+04  -2.859148e+04
   3.975049e+05   1.049118e+05
   4.330632e+05   5.864409e+05
  -1.667695e+05   1.010955e+06
  -1.150398e+06   7.913760e+05
  -1.774749e+06  -2.897839e+05
  -1.304367e+06  -1.601262e+06
   1.023707e+05  -2.048387e+06
   1.309576e+06  -1.222512e+06
   1.401996e+06   6.560991e+04
   7.211343e+05   6.967463e+05
   2.919146e+05   4.795790e+05
   4.501193e+05   1.418220e+05
   5.733920e+05   2.675395e+05
   1.006229e+05   6.687452e+05
  -7.224207e+05   7.798875e+05
  -1.201500e+06   3.023912e+05
  -8.843020e+05  -5.631764e+05
   1.750169e+05  -1.205841e+06
   1.411913e+06  -9.398598e+05
   1.901265e+06   3.395712e+05
   1.005704e+06   1.740605e+06
  -8.072045e+05   2.027619e+06
  -2.133160e+06   9.272361e+05
  -1.985947e+06  -5.098861e+05
  -8.065883e+05  -1.091444e+06
   1.582660e+05  -7.624682e+05
   2.772786e+05  -4.158938e+05
  -5.827906e+03  -6.558830e+05
   2.803810e+04  -1.144359e+06
   5.383961e+05  -1.132055e+06
   1.100626e+06  -3.158561e+05
   1.175227e+06   8.674160e+05
   5.387127e+05   1.582147e+06
  -4.730828e+05   1.236956e+06
  -1.082052e+06   3.513611e+04
  -7.165649e+05  -1.070683e+06
   3.086582e+05  -1.189559e+06
   9.901315e+05  -3.457281e+05
   7.010953e+05   6.073245e+05
  -1.050599e+05   9.302386e+05
  -4.648029e+05   6.640189e+05
  -7.001050e+04   3.349709e+05
   3.871287e+05   2.623431e+05
   6.933745e+04   3.195964e+05
  -9.764243e+05   2.074444e+05
  -1.772470e+06  -2.247701e+05
  -1.398949e+06  -8.361086e+05
   1.275637e+04  -1.227057e+06
   1.336183e+06  -1.018962e+06
   1.545358e+06  -2.754729e+05
   7.043397e+05   4.205841e+05
  -2.183440e+05   5.021030e+05
  -4.370825e+05   3.005087e+04
  -4.589828e+04  -3.773693e+05
   3.559696e+05  -2.426431e+05
   4.235351e+05   2.724615e+05
   2.671580e+05   6.008917e+05
   1.226915e+05   4.055489e+05
   1.058345e+05  -6.771869e+04
   2.010460e+05  -2.392078e+05
   2.351944e+05   1.887119e+05
  -6.998409e+04   8.328404e+05
  -7.252168e+05   9.377515e+05
  -1.180459e+06   2.073180e+05
  -7.848166e+05  -7.487009e+05
   3.156841e+05  -1.003576e+06
   1.075465e+06  -3.529524e+05
   6.473947e+05   4.500332e+05
  -5.767952e+05   5.655950e+05
  -1.329936e+06  -3.907304e+04
  -8.406399e+05  -6.943680e+05
   3.978460e+05  -8.230188e+05
   1.233608e+06  -4.173046e+05
   1.017671e+06   1.347568e+05
   1.174649e+05   4.197059e+05
  -5.401574e+05   2.352046e+05
  -3.431043e+05  -2.462459e+05
   4.639671e+05  -4.810451e+05
   1.011152e+06   1.050623e+03
   6.439919e+05   9.665230e+05
  -4.007417e+05   1.481868e+06
  -1.207690e+06   8.324595e+05
  -1.095711e+06  -5.786890e+05
  -2.475873e+05  -1.499167e+06
   5.713602e+05  -1.104416e+06
   7.780333e+05   1.334432e+05
   3.867697e+05   9.887722e+05
  -1.743046e+05   8.049079e+05
  -4.778154e+05   7.844713e+04
  -3.873954e+05  -2.920408e+05
  -1.207695e+05  -9.784633e+04
  -4.530267e+04   7.323199e+04
  -2.794308e+05  -2.611524e+05
  -4.797463e+05  -8.054350e+05
  -1.743551e+05  -8.923258e+05
   6.209658e+05  -3.497650e+05
   1.258422e+06   3.328148e+05
   1.084851e+06   6.512684e+05
   1.791095e+05   5.879997e+05
  -6.786387e+05   3.955647e+05
  -8.124169e+05   1.849424e+05
  -3.261277e+05  -4.950288e+04
   1.039125e+05  -2.010453e+05
   5.039380e+04  -1.540491e+05
  -1.971906e+05  -4.515053e+04
  -6.208770e+04  -1.104481e+05
   5.148601e+05  -2.472584e+05
   8.921664e+05  -4.637340e+04
   4.469315e+05   5.802973e+05
  -6.296400e+05   1.060812e+06
  -1.432341e+06   7.392477e+05
  -1.261076e+06  -2.875160e+05
  -3.122363e+05  -1.173879e+06
   5.978696e+05  -1.210313e+06
   8.684170e+05  -5.284062e+05
   5.635933e+05   1.455309e+05
   1.454186e+05   3.002587e+05
  -2.846947e+04   8.548768e+04
   7.605344e+04   8.289231e+03
   2.528632e+05   3.061634e+05
   2.319806e+05   6.712563e+05
  -1.135610e+05   5.927570e+05
  -5.791375e+05  -4.389198e+04
  -6.974731e+05  -7.488072e+05
  -1.886339e+05  -8.779753e+05
   6.083020e+05  -2.857081e+05
   9.289604e+05   5.276187e+05
   3.731401e+05   9.112208e+05
  -5.683398e+05   6.376478e+05
  -9.712551e+05   4.175729e+02
  -4.984052e+05  -5.206935e+05
   2.166967e+05  -6.221380e+05
   3.346973e+05  -3.344105e+05
  -1.783129e+05   2.199519e+04
  -5.403057e+05   7.220948e+04
  -1.503761e+05  -2.618447e+05
   6.654791e+05  -6.111856e+05
   1.066227e+06  -4.903150e+05
   6.851315e+05   1.438838e+05
  -3.715381e+04   7.554939e+05
  -4.570880e+05   7.631544e+05
  -3.900181e+05   1.789511e+05
  -8.981831e+04  -3.914952e+05
   1.765014e+05  -4.007545e+05
   3.078603e+05   7.561243e+04
   2.499592e+05   4.757933e+05
  -1.792791e+04   3.944827e+05
  -3.368082e+05  -4.122046e+03
  -4.257952e+05  -2.367976e+05
  -2.083644e+05  -8.902789e+04
   4.965466e+04   1.521358e+05
   6.655007e+04   8.368382e+04
  -7.486589e+04  -2.840643e+05
  -4.453993e+04  -5.114821e+05
   2.459809e+05  -2.624697e+05
   4.554181e+05   2.646062e+05
   2.244620e+05   5.427156e+05
  -3.150507e+05   3.062284e+05
  -6.023558e+05  -1.827749e+05
  -2.639426e+05  -4.616922e+05
   4.212747e+05  -3.405205e+05
   7.735726e+05   4.660972e+03
   4.362140e+05   2.950651e+05
  -2.306400e+05   3.797004e+05
  -5.421670e+05   2.567702e+05
  -2.378596e+05   3.122482e+04
   2.567656e+05  -1.074513e+05
   3.391258e+05  -6.618309e+03
  -9.448988e+04   2.373398e+05
  -5.668293e+05   2.774223e+05
