
 $NMID
 id='ANONYMOUS ', fmtdat='(2E16.6)'
 volume=1.0
 tramp=1.0
 $END
  -4.337500e+07  -5.613097e+05
  -2.626667e+07  -2.539244e+07
   4.682969e+06  -2.859131e+07
   2.048086e+07  -1.277030e+07
   1.318619e+07   3.536204e+06
  -1.656213e+06   7.212291e+06
  -7.701434e+06   3.349649e+05
  -3.248357e+06  -7.222111e+06
   3.930148e+06  -8.321178e+06
   7.499298e+06  -2.511762e+06
   5.835330e+06   5.010107e+06
   7.355259e+05   7.318732e+06
  -3.425541e+06   2.090124e+06
  -2.495132e+06  -5.060617e+06
   2.703378e+06  -6.037752e+06
   6.315877e+06   5.542266e+05
   3.893666e+06   8.022299e+06
  -2.716904e+06   9.500116e+06
  -7.985236e+06   4.639899e+06
  -8.401558e+06  -1.944612e+06
  -4.645800e+06  -6.001432e+06
  -6.001510e+04  -6.232575e+06
   1.848791e+06  -4.010671e+06
   1.870362e+05  -2.197953e+06
  -1.839255e+06  -2.769072e+06
   3.085057e+04  -4.400584e+06
   5.419400e+06  -3.744450e+06
   8.705283e+06   6.769806e+04
   5.784144e+06   3.840724e+06
  -5.035963e+05   4.261464e+06
  -3.902977e+06   1.746597e+06
  -2.191285e+06  -8.434476e+05
   1.399418e+06  -1.616834e+06
   3.118669e+06  -3.916454e+05
   2.242371e+06   2.124904e+06
   6.129786e+04   4.052021e+06
  -1.885764e+06   2.982202e+06
  -2.223184e+06  -7.577164e+05
  -6.875845e+05  -3.007163e+06
   7.906698e+05  -7.683503e+05
  -3.349801e+04   2.864346e+06
  -2.220896e+06   2.294642e+06
  -2.173700e+06  -2.377858e+06
   1.350706e+06  -4.763418e+06
   4.764898e+06  -8.856910e+05
   3.785311e+06   5.140984e+06
  -1.259321e+06   6.446108e+06
  -5.823319e+06   1.885571e+06
  -6.050540e+06  -3.525551e+06
  -2.062751e+06  -5.107027e+06
   2.816078e+06  -2.704321e+06
   4.838349e+06   8.352066e+05
   2.580256e+06   2.759286e+06
  -1.671900e+06   1.965668e+06
  -3.708751e+06  -4.870495e+05
  -1.777940e+06  -2.039291e+06
   1.309656e+06  -1.146591e+06
   1.683879e+06   7.628634e+05
  -6.298566e+05   1.031418e+06
  -1.992130e+06  -7.072949e+05
  -1.498120e+05  -2.185826e+06
   3.005003e+06  -1.595456e+06
   4.100387e+06   5.823953e+05
   2.038866e+06   2.924841e+06
  -1.633335e+06   4.439301e+06
  -4.672916e+06   4.146396e+06
  -5.485389e+06   1.274741e+06
  -3.703323e+06  -2.969482e+06
  -6.652503e+05  -5.415522e+06
   1.313911e+06  -4.285625e+06
   1.200779e+06  -1.551871e+06
   3.746494e+05  -4.108892e+05
   7.236230e+05  -1.170990e+06
   2.145808e+06  -1.371916e+06
   2.860710e+06   3.492212e+05
   1.793718e+06   2.359337e+06
  -3.112251e+05   2.350213e+06
  -1.896770e+06   1.780161e+05
  -1.826975e+06  -2.229545e+06
   7.714141e+04  -2.917537e+06
   2.693203e+06  -1.364936e+06
   3.932188e+06   1.354316e+06
   2.559451e+06   3.355813e+06
  -1.871881e+05   3.415748e+06
  -1.826840e+06   2.084166e+06
  -1.667898e+06   9.783803e+05
  -1.481518e+06   8.129159e+05
  -2.698831e+06   6.779305e+05
  -4.116879e+06  -5.161528e+05
  -3.403526e+06  -2.510949e+06
  -2.414612e+05  -3.981528e+06
   3.094900e+06  -3.841412e+06
   4.152782e+06  -1.993459e+06
   2.570464e+06   6.049684e+05
   6.078694e+04   2.282718e+06
  -1.249875e+06   1.817437e+06
  -5.374857e+05  -1.113301e+05
   1.112075e+06  -1.263001e+06
   1.789675e+06  -3.879441e+05
   7.967146e+05   1.128294e+06
  -5.595332e+05   1.120284e+06
  -5.731801e+05  -3.149110e+05
   7.452374e+05  -9.033751e+05
   1.741702e+06   6.632475e+05
   1.120244e+06   2.928689e+06
  -7.957775e+05   3.494633e+06
  -2.708493e+06   1.730806e+06
  -3.493445e+06  -9.229738e+05
  -2.674097e+06  -2.667759e+06
  -6.400446e+05  -2.716504e+06
   1.257562e+06  -1.494189e+06
   1.603525e+06  -2.072163e+05
   4.869641e+05   3.635494e+04
  -3.725628e+05  -7.211419e+05
   3.253433e+05  -1.249932e+06
   1.738025e+06  -5.835154e+05
   1.940573e+06   7.236575e+05
   4.563169e+05   1.285186e+06
  -1.095220e+06   6.170270e+05
  -9.662783e+05  -3.955504e+05
   7.317201e+05  -6.608148e+05
   2.239416e+06   6.772351e+04
   1.965341e+06   1.254200e+06
  -6.258945e+04   2.074021e+06
  -2.236391e+06   1.798901e+06
  -2.739935e+06   3.702655e+05
  -1.205174e+06  -1.164734e+06
   8.412224e+05  -1.402828e+06
   1.429147e+06  -1.850449e+05
   1.599296e+05   1.007766e+06
  -1.452486e+06   7.330213e+05
  -1.705923e+06  -6.778360e+05
  -4.601079e+05  -1.589688e+06
   9.573150e+05  -1.067371e+06
   1.252384e+06   1.565661e+05
   3.409727e+05   7.080692e+05
  -7.170885e+05   8.043322e+04
  -7.145784e+05  -1.003201e+06
   5.636969e+05  -1.392144e+06
   1.972800e+06  -5.386733e+05
   2.004147e+06   1.010234e+06
   4.163208e+05   2.014786e+06
  -1.345169e+06   1.638508e+06
  -1.673492e+06   2.795792e+05
  -5.514957e+05  -8.158475e+05
   6.017132e+05  -8.272799e+05
   6.743640e+05  -9.621908e+04
  -4.667199e+04   4.405743e+05
  -5.358354e+05   3.243526e+05
  -2.776203e+05  -6.153061e+04
   3.419673e+05  -5.129512e+04
   5.504630e+05   5.364067e+05
  -1.061775e+05   1.139907e+06
  -1.309092e+06   9.247888e+05
  -2.052355e+06  -3.498091e+05
  -1.474826e+06  -1.876996e+06
   1.613777e+05  -2.412157e+06
   1.563918e+06  -1.501528e+06
   1.733669e+06   2.112801e+04
   9.865486e+05   9.167469e+05
   3.889652e+05   7.970843e+05
   4.058244e+05   3.235999e+05
   5.138862e+05   2.759674e+05
   7.686246e+04   6.872920e+05
  -8.113020e+05   9.188354e+05
  -1.433335e+06   4.064183e+05
  -1.128174e+06  -6.996082e+05
   1.541764e+05  -1.523248e+06
   1.676166e+06  -1.156542e+06
   2.260184e+06   4.068021e+05
   1.211146e+06   2.021245e+06
  -8.666370e+05   2.335092e+06
  -2.416100e+06   1.119439e+06
  -2.360083e+06  -5.061063e+05
  -1.092839e+06  -1.275944e+06
   1.000968e+05  -1.029470e+06
   4.300545e+05  -6.189965e+05
   1.960573e+05  -7.558884e+05
   1.538143e+05  -1.221947e+06
   6.225643e+05  -1.220767e+06
   1.231761e+06  -3.142043e+05
   1.324737e+06   1.050858e+06
   5.791405e+05   1.866518e+06
  -5.960805e+05   1.434636e+06
  -1.274861e+06   4.366758e+04
  -8.452357e+05  -1.206582e+06
   2.937335e+05  -1.368871e+06
   1.052013e+06  -4.875481e+05
   7.855278e+05   5.567884e+05
  -3.030412e+04   9.849551e+05
  -4.088767e+05   7.790886e+05
  -2.618091e+04   4.468152e+05
   4.196515e+05   3.498808e+05
   5.519213e+04   3.896149e+05
  -1.092940e+06   2.370146e+05
  -1.990453e+06  -2.749729e+05
  -1.610717e+06  -9.556844e+05
  -4.603985e+04  -1.358080e+06
   1.475739e+06  -1.124382e+06
   1.768343e+06  -3.536460e+05
   8.418759e+05   3.827475e+05
  -2.203299e+05   5.224310e+05
  -4.764339e+05   7.343369e+04
  -3.546249e+03  -3.714782e+05
   4.635512e+05  -2.548813e+05
   4.740782e+05   3.328370e+05
   2.072057e+05   7.395482e+05
   4.844080e+04   4.869487e+05
   1.338238e+05  -1.390805e+05
   3.071425e+05  -3.538607e+05
   2.854022e+05   2.164132e+05
  -1.480360e+05   1.003990e+06
  -8.673907e+05   1.058395e+06
  -1.279518e+06   1.461005e+05
  -7.904984e+05  -9.031787e+05
   3.989028e+05  -1.079050e+06
   1.208620e+06  -2.934551e+05
   7.321790e+05   5.739046e+05
  -6.648716e+05   6.653790e+05
  -1.595389e+06  -2.504208e+04
  -1.089236e+06  -8.047549e+05
   3.931937e+05  -1.027891e+06
   1.475884e+06  -5.904208e+05
   1.270676e+06   1.108288e+05
   1.764950e+05   5.150283e+05
  -6.257191e+05   3.069383e+05
  -3.647449e+05  -2.686550e+05
   6.014035e+05  -5.073446e+05
   1.178258e+06   9.916079e+04
   6.440119e+05   1.190654e+06
  -6.151289e+05   1.694499e+06
  -1.493690e+06   8.788934e+05
  -1.266922e+06  -7.503823e+05
  -2.326586e+05  -1.795275e+06
   7.071076e+05  -1.334044e+06
   9.289125e+05   1.215559e+05
   4.882406e+05   1.167304e+06
  -1.493129e+05   9.860694e+05
  -5.409126e+05   1.110415e+05
  -5.059513e+05  -3.673947e+05
  -2.037040e+05  -1.371048e+05
  -3.042747e+04   1.044681e+05
  -2.290853e+05  -2.752132e+05
  -5.072400e+05  -9.467617e+05
  -2.572953e+05  -1.070556e+06
   6.544097e+05  -4.060883e+05
   1.488929e+06   4.331124e+05
   1.334313e+06   7.998140e+05
   2.016805e+05   6.839399e+05
  -8.779140e+05   4.398221e+05
  -9.881800e+05   2.178430e+05
  -3.282617e+05  -3.217888e+04
   1.543359e+05  -2.280101e+05
  -1.190365e+04  -2.162200e+05
  -3.120562e+05  -1.014943e+05
  -3.736935e+04  -1.377997e+05
   7.028466e+05  -2.429755e+05
   1.042208e+06   4.966586e+03
   3.845356e+05   6.901444e+05
  -8.611733e+05   1.176559e+06
  -1.662475e+06   7.510015e+05
  -1.373525e+06  -4.385853e+05
  -2.869581e+05  -1.408901e+06
   7.331127e+05  -1.371171e+06
   1.043081e+06  -5.299266e+05
   6.688572e+05   2.394270e+05
   1.234395e+05   3.583532e+05
  -1.071525e+05   5.368091e+04
   6.202908e+04  -4.032372e+04
   3.208440e+05   3.455175e+05
   2.764906e+05   7.974066e+05
  -1.752365e+05   6.750926e+05
  -6.953423e+05  -1.297670e+05
  -7.411032e+05  -9.643258e+05
  -9.611191e+04  -1.034027e+06
   7.765436e+05  -2.350481e+05
   1.044523e+06   7.327317e+05
   3.461919e+05   1.085335e+06
  -7.113213e+05   6.668239e+05
  -1.104094e+06  -6.758899e+04
  -5.166057e+05  -5.838856e+05
   2.798692e+05  -6.513322e+05
   3.463728e+05  -3.593526e+05
  -2.801103e+05  -7.446424e+03
  -6.567501e+05   4.880580e+04
  -1.403170e+05  -3.020495e+05
   8.099049e+05  -6.973455e+05
   1.215324e+06  -5.778144e+05
   7.286040e+05   1.481618e+05
  -8.549772e+04   8.588437e+05
  -5.131013e+05   8.458290e+05
  -3.993194e+05   1.403170e+05
  -5.110475e+04  -4.937182e+05
   2.405905e+05  -4.253267e+05
   3.635773e+05   1.650077e+05
   2.610205e+05   5.737051e+05
  -5.821615e+04   4.065284e+05
  -3.934758e+05  -4.834910e+04
  -4.661042e+05  -2.560188e+05
  -2.389729e+05  -7.597910e+04
   1.845417e+04   1.332228e+05
   7.063099e+04   9.309356e+02
   1.109377e+04  -3.794277e+05
   9.684000e+04  -5.378760e+05
   3.440187e+05  -1.837570e+05
   4.410480e+05   4.096020e+05
   1.262729e+05   6.613146e+05
  -4.180006e+05   3.136615e+05
  -6.574931e+05  -2.877670e+05
  -2.550143e+05  -5.816194e+05
   4.934848e+05  -3.688155e+05
   8.717425e+05   7.385537e+04
   4.786812e+05   3.706837e+05
  -2.912704e+05   3.872322e+05
  -6.343336e+05   2.159557e+05
  -2.322207e+05   1.331877e+04
   3.769817e+05  -6.428253e+04
   4.274535e+05   7.901056e+04
  -1.784160e+05   3.171815e+05
  -7.726788e+05   2.963348e+05
