
 $NMID
 id='ANONYMOUS ', fmtdat='(2E16.6)'
 volume=1.0
 tramp=1.0
 $END
   2.381839e+07   2.667136e+06
   1.330599e+07   1.499014e+07
  -3.740786e+06   1.538658e+07
  -1.184707e+07   6.381024e+06
  -7.313310e+06  -2.211461e+06
   1.083977e+06  -3.937814e+06
   4.378012e+06  -6.566281e+04
   1.689543e+06   4.153373e+06
  -2.481648e+06   4.698148e+06
  -4.340393e+06   1.215009e+06
  -3.032600e+06  -3.143319e+06
   2.857529e+03  -4.226406e+06
   2.069175e+06  -9.305482e+05
   1.150828e+06   3.159807e+06
  -1.828468e+06   3.434847e+06
  -3.542314e+06  -5.336746e+05
  -1.836033e+06  -4.684632e+06
   1.954429e+06  -5.201925e+06
   4.676262e+06  -2.158105e+06
   4.512235e+06   1.583590e+06
   2.125305e+06   3.557723e+06
  -3.667402e+05   3.292960e+06
  -1.078752e+06   1.980255e+06
   7.977987e+04   1.313663e+06
   1.034423e+06   1.954145e+06
  -3.813292e+05   2.691589e+06
  -3.506545e+06   1.778710e+06
  -5.058313e+06  -6.887503e+05
  -3.015163e+06  -2.599162e+06
   7.011191e+05  -2.350573e+06
   2.474326e+06  -6.184619e+05
   1.167049e+06   8.083852e+05
  -1.142450e+06   9.643107e+05
  -2.061746e+06  -3.762636e+04
  -1.182715e+06  -1.559417e+06
   3.565546e+05  -2.433623e+06
   1.303033e+06  -1.508396e+06
   1.065221e+06   6.717047e+05
   5.450732e+04   1.692473e+06
  -4.710839e+05   1.979723e+05
   3.054517e+05  -1.785725e+06
   1.452940e+06  -1.251496e+06
   1.144589e+06   1.420301e+06
  -8.723695e+05   2.599281e+06
  -2.539341e+06   3.073432e+05
  -1.796241e+06  -2.973404e+06
   9.676646e+05  -3.476553e+06
   3.333102e+06  -7.387764e+05
   3.312047e+06   2.326447e+06
   9.941207e+05   3.072545e+06
  -1.765769e+06   1.477201e+06
  -2.829303e+06  -6.845360e+05
  -1.436856e+06  -1.713415e+06
   9.995964e+05  -1.064323e+06
   2.081153e+06   4.271508e+05
   9.347203e+05   1.217623e+06
  -7.869968e+05   5.807298e+05
  -9.669471e+05  -5.248868e+05
   3.349208e+05  -6.346940e+05
   1.122337e+06   3.498670e+05
   1.429895e+05   1.145417e+06
  -1.616533e+06   7.928297e+05
  -2.262310e+06  -4.222976e+05
  -1.042494e+06  -1.698523e+06
   1.206014e+06  -2.435325e+06
   3.001030e+06  -2.088697e+06
   3.247286e+06  -3.579290e+05
   1.890740e+06   1.960884e+06
   2.861074e+04   3.163504e+06
  -9.541917e+05   2.439744e+06
  -7.388785e+05   9.458718e+05
  -3.210534e+05   3.360817e+05
  -6.625745e+05   6.598772e+05
  -1.470437e+06   5.827683e+05
  -1.686043e+06  -5.152238e+05
  -8.577576e+05  -1.614313e+06
   4.223869e+05  -1.416944e+06
   1.219703e+06   4.754239e+04
   9.699648e+05   1.507998e+06
  -2.590329e+05   1.748590e+06
  -1.690179e+06   5.925150e+05
  -2.176758e+06  -1.083271e+06
  -1.222017e+06  -2.088043e+06
   3.243676e+05  -1.893395e+06
   1.124502e+06  -1.046066e+06
   9.589067e+05  -4.829898e+05
   8.913300e+05  -4.368897e+05
   1.643098e+06  -2.806659e+05
   2.425304e+06   5.268709e+05
   1.888530e+06   1.690924e+06
  -9.081718e+04   2.400900e+06
  -2.101440e+06   2.110792e+06
  -2.629354e+06   9.045618e+05
  -1.484099e+06  -5.679699e+05
   1.599461e+05  -1.379468e+06
   8.974144e+05  -9.805883e+05
   3.057824e+05   1.189269e+05
  -7.601442e+05   6.770253e+05
  -1.083796e+06   1.152351e+05
  -3.834828e+05  -7.139979e+05
   4.236184e+05  -6.336785e+05
   3.556163e+05   2.268681e+05
  -4.653305e+05   5.526463e+05
  -1.024118e+06  -3.955686e+05
  -6.020364e+05  -1.766201e+06
   5.696018e+05  -2.116646e+06
   1.704411e+06  -1.005190e+06
   2.111093e+06   7.000347e+05
   1.516831e+06   1.791693e+06
   2.354322e+05   1.712840e+06
  -8.618862e+05   8.232573e+05
  -9.835028e+05   1.286712e+04
  -2.898112e+05  -5.181508e+04
   1.807966e+05   4.561332e+05
  -2.593014e+05   7.208949e+05
  -1.056826e+06   2.455364e+05
  -1.113202e+06  -5.318596e+05
  -2.072965e+05  -7.860166e+05
   6.936717e+05  -3.108017e+05
   5.763048e+05   3.000400e+05
  -4.732790e+05   3.880031e+05
  -1.376639e+06  -1.428736e+05
  -1.153645e+06  -8.815427e+05
   1.455503e+05  -1.279917e+06
   1.464040e+06  -9.697593e+05
   1.676112e+06  -6.175741e+04
   6.514155e+05   7.622760e+05
  -5.807991e+05   7.740822e+05
  -8.477201e+05   2.150922e+04
  -2.358007e+04  -6.024892e+05
   9.135430e+05  -3.475715e+05
   9.873506e+05   5.025385e+05
   1.979816e+05   9.847315e+05
  -6.290637e+05   6.046033e+05
  -7.533714e+05  -1.494137e+05
  -1.792382e+05  -4.431507e+05
   4.276898e+05  -1.054444e+04
   3.656106e+05   6.440350e+05
  -4.283610e+05   7.999120e+05
  -1.220328e+06   1.968819e+05
  -1.139024e+06  -7.326204e+05
  -1.273055e+05  -1.233078e+06
   9.009689e+05  -9.030705e+05
   1.020082e+06  -7.327978e+04
   2.887116e+05   5.216381e+05
  -4.103273e+05   4.659529e+05
  -4.227672e+05   1.168034e+04
   5.009084e+04  -2.860374e+05
   3.638525e+05  -1.813426e+05
   1.964986e+05   6.629026e+04
  -1.970346e+05   4.352132e+04
  -3.140112e+05  -3.335404e+05
   1.142176e+05  -6.785782e+05
   8.376536e+05  -4.837284e+05
   1.214067e+06   3.310710e+05
   7.724845e+05   1.216858e+06
  -2.452210e+05   1.445338e+06
  -1.038011e+06   8.221209e+05
  -1.058843e+06  -1.096102e+05
  -5.571645e+05  -6.293902e+05
  -1.855488e+05  -5.381123e+05
  -2.025321e+05  -2.363512e+05
  -2.732708e+05  -1.842639e+05
  -5.729468e+03  -4.029452e+05
   5.361769e+05  -5.099132e+05
   8.936399e+05  -1.707125e+05
   6.532218e+05   4.951075e+05
  -1.767741e+05   9.282892e+05
  -1.083534e+06   6.088256e+05
  -1.344836e+06  -3.792534e+05
  -6.181855e+05  -1.289575e+06
   6.470861e+05  -1.355865e+06
   1.512840e+06  -5.415394e+05
   1.402081e+06   4.322926e+05
   6.052985e+05   8.392908e+05
  -1.139127e+05   6.381266e+05
  -3.159097e+05   3.631996e+05
  -1.913468e+05   4.346719e+05
  -1.773379e+05   7.058001e+05
  -4.418574e+05   6.845760e+05
  -7.509342e+05   1.113500e+05
  -7.285622e+05  -7.146892e+05
  -2.316406e+05  -1.159937e+06
   4.496325e+05  -8.266257e+05
   7.731579e+05   4.887199e+04
   4.419658e+05   7.712773e+05
  -2.469085e+05   8.078260e+05
  -6.513990e+05   2.485968e+05
  -4.427380e+05  -3.583202e+05
   5.833315e+04  -5.814100e+05
   2.732749e+05  -4.521071e+05
   3.662415e+04  -2.778692e+05
  -2.262526e+05  -2.394701e+05
  -6.848775e+03  -2.389422e+05
   6.652916e+05  -8.100286e+04
   1.172260e+06   2.794736e+05
   9.131278e+05   6.662919e+05
  -3.991278e+04   8.140529e+05
  -9.408637e+05   5.860819e+05
  -1.082883e+06   1.153864e+05
  -4.924102e+05  -2.658074e+05
   1.554675e+05  -2.944935e+05
   2.881846e+05  -2.360679e+04
  -2.302139e+04   2.114462e+05
  -2.987839e+05   1.201688e+05
  -2.623142e+05  -2.288818e+05
  -6.543593e+04  -4.578783e+05
   1.327799e+04  -2.937756e+05
  -9.240546e+04   8.437742e+04
  -2.194862e+05   2.035649e+05
  -1.624336e+05  -1.463353e+05
   1.572077e+05  -5.985094e+05
   5.857149e+05  -5.825889e+05
   7.623310e+05  -5.214220e+03
   4.053711e+05   5.889280e+05
  -3.033088e+05   6.130460e+05
  -7.334675e+05   9.209838e+04
  -4.022113e+05  -3.940397e+05
   4.382011e+05  -3.631433e+05
   9.664919e+05   1.069093e+05
   6.250037e+05   5.520321e+05
  -2.893621e+05   6.089903e+05
  -9.332693e+05   2.828913e+05
  -7.731718e+05  -1.379095e+05
  -8.073449e+04  -3.260170e+05
   3.961217e+05  -1.530948e+05
   2.001137e+05   1.794144e+05
  -3.983521e+05   2.606845e+05
  -6.999835e+05  -1.422977e+05
  -3.007385e+05  -7.592107e+05
   4.886689e+05  -9.735309e+05
   9.587187e+05  -4.254988e+05
   7.142956e+05   5.358775e+05
   2.554159e+04   1.098898e+06
  -5.114534e+05   7.670884e+05
  -5.572630e+05  -1.234750e+05
  -2.308961e+05  -7.356445e+05
   1.421745e+05  -5.950025e+05
   3.314081e+05  -3.911030e+04
   2.900683e+05   2.573002e+05
   1.225484e+05   1.009211e+05
   2.225458e+04  -6.469250e+04
   1.099051e+05   1.707394e+05
   2.426352e+05   5.988293e+05
   9.843746e+04   6.667940e+05
  -4.082759e+05   2.094059e+05
  -8.726237e+05  -3.551251e+05
  -7.650661e+05  -5.684738e+05
  -8.093857e+04  -4.231812e+05
   5.654702e+05  -2.068264e+05
   6.138783e+05  -7.213913e+04
   1.898428e+05   3.240851e+04
  -1.106789e+05   1.256989e+05
   2.815258e+03   1.391115e+05
   1.916404e+05   8.999494e+04
   9.452722e+03   8.512959e+04
  -4.499271e+05   9.456626e+04
  -6.254283e+05  -7.209527e+04
  -1.718258e+05  -4.338338e+05
   6.024483e+05  -6.442880e+05
   1.039188e+06  -3.404193e+05
   7.836176e+05   3.540681e+05
   7.826943e+04   8.675341e+05
  -5.246281e+05   7.764086e+05
  -6.597308e+05   2.453937e+05
  -3.877792e+05  -1.935118e+05
  -4.685189e+04  -2.223860e+05
   7.592864e+04  -1.636628e+04
  -3.833902e+04   2.896661e+04
  -1.774972e+05  -2.265862e+05
  -1.202549e+05  -4.992410e+05
   1.504720e+05  -3.924819e+05
   4.107899e+05   1.308363e+05
   3.759129e+05   6.338659e+05
  -2.032448e+04   6.242713e+05
  -4.863715e+05   7.937227e+04
  -5.756179e+05  -5.169605e+05
  -1.318822e+05  -6.730555e+05
   4.705461e+05  -3.474057e+05
   6.542592e+05   1.131108e+05
   2.695750e+05   3.757431e+05
  -2.068805e+05   3.648324e+05
  -2.223692e+05   1.943154e+05
   1.765877e+05   2.872883e+04
   4.006030e+05   1.488764e+04
   6.229359e+04   1.879861e+05
  -5.326562e+05   3.691927e+05
  -7.623807e+05   2.794165e+05
  -4.214503e+05  -1.257039e+05
   1.064747e+05  -5.073599e+05
   3.535850e+05  -4.745122e+05
   2.377794e+05  -5.446219e+04
  -7.163766e+03   3.030270e+05
  -1.725125e+05   2.348043e+05
  -2.064233e+05  -1.314394e+05
  -1.187366e+05  -3.620573e+05
   6.141269e+04  -2.323499e+05
   2.322944e+05   5.820944e+04
   2.625973e+05   1.772403e+05
   1.402733e+05   5.561454e+04
   3.885237e+01  -7.339991e+04
  -4.610298e+04   9.084414e+03
  -4.480222e+04   2.300242e+05
  -1.076476e+05   3.032119e+05
  -2.201110e+05   7.089650e+04
  -2.245116e+05  -2.822808e+05
  -1.736730e+04  -4.033281e+05
   2.750840e+05  -1.562266e+05
   3.696522e+05   2.198963e+05
   1.104606e+05   3.688403e+05
  -3.177970e+05   1.895028e+05
  -5.135507e+05  -1.033736e+05
  -2.613849e+05  -2.535683e+05
   1.986115e+05  -2.075209e+05
   3.911215e+05  -8.131870e+04
   1.331865e+05   6.606005e+03
  -2.388869e+05   4.454540e+03
  -2.532268e+05  -8.623786e+04
   1.375214e+05  -1.830797e+05
   4.971266e+05  -1.243411e+05
