
 $NMID
 id='ANONYMOUS ', fmtdat='(2E16.6)'
 volume=1.0
 tramp=1.0
 $END
   1.912282e+07  -1.140929e+06
   1.364431e+07   8.450143e+06
   7.529283e+05   1.245010e+07
  -8.188204e+06   8.622254e+06
  -7.277220e+06   9.981075e+05
  -5.854950e+05  -3.614778e+06
   4.043383e+06  -1.877484e+06
   3.134521e+06   3.146006e+06
  -8.506811e+05   5.475062e+06
  -3.661342e+06   2.533500e+06
  -3.223938e+06  -2.389359e+06
  -5.081129e+05  -4.024118e+06
   1.803229e+06  -8.968666e+05
   1.517901e+06   3.320496e+06
  -1.091243e+06   4.022419e+06
  -3.306215e+06   4.968698e+05
  -2.593150e+06  -3.745229e+06
   6.727329e+05  -4.901324e+06
   3.574744e+06  -2.479065e+06
   3.764289e+06   8.962575e+05
   1.736533e+06   2.529239e+06
  -5.640745e+04   2.083267e+06
   7.749160e+04   1.260227e+06
   1.415840e+06   1.593116e+06
   1.670682e+06   2.797572e+06
  -5.252000e+05   3.238900e+06
  -3.828264e+06   1.842490e+06
  -5.148168e+06  -6.448136e+05
  -2.881296e+06  -2.343699e+06
   9.943545e+05  -2.048387e+06
   2.763743e+06  -2.590932e+05
   1.003404e+06   1.378822e+06
  -1.964295e+06   1.447167e+06
  -2.930723e+06  -1.865817e+05
  -1.332761e+06  -2.202075e+06
   7.097354e+05  -2.765173e+06
   1.256851e+06  -1.229141e+06
   4.407250e+05   9.017980e+05
  -3.665392e+05   1.293737e+06
  -2.667500e+05  -5.141070e+05
   5.943611e+05  -2.272781e+06
   1.447873e+06  -1.596718e+06
   1.427429e+06   9.687789e+05
   1.864639e+05   2.422901e+06
  -1.453778e+06   9.518446e+05
  -1.814874e+06  -1.844102e+06
  -2.093065e+04  -2.881737e+06
   2.639402e+06  -1.098718e+06
   3.619818e+06   1.669421e+06
   1.713544e+06   2.944731e+06
  -1.517185e+06   1.975036e+06
  -3.210661e+06  -5.877135e+04
  -2.047729e+06  -1.444584e+06
   5.463979e+05  -1.310590e+06
   1.998651e+06  -1.142103e+05
   1.201243e+06   8.568118e+05
  -5.560212e+05   6.653824e+05
  -1.175798e+06  -3.595926e+05
  -7.863664e+04  -9.906439e+05
   1.248072e+06  -4.680175e+05
   1.034485e+06   6.714497e+05
  -6.837398e+05   1.203203e+06
  -2.040060e+06   4.513943e+05
  -1.384035e+06  -1.141578e+06
   9.298406e+05  -2.398708e+06
   2.954820e+06  -2.237610e+06
   3.161041e+06  -4.821045e+05
   1.781504e+06   1.817241e+06
   2.310842e+05   3.094918e+06
  -4.687487e+05   2.693981e+06
  -4.939617e+05   1.495102e+06
  -6.402735e+05   8.039884e+05
  -1.269390e+06   7.606090e+05
  -1.930547e+06   3.636823e+05
  -1.877086e+06  -8.941518e+05
  -8.332087e+05  -2.042369e+06
   6.748875e+05  -1.716432e+06
   1.632605e+06   8.293748e+04
   1.274433e+06   1.819270e+06
  -2.397783e+05   2.003456e+06
  -1.797559e+06   6.148894e+05
  -2.187893e+06  -1.093574e+06
  -1.203987e+06  -1.908638e+06
   1.577579e+05  -1.634451e+06
   7.806655e+05  -9.701780e+05
   6.619341e+05  -6.526327e+05
   7.983230e+05  -7.360996e+05
   1.766586e+06  -6.243033e+05
   2.742029e+06   2.275244e+05
   2.299929e+06   1.635297e+06
   1.641191e+05   2.706301e+06
  -2.195605e+06   2.563340e+06
  -2.926729e+06   1.136248e+06
  -1.643191e+06  -6.617328e+05
   2.523167e+05  -1.579780e+06
   1.041283e+06  -1.069762e+06
   3.204564e+05   1.646978e+05
  -8.383037e+05   7.905331e+05
  -1.157363e+06   2.213145e+05
  -4.191054e+05  -7.143640e+05
   4.781219e+05  -7.460279e+05
   5.396464e+05   2.274597e+05
  -3.361417e+05   8.866713e+05
  -1.285802e+06   6.189572e+04
  -1.273087e+06  -1.735075e+06
  -5.159722e+03  -2.731126e+06
   1.756850e+06  -1.801634e+06
   2.736100e+06   3.526700e+05
   2.164660e+06   1.996964e+06
   4.884238e+05   2.077048e+06
  -9.546436e+05   1.022921e+06
  -1.141475e+06   6.025526e+04
  -3.340666e+05  -3.130863e+04
   2.555670e+05   4.957727e+05
  -1.671504e+05   8.056494e+05
  -1.082718e+06   3.980993e+05
  -1.290540e+06  -4.007009e+05
  -3.704302e+05  -8.161970e+05
   7.382352e+05  -4.530537e+05
   7.532179e+05   2.887432e+05
  -4.750971e+05   6.121309e+05
  -1.704762e+06   9.322030e+04
  -1.572201e+06  -9.222867e+05
  -2.408277e+04  -1.605422e+06
   1.605246e+06  -1.336444e+06
   1.923045e+06  -2.618990e+05
   8.159904e+05   7.564625e+05
  -5.345269e+05   8.764316e+05
  -8.765106e+05   1.109299e+05
  -5.479610e+04  -6.279055e+05
   9.803817e+05  -4.735055e+05
   1.186111e+06   4.339791e+05
   3.972056e+05   1.105110e+06
  -6.103268e+05   8.363968e+05
  -9.129542e+05  -9.898099e+03
  -3.210794e+05  -4.710818e+05
   4.444299e+05  -7.978893e+04
   4.631269e+05   6.763739e+05
  -4.216354e+05   9.310811e+05
  -1.363976e+06   3.161338e+05
  -1.346239e+06  -7.273115e+05
  -2.690623e+05  -1.372413e+06
   9.027927e+05  -1.119418e+06
   1.144387e+06  -2.172050e+05
   4.138547e+05   5.539171e+05
  -4.068810e+05   5.936459e+05
  -5.194318e+05   4.157220e+04
   1.078733e+04  -4.130803e+05
   4.737251e+05  -3.056557e+05
   3.463886e+05   1.052746e+05
  -1.824962e+05   1.897216e+05
  -4.481090e+05  -2.705615e+05
  -3.988283e+03  -7.824742e+05
   8.837584e+05  -6.569994e+05
   1.414674e+06   2.416059e+05
   9.963405e+05   1.299043e+06
  -1.405368e+05   1.684581e+06
  -1.123327e+06   1.092769e+06
  -1.283939e+06   1.052815e+04
  -7.698581e+05  -7.340635e+05
  -2.607151e+05  -7.290102e+05
  -1.681345e+05  -3.119614e+05
  -2.565078e+05  -1.330774e+05
  -4.842792e+04  -4.024194e+05
   5.364930e+05  -6.560212e+05
   1.027709e+06  -3.248046e+05
   8.510034e+05   5.278032e+05
  -8.523051e+04   1.153581e+06
  -1.193708e+06   8.504563e+05
  -1.602631e+06  -2.905895e+05
  -8.772360e+05  -1.404667e+06
   5.385440e+05  -1.620673e+06
   1.634107e+06  -8.250009e+05
   1.689755e+06   2.925493e+05
   8.693052e+05   9.164149e+05
  -3.463167e+04   8.321866e+05
  -3.992116e+05   5.061457e+05
  -2.769608e+05   4.797551e+05
  -1.682639e+05   7.450379e+05
  -4.065739e+05   7.794774e+05
  -8.079622e+05   1.926956e+05
  -8.830293e+05  -7.465052e+05
  -3.674891e+05  -1.302105e+06
   4.418410e+05  -9.841742e+05
   8.967325e+05  -3.168795e+04
   6.058461e+05   8.097585e+05
  -1.505488e+05   9.525802e+05
  -6.746902e+05   4.216812e+05
  -5.555808e+05  -2.713151e+05
  -6.694398e+04  -6.328430e+05
   1.895069e+05  -5.733004e+05
  -1.020200e+04  -3.610821e+05
  -2.618105e+05  -2.650452e+05
  -1.943890e+04  -2.766886e+05
   7.250172e+05  -1.750903e+05
   1.328596e+06   1.773229e+05
   1.112522e+06   6.422991e+05
   9.296369e+04   9.065482e+05
  -9.527037e+05   7.577035e+05
  -1.211198e+06   2.790667e+05
  -6.223608e+05  -1.930003e+05
   1.143110e+05  -3.263231e+05
   3.151018e+05  -8.677533e+04
  -1.632137e+04   1.981958e+05
  -3.475974e+05   1.482316e+05
  -3.124330e+05  -2.352853e+05
  -6.513470e+04  -5.178075e+05
   3.457052e+04  -3.281549e+05
  -1.113225e+05   1.379747e+05
  -2.795466e+05   2.864710e+05
  -2.105587e+05  -1.479600e+05
   1.506004e+05  -7.088340e+05
   6.077159e+05  -7.118803e+05
   8.027788e+05  -5.998030e+04
   4.595548e+05   6.208665e+05
  -2.765185e+05   6.814683e+05
  -7.824358e+05   1.345946e+05
  -4.841995e+05  -4.258452e+05
   4.551775e+05  -4.696863e+05
   1.143347e+06   7.008214e+03
   8.370439e+05   5.741358e+05
  -2.335450e+05   7.776696e+05
  -1.071135e+06   4.802656e+05
  -9.522845e+05  -5.788154e+04
  -1.465777e+05  -3.836894e+05
   4.385783e+05  -2.385493e+05
   2.335728e+05   1.664066e+05
  -4.485543e+05   3.048249e+05
  -7.990500e+05  -1.344414e+05
  -3.627492e+05  -8.484394e+05
   5.194404e+05  -1.124776e+06
   1.075680e+06  -5.324548e+05
   8.585686e+05   5.681643e+05
   1.177662e+05   1.267495e+06
  -5.254827e+05   9.528346e+05
  -6.683893e+05  -6.221299e+04
  -3.661872e+05  -8.280341e+05
   7.337303e+04  -7.312770e+05
   3.692183e+05  -9.634221e+04
   3.856344e+05   2.845027e+05
   1.812923e+05   1.247118e+05
   9.339465e+03  -9.034991e+04
   9.861373e+04   1.500762e+05
   3.167655e+05   6.512435e+05
   2.126038e+05   7.757844e+05
  -4.047820e+05   2.972738e+05
  -1.041266e+06  -3.329686e+05
  -9.694692e+05  -5.947464e+05
  -1.379293e+05  -4.718678e+05
   6.644613e+05  -2.750044e+05
   7.151452e+05  -1.473253e+05
   1.972461e+05  -7.683385e+03
  -1.285849e+05   1.468843e+05
   5.081945e+04   1.901717e+05
   2.650728e+05   1.211722e+05
   5.468468e+02   9.525197e+04
  -5.501254e+05   1.180692e+05
  -7.137595e+05  -4.223954e+04
  -1.709423e+05  -4.593419e+05
   6.714009e+05  -7.509760e+05
   1.124415e+06  -4.505956e+05
   8.661372e+05   3.523738e+05
   1.413467e+05   9.899507e+05
  -5.219432e+05   9.199710e+05
  -7.268481e+05   3.053082e+05
  -4.597709e+05  -2.157235e+05
  -5.319923e+04  -2.453472e+05
   1.164880e+05   9.867323e+03
  -3.490701e+04   6.893506e+04
  -2.449131e+05  -2.368766e+05
  -1.954892e+05  -5.656749e+05
   1.471052e+05  -4.497656e+05
   4.816235e+05   1.478820e+05
   4.478947e+05   7.172315e+05
  -1.946650e+04   6.993772e+05
  -5.652906e+05   8.243394e+04
  -6.758749e+05  -5.802555e+05
  -1.767775e+05  -7.502900e+05
   5.100241e+05  -4.017129e+05
   7.335070e+05   8.512509e+04
   3.210337e+05   3.746268e+05
  -1.959407e+05   3.965852e+05
  -2.031612e+05   2.390362e+05
   2.375978e+05   4.257301e+04
   4.674753e+05  -5.784695e+03
   7.477916e+04   1.996428e+05
  -5.813772e+05   4.689935e+05
  -8.248371e+05   4.151076e+05
  -4.617264e+05  -7.229192e+04
   8.188964e+04  -5.726040e+05
   3.308845e+05  -5.627188e+05
   2.237679e+05  -6.287653e+04
  -8.327673e+03   3.574412e+05
  -1.811691e+05   2.596864e+05
  -2.399963e+05  -1.681035e+05
  -1.578504e+05  -4.046759e+05
   5.395671e+04  -2.374460e+05
   2.648480e+05   6.315388e+04
   3.076177e+05   1.562058e+05
   1.693263e+05   3.175765e+04
   4.956658e+03  -5.344935e+04
  -6.474072e+04   6.851152e+04
  -8.565336e+04   2.765101e+05
  -1.572827e+05   3.015186e+05
  -2.524263e+05   3.102687e+04
  -2.232642e+05  -3.348243e+05
   1.095222e+04  -4.502794e+05
   3.156613e+05  -1.781989e+05
   4.106817e+05   2.405550e+05
   1.330722e+05   4.225410e+05
  -3.374638e+05   2.377112e+05
  -5.705170e+05  -9.014135e+04
  -3.071613e+05  -2.685588e+05
   2.052636e+05  -2.263510e+05
   4.239651e+05  -9.291447e+04
   1.246254e+05  -3.349575e+03
  -3.032365e+05  -1.365699e+04
  -3.010847e+05  -1.213537e+05
   1.796116e+05  -2.346304e+05
   6.085004e+05  -1.652370e+05
