
 $NMID
 id='ANONYMOUS ', fmtdat='(2E16.6)'
 volume=1.0
 tramp=1.0
 $END
  -4.904846e+07   3.299053e+05
  -3.004381e+07  -2.950018e+07
   5.642463e+06  -3.306497e+07
   2.370269e+07  -1.367781e+07
   1.475605e+07   5.244037e+06
  -2.446295e+06   8.229559e+06
  -8.722724e+06  -4.823507e+05
  -2.971424e+06  -8.450038e+06
   5.065524e+06  -8.702791e+06
   8.486416e+06  -2.210991e+06
   6.309488e+06   5.458142e+06
   7.846433e+05   7.762137e+06
  -3.583792e+06   2.389296e+06
  -2.461172e+06  -5.095516e+06
   3.216036e+06  -6.150172e+06
   7.009061e+06   9.177343e+05
   4.149781e+06   8.946657e+06
  -3.124667e+06   1.049672e+07
  -8.826545e+06   5.274227e+06
  -9.441596e+06  -1.821323e+06
  -5.652692e+06  -6.511784e+06
  -5.399622e+05  -7.324151e+06
   2.269322e+06  -5.076591e+06
   1.103736e+06  -2.507247e+06
  -1.298079e+06  -2.380292e+06
  -8.790093e+04  -4.089847e+06
   5.189558e+06  -3.935514e+06
   8.881531e+06  -2.581626e+05
   6.270288e+06   3.814791e+06
  -3.664210e+04   4.497320e+06
  -3.610189e+06   2.104304e+06
  -2.204885e+06  -3.246496e+05
   9.559892e+05  -1.110462e+06
   2.523756e+06  -3.576332e+05
   2.072924e+06   1.666729e+06
   3.860483e+05   3.785501e+06
  -1.723877e+06   3.345152e+06
  -2.658222e+06  -3.038494e+05
  -1.261540e+06  -3.184250e+06
   6.803390e+05  -1.386987e+06
   1.345436e+05   2.503403e+06
  -2.287755e+06   2.218226e+06
  -2.285009e+06  -2.746477e+06
   1.851417e+06  -5.424509e+06
   5.820366e+06  -1.039770e+06
   4.482884e+06   5.898073e+06
  -1.486889e+06   7.421609e+06
  -6.493029e+06   2.184856e+06
  -6.376479e+06  -3.901223e+06
  -1.892001e+06  -5.472697e+06
   3.105409e+06  -2.633144e+06
   4.940609e+06   1.202464e+06
   2.426161e+06   3.096676e+06
  -2.031041e+06   2.057708e+06
  -4.059131e+06  -6.896079e+05
  -1.837416e+06  -2.348598e+06
   1.486937e+06  -1.245914e+06
   1.665048e+06   8.932366e+05
  -1.014134e+06   9.715019e+05
  -2.258605e+06  -1.253089e+06
   2.185027e+05  -2.865948e+06
   3.799776e+06  -1.800176e+06
   4.675727e+06   9.416268e+05
   2.173831e+06   3.404866e+06
  -1.641902e+06   4.744941e+06
  -4.672248e+06   4.382279e+06
  -5.662948e+06   1.507101e+06
  -4.057791e+06  -2.932909e+06
  -8.132381e+05  -5.631267e+06
   1.570456e+06  -4.431877e+06
   1.504914e+06  -1.340881e+06
   2.886402e+05  -8.918193e+03
   2.963674e+05  -9.691342e+05
   1.749506e+06  -1.509168e+06
   2.694899e+06   2.869413e+04
   1.818924e+06   2.034482e+06
  -1.421036e+05   2.129678e+06
  -1.639354e+06   1.495423e+05
  -1.655250e+06  -2.091948e+06
   4.859233e+04  -2.822467e+06
   2.631957e+06  -1.467989e+06
   4.080334e+06   1.204097e+06
   2.850173e+06   3.437206e+06
  -6.113452e+04   3.742968e+06
  -1.985496e+06   2.389415e+06
  -1.923677e+06   1.064486e+06
  -1.644950e+06   7.277790e+05
  -2.766919e+06   5.420990e+05
  -4.127843e+06  -6.500779e+05
  -3.339939e+06  -2.591880e+06
  -1.520960e+05  -3.945776e+06
   3.082182e+06  -3.738302e+06
   4.036066e+06  -1.974698e+06
   2.519250e+06   4.930301e+05
   1.618137e+05   2.167971e+06
  -1.128717e+06   1.805564e+06
  -5.279900e+05  -6.803687e+04
   1.070356e+06  -1.239774e+06
   1.802778e+06  -3.753679e+05
   8.393981e+05   1.134321e+06
  -5.276511e+05   1.072482e+06
  -4.741134e+05  -3.651771e+05
   9.306760e+05  -7.734276e+05
   1.794303e+06   1.008799e+06
   8.287917e+05   3.200244e+06
  -1.262735e+06   3.384953e+06
  -2.928808e+06   1.328294e+06
  -3.304530e+06  -1.233981e+06
  -2.343567e+06  -2.684110e+06
  -4.837161e+05  -2.586793e+06
   1.220765e+06  -1.420008e+06
   1.537966e+06  -1.997498e+05
   4.753942e+05   4.369763e+04
  -3.492885e+05  -7.221166e+05
   3.717615e+05  -1.270396e+06
   1.791652e+06  -5.612406e+05
   1.943010e+06   8.089885e+05
   3.975628e+05   1.334152e+06
  -1.118392e+06   5.669344e+05
  -8.924142e+05  -4.349764e+05
   7.970263e+05  -5.608383e+05
   2.155794e+06   2.387052e+05
   1.771199e+06   1.309409e+06
  -1.963283e+05   1.962480e+06
  -2.236398e+06   1.645617e+06
  -2.687018e+06   2.825089e+05
  -1.173967e+06  -1.198677e+06
   8.668938e+05  -1.419653e+06
   1.466343e+06  -1.804395e+05
   1.770219e+05   1.020478e+06
  -1.454221e+06   7.070746e+05
  -1.664980e+06  -7.337867e+05
  -3.626028e+05  -1.593151e+06
   1.027090e+06  -9.811440e+05
   1.227800e+06   2.585236e+05
   2.701496e+05   7.428753e+05
  -7.497247e+05   6.219884e+04
  -7.050576e+05  -1.009898e+06
   5.621589e+05  -1.369960e+06
   1.940896e+06  -5.154557e+05
   1.961497e+06   1.016578e+06
   3.743030e+05   1.998137e+06
  -1.375805e+06   1.590002e+06
  -1.663238e+06   2.193028e+05
  -5.008089e+05  -8.324444e+05
   6.284113e+05  -7.868398e+05
   6.308914e+05  -7.193802e+04
  -1.003162e+05   3.835636e+05
  -5.042060e+05   2.356577e+05
  -1.730492e+05  -7.605923e+04
   4.080801e+05   2.395406e+04
   5.205872e+05   6.110510e+05
  -1.697072e+05   1.142643e+06
  -1.324716e+06   8.760920e+05
  -2.012912e+06  -3.911614e+05
  -1.417949e+06  -1.873751e+06
   2.063518e+05  -2.348778e+06
   1.565695e+06  -1.393537e+06
   1.660993e+06   1.013892e+05
   8.676144e+05   8.915673e+05
   3.162800e+05   6.885262e+05
   4.293127e+05   2.451393e+05
   5.714712e+05   2.860764e+05
   8.560576e+04   7.147765e+05
  -8.346020e+05   8.801200e+05
  -1.408531e+06   3.355169e+05
  -1.042620e+06  -7.052056e+05
   2.240745e+05  -1.443610e+06
   1.668631e+06  -1.061992e+06
   2.188285e+06   4.584531e+05
   1.118449e+06   2.024935e+06
  -9.451795e+05   2.290056e+06
  -2.438403e+06   1.023234e+06
  -2.291260e+06  -6.049990e+05
  -9.686426e+05  -1.294907e+06
   1.776228e+05  -9.521551e+05
   4.028926e+05  -5.253543e+05
   1.198188e+05  -7.217534e+05
   1.183012e+05  -1.234832e+06
   6.370420e+05  -1.226984e+06
   1.236057e+06  -3.046424e+05
   1.289253e+06   1.045229e+06
   5.383675e+05   1.833719e+06
  -6.032348e+05   1.391601e+06
  -1.247321e+06   5.628600e+03
  -7.969371e+05  -1.227685e+06
   3.537353e+05  -1.350634e+06
   1.100880e+06  -4.216180e+05
   7.854784e+05   6.336907e+05
  -8.864959e+04   1.020596e+06
  -4.837477e+05   7.646401e+05
  -6.860861e+04   4.174249e+05
   4.131760e+05   3.310553e+05
   5.444368e+04   3.736091e+05
  -1.099547e+06   2.106361e+05
  -1.980873e+06  -3.094176e+05
  -1.567315e+06  -9.884064e+05
   1.230922e+04  -1.374258e+06
   1.510877e+06  -1.101505e+06
   1.764089e+06  -2.877358e+05
   8.171109e+05   4.499004e+05
  -2.397514e+05   5.391863e+05
  -4.885681e+05   4.521701e+04
  -2.361974e+04  -3.908565e+05
   4.361701e+05  -2.458918e+05
   4.638314e+05   3.300815e+05
   2.278427e+05   7.031410e+05
   7.644888e+04   4.635067e+05
   1.358740e+05  -1.047742e+05
   2.853230e+05  -2.984757e+05
   2.708343e+05   2.225326e+05
  -1.439946e+05   9.608278e+05
  -8.666400e+05   1.030920e+06
  -1.295971e+06   1.630829e+05
  -8.065844e+05  -8.819618e+05
   3.973862e+05  -1.087789e+06
   1.203625e+06  -3.146180e+05
   7.090579e+05   5.580098e+05
  -6.743363e+05   6.334313e+05
  -1.546819e+06  -8.073412e+04
  -9.984841e+05  -8.317117e+05
   4.521265e+05  -9.742083e+05
   1.457534e+06  -4.891570e+05
   1.210672e+06   1.721179e+05
   1.388664e+05   5.024991e+05
  -6.278508e+05   2.698452e+05
  -3.689493e+05  -2.789293e+05
   5.713964e+05  -5.008430e+05
   1.145159e+06   8.406536e+04
   6.431819e+05   1.146643e+06
  -5.781465e+05   1.647815e+06
  -1.441461e+06   8.564945e+05
  -1.220977e+06  -7.346294e+05
  -2.015353e+05  -1.741276e+06
   7.155231e+05  -1.265503e+06
   9.021819e+05   1.618605e+05
   4.297264e+05   1.156304e+06
  -2.025704e+05   9.479294e+05
  -5.437607e+05   8.729138e+04
  -4.595389e+05  -3.674393e+05
  -1.651763e+05  -1.359531e+05
  -4.487444e+04   9.503998e+04
  -2.649222e+05  -2.803568e+05
  -4.957156e+05  -9.345443e+05
  -1.959055e+05  -1.049432e+06
   6.852552e+05  -3.887502e+05
   1.435690e+06   4.465356e+05
   1.252683e+06   8.091510e+05
   1.833451e+05   6.768928e+05
  -8.315891e+05   4.096401e+05
  -9.574169e+05   1.824468e+05
  -3.478709e+05  -4.686987e+04
   1.417579e+05  -2.191844e+05
   3.008417e+04  -2.025779e+05
  -2.613509e+05  -9.373263e+04
  -4.838019e+04  -1.289608e+05
   6.450499e+05  -2.306097e+05
   1.016548e+06   5.878055e+03
   4.205366e+05   6.682004e+05
  -8.126705e+05   1.147182e+06
  -1.644789e+06   7.445653e+05
  -1.371056e+06  -4.101294e+05
  -2.756168e+05  -1.364772e+06
   7.358448e+05  -1.341651e+06
   1.015864e+06  -5.292230e+05
   6.382671e+05   2.221137e+05
   1.320870e+05   3.470197e+05
  -6.816330e+04   6.375665e+04
   7.918696e+04  -1.764398e+04
   2.950478e+05   3.557510e+05
   2.458430e+05   7.843729e+05
  -1.691105e+05   6.613421e+05
  -6.623747e+05  -1.120857e+05
  -7.258238e+05  -9.177297e+05
  -1.224357e+05  -1.000724e+06
   7.280179e+05  -2.482919e+05
   1.011907e+06   6.894587e+05
   3.494786e+05   1.055449e+06
  -6.861773e+05   6.661394e+05
  -1.088584e+06  -6.170042e+04
  -5.237327e+05  -5.914752e+05
   2.723723e+05  -6.635924e+05
   3.670759e+05  -3.620535e+05
  -2.381362e+05  -6.639672e+03
  -6.302970e+05   4.410562e+04
  -1.461863e+05  -2.982735e+05
   7.966814e+05  -6.666063e+05
   1.222107e+06  -5.346832e+05
   7.455872e+05   1.669941e+05
  -8.537222e+04   8.468057e+05
  -5.311240e+05   8.388985e+05
  -4.144835e+05   1.641019e+05
  -5.797853e+04  -4.635802e+05
   2.273417e+05  -4.270327e+05
   3.427675e+05   1.367649e+05
   2.530660e+05   5.584929e+05
  -4.553511e+04   4.184455e+05
  -3.803205e+05  -3.807643e+04
  -4.666941e+05  -2.700784e+05
  -2.371532e+05  -9.336151e+04
   3.708595e+04   1.477410e+05
   8.213064e+04   4.658451e+04
  -1.940082e+04  -3.402554e+05
   3.520926e+04  -5.375739e+05
   3.041417e+05  -2.217445e+05
   4.533570e+05   3.584657e+05
   1.657879e+05   6.260297e+05
  -3.911290e+05   3.117323e+05
  -6.510773e+05  -2.612576e+05
  -2.548432e+05  -5.527129e+05
   4.905083e+05  -3.617246e+05
   8.610472e+05   6.133707e+04
   4.711679e+05   3.615328e+05
  -2.805694e+05   3.956563e+05
  -6.192295e+05   2.331342e+05
  -2.466991e+05   2.198056e+04
   3.301197e+05  -7.324630e+04
   3.941137e+05   5.238899e+04
  -1.563749e+05   2.811954e+05
  -7.124289e+05   2.715466e+05
