
 $NMID
 id='ANONYMOUS ', fmtdat='(2E16.6)'
 volume=1.0
 tramp=1.0
 $END
  -5.677836e+07  -1.561506e+06
  -3.268279e+07  -3.627278e+07
   8.951382e+06  -3.800379e+07
   2.796315e+07  -1.350979e+07
   1.586577e+07   7.721680e+06
  -3.739812e+06   9.085878e+06
  -9.543710e+06  -1.685630e+06
  -2.268290e+06  -9.704996e+06
   6.384734e+06  -8.845194e+06
   9.533774e+06  -1.589247e+06
   6.837417e+06   6.304494e+06
   7.107652e+05   8.544957e+06
  -4.048841e+06   2.729647e+06
  -2.617934e+06  -5.305340e+06
   3.780925e+06  -6.274490e+06
   7.730129e+06   1.592307e+06
   4.131690e+06   1.025911e+07
  -4.084586e+06   1.164094e+07
  -1.028050e+07   5.675806e+06
  -1.088229e+07  -2.301206e+06
  -6.572384e+06  -7.788574e+06
  -4.267635e+05  -8.899128e+06
   3.318479e+06  -6.022964e+06
   2.118569e+06  -2.353172e+06
  -1.145894e+06  -1.794984e+06
  -4.478047e+05  -4.069301e+06
   5.275393e+06  -4.502639e+06
   9.638397e+06  -5.895921e+05
   7.069383e+06   4.168299e+06
   3.053587e+05   5.208657e+06
  -3.706707e+06   2.763187e+06
  -2.645076e+06   1.461135e+05
   2.844585e+05  -1.003037e+06
   2.091642e+06  -7.404071e+05
   2.315650e+06   1.218067e+06
   8.935118e+05   3.924290e+06
  -1.842757e+06   3.937529e+06
  -3.446974e+06  -1.526837e+05
  -1.765215e+06  -3.819539e+06
   9.676081e+05  -2.070320e+06
   5.442895e+05   2.400032e+06
  -2.371593e+06   2.242230e+06
  -2.308795e+06  -3.232141e+06
   2.687032e+06  -5.978522e+06
   7.085246e+06  -6.748560e+05
   4.932795e+06   7.177545e+06
  -2.224807e+06   8.492915e+06
  -7.517347e+06   2.240128e+06
  -6.781344e+06  -4.503352e+06
  -1.689291e+06  -5.908705e+06
   3.419237e+06  -2.567018e+06
   5.055121e+06   1.565119e+06
   2.247365e+06   3.413946e+06
  -2.465688e+06   2.060593e+06
  -4.448157e+06  -1.044689e+06
  -1.830098e+06  -2.744276e+06
   1.751041e+06  -1.314790e+06
   1.665040e+06   1.013436e+06
  -1.343796e+06   7.551045e+05
  -2.290177e+06  -1.911838e+06
   9.102042e+05  -3.376929e+06
   4.762022e+06  -1.641097e+06
   5.189937e+06   1.579166e+06
   2.149709e+06   4.030468e+06
  -1.843572e+06   5.241557e+06
  -4.965018e+06   4.848237e+06
  -6.192638e+06   1.749677e+06
  -4.614970e+06  -3.190789e+06
  -9.292607e+05  -6.156949e+06
   1.895723e+06  -4.633076e+06
   1.701641e+06  -1.053142e+06
  -1.103541e+04   2.955045e+05
  -2.041938e+05  -1.091069e+06
   1.534496e+06  -1.963400e+06
   2.863225e+06  -3.959466e+05
   2.154141e+06   1.828879e+06
   1.682197e+05   2.142122e+06
  -1.471292e+06   3.169851e+05
  -1.699832e+06  -1.937239e+06
  -7.605589e+04  -2.889034e+06
   2.739886e+06  -1.703912e+06
   4.505208e+06   1.157488e+06
   3.233806e+06   3.801297e+06
  -9.987665e+04   4.277147e+06
  -2.366877e+06   2.694985e+06
  -2.272496e+06   1.056958e+06
  -1.799487e+06   6.086459e+05
  -2.858427e+06   4.464494e+05
  -4.248390e+06  -7.429715e+05
  -3.421875e+06  -2.692299e+06
  -1.613029e+05  -4.035020e+06
   3.090630e+06  -3.867973e+06
   4.076009e+06  -2.177381e+06
   2.666607e+06   3.480607e+05
   3.614816e+05   2.225505e+06
  -1.042062e+06   1.971060e+06
  -5.759849e+05  -1.748560e+04
   1.047403e+06  -1.320331e+06
   1.885675e+06  -4.052760e+05
   9.325645e+05   1.205387e+06
  -4.782084e+05   1.113525e+06
  -3.882529e+05  -3.536809e+05
   1.039699e+06  -5.988262e+05
   1.724901e+06   1.356215e+06
   4.945557e+05   3.391666e+06
  -1.611050e+06   3.179485e+06
  -2.990136e+06   9.461765e+05
  -3.118110e+06  -1.401638e+06
  -2.189578e+06  -2.587717e+06
  -4.849405e+05  -2.488439e+06
   1.179235e+06  -1.458226e+06
   1.544760e+06  -2.635797e+05
   4.839346e+05   3.923775e+04
  -3.567222e+05  -7.351338e+05
   4.193934e+05  -1.323940e+06
   1.896997e+06  -5.649125e+05
   1.997367e+06   8.894852e+05
   3.605663e+05   1.397052e+06
  -1.147103e+06   5.572354e+05
  -8.529867e+05  -4.250131e+05
   8.154637e+05  -4.688819e+05
   2.075204e+06   3.144371e+05
   1.666372e+06   1.269958e+06
  -2.237604e+05   1.874098e+06
  -2.218982e+06   1.619524e+06
  -2.706090e+06   2.908835e+05
  -1.199372e+06  -1.247550e+06
   9.170775e+05  -1.498670e+06
   1.562073e+06  -1.858004e+05
   2.106925e+05   1.086210e+06
  -1.494145e+06   7.396685e+05
  -1.683391e+06  -7.644856e+05
  -3.183029e+05  -1.605069e+06
   1.066735e+06  -9.270723e+05
   1.206621e+06   3.225184e+05
   2.157735e+05   7.595884e+05
  -7.955096e+05   4.418484e+04
  -7.387519e+05  -1.039503e+06
   5.492447e+05  -1.417777e+06
   1.974970e+06  -5.660649e+05
   2.022408e+06   1.011721e+06
   3.947686e+05   2.042345e+06
  -1.411890e+06   1.622376e+06
  -1.692417e+06   2.081707e+05
  -4.854534e+05  -8.479701e+05
   6.420056e+05  -7.838336e+05
   6.076515e+05  -9.336094e+04
  -1.067554e+05   3.184439e+05
  -4.380461e+05   1.968363e+05
  -8.125340e+04  -2.284185e+04
   4.360451e+05   1.275276e+05
   4.779731e+05   6.776187e+05
  -2.192249e+05   1.157424e+06
  -1.354274e+06   8.802838e+05
  -2.047299e+06  -3.917219e+05
  -1.459853e+06  -1.899057e+06
   1.828921e+05  -2.375076e+06
   1.552785e+06  -1.384896e+06
   1.626565e+06   1.080487e+05
   8.323257e+05   8.278711e+05
   3.428076e+05   5.798890e+05
   5.182338e+05   1.980659e+05
   6.418846e+05   3.344971e+05
   8.733186e+04   7.730406e+05
  -8.572776e+05   8.804264e+05
  -1.400116e+06   3.207016e+05
  -1.018133e+06  -6.759123e+05
   2.274441e+05  -1.397804e+06
   1.662792e+06  -1.053185e+06
   2.197019e+06   4.491484e+05
   1.115034e+06   2.044602e+06
  -9.932521e+05   2.318097e+06
  -2.492229e+06   1.007852e+06
  -2.283524e+06  -6.417180e+05
  -9.134834e+05  -1.279822e+06
   1.909187e+05  -8.842907e+05
   3.336215e+05  -4.909714e+05
   2.976091e+04  -7.726995e+05
   8.427643e+04  -1.324210e+06
   6.645175e+05  -1.287206e+06
   1.284531e+06  -3.248180e+05
   1.334405e+06   1.047111e+06
   5.735531e+05   1.854806e+06
  -5.900365e+05   1.421295e+06
  -1.255980e+06   8.722487e+03
  -7.958504e+05  -1.258753e+06
   3.899555e+05  -1.363408e+06
   1.144493e+06  -3.704836e+05
   7.817196e+05   7.152943e+05
  -1.492467e+05   1.061032e+06
  -5.481286e+05   7.472164e+05
  -8.346774e+04   3.868752e+05
   4.409023e+05   3.210978e+05
   6.979609e+04   3.752792e+05
  -1.134381e+06   2.074452e+05
  -2.041917e+06  -3.201216e+05
  -1.592900e+06  -1.011277e+06
   5.199773e+04  -1.412123e+06
   1.577126e+06  -1.129911e+06
   1.794541e+06  -2.724216e+05
   7.981420e+05   4.991908e+05
  -2.696143e+05   5.680444e+05
  -5.022979e+05   2.243770e+04
  -3.345644e+04  -4.362953e+05
   4.252849e+05  -2.710504e+05
   4.817436e+05   3.310001e+05
   2.855435e+05   7.139608e+05
   1.232617e+05   4.807583e+05
   1.215576e+05  -8.064019e+04
   2.411293e+05  -2.817727e+05
   2.676483e+05   2.245527e+05
  -1.092289e+05   9.697112e+05
  -8.726883e+05   1.063484e+06
  -1.372769e+06   1.909344e+05
  -8.789280e+05  -9.016833e+05
   4.044862e+05  -1.148194e+06
   1.260849e+06  -3.641729e+05
   7.377721e+05   5.464359e+05
  -6.845771e+05   6.377327e+05
  -1.541978e+06  -8.133979e+04
  -9.611507e+05  -8.228100e+05
   4.761260e+05  -9.423407e+05
   1.438451e+06  -4.565143e+05
   1.178807e+06   1.781434e+05
   1.280571e+05   4.894350e+05
  -6.307853e+05   2.584027e+05
  -3.862341e+05  -2.966730e+05
   5.604481e+05  -5.430374e+05
   1.177914e+06   3.971337e+04
   7.125005e+05   1.151391e+06
  -5.232124e+05   1.711670e+06
  -1.437259e+06   9.260072e+05
  -1.255914e+06  -7.105363e+05
  -2.397999e+05  -1.751901e+06
   6.959661e+05  -1.268542e+06
   8.970583e+05   1.742592e+05
   4.219506e+05   1.156337e+06
  -2.192509e+05   9.278305e+05
  -5.536287e+05   7.695543e+04
  -4.460330e+05  -3.489015e+05
  -1.433854e+05  -1.149574e+05
  -5.181029e+04   8.353220e+04
  -3.064698e+05  -3.149526e+05
  -5.277797e+05  -9.518734e+05
  -1.809162e+05  -1.038329e+06
   7.249215e+05  -3.818595e+05
   1.452605e+06   4.261878e+05
   1.245222e+06   7.865102e+05
   1.890103e+05   6.870979e+05
  -8.065164e+05   4.414608e+05
  -9.500956e+05   1.923245e+05
  -3.707182e+05  -6.854286e+04
   1.295743e+05  -2.313445e+05
   5.526970e+04  -1.753272e+05
  -2.366970e+05  -5.694227e+04
  -6.650298e+04  -1.328175e+05
   6.150040e+05  -2.738038e+05
   1.039164e+06  -2.209233e+04
   4.904139e+05   6.957105e+05
  -7.756807e+05   1.213342e+06
  -1.688675e+06   8.038378e+05
  -1.451456e+06  -3.857262e+05
  -3.225757e+05  -1.377741e+06
   7.349363e+05  -1.383452e+06
   1.030198e+06  -5.811287e+05
   6.540273e+05   1.904797e+05
   1.563469e+05   3.559484e+05
  -4.426795e+04   9.928513e+04
   8.264257e+04   9.674129e+03
   2.850458e+05   3.599490e+05
   2.498028e+05   7.857547e+05
  -1.540518e+05   6.849300e+05
  -6.763514e+05  -7.340035e+04
  -7.855240e+05  -9.006898e+05
  -1.827666e+05  -1.031744e+06
   7.250353e+05  -3.090711e+05
   1.064736e+06   6.513259e+05
   3.991177e+05   1.074628e+06
  -6.865987e+05   7.186511e+05
  -1.127556e+06  -3.616461e+04
  -5.552441e+05  -6.207815e+05
   2.767938e+05  -7.103037e+05
   3.965546e+05  -3.722411e+05
  -2.149556e+05   2.199322e+04
  -6.325906e+05   6.616808e+04
  -1.633440e+05  -3.099194e+05
   7.933856e+05  -6.888952e+05
   1.247914e+06  -5.344168e+05
   7.828048e+05   1.904805e+05
  -7.076701e+04   8.752397e+05
  -5.541147e+05   8.657176e+05
  -4.573289e+05   1.866795e+05
  -9.030054e+04  -4.626485e+05
   2.220587e+05  -4.579133e+05
   3.596053e+05   1.026992e+05
   2.739716e+05   5.623358e+05
  -3.905203e+04   4.547347e+05
  -3.929562e+05  -1.840298e+04
  -4.825562e+05  -2.877148e+05
  -2.366688e+05  -1.075824e+05
   4.706104e+04   1.768387e+05
   6.796532e+04   9.188259e+04
  -7.342618e+04  -3.413930e+05
  -2.072532e+04  -5.988011e+05
   3.051674e+05  -2.906649e+05
   5.189622e+05   3.340364e+05
   2.347725e+05   6.464372e+05
  -3.810705e+05   3.450438e+05
  -6.936102e+05  -2.387703e+05
  -2.904040e+05  -5.497246e+05
   5.004742e+05  -3.797118e+05
   8.981988e+05   3.619500e+04
   4.958257e+05   3.591700e+05
  -2.840710e+05   4.300280e+05
  -6.414860e+05   2.746155e+05
  -2.744722e+05   2.428512e+04
   3.107363e+05  -1.167678e+05
   4.011184e+05   7.468129e+03
  -1.195516e+05   2.795973e+05
  -6.757419e+05   3.090763e+05
