
 $NMID
 id='ANONYMOUS ', fmtdat='(2E16.6)'
 volume=1.0
 tramp=1.0
 $END
  -4.098241e+07  -7.530952e+05
  -2.499334e+07  -2.424471e+07
   4.471530e+06  -2.723900e+07
   1.972718e+07  -1.208118e+07
   1.276620e+07   3.532485e+06
  -1.641745e+06   6.951416e+06
  -7.512058e+06   2.062275e+05
  -3.051927e+06  -7.059070e+06
   3.993478e+06  -7.971307e+06
   7.279560e+06  -2.296161e+06
   5.432334e+06   4.844821e+06
   5.248589e+05   6.920904e+06
  -3.234036e+06   1.882286e+06
  -2.156676e+06  -4.876426e+06
   2.778670e+06  -5.716568e+06
   6.056138e+06   6.109149e+05
   3.612210e+06   7.691980e+06
  -2.683245e+06   9.007853e+06
  -7.581385e+06   4.324478e+06
  -7.873560e+06  -1.876901e+06
  -4.337320e+06  -5.611202e+06
  -1.132743e+05  -5.819484e+06
   1.656665e+06  -3.863188e+06
   2.209056e+05  -2.292511e+06
  -1.524336e+06  -2.787715e+06
   2.567202e+05  -4.111044e+06
   5.198158e+06  -3.288583e+06
   8.139693e+06   3.325165e+05
   5.320319e+06   3.722245e+06
  -5.661240e+05   3.892994e+06
  -3.649730e+06   1.437631e+06
  -1.910008e+06  -8.543579e+05
   1.478383e+06  -1.343208e+06
   2.932653e+06  -1.162991e+05
   1.922947e+06   2.091317e+06
  -1.280484e+05   3.722447e+06
  -1.783175e+06   2.721756e+06
  -1.976093e+06  -6.658941e+05
  -6.044783e+05  -2.731818e+06
   6.249333e+05  -7.008313e+05
  -2.119358e+05   2.643582e+06
  -2.197939e+06   2.097894e+06
  -2.049773e+06  -2.312536e+06
   1.325818e+06  -4.593258e+06
   4.548062e+06  -9.123302e+05
   3.593133e+06   4.871020e+06
  -1.212668e+06   6.144458e+06
  -5.531787e+06   1.737864e+06
  -5.686075e+06  -3.494205e+06
  -1.836041e+06  -4.952251e+06
   2.786625e+06  -2.506818e+06
   4.620662e+06   9.623566e+05
   2.397034e+06   2.742253e+06
  -1.648586e+06   1.867070e+06
  -3.538837e+06  -5.310927e+05
  -1.666686e+06  -1.985334e+06
   1.266786e+06  -1.071371e+06
   1.583845e+06   7.927768e+05
  -6.705223e+05   1.029181e+06
  -1.989396e+06  -7.113216e+05
  -1.914740e+05  -2.187282e+06
   2.890062e+06  -1.588941e+06
   3.958113e+06   5.819686e+05
   1.936209e+06   2.824749e+06
  -1.624887e+06   4.148742e+06
  -4.497164e+06   3.759848e+06
  -5.174240e+06   1.061750e+06
  -3.396642e+06  -2.847811e+06
  -4.902724e+05  -5.104564e+06
   1.369932e+06  -4.056397e+06
   1.244930e+06  -1.478771e+06
   4.495010e+05  -3.390210e+05
   7.503056e+05  -9.763151e+05
   2.028300e+06  -1.133529e+06
   2.606709e+06   4.587859e+05
   1.528894e+06   2.270836e+06
  -4.264265e+05   2.152071e+06
  -1.788785e+06   3.183979e+04
  -1.596717e+06  -2.204913e+06
   2.029524e+05  -2.735214e+06
   2.562464e+06  -1.177492e+06
   3.630911e+06   1.377515e+06
   2.326810e+06   3.191326e+06
  -2.147680e+05   3.200701e+06
  -1.731993e+06   1.954278e+06
  -1.599139e+06   9.302275e+05
  -1.455012e+06   7.496605e+05
  -2.608099e+06   5.523815e+05
  -3.900335e+06  -6.385785e+05
  -3.137648e+06  -2.510085e+06
  -7.044223e+04  -3.785370e+06
   3.083384e+06  -3.506089e+06
   3.987922e+06  -1.702106e+06
   2.371715e+06   6.720737e+05
  -4.949200e+04   2.125885e+06
  -1.240998e+06   1.635858e+06
  -4.886474e+05  -1.281445e+05
   1.101547e+06  -1.137800e+06
   1.705152e+06  -2.979468e+05
   7.098736e+05   1.084313e+06
  -5.809984e+05   1.020551e+06
  -5.338039e+05  -3.494786e+05
   7.812534e+05  -8.613161e+05
   1.706580e+06   6.988361e+05
   9.993543e+05   2.887841e+06
  -9.287467e+05   3.370466e+06
  -2.724058e+06   1.565244e+06
  -3.324487e+06  -1.055092e+06
  -2.412059e+06  -2.689353e+06
  -4.673481e+05  -2.615506e+06
   1.254307e+06  -1.352240e+06
   1.516391e+06  -1.218380e+05
   4.579520e+05   5.436547e+04
  -3.230990e+05  -7.010269e+05
   3.530766e+05  -1.179752e+06
   1.670750e+06  -4.958720e+05
   1.822225e+06   7.613230e+05
   3.863950e+05   1.246411e+06
  -1.073495e+06   5.411938e+05
  -9.027404e+05  -4.336605e+05
   7.454339e+05  -6.107420e+05
   2.150762e+06   1.737688e+05
   1.813309e+06   1.305207e+06
  -1.684843e+05   1.981689e+06
  -2.212255e+06   1.607945e+06
  -2.615174e+06   2.320449e+05
  -1.098477e+06  -1.151337e+06
   8.434011e+05  -1.297565e+06
   1.356640e+06  -1.286262e+05
   1.150879e+05   9.536600e+05
  -1.404980e+06   6.358248e+05
  -1.594690e+06  -7.162331e+05
  -3.689872e+05  -1.539357e+06
   9.679924e+05  -9.809298e+05
   1.197342e+06   2.084417e+05
   2.958911e+05   7.009854e+05
  -6.907194e+05   5.489617e+04
  -6.413908e+05  -9.795631e+05
   5.888598e+05  -1.295886e+06
   1.887775e+06  -4.296912e+05
   1.855234e+06   1.036783e+06
   3.132146e+05   1.925504e+06
  -1.341791e+06   1.500630e+06
  -1.600431e+06   1.958363e+05
  -4.879050e+05  -8.025157e+05
   6.115227e+05  -7.602950e+05
   6.426138e+05  -5.094007e+04
  -7.977492e+04   4.265306e+05
  -5.404085e+05   2.746137e+05
  -2.591961e+05  -9.619934e+04
   3.473076e+05  -5.088955e+04
   5.192680e+05   5.360686e+05
  -1.417531e+05   1.088867e+06
  -1.281060e+06   8.291339e+05
  -1.933422e+06  -4.145462e+05
  -1.321740e+06  -1.837620e+06
   2.559691e+05  -2.276838e+06
   1.554807e+06  -1.353667e+06
   1.648590e+06   1.040340e+05
   8.834064e+05   9.250499e+05
   3.075798e+05   7.740167e+05
   3.549471e+05   3.074072e+05
   4.834457e+05   2.644946e+05
   5.840610e+04   6.511114e+05
  -8.067778e+05   8.437866e+05
  -1.383075e+06   3.260465e+05
  -1.038658e+06  -7.189370e+05
   2.207372e+05  -1.445104e+06
   1.645291e+06  -1.027038e+06
   2.127974e+06   4.837207e+05
   1.066639e+06   1.974511e+06
  -9.179586e+05   2.190409e+06
  -2.345756e+06   9.695319e+05
  -2.228355e+06  -5.856214e+05
  -9.811278e+05  -1.274685e+06
   1.556983e+05  -9.813302e+05
   4.484841e+05  -5.556559e+05
   2.142510e+05  -6.852627e+05
   1.823574e+05  -1.139644e+06
   6.300896e+05  -1.133808e+06
   1.176314e+06  -2.533334e+05
   1.209238e+06   1.046994e+06
   4.694126e+05   1.789914e+06
  -6.248270e+05   1.331385e+06
  -1.212517e+06  -1.414886e+04
  -7.568838e+05  -1.182850e+06
   3.347993e+05  -1.295294e+06
   1.030754e+06  -4.300467e+05
   7.415246e+05   5.593882e+05
  -5.884238e+04   9.463976e+05
  -4.233970e+05   7.389317e+05
  -5.152587e+04   4.286072e+05
   3.792818e+05   3.439238e+05
   3.557657e+04   3.682902e+05
  -1.046876e+06   1.862978e+05
  -1.878084e+06  -3.328701e+05
  -1.492403e+06  -9.719804e+05
   5.154445e+03  -1.300647e+06
   1.441598e+06  -1.017247e+06
   1.697699e+06  -2.649600e+05
   7.958873e+05   4.031705e+05
  -2.233416e+05   4.920194e+05
  -4.604050e+05   5.379547e+04
   1.758779e+03  -3.467700e+05
   4.447471e+05  -2.168982e+05
   4.340372e+05   3.319532e+05
   1.632771e+05   6.958871e+05
   2.557135e+04   4.517630e+05
   1.394967e+05  -1.246948e+05
   3.147383e+05  -3.139934e+05
   2.642147e+05   2.179535e+05
  -1.832462e+05   9.388657e+05
  -8.624442e+05   9.684259e+05
  -1.211522e+06   1.006352e+05
  -7.121727e+05  -8.739233e+05
   4.111433e+05  -1.005926e+06
   1.145092e+06  -2.367324e+05
   6.652925e+05   5.708364e+05
  -6.589542e+05   6.046181e+05
  -1.514261e+06  -9.539635e+04
  -9.992642e+05  -8.219818e+05
   4.248040e+05  -9.667516e+05
   1.437198e+06  -4.930072e+05
   1.205916e+06   1.690181e+05
   1.422195e+05   5.006849e+05
  -6.112383e+05   2.650240e+05
  -3.381390e+05  -2.667023e+05
   5.845320e+05  -4.503550e+05
   1.102374e+06   1.413344e+05
   5.558096e+05   1.142360e+06
  -6.471182e+05   1.564455e+06
  -1.440434e+06   7.628958e+05
  -1.161492e+06  -7.615850e+05
  -1.415633e+05  -1.704989e+06
   7.312196e+05  -1.230672e+06
   8.806134e+05   1.571075e+05
   4.127232e+05   1.132835e+06
  -1.898982e+05   9.362553e+05
  -5.214037e+05   8.493521e+04
  -4.608777e+05  -3.763695e+05
  -1.835424e+05  -1.465944e+05
  -3.616655e+04   1.000957e+05
  -2.117548e+05  -2.591672e+05
  -4.419755e+05  -9.130375e+05
  -1.944177e+05  -1.033066e+06
   6.392615e+05  -3.670293e+05
   1.388780e+06   4.747607e+05
   1.226622e+06   8.223723e+05
   1.637350e+05   6.565191e+05
  -8.466950e+05   3.704660e+05
  -9.463657e+05   1.606374e+05
  -3.145588e+05  -3.783573e+04
   1.545052e+05  -2.055342e+05
   3.592084e+03  -2.136553e+05
  -2.845753e+05  -1.188607e+05
  -2.965125e+04  -1.281522e+05
   6.694744e+05  -1.896021e+05
   9.817350e+05   4.706461e+04
   3.374364e+05   6.533503e+05
  -8.559737e+05   1.065841e+06
  -1.594947e+06   6.470114e+05
  -1.274133e+06  -4.585210e+05
  -2.105541e+05  -1.338333e+06
   7.466203e+05  -1.267597e+06
   1.000584e+06  -4.580303e+05
   6.162512e+05   2.551145e+05
   1.023915e+05   3.395986e+05
  -9.666886e+04   3.815623e+04
   6.748951e+04  -3.820030e+04
   2.913483e+05   3.449540e+05
   2.272892e+05   7.692503e+05
  -1.918711e+05   6.285246e+05
  -6.444632e+05  -1.533343e+05
  -6.530270e+05  -9.353084e+05
  -4.923675e+04  -9.692957e+05
   7.328172e+05  -1.840349e+05
   9.465353e+05   7.314160e+05
   2.824986e+05   1.032494e+06
  -6.918313e+05   5.988304e+05
  -1.037140e+06  -1.047367e+05
  -4.707478e+05  -5.679705e+05
   2.825898e+05  -6.050525e+05
   3.410510e+05  -3.331846e+05
  -2.594732e+05  -2.710225e+04
  -6.202797e+05   1.663532e+04
  -1.219217e+05  -2.879639e+05
   7.949619e+05  -6.241833e+05
   1.178853e+06  -5.014021e+05
   6.892818e+05   1.622028e+05
  -1.131344e+05   8.065249e+05
  -5.167679e+05   7.849608e+05
  -3.771123e+05   1.253069e+05
  -2.443096e+04  -4.629411e+05
   2.397268e+05  -3.901805e+05
   3.282180e+05   1.705574e+05
   2.222039e+05   5.510004e+05
  -6.441743e+04   3.797432e+05
  -3.658043e+05  -6.146277e+04
  -4.349257e+05  -2.588839e+05
  -2.272694e+05  -8.203159e+04
   1.849837e+04   1.231439e+05
   7.958582e+04   4.945402e+03
   3.046927e+04  -3.459885e+05
   1.035968e+05  -4.884815e+05
   3.171101e+05  -1.552602e+05
   3.904058e+05   3.933085e+05
   9.162218e+04   6.148013e+05
  -4.030328e+05   2.748139e+05
  -6.035044e+05  -2.929510e+05
  -2.135839e+05  -5.549376e+05
   4.799743e+05  -3.300068e+05
   8.162298e+05   1.008929e+05
   4.361473e+05   3.673059e+05
  -2.849729e+05   3.536657e+05
  -6.001734e+05   1.799663e+05
  -2.187236e+05   9.303928e+03
   3.510994e+05  -3.643495e+04
   3.904668e+05   9.521470e+04
  -1.864537e+05   2.839537e+05
  -7.398602e+05   2.352351e+05
