
 $NMID
 id='ANONYMOUS ', fmtdat='(2E16.6)'
 volume=1.0
 tramp=1.0
 $END
  -4.551888e+07   1.686301e+06
  -2.891019e+07  -2.656115e+07
   4.212641e+06  -3.098419e+07
   2.177980e+07  -1.348476e+07
   1.405913e+07   4.475175e+06
  -2.028335e+06   7.806520e+06
  -8.250474e+06  -1.955522e+05
  -3.047824e+06  -7.876064e+06
   4.562646e+06  -8.333564e+06
   7.923461e+06  -2.303208e+06
   6.000964e+06   4.942050e+06
   8.807336e+05   7.211842e+06
  -3.264503e+06   2.285509e+06
  -2.349114e+06  -4.726460e+06
   2.913176e+06  -5.841906e+06
   6.592378e+06   6.726093e+05
   4.101458e+06   8.247883e+06
  -2.644993e+06   9.871161e+06
  -8.065892e+06   5.133839e+06
  -8.790732e+06  -1.437737e+06
  -5.407294e+06  -5.848509e+06
  -7.460536e+05  -6.736079e+06
   1.891667e+06  -4.811999e+06
   9.465526e+05  -2.490245e+06
  -1.176954e+06  -2.294135e+06
  -7.286726e+04  -3.794163e+06
   4.768034e+06  -3.681329e+06
   8.219920e+06  -3.551586e+05
   5.872408e+06   3.413827e+06
   4.516273e+04   4.113560e+06
  -3.287056e+06   1.947113e+06
  -1.974866e+06  -2.819313e+05
   9.626495e+05  -9.779962e+05
   2.358053e+06  -2.656742e+05
   1.879070e+06   1.561650e+06
   3.555909e+05   3.474602e+06
  -1.515630e+06   3.107513e+06
  -2.405464e+06  -1.898598e+05
  -1.231465e+06  -2.862030e+06
   5.235190e+05  -1.277143e+06
   9.256655e+04   2.307758e+06
  -2.121142e+06   2.101649e+06
  -2.214045e+06  -2.515138e+06
   1.563086e+06  -5.146397e+06
   5.380860e+06  -1.191826e+06
   4.349647e+06   5.335770e+06
  -1.156763e+06   6.959093e+06
  -5.976780e+06   2.203895e+06
  -6.037567e+06  -3.517588e+06
  -1.876953e+06  -5.104796e+06
   2.875608e+06  -2.530683e+06
   4.672397e+06   1.051576e+06
   2.346710e+06   2.881473e+06
  -1.853185e+06   1.992410e+06
  -3.817294e+06  -5.447501e+05
  -1.783907e+06  -2.156667e+06
   1.355302e+06  -1.202107e+06
   1.580731e+06   8.168649e+05
  -9.412340e+05   9.752927e+05
  -2.200121e+06  -1.098714e+06
   6.558828e+04  -2.724410e+06
   3.484520e+06  -1.838575e+06
   4.418734e+06   7.368363e+05
   2.134742e+06   3.126030e+06
  -1.433896e+06   4.438214e+06
  -4.272885e+06   4.130211e+06
  -5.224559e+06   1.488305e+06
  -3.803030e+06  -2.636611e+06
  -8.481624e+05  -5.214373e+06
   1.392795e+06  -4.185105e+06
   1.418903e+06  -1.315049e+06
   3.328119e+05  -2.080750e+03
   3.022594e+05  -8.410245e+05
   1.597255e+06  -1.360124e+06
   2.462375e+06   2.868493e+04
   1.663809e+06   1.875824e+06
  -1.468302e+05   1.960368e+06
  -1.531890e+06   1.153337e+05
  -1.542683e+06  -1.960335e+06
   3.185861e+04  -2.626315e+06
   2.421673e+06  -1.383999e+06
   3.789736e+06   1.058448e+06
   2.701764e+06   3.127742e+06
   3.176189e+04   3.466524e+06
  -1.776876e+06   2.269905e+06
  -1.766655e+06   1.051529e+06
  -1.537989e+06   7.213725e+05
  -2.594166e+06   5.446980e+05
  -3.874658e+06  -5.616407e+05
  -3.152090e+06  -2.391166e+06
  -1.764655e+05  -3.689877e+06
   2.851156e+06  -3.513631e+06
   3.745034e+06  -1.862816e+06
   2.335023e+06   4.427359e+05
   1.537610e+05   2.003341e+06
  -1.035820e+06   1.674784e+06
  -4.853015e+05  -5.969806e+04
   9.888362e+05  -1.159198e+06
   1.677363e+06  -3.698838e+05
   7.939251e+05   1.041356e+06
  -4.881256e+05   9.993427e+05
  -4.533221e+05  -3.508574e+05
   8.788181e+05  -7.595843e+05
   1.735942e+06   9.118818e+05
   8.492795e+05   3.017840e+06
  -1.156276e+06   3.241093e+06
  -2.777539e+06   1.304943e+06
  -3.142435e+06  -1.143669e+06
  -2.216318e+06  -2.529188e+06
  -4.577354e+05  -2.431275e+06
   1.135167e+06  -1.330623e+06
   1.432724e+06  -1.917008e+05
   4.446871e+05   3.749352e+04
  -3.328329e+05  -6.730230e+05
   3.303189e+05  -1.194417e+06
   1.666833e+06  -5.492668e+05
   1.831550e+06   7.332721e+05
   3.915531e+05   1.247523e+06
  -1.044059e+06   5.427751e+05
  -8.420603e+05  -4.080796e+05
   7.530332e+05  -5.414381e+05
   2.039156e+06   2.131290e+05
   1.673736e+06   1.232810e+06
  -1.799649e+05   1.852617e+06
  -2.091616e+06   1.557085e+06
  -2.515147e+06   2.827720e+05
  -1.111524e+06  -1.109512e+06
   7.905195e+05  -1.335286e+06
   1.364697e+06  -1.888131e+05
   1.768724e+05   9.460714e+05
  -1.351981e+06   6.736910e+05
  -1.567722e+06  -6.730513e+05
  -3.550470e+05  -1.495896e+06
   9.600463e+05  -9.358004e+05
   1.162414e+06   2.317897e+05
   2.646734e+05   7.000392e+05
  -7.008208e+05   7.006383e+04
  -6.679872e+05  -9.360484e+05
   5.141520e+05  -1.282378e+06
   1.807796e+06  -4.948334e+05
   1.839508e+06   9.344507e+05
   3.665716e+05   1.864979e+06
  -1.273341e+06   1.500649e+06
  -1.556941e+06   2.201176e+05
  -4.777967e+05  -7.780664e+05
   5.837347e+05  -7.435657e+05
   5.908390e+05  -6.654649e+04
  -9.876458e+04   3.670844e+05
  -4.819349e+05   2.199229e+05
  -1.648638e+05  -8.582944e+04
   3.923671e+05   7.234972e+03
   5.035796e+05   5.686627e+05
  -1.458130e+05   1.076924e+06
  -1.233545e+06   8.327783e+05
  -1.886844e+06  -3.502618e+05
  -1.340316e+06  -1.741030e+06
   1.781227e+05  -2.198505e+06
   1.461792e+06  -1.315487e+06
   1.561940e+06   8.840089e+04
   8.145543e+05   8.405790e+05
   2.854798e+05   6.502789e+05
   3.904573e+05   2.209051e+05
   5.369966e+05   2.519732e+05
   9.144931e+04   6.641394e+05
  -7.749670e+05   8.329999e+05
  -1.321056e+06   3.236972e+05
  -9.806957e+05  -6.602177e+05
   2.062462e+05  -1.359470e+06
   1.559578e+06  -1.006215e+06
   2.052828e+06   4.161852e+05
   1.063851e+06   1.890527e+06
  -8.645736e+05   2.156357e+06
  -2.277172e+06   9.821858e+05
  -2.157237e+06  -5.508982e+05
  -9.193846e+05  -1.216203e+06
   1.675636e+05  -9.016129e+05
   3.848762e+05  -4.899842e+05
   1.100240e+05  -6.622468e+05
   9.587286e+04  -1.146499e+06
   5.802370e+05  -1.152229e+06
   1.150409e+06  -2.971431e+05
   1.211469e+06   9.666897e+05
   5.153733e+05   1.710103e+06
  -5.548186e+05   1.304352e+06
  -1.168455e+06   1.365967e+04
  -7.586044e+05  -1.143643e+06
   3.186369e+05  -1.271792e+06
   1.031838e+06  -4.118936e+05
   7.504505e+05   5.824496e+05
  -6.658423e+04   9.610828e+05
  -4.451671e+05   7.292006e+05
  -6.408547e+04   3.963658e+05
   3.857413e+05   3.054549e+05
   5.216631e+04   3.479698e+05
  -1.026916e+06   2.086922e+05
  -1.855054e+06  -2.697152e+05
  -1.476129e+06  -9.120838e+05
  -4.995749e+03  -1.290033e+06
   1.400617e+06  -1.047459e+06
   1.651492e+06  -2.855974e+05
   7.765438e+05   4.146807e+05
  -2.153624e+05   5.079889e+05
  -4.592956e+05   4.909459e+04
  -2.905700e+04  -3.610112e+05
   4.054385e+05  -2.296084e+05
   4.353886e+05   3.044479e+05
   2.139899e+05   6.500357e+05
   7.232264e+04   4.270071e+05
   1.308996e+05  -9.955396e+04
   2.716779e+05  -2.779226e+05
   2.558817e+05   2.071119e+05
  -1.311426e+05   8.968511e+05
  -8.018259e+05   9.698104e+05
  -1.203928e+06   1.675631e+05
  -7.575436e+05  -8.116223e+05
   3.580920e+05  -1.017813e+06
   1.115575e+06  -3.047198e+05
   6.642872e+05   5.165083e+05
  -6.269839e+05   5.988933e+05
  -1.451394e+06  -6.676146e+04
  -9.436556e+05  -7.789958e+05
   4.195903e+05  -9.219818e+05
   1.369303e+06  -4.682804e+05
   1.139883e+06   1.572164e+05
   1.327136e+05   4.728080e+05
  -5.881922e+05   2.582684e+05
  -3.482412e+05  -2.556340e+05
   5.286852e+05  -4.680293e+05
   1.066075e+06   7.191983e+04
   6.044105e+05   1.062559e+06
  -5.294028e+05   1.536317e+06
  -1.338473e+06   8.051168e+05
  -1.143318e+06  -6.793970e+05
  -1.974169e+05  -1.625982e+06
   6.645921e+05  -1.188399e+06
   8.488928e+05   1.457280e+05
   4.107514e+05   1.082538e+06
  -1.850139e+05   8.939372e+05
  -5.096867e+05   8.732523e+04
  -4.321857e+05  -3.450188e+05
  -1.552036e+05  -1.309881e+05
  -4.225239e+04   9.125975e+04
  -2.504992e+05  -2.531664e+05
  -4.697044e+05  -8.678860e+05
  -1.901433e+05  -9.856508e+05
   6.374059e+05  -3.740816e+05
   1.344987e+06   4.097587e+05
   1.177541e+06   7.540055e+05
   1.767734e+05   6.319726e+05
  -7.757248e+05   3.833113e+05
  -8.961177e+05   1.751695e+05
  -3.269889e+05  -3.711739e+04
   1.312500e+05  -2.038259e+05
   2.794504e+04  -1.956042e+05
  -2.434989e+05  -9.256137e+04
  -4.499611e+04  -1.181153e+05
   6.010036e+05  -2.126927e+05
   9.478557e+05  -8.824673e+02
   3.953686e+05   6.131440e+05
  -7.504690e+05   1.070245e+06
  -1.526671e+06   7.080931e+05
  -1.277905e+06  -3.687869e+05
  -2.640833e+05  -1.271242e+06
   6.768483e+05  -1.258650e+06
   9.418096e+05  -4.994840e+05
   5.946591e+05   2.053388e+05
   1.248647e+05   3.208826e+05
  -6.144807e+04   5.413027e+04
   7.709071e+04  -1.992532e+04
   2.802601e+05   3.325869e+05
   2.351444e+05   7.334067e+05
  -1.530803e+05   6.172470e+05
  -6.159164e+05  -1.028876e+05
  -6.787641e+05  -8.505305e+05
  -1.191496e+05  -9.275991e+05
   6.741481e+05  -2.313931e+05
   9.437119e+05   6.374583e+05
   3.319421e+05   9.798622e+05
  -6.330214e+05   6.241092e+05
  -1.014536e+06  -4.884442e+04
  -4.953718e+05  -5.449787e+05
   2.453403e+05  -6.202068e+05
   3.380956e+05  -3.443567e+05
  -2.220055e+05  -1.014562e+04
  -5.878970e+05   4.349304e+04
  -1.387358e+05  -2.756764e+05
   7.405940e+05  -6.275235e+05
   1.140370e+06  -5.119518e+05
   6.995719e+05   1.454461e+05
  -7.280398e+04   7.902310e+05
  -4.875984e+05   7.901824e+05
  -3.810537e+05   1.594842e+05
  -5.415412e+04  -4.305533e+05
   2.073439e+05  -3.983744e+05
   3.166386e+05   1.272240e+05
   2.392753e+05   5.192911e+05
  -3.638683e+04   3.885762e+05
  -3.533562e+05  -3.365568e+04
  -4.399321e+05  -2.468980e+05
  -2.246865e+05  -8.485872e+04
   3.825411e+04   1.344747e+05
   8.399951e+04   4.075768e+04
  -1.550105e+04  -3.123744e+05
   2.749092e+04  -4.920411e+05
   2.755006e+05  -2.036448e+05
   4.184163e+05   3.277320e+05
   1.554598e+05   5.759012e+05
  -3.617761e+05   2.904718e+05
  -6.055512e+05  -2.379460e+05
  -2.387626e+05  -5.127280e+05
   4.546685e+05  -3.417460e+05
   8.013877e+05   5.008460e+04
   4.414988e+05   3.333889e+05
  -2.562421e+05   3.700151e+05
  -5.722393e+05   2.212820e+05
  -2.283874e+05   2.522417e+04
   3.056694e+05  -6.442910e+04
   3.638721e+05   4.996527e+04
  -1.484527e+05   2.603778e+05
  -6.652251e+05   2.511875e+05
