
 $NMID
 id='ANONYMOUS ', fmtdat='(2E16.6)'
 volume=1.0
 tramp=1.0
 $END
   5.529639e+07   1.522394e+06
   3.221505e+07   3.466586e+07
  -8.085654e+06   3.686730e+07
  -2.703894e+07   1.392329e+07
  -1.585022e+07  -6.776051e+06
   3.285871e+06  -8.937338e+06
   9.488516e+06   1.153311e+06
   2.688205e+06   9.452405e+06
  -5.996015e+06   9.155748e+06
  -9.407474e+06   1.941680e+06
  -6.814415e+06  -6.251882e+06
  -6.799237e+05  -8.582240e+06
   4.058902e+06  -2.603576e+06
   2.640596e+06   5.560443e+06
  -3.698872e+06   6.537931e+06
  -7.687491e+06  -1.360840e+06
  -4.241147e+06  -1.008730e+07
   3.879081e+06  -1.154128e+07
   1.006158e+07  -5.598316e+06
   1.059609e+07   2.331409e+06
   6.233835e+06   7.594199e+06
   3.134639e+05   8.442954e+06
  -2.979195e+06   5.656580e+06
  -1.563701e+06   2.470392e+06
   1.411623e+06   2.285271e+06
   2.396833e+05   4.414934e+06
  -5.666493e+06   4.417916e+06
  -9.841447e+06   2.891788e+05
  -6.957753e+06  -4.341259e+06
   1.954051e+04  -5.132451e+06
   3.995619e+06  -2.481890e+06
   2.594378e+06   2.278604e+05
  -7.392756e+05   1.232219e+06
  -2.571334e+06   5.946913e+05
  -2.369981e+06  -1.621385e+06
  -6.003197e+05  -4.154313e+06
   1.962605e+06  -3.789915e+06
   3.169077e+06   3.700597e+05
   1.456521e+06   3.725925e+06
  -9.390047e+05   1.719328e+06
  -3.218001e+05  -2.688712e+06
   2.480779e+06  -2.368154e+06
   2.375626e+06   3.136052e+06
  -2.405505e+06   5.905916e+06
  -6.688268e+06   7.825440e+05
  -4.792783e+06  -6.895388e+06
   2.044912e+06  -8.271765e+06
   7.368643e+06  -2.213102e+06
   6.895832e+06   4.477915e+06
   1.874602e+06   5.999489e+06
  -3.440665e+06   2.735095e+06
  -5.271429e+06  -1.456906e+06
  -2.463414e+06  -3.409361e+06
   2.356405e+06  -2.124144e+06
   4.440892e+06   9.480771e+05
   1.890775e+06   2.668836e+06
  -1.712996e+06   1.313626e+06
  -1.755399e+06  -1.007366e+06
   1.196694e+06  -8.980395e+05
   2.331832e+06   1.620590e+06
  -5.974419e+05   3.177812e+06
  -4.436256e+06   1.723215e+06
  -5.114878e+06  -1.338924e+06
  -2.224707e+06  -3.888876e+06
   1.899989e+06  -5.243395e+06
   5.168686e+06  -4.832283e+06
   6.296351e+06  -1.637246e+06
   4.524807e+06   3.313144e+06
   8.402793e+05   6.240818e+06
  -1.838376e+06   4.763617e+06
  -1.640988e+06   1.283087e+06
  -1.349119e+05  -7.044605e+04
  -1.278655e+05   1.160884e+06
  -1.850427e+06   1.829574e+06
  -3.010216e+06   1.149587e+05
  -2.103409e+06  -2.140324e+06
   3.475352e+04  -2.320539e+06
   1.707041e+06  -2.432548e+05
   1.801351e+06   2.183205e+06
  -1.698238e+04   3.057485e+06
  -2.889286e+06   1.643905e+06
  -4.535208e+06  -1.328222e+06
  -3.148136e+06  -3.870583e+06
   1.539408e+05  -4.207654e+06
   2.314998e+06  -2.624481e+06
   2.192822e+06  -1.088411e+06
   1.803476e+06  -7.096215e+05
   2.982583e+06  -5.283120e+05
   4.448978e+06   7.486596e+05
   3.588043e+06   2.821661e+06
   1.516010e+05   4.254714e+06
  -3.316909e+06   4.046204e+06
  -4.356602e+06   2.183902e+06
  -2.768610e+06  -4.923718e+05
  -2.420210e+05  -2.367127e+06
   1.195118e+06  -2.002368e+06
   5.875356e+05   6.393579e+04
  -1.150250e+06   1.358050e+06
  -1.964798e+06   3.945597e+05
  -9.197845e+05  -1.256021e+06
   5.549165e+05  -1.163288e+06
   4.723803e+05   3.809965e+05
  -1.021571e+06   7.409343e+05
  -1.846609e+06  -1.214517e+06
  -7.221710e+05  -3.454599e+06
   1.467501e+06  -3.484263e+06
   3.104143e+06  -1.253275e+06
   3.429604e+06   1.361459e+06
   2.450689e+06   2.807049e+06
   5.289610e+05   2.723771e+06
  -1.291621e+06   1.537513e+06
  -1.652257e+06   2.368313e+05
  -5.104380e+05  -4.605490e+04
   3.730869e+05   7.802104e+05
  -4.279718e+05   1.373764e+06
  -1.960877e+06   5.829976e+05
  -2.085368e+06  -9.111833e+05
  -3.943684e+05  -1.449242e+06
   1.212074e+06  -5.943068e+05
   9.403470e+05   4.624291e+05
  -8.505429e+05   5.639344e+05
  -2.265234e+06  -2.754436e+05
  -1.856637e+06  -1.372167e+06
   2.112357e+05  -2.059153e+06
   2.381453e+06  -1.748458e+06
   2.879235e+06  -2.992963e+05
   1.254314e+06   1.305380e+06
  -9.605972e+05   1.539562e+06
  -1.605797e+06   1.778288e+05
  -1.900722e+05  -1.123094e+06
   1.577524e+06  -7.605737e+05
   1.781235e+06   8.030729e+05
   3.632019e+05   1.702179e+06
  -1.110344e+06   1.017507e+06
  -1.294500e+06  -3.051227e+05
  -2.595691e+05  -7.970787e+05
   8.233207e+05  -5.222157e+04
   7.662728e+05   1.100191e+06
  -6.030591e+05   1.489530e+06
  -2.097667e+06   5.679764e+05
  -2.122468e+06  -1.094069e+06
  -4.004999e+05  -2.156655e+06
   1.490888e+06  -1.705041e+06
   1.785887e+06  -2.221555e+05
   5.218853e+05   8.953456e+05
  -6.810200e+05   8.354058e+05
  -6.681826e+05   8.393824e+04
   1.042418e+05  -3.865749e+05
   5.109257e+05  -2.457572e+05
   1.571241e+05   4.991764e+04
  -4.342807e+05  -6.778347e+04
  -5.328320e+05  -6.727003e+05
   2.011256e+05  -1.221706e+06
   1.428012e+06  -9.359627e+05
   2.166191e+06   4.223359e+05
   1.529432e+06   2.018538e+06
  -2.153913e+05   2.522649e+06
  -1.667308e+06   1.484705e+06
  -1.758375e+06  -1.081105e+05
  -9.177664e+05  -9.209483e+05
  -3.604209e+05  -6.920440e+05
  -5.010973e+05  -2.516163e+05
  -6.354385e+05  -3.326713e+05
  -8.803378e+04  -7.870613e+05
   8.984627e+05  -9.391448e+05
   1.499345e+06  -3.569952e+05
   1.109642e+06   7.357901e+05
  -2.329832e+05   1.523922e+06
  -1.779333e+06   1.134183e+06
  -2.344141e+06  -4.866810e+05
  -1.191227e+06  -2.173394e+06
   1.035205e+06  -2.454185e+06
   2.627768e+06  -1.079328e+06
   2.440459e+06   6.632614e+05
   1.012208e+06   1.372467e+06
  -1.887935e+05   9.878960e+05
  -3.983091e+05   5.546969e+05
  -9.689219e+04   8.020549e+05
  -1.232226e+05   1.359547e+06
  -6.997103e+05   1.332001e+06
  -1.343375e+06   3.274363e+05
  -1.395371e+06  -1.123882e+06
  -5.858411e+05  -1.972911e+06
   6.441855e+05  -1.500291e+06
   1.337565e+06  -4.633306e+03
   8.471554e+05   1.326094e+06
  -3.956961e+05   1.444768e+06
  -1.190039e+06   4.239512e+05
  -8.294452e+05  -7.112313e+05
   1.246090e+05  -1.101478e+06
   5.429107e+05  -8.035253e+05
   7.728046e+04  -4.315641e+05
  -4.540718e+05  -3.514633e+05
  -6.519628e+04  -4.008790e+05
   1.188721e+06  -2.206526e+05
   2.141489e+06   3.410177e+05
   1.683293e+06   1.069472e+06
  -3.458978e+04   1.481735e+06
  -1.646442e+06   1.181838e+06
  -1.896800e+06   2.959994e+05
  -8.601303e+05  -5.008464e+05
   2.715085e+05  -5.852377e+05
   5.254963e+05  -3.756451e+04
   2.569319e+04   4.364544e+05
  -4.625088e+05   2.734566e+05
  -5.020522e+05  -3.542320e+05
  -2.662733e+05  -7.602452e+05
  -9.918614e+04  -5.064365e+05
  -1.363553e+05   1.035900e+05
  -2.853936e+05   3.171654e+05
  -2.897639e+05  -2.374181e+05
   1.387395e+05  -1.034179e+06
   9.320133e+05  -1.116119e+06
   1.420729e+06  -1.795560e+05
   8.906972e+05   9.576626e+05
  -4.334549e+05   1.187254e+06
  -1.314429e+06   3.514389e+05
  -7.701378e+05  -5.939982e+05
   7.251572e+05  -6.769560e+05
   1.649938e+06   8.683019e+04
   1.051558e+06   8.816112e+05
  -4.902019e+05   1.024883e+06
  -1.546439e+06   5.100067e+05
  -1.279859e+06  -1.842198e+05
  -1.446526e+05  -5.306825e+05
   6.718376e+05  -2.826196e+05
   3.999577e+05   3.079898e+05
  -6.105779e+05   5.538643e+05
  -1.241773e+06  -7.519286e+04
  -7.150309e+05  -1.234036e+06
   6.016364e+05  -1.791553e+06
   1.544717e+06  -9.432131e+05
   1.320244e+06   7.785558e+05
   2.291113e+05   1.867902e+06
  -7.573362e+05   1.354483e+06
  -9.607905e+05  -1.782120e+05
  -4.553383e+05  -1.235474e+06
   2.226244e+05  -1.003623e+06
   5.849666e+05  -8.809069e+04
   4.871018e+05   3.843647e+05
   1.691474e+05   1.352678e+05
   5.011168e+04  -9.584537e+04
   2.975328e+05   3.179546e+05
   5.407104e+05   1.009219e+06
   2.026094e+05   1.115752e+06
  -7.488034e+05   4.085064e+05
  -1.542281e+06  -4.713265e+05
  -1.336530e+06  -8.554304e+05
  -1.972134e+05  -7.280352e+05
   8.806988e+05  -4.524594e+05
   1.020899e+06  -1.990362e+05
   3.794801e+05   6.113798e+04
  -1.476648e+05   2.398206e+05
  -4.051865e+04   2.025432e+05
   2.724108e+05   8.291404e+04
   5.932110e+04   1.413860e+05
  -6.805301e+05   2.668425e+05
  -1.098397e+06   2.736405e+03
  -4.759551e+05  -7.317338e+05
   8.593752e+05  -1.255833e+06
   1.781398e+06  -8.154520e+05
   1.500339e+06   4.354999e+05
   3.122080e+05   1.467706e+06
  -7.901714e+05   1.451008e+06
  -1.096383e+06   5.858137e+05
  -6.915875e+05  -2.258511e+05
  -1.506027e+05  -3.770626e+05
   6.586629e+04  -8.514058e+04
  -8.384161e+04   7.154372e+03
  -3.106948e+05  -3.814558e+05
  -2.636103e+05  -8.397760e+05
   1.773344e+05  -7.179641e+05
   7.171403e+05   1.055536e+05
   8.011483e+05   9.794261e+05
   1.524544e+05   1.087373e+06
  -7.818367e+05   2.901974e+05
  -1.105769e+06  -7.258972e+05
  -3.918492e+05  -1.140047e+06
   7.380617e+05  -7.333161e+05
   1.181741e+06   5.908229e+04
   5.703803e+05   6.474362e+05
  -2.971714e+05   7.285654e+05
  -4.061482e+05   3.887689e+05
   2.466435e+05  -6.702939e+03
   6.762584e+05  -5.593836e+04
   1.623377e+05   3.249801e+05
  -8.522985e+05   7.211996e+05
  -1.317219e+06   5.680482e+05
  -8.102157e+05  -1.919203e+05
   8.819937e+04  -9.177904e+05
   5.799947e+05  -9.053465e+05
   4.627288e+05  -1.811885e+05
   7.525836e+04   4.974772e+05
  -2.433793e+05   4.695529e+05
  -3.758736e+05  -1.333515e+05
  -2.784609e+05  -6.002389e+05
   4.914099e+04  -4.628388e+05
   4.132155e+05   3.383643e+04
   5.036548e+05   2.977291e+05
   2.519258e+05   1.058449e+05
  -4.139044e+04  -1.710049e+05
  -7.817784e+04  -6.775207e+04
   4.297007e+04   3.683783e+05
  -1.950319e+04   6.044652e+05
  -3.310104e+05   2.654470e+05
  -5.135159e+05  -3.783521e+05
  -2.039828e+05  -6.830615e+05
   4.165619e+05  -3.476035e+05
   7.151894e+05   2.735450e+05
   2.871522e+05   5.924057e+05
  -5.300258e+05   3.929900e+05
  -9.377018e+05  -5.863337e+04
  -5.137032e+05  -3.877394e+05
   3.044388e+05  -4.366333e+05
   6.744951e+05  -2.640516e+05
   2.752588e+05  -2.200207e+04
  -3.482889e+05   9.757095e+04
  -4.274963e+05  -3.823708e+04
   1.519545e+05  -3.025609e+05
   7.491518e+05  -3.080568e+05
