
 $NMID
 id='ANONYMOUS ', fmtdat='(2E16.6)'
 volume=1.0
 tramp=1.0
 $END
   1.820855e+07  -1.275656e+06
   1.290648e+07   8.030463e+06
   6.683672e+05   1.180907e+07
  -7.665631e+06   8.081182e+06
  -6.729353e+06   8.921167e+05
  -5.152380e+05  -3.364564e+06
   3.722913e+06  -1.726237e+06
   2.894357e+06   2.906524e+06
  -7.471694e+05   5.058733e+06
  -3.382284e+06   2.364880e+06
  -3.066229e+06  -2.194922e+06
  -5.580537e+05  -3.760092e+06
   1.682943e+06  -8.961678e+05
   1.499445e+06   3.040031e+06
  -9.454734e+05   3.738225e+06
  -3.082342e+06   4.789892e+05
  -2.467529e+06  -3.491139e+06
   5.873512e+05  -4.614975e+06
   3.356630e+06  -2.390099e+06
   3.606329e+06   7.898254e+05
   1.723466e+06   2.407635e+06
  -3.324312e+04   2.051477e+06
   1.103570e+03   1.219591e+06
   1.266896e+06   1.398798e+06
   1.614509e+06   2.481936e+06
  -3.653678e+05   3.005131e+06
  -3.496449e+06   1.848886e+06
  -4.832919e+06  -4.399393e+05
  -2.780618e+06  -2.125960e+06
   8.450457e+05  -1.981176e+06
   2.560818e+06  -3.676506e+05
   1.008000e+06   1.212423e+06
  -1.713403e+06   1.391070e+06
  -2.677918e+06  -5.220028e+04
  -1.317269e+06  -1.960826e+06
   5.390276e+05  -2.589576e+06
   1.145922e+06  -1.214788e+06
   4.995606e+05   8.211054e+05
  -2.720934e+05   1.264893e+06
  -2.963437e+05  -4.149203e+05
   4.498351e+05  -2.110375e+06
   1.298667e+06  -1.512038e+06
   1.335620e+06   8.950858e+05
   1.583565e+05   2.259592e+06
  -1.413067e+06   8.637781e+05
  -1.737735e+06  -1.765364e+06
  -1.697040e+04  -2.731974e+06
   2.489683e+06  -1.070941e+06
   3.405513e+06   1.497771e+06
   1.635311e+06   2.700659e+06
  -1.369728e+06   1.851061e+06
  -2.964527e+06   1.204956e+03
  -1.906679e+06  -1.299105e+06
   5.041651e+05  -1.215607e+06
   1.865472e+06  -1.232653e+05
   1.123136e+06   7.899670e+05
  -5.176505e+05   6.296026e+05
  -1.091663e+06  -3.094010e+05
  -7.606470e+04  -8.871350e+05
   1.128495e+06  -4.101094e+05
   9.051409e+05   6.207590e+05
  -6.747967e+05   1.097141e+06
  -1.899728e+06   4.093277e+05
  -1.293736e+06  -1.066389e+06
   8.176554e+05  -2.274539e+06
   2.695968e+06  -2.177072e+06
   2.949667e+06  -5.413229e+05
   1.733787e+06   1.658379e+06
   2.976583e+05   2.892936e+06
  -3.893850e+05   2.507341e+06
  -4.257974e+05   1.364314e+06
  -5.378771e+05   7.387474e+05
  -1.110009e+06   7.550983e+05
  -1.760168e+06   4.297480e+05
  -1.776655e+06  -7.407199e+05
  -8.556289e+05  -1.849067e+06
   5.496210e+05  -1.607528e+06
   1.496405e+06   1.481155e+04
   1.231161e+06   1.630288e+06
  -1.571293e+05   1.861394e+06
  -1.653696e+06   6.336964e+05
  -2.083210e+06  -9.522879e+05
  -1.187463e+06  -1.764105e+06
   1.137837e+05  -1.555001e+06
   7.306223e+05  -9.342756e+05
   6.214142e+05  -6.127477e+05
   7.266173e+05  -6.876503e+05
   1.617473e+06  -6.141259e+05
   2.542471e+06   1.448570e+05
   2.169981e+06   1.454688e+06
   2.243367e+05   2.498097e+06
  -1.957237e+06   2.433767e+06
  -2.674197e+06   1.143612e+06
  -1.547893e+06  -5.557639e+05
   1.738550e+05  -1.471740e+06
   9.265402e+05  -1.030078e+06
   3.048704e+05   1.397032e+05
  -7.507767e+05   7.588372e+05
  -1.068392e+06   2.366667e+05
  -4.123932e+05  -6.547409e+05
   4.169957e+05  -7.051903e+05
   4.967638e+05   1.923864e+05
  -2.915493e+05   8.100519e+05
  -1.171546e+06   6.448436e+04
  -1.189685e+06  -1.574689e+06
  -5.404201e+04  -2.494248e+06
   1.568621e+06  -1.675940e+06
   2.513496e+06   2.610257e+05
   2.039089e+06   1.771098e+06
   5.088903e+05   1.893349e+06
  -8.494179e+05   9.730575e+05
  -1.052445e+06   9.192399e+04
  -3.096417e+05  -1.952662e+04
   2.495347e+05   4.512848e+05
  -1.370237e+05   7.508865e+05
  -9.961289e+05   3.949813e+05
  -1.203779e+06  -3.418329e+05
  -3.596033e+05  -7.468902e+05
   6.703826e+05  -4.365166e+05
   6.991572e+05   2.440323e+05
  -4.211260e+05   5.692548e+05
  -1.560960e+06   1.276267e+05
  -1.466572e+06  -8.021282e+05
  -6.536388e+04  -1.471515e+06
   1.441469e+06  -1.274057e+06
   1.767479e+06  -2.943197e+05
   7.741786e+05   6.796440e+05
  -4.744611e+05   8.282781e+05
  -8.131210e+05   1.249299e+05
  -6.929590e+04  -5.834589e+05
   8.947990e+05  -4.653016e+05
   1.106319e+06   3.705770e+05
   3.924790e+05   1.008147e+06
  -5.421220e+05   7.825368e+05
  -8.389971e+05   1.089030e+04
  -3.040600e+05  -4.258987e+05
   4.109892e+05  -8.335138e+04
   4.476652e+05   6.139681e+05
  -3.630872e+05   8.740720e+05
  -1.252581e+06   3.322661e+05
  -1.266127e+06  -6.344654e+05
  -2.864286e+05  -1.261954e+06
   8.053240e+05  -1.058708e+06
   1.051337e+06  -2.300534e+05
   3.951320e+05   5.003632e+05
  -3.599457e+05   5.579113e+05
  -4.761784e+05   5.475231e+04
  -2.001625e+03  -3.755345e+05
   4.221318e+05  -2.926763e+05
   3.155069e+05   8.146870e+04
  -1.635087e+05   1.707105e+05
  -4.157148e+05  -2.419930e+05
  -2.061620e+04  -7.215865e+05
   7.993601e+05  -6.296145e+05
   1.313650e+06   1.848036e+05
   9.570270e+05   1.173282e+06
  -8.209435e+04   1.559502e+06
  -1.004539e+06   1.037636e+06
  -1.180412e+06   4.484101e+04
  -7.280284e+05  -6.497776e+05
  -2.644769e+05  -6.564127e+05
  -1.718001e+05  -2.807327e+05
  -2.450813e+05  -1.210269e+05
  -5.468383e+04  -3.745742e+05
   4.786127e+05  -6.190418e+05
   9.376277e+05  -3.263862e+05
   7.974418e+05   4.604924e+05
  -4.654586e+04   1.061946e+06
  -1.076638e+06   8.159863e+05
  -1.486311e+06  -2.235415e+05
  -8.464314e+05  -1.272598e+06
   4.567604e+05  -1.510263e+06
   1.488175e+06  -8.029223e+05
   1.564474e+06   2.264791e+05
   8.221310e+05   8.188409e+05
  -9.061057e+03   7.622454e+05
  -3.478115e+05   4.759309e+05
  -2.356653e+05   4.557616e+05
  -1.335901e+05   6.995366e+05
  -3.569409e+05   7.342297e+05
  -7.440212e+05   2.005000e+05
  -8.381879e+05  -6.650885e+05
  -3.768931e+05  -1.192796e+06
   3.799072e+05  -9.221049e+05
   8.266155e+05  -5.380214e+04
   5.799806e+05   7.325474e+05
  -1.160359e+05   8.826999e+05
  -6.131781e+05   4.021065e+05
  -5.177794e+05  -2.416925e+05
  -7.319522e+04  -5.838459e+05
   1.640968e+05  -5.310591e+05
  -1.859584e+04  -3.297874e+05
  -2.510981e+05  -2.368931e+05
  -2.671686e+04  -2.549816e+05
   6.664723e+05  -1.802948e+05
   1.234578e+06   1.292354e+05
   1.044888e+06   5.641473e+05
   1.064475e+05   8.356300e+05
  -8.636639e+05   7.256848e+05
  -1.111250e+06   2.885117e+05
  -5.765365e+05  -1.646869e+05
   9.950139e+04  -3.058141e+05
   2.888508e+05  -8.644651e+04
  -9.664337e+03   1.871449e+05
  -3.159785e+05   1.484526e+05
  -2.959432e+05  -2.087969e+05
  -7.879526e+04  -4.775774e+05
   1.932770e+04  -3.057847e+05
  -9.722704e+04   1.284914e+05
  -2.459011e+05   2.711516e+05
  -1.978388e+05  -1.307777e+05
   1.167710e+05  -6.589787e+05
   5.419376e+05  -6.754707e+05
   7.453660e+05  -7.809660e+04
   4.462778e+05   5.628276e+05
  -2.380371e+05   6.407036e+05
  -7.233569e+05   1.485113e+05
  -4.606279e+05  -3.789444e+05
   4.077470e+05  -4.456094e+05
   1.053849e+06  -2.479498e+04
   7.844123e+05   5.050183e+05
  -1.954883e+05   7.202215e+05
  -9.721861e+05   4.696418e+05
  -8.767346e+05  -2.727204e+04
  -1.449503e+05  -3.484356e+05
   3.978448e+05  -2.308896e+05
   2.209852e+05   1.488299e+05
  -4.050739e+05   2.969858e+05
  -7.438761e+05  -9.903714e+04
  -3.632787e+05  -7.739661e+05
   4.447759e+05  -1.057476e+06
   9.780916e+05  -5.261241e+05
   8.104047e+05   4.989988e+05
   1.461716e+05   1.166907e+06
  -4.568607e+05   8.933980e+05
  -6.172370e+05  -4.004432e+04
  -3.595507e+05  -7.532332e+05
   4.869160e+04  -6.741853e+05
   3.383821e+05  -9.785131e+04
   3.625055e+05   2.499584e+05
   1.691144e+05   1.078633e+05
   6.505318e+03  -8.246326e+04
   9.782794e+04   1.393212e+05
   3.121637e+05   5.937800e+05
   2.161468e+05   7.081939e+05
  -3.682326e+05   2.838004e+05
  -9.708394e+05  -2.771538e+05
  -9.098072e+05  -5.198070e+05
  -1.403230e+05  -4.322127e+05
   6.035726e+05  -2.747938e+05
   6.548532e+05  -1.563075e+05
   1.831343e+05  -1.023514e+04
  -1.137431e+05   1.401692e+05
   5.045237e+04   1.711962e+05
   2.463096e+05   1.009465e+05
   4.539597e+03   8.845561e+04
  -5.022444e+05   1.280285e+05
  -6.615811e+05  -1.754231e+04
  -1.754470e+05  -4.224012e+05
   5.966169e+05  -7.168726e+05
   1.029073e+06  -4.502351e+05
   8.152825e+05   3.006749e+05
   1.610113e+05   9.107469e+05
  -4.567724e+05   8.658835e+05
  -6.639162e+05   3.053690e+05
  -4.316586e+05  -1.839822e+05
  -5.759704e+04  -2.259299e+05
   1.063317e+05   2.510745e+03
  -3.007752e+04   6.216295e+04
  -2.313425e+05  -2.118547e+05
  -1.959736e+05  -5.163498e+05
   1.225185e+05  -4.209055e+05
   4.499357e+05   1.202175e+05
   4.377986e+05   6.486845e+05
   5.603049e+03   6.490070e+05
  -5.197827e+05   9.655622e+04
  -6.440583e+05  -5.142965e+05
  -1.872402e+05  -6.894008e+05
   4.602449e+05  -3.886394e+05
   6.822778e+05   5.704956e+04
   3.082709e+05   3.396374e+05
  -1.710525e+05   3.747745e+05
  -1.834142e+05   2.262140e+05
   2.188125e+05   2.994203e+04
   4.314170e+05  -1.989179e+04
   7.560325e+04   1.833035e+05
  -5.233139e+05   4.501658e+05
  -7.512385e+05   4.047124e+05
  -4.303099e+05  -5.669124e+04
   5.917211e+04  -5.327703e+05
   2.920985e+05  -5.296193e+05
   2.085712e+05  -6.515790e+04
   4.794022e+03   3.302838e+05
  -1.600687e+05   2.470275e+05
  -2.278859e+05  -1.458993e+05
  -1.582447e+05  -3.694767e+05
   4.339721e+04  -2.235237e+05
   2.473118e+05   4.958593e+04
   2.888552e+05   1.373739e+05
   1.566660e+05   2.583079e+04
   2.822218e+03  -5.202183e+04
  -5.578798e+04   6.141838e+04
  -6.693224e+04   2.583605e+05
  -1.332483e+05   2.884170e+05
  -2.332407e+05   4.122309e+04
  -2.208981e+05  -3.017713e+05
  -7.567096e+03  -4.184071e+05
   2.859305e+05  -1.758673e+05
   3.891460e+05   2.094775e+05
   1.372375e+05   3.863273e+05
  -3.057882e+05   2.296759e+05
  -5.319938e+05  -6.612249e+04
  -2.926085e+05  -2.394636e+05
   1.839873e+05  -2.170807e+05
   3.909514e+05  -1.002792e+05
   1.171619e+05  -6.165071e+03
  -2.791260e+05  -3.192891e+02
  -2.823107e+05  -1.000408e+05
   1.560786e+05  -2.217676e+05
   5.541144e+05  -1.727642e+05
