
 $NMID
 id='ANONYMOUS ', fmtdat='(2E16.6)'
 volume=1.0
 tramp=1.0
 $END
  -2.586460e+03  -4.178413e+01
  -1.812796e+03  -1.218882e+03
  -2.141577e+02  -1.647662e+03
   8.590397e+02  -1.161826e+03
   8.140124e+02  -3.794338e+02
   1.962417e+02   6.253088e+01
  -2.079333e+02  -2.421238e+01
  -6.029326e+01  -3.689645e+02
   2.924808e+02  -4.309672e+02
   5.234718e+02  -1.446646e+02
   3.823266e+02   3.963926e+02
   2.193454e+01   5.431850e+02
  -2.050063e+02   1.525901e+02
  -2.018277e+02  -2.881326e+02
   6.006878e+01  -4.532568e+02
   3.500659e+02  -1.053718e+02
   2.819639e+02   3.716920e+02
  -6.227398e+01   5.488251e+02
  -3.811788e+02   3.445787e+02
  -3.679063e+02  -1.103867e+02
  -1.607159e+02  -3.179730e+02
   7.183358e+01  -2.522916e+02
   4.822464e+00  -3.940413e+01
  -2.249377e+02  -1.124445e+02
  -2.062808e+02  -3.347854e+02
   3.306503e+01  -2.878724e+02
   4.156947e+02  -1.154891e+02
   4.657503e+02   2.294441e+02
   1.213130e+02   3.042200e+02
  -2.514289e+02   1.081651e+02
  -3.589016e+02  -9.582201e+01
  -8.311560e+01  -3.243338e+02
   2.275560e+02  -3.286648e+02
   3.544468e+02  -1.729163e+02
   1.881814e+02   1.238685e+02
   3.272695e+01   2.207861e+02
   1.136139e+01   1.445441e+02
   1.073231e+02  -6.392095e+01
   1.343894e+02  -5.169904e+01
   1.083584e+02   2.153831e+02
  -4.638302e+01   4.088340e+02
  -2.356863e+02   3.326771e+02
  -2.216806e+02  -6.209636e+01
  -6.613768e+01  -2.172226e+02
   1.145296e+02  -7.273777e+01
   7.865582e+01   2.297751e+02
  -1.074237e+02   3.010325e+02
  -3.046107e+02   4.688587e+01
  -3.565457e+02  -3.266058e+02
  -1.593140e+02  -4.080784e+02
   2.584986e+02  -1.981275e+02
   4.047369e+02   6.384683e+01
   3.149982e+02   1.935076e+02
  -3.596520e+01   1.538357e+02
  -2.361354e+02   1.163353e+02
  -1.655016e+02   2.844894e+01
  -1.731096e+01  -6.207827e+01
   2.613774e+01  -3.979825e+01
  -3.080333e+01  -4.568612e-01
  -1.764001e+02  -7.770360e+01
  -1.176432e+02  -1.687396e+02
   1.366256e+02  -2.635976e+02
   3.049266e+02  -1.550580e+02
   2.836908e+02   1.064919e+02
  -1.566142e+01   2.993157e+02
  -2.937732e+02   4.312370e+02
  -3.097864e+02   1.327256e+02
  -1.958795e+02  -2.068957e+02
  -1.297898e+01  -3.219741e+02
   4.240252e+01  -2.633982e+02
  -5.337577e+01  -1.612485e+02
   1.672250e+01  -1.368803e+02
   1.214064e+02  -7.541484e+01
   2.820138e+02  -3.683035e+01
   3.055182e+02   1.335616e+02
   6.869633e+01   2.122092e+02
  -7.175760e+01   1.435996e+02
  -1.590937e+02  -9.915158e+01
  -5.376236e+01  -2.484753e+02
   5.546648e+01  -2.471909e+02
   2.034373e+02  -1.324296e+01
   2.689507e+02   1.661565e+02
   1.783095e+02   2.498248e+02
   1.251798e+01   2.540676e+02
  -1.450154e+02   1.211872e+02
  -1.552848e+02   4.484141e+01
  -1.817042e+02   4.844735e+01
  -2.822663e+02   2.793847e+01
  -3.475875e+02  -1.116996e+02
  -2.568671e+02  -2.122013e+02
   8.732546e+01  -3.577476e+02
   3.594780e+02  -3.564691e+02
   4.018125e+02  -1.273955e+02
   2.847144e+02   1.525857e+02
   4.035470e+00   2.233654e+02
  -1.017796e+02   1.609794e+02
   4.720404e+01   5.825457e+01
   1.282930e+02  -1.500637e+01
   2.530964e+01   4.825909e+01
  -4.590738e+01   9.498565e+01
  -9.039521e+01   8.192283e+01
  -7.938941e+01  -3.887716e+01
   7.904671e+00  -1.556892e+02
   1.271219e+02  -6.781568e+01
   1.535705e+02   2.737398e+02
   7.112475e+01   2.824983e+02
  -2.622921e+02   1.580584e+02
  -3.488325e+02  -7.097037e+01
  -2.428173e+02  -1.792855e+02
  -3.742380e+01  -2.382030e+02
   1.318290e+02  -1.231452e+02
   1.244076e+02   4.045475e+01
   4.854534e+01  -8.301921e+00
  -4.066921e+01  -3.585420e+01
  -3.934765e+01  -6.966818e+01
   1.109157e+02  -1.002981e+02
   1.863622e+02  -8.467197e+00
  -2.294408e+01   5.434278e+01
  -2.642563e+01  -1.945188e+01
  -6.203311e+01  -7.316533e+01
   1.558918e+02  -8.028061e+01
   2.730535e+02   3.527423e+01
   2.040005e+02   1.635323e+02
  -1.220806e+01   2.332844e+02
  -2.112382e+02   1.811413e+02
  -2.294353e+02   6.751897e+01
  -8.050346e+01  -1.155887e+01
   4.462548e+01  -3.984292e+01
   6.764344e+01  -1.526475e+01
  -6.062826e+01   1.025175e+02
  -1.577416e+02   2.722331e+00
  -1.497520e+02  -1.751724e+02
  -3.130845e+01  -1.541454e+02
   7.132877e+01  -1.113922e+02
   5.830553e+01  -1.849506e+01
   3.857888e+01   6.365382e+01
  -6.471641e+01  -4.379961e+01
  -1.800409e+01  -1.371438e+02
   7.567559e+01  -1.095981e+02
   2.224885e+02  -1.208749e+01
   1.855596e+02   2.236228e+02
  -3.512633e+01   1.649633e+02
  -1.605752e+02   1.765711e+02
  -1.358135e+02   1.376326e+00
  -4.867571e+01  -1.767666e+02
   6.664085e+01  -5.179032e+01
   1.808567e+01  -4.470881e+01
  -4.154016e+01   5.053197e+01
  -8.993933e+00   1.456870e+01
   1.992078e+01   7.434975e-01
   5.563469e+01  -5.640086e+01
   1.144234e+02   6.131927e+01
   5.088841e+01   1.788928e+02
  -9.551386e+01   1.146532e+02
  -2.313611e+02   6.143638e+01
  -2.062728e+02  -1.480502e+02
  -3.130004e+01  -2.224324e+02
   1.139152e+02  -1.514424e+02
   7.804066e+01  -8.435385e+00
   4.577740e+01   4.412727e+01
   6.995060e+01   5.582758e+01
   5.914745e+00   4.683312e+00
   8.984094e+01   1.931028e+01
   8.907439e+01   7.706401e+01
  -2.431978e+01   1.212285e+02
  -1.066284e+02   4.259018e+01
  -8.345875e+01  -4.994592e+01
   3.108914e+00  -1.436745e+02
   1.497254e+02  -8.219120e+01
   1.632805e+02   1.257848e+02
   1.075443e+02   2.341458e+02
  -1.180848e+02   1.693884e+02
  -2.001787e+02   9.734700e+01
  -2.393408e+02  -6.401475e+01
  -1.095520e+02  -1.744849e+02
   1.313111e+01  -7.850795e+01
   6.005333e+01  -2.728380e+01
   1.060904e+02  -8.724346e+01
   8.083233e+01  -1.138811e+02
   5.903937e+01  -5.016305e+01
   1.123139e+02   4.378816e+01
   1.498319e+02   1.209887e+02
   4.786338e+01   2.131887e+02
  -1.004527e+02   1.105073e+02
  -1.578828e+02   4.739224e+01
  -1.031673e+02  -1.735091e+02
   5.521250e+00  -1.692859e+02
   7.566851e+01  -5.553688e+01
   4.381224e+01   5.954977e+01
  -1.760385e+01   9.135879e+01
   1.016625e+01   8.925998e+01
   2.786177e+01   4.114608e+01
   9.339501e+01   6.328914e+01
   1.832369e+01   5.469026e+01
  -1.254363e+02   1.978194e+01
  -1.707622e+02  -8.364303e+00
  -1.272985e+02  -8.036941e+01
   3.245502e+00  -1.101747e+02
   1.839371e+02  -2.250233e+01
   8.244008e+01   5.447859e+00
  -1.264376e+01   1.276332e+02
  -3.446775e+01   3.679439e+01
  -4.378713e+01  -2.950891e+01
  -1.727254e+01  -3.688373e+01
  -3.156996e+01  -4.681350e+01
   6.895183e+01   5.758914e+00
   5.792511e+01   4.482366e+01
   2.647696e+01   7.553420e+01
   3.909901e+01   7.131136e+00
   6.940907e+01   4.532088e+00
   7.188688e+01   5.104924e+01
  -3.440828e+01   1.503568e+02
  -1.509432e+02   1.677942e+02
  -2.462889e+02   8.990255e+00
  -8.040771e+01  -5.492821e+01
   9.658339e+00  -9.238256e+01
   1.021849e+02  -6.777237e+01
   5.188809e+01   2.158867e+00
  -5.673915e+01   2.543308e+01
  -1.238613e+02  -4.715446e+01
  -1.997996e+01  -9.533030e+01
   6.737239e+01  -1.443243e+02
   1.874860e+02  -2.769910e+01
   1.172246e+02   5.180892e+01
   1.546799e+01   7.243277e+01
  -5.323117e+01   2.959095e+01
  -5.503700e+01  -4.235026e+01
  -2.690204e-01  -1.272481e+01
   6.728621e+01   3.901376e+01
   6.428514e+01   1.424420e+02
  -4.575372e+01   1.502318e+02
  -6.939954e+01   1.937558e+01
  -8.395296e+01  -1.106582e+02
  -7.043212e+01  -1.540930e+02
   8.293935e+01  -1.180946e+02
   7.901240e+01   5.325426e+00
   5.306911e+01   1.279376e+02
   9.316296e-01   1.256745e+02
  -3.141736e+01   6.255552e+01
   2.513143e+00  -9.721624e+00
   3.284338e+01  -6.435591e+01
  -1.847543e+00   7.206170e+00
  -2.994641e+01  -4.682501e+01
  -8.592280e+01  -6.302644e+01
  -1.153689e+01  -9.818702e+01
   4.685044e+01  -1.820286e+01
   7.769402e+01  -2.328594e+01
   1.203251e+02   5.274234e+01
   3.703261e+01   7.689151e+01
  -8.233921e+01   1.376036e+01
  -8.391151e+01   2.611734e+01
   3.488696e+01  -8.754338e+01
   2.703895e+01  -1.987975e+01
  -2.116474e+01   2.146026e+00
  -1.651942e+01  -7.604071e-01
  -4.926895e+01  -1.575946e+01
   6.698572e+01  -5.947175e+00
   7.947336e+01   3.248672e+01
  -2.887597e+01   6.997033e+00
  -6.910786e+01   5.639405e+01
  -1.762646e+02   7.062901e+01
  -1.149424e+02  -1.160004e+02
  -1.612934e+01  -1.544229e+02
   7.763694e+01  -1.466752e+02
   1.793283e+02  -3.445561e+01
   5.778262e+01  -1.145866e+01
   3.955873e+01   1.292762e+01
  -1.209567e+01  -5.024786e+00
   2.104344e+01   5.030217e+01
   4.826359e+01   6.647796e+01
  -2.958873e+01   5.224466e+01
  -8.541139e+01   4.824258e+01
  -3.618002e+01   7.575514e+00
  -3.227363e+01  -9.737717e+01
  -3.340568e+01  -1.255731e+02
   9.279999e+01  -6.750681e+01
   7.144763e+01   6.435906e+01
   6.041270e+00   8.921956e+01
  -7.514548e+01   6.481874e+01
  -1.309613e+02  -4.444627e+01
  -3.443867e+01  -7.110905e+01
  -2.093830e+00  -7.748874e+01
   3.022241e+01   8.630703e+00
   5.012930e+00  -3.516851e+00
  -5.471027e+01   1.486404e+01
  -2.662775e+01  -7.091749e+01
   6.788657e+01  -2.500593e+01
   6.766872e+01  -7.384811e+01
   9.063870e+00   8.982893e+00
  -8.991889e+00   9.134567e+01
  -6.076317e+01   4.847524e+01
   8.509869e+00  -3.648165e+01
  -4.566746e+00  -8.138035e+00
   2.284478e+01  -5.412404e+01
  -2.972684e+00   3.696220e+00
   2.859224e+01   1.534100e+01
  -3.903496e+00   4.832534e+00
   1.556046e+01   1.721189e+01
  -5.054272e+01   5.638132e+00
  -3.004745e+01  -4.313916e+01
  -5.994711e+01   2.106138e+01
   5.817804e+00   1.684482e+01
  -1.652149e+01  -2.799091e+01
   3.405149e+00  -6.048280e+01
   2.121438e+01  -1.002166e+01
   2.886363e+01   4.711970e+01
   6.607821e+01   4.695644e+01
  -3.491150e+01   6.368952e+01
  -3.443668e+01  -2.142594e+01
   5.926288e+01  -7.506582e+01
   6.091123e+01  -5.810771e+01
   3.833432e+01   3.650946e+01
   6.547523e+00   7.189632e+01
  -2.206763e+01   7.355629e+01
  -6.724110e+01   4.391065e+01
  -1.387733e+01   1.357786e+01
  -7.084754e+00  -1.439201e+01
   1.005549e+01  -2.212483e+01
  -1.930953e+01  -1.962510e+01
  -8.550029e+01   2.159457e+01
