
 $NMID
 id='ANONYMOUS ', fmtdat='(2E16.6)'
 volume=1.0
 tramp=1.0
 $END
  -2.969740e+03   3.982595e+01
  -2.086070e+03  -1.260265e+03
  -2.472745e+02  -1.847123e+03
   1.007900e+03  -1.435254e+03
   9.571008e+02  -5.170680e+02
   2.729859e+02   1.228438e+02
  -1.916520e+02  -1.998040e+01
  -7.929073e+01  -4.048641e+02
   4.147269e+02  -5.833888e+02
   5.616141e+02  -1.526267e+02
   3.860422e+02   3.648641e+02
   1.212024e+02   5.786380e+02
  -1.890065e+02   2.718045e+02
  -2.183918e+02  -2.856741e+02
   5.452655e+01  -4.930919e+02
   2.894495e+02  -1.622530e+02
   3.439547e+02   4.094608e+02
  -1.069842e+02   6.433267e+02
  -3.643529e+02   3.817516e+02
  -5.534225e+02  -1.338753e+02
  -1.857391e+02  -3.553000e+02
   1.009750e+02  -2.544504e+02
   1.739036e+01  -9.852738e+01
  -2.675611e+02  -1.215701e+02
  -2.193657e+02  -2.891131e+02
   7.968268e+01  -3.587583e+02
   4.762054e+02  -1.157777e+02
   5.860872e+02   2.015991e+02
   1.989830e+02   2.834227e+02
  -2.918550e+02   1.037984e+02
  -4.504493e+02  -1.617800e+02
  -1.272075e+02  -3.247641e+02
   2.118837e+02  -3.433500e+02
   4.182077e+02  -1.390838e+02
   3.146255e+02   1.424618e+02
   8.150877e+01   2.475177e+02
   1.147639e+01   1.472035e+02
   1.799773e+02  -1.221883e+00
   1.823184e+02  -1.095679e+02
   1.013373e+02   1.400273e+02
  -4.157387e+01   4.467257e+02
  -2.399339e+02   3.790746e+02
  -2.954528e+02  -2.457660e+01
  -6.169726e+01  -2.146306e+02
   1.288252e+02  -5.457878e+01
   1.126309e+02   3.002677e+02
  -1.352489e+02   3.512664e+02
  -3.435401e+02   9.921748e+01
  -4.924058e+02  -3.861828e+02
  -1.462650e+02  -4.347922e+02
   2.653984e+02  -2.196809e+02
   5.035857e+02   3.442424e+01
   3.184824e+02   2.030328e+02
  -6.984712e+00   1.639555e+02
  -2.427627e+02   1.158161e+02
  -2.344896e+02   3.295131e+01
  -7.336112e+01   1.966495e+01
   4.200888e+01  -2.835509e+00
  -9.836387e+01   6.615405e+01
  -1.593164e+02   2.392057e+01
  -8.434429e+01  -1.838244e+02
   1.458190e+02  -2.478404e+02
   3.436508e+02  -1.972618e+02
   2.975097e+02   9.788467e+01
   3.907340e+00   3.992061e+02
  -3.651103e+02   4.467788e+02
  -3.623631e+02   2.067158e+02
  -2.428676e+02  -1.688067e+02
  -2.332975e+01  -2.962804e+02
   1.647033e+01  -3.125129e+02
  -2.587067e+01  -2.224492e+02
   4.064754e+01  -1.424531e+02
   1.261647e+02  -1.109078e+02
   3.590452e+02  -4.594871e+01
   1.904422e+02   2.050824e+02
   8.031410e+01   2.392733e+02
  -7.373549e+01   1.804776e+02
  -2.143653e+02  -6.896956e+01
  -1.396565e+02  -2.474914e+02
   7.261117e+01  -2.532989e+02
   2.203775e+02  -1.632196e+00
   3.088756e+02   1.906483e+02
   1.325007e+02   2.633482e+02
   2.317829e+01   2.656331e+02
  -1.491379e+02   1.806714e+02
  -2.104637e+02   5.518023e+01
  -1.693018e+02   6.032528e+01
  -2.914288e+02   4.113448e+01
  -3.973012e+02  -9.379000e+01
  -3.469162e+02  -3.314742e+02
   4.000439e+01  -3.933224e+02
   3.202005e+02  -4.110739e+02
   4.952664e+02  -1.977026e+02
   2.880054e+02   1.097631e+02
  -2.231825e+01   2.413742e+02
  -8.957289e+01   1.875743e+02
  -4.416195e+01   4.089860e+01
   1.084634e+02   4.227846e+01
   1.318389e+02   6.207121e+01
   2.966072e+01   1.322089e+02
  -8.657396e+01   3.519039e+01
  -5.342647e+01   2.911906e+01
  -3.458321e+01  -7.838937e+01
   1.642373e+02   2.241703e+01
   1.561783e+02   2.451382e+02
   1.420280e+01   3.543848e+02
  -2.478692e+02   1.718354e+02
  -3.487556e+02  -5.842753e+01
  -2.392544e+02  -2.699202e+02
  -8.085198e+01  -2.729327e+02
   1.258150e+02  -8.788053e+01
   2.056140e+02  -2.439298e+01
   3.833048e+00  -8.173238e+00
   2.174571e+01  -8.052394e+01
   5.107592e+01  -1.374965e+02
   1.493236e+02  -1.218788e+02
   1.153718e+02   4.524583e+01
  -6.704809e+01   3.955451e+01
  -6.197399e+01  -8.312698e+01
  -4.298679e+01  -1.343627e+02
   1.134145e+02  -1.216864e+02
   3.733883e+02   2.334061e+00
   2.566535e+02   1.999264e+02
  -3.991377e+01   3.071964e+02
  -2.594488e+02   1.828869e+02
  -3.098874e+02   1.266002e+02
  -8.334864e+01  -9.825330e+01
   8.715362e+01  -1.262565e+02
   7.653627e+01   6.977481e+01
  -8.591712e+01   1.010060e+02
  -1.547182e+02   3.400475e+01
  -2.119800e+02  -1.287009e+02
  -6.006243e+01  -1.447934e+02
   1.220566e+02  -7.608201e+01
   1.726876e+02  -3.817532e+01
   1.947782e+01   8.509483e+01
  -5.892697e+01  -3.610572e+01
  -1.794236e+01  -1.236196e+02
   9.322559e+01  -1.179963e+02
   2.358478e+02   1.369926e+01
   1.346415e+02   1.929419e+02
  -2.892230e+01   1.845026e+02
  -1.421748e+02   1.761374e+02
  -2.100340e+02   3.109866e+01
  -1.070632e+02  -9.892395e+01
   6.471241e+01  -5.145779e+01
   7.279976e+01  -6.751378e+00
  -1.007168e+01  -5.162854e+00
  -6.390191e+01   2.279230e+01
   5.686641e+01  -3.787790e+01
   4.759317e+01   2.360833e+01
   8.087237e+01   9.778161e+01
   2.804583e+01   2.319098e+02
  -1.642576e+02   1.762384e+02
  -2.274873e+02   2.216436e+01
  -2.063508e+02  -1.513958e+02
   7.776117e+00  -2.548092e+02
   1.603906e+02  -1.925493e+02
   1.538683e+02  -8.265195e+01
   7.931156e+01   4.823934e+01
   8.231795e+01   2.362169e+01
   5.309111e+01   5.129058e+01
   8.294593e+01  -1.658303e+00
   1.035123e+02   7.425326e+01
  -4.628378e+01   1.199148e+02
  -1.494341e+02   9.231306e+01
  -7.115389e+01  -4.576954e+00
  -2.666614e+01  -1.425017e+02
   2.254554e+02  -1.660399e+02
   2.182697e+02   1.165515e+02
   8.359436e+01   2.000704e+02
  -1.966100e+02   2.312912e+02
  -2.564674e+02   5.431415e+01
  -2.914090e+02  -2.502915e+01
  -1.540283e+02  -1.331457e+02
   4.673290e+01  -1.922188e+02
   5.663519e+01  -2.629765e+01
   4.352009e+01  -1.175798e+02
   6.206358e+01  -1.315201e+02
   6.928156e+01  -4.395323e+01
   1.700479e+02   4.433023e+01
   1.056230e+02   1.169091e+02
   8.787523e+01   2.887004e+02
  -1.491104e+02   1.586435e+02
  -1.311770e+02   1.320397e+01
  -1.024474e+02  -1.277142e+02
   1.905754e+01  -1.457939e+02
   8.264364e+01  -1.283244e+02
   7.444961e+01   5.123196e+00
   4.716590e+00   5.414168e+00
  -5.614670e+01   4.007754e+00
   5.994383e+01  -8.207711e+00
   7.297677e+01   4.589988e+01
   8.352681e+01   5.656502e+01
  -1.280242e+02   9.181946e+01
  -1.756255e+02   2.686495e+01
  -1.875283e+02  -7.785335e+01
  -4.760965e+00  -1.457284e+02
   1.752669e+02  -1.449350e+02
   1.936244e+02  -5.358850e+01
   1.353399e+01   8.883204e+01
  -7.577783e+01   8.943445e+01
  -6.842082e+01  -9.413620e+00
  -3.577995e+01  -3.321688e+01
   5.024870e+01  -9.903011e+01
   1.297634e+02   2.727751e+01
   1.042049e+02   9.736183e+01
   5.824583e+01   5.235740e+01
   6.221094e+01  -2.305625e+01
   5.300871e+01  -7.662306e-01
  -3.989376e+00   5.954880e+01
  -3.864031e+01   1.398546e+02
  -1.393702e+02   1.712516e+02
  -2.207583e+02   3.629424e+01
  -1.377942e+02  -9.217718e+01
   1.292612e+00  -8.858197e+01
   8.938405e+01  -6.231804e+01
   1.693161e+02   5.150884e+01
  -6.761436e+01   3.211757e+01
  -1.493872e+02   5.086077e+01
  -5.745504e+01  -1.090192e+02
   8.308491e+01  -1.232718e+02
   2.023422e+02  -6.620894e+01
   1.503748e+02   3.791119e+01
   4.526764e+01   8.651330e+01
  -3.676562e+01   2.062090e+01
  -1.126495e+02   5.627635e+00
   9.047482e+01  -1.827099e+00
   1.022929e+02   3.291839e+01
   4.749870e+01   1.290558e+02
  -8.008559e+01   2.452264e+02
  -1.851851e+02   8.552267e+01
  -1.247442e+02  -1.065780e+02
   1.352752e+01  -2.071439e+02
   6.036284e+01  -1.392375e+02
   8.537340e+01  -1.141317e+01
   8.319307e+01   6.734783e+01
  -5.314064e+01   1.370631e+02
  -6.261915e+01  -2.300035e+00
  -7.377311e+00  -4.091475e+01
  -3.604260e+01   8.958825e+00
  -2.767117e+01  -3.952606e+01
  -3.568649e-01  -4.311004e+01
  -3.769944e+01  -1.144165e+02
  -1.827051e+01  -1.318804e+02
   4.589507e+01  -2.356367e+01
   1.277429e+02   2.454889e+01
   1.154978e+02   5.914373e+01
   1.081885e+02   5.431135e+01
  -9.774266e+01   4.310032e+01
  -1.028756e+02   3.374592e+01
  -3.015945e+01  -3.278900e+01
   4.941077e+01   2.221861e+01
   4.213860e+01  -3.578683e+01
  -1.365180e+01   6.615192e+00
   2.420098e+00   3.083570e+01
   6.291322e+01  -4.087395e+01
   1.444705e+02   4.020265e+01
  -4.827072e+00   3.388007e+01
  -1.085298e+02   1.496178e+02
  -1.962905e+02   8.105503e+01
  -1.252200e+02  -6.048347e+01
  -7.430801e+00  -1.818703e+02
   7.554667e+01  -1.795449e+02
   1.324951e+02  -4.009260e+01
   1.022432e+02   1.081142e+01
   6.587772e+01   5.658340e+01
  -1.451665e+00   1.889747e+01
   5.082260e+01   2.398763e+01
   1.571848e+01   3.555029e+01
   2.440915e+01   1.090692e+02
  -6.433677e+01   1.003916e+02
  -6.075324e+01  -1.620366e+01
  -1.007212e+02  -1.325475e+02
  -2.917189e+01  -9.628391e+01
   8.413914e+01   1.481470e+01
   1.330415e+02   8.830249e+01
   1.990753e+01   1.399909e+02
  -1.112559e+02   4.301721e+01
  -1.459751e+02   2.042034e+01
  -8.595355e+01  -8.112569e+01
  -2.335109e+00  -7.549970e+01
   8.340837e+01  -4.886065e+01
  -1.421654e+01  -7.508027e+00
  -5.334581e+01  -1.126345e+01
  -1.065682e+01  -3.528053e+01
   1.051880e+02  -5.520656e+01
   1.439138e+02  -5.088194e+01
   5.489360e+01   1.057011e+01
  -7.643611e-01   8.603162e+01
  -8.141293e+01   1.189367e+02
  -1.734177e+01   1.585706e+01
  -1.366812e+01  -5.266969e+01
   2.897471e+01  -5.711965e+01
   7.095597e+01  -1.293627e+01
   5.062619e-01   4.657832e+01
   1.721876e+01   5.410559e+01
  -5.569266e+01  -8.643219e+00
  -5.085973e+01  -1.033989e+02
  -2.691278e+00   4.102798e+01
  -3.340442e+01   3.763890e+01
   1.320607e+01  -3.990071e+01
  -2.898812e+00  -3.916561e+01
  -1.698421e+01  -7.619329e+01
  -2.293260e+01  -2.108850e+01
  -1.933162e+01   5.431949e+01
   4.937309e+01   1.713795e+01
  -7.772101e+01  -2.987656e+01
  -8.202312e+01  -2.137273e+01
  -5.315542e+00  -6.033893e+01
   2.583374e+01  -2.662871e+01
   7.319546e+01  -4.225144e+01
   8.535544e+01   2.985263e+01
   9.406679e+00   2.422611e+01
  -1.217906e+02   5.075833e+01
  -1.479434e+01   1.620672e+01
   1.119491e+01   8.269357e+00
  -8.929117e+00  -1.387314e+01
  -5.613036e+01  -2.335854e+01
  -1.216872e+02   2.790053e+01
