
 $NMID
 id='ANONYMOUS ', fmtdat='(2E16.6)'
 volume=1.0
 tramp=1.0
 $END
  -2.623947e+03  -7.998891e+00
  -1.748678e+03  -1.279061e+03
  -8.830457e+01  -1.661400e+03
   8.928305e+02  -1.102718e+03
   7.712780e+02  -2.095538e+02
   1.015184e+02   1.045451e+02
  -2.575065e+02  -7.871471e+01
  -3.607243e+01  -4.594257e+02
   3.094788e+02  -4.499969e+02
   5.101784e+02  -8.910105e+01
   3.533570e+02   4.204282e+02
   5.972223e+01   5.243369e+02
  -2.314515e+02   1.394257e+02
  -1.922726e+02  -3.693009e+02
   1.039211e+02  -4.248095e+02
   3.427238e+02  -6.153891e+01
   2.219271e+02   3.609149e+02
  -3.738407e+01   5.507900e+02
  -3.432931e+02   2.146068e+02
  -3.802220e+02  -1.581533e+02
  -1.660953e+02  -2.840497e+02
   5.737154e+01  -1.917529e+02
   2.404491e+00  -6.491888e+01
  -1.876561e+02  -1.414362e+02
  -2.106510e+02  -2.561314e+02
   6.323981e+01  -3.193170e+02
   4.288930e+02  -1.563496e+02
   5.652535e+02   1.638830e+02
   2.366563e+02   2.746230e+02
  -2.691939e+02   1.931235e+02
  -3.930121e+02  -1.208447e+02
  -1.803022e+02  -2.927084e+02
   2.586083e+02  -3.129242e+02
   3.523080e+02  -1.247552e+02
   2.373890e+02   1.350510e+02
   6.384651e+01   2.501435e+02
  -1.858268e+01   1.034982e+02
   8.467967e+01  -5.826462e+01
   1.119900e+02  -9.318816e+01
   1.759234e+02   1.384771e+02
  -7.695210e+01   4.406132e+02
  -1.378926e+02   4.230198e+02
  -2.548157e+02   9.520791e+00
  -1.187927e+02  -2.963657e+02
   1.103400e+02  -9.383450e+01
   1.141503e+02   2.004115e+02
  -1.637364e+02   2.747381e+02
  -3.220583e+02   4.511617e+01
  -3.886355e+02  -2.697019e+02
  -1.400118e+02  -3.961635e+02
   2.722347e+02  -2.168244e+02
   4.427467e+02   4.342975e+01
   2.238238e+02   2.093434e+02
   4.636021e+00   1.950743e+02
  -2.447586e+02   9.303939e+01
  -1.967258e+02   2.346394e+01
  -2.782786e+01   1.811771e+01
   8.960324e+01   6.856380e+00
  -1.173828e+02   4.528039e+01
  -1.393617e+02  -3.470315e+01
  -1.561246e+02  -1.688696e+02
   1.181101e+02  -2.265148e+02
   2.038530e+02  -1.659466e+02
   2.988108e+02   8.845511e+01
   9.772805e+00   2.370726e+02
  -2.470224e+02   3.406610e+02
  -3.326563e+02   1.337937e+02
  -1.986532e+02  -1.891278e+02
  -7.135177e+01  -3.176966e+02
   1.726704e+01  -2.255268e+02
  -1.167154e+01  -1.201522e+02
   7.768143e+00  -8.841410e+01
   1.203321e+02  -8.486971e+01
   2.151970e+02   3.454366e+01
   1.502247e+02   1.318494e+02
   8.334355e+01   2.255034e+02
  -9.542046e+01   1.630933e+02
  -1.908533e+02  -6.883103e+01
  -1.437023e+02  -2.138440e+02
   2.192988e+01  -2.153006e+02
   1.814091e+02  -6.422275e+01
   2.301624e+02   1.474207e+02
   1.753796e+02   2.163089e+02
  -8.802185e+01   2.300497e+02
  -1.412295e+02   1.380553e+02
  -1.336046e+02   8.348277e+01
  -1.531620e+02   7.704375e+01
  -2.121075e+02   2.029016e+00
  -3.818229e+02  -7.394265e+01
  -3.039426e+02  -2.452565e+02
  -3.322968e+00  -3.709953e+02
   2.957476e+02  -3.418076e+02
   4.121617e+02  -1.771982e+02
   2.303601e+02   1.033476e+02
  -2.480221e+01   2.470753e+02
  -5.245079e+01   1.578853e+02
   7.715562e+00   2.930655e+01
   1.315383e+02  -4.652319e+01
   7.937168e+01   2.538039e+00
   3.088109e+01   7.524616e+01
  -8.633835e+01   2.135728e+01
  -7.253842e+01  -2.570455e+01
  -2.803512e+00  -5.544392e+01
   1.321816e+02   2.312675e+01
   1.182738e+02   1.944460e+02
  -3.449626e+01   3.030271e+02
  -1.869896e+02   2.090824e+02
  -2.940267e+02  -7.310864e+01
  -2.550590e+02  -2.405812e+02
  -4.627276e+01  -2.242028e+02
   1.626359e+02  -8.918168e+01
   1.642601e+02   3.174880e+00
  -5.285197e+01   4.935043e+01
  -8.310774e+01  -9.486569e+01
   4.880697e+01  -6.659549e+01
   1.214112e+02  -1.012516e+02
   1.364530e+02  -8.561911e-01
   2.387466e+01   3.620417e+01
  -7.618416e+01   4.083959e+01
  -3.523140e+01  -6.588792e+01
   1.238849e+02  -1.089637e+02
   2.102499e+02   2.033675e+00
   2.184861e+02   1.778202e+02
   7.782910e+00   2.163167e+02
  -1.218226e+02   1.960281e+02
  -2.036777e+02   1.179869e+02
  -1.082831e+02  -1.392220e+01
   2.282770e+01  -8.434968e+01
   1.774468e+01  -7.176149e+00
  -4.612021e+01   1.293566e+01
  -2.292005e+02   5.234936e+01
  -1.457799e+02  -7.471888e+01
  -6.718588e+01  -1.392096e+02
   4.566934e+01  -1.355625e+02
   8.986336e+01  -5.138158e+01
   5.493106e+01   1.077142e+02
   1.845578e+01  -2.047526e+01
  -9.447133e+00  -1.214620e+02
   1.072463e+02  -9.272178e+01
   1.901856e+02  -1.656754e+01
   1.683625e+02   1.223369e+02
   1.027857e+01   1.543249e+02
  -1.156333e+02   9.132564e+01
  -1.173431e+02   2.483790e+01
  -2.630073e+01  -8.091213e+01
   4.032722e+01  -5.559387e+01
   5.161652e+01  -2.403955e+01
  -1.050768e+02   3.303063e+01
  -7.840156e+01   1.013892e+01
  -5.391311e+00  -3.766195e+01
   3.863111e+01   3.281024e+01
   3.798146e+01   5.999457e+01
   4.802625e+01   2.027723e+02
  -1.191764e+02   9.459451e+01
  -1.584946e+02   2.469657e+01
  -1.628180e+02  -1.090913e+02
  -1.716804e+01  -2.266604e+02
   5.193755e+01  -1.237734e+02
   1.510550e+02   2.567226e+00
   5.154703e+01   6.902987e+00
   5.348764e+01   3.914428e+01
   4.292732e+01   5.830741e+00
   1.093050e+02  -6.320774e+01
   1.007216e+02   3.051828e+01
  -4.465650e+01   7.604229e+01
  -1.491802e+02   3.099226e+01
  -3.895606e+01   1.998698e+01
   4.602600e+01  -1.114197e+02
   1.280624e+02  -1.367005e+02
   1.485813e+02   7.041843e+01
   6.927990e+01   2.080192e+02
  -6.596391e+01   1.578170e+02
  -2.706803e+02   6.219354e+01
  -1.797635e+02  -8.222918e+01
  -5.039982e+01  -1.088303e+02
   3.275019e+01  -1.397721e+02
  -5.853778e+00  -5.116680e+01
   6.337240e+01  -2.910838e+01
   6.899432e+01  -9.890786e+01
   9.262449e+01  -8.418591e+01
   1.175095e+02   5.426513e+01
   9.181019e+01   1.283714e+02
   4.116778e+01   1.609579e+02
  -5.843514e+01   1.475012e+02
  -1.596402e+02   2.397654e+00
  -8.372452e+01  -1.002325e+02
  -4.113164e+01  -1.055816e+02
   1.236516e+02  -5.734139e+01
   6.580049e+01   1.818584e+00
   4.195466e+01   5.676254e+01
   1.617586e+01   3.557781e+01
   8.957990e+00  -4.351011e+01
   9.246017e+01   6.572714e+01
   1.002588e+02   2.397611e+01
  -6.750336e+01   3.188002e+00
  -1.222510e+02   3.047358e+01
  -1.051301e+02  -7.733007e+01
   4.497239e+01  -6.577429e+01
   6.918998e+01  -1.233557e+02
   1.179905e+02  -3.514328e+01
   5.815804e+01   3.837953e+01
  -1.502071e+01   3.732775e+01
  -7.236355e+01  -4.218075e+00
  -7.120155e+00   4.805580e+00
   8.993602e+01  -3.574821e+01
   3.085343e+01  -5.622777e+00
  -3.746654e+01   3.405262e+01
  -2.661550e+01  -1.061347e+01
   9.741887e+01   4.546853e+01
   5.630838e+01  -3.304434e+01
   1.093286e+02   4.427743e+01
   2.081357e+01   1.231932e+02
  -7.854056e+01   1.679545e+02
  -1.977754e+02   2.516159e+01
  -9.952780e+01  -6.584340e+01
  -3.209101e+00  -7.991598e+01
   8.395508e+01  -6.660017e+01
   1.672034e+01   2.178013e+01
  -4.931466e+01  -3.297075e+00
  -1.105889e+02  -7.511871e+01
  -7.787607e+01  -1.150266e+02
   9.246151e+01  -5.127351e+01
   1.928367e+02  -7.417026e+01
   1.137884e+02   1.559503e+01
   8.471796e+01   1.679828e+01
  -1.921207e+01   2.082197e+01
  -6.808081e+01  -1.553263e+01
   3.032952e+01  -3.002043e+01
   9.944202e+01  -3.245367e+01
  -7.714130e-01   8.080971e+01
  -3.760788e+01   1.381298e+02
  -1.071872e+02   2.594705e+01
  -1.051193e+02  -1.491847e+02
   8.663086e+00  -1.744111e+02
   9.445079e+01  -1.131714e+02
   2.335327e+01   3.246321e+00
   1.205570e+02   1.597202e+02
  -4.394553e+01   9.315135e+01
  -4.425116e+01   1.599631e+01
  -4.933758e+01  -4.364666e+01
  -8.973234e+00  -2.953803e+01
   6.561844e-02   4.180226e+01
  -3.752742e-01  -3.285617e+00
  -5.071841e+01  -1.060497e+02
   2.412159e+01  -3.703221e+01
   4.154412e+01  -2.269931e+01
   7.764710e+01   6.146111e+00
   1.044220e+02   8.049827e+01
  -8.052224e+00   6.161832e+01
  -3.222223e+01   3.124837e+01
  -1.374242e+01  -3.847224e+01
  -2.165224e+01  -2.675420e+01
   6.047270e+01   1.321519e+01
   2.407894e+01  -3.426333e+01
   1.224464e+01  -1.743428e+01
  -9.002137e+00   4.671847e+01
   3.247832e+01  -3.079527e+01
   9.637982e+01  -2.690004e+01
   6.875658e+01   5.190608e+01
  -1.064015e+02   1.466246e+02
  -1.345556e+02   5.529869e+01
  -9.597462e+01  -5.790419e+01
  -6.725623e+01  -1.476433e+02
   5.712912e+01  -1.135381e+02
   1.328373e+02  -1.123101e+02
   8.613781e+01  -1.204537e+01
   4.795859e+00  -3.071568e+00
   4.130707e+01   7.830831e+01
   5.251703e+01   1.520408e+01
  -1.275176e+01   3.221791e+01
   6.678283e+01   1.324947e+02
   3.574211e+01   7.233800e+01
  -7.242736e+01   1.219186e+01
  -1.131982e+02  -5.353213e+01
   7.614690e+01  -2.693684e+01
   5.761728e+01  -2.214645e+01
   9.139163e+01   1.378148e+01
   6.213938e+01   7.245734e+01
  -1.097707e+02   5.935989e+01
  -1.018745e+02   1.544235e+01
   8.275998e-01  -3.841014e+01
   3.322015e+01  -4.422748e+01
   2.211311e+01  -8.986780e+00
  -1.613262e+01   1.352224e+01
  -3.706482e+01   5.165635e+01
  -4.930396e+00  -4.715212e+01
   2.915980e+01  -9.259014e+01
   1.398694e+02  -4.520198e+01
   7.666841e+01   6.406740e+01
   1.058265e+01   1.111261e+02
  -8.008872e+01   9.432513e+01
  -8.593590e+01  -1.791278e+01
  -8.154904e+00  -5.011699e+01
   7.786369e+00  -9.592875e+01
   6.488310e+01   5.651830e+01
   3.605160e+01   4.402180e+01
   6.219609e+01   4.241471e+01
   3.994808e+01   4.458165e+01
  -2.128151e+01   3.105208e+00
   2.558119e+01  -7.544750e+00
   6.693105e+01   2.345156e+01
  -1.615932e+01   3.109348e+01
  -3.073986e+01   1.851405e+00
  -1.203532e+01  -1.475805e+01
  -1.094352e+01  -1.749505e+01
   1.495957e+01   4.049003e+01
  -3.725648e+01   4.955691e+01
   5.037190e+00   3.744492e+01
  -2.616062e+01   2.450837e+01
  -4.749219e+01  -3.654557e+01
   5.278509e+01   3.457508e+01
   1.130688e+02   4.977883e+01
   3.864209e+01   5.248719e+00
   2.452635e+01   5.316352e+01
  -2.337492e+01   1.006817e+01
  -3.001503e+01   1.030712e+01
  -3.914839e+01   3.486699e+01
   1.131502e+01   2.622531e+01
  -3.173112e+01   2.054865e+01
  -7.127361e+01   2.756303e+01
