
 $NMID
 id='ANONYMOUS ', fmtdat='(2E16.6)'
 volume=1.0
 tramp=1.0
 $END
   2.686360e+03  -8.187105e+01
   2.006033e+03   1.200455e+03
   3.277220e+02   1.814829e+03
  -9.244678e+02   1.434954e+03
  -9.841283e+02   4.723901e+02
  -2.992066e+02  -9.121103e+01
   2.197510e+02  -6.347891e+01
   1.395480e+02   3.494611e+02
  -2.297911e+02   5.640558e+02
  -5.350798e+02   2.348656e+02
  -4.270275e+02  -4.326925e+02
  -1.501666e+02  -6.077535e+02
   1.876387e+02  -2.701821e+02
   2.693977e+02   2.720224e+02
  -6.484129e+00   4.221953e+02
  -2.834739e+02   1.190033e+02
  -3.268659e+02  -4.327452e+02
   3.057655e+01  -6.153554e+02
   4.361895e+02  -3.521602e+02
   4.323162e+02   1.049043e+02
   1.269561e+02   3.076288e+02
  -4.738845e+01   2.777464e+02
   1.448629e+01   1.294911e+02
   2.217867e+02   1.612133e+02
   2.379085e+02   3.213221e+02
  -1.236950e+02   3.079391e+02
  -5.042370e+02   8.459711e+01
  -5.249318e+02  -2.098198e+02
  -1.239921e+02  -2.432871e+02
   2.428083e+02  -1.656443e+02
   3.483487e+02   1.416744e+02
   2.005757e+02   2.468703e+02
  -2.012249e+02   2.680104e+02
  -4.015555e+02   1.223212e+02
  -2.689008e+02  -1.295479e+02
  -7.765997e+01  -2.091208e+02
  -2.737059e+01  -1.494147e+02
  -1.032590e+02  -4.498440e+01
  -1.111759e+02   9.879755e+01
  -8.667351e+01  -1.535465e+02
   6.102991e+01  -3.872039e+02
   2.139261e+02  -2.846945e+02
   1.748172e+02  -4.103627e+00
   1.095524e+02   1.953852e+02
  -4.946927e+01   1.295981e+02
  -8.511442e+01  -1.928080e+02
   1.161850e+02  -2.398813e+02
   4.213076e+02  -7.325595e+01
   4.667603e+02   3.347119e+02
   1.640990e+02   3.788564e+02
  -2.446998e+02   2.645898e+02
  -4.543106e+02  -6.035668e+01
  -3.516211e+02  -2.113591e+02
  -3.747505e+00  -2.034652e+02
   2.226459e+02  -6.744258e+01
   1.932914e+02  -3.532445e+01
   7.221515e+01  -9.001237e+00
  -1.916276e+01  -3.920536e+01
   1.434912e+02  -1.765830e+01
   1.928707e+02   2.149415e+01
   8.092003e+01   1.389663e+02
  -1.596010e+02   2.138385e+02
  -3.302860e+02   1.698379e+02
  -2.895205e+02  -1.365308e+02
   8.119188e+00  -3.620712e+02
   2.775539e+02  -3.278225e+02
   3.857997e+02  -6.912199e+01
   1.680368e+02   1.797108e+02
   7.793423e+00   3.338945e+02
   2.411276e+01   2.839769e+02
   1.419126e+01   1.653183e+02
  -2.313732e+01   1.106814e+02
  -2.029501e+02   1.136805e+02
  -2.683620e+02   1.538502e+01
  -2.155470e+02  -1.645393e+02
  -5.986771e+01  -2.464847e+02
   1.181464e+02  -1.690491e+02
   1.472710e+02   1.609942e+01
   1.154248e+02   1.950878e+02
  -3.758388e+01   2.172506e+02
  -2.000001e+02   9.152346e+01
  -3.004939e+02  -1.896587e+02
  -1.661908e+02  -2.533689e+02
   1.847421e+01  -1.977333e+02
   1.073422e+02  -1.457168e+02
   1.406132e+02  -1.900190e+02
   1.385946e+02  -8.002103e+01
   2.788600e+02  -6.092991e+01
   4.074135e+02   1.271770e+02
   3.052512e+02   2.856299e+02
  -3.938136e+01   4.164382e+02
  -3.446008e+02   3.986023e+02
  -4.136939e+02   1.617133e+02
  -3.083085e+02  -3.177570e+01
  -5.433884e+00  -2.283926e+02
   2.414460e+01  -1.685692e+02
   3.730419e+01  -5.004668e+01
  -1.850430e+02   4.893027e+01
  -4.887880e+01   8.975704e+00
   1.852813e+01  -1.390884e+02
   9.764847e+01  -1.004351e+02
   5.639391e+01   6.753642e+01
   9.632410e+00   1.396046e+02
  -1.387071e+02  -4.031017e+01
  -1.346332e+02  -2.340371e+02
   3.304727e+01  -3.257546e+02
   2.565823e+02  -1.749654e+02
   3.697871e+02   1.065914e+02
   2.798050e+02   2.571657e+02
   7.496419e+01   2.222908e+02
  -1.436290e+02   8.924870e+01
  -1.080620e+02  -4.839827e+01
  -1.114671e+01  -4.418031e+01
   5.214739e+01   2.772645e+01
  -1.435441e+01   1.447147e+02
  -1.237461e+02   4.120451e+01
  -1.576620e+02  -1.335021e+01
  -4.728214e+01  -9.455466e+00
   6.833212e+01   6.002343e+01
   5.567816e+01   7.625428e+01
  -1.237382e+02   8.998333e+01
  -3.059751e+02  -1.167786e+01
  -1.894749e+02  -1.588619e+02
  -6.869105e+00  -2.397875e+02
   2.576110e+02  -2.013599e+02
   2.644485e+02  -9.390937e+01
   8.441766e+01   2.472328e+01
  -6.811011e+00   5.668646e+01
  -3.675461e+01  -1.543569e+01
   2.792891e+01  -3.035891e+01
   2.101105e+02   1.765619e+01
   1.625227e+02   9.973710e+01
   4.922761e+01   1.796065e+02
  -1.250196e+02   1.164686e+02
  -6.400171e+01   9.919784e+00
  -2.933459e+01  -2.458809e+01
  -2.847337e+01  -1.157635e+00
  -5.154836e+01   8.566399e+01
  -5.779550e+01   1.018036e+02
  -1.712600e+02   2.915115e+01
  -9.549665e+01  -9.492424e+01
  -8.499759e+00  -1.850964e+02
   2.036160e+02  -1.710756e+02
   1.495284e+02  -3.393038e+01
   2.088169e+01   1.341383e+02
  -4.825185e+01   1.183410e+02
  -8.502136e+01  -2.153181e+01
   6.234083e+01  -1.713052e+01
   1.006302e+02   5.804967e+01
  -4.170003e+01   7.665730e+01
  -9.137287e+01  -2.275957e+01
  -1.163657e+02  -4.497095e+01
   7.232453e+00  -2.210426e+02
   1.300342e+02  -1.235289e+02
   2.433925e+02   7.410941e+01
   1.745658e+02   6.175117e+01
   3.968986e+00   1.775261e+02
  -1.210510e+02   2.321296e+02
  -1.440453e+02   8.561681e+00
  -8.742843e+01  -8.945999e+01
  -6.566047e+01  -3.658632e+01
  -1.078803e+02   3.608169e+01
  -9.574527e+01  -3.815721e+01
  -4.773330e+01  -1.860870e+01
   6.364960e+01  -1.507886e+02
   1.157531e+02  -1.259029e+02
   1.588857e+02   5.459517e+01
  -4.669350e+01   7.513858e+01
  -1.366449e+02   1.042348e+02
  -1.564565e+02  -5.604096e+01
   2.486142e+01  -2.259590e+02
   1.245587e+02  -1.927388e+02
   2.611390e+02   2.516620e+01
   2.826603e+02   7.628132e+01
   1.297398e+02   1.879266e+02
   5.725815e+00   1.371957e+02
  -5.969389e+01   8.201279e+01
  -6.315328e+01   2.454832e+01
  -3.529778e+01   1.162296e+02
  -1.003838e+02   4.982482e+01
  -1.178457e+02  -6.078290e+01
  -1.231641e+02  -1.577869e+02
  -1.882634e+01  -2.836739e+02
   1.271844e+02  -1.969692e+02
   1.384811e+02  -1.500671e+01
   1.395803e+02   1.034189e+02
   4.809872e+01   1.076001e+02
  -1.165055e+02   8.412086e+01
  -2.773549e+01   1.996415e+01
   9.359237e+00  -1.268586e+02
   7.101933e+01  -5.634841e+01
  -5.095945e+01   5.470736e+00
  -1.168660e+02  -1.092040e+01
  -2.051313e+01  -1.438345e+02
   3.929991e+01  -7.394135e+01
   2.236724e+02  -1.141644e+01
   1.168611e+02   3.980247e+01
  -6.594903e+01   5.546905e+01
  -1.356490e+02   6.248029e+01
  -1.229514e+02   1.679353e+01
  -2.959249e+01  -2.956934e+01
   9.246444e+01  -6.658211e+01
   1.150899e+02   6.917827e+00
   1.880792e+01   6.010234e+01
  -8.636198e+01   4.890052e+00
  -6.264076e+01   4.292063e+01
  -3.651710e+01  -3.430213e+01
  -6.682385e+01  -1.477374e+01
  -4.680224e+01  -1.408786e+01
  -3.294264e+01  -5.011223e+00
  -4.027719e+01  -6.485374e+01
   6.870906e+01  -1.125981e+02
   1.221632e+02  -1.709452e+02
   2.071770e+02  -5.094527e+01
   1.965952e+02   1.185626e+02
  -1.945150e+01   6.239485e+01
  -5.464117e+01   5.556973e+01
  -6.551997e+01   6.323658e+00
   6.856112e+01   3.498654e+01
   1.721825e+02   7.519245e+01
   3.693889e+01   9.281195e+01
  -8.033542e+01   1.075712e+02
  -1.532418e+02   2.861084e+01
  -1.541106e+02  -6.160472e+01
  -6.350782e+01  -5.605935e+01
   4.755854e+01  -8.762719e+01
   7.515085e+01   5.453531e+01
  -5.191261e+01   1.097192e+01
  -1.445288e+02  -2.488608e+01
  -2.240698e+01  -1.268563e+02
   1.122121e+02  -1.914203e+02
   1.392130e+02  -7.629524e+01
   1.009384e+02   8.580263e+01
   8.661073e+00   1.303089e+02
  -4.337048e+01   1.533412e+02
  -9.510490e+01  -6.306864e+00
  -5.147623e+01  -7.848591e+01
   6.353803e+00  -7.551888e+01
   4.450501e+01   1.458174e+01
   2.679580e+01   5.367435e+01
   2.779853e+01  -1.711189e+01
   1.746692e+01   1.503296e+01
  -3.617809e+00   4.136258e+01
   3.417195e+01   6.390636e+01
   9.353818e+01   7.846144e+01
  -6.945052e+01  -7.343441e+00
  -7.249633e+01  -6.660178e+01
  -1.356117e+02  -5.894264e+01
  -3.514715e+01  -7.146347e+01
   4.006845e+01   4.683864e+00
   7.703069e+01  -5.489505e+01
   6.116244e+01   2.977852e+01
  -4.707436e+01   6.901136e+01
   2.283420e+01   3.998654e+01
   6.256672e+01  -2.687866e+01
  -3.351032e+01   3.072836e+01
  -8.066442e+01   6.010498e+01
  -1.145310e+02  -1.548187e+01
  -4.256107e+00  -8.198909e+01
   1.395011e+02  -1.293732e+02
   1.742281e+02  -4.106194e+01
   1.062669e+02   7.115430e+01
  -7.555283e+00   1.567665e+02
  -7.197663e+01   1.299165e+02
  -1.002641e+02   1.289664e+02
  -3.782471e+00  -2.492225e+01
  -2.753044e+01  -1.635642e+01
  -1.563047e+01  -2.497885e+01
   4.631748e+00  -3.817555e+01
   1.707416e+01  -2.145207e+01
  -6.742718e+01  -1.057368e+02
  -2.359824e+00  -5.102104e+01
   7.089024e+01   4.922741e+01
   9.260645e+01   8.143589e+01
   3.790273e+01   7.884071e+01
  -5.664946e+01  -4.103840e+00
  -1.238295e+02  -3.839666e+01
  -3.375198e+01  -1.035763e+02
   6.769464e+01  -3.842661e+01
   1.300764e+02  -2.447808e+01
   4.094802e+01   5.371440e+01
  -7.709835e+00   7.736521e+01
  -2.786418e+01   4.416032e+01
   5.900972e+00  -3.706016e+01
   1.017618e+02  -4.917144e+00
  -1.220825e+01  -2.368096e+01
  -5.288419e+01   9.650653e+01
  -1.410759e+02   4.856755e+01
  -7.731284e+01  -3.610247e+01
   9.801580e+00  -4.082193e+01
   6.130020e+01  -8.957228e+01
   1.709651e+01   2.240706e+01
   4.938831e+01   5.437170e+01
  -3.257816e+01   3.018056e+01
  -2.790630e+01  -8.935398e+01
   1.361940e+01  -3.889556e+01
   2.997521e+00  -8.957042e+01
   4.301966e+01   4.414260e+01
   4.760641e+01   2.933061e+01
   4.650248e+00   4.488432e+01
  -2.592085e+01  -2.422882e+01
  -4.578561e+00  -2.373712e+01
   2.964840e+01  -1.562351e+01
   4.047491e+01  -1.008736e+01
  -6.788328e+01   1.028820e+01
  -3.201877e+01   2.516037e+01
  -2.944445e+01  -7.600242e+01
   3.852271e+00   4.494802e+01
   3.193231e+01   9.510943e+00
   6.369119e+01   3.297785e+01
  -9.716147e+01  -4.640703e+01
  -1.553190e+02  -1.043577e+01
  -5.342465e+01  -2.202884e+01
   8.219158e+01  -6.455237e+00
  -2.553478e+01  -2.333733e+01
  -2.924833e+00  -1.942461e+00
   2.722733e+01   4.649218e+01
  -2.376469e+01   4.955810e+00
  -2.122081e+01   2.411774e+01
   4.028806e+01   9.930632e+00
