
 $NMID
 id='ANONYMOUS ', fmtdat='(2E16.6)'
 volume=1.0
 tramp=1.0
 $END
  -8.921482e+02   2.045109e+00
  -6.446196e+02  -4.604310e+02
  -2.549531e+00  -5.788136e+02
   2.461441e+02  -3.563883e+02
   2.809522e+02  -1.130252e+02
  -2.991836e+01   7.255722e+01
  -2.674945e+01   2.765073e+01
  -1.182124e+01  -1.366462e+02
   1.286490e+02  -1.354898e+02
   1.747846e+02  -7.407273e+01
   1.147549e+02   1.203940e+02
  -3.483961e+01   1.824001e+02
  -1.273494e+02   2.518901e+01
  -7.846053e+01  -1.275864e+02
   2.309466e+01  -1.968097e+02
   6.298295e+01  -7.841931e+01
   7.388552e+01   1.240428e+02
  -2.588129e+01   1.623674e+02
  -1.052246e+02   9.661192e+01
  -8.542970e+01  -7.596586e+01
  -6.232802e+01  -9.762262e+01
   1.380166e+01  -6.135200e+01
   1.459774e+01   9.207827e+00
  -8.349047e+01  -1.689279e+01
  -6.089656e+01  -9.934819e+01
  -2.441277e-02  -9.397815e+01
   1.244441e+02  -8.661072e+01
   1.427993e+02   2.919879e+01
   3.380867e+01   1.230369e+02
  -6.531865e+01   3.662766e+01
  -1.653601e+02  -4.066647e+01
  -1.264724e+01  -1.161857e+02
   9.901254e+01  -1.445109e+02
   1.446288e+02  -3.281314e+01
   1.795460e+02   5.799450e+01
   3.971668e+01   9.963299e+01
  -1.315821e+01   7.795727e+01
  -1.467110e+01  -4.005652e+01
   3.712666e+01  -7.845387e+01
   7.897161e+01   8.248600e+01
  -2.018830e+01   1.476387e+02
  -5.566041e+01   1.573700e+02
  -8.541059e+01  -1.846788e+00
  -5.441219e+01  -2.696086e+00
   9.252698e+01  -3.583642e+00
   4.834264e+01   1.244791e+02
   6.485158e+00   1.584950e+02
  -1.311641e+02  -1.825440e+01
  -1.041492e+02  -1.001674e+02
  -7.834464e+01  -7.957689e+01
   7.368389e+01  -9.028202e+01
   1.308148e+02   1.112570e+01
   1.402278e+02   4.235927e+01
  -4.420045e+01   5.195862e+01
  -6.770382e+01   3.182518e+01
  -4.534420e+01  -3.203044e+01
  -4.042995e+01   1.439902e+01
   5.624186e+01   6.543132e+00
  -2.472726e+01   2.924593e+01
  -1.050976e+02   1.097913e+01
  -5.105386e+01  -3.584858e+01
   5.204289e+01  -3.838300e+01
   7.847451e+01  -2.866499e+01
   4.724377e+01   2.760362e+01
   3.172883e+01   1.107244e+02
  -8.383479e+01   1.005280e+02
  -7.941127e+01   3.172031e+01
  -1.121249e+02  -5.112923e+01
  -4.746323e+01  -7.946911e+01
   1.098307e+01  -6.824780e+01
   5.252346e+01  -2.435823e+01
   2.952939e+01  -5.772639e+01
   1.159753e+01   1.596812e+01
   9.864148e+01  -9.859584e+00
   1.318200e+02   2.197224e+01
   3.660533e+01   1.002791e+02
   1.456243e+01   6.665685e+01
   9.416171e+00  -2.747630e+01
  -3.261087e+01  -2.786446e+01
   2.274365e+01  -4.162085e+01
   3.376499e+01  -2.021691e+01
   7.971377e+01   9.261172e+01
   8.430304e+01   7.983387e+01
  -2.310139e+01   9.589208e+01
  -7.004149e+01   6.489209e+01
  -4.881053e+01  -5.599837e+00
  -6.277248e+01   8.267128e+00
  -6.421107e+01   1.149689e+01
  -1.257904e+02  -5.698720e+01
  -1.038881e+02  -6.300215e+01
   2.332113e+01  -1.072586e+02
   1.569732e+02  -9.707065e+01
   1.528387e+02  -6.469531e+01
   3.354960e+01  -2.608608e+01
   5.612970e+00   2.983321e+01
   5.297023e+00   1.235051e+02
   4.834656e+01   9.659211e-01
   4.119286e+01  -1.553130e+01
  -2.327070e+01   3.110978e+00
  -4.360707e+00   4.393646e+01
  -1.726401e+01   3.346261e+01
  -3.181325e+01  -1.611698e+00
   3.322289e+01  -3.036951e+01
   2.649920e+01  -1.021123e+01
   4.068101e+01   4.322398e+01
   2.303206e+01   8.561506e+01
  -4.389552e+00   6.050971e+01
  -1.441196e+02  -2.363460e+01
  -1.134219e+02  -4.643760e+01
  -4.595903e+01  -1.413614e+02
  -3.686407e-01  -1.642854e+01
   5.951768e+01  -3.975639e+01
  -2.959064e+01  -8.748447e+00
  -8.287503e+00   1.291520e+01
  -2.780717e+00  -7.155704e+01
   2.680287e+01   1.951361e+01
   2.735540e+01   4.079378e+01
  -1.344193e+01  -8.591380e+00
   2.702483e+00  -8.373323e+01
   2.399715e+00  -2.343104e+01
   9.503695e+01  -4.167493e+01
   7.553483e+01  -7.632776e+00
   5.530963e+01   4.377131e+01
   3.948229e+01   6.585778e+01
  -4.601047e+01   5.982533e+01
  -6.632415e+01  -4.569016e+01
  -5.755395e+01  -8.342213e+00
   1.777550e+01  -3.858366e+01
   2.035717e+00  -1.920070e+01
  -1.539555e+01   5.939973e+01
  -3.136679e+01   7.187678e+01
   3.614809e+00  -5.037089e+01
   7.417471e+00  -1.907053e+01
   3.794910e+01  -6.162212e+01
   4.500807e+01  -2.855779e+01
   8.945437e+00  -1.272263e+01
  -3.429472e+00  -1.905827e+01
   1.882933e+01  -7.854889e+01
   8.035610e+01  -1.014174e+02
   1.008276e+02   4.045618e+01
   1.497796e+01   6.624656e+01
   1.707574e+01   1.817066e+01
  -2.004031e+01   3.821619e+01
  -5.512931e+01  -3.044444e+01
  -2.850958e+01   1.043711e+01
   5.399419e+01  -6.949382e+01
  -8.391432e-02  -2.168663e+01
   9.035785e+00   3.816780e+00
  -4.217710e+01  -4.754599e+00
  -1.517402e+01  -1.218136e+01
  -7.300066e+01  -8.756049e-01
   2.267598e+01   1.778593e+01
  -2.540392e+00   4.213186e+01
  -9.439599e+01  -3.124991e+00
  -2.305380e+01   2.741966e+01
  -9.042290e+01  -2.480855e+01
   2.179148e+01  -5.825956e+01
   6.207127e+01  -7.259204e+01
   9.156542e+01  -2.801706e+01
  -1.859297e+01  -3.929835e+00
  -5.684679e+00  -9.915013e+00
  -5.808968e+01  -4.525608e+00
   1.887159e+01  -2.188752e+01
   6.531763e+01   6.061723e+01
  -9.354433e+01  -2.636160e+01
  -1.675907e+01   5.545323e+00
  -1.535779e+01  -3.241623e+01
   7.665253e+01  -6.785342e+01
   1.060253e+02  -8.777615e+00
   6.588519e+01  -2.077119e+01
   4.590413e+00   6.550999e+01
  -6.574637e+01   1.162636e+02
  -3.643110e+01   1.172536e+01
  -5.307744e+01  -4.473927e+01
  -4.327640e+01  -5.251966e+01
   2.145071e+01  -7.734825e+01
   1.602160e+00  -9.745409e+00
   6.040204e+01  -2.414412e+01
   4.180496e+01  -5.410766e-01
   5.659920e+01  -4.253865e+01
   4.006944e+01  -1.269795e+01
   4.922437e+01   5.186191e+01
  -4.026765e+00   3.457778e+01
   6.989047e+00   4.436568e+01
  -8.715135e+01  -5.653055e+00
   1.597363e+01  -4.920079e+00
   3.767571e+01  -1.486685e+01
   4.943502e+01  -2.123969e+01
   3.541035e+01   3.806648e+01
   1.671005e+00  -1.271783e+01
  -2.884471e+01   4.561170e+00
  -9.264953e+00  -6.143519e+00
   3.807632e+01   3.862852e+01
   6.237861e+01  -2.307512e+01
  -1.649860e+01  -9.913974e+00
  -6.712752e+01   1.762639e+01
   3.096950e+01  -9.678110e+00
  -1.191054e+01  -7.870624e+01
   3.068649e+01  -3.353783e+01
   1.061555e+01   3.903285e+01
  -1.072618e+01   4.251591e+01
   2.377916e+01  -5.486186e+01
  -2.258107e+01  -7.788082e+01
  -3.828520e+01  -2.278890e+01
  -2.402184e+01  -1.436473e+01
  -3.912942e+00   2.865823e+01
   5.694632e+01   2.513369e+00
   6.985082e+01   2.316110e+00
   7.055493e+00  -5.727614e+00
   3.063499e+01  -3.406179e+01
  -3.534560e+01   2.249407e+01
   3.301279e+01   2.006587e+01
  -3.737083e+01   6.445628e+01
  -4.480349e+01   4.946160e+01
  -2.567796e+01   1.344676e+01
   4.354311e+00  -4.519402e+01
   3.829716e+01  -5.562447e+01
  -2.338005e+01   1.988259e+00
   1.766712e+01  -5.285280e+00
  -2.709350e+01   3.110380e+01
   4.003524e+01   1.666937e+01
   1.188149e+01  -5.339189e+01
   9.468770e+01  -1.540630e+01
   5.555801e+01   2.193056e+01
   4.990262e+01   7.404307e+01
  -5.721661e+01  -1.911598e+01
  -1.697587e+01  -2.265781e+01
   8.975774e+00  -4.558856e+01
   2.063310e+00   5.116142e+00
   3.574660e+01   3.496407e+01
  -5.866515e+01  -5.465530e-01
  -3.841034e+01   3.131786e+01
  -6.057956e+01  -2.637499e+01
  -3.063561e+01  -6.161168e+01
   1.411266e+00  -8.481140e+01
   3.484965e+01  -6.710100e+00
   4.294483e+01   6.192324e+01
   2.079632e+01  -6.502595e+01
   6.926455e+01   6.024510e+01
  -3.528603e+01  -6.447653e+00
   4.296948e+01  -1.257532e+01
   1.606198e-01   2.008164e+01
  -2.440872e+01  -7.294931e+01
  -5.523503e+01  -7.501513e+01
   3.407219e+00  -8.602526e+01
   9.193705e+00  -1.117617e+01
   3.120515e+01  -5.388818e+01
   5.397512e+01   1.874899e+01
  -1.121564e+01   5.768915e+00
  -3.955272e+01  -3.270607e+01
   3.461343e+01   1.887336e+01
  -4.672072e+01  -6.401430e+00
  -3.642621e+01   3.758944e+01
   1.519288e+01  -2.766793e+01
  -3.227173e+01  -8.170648e+00
   3.171915e+00   1.169367e+01
  -3.826082e+01  -1.570218e+01
   4.813544e+01   5.178426e+01
   3.704705e+00   2.138186e+01
  -2.509136e+01   1.136841e+02
  -9.135046e+01  -6.474034e+00
  -1.034202e+02  -2.528880e+01
  -5.677224e+01  -2.561115e+01
  -3.214525e+01  -1.018699e+02
   6.902585e+01  -2.169562e+01
   2.377610e+01  -1.905777e+01
   1.796408e+01   4.255501e+01
   1.030679e+01   2.984642e+01
   5.739485e+01   1.646591e+01
   6.360919e+01   1.847871e+01
   4.732578e+01   6.062284e+00
  -3.581304e+01   1.039564e+01
  -2.344276e+01  -2.904870e+01
  -2.144031e+01  -2.088556e+01
   6.267061e+01  -2.604285e+01
   2.490799e+01  -7.467303e+01
   9.213506e+01   1.899914e+01
   4.788383e+01   2.902854e+01
  -4.375431e+01   4.060430e+00
  -2.612484e+01  -1.695120e+01
  -4.649940e+01  -4.641935e+01
  -1.666954e+00   2.238353e+01
   1.922425e+01  -1.673612e+01
  -3.349509e+01  -3.219108e+00
   2.751603e+01   7.612449e-01
  -3.889419e+00  -6.515412e-01
   4.013753e+01  -4.294481e+01
   6.659568e+01  -3.166476e+01
  -1.100741e+01   3.533987e+01
   3.201517e+00   6.721918e+01
   5.523927e+01   3.444196e+01
   6.505383e+01   3.196728e+01
  -3.820419e+01  -3.133152e+01
   1.559842e+00  -4.754073e+00
  -5.538649e+01  -1.922567e+01
  -1.428777e+01   2.269414e+01
   1.034957e+01   9.672620e+00
  -1.894169e+01   2.746806e+01
  -2.267482e+01  -2.345294e+01
   1.765456e+01   3.229355e+00
   8.818845e+00  -2.307584e+01
   1.796365e+01   1.675224e+01
  -4.620224e+01   4.223955e+01
   3.964174e+00  -3.382961e+01
   2.950112e+01  -3.560570e+01
  -4.566297e-01  -8.301235e+00
   5.681856e+01   4.745038e+01
   1.336091e+01   1.724217e+01
   2.296556e+01   7.066785e+01
  -2.531916e+01  -1.800903e+01
   2.402830e+01   4.392659e+00
   5.233535e+00  -5.455608e+01
   5.372354e+01   1.555485e+01
   1.178170e+01   2.199313e+01
  -3.464031e+00   4.530395e+01
  -1.750037e+01   4.413094e+01
  -4.431079e+00  -3.449442e+01
  -9.399853e+01   1.222367e+00
   6.899584e+00   1.533812e+01
  -2.783678e+01  -4.456797e+01
