
 $NMID
 id='ANONYMOUS ', fmtdat='(2E16.6)'
 volume=1.0
 tramp=1.0
 $END
  -1.209026e+03  -7.605361e+01
  -8.287206e+02  -5.964884e+02
  -4.332905e+01  -7.691913e+02
   4.532056e+02  -4.960949e+02
   3.789535e+02  -1.790889e+02
   3.464184e+01   2.932758e+01
  -9.141655e+01   6.147644e+00
   3.378587e+01  -1.511425e+02
   1.724985e+02  -2.074088e+02
   2.249070e+02  -4.611501e+00
   1.600193e+02   2.476440e+02
   3.110118e+01   2.746741e+02
  -1.233871e+02   1.652566e+02
  -8.917496e+01  -1.476910e+02
   6.186215e+01  -2.083536e+02
   1.315783e+02  -9.246307e-01
   1.005054e+02   1.628446e+02
   2.801252e+01   2.578711e+02
  -1.847616e+02   1.248209e+02
  -2.227245e+02  -4.459695e+01
  -3.821344e+01  -1.166131e+02
   3.544126e+01  -9.743003e+01
  -1.497026e+01  -3.989940e+00
  -2.114342e+01  -8.224120e+01
  -5.922146e+01  -1.328217e+02
   7.777664e+01  -1.708131e+02
   2.092607e+02  -1.013298e+02
   1.966177e+02   2.005338e+01
   1.375793e+02   1.324590e+02
  -1.137132e+02   1.014408e+02
  -1.813558e+02  -1.134794e+00
  -3.910930e+01  -1.262049e+02
   8.939866e+01  -1.436516e+02
   1.381868e+02  -3.938220e+01
   1.309390e+02   7.516287e+01
   6.588894e+01   1.290188e+02
   9.654902e+00   9.939653e+01
   1.964558e+01  -3.734341e+01
   6.689357e+01  -5.668858e+01
   9.444445e+01   9.427394e+01
   2.068014e+01   1.382908e+02
  -1.106328e+02   4.725307e+01
  -1.409277e+02  -1.013325e+01
  -2.172254e+01  -6.465833e+01
   9.089668e+01   8.415164e+00
   5.146372e+01   1.190556e+02
  -1.040361e+02   1.478229e+02
  -1.629729e+02  -1.682494e+01
  -1.873617e+02  -1.715255e+02
  -3.526296e+01  -2.003703e+02
   1.336206e+02  -7.702705e+01
   2.035570e+02   9.348615e+01
   1.055622e+02   8.743310e+01
  -6.237556e+01   9.950987e+01
  -5.226597e+01   7.668508e+01
  -2.665003e+01  -7.589792e+00
  -4.623894e+01   1.600484e+01
   2.735908e+01  -5.785116e+00
  -6.869346e+01   1.568804e+01
  -8.152361e+01   1.115151e+01
  -2.017805e+01  -6.774036e+01
   6.300462e+01  -8.082548e+01
   8.750590e+01  -8.036523e+01
   1.470436e+02   9.301163e+01
   5.065006e+01   1.390937e+02
  -1.228325e+02   1.743394e+02
  -1.915106e+02   3.517520e+01
  -8.540806e+01  -6.044944e+01
  -1.350070e+01  -1.229120e+02
  -9.200809e+00  -1.373353e+02
   4.833989e+00  -1.172651e+02
   4.432134e+01  -4.271320e+01
   6.017221e+01  -1.329850e+02
   1.308818e+02   1.656558e+01
   9.533841e+01   3.279930e+01
   2.486883e+00   5.346653e+01
  -5.171635e+01   8.342649e+01
  -1.094942e+02  -6.157426e+01
  -4.442418e+01  -1.237549e+02
   2.886083e+01  -1.646028e+02
   1.437954e+02  -6.004894e+01
   1.407243e+02   8.096857e+01
   7.028709e+01   9.401303e+01
  -6.788187e+00   9.191444e+01
  -5.172175e+01   3.778592e+01
  -3.221859e+01   4.551859e+01
  -6.509522e+01   8.595396e+01
  -1.684252e+02  -4.200593e+01
  -2.096976e+02  -9.068405e+01
  -9.103189e+01  -1.615981e+02
   1.574862e+01  -1.836349e+02
   7.814464e+01  -2.139124e+02
   1.731235e+02  -5.086625e+01
   8.132083e+01   7.319945e+01
  -6.145449e+00   1.401478e+02
  -4.121384e-01   4.530354e+01
  -9.360895e+00  -1.816671e+01
   7.751852e+01   2.785279e+01
   1.806858e+01   6.404538e+01
  -8.021401e+00   7.073872e+01
  -4.310035e+01   3.212153e+01
  -4.690103e+01  -4.705693e+00
   2.207554e+01  -6.808099e+01
   1.031894e+02   7.786113e+00
   8.619188e+01   1.084587e+02
  -2.245724e+01   1.009654e+02
  -5.154114e+01   5.306738e+01
  -1.404975e+02  -1.238411e+01
  -1.121361e+02  -6.318788e+01
  -1.137533e+01  -1.639735e+02
   3.294051e+01  -2.619554e+01
   7.712731e+01   1.947562e+01
  -1.136576e+00   1.195124e+00
  -9.204509e-01   1.674315e+01
   6.780746e+00  -8.201701e+01
   1.778010e+01   3.461779e+01
   2.537833e+01   2.851531e+01
   5.222023e+00   6.689491e+01
  -6.378596e+01   3.519075e+00
   1.968141e+01  -3.723681e+01
   6.284030e+01  -1.040920e+01
   1.347702e+02   2.205278e+01
   1.578498e+02   5.208344e+01
   1.637288e+01   7.904199e+01
  -9.272341e+01   5.701319e+01
  -1.425606e+02   7.390659e+01
  -3.231521e+01  -1.429102e+01
  -1.280156e+01  -5.543093e+00
   3.819143e+01  -3.123208e+00
  -3.019565e+01   1.597980e+01
  -7.047136e+01   3.592815e+00
  -9.547553e+01  -2.648010e+01
   2.324669e+01  -9.189039e+01
   2.825906e+00  -6.424824e+01
   1.285720e+01  -3.197571e+01
   5.420651e+01   1.514189e+01
  -1.735484e+01   2.945503e+01
   1.768857e+01  -7.216779e+01
   8.013170e+01  -1.596178e+01
   6.845326e+01  -1.766921e+00
   1.158582e+02   9.356967e+01
   4.037833e+01   9.168866e+01
  -2.150758e+01   1.033206e+02
  -1.104992e+02   3.234251e+01
  -1.522602e+01  -6.317386e+01
   1.156281e+01  -3.872815e+01
   1.333610e+01  -1.287410e+00
   2.723024e+01   1.953347e+01
  -4.009290e+01   3.641522e+01
  -1.242791e+01  -2.968631e+01
   7.344180e+01   4.813497e+01
   8.677858e+01  -3.652918e+00
   5.865258e+01   7.320131e+01
  -1.174859e+02   1.174129e+02
  -1.087748e+02  -2.025723e+01
  -1.298995e+02  -1.017906e+02
  -6.609155e+00  -3.914626e+01
   5.286089e+01  -3.267785e+01
   7.700666e+01   7.211338e+00
   1.757184e+00   3.471297e+01
  -1.160356e+01  -2.481711e+00
  -1.411962e+01   2.233856e+01
   4.473021e+01  -4.957031e+00
  -2.223376e+01   5.558312e+01
  -1.161494e+01   3.870270e+01
  -2.558259e+01   5.235456e+00
  -5.081059e+01  -6.826103e+01
   4.058211e+01  -8.882260e+01
   8.092458e+01   1.375504e+01
   6.640561e+01   3.737695e+01
   2.653181e+01   8.075854e+01
  -3.603004e+01   1.164426e+02
  -1.254885e+02   6.486168e+01
  -4.735660e+01  -4.253555e+01
  -5.252015e+01  -7.559436e+01
   5.886961e+01  -7.978753e+01
   5.081604e+01   1.098196e+01
   3.602357e+01  -2.337559e+01
   5.257014e+01  -2.967714e+01
   1.586664e+01  -7.435723e+01
  -1.560802e+01  -4.346987e+01
   6.128667e+01   7.411315e+01
  -2.383524e+01   1.064770e+02
  -7.724561e+01   4.211756e+01
  -5.380529e+00   3.226255e+01
  -6.306669e+01  -6.746626e+01
  -2.574413e+01  -6.417233e+01
  -2.619737e+01  -3.255422e+01
   8.189448e+01   1.530035e+01
   6.415290e+00  -3.032154e+01
   1.614709e+01   5.664878e+01
   8.413544e+00  -1.260765e+01
   3.126218e+00  -1.575140e+00
   2.877869e+01   3.148929e+01
  -3.294080e+01   4.501223e+01
  -8.523414e+01  -1.179406e+01
  -4.286127e+01  -1.846731e+01
   1.668827e+01  -3.835593e+01
   2.603422e+01  -2.176832e+01
   4.574727e+01  -2.605478e+00
   3.070583e+01   2.583120e+01
   2.364319e+01   2.967756e+01
  -3.406493e+01   2.510267e+01
  -4.887491e+00  -1.127763e+01
   4.222291e+01  -5.147243e+01
   2.691803e+01   4.376638e+01
   4.441938e+01   8.752628e+00
  -2.699272e+01   5.200310e+01
   2.720688e+01  -5.102982e+00
   6.435632e+01  -2.842878e+01
   1.385256e+01   5.151256e+01
   3.729670e+01   3.949111e+01
  -6.920851e+01   8.678109e+01
  -5.936325e+01  -4.331689e+01
  -6.650705e+01  -5.164930e+01
   1.701535e+01  -4.767573e+01
   9.541016e+01  -7.639265e+00
   5.953612e-01   2.923743e+01
  -2.637356e+01   5.478912e+01
  -3.174948e+01   3.956642e+01
   2.271328e+00  -6.111524e+01
   8.716330e+01  -1.081098e+02
   5.212581e+01  -4.873291e+01
   1.528721e+02  -1.131775e+01
   1.679211e+01   2.865892e+01
  -1.554483e+01  -2.190970e+01
  -5.786623e+01   1.204485e+01
   4.040553e+01   3.491312e+01
  -3.954172e+01   1.876623e+01
  -8.102943e+00   1.160928e+02
  -8.819134e+01  -1.084304e+01
  -3.105332e+01   2.959823e+01
  -7.684585e+01  -5.453709e+01
  -4.846985e+01  -1.107831e+02
   6.334952e+00  -2.361937e+01
   7.864380e+01  -2.145714e+01
  -9.004121e+00   2.228603e+01
   4.882309e+01  -5.439333e+01
  -4.534892e+01  -5.794870e+00
  -2.628130e+01  -1.651990e+01
  -6.727597e+01  -2.462421e+01
   2.550543e+01  -1.834527e+01
  -3.049321e+01  -2.924239e+00
  -1.221107e+01  -2.587847e+01
  -8.041433e+00  -9.715669e+01
  -1.382385e+01  -1.328511e+01
   8.377695e+01   4.900904e+01
   6.057121e+01   1.272085e+01
   9.775724e+00  -7.455647e+00
  -2.034257e+01  -3.485469e+01
  -7.269973e+01   2.148812e+01
   6.206481e+01  -8.018358e+00
   1.673130e+01   4.649274e+01
   4.787769e+01   3.225279e+01
   2.676517e+01  -8.581466e+00
  -2.936695e+01  -2.327531e+01
   8.215448e+00  -1.493625e+01
   4.636679e+01  -1.194501e+01
  -1.252738e+01   2.352953e+01
  -4.506654e+01   5.756049e+01
  -4.279820e+01   7.655563e+00
  -1.035404e+02  -3.526499e+01
  -2.566515e+01  -1.042215e+01
   4.763090e+01  -3.762992e+01
   8.679260e+01  -2.094915e+01
   6.460320e+01  -1.030943e+01
   2.340294e+01  -2.388301e+01
   4.570616e+01   8.098537e+00
   1.557570e+01  -1.129988e+01
  -5.167265e+01   9.948338e+00
   8.759099e+00   1.128673e+02
  -7.537252e+00   3.679522e+01
  -7.154098e+01   1.874943e+00
  -4.286460e+01  -4.331851e+01
  -7.063240e+01  -7.404419e+01
   4.050422e+01  -2.704700e+01
   3.702790e+01  -2.092514e-01
   4.535049e+01   5.334074e+01
   2.843810e+01   4.690206e+01
  -1.148244e+02  -1.194598e+01
   1.840617e+01   2.149907e+01
   5.023475e+01   5.724276e-01
  -5.161452e+00  -1.883203e+01
  -4.748436e+00  -4.244656e+01
  -5.095181e+01  -4.806916e+01
   4.959607e+01  -3.133900e+01
   4.756616e+01  -7.338082e+00
   5.525839e+01  -2.690472e+01
   4.237888e+01   2.149900e+01
  -1.354587e+01   3.263168e+01
  -7.477705e+01   7.014000e+01
  -3.944481e+00  -2.276219e+01
  -2.831059e+01  -6.150214e+01
  -1.973352e+01  -4.158365e+00
   1.298634e+01   1.084169e+01
   5.282377e+01   5.681393e+00
   3.837309e+01  -2.152597e+01
   3.897246e+01  -5.799105e+01
  -4.787360e+01  -3.054459e+01
  -3.607155e+01  -2.124356e+00
   4.704017e+00  -1.276490e+01
   4.119909e+01   9.400989e+00
  -8.003979e+01  -6.094460e+01
   3.414122e+01  -2.399498e+01
   8.387528e+01  -1.363760e+01
  -2.004323e+00   1.969912e+01
   2.603756e+01   3.450774e+01
   3.911352e+01  -2.363537e+01
   9.318712e+00  -1.856775e+01
  -6.331449e+01  -1.482471e+01
   1.512213e+01  -5.357204e+01
   3.114673e+01   2.406961e+01
   2.484122e+01   8.326843e+01
  -4.501192e+00  -4.525655e+00
   1.168951e+01  -1.914198e+01
  -2.301029e+01   3.014255e+01
   6.151240e+00   5.406087e+00
   3.192558e+01   6.617973e+00
   7.105850e+01  -5.689998e+00
  -3.590114e+00  -1.415455e+00
