
 $NMID
 id='ANONYMOUS ', fmtdat='(2E16.6)'
 volume=1.0
 tramp=1.0
 $END
   1.768154e+03   1.275141e+02
   1.236802e+03   8.400914e+02
   1.709474e+02   1.191566e+03
  -5.909568e+02   9.267120e+02
  -6.824305e+02   3.617180e+02
  -2.631625e+02  -1.067417e+02
   5.961746e+01  -3.378538e+01
   9.475288e+01   1.985719e+02
  -1.819242e+02   3.278229e+02
  -3.162310e+02   9.305177e+01
  -2.444828e+02  -2.349852e+02
  -7.508250e+01  -4.019404e+02
   9.815856e+01  -1.003405e+02
   7.479159e+01   2.030970e+02
  -9.170790e+01   2.700033e+02
  -2.398475e+02   6.934007e+01
  -1.751400e+02  -2.970790e+02
   1.620905e+01  -4.169308e+02
   3.588833e+02  -2.533414e+02
   3.277699e+02   1.110339e+02
   8.572641e+01   1.892226e+02
  -4.656699e+01   1.189350e+02
  -1.478079e+01   8.003805e+01
   1.450662e+02   1.407374e+02
   1.625513e+02   2.241828e+02
  -9.176717e+01   1.995134e+02
  -3.115370e+02   2.526848e+01
  -3.385856e+02  -2.018855e+02
  -7.868485e+01  -2.168578e+02
   1.769496e+02  -2.007312e+01
   2.216214e+02   1.043026e+02
   7.443926e+01   1.810742e+02
  -1.764644e+02   1.906815e+02
  -2.529579e+02   1.534652e+01
  -1.857191e+02  -3.610525e+01
  -8.620561e+01  -1.935928e+02
  -7.739052e+01  -4.922430e+01
  -1.166143e+02   1.682306e+01
  -8.515759e+01  -2.080464e+01
  -4.075737e+01  -1.244856e+02
   6.241416e+01  -2.635653e+02
   1.513519e+02  -1.656516e+02
   1.683895e+02   4.994276e+01
   2.884587e+01   9.665222e+01
  -8.403991e+00  -2.366255e+01
  -9.379306e+00  -1.537239e+02
   1.185966e+02  -2.523260e+02
   2.388059e+02  -8.221583e+01
   2.579093e+02   2.561777e+02
   1.322509e+01   2.862909e+02
  -1.952572e+02   1.401553e+02
  -2.808906e+02  -5.144379e+01
  -1.954986e+02  -1.567928e+02
   7.213550e+00  -9.884671e+01
   1.632122e+02  -7.393109e+01
   6.310035e+01   1.946327e+00
   2.743027e+01   8.210982e+00
  -7.586735e+00  -5.401547e+01
   1.345105e+01   6.412509e+01
   1.181452e+02   2.231490e+01
   7.364347e+01   1.259802e+02
  -1.132501e+02   9.731648e+01
  -1.940576e+02   4.177298e+01
  -1.685015e+02  -2.957894e+01
   1.680670e+00  -2.023898e+02
   2.226731e+02  -2.373256e+02
   2.998504e+02  -1.068813e+02
   7.797435e+01   1.032277e+02
  -3.292759e+01   1.619694e+02
  -4.873141e+01   1.585296e+02
  -4.538525e+00   5.694020e+01
  -1.714895e+01   9.223092e+01
  -1.776940e+02   6.684550e+01
  -1.564864e+02   3.916650e+01
  -1.349567e+02  -9.848703e+01
  -2.437249e+01  -1.735474e+02
   3.833489e+01  -1.030061e+02
   1.479469e+02   4.129695e+01
   1.296539e+01   1.822310e+02
  -6.420244e+01   1.677144e+02
  -2.275867e+02  -1.429126e+01
  -1.829329e+02  -1.084782e+02
  -6.996937e+01  -1.522729e+02
   7.514410e+01  -1.598951e+02
   1.552428e+02  -9.805628e+01
   1.174691e+02  -8.619347e+01
   1.083519e+02  -3.835044e+01
   1.995714e+02  -4.529219e+01
   2.269863e+02   5.158288e+01
   1.904475e+02   1.699755e+02
  -9.350424e+00   2.024062e+02
  -2.707137e+02   2.633597e+02
  -2.962832e+02   8.575955e+01
  -1.927842e+02  -3.015130e+01
   1.818025e+00  -1.589641e+02
   8.904768e+01  -8.615874e+01
   6.037145e+01  -1.461610e+01
  -7.369978e+01  -3.287780e+00
  -7.424678e+01  -1.862890e+01
   1.074333e+00  -6.832904e+01
   1.357471e+01  -5.332256e+01
   5.564590e+01   4.664071e+00
  -4.842846e+01   5.805132e+01
  -7.470704e+01   6.317645e+00
  -8.799258e+01  -1.976402e+02
   1.154358e+01  -1.853060e+02
   1.607153e+02  -1.299889e+02
   2.126402e+02   4.853710e+01
   1.736877e+02   2.210539e+02
  -6.096923e+00   2.012138e+02
  -5.962977e+01   1.296634e+02
  -4.997088e+01  -1.254284e+01
  -8.323272e+00   4.899361e+01
  -1.330229e+00   1.112714e+02
  -3.278461e+01   8.615766e+01
  -6.373266e+01   8.896125e+01
  -9.389195e+01  -8.268362e+01
  -5.255803e+01   4.316248e+01
  -6.545514e+00   3.334794e+01
  -2.539940e+00   4.125678e+01
  -9.457790e+01   4.744958e+01
  -2.182459e+02  -6.808945e+01
  -2.070272e+02  -1.178024e+02
   3.007132e+01  -1.515420e+02
   1.770046e+02  -1.245623e+02
   1.433731e+02  -2.514309e+01
   8.254874e+01   5.631061e+01
  -1.780598e+01   6.228300e+01
   3.752085e+01   1.968599e+01
   6.899738e+01  -2.508392e+01
   1.832844e+02   1.973075e+01
   9.794503e+01   1.480814e+02
  -2.852177e+01   1.660796e+02
  -4.468506e+01   9.334955e+01
  -8.353766e+01   5.712384e+01
  -2.781652e+01   5.935312e+00
   1.402153e+01   1.849798e+01
   2.780516e+01   8.566655e+01
  -7.702340e+01   1.197793e+02
  -1.341644e+02  -2.641125e+01
  -1.191045e+02  -1.571382e+02
   1.994547e+00  -1.162259e+02
   7.640415e+01  -4.210171e+01
   1.221901e+02   4.877154e+01
   7.365065e+01   2.052211e+01
  -5.663457e+01   5.660630e+01
  -3.115620e+01   7.075522e+00
   1.007835e+01  -3.032328e+01
  -1.049692e+01   6.610054e+00
  -1.659977e+01  -3.422827e+01
  -1.011716e+02   2.151411e+01
  -7.758559e+01  -4.303273e+01
  -3.114263e+01  -1.408877e+02
   1.800451e+02  -1.329135e+02
   9.387883e+01  -1.027796e+01
   7.994245e+01   1.129309e+02
   4.498270e+01   1.167993e+02
  -1.360521e+01   3.551474e+01
  -5.721473e+01   1.919130e+01
  -2.298118e+01  -3.298112e+01
  -1.213755e+01  -2.258476e+01
  -6.111356e+01   3.178329e+01
  -2.166498e+01   3.741434e+01
  -6.329010e+00  -4.510912e+01
   1.052828e+02  -6.351789e+01
   1.157863e+02  -6.850654e+01
   7.577603e+01   1.810735e+01
  -1.031639e+01   1.022720e+02
  -1.441171e+02   9.894838e+01
  -1.191304e+02  -4.469017e+01
  -6.254778e+01  -1.770714e+02
   8.085439e+01  -1.947817e+02
   2.196450e+02  -1.346572e+01
   1.762790e+02   1.560564e+02
   8.093960e+01   1.838433e+02
  -8.227407e+01   9.528211e+01
  -4.610882e+01   9.645487e+01
  -5.361207e+01  -1.480805e+01
  -1.060253e+02   4.388389e+01
  -9.218737e+01   1.265269e+02
  -7.837488e+01  -4.937364e+01
  -8.549160e+01  -1.210073e+02
  -2.650584e+01  -1.531554e+02
   5.550562e+01  -1.038832e+02
   2.333838e+00   4.243510e+01
   6.318982e+01   1.102152e+02
   6.052088e+01   1.259577e+02
   2.201486e+01   8.593635e-01
  -4.871987e+01   1.149801e+00
   4.312156e+01  -2.981477e+01
  -1.829838e+01  -2.575608e+01
  -5.462379e+01   3.838065e+01
  -6.456783e+01  -1.591521e+01
  -1.897062e+01  -5.089639e+01
   7.217914e+01  -3.048878e+01
   1.284577e+02   2.264092e+01
   9.096228e+01   9.592132e+01
   2.504948e+01   1.005951e+02
  -8.930632e+01   1.019155e+02
  -6.860738e+01   2.645588e+01
  -7.333054e+01  -1.544762e+01
   7.058990e+01  -3.261505e+01
   5.317612e+01   2.607751e+01
   3.142536e+01   3.827831e+01
  -7.095297e+01   1.024453e+02
  -7.497482e+01   7.284261e+01
   3.500198e+00  -2.330574e+01
  -3.715798e+00  -4.523911e+01
  -6.256961e+01   7.005185e+01
  -8.354598e+01  -8.844321e+00
  -1.551146e+01  -3.517405e+01
   3.572886e+01  -1.433347e+02
   3.716755e+00  -7.787153e+01
   1.549256e+02   3.898831e+00
   6.831957e+01   5.797388e+01
  -1.781906e+01   6.541464e+01
  -7.225335e+01   3.383876e+01
  -4.563528e+00  -9.204276e+01
   3.657905e+01   4.921264e+01
   4.089453e+01   5.880295e+01
   5.183282e+01   8.815902e+01
  -2.273255e+01   7.219507e+01
  -1.053813e+02  -1.774747e+01
  -1.394858e+02  -6.833134e+00
  -2.657434e+01  -6.200905e+01
   1.007285e+02   1.831960e+00
   4.048493e+01   6.197845e+01
  -1.037049e+02   5.918953e+00
  -1.010605e+02   3.003003e+01
  -3.961465e+01  -1.156370e+02
   2.213125e+01  -1.436615e+02
   1.522344e+02  -6.458992e+01
   9.514629e+01   6.157347e+01
   2.105364e+01   1.020276e+02
  -2.765348e+01   7.022196e+01
  -6.895871e+01   8.639852e+00
   7.927030e-01  -5.856546e+01
   5.481105e+01  -5.615302e+01
   2.497529e+01   3.091177e+01
   1.486180e+00   4.595230e+00
   3.625443e+00   2.918154e+01
  -1.332669e+00  -2.060608e+01
   1.601894e+00  -2.448877e+01
  -5.811578e+00   6.334155e+01
   1.989552e+01   5.639624e+01
  -3.923681e+01   6.233938e+01
  -1.517088e+02  -6.902559e+01
  -7.855955e+01  -3.828129e+01
   9.237132e+00  -4.323632e+01
   1.108426e+02  -5.012892e+01
   2.046721e+01   6.386827e+01
   1.606063e+01  -2.987976e+01
   7.093769e+00   4.986785e+01
   1.107876e+01  -1.158614e+01
  -3.796309e+00  -3.031959e+01
  -3.994963e+01   3.574360e+01
  -1.616791e+01  -3.102522e+01
  -7.940213e+01  -2.812951e+01
  -7.464970e+00  -7.166636e+01
   8.150666e+00  -7.654539e+01
   1.688754e+02  -8.732539e+01
   1.402197e+02   6.499005e+01
  -1.734129e+01   1.113560e+02
  -9.702405e+01   1.120035e+02
  -9.208722e+01   9.646341e+01
  -5.072943e+01   8.765621e+00
   7.765919e-01  -2.126155e+01
   6.577766e+01  -2.252322e+01
   7.119263e+01   8.236305e+01
  -3.496181e+01  -7.462605e+01
  -4.646007e+00  -1.188970e+01
   5.352968e+01  -9.633590e+01
  -1.528125e+01  -5.560591e+00
   1.457330e+02   8.460274e+01
   2.747532e+01   6.797991e+01
  -2.534403e+01   8.407960e+01
  -7.209458e+01  -8.436176e+00
  -5.621245e+01  -7.271691e+01
   4.528599e+01   1.374689e+01
   4.355748e+01  -2.494779e+00
   1.356964e+01  -5.277190e+01
  -6.623517e+01  -1.418582e+01
  -5.164662e+01  -2.548776e+01
   7.811670e+01  -8.976912e+01
   9.415574e+01  -3.441735e+01
   7.034246e+00  -3.039129e+01
  -1.453417e+01   5.480402e+01
  -6.057024e+01   1.848382e+01
  -5.829871e+01   2.910919e+01
  -4.435377e+01  -8.940623e+01
   9.466462e+01  -3.260104e+01
   5.050100e+01  -4.703582e+01
  -6.182217e+00   2.239174e+01
  -1.278298e+01  -1.263872e+01
  -6.222534e+01  -4.594648e+01
  -4.921471e+00  -2.823024e+01
  -2.206344e+01  -3.712404e+00
   2.652385e+01  -3.272315e+01
   5.232357e+01   3.923863e+00
   7.170572e+00  -1.575854e+01
  -2.075561e+01  -5.275140e+01
   5.184571e+00   1.924943e+01
   2.202313e+01   2.206546e+01
  -2.408564e+01   5.590006e+01
  -5.372124e+00   3.089091e+01
  -6.118342e+01   4.747527e+01
  -6.006844e+01  -7.956119e+01
   7.680210e+01  -3.137563e+01
   5.505942e+01   2.998366e+01
  -3.181984e+01   9.227769e+01
  -4.909401e+01   5.819897e+01
  -2.823139e+01  -5.365927e+00
  -6.034534e+01  -4.888340e+01
   2.705061e+01  -3.392318e+01
   1.076980e+01  -4.741163e+01
   8.463763e+00   3.309490e+01
  -3.374955e+01   1.988437e+01
  -1.896372e+01  -2.957935e+01
   1.839491e+01  -1.890658e+00
   8.223612e+00   6.020844e+00
