
 $NMID
 id='ANONYMOUS ', fmtdat='(2E16.6)'
 volume=1.0
 tramp=1.0
 $END
  -2.941095e+03   1.370332e+02
  -2.033878e+03  -1.366329e+03
  -2.392664e+02  -1.943953e+03
   1.095177e+03  -1.304073e+03
   9.236148e+02  -2.657732e+02
   1.097199e+02   2.160594e+02
  -3.742208e+02  -5.329650e+01
  -1.239764e+02  -4.511086e+02
   3.918264e+02  -6.331254e+02
   5.378603e+02  -1.011765e+02
   5.049015e+02   4.033514e+02
   8.331246e+01   6.214926e+02
  -3.313580e+02   2.251511e+02
  -2.594838e+02  -3.227299e+02
   3.093186e+01  -4.812288e+02
   3.295535e+02  -7.355915e+01
   3.258587e+02   4.095976e+02
  -1.279528e+02   5.791405e+02
  -4.310346e+02   2.860580e+02
  -4.584345e+02  -1.047771e+02
  -1.410182e+02  -3.714029e+02
   5.436220e+01  -2.423361e+02
   7.120407e+01  -9.727327e+01
  -1.475219e+02  -1.171433e+02
  -2.378903e+02  -2.559142e+02
   2.521099e+01  -3.263430e+02
   4.097485e+02  -1.455620e+02
   5.775100e+02   9.705638e+01
   1.938033e+02   3.096323e+02
  -2.297014e+02   1.352721e+02
  -4.377026e+02  -6.126944e+01
  -1.982997e+02  -3.398969e+02
   1.882553e+02  -3.150292e+02
   4.391305e+02  -1.729474e+02
   2.666084e+02   1.176739e+02
   6.526212e+01   2.867409e+02
  -3.646363e+01   1.855220e+02
   6.803420e+00  -3.859745e+01
   1.647124e+02  -1.214728e+02
   1.928700e+02   7.051928e+01
   2.377754e+01   4.926454e+02
  -1.729392e+02   4.126812e+02
  -2.520150e+02   1.063164e+02
  -1.178425e+02  -2.744690e+02
   7.016167e+01  -1.591929e+02
   1.551127e+02   2.397349e+02
  -1.036074e+02   3.110525e+02
  -3.556865e+02   9.049069e+01
  -4.048223e+02  -3.452845e+02
  -1.546914e+02  -4.933576e+02
   2.631055e+02  -2.718797e+02
   4.234672e+02   1.329117e+01
   3.190885e+02   2.268807e+02
  -6.918293e+00   1.935695e+02
  -2.614696e+02   7.898159e+01
  -1.938535e+02   7.477685e+00
  -2.034055e+01  -3.656496e+01
   7.338120e+01   2.045221e+01
  -1.232933e+02   7.680336e+01
  -2.331936e+02   3.127984e+00
  -1.845227e+02  -1.895999e+02
   1.172575e+02  -2.072447e+02
   3.462495e+02  -1.557105e+02
   1.860348e+02   1.121313e+02
  -1.434629e+01   3.085515e+02
  -3.179641e+02   3.900359e+02
  -3.594952e+02   1.853382e+02
  -2.242106e+02  -1.491097e+02
  -7.582696e+01  -2.690368e+02
   1.406829e+01  -2.866419e+02
   1.954295e+01  -2.173356e+02
   9.523419e+01  -1.309366e+02
   1.204356e+02  -8.214256e+01
   2.190526e+02  -6.442052e-01
   1.962696e+02   9.484996e+01
   8.351548e+01   1.783580e+02
  -7.001105e+01   1.805547e+02
  -1.564408e+02   6.166088e+00
  -1.021752e+02  -2.498323e+02
   5.173549e+01  -3.106982e+02
   2.402044e+02  -5.268040e+01
   2.340596e+02   1.372451e+02
   1.565633e+02   2.548197e+02
  -2.154290e+00   2.268608e+02
  -1.769528e+02   1.438773e+02
  -1.120776e+02   8.439542e+01
  -1.652657e+02   3.232034e+01
  -2.616602e+02   4.788321e+01
  -3.806418e+02  -5.834372e+01
  -2.725102e+02  -2.977564e+02
   6.964333e+01  -3.651270e+02
   3.422076e+02  -3.723371e+02
   4.313773e+02  -1.431920e+02
   1.997467e+02   8.862339e+01
   3.783769e+01   2.050977e+02
  -5.143756e+01   1.603425e+02
   2.035799e+01   1.172088e+01
   1.207138e+02  -3.890532e+01
   1.556229e+02   8.902385e+01
  -3.740811e+01   1.198175e+02
  -1.103079e+02   1.233609e+02
  -7.880624e+01  -6.953472e+01
  -1.408535e+01  -8.853107e+01
   1.239376e+02  -5.789353e+01
   1.264977e+02   2.005936e+02
  -5.382501e+01   3.150546e+02
  -2.172203e+02   1.591368e+02
  -3.618846e+02  -2.654962e+00
  -2.301678e+02  -2.802719e+02
  -4.231633e+01  -2.690722e+02
   1.297350e+02  -1.316010e+02
   1.240558e+02  -4.964337e+00
   3.739290e+01   3.235709e-01
  -2.066053e+01  -1.377248e+02
  -1.247643e+01  -6.973512e+01
   9.646982e+01  -2.983849e+01
   1.075581e+02   3.321039e+01
  -2.524712e+00   8.318667e+01
  -6.938483e+01   1.332001e+01
   2.001885e+01  -1.068684e+02
   1.135813e+02  -9.126988e+01
   3.335326e+02   7.180463e+01
   1.898141e+02   1.510799e+02
   2.047034e+01   2.259475e+02
  -2.031658e+02   2.399457e+02
  -2.455948e+02   6.592828e+01
  -1.144322e+02  -8.229182e+01
   7.029838e+01  -5.520044e+01
   2.301166e+01   4.218528e+01
  -5.176246e+01   6.003346e+01
  -1.793713e+02  -3.528317e-02
  -2.185955e+02  -4.957376e+01
  -6.273736e+01  -1.763171e+02
   4.844431e+01  -1.296748e+02
   9.616109e+01   4.156907e-01
  -7.486347e-01   1.311123e+01
  -5.420797e+01  -1.572718e+00
  -5.414822e+00  -9.319232e+01
   1.333143e+02  -4.846406e+01
   1.955588e+02   4.219007e+01
   1.635649e+02   1.093526e+02
   2.489502e+01   1.654347e+02
  -1.000851e+02   8.387667e+01
  -1.518412e+02   9.456752e+00
  -6.608618e+01  -1.272596e+02
   2.525410e+01  -1.003918e+02
   4.993120e+01  -1.058731e+01
  -6.946859e+00  -1.266899e+01
  -1.193871e+02   2.985525e+01
  -3.948122e+00  -1.871236e+01
   8.129154e+01  -4.476493e+00
   1.996322e+02   1.486373e+02
  -5.422483e+01   1.515009e+02
  -1.353718e+02   1.553142e+02
  -2.611138e+02  -3.118355e+01
  -1.955365e+02  -1.480453e+02
  -3.202159e+01  -1.906107e+02
   2.687449e+01  -1.238242e+02
   1.115368e+02  -3.070624e+01
   9.737527e+01   5.413553e+01
   6.007876e+01   2.145297e+01
   1.924013e+01   4.652299e+00
   1.093059e+02  -8.356778e+01
   5.505134e+01   1.196328e+02
  -4.635525e+01   8.779312e+01
  -6.377557e+01   6.131829e+01
  -1.652019e+02  -1.501293e+01
   8.407039e+00  -7.873726e+01
   1.725597e+02  -1.372935e+02
   1.973720e+02   7.717663e+01
   8.212613e+01   2.327740e+02
  -8.275471e+01   2.153349e+02
  -2.792118e+02   1.007769e+02
  -2.423596e+02  -6.495988e+01
  -1.540320e+02  -1.614190e+02
   2.955015e+01  -1.532577e+02
   5.916047e+01  -7.206725e+01
   1.162119e+02  -9.062321e+01
   7.698001e+01  -9.820085e+01
   1.475316e+02  -4.590997e+01
   8.661511e+01  -4.303060e+01
   1.024345e+02   1.290504e+02
   4.848735e+01   2.258845e+02
  -6.248518e+01   1.413363e+02
  -2.074480e+02   3.405593e+01
  -8.348288e+01  -1.524000e+02
  -2.075826e+00  -1.159136e+02
   2.775142e+01  -4.611035e+01
   5.116733e+01   7.267249e+01
  -2.618784e+01   4.152253e+01
  -4.065608e+01   8.291543e+00
   3.949607e+01   3.539738e+01
   1.093189e+02   2.369268e+01
  -5.848941e+00   9.073774e+01
  -9.253396e+01  -3.511908e+01
  -2.107096e+02  -9.254449e+00
  -1.757540e+02  -2.120648e+01
  -5.837388e+00  -1.201318e+02
   1.540813e+02  -9.427335e+01
   1.599488e+02   3.709846e+01
   1.945641e+01   5.111835e+01
  -1.112700e+02   1.467278e+00
  -1.088728e+02   4.596212e+00
   2.871380e+00  -3.678285e+01
   5.604558e+01  -1.112704e+02
   6.375284e+01  -2.179998e+01
   3.911459e+01   9.144218e+01
   1.104525e+02   9.907183e+01
   3.596200e+01   3.474150e+01
   1.027203e+02   3.152715e+01
  -4.356069e+00  -2.348265e+00
  -7.735562e-01   1.582668e+02
  -1.360809e+02   1.727330e+02
  -1.719145e+02   3.007829e+01
  -1.158213e+02  -8.952543e+01
  -3.966452e+00  -1.473123e+02
   2.974623e+01  -9.852482e+01
   7.094115e+01  -1.898719e+01
  -4.944425e+01  -2.507870e+00
  -1.158322e+02   1.940870e+00
  -5.625778e+01  -1.066627e+02
   5.945416e+01  -1.058043e+02
   2.165022e+02  -6.000065e+01
   9.592538e+01   4.723305e+01
   6.205630e+01   6.844926e+01
  -7.652391e+01   2.895572e+01
  -4.450618e+01   1.094061e+01
   2.884793e+01  -5.917482e+00
   3.235270e+01  -4.165928e+01
   5.383124e+01   1.025925e+02
  -5.260259e+01   1.195696e+02
  -1.466005e+02   1.773157e+01
  -1.253425e+02  -8.276786e+01
  -1.518486e+01  -1.359906e+02
   5.911132e+01  -1.426781e+02
   5.896996e+01   3.720195e+01
   8.787300e+01   9.815538e+01
  -8.239665e+01   6.988244e+01
  -4.036182e+01   4.104416e+01
  -8.097399e+01  -5.177303e+01
   1.547956e+01   1.566423e+01
  -6.127933e+00   6.808482e+00
  -4.984981e+01  -7.429857e+01
  -9.676182e+01  -8.528558e+01
  -2.838746e+01  -1.493965e+02
   5.177281e+01  -2.464433e+01
   1.293245e+02  -1.900837e+01
   8.954985e+01   1.219815e+02
  -1.662673e+01   2.850344e+01
  -1.031254e+02   1.746671e+01
  -5.242886e+01  -5.818086e+01
  -2.808708e+01  -2.915686e+01
   3.976098e+01   2.448410e+01
   2.610523e+01  -5.527479e-01
  -4.236606e+01  -7.978332e+00
   1.813385e+01  -1.404174e-01
   1.111696e+02   2.741411e+01
   1.073935e+02  -3.281545e+00
   3.729457e+01   3.436255e+01
  -7.999412e+01   1.141474e+02
  -1.763917e+02   1.119054e+02
  -1.049488e+02  -3.499572e+01
  -3.540163e+01  -1.551743e+02
   1.087875e+02  -1.229490e+02
   8.619379e+01  -1.039078e+02
   8.250551e+01  -5.363595e+01
   1.582129e+01   8.235316e+01
  -5.156873e+01   4.752093e+01
  -1.438717e+01  -2.418845e+00
   1.369391e+00   9.985530e+01
   5.061922e+01   3.168786e+01
  -2.662661e+01   8.816576e+01
  -8.274624e+01   2.444373e+01
  -9.430079e+01  -1.684379e+02
  -1.290005e+01  -7.115009e+01
   1.997418e+01  -6.042284e+01
   8.407484e+01   8.231818e+01
   3.245245e+01   9.651585e+01
  -5.585601e+01   3.782566e+01
  -4.219991e+01   3.616410e+01
  -4.274414e+01  -9.701845e+01
   1.387544e+01  -1.072763e+01
   2.556588e+01   1.181761e+01
  -2.750650e+01   1.367893e+01
  -1.013623e+02   2.093616e+01
  -3.023926e+01  -3.365234e+00
   3.198047e+01  -5.465261e+01
   3.155717e+01  -1.514129e+01
   5.717755e+01  -5.134825e+01
   5.310851e+00   1.499961e+02
  -8.562792e+01   1.272447e+02
  -5.541141e+01  -2.166469e+01
   5.320238e-01  -8.652918e+01
   5.486065e+00  -4.182923e+01
   3.351367e+00   7.727292e+00
   2.891063e+01   8.626506e+01
   2.705385e+01   9.010042e+01
  -3.309745e+01  -1.801057e+01
  -5.129000e+01  -5.959013e+01
   3.058858e+01   5.880996e+00
   4.698096e+01   4.479379e+01
   2.522971e+01   5.365781e+01
  -2.961135e+01   1.353256e+01
   2.404342e+01  -1.146763e+02
   2.793383e+01  -4.859356e+01
   1.788960e+01   8.800509e+01
   4.506446e+01   7.510678e+01
  -7.435503e+01   3.154471e+01
  -4.333261e+01  -2.140822e+01
  -1.523661e+00  -7.937606e+01
   5.846269e+01  -4.827638e+01
   8.535253e+01  -1.523419e+01
   1.277629e+01   1.725284e+01
   3.561742e+01   6.522699e+01
  -6.154543e+01  -1.532733e+00
   5.138270e+01   1.123729e+00
   4.896618e+01   3.423765e+01
   1.061011e+02   1.500968e+01
  -7.181177e+01   5.666077e+01
  -6.970688e+01  -2.496227e+01
