
 $NMID
 id='ANONYMOUS ', fmtdat='(2E16.6)'
 volume=1.0
 tramp=1.0
 $END
  -2.942533e+03   2.213414e+01
  -2.080033e+03  -1.280108e+03
  -2.714088e+02  -1.897978e+03
   1.027153e+03  -1.339983e+03
   8.846980e+02  -4.343790e+02
   2.180879e+02   1.112280e+02
  -2.662187e+02  -5.937498e+01
  -8.324404e+01  -4.063242e+02
   3.201438e+02  -5.712541e+02
   5.232278e+02  -1.667092e+02
   4.301374e+02   4.174568e+02
   1.045889e+02   6.308389e+02
  -2.276685e+02   2.347223e+02
  -2.023612e+02  -2.719157e+02
   6.363979e+01  -4.787683e+02
   3.243679e+02  -9.196104e+01
   3.426423e+02   4.645087e+02
  -5.567385e+01   6.162777e+02
  -4.038525e+02   3.484310e+02
  -4.527598e+02  -1.368174e+02
  -1.865610e+02  -3.396066e+02
   5.731241e+01  -2.844193e+02
   4.449474e+01  -9.310977e+01
  -1.808528e+02  -1.437556e+02
  -2.378439e+02  -3.346179e+02
   3.090477e+01  -3.450568e+02
   4.493337e+02  -1.737506e+02
   5.607412e+02   1.510204e+02
   1.704627e+02   3.579368e+02
  -3.315636e+02   1.622054e+02
  -4.218162e+02  -1.196760e+02
  -1.777127e+02  -3.731778e+02
   2.192049e+02  -3.049497e+02
   4.471170e+02  -1.548290e+02
   3.085225e+02   8.667730e+01
   5.665401e+01   3.012341e+02
   2.471982e+01   1.326481e+02
   6.645672e+01  -5.073650e+01
   1.999466e+02  -1.307077e+02
   1.510855e+02   1.865209e+02
  -6.090480e+01   4.678484e+02
  -2.490464e+02   4.171834e+02
  -3.015262e+02   2.826223e+00
  -9.965649e+01  -2.290038e+02
   1.160692e+02  -1.217495e+02
   1.300615e+02   2.083748e+02
  -1.024034e+02   3.277501e+02
  -4.050140e+02   3.829747e+01
  -4.292647e+02  -3.224752e+02
  -1.594311e+02  -4.099202e+02
   2.220540e+02  -2.658776e+02
   5.228152e+02   5.295619e+01
   3.187515e+02   2.044471e+02
  -2.362748e+01   2.313963e+02
  -2.555195e+02   1.039489e+02
  -2.280665e+02   2.130520e+01
  -7.000935e+01   1.909350e+01
  -1.920473e+00  -1.738900e+01
  -1.306997e+01   4.073779e+01
  -2.300767e+02  -5.392598e+01
  -1.486534e+02  -1.758258e+02
   1.369357e+02  -2.853791e+02
   3.032504e+02  -1.956931e+02
   2.439634e+02   1.018936e+02
  -1.513616e+01   3.307004e+02
  -2.941769e+02   3.821943e+02
  -3.365923e+02   1.230487e+02
  -2.204160e+02  -1.714013e+02
  -5.749924e+01  -3.639851e+02
  -9.219810e+00  -2.888315e+02
  -5.038223e+01  -1.774470e+02
   6.105808e+01  -1.749197e+02
   1.601693e+02  -1.202633e+02
   1.975416e+02  -7.420496e+01
   2.721642e+02   5.845223e+01
   9.355430e+01   2.126931e+02
  -7.032053e+01   9.587547e+01
  -2.531618e+02  -2.970138e+01
  -1.112579e+02  -2.483542e+02
   1.024272e+02  -2.436862e+02
   2.897664e+02  -1.193792e+02
   3.034029e+02   1.356174e+02
   1.699318e+02   3.167323e+02
  -2.802744e+01   2.301693e+02
  -1.733940e+02   1.365516e+02
  -1.105506e+02   9.628755e+01
  -1.391026e+02   7.008259e+01
  -2.587651e+02   2.198855e+01
  -4.274249e+02  -1.374557e+02
  -3.661006e+02  -3.260867e+02
   2.954443e-02  -4.198498e+02
   4.006084e+02  -3.816610e+02
   4.858570e+02  -1.277625e+02
   2.846029e+02   1.188507e+02
   5.020282e+01   2.678352e+02
  -5.481899e+01   2.083189e+02
  -5.669967e+01   4.579018e+01
   1.792871e+02  -2.057480e+01
   6.877147e+01   4.108324e+01
  -4.050436e+01   1.430058e+02
  -1.238881e+02   4.806589e+01
  -6.251065e+01  -5.702458e+01
   7.596343e+00  -6.371504e+01
   1.084159e+02  -4.550854e+01
   8.349940e+01   1.921027e+02
  -6.871360e+01   2.907462e+02
  -2.336478e+02   1.991869e+02
  -3.193973e+02  -1.278136e+01
  -3.050250e+02  -2.655807e+02
  -1.063020e+02  -2.853677e+02
   1.731253e+02  -1.039626e+02
   1.267960e+02  -6.357597e+01
   1.714966e+00  -2.100788e+01
  -3.642732e+01   1.447773e+01
   3.461575e+01  -1.189859e+02
   8.324863e+01  -5.033574e+01
   1.532626e+02   4.944413e+01
   5.271330e+01   4.857038e+01
  -1.058152e+02   2.071023e+01
  -2.054730e+01  -5.786282e+01
   1.642967e+02  -5.011646e+01
   3.241208e+02   2.344319e+01
   2.611002e+02   1.772985e+02
   7.003050e+01   3.310601e+02
  -2.291846e+02   2.725629e+02
  -2.588697e+02   8.982092e+01
  -1.131272e+02  -8.557673e+00
   1.512370e+01  -3.681513e+01
   1.967619e+01   3.729911e+00
  -4.853392e+01   8.614646e+01
  -2.240579e+02   1.832341e+01
  -1.914778e+02  -1.093948e+02
  -4.121168e+01  -1.515356e+02
   9.395281e+01  -1.350327e+02
   1.096989e+02  -5.443527e+01
   7.988664e+00  -1.105472e+01
  -1.098613e+02  -3.448378e+01
  -4.442870e+01  -2.071470e+02
   1.272889e+02  -9.518023e+01
   1.783489e+02  -8.900328e+01
   1.679508e+02   1.288567e+02
  -1.195477e+01   2.459182e+02
  -1.308630e+02   1.257400e+02
  -1.464902e+02   3.000632e+01
  -4.152356e+01  -1.061800e+02
   4.563051e+01  -7.861567e+01
   7.095213e+01  -5.087172e+01
  -3.317494e+01   5.538774e+01
  -6.913022e+01  -9.543696e-01
  -2.384279e+01  -3.512257e+01
   7.344005e+01   9.833568e-01
   1.049770e+02   8.978734e+01
   1.494504e+01   1.503505e+02
  -1.764678e+02   2.059480e+02
  -2.111703e+02   7.473522e+01
  -1.967665e+02  -1.402393e+02
  -8.717040e+00  -2.540586e+02
   1.122666e+02  -1.004028e+02
   8.915128e+01  -1.041810e+02
   1.026462e+02   2.865896e+01
   8.376888e+01  -7.104790e+00
   5.281728e+01  -3.755014e+01
   1.314798e+02  -2.712993e+00
   3.117743e+01   1.023596e+01
  -8.249611e+01   1.163401e+02
  -3.592005e+01   1.028778e+02
  -1.698023e+02  -4.596491e+01
  -9.308473e+00  -1.792277e+02
   1.229293e+02  -4.329445e+01
   2.079575e+02   7.964771e+01
   1.000638e+02   1.997446e+02
  -6.257760e+01   2.335606e+02
  -2.674905e+02   8.249073e+01
  -2.699733e+02  -9.307025e+01
  -9.171118e+01  -1.316598e+02
   2.205543e+01  -1.270233e+02
   5.127000e+01  -1.334320e+02
   9.423894e+01  -9.330364e+01
   3.661424e+01  -6.136438e+01
   1.417803e+02  -6.556112e+01
   1.936592e+02  -2.575245e+01
   1.574674e+02   1.187090e+02
   4.796819e+01   1.900050e+02
  -1.013871e+02   2.010162e+02
  -1.364717e+02   3.943533e+00
  -1.366418e+02  -1.445273e+02
  -3.443251e+01  -1.435617e+02
   5.791055e+01  -1.106540e+02
   8.855899e+01   5.802430e+01
  -4.382989e+01   2.080069e+01
  -1.303850e+02   1.280784e+01
   5.822139e+01   1.576452e+00
   6.928447e+01   2.033350e+01
   2.425552e+01  -4.093814e+01
  -3.306107e+01   4.241767e+01
  -2.113756e+02   2.628298e+01
  -1.758041e+02  -6.201040e+01
  -3.655141e+01  -6.142033e+01
   1.206451e+02  -9.210930e+01
   1.214666e+02  -3.794557e+01
   7.178787e+01   5.893529e+01
  -8.772220e+01   3.357358e+00
  -5.227277e+01  -2.002298e+01
   2.246321e+01  -5.285195e+01
   7.351398e+01   6.078981e+00
   3.008583e+01  -2.851256e+01
   6.835855e+01   5.707457e+01
   6.313769e+01   5.336239e+01
   6.622945e+01   2.984662e+01
   1.147671e+02  -3.193190e+01
   5.867812e+01   8.156426e+01
  -2.787892e+01   1.451389e+02
  -1.312522e+02   1.295315e+02
  -1.877515e+02   4.718439e+01
  -1.656433e+02  -5.436523e+01
   3.749183e+01  -1.553637e+02
   4.584371e+01  -8.805699e+01
   6.146025e+01  -3.658173e+00
  -9.658948e+01   1.665247e+01
  -1.535125e+02  -3.489068e+00
  -4.608406e+01  -1.357639e+02
   7.290573e+01  -1.448792e+02
   1.324372e+02  -3.275536e+01
   1.507265e+02   6.072538e+00
   3.228062e+01   6.041728e+01
  -8.421990e+01   6.401770e+01
  -2.932943e+01   1.238597e+01
   4.951337e+01   1.211229e+01
   1.079342e+02   1.982406e+01
   5.665154e+01   1.068494e+02
  -4.584830e+01   1.531459e+02
  -2.256103e+02   2.793670e+01
  -1.296023e+02  -1.815936e+02
  -3.429127e+01  -1.940233e+02
   1.273083e+02  -1.107278e+02
   1.074344e+02   5.960270e+01
   3.442450e+01   1.252563e+02
  -3.481934e+01   1.306090e+02
  -6.223048e+01  -5.131749e+01
  -1.049311e+02  -3.258804e+01
  -2.306410e+01  -6.595287e+00
   1.823037e+01   5.266506e+01
  -5.277978e+01  -4.879897e+01
  -8.946917e+01  -8.380361e+01
  -6.145123e+00  -1.090771e+02
   1.003610e+02  -1.239206e+01
   1.252988e+02  -2.171072e+00
   1.035297e+02   8.803348e+01
  -8.098304e+00   6.491044e+01
  -1.281799e+02  -2.106333e+01
  -1.314303e+02   5.130534e+01
   2.454112e+01  -4.459941e+01
   1.160059e+02  -7.441012e+01
   3.439219e+01  -2.209636e+01
  -2.814240e+01  -1.608916e+01
  -1.327374e+01  -7.112657e+00
   3.738223e+01  -2.348967e+00
   1.064186e+02   3.450454e+00
   3.063621e+01   1.037136e+02
  -1.301776e+02   1.523211e+02
  -2.173924e+02   7.040208e+01
  -1.949172e+02  -3.597059e+01
  -9.208368e+01  -7.999651e+01
   1.277016e+02  -1.143156e+02
   1.126543e+02  -9.225789e+01
   9.860974e+01  -4.769216e+00
   8.501436e+01   3.565622e+01
   4.769231e+01   9.726867e+00
   1.516518e+00  -4.328986e+01
   9.341642e+01   2.841371e+01
   2.930617e+01   5.330099e+01
  -1.969613e+00   3.900645e+01
  -8.547125e+01  -2.383837e+01
  -4.598022e+01  -7.601963e+01
  -4.432967e+01  -1.806478e+02
   5.462605e+01  -4.365018e+01
   9.847617e+01   7.216769e+01
   6.398201e+01   1.215112e+02
  -4.664977e+01   8.549386e+01
  -1.325681e+02  -7.520462e+00
  -7.830148e+01  -4.331043e+01
   1.143459e+01  -5.773403e+01
   1.097961e+01   2.996366e+01
   2.400190e+01   2.448081e+01
  -6.025013e+01   3.877499e+01
  -3.849721e+01  -5.201384e+00
   4.661056e+01  -8.039503e+01
   7.949636e+01  -6.207857e+01
   1.210651e+02   2.552780e+01
  -1.082947e+00   5.517078e+01
  -5.099944e+01   7.445083e+01
  -8.566817e+01  -6.497531e+01
   1.212711e+00  -6.397403e+01
   6.397187e+00  -9.982450e+01
   2.898404e+01  -2.781002e+01
   4.760644e+01   6.037487e+01
  -7.157430e+01   7.240466e+01
   1.008985e+01  -7.169671e-01
  -7.862600e+01  -6.178797e+01
  -8.016896e+00   6.098480e+01
  -6.981840e+01  -8.705327e+00
   1.026406e+01  -7.770191e+00
   9.776133e+00  -2.264842e+01
  -5.319914e+01  -5.375355e+01
   3.347794e+01  -7.199248e+01
   5.951324e+01   9.896912e+01
   9.860535e+00   7.036611e+01
  -4.569312e+01   1.018738e+01
  -3.292516e+01  -2.039795e+01
  -4.401296e+01  -7.526567e+01
   4.722415e+01  -1.175554e+01
   9.135354e+01  -1.946500e+01
   5.839633e+01   8.846115e+01
  -1.072477e+01   7.459966e+01
  -5.557178e+01   8.490252e+00
  -3.291142e+01  -1.324402e+01
   1.062085e+01   6.165441e-01
   8.030643e+00   3.272646e+01
  -2.154309e+01   5.035649e+01
  -6.604893e+01   2.094967e+01
