
 $NMID
 id='ANONYMOUS ', fmtdat='(2E16.6)'
 volume=1.0
 tramp=1.0
 $END
  -4.032418e+03   2.538449e+02
  -2.746233e+03  -2.035962e+03
   1.027590e+02  -2.589590e+03
   1.687304e+03  -1.350334e+03
   1.105538e+03   5.037938e+01
  -1.701116e+02   4.219149e+02
  -6.632074e+02  -1.716548e+02
  -9.453464e+01  -8.539805e+02
   5.724807e+02  -8.105005e+02
   8.578092e+02  -4.249458e+01
   5.131238e+02   6.519430e+02
  -4.377224e+01   8.003347e+02
  -5.391400e+02   2.614799e+02
  -3.516162e+02  -5.698230e+02
   1.486597e+02  -7.530216e+02
   5.414120e+02  -6.043387e+01
   3.696434e+02   5.491953e+02
  -2.237306e+02   7.642193e+02
  -5.344621e+02   2.764704e+02
  -5.232408e+02  -2.586141e+02
  -1.070856e+02  -4.341454e+02
   1.874360e+02  -3.146775e+02
   1.502762e+02  -7.452525e+01
  -2.085703e+02  -5.972492e+01
  -3.534083e+02  -1.861268e+02
  -5.765579e+01  -4.905781e+02
   5.275932e+02  -3.322346e+02
   7.968552e+02   1.064582e+02
   3.573449e+02   4.842538e+02
  -3.967018e+02   3.798662e+02
  -6.399065e+02  -2.181169e+01
  -3.041500e+02  -4.626906e+02
   2.866646e+02  -4.173134e+02
   5.497443e+02  -1.639061e+02
   3.898067e+02   1.800487e+02
   8.649598e+01   3.951232e+02
  -8.509447e+01   2.795968e+02
  -9.049691e+01  -1.655320e+02
   1.956920e+02  -2.524740e+02
   3.202530e+02   5.247436e+01
   1.551006e+02   6.166544e+02
  -2.453036e+02   6.385763e+02
  -4.144035e+02   6.318443e+01
  -1.941791e+02  -4.229915e+02
   2.511365e+02  -2.867174e+02
   3.269928e+02   2.896896e+02
  -3.617271e+01   4.359028e+02
  -5.675451e+02   1.242351e+02
  -6.104989e+02  -3.908932e+02
  -1.964721e+02  -5.565999e+02
   3.700056e+02  -3.897448e+02
   5.793055e+02   7.593528e+01
   4.167408e+02   3.047962e+02
  -1.003371e+02   3.453156e+02
  -3.804331e+02   8.098684e+01
  -2.675671e+02  -9.030742e+01
   3.095811e+01  -5.118388e+01
   1.165596e+02   1.037319e+02
  -1.617812e+02   1.499217e+02
  -2.833280e+02  -4.266551e+01
  -1.624500e+02  -2.825470e+02
   1.891924e+02  -3.238432e+02
   3.680186e+02  -1.453720e+02
   3.609269e+02   6.692166e+01
  -3.492380e+01   3.460112e+02
  -3.365399e+02   3.889633e+02
  -3.814658e+02   1.898394e+02
  -2.795963e+02  -1.370815e+02
  -9.654725e+01  -4.472431e+02
   5.193935e+01  -3.503401e+02
   3.699935e+01  -1.587301e+02
   7.299533e+01  -6.031958e+01
   9.036522e+01  -1.434259e+02
   2.352302e+02  -8.755590e+01
   2.710332e+02   1.536207e+02
   1.468957e+02   3.612772e+02
  -8.235850e+01   2.186781e+02
  -2.278506e+02  -3.585261e+01
  -1.844345e+02  -3.153308e+02
   7.054471e+01  -3.122449e+02
   3.038553e+02  -1.347263e+02
   3.216662e+02   1.484386e+02
   2.365940e+02   3.375979e+02
  -2.076867e+01   3.340638e+02
  -2.674972e+02   7.431136e+01
  -1.897844e+02   7.991798e+01
  -9.983811e+01   6.129868e+01
  -3.834422e+02   4.352886e+01
  -4.805277e+02  -1.144526e+02
  -3.767069e+02  -3.054430e+02
  -3.517416e+01  -4.299063e+02
   4.400651e+02  -5.102067e+02
   5.578693e+02  -2.097076e+02
   2.898116e+02   7.340634e+01
   2.812323e+01   3.064231e+02
  -1.791754e+02   2.526269e+02
  -4.695992e+01   9.387612e+00
   6.252485e+01  -9.953757e+01
   1.371434e+02   3.399108e+01
  -3.843968e+01   1.669323e+02
  -7.309243e+01   1.532659e+02
  -1.764365e+02  -5.461063e+01
   3.593544e+01  -1.238233e+02
   1.766936e+02  -1.084387e+01
   1.747142e+02   2.494650e+02
  -5.709965e+01   3.974929e+02
  -2.548861e+02   2.425205e+02
  -4.250901e+02  -8.852246e+01
  -3.187016e+02  -2.523377e+02
   2.105151e+01  -3.601583e+02
   9.239677e+01  -1.423982e+02
   1.726571e+02  -6.012442e+01
   6.151468e+01   4.923994e+01
  -6.647125e+00  -9.491719e+01
  -1.675226e+01  -1.456203e+02
   1.490427e+02  -7.825662e+01
   1.914152e+02   6.616264e+00
   7.461129e+01   8.053145e+01
  -9.365158e+01  -1.281598e+01
  -1.407530e+01  -1.083631e+02
   1.513474e+02  -6.152842e+01
   3.127964e+02   1.951270e+01
   3.016730e+02   1.886435e+02
   2.373601e+01   3.006703e+02
  -2.045340e+02   3.205390e+02
  -2.951196e+02   1.097709e+02
  -1.464916e+02  -4.477653e+01
   7.941854e+01  -6.071816e+01
   5.567018e+01   3.361583e+01
  -3.452523e+01   9.253072e+01
  -1.701161e+02   1.882327e+01
  -2.439463e+02  -1.364868e+02
  -6.980543e+01  -1.720710e+02
   7.412773e+01  -1.254032e+02
   1.221720e+02  -5.658813e+01
   9.639367e+01  -1.010681e+01
  -9.072743e+01  -3.432900e+01
  -8.251290e+01  -1.057859e+02
   6.059093e+01  -1.300117e+02
   1.997595e+02  -7.095434e+01
   1.658918e+02   1.584681e+02
  -1.875818e+01   2.452074e+02
  -2.122357e+02   1.476343e+02
  -2.659505e+02   1.221246e+01
  -3.352874e+01  -1.101382e+02
   9.057533e+01  -6.282708e+01
   1.336225e+02  -7.543688e+01
   1.383287e+01  -2.557194e+01
  -4.402266e+01   1.187839e+01
  -4.220824e+00  -7.881228e+00
   1.078278e+02   1.301517e+01
   7.577641e+01   1.120603e+02
  -1.496017e+00   1.765993e+02
  -1.392304e+02   1.911427e+02
  -2.225761e+02   6.971829e+01
  -2.615877e+02  -1.971072e+02
  -7.266355e+01  -2.529524e+02
   1.635878e+02  -2.633444e+02
   1.823279e+02  -1.902103e+01
   1.036673e+02   4.801780e+01
   3.463942e+01   4.552508e+01
   1.566772e+01  -2.325658e+01
   6.472925e+01  -3.379853e+01
   5.713445e+01   6.500253e+01
  -3.964957e+01   1.026043e+02
  -1.118622e+02   2.387052e+01
  -1.230219e+02   1.074908e+01
   4.484221e+01  -1.216319e+02
   1.047880e+02  -1.011637e+02
   2.343231e+02   6.205398e+01
   1.204199e+02   2.057483e+02
  -7.136898e+01   2.890373e+02
  -3.482345e+02   8.662613e+01
  -2.755590e+02  -7.300974e+01
  -9.710988e+01  -1.979107e+02
   7.211663e+00  -1.979702e+02
   8.959766e+01  -6.228924e+01
   9.361351e+01  -1.044418e+02
  -4.764628e+00  -1.255539e+02
   1.376196e+02  -5.533863e+01
   9.994339e+01   1.433552e+01
   9.624689e+01   1.269301e+02
   7.364533e+01   1.954011e+02
  -1.044881e+02   2.107107e+02
  -1.766314e+02  -1.748288e+01
  -1.604750e+02  -1.214909e+02
   5.969773e+00  -2.026036e+02
   3.506538e+01  -4.000991e+01
   2.268250e+01  -3.426339e+01
  -2.268127e+00   1.032870e+02
  -6.841052e+01  -2.563895e+00
   8.609509e+01   2.586243e+01
   3.650506e+01   2.624175e+01
   7.910401e+01   9.857932e+00
  -1.052765e+02   9.358273e+01
  -2.109160e+02  -6.549842e+01
  -1.527512e+02  -4.872999e+01
  -2.724494e+01  -1.845704e+02
   1.830163e+02  -4.964924e+01
   1.813360e+02  -1.330556e+01
   3.801305e+01   3.586436e+01
  -3.481473e+01   3.717246e+01
  -8.638398e+01   2.017245e+01
  -4.133852e+01  -3.680112e+01
   6.201931e+01  -6.620892e+01
   4.427155e+01   4.929912e+01
   5.353310e+01   3.302142e+01
   6.873646e+01   1.092697e+02
   2.976656e+01   7.607125e+01
   7.006664e+01   6.275703e+00
   4.911556e+01   8.817002e+01
   4.304394e-01   9.798348e+01
  -8.386350e+01   2.009117e+02
  -1.461956e+02   5.468558e+01
  -1.719390e+02  -1.161537e+02
  -4.216056e+01  -1.799999e+02
   9.687185e+01  -8.145563e+01
   4.169439e+01  -8.198456e+00
  -7.989674e+01   7.654187e+01
  -1.798337e+02  -1.178989e+01
  -1.373819e+02  -1.500998e+02
   1.376822e+02  -1.371439e+02
   2.021565e+02  -3.879031e+01
   2.211255e+02  -2.196757e+01
   3.150979e+01   9.713155e+01
  -9.108317e+01   1.266535e+02
  -5.633456e+01  -2.470844e+01
   4.456901e+01  -1.240208e+01
   5.989997e+01  -2.508416e+01
   6.845135e+01   1.627783e+02
  -1.190353e+02   1.793226e+02
  -1.480982e+02   7.301366e+01
  -1.655954e+02  -1.160576e+02
  -1.955728e+01  -2.522953e+02
   9.038990e+01  -1.253612e+02
   8.784454e+01  -1.784656e+01
   8.779463e+01   8.923060e+01
   7.447820e+00   1.601076e+02
  -8.912064e+01   1.838091e+01
  -3.103401e+01   6.561756e+00
   1.375968e+01  -8.044794e+00
  -4.023464e+00  -2.422703e+01
  -4.293209e+01  -8.392954e+00
  -9.252822e+01  -6.096741e+01
   3.169237e+00  -1.061789e+02
   2.741977e+01  -7.811527e+01
   1.928794e+02   6.229781e+01
   1.375589e+02   1.073578e+02
  -1.091208e+01   8.376551e+01
  -7.287828e+01   6.650206e+01
  -6.681821e+01   1.538078e+01
   1.923943e+01  -7.163363e+00
   5.079820e+01  -4.945380e+01
   5.886609e+00  -1.031410e+01
  -6.721407e+01   3.652583e+01
   3.189800e+01   3.199930e+00
   1.013472e+02  -2.708193e+01
   1.222051e+02   1.022069e+01
   5.318953e+01   3.063774e+00
  -9.651458e+01   1.841775e+02
  -2.032553e+02   9.475038e+01
  -1.708575e+02  -4.676414e+01
  -4.699768e+01  -1.803364e+02
   8.554887e+01  -1.312263e+02
   1.976051e+02  -3.425730e+01
   1.361804e+02  -2.597615e+01
  -3.397694e+01   8.425391e+00
   1.123354e-01   1.631215e+01
   1.006252e+01  -2.329449e+01
   3.602404e+01   4.799341e+01
   3.331158e+01   8.871424e+01
  -1.048836e+02   8.306189e+01
  -8.321359e+01  -7.208565e+01
  -8.454325e+01  -9.746886e+01
  -5.232558e+01  -9.135720e+01
   1.135079e+02  -2.651854e+01
   1.126250e+02   7.568827e+01
  -7.555661e+00   1.126455e+02
  -4.145254e+01   7.361333e+01
  -1.406154e+02  -7.468332e+00
  -5.546214e+01  -6.379135e+01
   4.391485e+01  -1.034623e+02
  -3.596459e+00  -4.980656e+01
  -6.746917e+01   5.916955e+01
  -7.312994e+01   7.953829e+01
  -3.420259e+01   1.001406e+01
   8.482061e+01  -8.884054e+01
   8.578193e+01  -7.088383e+01
   1.470804e+02  -4.577383e+01
   3.302291e+01   1.327539e+02
  -6.137312e+01   1.160825e+02
  -5.457770e+01   3.579921e+01
  -2.620582e+01  -4.490486e+01
   6.280337e+01  -5.458330e+01
   4.908747e+01   3.566110e+01
   4.583731e+01   5.787378e+01
  -8.711737e+00   3.887957e+01
  -4.206520e+01  -1.234547e+01
  -3.726146e+01  -5.132347e+01
   1.666480e+01   4.255027e+01
   3.028397e+01   3.739811e+01
   3.601314e+00   3.300830e+01
   3.678867e+01  -7.722481e+01
   5.491210e+01  -3.769920e+01
   1.433860e+00  -5.445292e+01
   1.515673e+01   6.485144e+01
   1.596356e+01   3.903667e+01
  -3.646027e+01   4.370615e+01
  -3.189941e+01  -4.106190e+01
  -2.685404e+01  -5.400225e+01
   1.126380e+02  -1.307254e+01
   5.348117e+01   3.613526e+01
   8.555361e+01   9.963676e+00
  -4.767963e+01  -1.955858e+01
  -7.432887e+01   1.496356e+01
  -4.699244e+01   3.278457e+01
   2.945607e+01   1.370977e+01
   2.207938e+01  -5.981444e+01
  -6.583310e+01   3.657995e+01
  -9.042200e+01   3.014589e+01
