
 $NMID
 id='ANONYMOUS ', fmtdat='(2E16.6)'
 volume=1.0
 tramp=1.0
 $END
   4.700708e+03   6.654014e+01
   2.590163e+03   2.860960e+03
  -8.249842e+02   2.966079e+03
  -2.288256e+03   9.390024e+02
  -1.017126e+03  -7.565515e+02
   7.277164e+02  -5.835536e+02
   8.955240e+02   4.810673e+02
  -6.079291e+01   1.190061e+03
  -8.836653e+02   7.780732e+02
  -1.018975e+03  -1.618499e+02
  -4.422379e+02  -9.352880e+02
   2.606379e+02  -9.564488e+02
   7.421112e+02  -6.688715e+01
   3.802963e+02   7.827072e+02
  -2.923912e+02   8.556361e+02
  -6.668766e+02  -2.675963e+01
  -3.113966e+02  -7.767248e+02
   3.569592e+02  -6.486948e+02
   6.362296e+02  -5.753212e+01
   4.193058e+02   3.851064e+02
  -4.807492e+01   5.204132e+02
  -2.919608e+02   2.895363e+02
  -2.335545e+02  -1.783594e+01
   6.500282e+01  -1.305103e+02
   4.706701e+02   1.675376e+02
   1.834882e+02   4.832761e+02
  -4.870060e+02   3.919664e+02
  -9.254116e+02  -1.101862e+02
  -4.804509e+02  -5.869964e+02
   4.579002e+02  -5.497889e+02
   7.485098e+02   2.721042e+01
   3.871249e+02   5.686434e+02
  -3.664816e+02   5.697024e+02
  -5.947400e+02   1.348910e+02
  -4.651110e+02  -2.830404e+02
  -4.155108e+01  -4.634428e+02
   2.155704e+02  -3.471728e+02
   2.216388e+02   2.692177e+02
  -2.157360e+02   4.670691e+02
  -4.752473e+02  -2.715116e+01
  -2.044375e+02  -7.258865e+02
   3.696835e+02  -7.547359e+02
   6.091464e+02  -2.621181e+01
   2.899559e+02   6.390344e+02
  -2.979885e+02   3.475900e+02
  -3.970397e+02  -3.568688e+02
   1.266781e+02  -5.572315e+02
   5.873054e+02  -1.244792e+02
   6.729610e+02   4.767570e+02
   1.813531e+02   6.492441e+02
  -4.008171e+02   3.079484e+02
  -6.537263e+02  -8.658942e+01
  -4.125465e+02  -4.212597e+02
   2.283913e+02  -3.830215e+02
   5.280356e+02  -3.092676e+01
   2.785047e+02   2.692942e+02
  -1.138673e+02   1.269759e+02
  -2.224135e+02  -1.627907e+02
   2.106468e+02  -1.627862e+02
   3.522766e+02   1.144162e+02
   2.023767e+02   3.069503e+02
  -2.198784e+02   2.626955e+02
  -3.669275e+02   9.442571e+01
  -1.560976e+02  -7.980083e+01
   6.742192e+01  -2.294389e+02
   1.800252e+02  -3.513628e+02
   3.705828e+02  -2.282088e+02
   3.167173e+02   1.774020e+02
   1.117119e+02   4.366989e+02
  -1.392686e+02   4.444442e+02
  -9.915818e+01   6.677470e+01
   4.980546e+01  -2.389330e+01
  -1.485554e+01   7.314361e+01
  -1.893059e+02   1.051313e+02
  -3.201721e+02  -5.901864e+01
  -1.551785e+02  -2.375259e+02
   9.743175e+01  -2.684706e+02
   2.899498e+02  -2.879459e+00
   1.992258e+02   2.796487e+02
  -9.359284e+00   3.375164e+02
  -3.018349e+02   7.477413e+01
  -4.054012e+02  -1.844967e+02
  -1.959530e+02  -4.115041e+02
   1.362496e+02  -2.862198e+02
   2.711314e+02  -1.823822e+02
   9.216988e+01  -1.933486e+01
   9.835275e+01   1.787850e+01
   2.565094e+02  -1.037675e+02
   3.741037e+02   9.860791e+00
   3.650435e+02   3.105947e+02
  -1.235876e+01   5.135677e+02
  -3.742477e+02   4.307739e+02
  -4.786849e+02   2.004821e+02
  -3.436268e+02  -7.051705e+01
  -5.642088e+01  -3.647071e+02
   1.409551e+02  -2.724193e+02
   1.170273e+02   7.308925e+00
  -1.056541e+02   1.498132e+02
  -2.390070e+02   3.065823e+01
  -4.888202e+01  -1.873814e+02
   8.841317e+01  -2.455447e+02
   1.983286e+02   9.359802e+01
  -2.702684e+01   2.493925e+02
  -1.719040e+02   2.773567e+00
  -1.808953e+02  -2.806508e+02
   3.956668e+01  -3.459499e+02
   2.895198e+02  -2.046031e+02
   4.220146e+02   9.993354e+01
   2.012949e+02   3.156679e+02
   1.067783e+02   2.762571e+02
  -1.405923e+02   2.053956e+02
  -1.747891e+02  -1.402004e+00
  -6.211155e+01  -5.871436e+01
   1.133040e+02   3.036397e+01
   3.088393e+01   1.074379e+02
  -1.101243e+02   1.162713e+02
  -1.435617e+02   1.340583e+01
  -5.813704e+01  -2.912025e+01
   4.856674e+01  -5.751246e+01
   4.461145e+01   7.573085e+01
  -2.131505e+02   6.545562e+01
  -2.473403e+02   3.451489e+01
  -2.533010e+02  -1.293341e+02
  -1.016527e+02  -2.780694e+02
   1.936035e+02  -2.892157e+02
   3.819752e+02  -1.172183e+02
   2.131126e+02   5.103012e+01
  -4.092694e+01   1.510766e+02
  -1.317897e+02   3.929754e+01
   6.698021e+01  -7.269150e+01
   1.989633e+02  -9.591786e+00
   2.226147e+02   1.181010e+02
   7.432343e+01   2.495262e+02
  -7.955566e+01   1.517486e+02
  -1.347886e+02   2.267235e+01
  -7.611006e+01  -2.593123e+01
   3.976286e+01   3.038060e+01
   2.736150e+01   4.896445e+01
  -1.059826e+02   1.343430e+02
  -1.485216e+02   2.181967e+01
  -2.373234e+02  -1.190315e+02
  -5.386951e+01  -2.767795e+02
   1.659982e+02  -2.068514e+02
   1.977978e+02   4.343560e+01
   6.166964e+01   1.096316e+02
  -4.707624e+01   1.604732e+02
  -1.160236e+02  -7.400324e+00
  -3.261646e+01  -6.745153e+01
  -6.913605e+00  -3.419809e+01
   4.523915e+01   3.091448e+01
  -1.094838e+02  -3.537902e+01
  -6.253105e+01  -8.473852e+01
  -1.284093e+00  -1.617645e+02
   1.353196e+02  -1.276204e+02
   2.734226e+02  -2.196794e+01
   2.523785e+02   1.507625e+02
  -3.956582e+00   2.354636e+02
  -1.216815e+02   1.719469e+02
  -1.524156e+02   4.569009e+01
  -8.214647e+01  -6.911268e+01
  -2.201273e+01  -2.683592e+01
  -7.450436e+01  -3.399264e+00
  -8.576855e+01  -1.940438e+01
  -5.277779e+01  -6.116512e+01
   9.451963e+01  -5.710481e+01
   1.232956e+02  -6.875331e+01
   8.171002e+01   2.596180e+01
  -1.024628e+01   7.672549e+01
  -1.358682e+02   1.218151e+02
  -1.675364e+02  -7.847050e+01
  -1.249349e+02  -2.173071e+02
   6.812351e+01  -1.386870e+02
   3.097422e+02  -7.326441e+01
   2.969737e+02   1.211880e+02
   1.020184e+02   1.885021e+02
  -7.874822e+01   1.417517e+02
  -7.388679e+01   1.503846e+02
  -8.548763e+01   2.254860e+01
  -1.032466e+02   7.814850e+01
  -1.242421e+02   9.519663e+01
  -1.233443e+02   2.379534e+00
  -9.928877e+01  -1.754918e+02
   1.444381e+01  -3.132284e+02
   1.072231e+02  -1.680584e+02
   1.952544e+02   2.707648e+01
   1.599303e+02   1.021435e+02
   5.414167e+00   1.797526e+02
  -3.088048e+01   1.018845e+02
  -1.326682e+02  -2.779146e+01
   2.102721e+01  -4.681958e+01
   2.403928e+01   1.705782e+00
  -1.540860e+01   3.588433e+00
  -1.034355e+02  -7.783236e+00
  -7.854448e+00  -6.567003e+01
   5.506405e+01  -5.439116e+01
   1.898981e+02  -2.537620e+01
   1.851828e+02   2.487127e+01
   3.361712e+01   1.005238e+02
  -1.267183e+02   7.841876e+01
  -1.855047e+02   1.701154e+01
  -7.990235e+01  -5.572930e+01
   1.066308e+02  -3.005359e+01
   1.275260e+02   2.214733e+01
  -1.670112e+01   4.362916e+01
  -3.958253e+01   5.993980e+01
  -7.597405e+01  -3.391593e+01
  -1.319394e+01  -8.065225e+01
  -5.579649e+01  -8.597902e+01
  -5.085888e+01  -1.635132e+01
  -9.654308e+01   3.451381e+01
  -3.094301e+01  -9.691002e+01
   3.072444e+01  -1.717437e+02
   1.913811e+02  -8.641842e+01
   1.250337e+02  -1.934372e+01
   1.516998e+02   9.399149e+01
   7.176846e+00   1.612623e+02
  -8.898056e+01   2.493870e+01
  -8.767353e+01  -9.092913e+00
   4.933946e+01  -1.215218e+00
   9.163223e+01   7.156828e+01
   9.285793e+01   1.407589e+02
  -5.670065e+01   1.135961e+02
  -2.286582e+02   8.600595e+01
  -1.653170e+02  -1.797215e+01
  -1.099874e+02  -1.414493e+02
   4.576921e+01  -1.092700e+02
   6.029652e+01   3.014993e+01
  -6.108102e+01   8.172819e+01
  -7.538291e+01  -7.473351e+01
   1.248298e+01  -1.269779e+02
   1.247888e+02  -1.488304e+02
   1.732412e+02  -6.072960e+01
   1.586910e+02   6.339780e+01
   4.890518e+01   2.012417e+02
  -1.405741e+02   1.432021e+02
  -1.339956e+02  -8.174857e+00
  -2.385260e+01  -1.108505e+02
   2.023748e+01  -7.928195e+01
   6.763259e+01  -3.233539e+01
   7.041832e+01   4.874338e+01
   6.969936e+01   6.488297e+00
   5.550210e+01  -4.066621e+01
   2.689111e+01  -2.185347e+01
   5.909239e+01   9.420366e+01
   5.063876e+01   1.325835e+02
  -6.726483e+01   7.561824e+00
  -1.415573e+02  -7.537123e+01
  -1.454033e+02  -7.018306e+01
  -2.443770e+01  -8.066260e+01
   1.277991e+02   9.093874e+00
   1.242612e+02  -2.824983e+01
  -8.828504e+00  -1.068180e+01
  -2.574066e+01   2.335450e+01
   3.629893e+01  -1.565468e+01
  -5.353791e+01   1.764914e+01
  -7.909332e+00  -2.335387e+01
  -8.369960e+01  -1.350092e+01
  -8.741488e+01   5.300190e+01
   1.160194e+01  -9.182462e+01
   1.363842e+02  -3.772376e+01
   1.913682e+02  -1.237925e+02
   1.540653e+02   4.768613e+01
   7.096422e+01   1.706845e+02
  -4.915960e+01   1.791691e+02
  -1.094688e+02   3.734442e+01
  -9.651792e+01   1.135004e+01
  -5.419946e+01  -4.880710e+01
  -1.323675e+01  -2.899728e+01
   6.022150e+01   2.849155e+01
  -3.881512e+01  -5.642075e+01
  -5.021640e+01  -9.918808e+01
   4.998685e+01  -6.172795e+01
   1.382648e+02   3.299365e+01
   6.574486e+01   1.093583e+02
  -1.219477e+01   5.928610e+01
  -5.308593e+01  -4.184899e+01
  -7.714981e+01  -9.073104e+01
  -5.988494e+01  -8.454928e+01
   9.232649e+01  -8.678967e+01
   6.517771e+01   6.040366e-01
   8.245955e+00   7.579979e+01
  -7.777229e+01   2.013513e+01
  -2.845363e+01   2.704589e+01
   2.570238e+01   2.621820e+01
   9.040106e+01  -6.754671e+00
  -5.901406e+01  -1.918962e+01
  -9.466080e+01   6.640859e+01
  -1.507051e+02   4.887426e+01
  -7.582058e+01  -5.189119e+01
   1.280211e+00  -7.914761e+01
   5.326333e+01  -8.894693e+01
   7.524953e+01   5.059611e+01
  -1.099962e+01   2.365027e+01
  -4.837507e+01   3.110073e+01
  -4.785465e+01  -1.753502e+01
  -6.469427e+01  -1.034172e+02
   2.165132e+01  -1.280679e+02
   4.651954e+01   1.096645e+01
   9.065537e+01   1.825991e+01
   6.340192e+01  -2.580036e+01
  -4.442538e+01   2.057947e+01
   1.774769e+01  -1.597595e+01
  -2.132752e+01   3.015468e+01
  -7.456789e+01   1.941340e+01
  -3.000251e+01   5.218711e+01
  -3.656375e+01  -5.910729e+01
  -6.689864e+01  -8.777621e+01
   1.655093e+01  -9.597797e+00
   1.595821e+02   5.999193e+01
  -2.684378e+01   4.912678e+01
  -5.579818e+01   2.209401e+01
  -1.456403e+02  -3.983229e+01
  -4.254997e+01  -5.350122e+01
   1.721670e+01  -3.629848e+01
   9.776897e+01  -1.421723e+01
  -3.301948e+00   3.544496e+01
  -2.611057e+01  -2.659287e+00
  -9.176007e+01   2.821260e+01
   5.352607e+01  -3.783055e+01
   9.551406e+01  -3.516944e+01
