
 $NMID
 id='ANONYMOUS ', fmtdat='(2E16.6)'
 volume=1.0
 tramp=1.0
 $END
  -3.166407e+03  -4.633278e+01
  -2.157142e+03  -1.619701e+03
  -3.820419e+01  -2.014060e+03
   1.236900e+03  -1.271975e+03
   9.888032e+02  -1.834593e+02
   3.813239e+01   1.828333e+02
  -3.997430e+02  -3.245073e+01
  -5.025818e+01  -5.022943e+02
   4.460603e+02  -6.400406e+02
   6.788593e+02  -8.309106e+01
   4.509230e+02   5.013151e+02
   2.747059e+01   6.423220e+02
  -3.236357e+02   1.713081e+02
  -2.638222e+02  -4.536690e+02
   4.598775e+01  -5.619072e+02
   3.744119e+02  -4.782244e+01
   3.118125e+02   4.229977e+02
  -1.145489e+02   6.328709e+02
  -3.977769e+02   3.166733e+02
  -4.432943e+02  -1.154714e+02
  -1.478398e+02  -3.082599e+02
   1.761807e+02  -2.589915e+02
   4.763000e+01  -5.675201e+01
  -2.061965e+02  -9.516459e+01
  -2.379503e+02  -3.226284e+02
   5.136493e+01  -3.999122e+02
   4.912070e+02  -1.928899e+02
   5.721637e+02   2.072179e+02
   2.073420e+02   3.877898e+02
  -2.758374e+02   1.936799e+02
  -4.920462e+02  -1.623574e+02
  -1.848739e+02  -3.415568e+02
   2.870704e+02  -3.516834e+02
   4.621837e+02  -1.340612e+02
   3.486501e+02   1.353049e+02
   9.024236e+01   3.376106e+02
  -1.650446e+00   1.496268e+02
   6.753413e+01  -1.123322e+02
   1.760451e+02  -1.874922e+02
   1.934766e+02   1.458139e+02
  -8.662193e+00   4.818734e+02
  -2.191528e+02   5.109261e+02
  -3.785678e+02  -2.457032e+01
  -1.389442e+02  -3.396683e+02
   1.316593e+02  -1.544153e+02
   1.242639e+02   2.654317e+02
  -8.826162e+01   3.667672e+02
  -4.466590e+02   7.882911e+01
  -4.800064e+02  -3.596792e+02
  -1.399359e+02  -4.913704e+02
   2.903710e+02  -2.480399e+02
   4.570488e+02   1.126336e+02
   3.612145e+02   2.398257e+02
   3.201123e+01   2.231382e+02
  -3.416905e+02   1.042164e+02
  -2.714362e+02  -5.678079e+00
   2.020059e+01  -2.688076e+01
   4.834452e+01   2.076140e+01
  -1.554320e+02   2.958627e+01
  -2.289828e+02  -9.058754e+01
  -1.399171e+02  -1.469421e+02
   1.505036e+02  -2.493893e+02
   3.174799e+02  -1.846159e+02
   2.620137e+02   1.461932e+02
  -1.791398e+01   3.238561e+02
  -2.956514e+02   4.114005e+02
  -3.530314e+02   1.432003e+02
  -1.948392e+02  -2.009432e+02
  -6.926013e+01  -3.843111e+02
   2.403563e+01  -3.673506e+02
   1.029125e+00  -1.912084e+02
   7.207389e+01  -1.015644e+02
   1.195047e+02  -1.181814e+02
   2.143907e+02  -4.730441e+01
   2.703967e+02   1.181741e+02
   1.310447e+02   2.961023e+02
  -6.834397e+01   1.576854e+02
  -2.031746e+02  -7.352367e+01
  -1.608440e+02  -2.510631e+02
   3.505260e+01  -2.105418e+02
   2.528250e+02  -1.195388e+02
   3.512922e+02   2.268160e+02
   1.441727e+02   3.088738e+02
  -3.111721e+01   2.375184e+02
  -1.845183e+02   1.571085e+02
  -1.225698e+02   7.117669e+01
  -1.263581e+02   7.621740e+01
  -3.009190e+02   5.393874e+01
  -3.948259e+02  -8.763341e+01
  -3.115061e+02  -3.135778e+02
   4.653001e+01  -4.451633e+02
   3.745162e+02  -4.160634e+02
   4.698955e+02  -1.514232e+02
   2.901004e+02   8.648245e+01
  -3.072681e+01   2.759017e+02
  -7.383647e+01   1.618484e+02
  -2.102931e+01  -1.724353e+01
   1.159514e+02  -4.258502e+01
   1.543196e+02  -1.663231e+01
   1.283896e+01   1.191244e+02
  -8.107057e+01   8.791058e+01
  -7.001617e+01  -1.075660e+02
   6.601484e+01  -1.356081e+02
   1.276798e+02  -1.219574e+01
   1.446152e+02   2.591400e+02
  -2.357100e+01   3.405828e+02
  -2.185338e+02   2.104189e+02
  -3.835586e+02  -3.393649e+01
  -2.777348e+02  -2.675827e+02
  -5.254949e+01  -3.060058e+02
   1.669969e+02  -1.106837e+02
   1.661180e+02   6.584712e+00
   7.062665e+01   1.294201e+00
  -7.617685e+01  -3.231507e+01
  -1.852476e+01  -1.180194e+02
   9.123995e+01  -4.431081e+01
   1.339746e+02   6.235384e+01
   2.266408e+01   1.137620e+02
  -1.380135e+02  -2.312512e+01
   5.020164e+01  -1.121355e+02
   1.600680e+02  -5.853374e+01
   2.560543e+02   2.015693e+01
   2.740258e+02   1.709328e+02
   1.196872e+02   3.084046e+02
  -2.597431e+02   2.320693e+02
  -2.768675e+02   9.270224e+01
  -1.635925e+02  -3.312358e+01
   1.321508e+01  -6.881353e+01
   3.749768e+01   3.030721e+01
  -8.967799e+01   2.696429e+01
  -1.366162e+02   4.883084e+01
  -1.478831e+02  -6.577957e+01
  -4.981079e+01  -1.640643e+02
   1.364218e+02  -1.558494e+02
   1.030608e+02  -4.856244e+01
  -7.829607e+00   9.218837e+01
  -4.367684e+01   1.212162e+01
  -2.097937e+01  -1.047473e+02
   8.978583e+01  -1.277579e+02
   2.114592e+02   2.338706e+01
   1.941348e+02   8.686507e+01
  -8.939735e+00   1.717206e+02
  -1.451342e+02   1.377922e+02
  -1.994842e+02  -2.263088e+01
  -7.530250e-01  -9.124066e+01
   8.504249e+01  -1.179867e+02
   8.607766e+01  -1.492582e+01
   2.952735e+01   2.705375e+01
  -1.765542e+01   7.064061e+00
  -7.226563e+01  -9.379179e+01
   8.955710e+01  -3.786292e+01
   8.861211e+01   9.648094e+01
  -2.052400e+01   1.787406e+02
  -1.211643e+02   1.089120e+02
  -2.275619e+02  -1.019186e+01
  -1.673810e+02  -1.745672e+02
  -1.904240e+01  -2.099643e+02
   1.214038e+02  -1.526590e+02
   9.689993e+01  -3.284748e+01
   6.824629e+01   1.238356e+01
   2.425632e+01   3.542156e+01
   6.985954e+01  -1.190320e+01
   1.161730e+02   2.773469e+00
   6.312811e+01   6.935432e+01
  -2.722299e+00   1.266803e+02
  -1.142767e+02   4.465798e+01
  -1.352698e+02  -6.391004e+01
   2.367734e+01  -1.111901e+02
   1.927943e+02  -5.118201e+01
   1.845520e+02   1.171002e+02
   9.309525e+01   1.979739e+02
  -1.733650e+02   2.124887e+02
  -2.278052e+02   5.252026e+01
  -2.129704e+02  -7.442226e+01
  -1.558403e+02  -1.987219e+02
   3.654613e+01  -1.842788e+02
   7.117920e+01  -6.378910e+01
   4.659755e+01  -5.543916e+01
   9.930290e+01  -1.113652e+02
   1.012309e+02  -9.007901e+01
   1.531311e+02  -2.144331e+01
   1.319145e+02   1.766309e+02
   2.636377e+01   2.011775e+02
  -9.319333e+01   1.593542e+02
  -1.353873e+02  -4.285533e-01
  -1.705854e+02  -9.438723e+01
  -5.563481e+01  -1.514532e+02
   9.383915e+01  -6.479210e+01
   1.133824e+02   5.507392e+01
   4.095461e+01   4.880270e+01
  -8.991477e+01   7.031680e+01
   5.641561e+01  -2.690280e+01
   9.117831e+01   5.930750e+01
   7.837586e+01   1.183707e+02
  -1.212697e+02   1.075288e+01
  -1.468628e+02   2.235446e+01
  -1.058866e+02  -7.810556e+01
   1.407195e+01  -1.112782e+02
   1.561843e+02  -6.133155e+01
   9.874062e+01  -4.738990e+01
   7.903424e+01   1.262765e+01
  -9.464027e+01   2.624832e+01
  -5.880683e+01  -4.027670e+01
   2.371271e+00  -8.408444e+01
   1.213141e+02  -8.878438e+01
   8.656891e+01   8.064946e+00
   7.350460e+01   7.924130e+01
   6.922518e+00   4.736383e+01
  -9.464742e+00   4.382647e+01
   6.532888e+00   2.777364e+01
   2.078005e+01   4.987646e+01
  -3.412456e+01   1.767689e+02
  -1.346257e+02   1.573829e+02
  -1.794306e+02   5.428613e+01
  -5.466972e+01  -1.154837e+02
  -3.998279e+01  -1.453549e+02
   4.847640e+01  -8.459352e+01
   6.398967e+01   1.948223e+01
  -5.220988e+01   1.603531e+01
  -9.446312e+01  -5.029478e+01
  -3.933811e+01  -1.270857e+02
   1.209439e+02  -1.494497e+02
   2.045169e+02  -7.648385e+01
   9.469297e+01   1.981751e+01
   1.327001e+01   1.247435e+02
  -4.599602e+01   6.251823e+01
  -6.277609e+01   4.784639e+01
   4.361685e+01   1.028035e+01
   4.250682e+01  -2.300421e+01
   1.747336e+01   1.146831e+02
  -9.587177e+01   2.262251e+02
  -9.439638e+01   2.708030e+01
  -1.316165e+02  -1.546708e+02
  -2.728848e+01  -1.591228e+02
   6.540620e+01  -1.527309e+02
   1.306897e+02   5.775163e+01
   7.163381e+01   1.186019e+02
  -3.556422e+01   1.207880e+02
  -4.988303e+01   6.723199e+01
  -8.445864e+01  -9.968093e+01
  -2.559090e+01   8.576109e+01
   5.069060e+01   4.868141e+01
   2.055863e-01  -5.630115e+01
  -4.474241e+01  -1.056375e+02
  -9.134510e+01  -6.344763e+01
   6.738911e+01  -1.076810e+02
   1.561251e+02   1.791976e+01
   1.540405e+02   6.720411e+01
   6.168645e+01   6.850938e+01
  -4.661989e+01   3.184925e+01
  -6.228523e+01   5.884610e+01
  -1.031717e+01  -3.092897e+01
   1.017814e+00  -3.848335e+01
  -6.408068e+00  -3.830910e+01
  -3.801463e+01  -3.010388e+01
  -6.072832e+01  -2.266312e+00
   6.889665e+01   1.939900e+01
   7.555610e+01   5.593204e+01
   3.743339e+01   1.068469e+02
  -1.335777e+02   1.370757e+02
  -1.856500e+02   4.558583e+01
  -1.261442e+02  -9.911577e+01
  -2.294468e+01  -1.919561e+02
   1.098389e+02  -1.294340e+02
   6.936201e+01  -9.597981e+01
   5.090292e+01   1.042310e+01
  -2.257843e+01   4.819743e+01
   6.543573e+01   1.844153e+01
   5.097136e+01   3.174588e+01
   5.541940e+01   4.850692e+01
   8.870617e+00   6.452908e+01
  -5.314316e+01   1.258934e+02
  -5.946436e+01  -2.250101e+01
  -1.074154e+02  -9.582045e+01
   1.120364e+01  -6.313861e+01
   3.545907e+01  -1.915333e+01
   6.005491e+01   5.036056e+01
   6.840713e+01   1.601423e+02
  -6.590867e+01   5.427081e+01
  -8.344385e+01  -1.742641e+01
  -4.287491e+01  -5.444856e+01
   3.416622e+01  -5.887990e+01
   1.597474e+01  -1.844973e+01
  -6.411288e+00  -2.748361e+01
  -6.414373e+01   5.869282e+01
  -3.295134e+01  -3.497940e+00
   1.362748e+02  -7.779993e+01
   1.650516e+02  -2.317812e+01
   1.295300e+02   1.218717e+01
  -2.208463e+01   1.011424e+02
  -1.553659e+01   8.872222e+01
  -5.908773e+01  -2.685373e+01
  -2.782238e+01  -3.550092e+01
   3.520524e+01  -8.243619e+01
   3.945766e+01  -1.817639e+01
   7.480016e+01   6.672111e+01
  -3.223869e+00   8.663338e+01
  -1.629651e+01  -5.236920e+01
  -3.958919e+01  -1.052070e+02
   3.508208e+01   2.389626e+01
   1.676051e+01   1.470056e+01
   5.560185e+01   1.885536e+01
   1.301241e+01  -4.791049e+01
   2.919121e+01  -5.064989e+01
   1.431398e+01  -2.113235e+01
   2.314274e+01   3.625292e+01
   8.547243e+01   8.471027e+01
  -4.834663e+01   2.629773e+01
  -7.022304e+01  -6.083110e+01
   3.156700e+01  -7.416005e+01
   6.759450e+01  -3.837796e+01
   8.299630e+01   1.420618e+00
   2.759881e+01   2.700154e+01
  -8.123552e+01  -2.756076e+00
  -6.298007e+01   1.364856e+01
  -5.791303e+01  -4.045315e+01
   4.022623e+01  -2.846184e+01
   2.535972e+01  -2.898886e+01
  -4.137166e+01   5.428579e+01
  -9.627053e+01  -4.389022e+00
