
 $NMID
 id='ANONYMOUS ', fmtdat='(2E16.6)'
 volume=1.0
 tramp=1.0
 $END
   4.224162e+03   5.448728e+01
   2.525703e+03   2.409385e+03
  -5.708609e+02   2.657027e+03
  -2.011797e+03   9.766367e+02
  -9.472872e+02  -4.789077e+02
   5.147802e+02  -5.244697e+02
   7.986164e+02   3.786322e+02
   1.019215e+01   1.053320e+03
  -7.420301e+02   7.574120e+02
  -9.211159e+02  -4.129254e+01
  -4.397503e+02  -8.282502e+02
   2.400787e+02  -9.158114e+02
   5.200034e+02  -1.031827e+02
   3.682922e+02   6.723111e+02
  -2.279855e+02   7.502364e+02
  -5.828642e+02  -1.177136e+01
  -2.866362e+02  -6.830547e+02
   3.298190e+02  -7.097386e+02
   5.693199e+02  -1.286908e+02
   4.429479e+02   3.149944e+02
  -3.201430e+01   3.836460e+02
  -1.902842e+02   2.547581e+02
  -1.290397e+02   5.348510e+01
   1.253326e+02  -7.107673e+01
   3.472054e+02   1.824189e+02
   1.619658e+02   4.046021e+02
  -4.484231e+02   4.093611e+02
  -8.266087e+02  -1.097913e+02
  -3.742710e+02  -5.967938e+02
   4.033709e+02  -4.636834e+02
   6.981015e+02   6.033282e+01
   3.229514e+02   4.601384e+02
  -2.854042e+02   4.596963e+02
  -5.286379e+02   1.472299e+02
  -4.019391e+02  -2.103359e+02
  -1.119789e+02  -5.336225e+02
   2.092148e+02  -2.701598e+02
   1.186553e+02   2.272325e+02
  -1.929711e+02   3.543581e+02
  -4.427296e+02  -2.306128e+01
  -2.210892e+02  -6.796583e+02
   3.582276e+02  -6.355912e+02
   5.811982e+02  -2.427349e+01
   2.532236e+02   4.684509e+02
  -2.695290e+02   3.274848e+02
  -3.650134e+02  -2.732177e+02
   1.453315e+02  -5.247835e+02
   5.664355e+02  -1.038795e+02
   5.506804e+02   4.356252e+02
   1.875735e+02   6.254741e+02
  -3.304785e+02   3.165783e+02
  -6.698325e+02  -3.443786e+01
  -3.522960e+02  -4.142102e+02
   9.453972e+01  -4.084721e+02
   4.748760e+02  -4.682640e+01
   2.640129e+02   1.640012e+02
  -9.139411e+01   1.775842e+02
  -1.340329e+02  -1.525608e+02
   1.944151e+02  -1.145979e+02
   3.292362e+02   8.864922e+01
   1.498273e+02   3.427935e+02
  -1.554829e+02   2.762711e+02
  -3.340606e+02   9.638986e+01
  -1.821087e+02  -8.961233e+01
   6.089963e+01  -2.606106e+02
   1.873219e+02  -3.260495e+02
   3.668982e+02  -2.441570e+02
   3.023498e+02   1.471294e+02
   2.093394e+01   4.149215e+02
  -1.313904e+02   4.190392e+02
  -8.488689e+01   5.648140e+01
  -6.286980e+01  -5.526475e+01
  -6.580044e+01   8.152188e+01
  -1.795339e+02   1.290618e+02
  -2.370429e+02  -6.496416e+01
  -1.958293e+02  -3.038979e+02
   7.353539e+01  -2.335064e+02
   2.173497e+02   4.961156e+01
   1.764867e+02   2.845357e+02
  -7.704015e+00   3.065331e+02
  -2.489167e+02   1.476746e+02
  -2.770186e+02  -1.507674e+02
  -1.898375e+02  -3.404389e+02
   9.758896e+01  -3.063839e+02
   2.413647e+02  -1.233801e+02
   1.277952e+02   3.569298e+00
   4.527116e+01  -2.665179e+01
   2.205676e+02  -4.389765e+01
   3.246493e+02   9.235927e+01
   3.342556e+02   3.318867e+02
  -2.646734e+01   4.233548e+02
  -3.993755e+02   4.103154e+02
  -5.591286e+02   1.736861e+02
  -3.674423e+02  -1.246393e+02
  -5.613462e+01  -3.269622e+02
   1.465473e+02  -2.157036e+02
   4.787512e+01   1.674212e+01
  -1.115742e+02   7.506054e+01
  -1.696255e+02   4.463279e+01
  -2.699622e+01  -1.931817e+02
   1.657367e+02  -1.301380e+02
   2.236924e+02   1.605823e+01
  -5.574087e+00   1.890949e+02
  -2.067352e+02   1.186792e+01
  -1.424800e+02  -2.375620e+02
   4.698488e+01  -3.428086e+02
   2.144840e+02  -2.477715e+02
   3.132673e+02   1.054369e+02
   2.066086e+02   2.456849e+02
   1.041260e+02   3.201730e+02
  -7.321918e+01   2.074124e+02
  -1.881655e+02   2.341899e+01
   6.107768e+00  -1.248823e+01
   9.636633e+01   3.343528e+01
  -3.336036e+01   1.282843e+02
  -1.563294e+02   4.441077e+01
  -1.543043e+02  -9.461506e+00
   1.502015e+01  -5.654125e+01
   1.325307e+02  -7.584435e+01
   9.302804e+01   5.842308e+01
  -8.073359e+01   6.152081e+01
  -3.196280e+02   5.198420e+01
  -2.866900e+02  -1.188632e+02
  -1.926062e+00  -3.000703e+02
   2.114907e+02  -2.285579e+02
   2.853077e+02  -8.304537e+01
   1.810548e+02   2.611083e+01
   1.196403e+02   1.385211e+02
  -6.925117e+01   1.076490e+02
   3.665971e+01  -1.458368e+02
   2.030221e+02  -4.506733e+01
   2.272488e+02   8.106524e+01
   6.730396e+01   1.842242e+02
  -9.104390e+01   2.258321e+02
  -1.637192e+02  -1.599283e+01
  -8.333120e+01  -4.396011e+01
  -1.694942e+01  -3.101119e+01
  -1.571849e+01   9.003495e+01
  -1.099586e+02   1.159127e+02
  -2.342008e+02   4.768588e+01
  -1.574065e+02  -1.574851e+02
  -6.606434e+01  -2.396326e+02
   1.188735e+02  -1.232754e+02
   2.464545e+02   4.321967e+01
   6.377347e+01   7.117324e+01
  -8.020371e+01   8.896203e+01
  -5.463054e+01   6.473215e-01
  -2.238125e+01  -3.531433e+01
  -3.338431e+00  -2.702879e+01
  -1.498986e+01  -7.362623e+01
  -6.929824e+01   2.595007e+01
  -6.642795e+01  -1.573887e+02
  -3.610348e+01  -1.699167e+02
   1.530917e+02  -1.431071e+02
   1.695852e+02  -8.669807e+01
   1.789209e+02   1.444617e+02
   5.311242e+01   1.800793e+02
  -1.152582e+02   1.647421e+02
  -1.873661e+02   7.793382e+00
  -4.442222e+01  -1.345028e+00
  -2.674421e+01  -1.066160e+02
  -5.993455e+01  -7.613883e+00
  -4.716421e+01   1.411541e+00
  -4.508348e+01  -8.694914e+01
   3.391557e+01  -6.650505e+01
   1.338366e+02  -6.933215e+01
   1.080388e+02  -9.945648e+00
   1.308047e+01   1.145676e+02
  -1.742150e+02   1.987479e+02
  -1.626829e+02   1.012568e+01
  -9.841412e+01  -2.562518e+02
   6.960433e+01  -2.448101e+02
   3.052169e+02  -6.930078e+01
   2.867545e+02   8.283510e+01
   1.140727e+02   1.363430e+02
  -5.418473e+01   1.447439e+02
  -9.614534e+01   7.392669e+01
  -1.511889e+02   4.613325e+01
  -1.015063e+02   1.082104e+02
  -8.670424e+01   1.090797e+02
  -1.163987e+02  -2.137596e+01
  -6.391039e+01  -1.822774e+02
  -3.786595e+01  -2.462233e+02
   8.516513e+01  -1.826098e+02
   1.459260e+02  -6.553585e+01
   1.497834e+02   1.172180e+02
   3.057615e+00   1.504652e+02
  -9.140851e+01   1.145054e+02
  -9.038043e+01  -3.738374e+00
   8.011088e+00  -8.520978e+01
  -2.724831e+01  -5.955704e+01
  -7.126281e-01  -3.287339e+01
  -1.406715e+02  -4.945337e+01
   1.771913e+01  -4.192092e+01
   3.378015e+01  -3.954785e+00
   2.113616e+02   3.279556e+01
   1.645887e+02   6.863437e+01
   1.314299e+00   7.295954e+01
  -1.164265e+02   6.701079e+01
  -1.557501e+02   3.093979e+01
  -1.838267e+01  -3.396092e+01
   9.986325e+01  -1.950048e+01
   7.511064e+01   8.151040e+01
   1.016515e+01   7.163223e+01
  -5.457359e+01   2.776005e+01
  -1.956824e+00  -9.300053e+00
  -6.931388e+01  -3.386286e+01
  -8.090460e+01  -2.788529e+01
  -4.545183e+01  -6.369787e+00
  -7.943207e+01  -1.957896e-02
  -2.005202e+01  -7.820370e+01
   6.410770e+01  -1.691342e+02
   9.799779e+01  -1.385311e+02
   1.781624e+02  -4.230497e+01
   1.148565e+02   8.798506e+01
   7.869931e+00   9.299817e+01
  -1.673555e+02   8.683953e+01
  -6.975065e+01   2.205651e+01
   9.125470e+01  -2.051461e+01
   1.732659e+02   4.313473e+00
   5.259841e+01   1.803329e+02
  -3.265291e+01   1.602702e+02
  -2.101206e+02  -1.001914e+00
  -1.794173e+02  -2.039862e+01
   6.758397e+00  -5.908532e+01
   4.004132e+01  -8.499331e+01
   5.221817e+01  -1.461641e+01
  -4.334930e+01   3.711799e+01
  -1.155742e+02  -4.165659e+01
  -1.385782e+00  -1.094079e+02
   9.342963e+01  -1.071884e+02
   1.468862e+02  -6.921190e+01
   9.841590e+01   1.123197e+02
   9.650294e+00   2.280476e+02
  -3.225650e+01   1.054603e+02
  -7.422043e+01   4.104398e+01
  -5.101091e+01  -1.697542e+02
  -6.855038e+01  -7.139707e+01
   8.271644e+01  -3.527902e+01
   2.305880e+01   2.839761e+01
   3.286927e+01  -1.595741e+00
   1.564816e+01  -4.813885e+01
   1.189920e+01  -1.497598e+01
   4.307191e+01   1.214633e+02
   1.057966e+01   8.335664e+01
  -2.297521e+01   4.876795e+01
  -1.112576e+02  -3.364911e+01
  -1.417294e+02  -9.223884e+01
  -2.333280e+01  -5.620738e+01
   9.456141e+01  -3.283927e+01
   6.385947e+01  -4.541348e+01
  -1.362693e+01  -1.732596e+00
  -4.492265e+01   4.509778e+01
  -2.791051e+01   7.603593e+01
   4.994336e+01   9.268403e+00
  -3.175225e+01  -1.405518e+01
  -8.245475e+01  -1.570301e+01
  -9.992765e+01  -5.592686e+01
  -7.806832e+01  -8.983633e+01
   1.323356e+02  -1.285912e+02
   1.807266e+02  -4.169002e+01
   1.679341e+02   4.231192e+01
  -7.272887e+00   1.516377e+02
  -1.610169e+02   1.990044e+02
  -1.067641e+02   5.764896e+01
  -7.671575e+01  -1.575077e+01
  -4.822260e+01   3.497128e+00
   4.399352e+01  -2.255118e+01
  -6.668398e+00   1.728572e+00
   2.421900e+01  -6.788280e+01
   1.362010e+01  -7.607384e+01
  -6.328316e+00  -7.078448e+01
   5.796877e+01  -3.641774e+01
   8.322138e+01   1.044454e+02
   5.835047e+01   1.259988e+02
  -9.160266e+01   1.836983e+01
  -9.753046e+01  -6.643007e+01
  -7.585445e+01  -1.196017e+02
   7.333568e+01  -5.325704e+01
   5.121907e+01   4.726900e+01
   4.697678e+00   7.110108e+01
  -2.760888e+01   5.627241e+01
  -2.598531e+01  -5.233393e+00
   2.408657e+01   1.502784e+01
   9.576094e+01   1.105694e+01
   2.332849e+01  -3.123287e+01
  -7.888456e+01   5.767476e+01
  -1.555332e+02   7.492729e+01
  -2.627847e+01   2.422392e+01
   4.242877e+00  -7.054502e+01
   1.155799e+02  -1.252517e+02
   1.608590e+01   3.069281e+01
   1.855500e+01   7.461392e+01
  -3.807902e+01   3.005926e+00
   4.306315e+00   2.020234e+00
  -3.226222e+01  -5.149980e+01
   1.379456e+01  -1.292017e+01
   5.271296e+01   4.776954e+01
   3.559185e+01   5.730982e+01
   3.126591e+01  -2.995579e+01
   1.201179e+00  -5.468223e+01
   1.664272e+01  -7.269811e+00
  -2.846853e+00   5.509054e+01
  -2.113925e+01   8.310207e+01
  -4.542149e+01   2.319644e+01
  -1.131121e+01  -1.140511e+01
   3.728906e+01  -8.188994e+01
   3.792196e+01   1.352999e+01
   5.680113e+01   9.395481e+01
   8.506823e+00   8.782817e+01
  -5.654224e+01  -9.697350e+00
  -1.229054e+02   5.360983e+01
  -7.622954e+01  -5.632277e+01
   4.019108e+00  -1.103498e+02
   5.304219e+01  -3.755905e+01
   8.569499e+00   1.772511e+01
  -5.636621e+01  -5.138039e+00
  -3.623890e+01  -7.044245e+01
   2.396042e+01  -4.294931e+01
   1.162465e+02   2.497793e+01
