
 $NMID
 id='ANONYMOUS ', fmtdat='(2E16.6)'
 volume=1.0
 tramp=1.0
 $END
   4.273565e+03   4.206624e+01
   2.464021e+03   2.536091e+03
  -6.440530e+02   2.664086e+03
  -1.969695e+03   1.001878e+03
  -9.424977e+02  -5.187783e+02
   5.794535e+02  -5.247376e+02
   7.765710e+02   3.886163e+02
  -1.378946e+01   9.741408e+02
  -8.207586e+02   7.614958e+02
  -8.591751e+02  -7.260157e+01
  -4.163910e+02  -8.772667e+02
   2.104763e+02  -8.580578e+02
   5.731148e+02  -1.615772e+02
   3.858921e+02   7.057886e+02
  -2.020748e+02   7.591547e+02
  -5.855439e+02   1.682059e+00
  -2.871974e+02  -7.451747e+02
   3.175109e+02  -6.714522e+02
   6.158913e+02  -9.723065e+01
   3.826134e+02   2.660683e+02
   5.097128e+01   4.070600e+02
  -2.389153e+02   2.868746e+02
  -1.356697e+02   1.018016e+01
   8.067444e+01  -8.721512e+01
   4.389717e+02   1.425253e+02
   1.469569e+02   4.114362e+02
  -4.861440e+02   3.955540e+02
  -8.436219e+02  -1.468462e+02
  -3.914681e+02  -5.380767e+02
   3.937181e+02  -4.442040e+02
   7.043777e+02   3.993113e+01
   3.867350e+02   4.642641e+02
  -3.629427e+02   4.828640e+02
  -5.505825e+02   1.132286e+02
  -4.365283e+02  -2.115644e+02
  -7.378832e+01  -4.844388e+02
   1.935792e+02  -2.277818e+02
   1.058570e+02   1.764692e+02
  -1.752000e+02   4.227850e+02
  -4.008658e+02  -1.189347e+02
  -2.574852e+02  -6.514118e+02
   3.542767e+02  -6.788972e+02
   5.949593e+02   9.420049e+00
   2.335488e+02   5.489582e+02
  -2.669177e+02   3.136805e+02
  -3.126236e+02  -3.864893e+02
   9.958051e+01  -5.036517e+02
   5.648020e+02  -9.952762e+01
   6.012593e+02   3.864572e+02
   1.676215e+02   6.046889e+02
  -3.882957e+02   3.443229e+02
  -6.801639e+02  -8.492882e+01
  -3.523547e+02  -3.761431e+02
   1.220574e+02  -3.382749e+02
   4.106700e+02  -3.812518e+01
   2.424951e+02   1.161274e+02
  -8.460440e+01   2.177337e+01
  -6.397551e+01  -1.347241e+02
   1.879731e+02  -1.699778e+02
   3.218415e+02   2.787899e+01
   7.312344e+01   2.831656e+02
  -2.174397e+02   2.147344e+02
  -4.190087e+02   1.176105e+02
  -2.574864e+02  -8.629281e+01
   1.880587e+01  -2.410785e+02
   2.293932e+02  -3.574379e+02
   3.803977e+02  -2.841556e+02
   2.561706e+02   1.827999e+02
   3.872799e+01   3.914235e+02
  -1.073494e+02   4.459568e+02
  -8.225739e+01   1.372706e+02
   2.344074e+01  -9.526208e+00
  -2.794671e+01   6.679593e+01
  -1.802996e+02   1.179428e+02
  -3.120772e+02  -1.158022e+02
  -9.778470e+01  -2.583036e+02
   1.206599e+02  -2.949819e+02
   2.295193e+02  -1.625018e+01
   2.126169e+02   2.038249e+02
  -9.961878e+00   2.675916e+02
  -2.314787e+02   3.979524e+01
  -3.599311e+02  -2.126306e+02
  -1.976389e+02  -3.562089e+02
   1.047621e+02  -3.198476e+02
   2.037374e+02  -1.425789e+02
   1.415385e+02  -5.371901e+01
   1.006143e+02   1.285360e+01
   2.716474e+02  -3.181521e+01
   4.020867e+02   1.050113e+02
   3.663157e+02   2.975392e+02
  -2.369747e+01   4.034008e+02
  -3.519281e+02   4.719745e+02
  -4.419801e+02   2.255293e+02
  -3.668554e+02  -7.616898e+01
  -4.214415e+01  -2.242573e+02
   1.442246e+02  -2.543988e+02
   7.448836e+01   4.936089e+00
  -1.145005e+02   1.419581e+02
  -1.799259e+02  -1.063528e+01
  -2.385432e+01  -1.705898e+02
   2.128309e+02  -1.205501e+02
   1.641539e+02   7.206263e+01
   3.242893e+01   2.037688e+02
  -1.788578e+02   6.897203e+00
  -1.865826e+02  -2.437404e+02
   4.089658e+01  -3.797615e+02
   2.280059e+02  -2.520487e+02
   3.828738e+02   1.124174e+02
   2.994180e+02   2.284038e+02
   5.757094e+01   2.696720e+02
  -1.446699e+02   2.100888e+02
  -1.990784e+02   8.085799e-01
  -7.260762e+01  -1.931791e+01
   1.041014e+02   4.380438e+01
   3.724852e+01   1.212960e+02
  -7.905792e+01   7.880152e+01
  -1.712345e+02  -2.088563e+01
  -2.007158e+00   3.142841e+00
   8.329242e+01  -1.184358e+01
   3.807808e+01   7.554263e+01
  -7.335952e+01   9.819755e+01
  -2.724318e+02  -1.900966e+01
  -2.616555e+02  -1.522825e+02
  -3.478695e+01  -2.620084e+02
   1.991120e+02  -2.897557e+02
   2.946093e+02  -1.804668e+02
   1.199985e+02   7.113218e+01
  -2.057522e+01   6.801602e+01
  -1.041650e+02  -4.344926e+01
   3.190439e+01  -1.270824e+02
   2.075402e+02  -6.859138e+01
   2.318340e+02   1.430373e+02
   9.894838e+01   2.307152e+02
  -7.868471e+01   1.946446e+02
  -1.594165e+02   1.091384e+01
  -6.654068e+01  -5.002520e+01
   4.268987e+00  -2.749241e+01
  -8.221127e+00   9.182569e+01
  -8.288635e+01   1.317026e+02
  -1.935945e+02   7.168815e+01
  -2.278904e+02  -1.027460e+02
  -4.986824e+01  -1.568058e+02
   1.508699e+02  -1.708881e+02
   2.289913e+02   1.859452e+01
   1.279968e+02   1.309886e+02
  -5.125504e+01   8.550714e+01
  -5.037746e+01   2.461358e+01
  -3.285230e+01  -1.923123e+01
   1.524223e+01  -6.769229e+01
   7.628348e+01  -3.208137e-01
  -8.056148e+01   5.222407e+01
  -8.338445e+01  -3.580970e+01
  -1.326086e+01  -1.079680e+02
   1.862914e+02  -1.428360e+02
   2.095812e+02  -5.450082e+00
   1.640031e+02   1.658007e+02
   5.787842e+01   2.228393e+02
  -1.168277e+02   1.833102e+02
  -1.420133e+02   7.602721e+01
  -8.001572e+01  -7.949849e+01
  -4.423893e+01  -1.125574e+02
  -3.286227e+01   4.176286e+01
  -1.189398e+02  -1.613548e+01
  -6.257965e+01  -2.459992e+01
  -8.375592e+00  -8.329496e+01
   6.571842e+01  -3.711651e+01
   5.618324e+01   3.501425e+01
   3.389888e+01   9.516152e+01
  -1.351064e+02   1.143618e+02
  -2.367596e+02  -7.766743e+01
  -1.055675e+02  -1.555736e+02
   1.386099e+02  -2.612616e+02
   2.944017e+02  -1.302868e+02
   2.154874e+02   3.481267e+01
   7.541542e+01   1.918161e+02
  -6.012311e+01   1.686677e+02
  -1.387529e+02   9.506776e+01
  -7.968572e+01   6.280850e+01
  -2.670614e+01   7.058064e+01
  -8.915849e+01   5.425950e+01
  -8.792867e+01  -4.550390e+01
  -1.269730e+02  -1.595877e+02
  -9.187727e+01  -2.714300e+02
   6.588826e+01  -1.763811e+02
   1.827902e+02   9.669643e+00
   1.791257e+02   1.242301e+02
   2.280699e+01   2.581143e+02
  -7.463598e+01   1.045058e+02
  -9.689365e+01   1.018773e+00
  -1.277182e+01  -4.256758e+01
  -2.539694e+01  -1.425534e+01
   1.028289e+01  -2.750998e+01
  -5.833329e+01   1.834871e+01
  -5.765375e+01  -1.567482e+01
   8.459045e+01  -3.850740e+01
   2.043881e+02  -1.626821e+01
   1.498591e+02   1.497307e+01
  -3.328560e+01   1.096069e+02
  -1.522958e+02   9.488765e+01
  -1.923419e+02   5.208950e+01
  -2.207327e+01  -1.053354e+02
   7.642455e+01  -3.312167e+01
   5.320870e+01   2.329228e+01
  -1.524460e+01   7.385709e+01
  -3.017117e+01   5.551333e+00
  -7.876554e+01   4.379704e+01
  -4.491079e+01  -7.784007e+01
  -6.970768e+01  -6.378056e+01
  -5.705230e+01   8.680496e+00
  -6.321180e+01   2.279918e+01
  -9.512279e+01  -9.950244e+01
   2.110153e+01  -1.504774e+02
   1.842660e+02  -1.418277e+02
   1.882436e+02   6.898064e+00
   9.688511e+01   3.000998e+01
  -1.833219e+00   1.485217e+02
  -7.451217e+01   5.935679e+01
  -1.797200e+01  -1.378150e+01
   9.954544e+01  -1.066041e+01
   1.324603e+02   1.636089e+01
   6.841776e+01   1.269348e+02
  -5.194078e+01   5.498739e+01
  -1.888865e+02   1.565083e+01
  -1.779227e+02  -7.711968e+00
  -4.247840e+01  -8.219173e+01
   5.663535e+01  -5.416734e+01
   4.040523e+01  -1.914978e+01
   1.179736e+01  -1.087609e+01
  -9.804559e+01  -5.169090e+01
  -4.632261e+01  -6.259746e+01
   5.851636e+01  -1.237960e+02
   1.143818e+02  -1.208957e+02
   2.148995e+02   1.152052e+02
   2.697678e+01   2.851634e+02
  -1.139629e+02   1.153756e+02
  -1.304551e+02   4.516130e+01
  -8.406295e+01  -1.059869e+02
  -5.146266e+01  -1.083493e+02
   1.092600e+02   4.348503e+01
   4.177981e+01   1.835968e+01
   5.456251e+00  -5.208809e+01
  -3.801169e+01  -9.323791e-01
   3.323024e+01   3.085739e+01
   5.657798e+01   6.565419e+01
   1.039703e+01   9.079308e+01
  -6.086239e+01   2.079793e+01
  -1.855853e+02   5.954853e+00
  -7.734404e+01  -1.842917e+01
  -4.133406e+01  -3.853415e+01
   4.855536e+01  -4.637860e+01
   5.812652e+01   3.793632e+01
   3.223820e+01   2.407118e+01
  -2.660624e+01   1.042910e+01
  -8.197726e+01  -1.417619e+01
   3.911566e+00   2.751787e+01
   5.487506e+00   2.674954e+01
  -1.006409e+02   3.675316e+01
  -6.833550e+01   9.219822e+00
  -2.143323e+01  -9.456795e+01
   1.411034e+02  -1.841028e+02
   2.150278e+02  -8.514300e+01
   1.377696e+02   5.163422e+01
   1.573624e+01   1.778680e+02
  -1.156221e+02   1.641204e+02
  -1.900758e+02   1.437603e+01
  -2.784828e+01  -4.319201e+01
  -6.005757e+01   3.491334e+01
   6.810604e+01  -1.190993e+01
  -5.213402e+01   1.150997e+01
  -5.575683e+01  -8.462108e+01
   3.039820e+01  -1.073596e+02
   4.040921e+00  -1.172413e+02
   6.609506e+01  -2.334905e+00
   5.221759e+01   1.119410e+02
  -3.452237e+01   9.000142e+01
  -6.163775e+01   9.345530e+00
  -7.849799e+01  -8.355088e+01
  -1.442450e+01  -1.248186e+02
   7.275722e+01  -8.158674e+01
   1.521381e+02   2.717122e+01
   3.846794e+01   7.187490e+01
  -5.975331e+01   6.887156e+01
  -8.654632e+01   3.999999e-01
   9.215585e+00   3.486537e+01
   7.047090e+01  -3.456944e+01
  -4.781578e+00   2.447195e+01
  -9.634126e+01   3.894307e+01
  -1.304119e+02   7.340391e+01
  -8.458288e+01   2.156691e+00
   2.283464e+01  -7.064586e+01
   1.026629e+01  -9.534535e+01
   3.094148e+01   2.091956e+01
   6.378090e+00   3.386449e+01
  -1.771078e+01  -1.544430e+01
  -2.457644e+01  -5.839587e+01
  -1.992026e+01  -7.495870e+01
   1.882932e+01  -7.117916e+00
   5.858572e+01   5.774891e+01
   8.089544e+01  -2.696455e+01
   3.352865e+01  -6.377864e+00
   1.068919e+01   2.476411e+01
  -3.908783e+01  -1.592694e+00
  -3.069598e+01   3.459729e+01
  -1.782042e+01   7.064544e+01
  -3.166048e+01  -2.849938e+01
   4.373889e+00  -6.323971e+01
   4.112634e+01  -1.256147e+02
   1.178215e+01  -4.916574e+01
   8.102225e+01   1.177537e+01
   4.463085e+00   7.314388e+01
  -4.106804e+01   6.908728e+01
  -9.160441e+01   4.008308e+00
  -5.310667e+01   8.035801e+00
  -1.724440e+01  -1.896576e+01
  -7.086659e+00  -3.181624e-01
   1.381959e+01   5.547877e+01
   1.111063e+00  -5.513459e+00
  -4.033244e+01   2.457367e+01
   7.135234e+01  -3.890820e+01
   5.226915e+01   1.496617e+01
