
 $NMID
 id='ANONYMOUS ', fmtdat='(2E16.6)'
 volume=1.0
 tramp=1.0
 $END
  -2.099191e+03  -4.991036e+01
  -1.116451e+03  -1.295057e+03
   4.837177e+02  -1.234340e+03
   1.052866e+03  -3.390852e+02
   4.176745e+02   4.057306e+02
  -3.939636e+02   2.543965e+02
  -4.253707e+02  -2.422480e+02
   6.383862e+01  -5.382774e+02
   4.562891e+02  -4.028985e+02
   4.132127e+02   6.873863e+01
   1.849954e+02   4.296268e+02
  -1.710340e+02   4.494510e+02
  -3.288302e+02   1.075344e+02
  -2.060687e+02  -3.647415e+02
   1.833823e+02  -3.518810e+02
   2.536191e+02   3.355498e+01
   1.344577e+02   2.948106e+02
  -1.473660e+02   2.848318e+02
  -2.889252e+02  -6.127881e+00
  -1.904145e+02  -2.069789e+02
  -2.781913e+01  -1.968229e+02
   9.798582e+01  -1.351873e+02
   5.711990e+01   3.932011e+01
   5.267102e+01   4.355919e+01
  -1.956186e+02  -1.138965e+02
  -1.148648e+02  -1.925029e+02
   2.354170e+02  -2.512635e+02
   3.944248e+02   4.760672e+01
   1.852692e+02   2.418801e+02
  -1.872018e+02   2.529146e+02
  -3.923941e+02  -2.598005e+01
  -1.683710e+02  -2.640251e+02
   1.788743e+02  -2.109999e+02
   2.627921e+02  -1.008624e+02
   2.078870e+02   1.010113e+02
   1.194479e+01   2.185954e+02
  -1.809245e+02   1.295970e+02
  -9.578359e+01  -1.575763e+02
   8.141909e+01  -2.436609e+02
   2.493348e+02  -1.689126e+01
   1.476087e+02   4.091497e+02
  -1.826671e+02   3.143722e+02
  -3.214334e+02   3.346928e+01
  -1.735374e+02  -2.415711e+02
   1.596787e+02  -1.449759e+02
   2.088998e+02   2.053988e+02
  -2.827648e+01   3.091703e+02
  -2.522997e+02   4.517096e+01
  -2.951294e+02  -2.833664e+02
  -1.214922e+01  -2.777320e+02
   2.047007e+02  -1.684799e+02
   2.884973e+02   5.368497e+01
   1.880563e+02   1.746623e+02
  -1.353599e+02   1.981419e+02
  -2.162923e+02   1.396348e+01
  -4.255185e+01  -1.347757e+02
   3.549263e+01  -6.919699e+01
   9.450268e+01   9.514474e+01
  -7.376503e+01   4.241990e+01
  -2.130817e+02  -8.919501e+01
  -1.200661e+02  -1.758559e+02
   1.192778e+02  -1.655445e+02
   8.989845e+01  -4.508913e+00
   6.075807e+01   5.895246e+01
   5.437528e+01   8.937579e+01
  -8.590820e+01   1.405744e+02
  -1.771480e+02   1.182617e+02
  -1.074671e+02  -2.335332e+01
   6.043372e+01  -2.253399e+02
   3.241515e+01  -1.672704e+02
   8.080103e+01  -1.844607e+01
  -8.922745e+00  -3.854403e+01
  -3.601109e+01  -1.895308e+01
   8.074701e+01  -8.052046e+01
   9.200471e+01  -5.102410e+01
   1.235674e+02   1.197420e+02
  -3.999914e+01   1.554647e+02
  -1.197227e+02   2.027678e+01
  -4.367287e+01  -9.149309e+01
  -1.426009e+01  -7.923200e+01
   1.011187e+02  -7.442873e+01
   1.480485e+02   6.573700e+01
   3.779088e+01   1.773200e+02
  -1.841861e+01   8.041155e+01
  -1.084248e+02   8.620391e+01
  -3.216560e+01   1.086400e+01
   2.645408e+01  -6.907746e+00
  -1.244809e+02   3.829023e+01
  -1.590561e+02  -4.065481e+01
  -1.565514e+02  -8.904693e+01
  -2.519931e+00  -1.777496e+02
   1.900516e+02  -2.206474e+02
   2.529528e+02  -6.779411e+01
   1.032709e+02   4.011946e+01
   6.908447e+01   1.536770e+02
  -8.873091e+01   1.063709e+02
  -5.395999e+01  -2.853001e+01
   7.435382e+01  -5.169748e+01
   1.208994e+02  -1.041897e+01
   7.484331e+01   1.121042e+02
  -6.808232e+01   9.188944e+01
  -1.001554e+02  -1.644823e+01
   7.925064e+00  -1.363932e+02
   1.225300e+02  -2.836830e+01
   7.074275e+01   1.015281e+02
   4.608913e+01   1.189081e+02
  -7.992209e+01   9.197313e+01
  -1.462780e+02  -5.683608e+01
  -1.351338e+02  -7.650971e+01
  -1.717707e+01  -1.279215e+02
  -4.383081e+01  -8.388185e+01
   1.743313e+01   7.509291e-01
  -2.100203e+01   5.666224e+01
  -4.082140e+01  -1.415975e+01
  -2.208589e+01  -4.980219e+01
   7.997355e+01  -6.877316e+01
   1.200123e+02   3.662014e+01
   2.312368e+01   4.435472e+01
  -1.011623e+02  -3.109486e+01
  -3.400593e+00  -4.306495e+01
   1.066036e+02  -4.175573e+01
   1.177881e+02  -1.915696e+00
   1.637008e+02   6.191142e+01
  -2.128006e+01   1.014678e+02
  -9.795852e+01   1.410381e+02
  -9.672635e+01   9.512888e+01
  -3.529372e+01  -5.216833e+01
  -8.213540e+00  -8.746736e+01
   4.212364e+00  -1.202852e+01
  -4.537434e+01   9.323826e+01
  -6.612542e+01   3.740211e+01
  -1.684909e+02  -5.787873e+01
  -2.859256e+01  -8.914286e+01
   2.975986e+01  -8.878853e+01
   5.750251e+01   7.384921e+00
  -1.203590e+01   1.744373e+01
   2.506053e+01   2.596760e+01
  -1.712079e+01  -4.379757e+01
   8.136753e+01  -5.766804e+01
   1.045399e+02  -1.603796e+01
   9.501495e+01   3.964992e+01
   4.166125e+00   4.824770e+01
  -8.559079e+01   7.515320e+01
  -1.340954e+02   2.897897e+01
  -7.487769e+01  -9.495338e+01
   5.465501e+01  -4.082963e+01
   2.073109e+01   2.038924e+01
  -7.909278e+01   2.880560e+01
  -1.933695e+01   6.124508e+01
   1.673956e+01   5.740679e+01
   2.916502e+01   4.234759e+01
   3.942512e+01   8.010619e+00
   3.810488e+01   7.582132e+01
  -8.951879e+01   8.980746e+01
  -1.360611e+02  -9.479459e+00
  -4.002459e+01  -8.069805e+01
   1.292062e+01  -8.095267e+01
   1.624605e+01  -8.570056e+01
   6.763044e+01   4.005327e+01
   1.731417e+01  -4.632645e+00
  -3.168008e+00   9.422858e+01
   4.088444e+01   3.446979e+01
   3.768841e+01   3.473313e+01
   3.311756e+01  -3.409356e+01
  -6.043544e+01  -1.851504e+01
  -8.118971e+01  -1.045411e+01
  -2.060828e+01  -7.556568e+01
  -1.532180e+01  -7.988802e+00
   6.708575e+01  -3.204186e+01
   7.742941e+01   2.755588e+01
   1.070427e+02   5.211760e+01
  -3.080093e+01   7.368890e+01
  -5.120724e+01   2.758467e+01
  -1.353962e+02  -2.203259e+01
  -7.381566e+01  -1.024156e+02
   5.888763e+01  -4.511336e+01
   5.613804e+00  -1.699527e+01
   3.528890e+01   1.196999e+01
  -2.099498e+01  -5.019564e+00
   2.818600e+01  -3.663714e+01
   5.366667e+01   3.859225e+01
   4.299232e+01   8.219085e+01
  -2.185347e+01   8.109768e+01
  -1.777541e+00   8.368838e+01
  -1.017507e+02   1.291509e+01
  -2.353267e+01  -3.745867e+01
   3.220216e+01  -2.983252e+01
   3.079907e+01  -6.390567e+01
   4.799045e+01   3.705199e+01
   6.826392e+00   6.853898e+01
  -1.670828e+01  -6.180243e+01
   5.893084e+01   5.468045e+01
   2.933398e+01   3.884462e+01
   5.119855e+01   1.835413e+01
  -5.301416e+01   1.244036e+01
  -5.682277e+01  -3.034891e+01
  -4.768959e+01  -1.892344e+01
  -5.982040e+00  -6.276596e+01
   1.106359e-01  -2.777062e+01
   5.667495e+01   4.584276e+01
   4.940162e+01  -3.497239e+01
  -6.335280e+00   3.256253e+01
  -2.341973e+01  -1.938544e+01
   2.783960e+01  -5.583677e+01
   2.984931e+00  -5.913056e+01
   4.398386e+01   3.224023e+01
   5.883349e+00  -4.545521e+00
   2.267600e+01   1.475612e+01
   8.572368e+00  -2.866930e+01
   4.517730e+01  -1.070682e+01
  -1.330459e+01   2.997398e+01
   3.840369e+00   1.063731e+02
  -5.740523e+00   5.222052e+01
  -5.305888e+01  -6.044125e+00
  -1.171160e+02  -8.765363e+00
  -4.057983e+01  -4.443400e+01
   9.066992e+01  -5.458133e+01
   4.394594e+01   1.428195e+01
  -6.285915e+01  -1.447083e+01
  -8.097490e+01   3.542401e+01
  -1.783401e+01  -2.826554e+01
   3.998868e-01  -5.828496e+01
   6.569614e+01  -3.811800e+01
   7.266013e+01  -3.821599e+00
   6.104191e+01   7.897607e+01
  -5.633501e+01   1.201723e+02
  -2.259232e+01   3.187366e+01
  -4.862888e+01   6.062913e+00
   4.257903e+01   3.779648e+01
   9.545860e+01   5.084506e+01
  -3.922750e+01   8.974152e+01
  -6.521335e+01   4.566618e+01
  -2.757540e+01  -3.112001e+01
  -6.374478e+00  -4.241567e+01
   1.705892e+00  -6.412581e+01
   6.440633e+01   4.747606e+01
   4.044001e+01   7.461535e+01
  -6.349361e+01   4.834120e+01
  -1.007776e+01  -4.339207e+01
  -6.713250e+01  -1.047838e+02
   2.848946e+01  -8.650340e+00
   1.436653e+01  -8.342725e+00
  -5.769906e+00  -6.061963e+01
  -9.646368e+01  -2.342060e+01
   6.001677e+00  -3.397221e+01
  -1.456488e+01  -4.500307e+00
   1.188495e+01   3.859466e+01
   4.548967e+01   8.460647e+01
  -3.034950e+01   5.433020e+01
   8.056715e+00  -1.111754e+00
   6.771421e+00  -3.853295e+01
   3.217690e+01  -3.227937e+01
  -3.096937e+00  -4.595869e+00
   2.276222e+01  -1.034764e+01
  -1.305902e+01  -5.499519e+01
   1.676825e+01  -6.022016e+00
   1.546067e+01  -2.209955e+01
   2.452797e+00   2.633760e+01
  -2.779968e+01   3.120386e+01
  -4.336235e+01   8.333931e+01
  -7.285473e+01   3.934948e+01
  -3.892541e+01   3.629165e+00
  -6.021293e+01  -1.054771e+02
   3.155651e+00   5.895196e+00
   9.111010e+01  -2.682637e+01
   2.428976e+01   4.838122e-01
  -3.843597e+01   5.903330e+01
   3.924597e+01   6.804208e+00
  -1.459505e+01  -3.068901e+01
   1.008450e+01   3.907768e+01
   3.190901e+01   5.010667e+01
   1.041444e+01  -9.812326e+00
  -4.230927e+01   6.332980e+00
  -8.590548e+01  -3.090332e+01
   4.731388e+01  -7.394097e+01
   1.386635e+01  -2.221198e+01
   4.972487e+01   9.594036e+01
   1.809770e+01   7.234469e+00
  -2.153122e+01  -7.985801e+00
  -5.427977e+01   1.652150e+01
  -2.899876e+01   9.919353e+00
  -2.110157e+01   2.202418e+01
   1.078918e+01   3.034895e+01
  -6.419475e+01   5.040076e+01
  -6.455384e+01   3.564435e+01
  -1.990153e+01   3.243904e+01
   3.354272e+00  -2.027209e-01
   5.375960e+01  -3.942106e+01
   8.998909e-01   7.281233e+01
   2.664312e+01   1.274553e+01
  -3.790961e+01   3.557320e+01
  -4.125138e+01   5.968988e+01
   2.724474e+01   3.242152e+00
  -3.376611e+01  -4.544770e+01
   5.741976e+01   1.627898e+01
  -1.432463e+01   8.245270e+01
  -3.336341e+01   7.080608e+01
  -3.010156e+01  -5.804848e+01
  -7.851045e+01  -6.312526e+01
   1.814456e+01  -3.513140e+01
   2.917771e+01   4.059358e+01
  -1.808142e+01   4.041861e+00
   3.649489e+01  -8.299445e+01
  -5.999877e+01   1.430809e+00
   3.383194e+01   3.492114e+00
  -4.675683e+01  -2.543829e+01
  -3.338415e+00  -9.341593e+01
  -2.274429e+01  -1.212530e+01
  -7.584661e+01   3.579134e+00
  -6.593189e-01  -6.007678e+01
   3.814159e+01  -5.700424e+01
   6.676564e+01  -2.595888e+01
  -4.669045e+00   4.095210e+01
  -6.473754e+01  -3.609090e+00
  -2.750430e+01  -9.584936e+00
  -4.775526e+01  -3.577796e+01
   1.951744e+01  -4.401432e+00
   3.721115e+01  -8.403176e+00
  -1.478369e+01  -1.848707e+01
  -6.202682e+01   3.910101e+00
