
 $NMID
 id='ANONYMOUS ', fmtdat='(2E16.6)'
 volume=1.0
 tramp=1.0
 $END
   4.644382e+03  -8.705174e+01
   2.676548e+03   2.824079e+03
  -8.436579e+02   2.959185e+03
  -2.286734e+03   8.794896e+02
  -1.025305e+03  -7.825628e+02
   7.886200e+02  -6.514157e+02
   1.029590e+03   5.162707e+02
  -5.169468e+01   1.140939e+03
  -9.083907e+02   8.343806e+02
  -9.464167e+02  -1.299647e+02
  -4.694384e+02  -9.308023e+02
   2.932676e+02  -9.535066e+02
   6.826646e+02  -6.404965e+01
   4.488431e+02   7.921732e+02
  -3.079595e+02   8.380971e+02
  -6.320987e+02  -5.472680e+01
  -2.854586e+02  -7.239823e+02
   3.810632e+02  -6.596837e+02
   6.510209e+02  -8.836425e+01
   3.928388e+02   3.964853e+02
  -1.980586e+01   4.735912e+02
  -1.931951e+02   2.852284e+02
  -2.396778e+02  -2.771604e+01
   9.384136e+01  -1.015172e+02
   4.320515e+02   8.450976e+01
   2.616437e+02   4.318481e+02
  -4.323661e+02   4.442929e+02
  -9.104621e+02  -4.377542e+01
  -5.085150e+02  -6.667131e+02
   4.136068e+02  -5.179011e+02
   7.877742e+02  -1.346394e+01
   3.532486e+02   4.982951e+02
  -3.113207e+02   5.618249e+02
  -5.969951e+02   1.761388e+02
  -3.962226e+02  -3.076210e+02
  -9.013700e+01  -5.240769e+02
   2.588526e+02  -2.624418e+02
   2.316185e+02   3.187598e+02
  -1.857666e+02   4.935675e+02
  -5.099060e+02   2.521707e+01
  -2.603417e+02  -6.924432e+02
   2.942735e+02  -8.114067e+02
   6.216516e+02  -2.874853e+00
   2.943233e+02   6.285563e+02
  -3.726787e+02   3.467669e+02
  -4.238477e+02  -3.545130e+02
   6.353223e+01  -5.795996e+02
   6.457175e+02  -1.376887e+02
   5.668798e+02   4.012157e+02
   1.548609e+02   6.353874e+02
  -4.519704e+02   3.466415e+02
  -6.578031e+02  -5.731968e+01
  -3.924015e+02  -4.204601e+02
   2.214590e+02  -3.744327e+02
   4.782437e+02  -7.671283e+01
   2.791166e+02   2.324209e+02
  -1.369676e+02   1.201673e+02
  -1.949937e+02  -1.996580e+02
   1.869946e+02  -2.499250e+02
   3.560528e+02   9.482915e+01
   1.359938e+02   3.568270e+02
  -2.004818e+02   2.494163e+02
  -3.732965e+02   9.191853e+01
  -1.707920e+02  -9.401002e+01
   4.569054e+01  -2.076856e+02
   2.427955e+02  -3.192821e+02
   3.348229e+02  -2.434797e+02
   2.818270e+02   1.212282e+02
   7.317633e+01   4.700518e+02
  -8.403982e+01   4.422644e+02
  -1.428312e+02   1.556062e+02
  -4.692261e+01  -5.497548e+01
  -3.684411e+01   5.767704e+00
  -2.148325e+02   1.652609e+02
  -2.755651e+02  -5.480075e+01
  -1.819960e+02  -2.927683e+02
   2.427373e+01  -2.851183e+02
   1.981547e+02   6.556004e-01
   2.909114e+02   2.555517e+02
  -1.495940e+01   3.590919e+02
  -3.089033e+02   1.513287e+02
  -3.853180e+02  -1.585559e+02
  -1.771974e+02  -3.777386e+02
   5.472480e+01  -3.667626e+02
   2.127536e+02  -1.439939e+02
   1.980848e+02  -8.466108e+00
   1.651632e+02  -1.416998e+01
   2.240744e+02  -1.161974e+02
   3.996660e+02  -4.959897e+01
   3.547487e+02   2.865554e+02
  -9.128079e-01   4.535722e+02
  -3.796740e+02   3.880498e+02
  -4.765756e+02   1.903644e+02
  -3.821136e+02  -1.391761e+02
  -8.942989e+01  -3.241791e+02
   1.559911e+02  -2.829912e+02
   1.395448e+02  -1.793274e+01
  -1.097872e+02   1.586647e+02
  -1.913670e+02  -3.741740e+01
  -1.198348e+02  -2.225668e+02
   1.570878e+02  -1.984689e+02
   1.988953e+02   1.528876e+01
  -4.799026e+01   1.701936e+02
  -2.324374e+02   1.132097e+01
  -2.174119e+02  -2.501727e+02
   4.263125e+01  -3.381695e+02
   2.721235e+02  -1.782934e+02
   3.566819e+02   7.246139e+01
   2.769489e+02   2.084465e+02
   7.533369e+01   2.611778e+02
  -1.388813e+02   1.383099e+02
  -2.000284e+02   9.948433e+01
  -7.074561e+01  -1.104647e+02
   1.178066e+02   2.905840e+01
   4.706017e+01   1.453893e+02
  -1.587451e+02   9.785308e+01
  -2.124059e+02  -7.423908e+00
  -1.172189e+02  -1.381484e+02
   7.726694e+01  -5.541493e+01
   9.362656e+01   7.711287e+01
  -1.184198e+02   3.555151e+01
  -2.875901e+02  -3.983522e+01
  -3.050778e+02  -1.290392e+02
  -4.790662e+01  -3.030285e+02
   2.411192e+02  -3.034920e+02
   2.606889e+02  -9.641667e+01
   1.531590e+02   6.003888e+01
  -7.073414e+01   8.772087e+01
  -6.736707e+01  -3.648719e+00
   6.757134e+01  -6.582445e+01
   1.992637e+02  -8.345262e+01
   2.798332e+02   1.193756e+02
   5.124165e+01   1.678321e+02
  -8.208331e+01   1.417662e+02
  -1.364369e+02   4.942459e+01
  -8.240220e+01  -3.664264e+01
   3.231614e+01   2.729717e+01
   2.414707e+01  -2.964940e+01
  -6.620601e+01   9.801751e+01
  -1.532553e+02   2.378753e+01
  -2.145724e+02  -1.055002e+02
  -2.627915e+01  -2.196002e+02
   1.917562e+02  -1.621361e+02
   1.859279e+02   4.618648e+01
   8.278134e+01   6.894549e+01
  -1.131218e+02   1.127914e+02
  -8.235665e+00   5.753350e+01
   1.286854e+01   1.220110e+01
   2.679456e+01  -1.040422e+01
   1.161741e+00  -2.048231e+01
  -4.223898e+01  -5.852933e+00
  -9.352890e+01  -1.367727e+02
  -2.422816e+01  -1.487843e+02
   1.085631e+02  -1.036933e+02
   2.394447e+02  -1.329081e+01
   1.713951e+02   1.726857e+02
   4.890713e+01   2.499668e+02
  -1.112836e+02   9.564961e+01
  -1.499322e+02   5.058125e+01
  -9.674183e+01  -2.825461e+01
   8.888553e+00  -7.607213e+01
  -9.275820e+01   4.638274e+01
  -3.868137e+01   5.935667e+00
   3.480166e+01   2.564598e+01
   7.284304e+01  -7.719228e+01
   8.519637e+01  -1.023104e+00
   6.882262e+01   7.876097e+01
  -2.078628e+01   8.688743e+01
  -1.384967e+02   1.155911e+02
  -2.586845e+02  -8.693814e+01
  -1.008248e+02  -1.880584e+02
   9.776327e+01  -2.004378e+02
   2.338424e+02  -1.331507e+02
   1.986584e+02   8.531115e+01
   1.188384e+02   1.963636e+02
  -1.198922e+01   1.240045e+02
  -5.701511e+01   5.002865e+01
  -7.637506e+01   9.158151e+01
  -6.290727e+01   9.270265e+01
  -1.047641e+02   2.702888e+01
  -1.072955e+02  -5.418377e+01
  -9.319871e+01  -1.603837e+02
  -1.520025e+01  -1.732547e+02
   1.576522e+01  -1.631083e+02
   1.554693e+02  -2.344877e+01
   1.288654e+02   1.346181e+02
   2.668865e+01   1.101555e+02
  -5.319569e+01   7.504773e+01
  -4.704448e+01  -7.730729e+00
   2.876039e+00  -5.594926e+01
  -4.046064e+01  -6.798455e+01
  -5.091881e+01  -2.517610e+01
  -1.554727e+02  -6.700366e+00
  -3.544267e+01  -3.146083e+01
   8.751756e+01  -3.218033e+01
   1.712200e+02   3.565413e+01
   1.630315e+02  -2.296703e+01
  -2.426329e-01   8.127007e+01
  -1.454517e+02   7.171395e+01
  -2.169454e+02   2.135190e+01
   2.383994e+01  -3.635437e+01
   4.739853e+01  -4.908465e+01
   9.898097e+01   4.561076e+01
  -2.536400e+00   7.302303e+01
  -6.451133e+01   5.614962e+01
  -2.130150e+01  -2.716547e+01
   1.193481e+01  -6.432601e+01
  -5.776074e+01  -2.425100e+01
  -3.219382e+01   3.072316e+01
  -1.303199e+02   1.475726e+01
  -3.911384e+01  -9.543490e+01
   5.091447e+01  -1.529630e+02
   1.144913e+02  -1.205811e+02
   2.056187e+02  -3.926749e+01
   1.062253e+02   8.559687e+01
  -3.409921e-02   8.471639e+01
  -3.663689e+01   9.545980e+01
  -3.922201e+01   7.140619e+00
   4.306052e+01  -1.723672e+01
   1.124719e+02   7.752969e+01
   8.294808e+01   1.458933e+02
  -6.289589e+01   1.055120e+02
  -1.958833e+02   1.354796e+01
  -1.754431e+02  -3.659591e+01
  -5.540956e+01  -9.956402e+01
   6.183926e+01  -5.906667e+01
   2.590255e+01   3.580250e+00
   1.014306e+01   3.216447e+01
  -1.033037e+02  -3.863812e+00
  -1.608519e+01  -1.589251e+02
   9.340357e+01  -1.264051e+02
   1.550665e+02  -3.926954e+01
   1.215470e+02   1.492555e+02
   4.757785e+01   1.499213e+02
  -5.798842e+01   1.555088e+02
  -7.610786e+01  -7.708314e+01
  -3.347806e+01  -8.717219e+01
   4.013568e+01  -1.182706e+02
  -8.148221e+00  -7.889100e+00
   4.501954e+01   1.105953e+02
  -1.434676e+01   4.793413e+01
  -1.304289e+00  -3.070311e+01
   8.967217e+01  -2.722021e+00
   1.102060e+01   6.583480e+01
   7.149107e+01   1.508520e+02
   2.258702e+01   8.707345e+01
  -1.464902e+02  -4.662256e+01
  -1.137537e+02  -4.473703e+01
   2.521337e+01  -8.216435e+01
   1.281914e+02  -8.151312e+00
   4.060734e+01  -4.246162e+01
   2.420496e+01   2.861591e+00
  -4.742184e+01   3.134616e+01
  -1.283628e+00  -5.370652e+01
   1.342625e+00  -3.293231e+01
   2.640438e+01   3.116594e+00
  -8.439314e+01   3.437316e+01
  -1.706875e+02  -6.593980e+01
   5.948190e+00  -4.758689e+01
   1.607808e+02  -1.051024e+02
   2.025064e+02  -9.091595e+01
   1.315871e+02   5.680557e+01
   3.256865e+01   1.721667e+02
  -7.334113e+01   1.228083e+02
  -1.024140e+02   5.312523e+01
  -1.193490e+02  -4.948308e+01
  -4.566658e+01  -8.672211e+01
   1.907383e+01  -2.288757e+01
   1.917293e+01  -2.631225e+01
   4.836103e+00  -9.729331e+01
   3.036194e+01  -9.729498e+01
   6.043552e+00  -9.801706e+01
   1.283400e+02   1.479117e-01
   6.886208e+01   1.196158e+02
  -7.147936e+01   8.151577e+01
  -2.288427e+00   1.230000e+02
  -9.642023e+01  -1.167113e+02
  -3.320094e+01  -1.487345e+02
   4.357713e+01  -6.738213e+01
   9.403483e+01   8.637468e+01
  -1.174896e+01  -3.792479e+00
  -1.502454e+01   1.509590e+01
  -6.426928e+01   3.701961e+00
   6.855598e+01  -3.262475e+00
   6.401233e+01  -2.454776e+01
   2.692361e+01   9.513054e+00
  -8.489306e+01   5.649273e+01
  -1.227060e+02   4.960701e+01
  -6.257999e+01   8.016697e+00
   1.722525e+01  -1.058055e+02
  -2.795988e+01  -1.198372e+02
   3.344883e+01   2.006552e+01
  -3.583700e+01   2.324762e+01
   1.387194e+01   9.979914e+01
  -4.932571e+01   1.724555e+01
  -9.629646e+01  -2.506397e+00
  -2.319832e+01   3.917696e+00
   8.810746e+01  -1.975785e+01
   3.844542e+01  -1.157114e+00
   3.959316e+00  -4.574850e+01
  -3.114985e+01  -1.781818e+01
  -1.499844e+01  -2.809174e+01
  -7.005160e+01   3.323991e+01
  -2.935530e+01   7.274825e+01
  -4.053083e+01  -4.519336e+00
  -2.454363e+01  -1.158700e+02
   7.931542e+01  -1.098548e+02
   3.316157e+01  -1.374295e-01
   4.505474e+01   6.748474e+01
   4.734710e+01   4.849604e+01
  -2.689290e+01   6.176883e+01
  -9.544634e+01   3.563035e+01
  -2.034089e+01  -3.584664e+00
  -7.169985e+00  -3.438051e+00
   8.248148e+01  -1.166283e+01
   2.795627e+01  -2.210909e+01
  -5.632039e+01   6.642054e+00
  -6.536917e+01   9.463813e+00
   2.513520e+01   5.192752e+00
   8.146109e+01  -7.510225e+01
