
 $NMID
 id='ANONYMOUS ', fmtdat='(2E16.6)'
 volume=1.0
 tramp=1.0
 $END
   4.617446e+03  -4.003738e+01
   2.720929e+03   2.786790e+03
  -7.934161e+02   2.961402e+03
  -2.227055e+03   9.660621e+02
  -1.058282e+03  -7.339224e+02
   7.378162e+02  -6.419989e+02
   9.859284e+02   4.390318e+02
   7.081668e+01   1.108365e+03
  -9.029322e+02   8.118249e+02
  -9.983782e+02  -8.785756e+01
  -4.900233e+02  -9.755286e+02
   3.170109e+02  -8.977710e+02
   6.822075e+02  -2.366037e+02
   3.979342e+02   7.888825e+02
  -2.862445e+02   8.045170e+02
  -6.342109e+02  -6.283169e+01
  -2.694507e+02  -7.614636e+02
   3.450246e+02  -6.972121e+02
   6.597735e+02  -2.724524e+01
   3.699572e+02   3.891533e+02
   5.283344e+01   4.619739e+02
  -2.503573e+02   2.828740e+02
  -2.436077e+02   3.477414e+01
   1.322176e+02  -1.042501e+02
   4.226352e+02   1.288573e+02
   2.059061e+02   4.242439e+02
  -4.358392e+02   4.662253e+02
  -8.630122e+02  -3.265941e+01
  -4.953378e+02  -5.851091e+02
   3.706026e+02  -5.522339e+02
   8.451402e+02   3.391547e+01
   3.915571e+02   4.897958e+02
  -2.899900e+02   5.566589e+02
  -5.846887e+02   1.892381e+02
  -4.293374e+02  -2.645045e+02
  -1.208362e+02  -4.941936e+02
   1.819048e+02  -2.619860e+02
   1.685119e+02   1.959045e+02
  -1.359441e+02   4.644240e+02
  -4.688126e+02   6.429746e+00
  -2.668850e+02  -6.797990e+02
   3.291900e+02  -7.139347e+02
   6.078542e+02  -3.779080e+01
   3.318260e+02   5.816651e+02
  -3.499933e+02   3.176512e+02
  -3.368110e+02  -3.987753e+02
   8.062973e+01  -5.534332e+02
   6.004290e+02  -1.673923e+02
   6.041969e+02   4.286097e+02
   2.119572e+02   5.730265e+02
  -3.598289e+02   3.497650e+02
  -7.136325e+02  -6.700248e+01
  -4.091916e+02  -4.280423e+02
   1.740889e+02  -3.924137e+02
   4.223902e+02  -3.393311e+01
   2.687981e+02   1.590485e+02
  -6.630027e+01   9.067675e+01
  -1.237214e+02  -1.441676e+02
   1.453293e+02  -1.863029e+02
   4.045926e+02   7.890914e+01
   1.450252e+02   3.612011e+02
  -1.923154e+02   2.832155e+02
  -4.147816e+02   6.578706e+01
  -1.900597e+02  -1.140410e+02
   1.707847e+01  -2.252400e+02
   2.483220e+02  -3.477138e+02
   3.087227e+02  -2.400635e+02
   3.517405e+02   1.648247e+02
   6.641540e+01   4.063218e+02
  -1.044953e+02   4.213309e+02
  -1.179388e+02   1.251482e+02
  -3.621657e+01  -4.677078e+01
  -8.543388e+01   1.192081e+02
  -1.880621e+02   1.358621e+02
  -2.801153e+02  -2.416945e+01
  -1.934175e+02  -2.716871e+02
   8.101369e+01  -2.475835e+02
   2.312332e+02  -1.043420e+01
   2.078210e+02   2.783658e+02
  -1.607691e+01   3.064261e+02
  -2.708995e+02   1.491488e+02
  -3.977432e+02  -1.739063e+02
  -1.458534e+02  -3.688646e+02
   3.501682e+01  -3.176614e+02
   2.737725e+02  -1.449604e+02
   2.267342e+02  -2.937111e+01
   1.289620e+02  -3.314959e+01
   1.969911e+02  -4.102865e+01
   3.721681e+02  -1.783714e+00
   3.644047e+02   3.246177e+02
   2.564268e+00   4.389897e+02
  -3.567437e+02   4.338680e+02
  -5.283816e+02   1.799983e+02
  -3.152584e+02  -2.926237e+01
  -5.843005e+01  -2.798089e+02
   1.319081e+02  -3.108789e+02
   9.808138e+01   1.885626e+01
  -1.077291e+02   1.049581e+02
  -2.169320e+02   8.695215e+01
  -9.411478e+01  -2.343600e+02
   1.603446e+02  -1.846586e+02
   2.303790e+02   6.760499e+01
  -1.643537e+01   1.958245e+02
  -1.576082e+02   4.459036e+01
  -9.831993e+01  -1.959228e+02
  -2.198843e+01  -3.285485e+02
   2.282258e+02  -1.956750e+02
   2.639242e+02   8.933006e+01
   2.699244e+02   2.137942e+02
   9.825734e+01   2.464785e+02
  -8.986525e+01   1.761874e+02
  -1.551126e+02   6.504712e+01
  -5.527542e+01  -4.491658e+01
   6.272485e+01   6.953256e+01
  -1.915199e+01   1.253653e+02
  -1.162667e+02   1.220791e+02
  -2.190868e+02  -3.266307e+01
  -6.444573e+01  -9.055901e+01
   4.038802e+01   1.740121e+01
   6.278427e+01   5.854595e+01
  -1.843488e+02   1.374277e+02
  -3.171393e+02   8.282501e+00
  -3.354974e+02  -1.060813e+02
  -9.223306e+01  -2.675775e+02
   1.897983e+02  -2.833069e+02
   3.304395e+02  -1.911522e+02
   1.902972e+02   1.090809e+01
  -2.323168e+00   1.297418e+02
  -9.345452e+01  -1.199114e+01
   3.707027e+01  -8.418824e+01
   1.503125e+02  -9.954913e+01
   1.702790e+02   9.616508e+01
   7.328764e+01   2.272247e+02
  -6.916288e+01   1.958322e+02
  -1.828430e+02   9.362902e+01
  -9.250935e+01  -4.847729e+01
   4.467774e+01  -3.698320e+01
   1.518262e+01   7.679578e+01
  -1.020385e+02   1.145601e+02
  -1.346137e+02   5.761651e+01
  -1.850115e+02  -9.171693e+01
  -1.418871e+01  -2.134403e+02
   1.867067e+02  -1.400418e+02
   1.917645e+02  -2.538093e+01
   8.406199e+01   6.703950e+01
  -5.300196e+01   1.361420e+02
  -1.052686e+02   8.587159e+01
  -3.198465e+01  -1.424315e+01
   2.599467e+00   2.120270e+01
   4.173995e+01   5.760712e+00
  -8.569343e+01  -3.735120e+01
  -1.714250e+02  -1.041075e+02
   8.056472e+00  -1.640187e+02
   1.642761e+02  -1.314675e+02
   2.121263e+02  -5.156075e+01
   1.618256e+02   1.690400e+02
   3.146719e+01   2.468705e+02
  -1.360558e+02   1.416987e+02
  -1.396990e+02   3.631997e+01
  -1.048992e+00  -3.895626e+01
  -3.621251e+01  -3.037990e+01
  -6.249603e+01   1.883731e+01
  -4.179029e+01   3.653020e+01
  -4.289909e+01  -4.494386e+01
   5.294764e+01  -1.366187e+02
   1.376947e+02  -7.681955e+01
   7.512689e+01   4.779542e+01
  -4.999928e+01   6.391777e+01
  -1.377395e+02   4.528282e+01
  -2.222041e+02  -9.794635e+01
  -1.066246e+02  -1.757501e+02
   1.042347e+02  -2.181625e+02
   2.790279e+02  -1.177042e+02
   2.415362e+02   1.188413e+02
   8.701229e+01   1.568483e+02
  -1.078625e+01   1.914993e+02
  -8.459216e+01   8.153005e+01
  -8.350407e+01   1.221271e+02
  -4.910284e+01   7.226892e+01
  -6.832254e+01   1.182955e+02
  -1.607777e+02  -5.730069e+01
  -9.880198e+01  -1.736090e+02
  -6.909608e+01  -2.690565e+02
   1.830964e+02  -2.381872e+02
   1.294777e+02   1.278141e+01
   1.501814e+02   1.382634e+02
   5.726002e+01   1.661409e+02
  -5.991124e+01   1.007596e+02
  -6.662511e+01   1.369254e+01
   7.417768e+01  -5.323752e+01
  -3.503259e+01  -3.021192e+01
  -4.152430e+01   3.979949e+00
  -1.288252e+02  -2.641351e+01
  -4.543823e+01  -6.904446e+01
   4.824937e+01  -9.314729e+00
   1.894295e+02  -3.063249e+01
   1.178016e+02   4.082043e+01
   2.236293e+01   5.954930e+01
  -1.575693e+02   9.634388e+01
  -1.337556e+02   2.025303e+01
  -2.418487e+00  -7.079338e+01
   4.864381e+01   1.290365e+01
   1.319442e+02  -1.695712e+01
   4.533343e+01   5.778890e+01
  -2.988252e+01   9.352883e+01
  -1.789164e+01  -2.098655e+01
  -4.574374e+01  -5.366514e+01
  -7.496594e+01  -7.673406e+01
  -1.006800e+02   3.436470e+00
  -4.233809e+01   8.177898e-01
  -6.501765e+01  -6.172583e+01
  -1.382834e+01  -1.308924e+02
   1.126114e+02  -1.706826e+02
   1.105857e+02  -4.074009e+01
   1.375887e+02   1.220871e+02
   4.997925e+01   1.428113e+02
  -9.387455e+01   4.719336e+01
  -8.200499e+01  -2.667824e+01
   6.715106e+01  -7.002741e+01
   1.326667e+02   1.186216e+01
   4.876668e+01   6.541619e+01
  -6.479218e+01   1.189963e+02
  -1.117071e+02   2.289500e+01
  -1.585005e+02  -5.860205e+01
  -2.643285e+01  -9.062797e+01
   4.299617e+01  -7.470637e+01
   5.827098e+01  -2.781037e+00
  -2.878354e+01  -2.657712e+01
  -1.532502e+02   3.146955e+01
   3.630297e+01  -1.497759e+02
   1.313074e+02  -1.433792e+02
   2.529265e+02  -7.411783e+01
   1.810447e+02   7.159569e+01
  -2.357336e+01   1.985203e+02
  -9.277320e+01   1.127693e+02
  -1.019069e+02  -1.242917e+01
  -7.510096e+01  -1.353097e+02
   4.141593e+01  -1.472019e+02
   1.274557e+01  -6.548875e+00
   8.559258e+01   3.435717e+01
   3.192347e+01  -5.364404e+01
   7.143772e+00  -2.300137e+01
  -1.489049e+01   1.343340e+01
   5.884585e+01   1.098819e+02
   2.887894e+01   1.364787e+02
  -3.248710e+01   5.049458e+01
  -1.646313e+02  -1.920700e+01
  -1.520431e+02  -8.158510e+01
  -4.424091e+01  -7.886227e+01
   8.201483e+01  -2.518577e+01
   8.255598e+01  -6.380683e+01
   4.366969e+00   4.916066e+00
  -6.365049e+01   8.775768e+00
  -1.421758e+01  -5.567415e-01
   5.053407e+01   2.955762e+01
   3.891667e+01  -1.307189e+01
  -3.335319e+01   4.090443e+01
  -1.055004e+02  -2.079123e+01
   2.266077e-01  -1.530105e+02
   1.717445e+02  -1.577240e+02
   1.415423e+02  -6.473105e+01
   1.606276e+02   2.282611e+01
   7.229463e+01   2.081441e+02
  -9.107582e+01   1.375032e+02
  -1.001791e+02   5.244405e+01
  -4.734496e+01  -1.799574e+01
   3.911308e+01  -3.638510e+01
   2.599743e+01  -4.076210e+01
  -2.012886e+01  -2.847005e+01
  -2.655182e+01  -5.941598e+01
  -1.846715e+01  -4.179572e+01
   4.771175e+01  -4.863883e+01
   7.816358e+01   1.888958e+01
   7.616752e+01   1.318793e+02
   2.336407e+01   1.508938e+02
  -7.096593e+01   6.964833e+01
  -7.594597e+01  -8.969432e+01
  -3.723861e+01  -1.073181e+02
   8.261755e+01  -5.212346e+01
   4.334080e+01   1.415849e+01
   5.186331e+01   5.272378e+01
  -7.394117e+01   4.222885e+01
  -5.598878e+01   4.452147e+01
   2.823084e+01  -1.436859e+01
   1.955050e+01  -9.122764e+00
   7.420060e+01   7.012034e+00
  -8.580807e+01   2.783292e+01
  -1.044455e+02   6.921144e+01
  -7.246306e+01   2.766264e+01
   5.101757e+01  -9.141250e+01
   3.840955e+01  -3.612099e+01
   8.035449e+00   1.488785e+01
   5.353416e+00   9.215615e+01
  -7.960812e+00   4.513834e+01
  -3.700058e+01  -1.241340e+01
  -3.490603e+01  -8.887125e+01
  -8.981887e+00  -4.981129e+01
   2.653061e+01  -6.246721e+01
   1.735956e+00   8.457992e+01
   4.698194e+00   3.762709e+01
   1.841246e+01   2.853806e+01
   1.060869e+01  -1.600967e+01
   4.010217e+01   6.535352e+00
  -2.195544e+01   4.432264e+01
  -1.317818e+01  -3.210017e+01
  -8.765527e+01  -6.500118e+01
  -2.074809e+01  -2.345270e+01
   6.885029e+01  -5.084546e+01
   6.749479e+01   7.251428e+01
  -2.554480e+00   1.315111e+02
  -5.243349e+01   2.569004e+01
  -8.627175e+01  -1.222556e+01
  -3.470730e+01  -8.348744e+01
   1.620313e+01  -1.078790e+01
   7.353653e+01  -2.793290e+01
   1.676128e+01   8.765074e+00
   4.327699e+00  -6.250237e+01
  -2.685438e+01  -1.528418e+01
   5.283989e+01   3.814871e+01
   6.998026e+01   1.067402e+01
