
 $NMID
 id='ANONYMOUS ', fmtdat='(2E16.6)'
 volume=1.0
 tramp=1.0
 $END
   4.418379e+03  -3.609660e+01
   2.612242e+03   2.778472e+03
  -8.088232e+02   2.876482e+03
  -2.198221e+03   8.686306e+02
  -9.595310e+02  -7.393862e+02
   6.795845e+02  -6.102642e+02
   9.693494e+02   4.266154e+02
   5.958897e+01   1.166287e+03
  -8.305274e+02   8.096326e+02
  -9.653938e+02  -1.567511e+02
  -4.909385e+02  -9.148598e+02
   2.900597e+02  -9.003713e+02
   7.488310e+02  -7.584042e+01
   3.896839e+02   7.536309e+02
  -3.182581e+02   7.717394e+02
  -6.772277e+02  -2.922565e+01
  -2.254699e+02  -6.400948e+02
   3.227818e+02  -6.015691e+02
   6.314413e+02  -1.253578e+02
   3.285884e+02   3.469535e+02
   3.268024e+01   3.916257e+02
  -2.247763e+02   2.757410e+02
  -2.685777e+02   5.020422e+01
   7.040746e+01  -9.329879e+01
   3.846435e+02   3.788619e+01
   2.285915e+02   3.925597e+02
  -4.252445e+02   4.474644e+02
  -8.220772e+02  -2.910864e+01
  -4.269495e+02  -5.734930e+02
   3.945529e+02  -5.338687e+02
   7.730799e+02   2.513203e+01
   3.038239e+02   4.593431e+02
  -2.418004e+02   5.405973e+02
  -5.980787e+02   1.860817e+02
  -4.332649e+02  -1.913396e+02
  -3.329957e+01  -4.854987e+02
   3.093120e+02  -3.068649e+02
   1.887037e+02   2.097367e+02
  -1.537342e+02   4.470968e+02
  -4.479930e+02   3.119238e+01
  -2.478243e+02  -6.826090e+02
   2.639388e+02  -7.234492e+02
   6.420652e+02  -6.464663e+01
   2.620963e+02   5.262419e+02
  -3.051959e+02   3.489184e+02
  -3.997235e+02  -3.523379e+02
   5.098950e+01  -6.311532e+02
   5.375834e+02  -1.213352e+02
   6.273928e+02   4.550674e+02
   1.096855e+02   5.474268e+02
  -3.772274e+02   3.660721e+02
  -5.909495e+02  -1.238378e+02
  -3.459020e+02  -3.972411e+02
   1.011767e+02  -3.955753e+02
   4.264638e+02   1.301480e+01
   2.606119e+02   2.073321e+02
  -1.659843e+02   1.900659e+02
  -1.734769e+02  -1.546387e+02
   1.760500e+02  -1.828757e+02
   3.265026e+02   1.696028e+02
   1.669571e+02   3.226727e+02
  -2.051695e+02   2.583558e+02
  -3.973527e+02   4.513707e+01
  -2.161793e+02  -8.745247e+01
   2.796983e+01  -2.136193e+02
   2.003030e+02  -3.282345e+02
   3.644751e+02  -1.764859e+02
   3.048601e+02   1.447130e+02
   1.069262e+02   3.303529e+02
  -1.738026e+02   3.413970e+02
  -9.759068e+01   1.482998e+02
   2.200664e+01  -4.492084e+01
  -5.386126e+01   1.203396e+02
  -2.149642e+02   1.731645e+02
  -2.218288e+02  -3.475920e+01
  -1.511789e+02  -2.760148e+02
   5.936336e+01  -2.266955e+02
   2.603130e+02  -1.984672e+00
   1.624967e+02   1.984488e+02
  -1.924488e+01   3.211963e+02
  -2.510386e+02   1.007883e+02
  -3.613224e+02  -1.729661e+02
  -1.444745e+02  -3.732511e+02
   1.200900e+02  -3.207905e+02
   2.137413e+02  -9.873308e+01
   1.565085e+02   5.775841e+01
   1.335723e+02  -2.089351e+01
   2.003830e+02  -6.002644e+01
   3.869519e+02   6.443125e+01
   3.467831e+02   2.476942e+02
   6.550249e+01   4.315182e+02
  -3.738129e+02   4.603296e+02
  -4.989974e+02   1.917500e+02
  -3.137678e+02  -1.198304e+02
  -1.468794e+01  -2.779918e+02
   6.950341e+01  -2.347883e+02
   8.052502e+01   1.155943e+01
  -7.664887e+01   1.214572e+02
  -2.020764e+02   1.469665e+01
  -6.474181e+01  -1.947571e+02
   1.300460e+02  -1.398913e+02
   1.568839e+02   7.618331e+01
   5.020499e+00   2.042226e+02
  -1.846293e+02   3.866759e+01
  -1.551237e+02  -2.345769e+02
   3.144170e+00  -3.371779e+02
   2.648639e+02  -2.159051e+02
   3.844659e+02   9.560246e+01
   2.406239e+02   2.645013e+02
   1.161968e+02   2.727435e+02
  -8.854217e+01   1.473550e+02
  -2.123195e+02  -9.677595e+00
  -6.690784e+01  -2.144042e+01
   4.813301e+01   4.925849e+01
   4.047461e+01   1.286666e+02
  -1.470124e+02   1.028228e+02
  -2.129926e+02  -4.916734e+01
  -5.332774e+01  -4.684747e+01
   1.066223e+02   1.161977e+00
   6.823578e+01   6.670257e+01
  -1.654356e+02   1.255135e+02
  -2.599086e+02  -6.471207e+00
  -2.471034e+02  -1.494665e+02
  -1.129489e+02  -2.645891e+02
   1.922048e+02  -2.994488e+02
   2.705189e+02  -1.260446e+02
   1.596339e+02   8.662715e+01
  -3.306070e+01   8.830694e+01
  -7.723700e+01   2.539645e+01
   3.369505e+01  -1.330357e+02
   2.457760e+02  -8.585363e+01
   2.517904e+02   4.583932e+01
   6.992028e+01   1.940359e+02
   5.785438e+00   1.946595e+02
  -1.269176e+02   6.878805e+01
  -1.070039e+02  -4.970669e+01
   4.944738e+01  -4.861298e+01
   4.871993e+01   7.870592e+01
  -4.939442e+01   1.222297e+02
  -1.502859e+02   1.095286e+01
  -1.477361e+02  -1.481506e+02
  -1.260012e+01  -1.816978e+02
   1.287754e+02  -1.753287e+02
   2.075861e+02  -1.779127e+01
   1.021435e+02   9.483336e+01
   6.081410e+00   1.358704e+02
  -5.611734e+01   8.482888e+00
   1.589860e+01  -4.965636e+01
  -9.380602e+00   3.544363e+00
   2.805367e+01   4.243020e+01
  -7.696574e+01  -2.725916e+01
  -1.087845e+02  -4.127278e+01
   2.145643e+01  -1.636310e+02
   1.409944e+02  -1.116699e+02
   2.206725e+02  -4.217774e+01
   1.700298e+02   1.674347e+02
   6.858297e+01   1.923467e+02
  -1.255980e+02   1.762253e+02
  -1.483661e+02   2.425855e+01
  -7.618130e+01  -9.129350e+01
  -2.067142e+01  -4.627771e+01
  -7.258409e+01   2.787276e+01
  -1.367589e+02  -9.736061e+00
  -2.858456e+00  -9.926854e+01
   4.286213e+01  -9.585225e+01
   1.097527e+02  -3.885566e+01
   1.124617e+02   4.241015e+01
   2.542378e+00   1.503455e+02
  -8.818981e+01   7.389209e+01
  -1.440117e+02  -3.192929e+01
  -1.411761e+02  -1.989675e+02
   8.933967e+01  -2.161159e+02
   3.042475e+02  -8.075365e+01
   2.341816e+02   1.418565e+02
   1.491139e+02   1.750245e+02
  -7.403709e+01   1.509528e+02
  -7.953181e+01   7.881341e+01
  -3.873884e+01   6.710520e+01
  -7.342602e+01   1.747699e+01
  -9.788889e+01   5.394737e+01
  -1.362455e+02  -7.273955e+01
  -5.987945e+01  -1.586748e+02
  -3.460580e+01  -1.684637e+02
   9.016091e+01  -1.236195e+02
   2.418951e+02   1.301505e-01
   1.315686e+02   7.872934e+01
   6.613995e+01   1.977607e+02
  -9.544286e+01   2.080445e+00
  -6.801676e+01  -3.557011e+01
   2.691493e+01  -6.130871e+01
   2.547899e+01  -4.125505e+01
  -5.368175e+01  -5.241465e+01
  -3.887174e+01  -9.666338e+00
  -8.051853e+01   3.408417e-01
   1.304538e+01   4.805311e+00
   1.691979e+02   2.590465e+01
   1.298087e+02   1.421590e+01
   2.131297e+01   8.334238e+01
  -1.497109e+02   7.800599e+01
  -1.672863e+02   9.581416e+00
  -2.060885e+01   3.425214e+01
   6.667465e+00  -3.921838e+01
   7.124467e+01   1.912070e+01
  -3.047092e+00   6.862208e+01
  -1.526366e+01   4.330015e+01
  -3.552325e+01   2.389215e+01
  -4.669036e+01  -3.604716e+01
  -6.845082e+01  -1.817053e+01
  -4.313047e+01   2.947342e+01
  -3.196381e+01   7.087273e+00
  -3.783714e+00  -6.173709e+01
   1.654904e+01  -2.026898e+02
   7.869573e+01  -1.481909e+02
   1.328536e+02  -3.110760e+01
   1.166247e+02   8.958774e+01
   2.741852e+01   9.913621e+01
  -8.549394e+01   3.878331e+01
  -5.946309e+01  -3.605463e+01
   7.014529e+01   8.932795e+00
   1.169753e+02   3.257745e+01
   8.600791e+01   7.455668e+01
  -4.776806e+01   8.060145e+01
  -1.902965e+02   9.044466e+01
  -1.893341e+02  -4.737251e+01
  -1.650461e+02  -7.034235e+01
   2.522049e+01  -5.546540e+01
   7.208202e+01  -6.866789e+01
  -4.210883e+01   1.893587e+01
  -5.546488e+01  -2.448906e+01
  -7.168801e+01  -1.127741e+02
   1.335655e+02  -1.589090e+02
   1.533770e+02  -8.715773e+01
   1.280148e+02   8.967515e+01
   1.265785e+01   1.546545e+02
  -5.123027e+01   1.352130e+02
  -1.190428e+02   1.730929e+01
  -1.908027e+01  -1.415764e+02
  -2.889055e+01  -1.586041e+02
   1.215238e+01  -4.697433e+01
   7.663605e+01   4.116064e+01
   7.189714e+01   4.334012e+01
  -2.744584e+01   9.173583e-01
   7.262804e+00   4.222689e+01
   2.353140e+01   1.243601e+02
   5.736832e+01   8.666885e+01
  -6.097059e+01   9.157104e+01
  -1.202861e+02  -1.727010e+01
  -1.416176e+02  -3.702160e+01
  -3.900409e+01  -6.898469e+01
   6.678028e+01  -7.565407e+01
   6.661576e+01  -2.841397e+00
   1.963681e+01  -1.342591e+01
  -1.049400e+02   5.552986e+01
  -7.318698e+00   6.146224e+01
   6.684488e+01   5.837518e+01
  -1.502231e+01   6.735275e+00
  -5.776566e+01   3.268694e+01
  -5.124996e+01  -5.581947e+01
   1.448069e+01  -4.439730e+01
   1.209923e+02  -1.375370e+02
   1.637785e+02  -7.188605e+01
   1.095043e+02   1.085691e+02
   3.327129e+01   2.045677e+02
  -4.704340e+01   1.764922e+02
  -9.295401e+01   7.994972e+01
  -5.555664e+01  -6.472877e+01
  -2.479236e+01  -5.119119e+00
  -4.027471e+01   1.634785e+01
   3.556650e+01  -5.848532e-01
  -6.916284e+01  -4.135234e+01
  -1.134454e+01  -7.041810e+01
   6.330236e+01  -8.418110e+01
   1.151847e+02   6.853830e+01
   3.373437e+01   8.069504e+01
   1.750453e+01   1.080717e+02
  -8.936963e+01   5.632115e+01
  -1.139984e+02  -6.819019e+01
  -4.696420e+01  -1.426486e+02
   8.780219e+01  -7.698977e+01
   1.243243e+02  -1.859414e+01
   8.888189e+01   1.033382e+02
  -4.283446e+00  -9.107952e+00
  -5.547035e+01  -4.429173e+00
  -2.388635e-02  -3.737633e+01
   8.805989e+01   4.682625e+01
   4.946500e+01   5.659809e+00
  -1.277175e+02   3.783305e+01
  -1.224375e+02   6.113846e+01
  -2.771506e+01   1.809732e+01
  -7.279580e+01  -6.545085e+01
  -5.586479e+00  -7.655673e+01
   2.348796e+01  -4.610325e+00
   7.967266e+00   8.165546e+01
  -5.736887e+01   1.161946e+02
  -5.434721e+01   2.302095e+01
  -3.097676e+01  -7.444205e+01
   9.216465e+00  -5.127907e+01
   8.419765e+00   2.151582e+01
  -3.866850e+01   3.136522e+01
  -1.022015e+01   7.571896e+00
   2.050382e+00   2.790606e+01
  -2.454388e+01  -1.211348e+01
  -3.090162e+01   7.041725e+01
  -1.633972e+01   1.305104e+01
  -1.534001e+01   1.469886e+01
   2.119234e+01   2.668210e+00
   4.178079e+01  -9.846205e+01
   4.722286e+01  -6.020707e+00
   3.698501e+01   5.464319e+01
  -1.169866e+00  -2.941623e+00
  -5.719153e+01   1.116009e+01
  -3.572452e+01  -4.953439e+01
  -4.401130e+01  -4.053562e+01
   1.034130e+02  -3.319339e+01
   4.556614e+01  -3.868983e+01
   6.878883e+01  -2.688547e+01
  -2.662267e+01  -6.019028e+00
  -4.802770e-01  -3.255852e+00
   5.287489e+01  -4.154959e+01
   1.052702e+02   4.745019e+00
