
 $NMID
 id='ANONYMOUS ', fmtdat='(2E16.6)'
 volume=1.0
 tramp=1.0
 $END
   3.742913e+03  -2.552569e+01
   2.338351e+03   2.106130e+03
  -3.985335e+02   2.404770e+03
  -1.685850e+03   1.023471e+03
  -9.969079e+02  -2.408112e+02
   3.327775e+02  -4.942922e+02
   7.029585e+02   2.358863e+02
   3.528915e+01   7.937240e+02
  -6.821365e+02   6.779215e+02
  -8.224644e+02   4.118747e+01
  -4.032358e+02  -7.651627e+02
   1.616713e+02  -7.479236e+02
   5.228800e+02  -1.798815e+02
   3.765361e+02   5.578318e+02
  -2.012761e+02   6.640148e+02
  -5.159623e+02   5.926392e+01
  -2.692687e+02  -5.670421e+02
   2.488762e+02  -6.258619e+02
   5.647982e+02  -2.189924e+02
   4.190279e+02   3.163331e+02
   1.306435e+02   3.774822e+02
  -1.865748e+02   2.014780e+02
  -1.190256e+02   4.240215e+01
   1.239405e+02  -1.940556e+01
   3.616339e+02   1.643591e+02
   1.267919e+02   3.888758e+02
  -5.034823e+02   3.492593e+02
  -7.034398e+02  -8.022730e+01
  -3.035596e+02  -4.641045e+02
   2.854769e+02  -3.490818e+02
   6.607082e+02   7.324879e+01
   3.108545e+02   3.925883e+02
  -2.811179e+02   4.591508e+02
  -4.699745e+02   1.944904e+02
  -3.587546e+02  -1.836914e+02
  -1.293846e+02  -4.166500e+02
   9.001921e+01  -2.758994e+02
   4.409681e+01   1.780466e+02
  -1.562584e+02   2.136993e+02
  -3.156490e+02  -3.190028e+01
  -1.532578e+02  -4.988301e+02
   2.386318e+02  -5.958373e+02
   4.711969e+02  -4.297765e+01
   1.504400e+02   4.851799e+02
  -2.023303e+02   2.527980e+02
  -3.434841e+02  -3.335772e+02
   2.695321e+01  -4.889243e+02
   4.212630e+02  -1.180820e+02
   5.815678e+02   4.280721e+02
   1.374504e+02   5.587590e+02
  -3.246579e+02   2.883263e+02
  -5.353738e+02  -8.645909e+01
  -3.031198e+02  -3.307423e+02
   1.358161e+02  -2.627209e+02
   3.426578e+02  -1.120065e+02
   1.917410e+02   1.579485e+02
  -6.396615e+01   1.324036e+02
  -1.228948e+02  -8.526391e+01
   1.423558e+02  -1.361156e+02
   3.218218e+02   6.546113e+01
   1.789528e+02   2.343035e+02
  -1.741503e+02   2.508662e+02
  -3.607297e+02   9.121526e+01
  -2.554927e+02  -1.168487e+02
   1.095018e+02  -2.420315e+02
   2.209451e+02  -2.947353e+02
   3.144358e+02  -2.160313e+02
   3.043318e+02   1.366006e+02
   1.429624e+02   3.883197e+02
  -6.967807e+01   3.311756e+02
  -9.373573e+01   1.273931e+02
  -2.295914e+00  -2.308069e+00
  -1.226617e+02   1.676080e+02
  -1.878318e+02   7.394587e+01
  -2.818061e+02  -5.367993e+01
  -1.146794e+02  -3.077138e+02
   5.841260e+01  -2.773403e+02
   1.760153e+02  -5.020385e+01
   1.548347e+02   2.710150e+02
   2.292908e+01   2.978837e+02
  -2.284101e+02   6.247234e+01
  -2.673632e+02  -1.694830e+02
  -1.581463e+02  -3.031891e+02
   9.928344e+01  -3.062992e+02
   1.758320e+02  -1.205234e+02
   1.312107e+02  -2.922063e+01
   1.013309e+02  -9.814314e+01
   2.317808e+02  -4.518539e+01
   3.449973e+02   9.922097e+01
   3.783891e+02   2.409851e+02
   9.122341e+00   4.259392e+02
  -3.051630e+02   4.106185e+02
  -4.477188e+02   1.838469e+02
  -2.891229e+02  -1.169791e+02
  -3.870331e+01  -2.628279e+02
   1.268786e+02  -2.292463e+02
   6.177830e+01  -5.344747e+01
  -6.526378e+01   9.669600e+01
  -1.632245e+02  -5.477710e+00
  -4.737843e+01  -1.183306e+02
   1.057311e+02  -1.434602e+02
   1.585708e+02   1.043302e+02
   2.612363e+01   1.600128e+02
  -1.232514e+02   4.065478e+01
  -1.429347e+02  -2.353886e+02
   1.270780e+01  -3.146644e+02
   2.396426e+02  -1.642629e+02
   3.006027e+02   3.667458e+01
   2.544426e+02   3.021690e+02
   1.123290e+02   2.442604e+02
  -9.720848e+01   2.180351e+02
  -1.915175e+02   1.694465e+01
  -5.907360e+01   2.126070e+01
   1.073661e+02   3.766237e+01
   1.744644e+01   1.130299e+02
  -9.661584e+01   8.301351e+01
  -1.690217e+02  -4.000238e+01
  -1.855221e+01  -3.698351e+01
   4.573131e+01  -1.907937e+00
   9.077833e+01   1.251728e+02
  -1.100192e+02   5.972733e+01
  -2.981126e+02   1.027965e+01
  -2.347335e+02  -1.430489e+02
  -4.096273e+01  -2.627452e+02
   1.809287e+02  -2.568228e+02
   2.732415e+02  -1.052581e+02
   1.367006e+02   3.177384e+01
  -5.065866e+01   9.673276e+01
  -8.477698e+01   7.224201e+00
   2.243022e+01  -1.011557e+02
   2.111054e+02  -4.577395e+01
   2.240459e+02   1.364396e+02
   8.670539e+01   2.322327e+02
  -1.001958e+02   1.528042e+02
  -1.687964e+02   6.326119e+01
  -4.255725e+01  -7.360088e+01
   6.792934e+01  -6.246310e+01
   5.096042e+01   1.014405e+02
  -7.134578e+01   7.652817e+01
  -2.162971e+02   4.201649e+01
  -1.444551e+02  -9.095873e+01
  -5.254411e+01  -2.210611e+02
   1.505484e+02  -1.409733e+02
   1.723621e+02   8.342364e+00
   5.308868e+01   1.089615e+02
  -9.669226e+01   8.354862e+01
  -6.782632e+01   9.757264e+01
   3.640780e+01   1.627443e+01
   1.310497e+01  -5.551257e+01
  -2.278765e+01   2.433710e+01
   2.453579e+01  -4.548696e+01
  -1.464462e+02  -5.122498e+01
  -7.253853e-01  -1.566979e+02
   1.333898e+02  -1.128973e+02
   1.925423e+02  -3.747182e+01
   1.550033e+02   1.595183e+02
   1.872798e+01   2.232347e+02
  -1.432884e+02   1.524390e+02
  -9.257302e+01   2.443974e+01
  -1.066643e+02  -8.594955e+01
   8.029840e+00  -1.385448e+01
  -4.853106e+01  -4.309654e+01
  -9.517709e+01  -5.663889e+01
  -4.230081e+01  -6.577072e+01
   5.832805e+01  -5.441657e+01
   8.326386e+01  -8.781834e+00
   1.325091e+02   7.819074e+01
  -3.189020e+01   1.062681e+02
  -1.837699e+02   2.052576e+01
  -2.151032e+02  -9.519229e+01
  -1.019711e+02  -2.633430e+02
   1.039528e+02  -1.812352e+02
   2.979156e+02  -4.910291e+01
   2.354273e+02   1.012471e+02
   7.132368e+01   1.724715e+02
  -1.392784e+01   1.470061e+02
  -1.377299e+02   5.010769e+01
  -9.320388e+01   1.029389e+02
  -7.149082e+01   6.563309e+01
  -4.632572e+01   3.536508e+01
  -1.494824e+02   4.873068e+01
  -1.073406e+02  -8.458696e+01
  -5.929933e+00  -1.940227e+02
   6.453782e+01  -1.406251e+02
   1.744802e+02  -3.004163e+01
   1.058186e+02   1.156118e+02
   3.370953e+01   1.690708e+02
  -9.040641e+01   1.167795e+02
  -6.823445e+01  -1.451968e+01
   4.296821e+01  -7.009346e+01
  -2.479502e+01  -2.489805e+00
  -6.518935e+01   3.625225e+01
  -8.248661e+01   1.556742e+01
  -2.478061e+01  -1.025141e+01
   7.430122e+01   2.279655e+01
   1.366955e+02  -1.691660e+01
   1.474010e+02   1.570543e+01
   8.073440e+01   5.377421e+01
  -1.699432e+02   4.699967e+01
  -1.226883e+02   1.828422e+01
  -6.938543e+01  -2.965594e+01
  -8.945109e+00  -6.925267e+00
   4.663247e+01   1.016428e+02
  -3.840772e+01   7.483531e+01
  -1.085180e+02   4.125594e+01
  -8.944621e+01   3.714546e+01
  -1.049651e+02  -1.138621e+01
  -6.424013e+01  -3.494894e+00
   1.400778e+00   2.112626e+01
  -3.120920e+01   2.735841e+01
  -1.498130e+01  -7.523168e+01
   3.859096e+01  -1.397048e+02
   1.285944e+02  -1.548718e+02
   1.504704e+02  -6.072629e+00
   1.489153e+02   1.123196e+02
   5.603058e+00   1.115672e+02
  -7.318114e+01   8.865304e+01
  -4.017183e+01  -2.586845e+00
   5.503873e+01  -7.461569e+00
   9.123647e+01   7.548894e+01
   8.328431e+01   1.171328e+02
  -4.691406e+01   1.028260e+02
  -2.031295e+02   6.163812e+01
  -1.694438e+02  -2.862004e+01
  -1.915229e+01  -8.419523e+01
   8.024459e+01  -7.594481e+01
   6.404338e+01   1.161505e+01
  -1.881054e+01   2.396222e+01
  -7.966100e+01  -4.077804e+01
  -4.487074e+01  -7.316605e+01
   7.335243e+01  -2.128262e+02
   1.524680e+02  -8.394731e+01
   1.302148e+02   1.228557e+02
   1.079683e+01   2.375327e+02
  -2.125772e+01   1.203406e+02
  -6.526261e+01  -4.575914e+01
  -9.467431e+01  -1.415573e+02
  -2.551755e+01  -1.460105e+02
   3.836616e+01  -2.818968e+00
   7.051131e+01   1.402055e+01
   6.394241e+01  -3.400432e+01
   1.532078e+01  -2.287789e+01
   2.123706e+01  -3.187790e+00
   4.213851e+01   8.947179e+01
   3.924386e+01   1.320626e+02
  -5.118302e+01   1.803941e+01
  -7.795458e+01  -4.421375e+01
  -1.383091e+02  -1.428400e+02
  -2.642889e+01  -7.666062e+01
   2.883665e+01  -3.504544e+01
   6.472526e+01   7.233514e+00
   5.127271e+01  -3.622180e+01
  -3.003459e+01   6.736616e+01
   2.521732e+01   3.504866e+00
  -6.226593e+00   3.880143e+01
   3.209501e+01  -1.908581e+01
  -3.370149e+01   5.442106e+01
  -8.450479e+01   3.893860e+01
   1.732274e+01  -3.010310e+01
   9.929282e+01  -1.053467e+02
   9.707552e+01  -7.864583e+01
   1.672546e+02   4.340993e+01
   4.017742e+01   1.559185e+02
  -6.739495e+01   1.813896e+02
  -1.366872e+02  -5.363652e+00
  -1.113253e+02  -4.661599e+01
  -5.268930e+01  -4.619446e+01
   3.213783e+01  -1.535177e+01
  -7.855973e+00   1.365856e+01
  -1.658280e+01  -6.674669e+01
  -6.956091e+01  -7.449497e+01
   7.249736e+01  -7.513722e+01
   8.835560e+01   2.415253e+01
   8.938834e+01   1.103009e+02
   2.215375e+01   7.514845e+01
  -5.893183e+01   2.709934e+01
  -1.416817e+02  -5.251508e+01
   5.415830e+00  -1.386817e+02
   4.939655e+01  -1.961280e+01
   7.679827e+01   1.248178e+01
   8.095345e+01   2.144365e+01
  -4.875190e+01   8.934886e+01
   1.266417e+01   4.639988e+01
   5.171420e+01  -5.677881e+00
   2.745791e+01  -2.580152e+00
   1.783761e+01   5.688630e+01
  -7.066176e+01   1.125729e+02
  -9.456027e+01   6.926287e+01
  -8.314286e+01  -1.576119e+01
   2.469422e+01  -7.990510e+01
   8.358612e+01  -4.400779e+01
   5.158374e+01  -7.779629e+01
   1.368151e+00   2.780325e+01
  -5.608192e+00   6.161110e+01
  -6.582613e+01  -4.350941e+01
  -6.059152e+01  -7.504120e+01
  -3.680510e+01  -3.463852e+01
  -5.637475e+00   6.913364e+00
   4.485277e+01  -1.232476e+01
   1.481519e+01  -3.729832e+01
   8.690644e+00  -7.133983e+01
  -3.366105e+01  -6.192821e+01
  -2.886866e+01   6.735125e+01
  -3.583854e+01  -5.419029e+00
  -7.090087e+01   1.027857e+01
  -3.638594e+00  -3.708480e+01
   1.812412e+01  -1.096443e+02
   1.631158e+01  -3.690328e+01
   6.914996e+01   4.147051e+01
  -1.250738e+01   1.368995e+01
  -5.981913e+01   4.006149e+01
  -9.662906e+01   1.258939e+01
  -8.890431e+01  -1.998138e+01
  -3.908117e+00  -5.064368e+01
   5.256998e+01   2.176786e+00
   2.442356e+01  -1.705027e+01
  -1.071850e+02   2.296226e+01
  -4.200857e+01  -3.192021e+01
   2.782290e+01  -9.579072e+01
   8.736759e+01  -4.933276e+01
