
 $NMID
 id='ANONYMOUS ', fmtdat='(2E16.6)'
 volume=1.0
 tramp=1.0
 $END
   4.582546e+03  -1.050487e+02
   2.622532e+03   2.724785e+03
  -8.316945e+02   2.855356e+03
  -2.202536e+03   8.941182e+02
  -9.743996e+02  -7.586014e+02
   7.389783e+02  -5.795845e+02
   9.502904e+02   4.970686e+02
  -9.291737e+00   1.153393e+03
  -8.920229e+02   7.713918e+02
  -1.021807e+03  -1.246676e+02
  -5.097871e+02  -9.110544e+02
   2.316432e+02  -8.849697e+02
   7.230921e+02  -1.011103e+02
   3.691657e+02   7.764654e+02
  -2.860561e+02   8.068731e+02
  -6.216571e+02  -5.624105e+01
  -2.630634e+02  -7.356809e+02
   3.642308e+02  -6.030122e+02
   5.836796e+02  -6.552460e+01
   3.820400e+02   3.888780e+02
   7.029570e+01   4.007419e+02
  -2.208383e+02   2.778503e+02
  -1.469504e+02  -1.128303e+01
   8.671950e+01  -9.213581e+01
   3.935735e+02   6.575181e+01
   2.547436e+02   4.516134e+02
  -4.536497e+02   4.963499e+02
  -8.860030e+02  -9.822795e+01
  -4.517678e+02  -6.266297e+02
   4.059169e+02  -5.020083e+02
   7.377967e+02   3.114823e+01
   4.295067e+02   5.177449e+02
  -2.738725e+02   4.920970e+02
  -6.021529e+02   2.270591e+02
  -4.170821e+02  -2.088358e+02
  -8.780034e+01  -4.826250e+02
   2.575101e+02  -3.845933e+02
   1.500396e+02   2.965067e+02
  -2.037429e+02   5.020197e+02
  -4.692998e+02  -5.863032e+01
  -2.871131e+02  -6.659481e+02
   2.626114e+02  -7.118601e+02
   7.089348e+02   4.131740e+01
   2.424042e+02   5.762732e+02
  -3.165590e+02   3.807657e+02
  -4.267658e+02  -3.250087e+02
   2.480431e+01  -5.693082e+02
   5.933222e+02  -1.438668e+02
   6.375428e+02   4.715959e+02
   1.673818e+02   6.283718e+02
  -4.199447e+02   3.325178e+02
  -6.450750e+02  -6.646878e+01
  -3.757094e+02  -3.924684e+02
   2.026894e+02  -3.854506e+02
   4.690749e+02  -5.368937e+01
   2.626687e+02   1.743522e+02
  -1.517755e+02   1.218525e+02
  -7.666529e+01  -1.533116e+02
   1.957723e+02  -1.999136e+02
   3.563457e+02   7.080853e+01
   1.271557e+02   2.713244e+02
  -2.098483e+02   2.929807e+02
  -3.321649e+02   2.880178e+01
  -2.240181e+02  -4.237455e+01
  -1.434754e+01  -1.895119e+02
   1.894942e+02  -3.452070e+02
   3.002496e+02  -2.726420e+02
   3.209814e+02   1.637003e+02
  -1.054654e+01   4.859991e+02
  -1.707555e+02   4.071482e+02
  -1.383227e+02   1.099901e+02
  -4.032075e+01  -7.632233e+01
  -4.821148e+01   9.170988e+01
  -1.813308e+02   1.687537e+02
  -3.168738e+02  -5.082802e+01
  -1.975708e+02  -2.792176e+02
   6.178387e+01  -2.627740e+02
   1.795901e+02  -1.400956e+01
   2.123433e+02   2.154059e+02
  -1.629713e+01   2.695520e+02
  -2.610395e+02   7.645948e+01
  -3.226276e+02  -2.004865e+02
  -2.108306e+02  -3.507907e+02
   1.238464e+02  -2.964981e+02
   2.518336e+02  -8.073403e+01
   1.472164e+02  -7.265721e+00
   1.533597e+01  -4.702085e+00
   2.474578e+02  -6.844313e+01
   3.697364e+02   4.128120e+01
   4.057522e+02   2.629753e+02
   1.159093e+01   4.519962e+02
  -3.426580e+02   4.230063e+02
  -5.458279e+02   2.114655e+02
  -3.097302e+02  -1.211254e+02
  -8.507263e+01  -3.355585e+02
   1.349746e+02  -2.475721e+02
   1.273543e+02  -2.886539e+01
  -1.544682e+02   1.707128e+02
  -2.031301e+02   1.572728e+01
  -1.312824e+02  -1.966792e+02
   1.927834e+02  -1.773722e+02
   1.776517e+02   1.013911e+02
   2.278965e+01   1.457738e+02
  -1.557788e+02   7.878619e+01
  -1.954980e+02  -2.719718e+02
  -1.884734e+01  -3.885266e+02
   1.993549e+02  -2.247378e+02
   3.115014e+02   7.444152e+01
   2.642299e+02   2.521917e+02
   1.068742e+02   2.585696e+02
  -1.113681e+02   8.257583e+01
  -1.147834e+02  -6.970973e+00
  -6.915805e+01  -2.112486e+01
   3.671159e+01  -4.627658e+00
   1.931458e+01   7.831024e+01
  -1.184738e+02   5.860231e+01
  -2.226392e+02  -6.141240e+00
  -6.526710e+01  -1.225253e+02
   2.803011e+01  -5.495367e+01
   3.785408e+01   9.970181e+01
  -1.363349e+02   1.135050e+02
  -2.749363e+02   1.174788e+01
  -2.848686e+02  -1.147886e+02
  -1.069265e+02  -2.949489e+02
   1.559203e+02  -3.151703e+02
   3.452950e+02  -1.988549e+02
   2.058199e+02   6.869393e+01
  -3.668926e+01   1.102416e+02
  -1.034282e+02   1.748632e+01
   8.587229e+01  -6.780802e+01
   2.155012e+02  -8.622652e+01
   1.615690e+02   6.963764e+01
   7.673820e+01   1.717908e+02
  -8.423081e+01   9.327263e+01
  -1.435972e+02   5.762435e+01
  -7.545365e+01  -2.806144e+01
  -6.318097e+00  -6.069551e+01
   3.727984e+01   7.938969e+01
  -8.519711e+01   1.260093e+02
  -2.479464e+02   3.669487e+01
  -1.814051e+02  -1.306337e+02
  -6.270650e+00  -2.468698e+02
   2.361606e+02  -1.400325e+02
   2.328939e+02   1.974102e+01
   2.656423e+01   1.299083e+02
  -1.007201e+02   8.402431e+01
  -1.888953e+01   7.736938e+01
  -5.243155e+01  -5.158354e+01
  -1.652764e+01  -1.574819e+00
  -5.639594e+01   1.443119e+01
  -1.133782e+02   6.123458e+00
  -7.397253e+01  -3.179047e+01
  -1.463107e+01  -1.218856e+02
   1.133760e+02  -1.060211e+02
   1.984466e+02  -5.452926e+01
   2.205043e+02   1.609293e+02
   1.132396e+02   2.321447e+02
  -8.167181e+01   1.999939e+02
  -1.232724e+02  -9.256936e+00
  -1.217114e+01  -1.346758e+01
  -1.249397e+00  -5.189159e+01
  -1.228452e+01   1.284392e+01
  -7.633385e+01   1.596349e+00
  -3.138965e+01  -6.938291e+01
  -1.971801e+01  -4.914904e+01
   1.280671e+02  -2.121562e+01
   1.177930e+02   4.284167e+01
   2.866713e+01   1.192051e+02
  -1.629827e+02   3.666049e+01
  -2.472298e+02  -5.846697e+01
  -8.506167e+01  -1.750602e+02
   1.035428e+02  -1.799251e+02
   2.705363e+02  -1.664431e+02
   2.818312e+02   1.251432e+02
   4.250405e+01   1.890664e+02
  -4.939959e+01   1.488549e+02
  -5.124388e+01   9.840401e+01
  -7.919583e+01   2.999025e+01
  -3.462863e+01   7.985067e+01
  -3.859984e+00   8.069452e+01
  -6.465314e+01  -2.640034e+00
  -1.335589e+02  -1.452791e+02
  -6.177682e+01  -1.971405e+02
   9.319502e+01  -1.653172e+02
   2.064884e+02  -7.235260e+01
   1.867725e+02   1.049415e+02
   5.480779e+01   1.874666e+02
  -4.581668e+01   1.393016e+02
  -3.428058e+01   4.867423e+00
   5.209415e+01  -3.353916e+01
  -1.240345e+01   5.388038e+00
  -1.669064e+01  -3.743041e+01
  -3.827573e+01  -2.642369e+00
  -4.852544e+01  -2.919943e+01
   5.425049e+01  -5.340328e+01
   1.373447e+02   1.758548e+00
   1.464601e+02   2.610328e+01
  -3.466417e+00   7.273952e+01
  -7.066366e+01   4.819413e+01
  -1.199765e+02   1.261120e+01
   1.963091e+01  -5.927343e+01
  -2.652424e+00  -1.446217e+01
   5.094100e+01  -3.176053e+01
   4.657769e+01   3.040613e+01
  -4.118771e+01   1.641418e+02
  -2.054408e+01   4.074580e+01
  -2.309636e+01  -4.210052e+01
  -5.811941e+01  -6.550052e+00
  -1.790874e+01   6.768740e+00
  -7.989412e+01   4.511208e+01
  -4.672935e+01  -1.400537e+02
   3.502874e+01  -1.756494e+02
   1.065673e+02  -1.624076e+02
   2.063338e+02  -3.532447e+01
   1.898510e+02   8.292109e+01
   2.411808e+01   1.426603e+02
  -5.886924e+01   1.045829e+02
  -6.688669e+01   6.500395e+01
   5.379173e+01  -2.297445e+01
   1.380310e+02   3.110970e+01
   8.174107e+01   1.002090e+02
  -5.759745e+01   1.181419e+02
  -1.851079e+02   7.776982e+01
  -1.555989e+02  -8.408994e+01
   1.640695e+01  -1.472336e+02
   8.992983e+01  -3.514471e+01
   2.028367e+00   2.305645e+01
  -1.425115e+00  -2.114076e+01
  -7.052208e+01  -2.975727e+01
  -4.918836e+01  -6.192018e+01
   1.440041e+02  -1.407951e+02
   2.307627e+02  -5.905298e+01
   8.915080e+01   5.893292e+01
   1.409413e+01   2.280435e+02
  -9.371801e+01   1.140624e+02
  -1.091451e+02   7.935369e+00
  -4.888545e+01  -1.037723e+02
   1.073925e+01  -1.332143e+02
   3.400028e+01  -1.842619e+01
   5.251219e+01   6.227019e+01
   5.768970e+01   5.536179e+01
  -3.427694e+01   3.320373e+01
   1.678384e+01   1.428861e+00
   5.712654e+01   1.155181e+02
   1.244695e+01   1.032560e+02
  -7.953834e+01   4.188187e+01
  -1.644430e+02  -5.510599e+01
  -1.302912e+02  -7.731882e+01
   8.571264e+00  -8.501686e+01
   1.151338e+02   1.081304e+01
   1.236547e+02  -7.196676e+01
   5.928121e+00  -4.283224e+01
  -4.116917e+01   2.802294e+01
   2.958126e+00   3.289368e+01
   7.007584e+00   4.844500e+00
   7.770983e+01   4.467156e+01
  -8.788909e+01   5.904913e+00
  -1.218880e+02  -6.407357e+00
   2.732341e+01  -9.528222e+01
   6.884663e+01  -8.816441e+01
   1.416747e+02  -3.191823e+01
   1.433379e+02   3.636951e+01
   4.723341e+01   1.485774e+02
  -1.551300e+02   1.499172e+02
  -8.167958e+01   5.627637e+01
  -1.323088e+02  -5.628500e+01
   4.111390e-01  -5.483313e+01
  -4.562201e+00   2.120521e+01
  -6.852255e+01  -3.077713e+01
  -8.260938e+01  -7.642838e+01
   2.475226e+01  -6.190992e+01
   7.235227e+01  -5.173780e+01
   2.647550e+01   3.512639e+01
   1.122701e+02   1.022983e+02
   2.454234e+01   1.181533e+02
  -2.004612e+01   1.147226e+01
  -9.207703e+01  -7.546916e+01
  -6.301614e+01  -1.314090e+02
   7.064344e+01  -5.963086e+01
   9.198264e+01  -9.218603e+00
   5.624688e+01   4.868923e+01
  -4.097421e+01   6.398475e+01
  -2.092548e+01   7.265930e+01
   6.095219e+00  -3.676539e+01
   3.548746e+01  -5.781493e+00
  -1.034211e+01   1.298538e+02
  -6.877674e+01   9.729507e+01
  -1.438184e+02   5.468200e+01
  -8.816862e+01  -7.706226e+00
  -1.134053e+01  -4.874743e+01
   1.019440e+02  -8.879141e+01
  -1.104481e+01   1.788970e+01
  -3.538804e+01   7.661780e+01
   1.644273e+01   5.690570e+01
   1.003116e+01   3.417508e+01
  -6.052466e+01  -6.910575e+00
   2.725381e+01   5.168866e+00
   9.611405e+01   8.542763e+00
  -3.154203e+00   2.150590e+01
   1.450615e+01   1.201850e+00
  -6.195966e+01  -4.077540e+01
  -1.396482e+01  -2.782052e-01
   1.201019e+01  -1.463121e+01
   5.312359e+01   3.549474e+01
  -4.175431e+01  -8.657178e+00
  -7.188058e+01  -3.024118e+01
   9.192965e+01  -2.719989e+01
   8.510852e+01   4.435348e+00
   4.557349e+01   4.770617e+01
   4.829357e+01   9.206956e+01
  -5.426657e+01   4.182487e+01
  -7.039928e+01  -1.835186e+01
   1.192436e+01  -1.158755e+01
   4.647295e+01  -2.198923e+01
   5.764228e+01  -4.098647e+01
   6.279112e+01  -2.933104e+01
  -2.685126e+01  -1.403357e+01
  -3.414812e+01  -3.955621e+01
   4.490254e+01  -1.495979e+01
   3.890009e+01   2.076065e+01
