
 $NMID
 id='ANONYMOUS ', fmtdat='(2E16.6)'
 volume=1.0
 tramp=1.0
 $END
  -3.284598e+03  -2.600200e+01
  -2.170072e+03  -1.703205e+03
  -2.037905e+01  -2.129950e+03
   1.336843e+03  -1.248642e+03
   9.808959e+02  -1.387464e+02
   2.586422e+01   2.648483e+02
  -3.806101e+02  -3.845317e+01
  -3.967121e+01  -5.858572e+02
   4.567109e+02  -5.542586e+02
   6.703529e+02  -1.078960e+02
   4.434472e+02   5.313082e+02
   4.801717e+01   6.141825e+02
  -3.263967e+02   1.927654e+02
  -3.248922e+02  -5.207935e+02
   1.535921e+02  -5.520590e+02
   3.930007e+02  -1.109818e+02
   2.629904e+02   4.926234e+02
  -1.308652e+02   5.831346e+02
  -5.065114e+02   2.338423e+02
  -4.271408e+02  -1.999192e+02
  -8.403437e+01  -3.721125e+02
   9.438097e+01  -2.316993e+02
   6.355435e+01  -3.530795e+01
  -1.839535e+02  -1.036760e+02
  -2.457788e+02  -2.874372e+02
   5.035741e+01  -3.212881e+02
   4.401387e+02  -2.214499e+02
   5.910703e+02   1.948097e+02
   2.456254e+02   3.716875e+02
  -2.971513e+02   2.546434e+02
  -5.020292e+02  -1.535498e+02
  -2.051749e+02  -2.955161e+02
   2.825765e+02  -4.139568e+02
   4.725031e+02  -1.356700e+02
   3.038507e+02   1.325309e+02
   8.619736e+01   3.612622e+02
  -3.920435e+01   2.402429e+02
   1.207484e+01  -7.743281e+01
   1.025793e+02  -1.327785e+02
   1.710633e+02   1.145205e+02
   6.112144e+00   4.598578e+02
  -2.448658e+02   4.657134e+02
  -3.239146e+02  -2.092722e+01
  -1.370937e+02  -3.116170e+02
   2.005618e+02  -1.586415e+02
   2.108784e+02   2.802672e+02
  -1.406608e+02   3.893281e+02
  -4.255811e+02   6.019628e+01
  -4.860558e+02  -3.935717e+02
  -1.642676e+02  -5.558222e+02
   2.610280e+02  -2.684250e+02
   5.690730e+02   9.516477e+01
   3.720386e+02   2.298979e+02
  -4.661594e+01   2.349822e+02
  -2.339170e+02   8.541864e+01
  -1.934042e+02  -1.379833e+01
  -4.360396e+01  -2.858191e+01
   9.498101e+01   1.135635e+01
  -1.193149e+02   4.293028e+01
  -1.897521e+02  -8.435389e+01
  -7.198549e+01  -1.549561e+02
   1.252117e+02  -2.268940e+02
   3.646831e+02  -1.499032e+02
   1.944763e+02   8.444121e+01
  -1.190949e+01   3.233638e+02
  -3.505254e+02   3.732458e+02
  -4.185840e+02   1.595727e+02
  -2.046035e+02  -2.089591e+02
   2.773404e+01  -3.195372e+02
   3.545397e+01  -3.152947e+02
   2.643386e+01  -2.484851e+02
   4.277259e+01  -1.401055e+02
   8.356764e+01  -1.266424e+02
   2.685112e+02  -2.185829e+01
   2.394737e+02   1.183732e+02
   9.645015e+01   2.571452e+02
  -9.782728e+01   1.706736e+02
  -2.174231e+02  -4.325462e+01
  -1.799774e+02  -2.299512e+02
   5.282633e+01  -3.089924e+02
   2.054149e+02  -1.642394e+01
   2.474288e+02   1.685560e+02
   1.354763e+02   2.640484e+02
  -1.227618e+01   2.378723e+02
  -1.670370e+02   1.807864e+02
  -1.870811e+02   6.759181e+01
  -1.480409e+02   8.591911e+01
  -2.974723e+02   4.892737e+00
  -3.875490e+02  -1.544803e+02
  -2.971541e+02  -2.826805e+02
  -1.633227e+01  -4.540193e+02
   3.994003e+02  -3.471598e+02
   5.164992e+02  -2.068294e+02
   2.826413e+02   1.268993e+02
   2.399927e-01   2.309750e+02
  -8.151491e+01   1.901673e+02
  -5.971872e+01   1.768586e+01
   1.455911e+02  -5.727380e+01
   1.278842e+02   1.544719e+01
  -4.366941e+01   1.920081e+02
  -1.023645e+02   7.690185e+01
  -8.380357e+01  -6.841889e+00
   6.399865e+01  -1.792368e+02
   1.472839e+02  -3.773998e+01
   1.996755e+02   2.226254e+02
  -1.777429e+01   3.379679e+02
  -2.888663e+02   1.974051e+02
  -3.673947e+02  -8.400184e+01
  -2.811068e+02  -2.547324e+02
  -7.285218e+01  -2.422888e+02
   1.306256e+02  -1.727741e+02
   1.156791e+02   1.862017e+01
   9.384628e+01  -5.357440e+01
  -2.941109e+01  -7.668335e+01
   2.370654e+01  -1.234161e+02
   1.134809e+02  -1.227253e+02
   1.512910e+02  -2.033304e+01
   6.364436e+01   4.182681e+01
  -7.562389e+01   3.564573e+00
  -5.068262e+01  -1.021570e+02
   2.122856e+02  -9.863653e+01
   2.771346e+02   1.929079e+01
   2.820682e+02   1.443290e+02
   4.556329e+01   2.355047e+02
  -1.986872e+02   2.633015e+02
  -2.746026e+02   1.221090e+02
  -1.440472e+02  -9.325985e+01
   1.145343e+01  -7.135887e+01
   6.761132e+01  -7.597542e+00
  -4.132182e+01   7.455490e+01
  -1.640706e+02  -1.545808e+00
  -1.543339e+02  -1.294254e+02
  -2.264969e+01  -1.618325e+02
   7.938741e+01  -1.517008e+02
   1.154000e+02  -3.176782e+00
   7.570947e+01   7.412509e+01
  -3.639303e+01  -1.990373e+01
  -2.484501e+01  -4.849595e+01
   1.211554e+02  -1.164297e+02
   1.922484e+02  -1.042792e+01
   1.880152e+02   1.359250e+02
   4.491405e+01   2.162950e+02
  -1.495381e+02   6.072708e+01
  -1.833724e+02   3.403802e+01
  -7.625347e+01  -1.394876e+02
   5.317256e+01  -1.250292e+02
   4.667246e+01   2.137778e+01
  -1.673305e+01  -3.008081e+00
   1.117468e+01   6.915422e+00
   5.698148e+01  -3.366029e+01
   4.833973e+01  -1.103679e+01
   8.084654e+01   1.161649e+02
   1.436796e+01   2.070530e+02
  -1.586911e+02   1.324126e+02
  -2.549060e+02  -1.149525e+01
  -2.019494e+02  -1.586963e+02
  -1.269433e+01  -1.948414e+02
   1.122893e+02  -1.315200e+02
   2.619838e+01  -6.524542e+01
   1.075831e+02   5.236764e+01
   5.024694e+00   6.476544e+00
   6.000473e+01  -2.698690e+01
   6.201900e+01   2.437226e+01
   5.372006e+01  -1.903928e+01
  -5.726058e+01   1.246426e+02
  -1.078790e+02   4.489624e+01
  -1.185448e+02  -2.221641e+01
  -2.622146e+01  -1.104211e+02
   1.255554e+02  -7.822104e+01
   2.232345e+02   5.855328e+01
   4.652741e+01   2.434817e+02
  -1.948617e+02   2.553296e+02
  -2.126060e+02   1.008603e+02
  -1.960883e+02  -1.667954e+02
  -1.198635e+02  -2.183536e+02
   6.461634e+01  -1.003466e+02
   1.327800e+02  -6.524300e+01
   4.780122e+01  -4.122183e+01
   3.242568e+01  -2.638036e+01
   1.071239e+02  -6.386718e+01
   1.501497e+02   6.715871e+01
   1.089206e+02   1.051374e+02
   5.399160e+01   2.884047e+02
  -1.296281e+02   1.922936e+02
  -1.613228e+02   4.985370e+01
  -4.185995e+01  -1.144602e+02
   6.523903e-01  -1.913548e+02
   1.171760e+02  -9.187409e+01
   6.633419e+01   3.701376e+01
  -2.439757e+01   4.084510e+01
  -6.238342e+01   4.526447e+01
   8.107877e+01   4.462708e+01
   1.025210e+02   1.922335e+01
   9.258391e+01   4.178836e+01
  -1.390200e+02   2.882186e+01
  -1.465012e+02   3.890090e+00
  -1.105081e+02  -3.347448e+01
  -9.587231e+01  -1.424166e+02
   1.567120e+02  -5.835914e+01
   1.139348e+02  -1.213410e+00
   5.544565e+01   5.692695e+01
  -8.527597e+01   1.889704e+01
  -1.076650e+02   3.060055e+00
   5.475743e+00  -8.527184e+01
   6.938814e+01  -3.050808e+01
   7.807775e+01   7.696015e+00
   3.605074e+01   7.242096e+01
   5.371103e+01   6.413060e+01
   5.935153e+01   2.681654e+01
   1.268863e+02   5.784159e+01
   3.240909e+01   8.169320e+01
  -2.098209e+01   1.536753e+02
  -1.114509e+02   1.473707e+02
  -1.783656e+02  -1.377333e+01
  -1.378319e+02  -1.712784e+02
   1.525110e+01  -1.250038e+02
   8.435255e+01  -1.299130e+02
   7.378722e+01   7.862402e+00
   1.204874e+01   2.104950e+01
  -1.028725e+02  -3.093213e+01
  -5.372015e+01  -1.177607e+02
   9.774888e+01  -1.619919e+02
   1.835010e+02  -4.806574e+01
   1.632086e+02   1.197679e+01
  -5.427838e+00   1.339484e+02
  -6.553131e+01   8.527025e+01
  -5.646768e+01  -6.111553e+00
   5.528453e+01  -7.095531e+01
   1.114776e+02   1.111552e+00
   6.803011e+01   1.311675e+02
  -6.381253e+01   1.312587e+02
  -1.535241e+02   4.710820e+01
  -1.363597e+02  -1.150343e+02
   4.314019e+01  -1.654536e+02
   6.360524e+01  -1.609811e+02
   5.979943e+01   3.672470e+01
   8.868861e+01   1.327351e+02
  -2.347524e+01   9.728578e+01
  -9.354938e+01   4.603370e+00
  -1.817788e+01  -3.211067e+01
  -4.149060e+01   3.286557e+01
  -1.568072e+00  -1.571615e+01
  -5.852215e+01  -2.391492e+01
  -6.892222e+01  -4.628950e+01
  -3.242079e+01  -7.722480e+01
   4.270510e+01  -7.156756e+01
   1.443671e+02   3.738138e+01
   1.216743e+02   5.261477e+01
  -4.165844e+01   4.619014e+01
  -4.393586e+01   5.363811e+01
  -1.359381e+02  -1.184328e+01
   2.723520e+01  -6.399606e+01
  -3.822153e+00  -2.384253e+01
   6.723350e+01  -2.060980e+01
  -1.138117e+01   3.799651e+01
  -1.384016e+01  -1.730319e+01
   7.541002e+01  -1.197642e+01
   9.980164e+01   3.547037e+01
  -2.869549e+01   5.859841e+01
  -1.348071e+02   9.838919e+01
  -1.982320e+02   6.979983e+01
  -1.967931e+02  -1.140327e+02
   9.657412e-01  -1.099639e+02
   1.145619e+02  -1.683032e+02
   1.298582e+02  -6.311860e+01
   3.372380e+01  -2.305370e+01
   2.797948e+01   6.556722e+01
  -2.647852e+01   3.596169e+01
   4.894072e+01   3.279548e+01
  -8.092055e+00   3.672766e+01
   6.526764e+01   1.333554e+02
  -5.064955e+01   4.752133e+01
  -4.876554e+01   1.590940e+01
  -3.800793e+01  -1.141632e+02
   3.194588e+01  -8.590361e+01
   1.336650e+02  -4.985381e-01
   1.091221e+02   2.992620e+01
   2.309097e+01   9.272456e+01
  -4.469737e+01   2.336860e+01
  -4.694645e+01  -8.812181e+00
  -4.475884e+01  -3.614449e+01
   4.204377e+01  -4.941022e+01
   1.134611e+01  -1.255055e+01
   1.285747e+01   1.550809e+01
  -1.189683e+02  -4.555921e+00
  -1.870410e+01   6.038168e+01
   9.845378e+01  -1.258380e+02
   1.616272e+02  -5.432879e+01
   2.399755e+01  -2.455826e+01
  -1.203654e+01   6.694903e+01
  -7.423812e+01   6.090875e+01
  -6.446779e+01  -2.324682e+01
   3.980370e+01  -3.293075e+01
   3.349456e+00  -4.729286e+01
   5.454402e+01   5.591343e+01
   5.125983e+01   4.159437e+01
  -2.739858e+01   3.051874e+01
   4.848810e+00   5.147763e+00
   1.710525e+01  -1.091962e+02
  -3.940373e+01   4.642378e+01
  -1.422804e+01   8.053648e+00
   1.167013e+01   9.803088e+00
   1.392482e+01  -4.034684e+01
  -1.348350e+01  -6.700175e-01
   7.109413e+01  -7.201310e+00
   1.959450e+01   3.831988e+01
   7.457683e+00   3.528365e+01
  -8.181667e+01   2.727078e+01
  -6.538946e+01  -2.701237e+00
   9.838895e+00  -2.298644e+01
   5.004172e+01  -5.002566e+01
   8.792849e+01   1.244802e+02
   1.232976e+02   3.732589e+01
  -9.026761e+00   5.370387e+01
  -4.486679e+01   5.958434e-01
  -9.696959e+00   4.644724e+00
   6.145164e+01  -6.336681e+00
   2.571968e+01   1.398363e+00
   4.363552e+01   3.147254e+01
  -6.607258e+01   4.645795e+01
