
 $NMID
 id='ANONYMOUS ', fmtdat='(2E16.6)'
 volume=1.0
 tramp=1.0
 $END
   1.894707e+03  -1.128359e+02
   1.367198e+03   7.797013e+02
   2.997600e+02   1.230622e+03
  -5.213632e+02   1.036923e+03
  -7.152381e+02   4.744300e+02
  -3.185953e+02  -3.295611e+01
   3.792797e+01  -6.397591e+01
   6.871083e+01   2.330897e+02
  -1.660171e+02   3.477351e+02
  -2.936525e+02   1.402118e+02
  -3.310038e+02  -2.092708e+02
  -6.700945e+01  -3.500734e+02
   1.672745e+01  -1.625969e+02
   7.574870e+01   1.639807e+02
  -1.982279e+01   3.317428e+02
  -2.019623e+02   6.616539e+01
  -1.942149e+02  -2.537955e+02
  -5.028183e+01  -4.129019e+02
   2.554798e+02  -2.748541e+02
   3.316204e+02   5.862817e+01
   1.410645e+02   2.681611e+02
  -6.787371e+01   2.262628e+02
   2.739173e+01   7.747824e+01
   1.283365e+02   5.839189e+01
   1.134833e+02   2.603834e+02
  -1.095047e+02   2.052228e+02
  -2.830645e+02  -4.995823e+00
  -3.411271e+02  -1.537127e+02
  -5.886134e+01  -1.984682e+02
   1.643515e+02  -3.356865e+01
   3.159264e+02   1.062888e+02
   1.149211e+02   2.026758e+02
  -1.503696e+02   2.092386e+02
  -2.765299e+02   4.561616e+01
  -2.781507e+02  -5.454549e+01
  -7.627808e+01  -1.963948e+02
  -3.159272e+01  -1.045788e+02
  -9.919996e+01  -6.997199e+00
  -9.033010e+01   6.252178e+01
  -8.306766e+01  -1.333795e+02
   3.533371e+01  -2.595644e+02
   1.178397e+02  -2.042335e+02
   1.828343e+02   4.773783e+01
   8.706871e+01   1.811996e+02
  -4.393012e+01   9.796890e+00
  -2.730231e+01  -1.224532e+02
   5.198598e+01  -2.182289e+02
   2.445338e+02   7.269475e+00
   2.931093e+02   2.070076e+02
   1.016147e+02   3.378331e+02
  -1.344067e+02   1.685553e+02
  -3.312559e+02   3.788786e+01
  -3.008637e+02  -1.622967e+02
   9.237405e+00  -5.948619e+01
   1.496413e+02  -6.697725e+01
   1.499733e+02  -4.950077e+01
   7.788022e+01  -2.931117e+01
  -2.706912e+01  -4.138301e+01
   7.943098e+01   5.162514e+00
   9.419502e+01   2.726736e+01
   9.721986e+01   2.961747e+01
  -7.080394e+01   2.117245e+02
  -2.766934e+02   1.395899e+02
  -1.792067e+02  -2.423009e+01
  -4.484601e+01  -2.402612e+02
   2.074210e+02  -2.753711e+02
   3.151358e+02  -1.247331e+02
   1.227352e+02   9.191113e+01
   7.905450e+01   2.461355e+02
   3.802541e+01   2.108616e+02
   3.021799e+01   1.209769e+02
  -2.469387e+01   1.636900e+02
  -1.135811e+02   1.434748e+02
  -1.873346e+02   1.111675e+01
  -1.983799e+02  -1.208946e+02
  -6.138942e+01  -1.887661e+02
   6.975592e+01  -9.956153e+01
   1.397220e+02   2.405921e+01
  -4.596617e+00   1.666872e+02
  -6.819077e+01   1.229443e+02
  -2.491945e+02  -7.731501e+00
  -1.880959e+02  -1.368891e+02
  -1.375453e+02  -1.857869e+02
   2.426936e+00  -2.034730e+02
   1.275892e+02  -1.219155e+02
   1.300512e+02  -1.041444e+02
   9.278331e+01  -2.365545e+01
   1.980751e+02   2.393330e+00
   3.674165e+02   7.383921e+01
   1.758705e+02   1.474944e+02
  -3.296182e+01   2.926344e+02
  -2.238327e+02   2.693128e+02
  -3.064690e+02   6.636939e+01
  -1.895026e+02  -3.010044e+01
  -9.195923e+00  -1.034083e+02
   4.901852e+01  -1.124465e+02
  -2.326126e+01   9.336499e+00
  -4.140060e+01   2.820082e+01
  -6.954544e+01   6.282354e+01
   6.274164e+00  -9.924253e+01
   3.942399e+01  -1.272990e+02
   2.713471e+01   3.100694e+01
  -7.992955e+00   1.033252e+02
  -1.490347e+02   3.810640e+01
  -1.598697e+02  -1.346194e+02
   3.542042e+01  -2.271328e+02
   1.426028e+02  -1.387197e+02
   2.622294e+02   4.689322e+01
   1.579755e+02   1.633418e+02
   1.528977e+01   2.388410e+02
  -8.740748e+01   1.261440e+02
  -9.442167e+01  -9.939637e+00
   2.102941e+01  -4.169299e-01
   4.506818e+01   1.091626e+02
  -1.138724e+01   8.229989e+01
  -8.615354e+01   3.553573e+01
  -8.260719e+01   1.807386e+01
   4.643527e+00  -9.649746e+00
  -2.292863e+00   2.854021e+01
   5.682084e+01   8.330860e+01
  -1.387291e+02   4.017102e+01
  -1.531614e+02  -4.151196e+00
  -1.348835e+02  -1.334015e+02
  -5.193927e+00  -1.760371e+02
   9.767698e+01  -1.547345e+02
   1.778274e+02  -4.599754e+01
   5.759146e+01   8.325094e+01
  -7.666134e+00   3.090909e+01
  -3.668466e+01   3.406768e-02
   5.471055e+01  -8.984312e+01
   1.548460e+02  -4.927477e+01
   1.128838e+02   3.079213e+01
   6.164474e+01   1.165885e+02
  -8.775989e+01   8.615166e+01
  -2.867389e+01   2.530657e+01
  -8.024277e+01  -2.357733e+01
   5.249970e+01  -1.026496e+01
  -2.158215e+01   1.076445e+02
  -3.486617e+01   7.503648e+01
  -1.954657e+02  -3.192495e+01
  -1.718499e+02  -5.157038e+01
   2.774862e+01  -1.243436e+02
   6.351384e+01  -4.210053e+01
   1.057130e+02   7.033038e-01
   2.748297e+01   2.674603e+01
  -1.756004e+01   8.235663e+01
  -4.754578e+01  -1.165085e+01
   1.746023e+01  -4.203097e+00
   1.071298e+01   3.330453e+01
   5.958934e+00   1.467017e+01
  -1.035876e+02  -3.557400e-02
  -1.538873e+02  -5.035624e+01
  -2.768458e+01  -1.518036e+02
   1.005886e+02  -1.462394e+02
   1.424639e+02   2.069644e+01
   1.296785e+02   9.362167e+01
   7.927802e+01   1.239060e+02
  -4.872558e+01   1.070810e+02
  -9.056571e+01  -4.155168e+00
  -9.013625e+01   3.954017e+00
  -3.209662e+01  -1.683503e+01
  -4.379923e+01   5.028958e+01
  -4.055886e+01  -2.609959e+01
  -5.853953e+01  -3.471329e+01
   5.663534e+01  -1.607993e+02
   8.102688e+01  -7.111262e+01
   7.305897e+01   1.902556e+01
  -5.503169e+01   9.306501e+01
  -1.221288e+02   9.963330e+01
  -1.221013e+02  -6.424853e+01
  -8.146493e+01  -1.749627e+02
   8.547978e+01  -1.503848e+02
   1.504994e+02  -7.919292e+01
   2.245627e+02   4.826828e+01
   5.201596e+01   1.247356e+02
  -1.352854e+01   1.051907e+02
   1.013141e+01   3.372607e+01
  -4.414892e+01  -1.406203e+01
  -7.528738e+01   9.770649e+01
  -5.661953e+01   5.287176e+00
  -1.057146e+02  -4.547845e+01
  -1.364788e+02  -1.540975e+02
  -2.163909e+01  -1.095660e+02
   7.214321e+01  -1.163670e+02
   1.487291e+02   1.241134e+01
   8.497178e+01   6.289459e+01
   3.804841e+01   5.941119e+01
  -7.799399e+01   1.036452e+02
  -2.538781e+01  -2.831882e+01
  -3.228060e+01  -2.856932e+01
   7.793976e+01  -3.790059e+01
  -2.602270e+01   6.100129e+01
   2.554787e+00   3.288259e+00
  -8.076850e+00  -1.015427e+02
   4.095445e+01  -6.758391e+01
   1.668142e+02  -7.742622e+01
   8.371828e+01   2.385284e+01
  -4.145420e+01   9.148943e+01
  -9.632575e+01   5.581736e+01
  -9.030972e+01  -1.883604e+01
   1.828632e+00  -7.124488e+01
   6.664400e+01  -3.609233e+01
   5.079192e+01   3.692561e+01
   6.079258e+00   4.461291e+01
  -3.245163e+01   1.412318e+02
  -1.105404e+01   2.198004e+01
  -3.778452e+01  -1.268794e+01
  -6.839129e+01  -4.774751e+01
  -3.282498e+01  -1.143324e+01
  -3.073012e+01  -3.502540e+01
  -7.633614e+01  -6.511359e+01
   1.307733e+01  -1.356408e+02
   1.700996e+02  -8.439178e+01
   9.418463e+01   3.865802e+00
   1.210082e+02   3.400196e+01
   2.584308e+01   1.173997e+02
  -2.722784e+01   3.859570e+01
  -5.888526e+01   4.027150e+01
   9.454481e+01  -2.346196e+01
   1.094338e+02   2.928863e+01
   9.402596e+01   7.697509e+01
  -1.160627e+02   1.206217e+02
  -1.636817e+02  -4.554753e+00
  -6.372346e+01  -1.421581e+01
  -8.009567e+01  -2.570093e+01
   3.620999e+01  -2.468921e+01
   4.994422e+01   5.297918e+01
  -1.203795e+00   4.788454e+01
  -6.755870e-01  -5.654803e+00
  -4.922248e+01  -6.980589e+01
   4.646398e+01  -1.159301e+02
   1.314912e+02  -8.936927e+01
   1.205898e+02   3.121758e+01
   1.220927e+01   1.743106e+02
  -3.744519e+01   1.125148e+02
  -7.163556e+01  -2.864119e+01
  -3.456827e+01  -1.135840e+02
   1.699962e+01  -8.643320e+01
   4.825552e+01  -1.869577e+01
   1.687238e+01   4.935636e+01
   6.303699e+01   2.491395e+01
  -1.471607e+01  -1.084295e+00
   6.103707e+01   2.260298e+01
   5.476338e+01   1.489829e+02
  -4.241500e+00   9.946284e+00
  -4.622722e+01   2.337802e+01
  -1.051773e+02   1.457487e+01
  -6.065153e+01  -7.089376e+01
   2.775769e+01  -3.769183e+01
   1.334965e+02  -2.265837e+01
   3.564912e+01   2.085475e+01
  -4.102467e+00  -9.378632e+00
  -2.965911e+01   1.319974e+01
  -2.973102e+01   2.445103e+01
   1.690497e+01  -2.089481e+01
   1.079008e+01   2.194214e+01
   2.919258e+01  -2.635066e+01
  -6.559642e+01   7.578849e+00
  -6.027111e+01   9.960363e-01
   9.409107e+01  -9.313219e+01
   1.071386e+02  -1.682219e+01
   1.551968e+02  -1.232210e+00
   3.427296e+01   8.524884e+01
  -2.541522e+01   1.149863e+02
  -6.269702e+01   6.615434e+00
  -4.836618e+01   4.548259e+01
  -6.984714e+00  -6.653052e+01
   5.383406e+01  -1.254610e-01
   5.316968e+00  -3.513918e+01
  -1.320151e+01  -5.904137e+01
   3.661255e+01  -5.531270e+01
  -1.663571e+00  -2.505393e+01
   3.734707e+01  -3.482941e+01
   6.620147e+01   1.226859e+02
   1.488302e+01   9.009518e+01
  -3.308554e+01   6.117778e+01
  -7.689098e+01  -5.303124e+01
  -3.515506e+01  -6.181869e+01
   1.068777e+01  -5.356487e+01
   1.065576e+02   1.779549e+01
   5.004355e+01   1.254326e+02
  -5.948601e+01   5.662788e+01
  -2.336590e+01  -6.314903e+01
   1.893705e+01   6.778753e+00
   9.048540e+01  -1.044518e+01
  -3.421228e+01  -1.019512e+01
  -7.522982e+01   5.241441e+01
  -5.513854e+01   8.030149e+01
  -5.716408e+01  -3.641240e+01
   1.591860e+01  -6.755342e+01
   8.417553e+01  -9.692587e+01
   3.169481e+01   2.288766e+01
   5.594188e+01   3.905765e+01
  -6.306434e+01   5.133938e+01
  -9.669669e+00  -4.270246e+01
  -5.591379e+01  -1.037763e+02
   4.731168e+01  -6.311130e+01
  -2.017664e+01  -7.724337e+00
   5.303118e+01   5.302168e+01
   7.315153e+01  -4.943894e+01
  -5.754714e+01  -3.565393e+01
   4.233215e+00  -1.984922e+00
   3.337562e+01  -1.259146e+01
   8.053146e-01   5.199167e+01
  -2.715961e+01   1.126943e+01
  -6.368901e+01  -2.853278e+01
   1.730819e+01  -2.239088e+01
   1.219010e+01  -3.612225e+01
   7.468409e+01   4.351554e+01
   6.445733e+01   2.736522e+01
  -2.162384e+01   2.380774e+01
  -8.703526e+01  -4.381206e+01
  -4.039912e+01  -2.907782e+01
  -1.429429e+01  -2.022374e+01
   6.935985e+01  -4.040226e+01
  -1.331978e+01  -4.304225e+01
  -1.722101e+01   2.021539e+01
   3.103387e-01   1.743813e+01
   3.370646e+01   3.767901e+00
  -1.247407e+01  -2.757817e+01
