
 $NMID
 id='ANONYMOUS ', fmtdat='(2E16.6)'
 volume=1.0
 tramp=1.0
 $END
   4.394609e+03  -1.011072e+02
   2.614933e+03   2.665355e+03
  -7.835803e+02   2.908431e+03
  -2.238791e+03   9.284160e+02
  -9.836149e+02  -7.775085e+02
   6.757529e+02  -6.569406e+02
   9.446624e+02   4.516036e+02
  -1.148121e+01   1.143068e+03
  -8.536080e+02   8.863451e+02
  -9.402966e+02  -7.767725e+01
  -4.781465e+02  -9.391527e+02
   2.549052e+02  -9.753005e+02
   6.427870e+02  -1.600988e+02
   4.916644e+02   7.376179e+02
  -2.766535e+02   7.353065e+02
  -6.987423e+02  -4.552560e+01
  -2.947998e+02  -7.370015e+02
   3.686142e+02  -6.078756e+02
   6.025901e+02  -8.461578e+01
   4.458092e+02   3.584985e+02
  -1.772725e+01   4.285997e+02
  -2.902579e+02   2.546455e+02
  -2.087083e+02   5.705328e+01
   1.268690e+02  -9.622897e+01
   4.145418e+02   1.065046e+02
   2.152163e+02   4.696765e+02
  -4.654495e+02   4.440168e+02
  -8.962138e+02  -8.688444e+01
  -4.835257e+02  -6.022502e+02
   4.206765e+02  -5.085963e+02
   7.536583e+02   1.962506e+01
   3.997959e+02   5.847712e+02
  -2.458244e+02   4.788457e+02
  -5.336619e+02   2.088943e+02
  -4.374874e+02  -2.064005e+02
  -3.398030e+01  -4.687261e+02
   2.444511e+02  -2.920116e+02
   2.488168e+02   2.152688e+02
  -2.070854e+02   4.317238e+02
  -4.914701e+02  -4.190002e+01
  -2.322040e+02  -6.373288e+02
   3.224888e+02  -7.484565e+02
   6.539566e+02  -1.068194e+00
   2.077041e+02   5.455395e+02
  -3.118177e+02   3.225698e+02
  -4.365421e+02  -2.567887e+02
   5.882164e+01  -5.218377e+02
   5.682659e+02  -1.644159e+02
   5.777050e+02   3.925453e+02
   1.173012e+02   5.910915e+02
  -3.549032e+02   3.391830e+02
  -6.559221e+02  -8.449745e+01
  -4.117962e+02  -3.988251e+02
   1.484063e+02  -3.994177e+02
   4.832902e+02  -3.215469e+01
   2.860167e+02   2.225804e+02
  -7.809432e+01   1.233128e+02
  -1.320754e+02  -1.734896e+02
   1.800394e+02  -2.327144e+02
   3.578104e+02   4.111744e+01
   1.441246e+02   3.648612e+02
  -1.978866e+02   1.916196e+02
  -3.707387e+02   9.030645e+01
  -1.772132e+02  -8.591463e+01
   7.616478e+00  -2.209054e+02
   2.043997e+02  -3.095655e+02
   3.370209e+02  -2.122990e+02
   2.638281e+02   1.382044e+02
   5.186287e+01   4.182655e+02
  -9.676938e+01   3.761211e+02
  -7.877277e+01   1.130144e+02
  -4.272482e+00   4.231753e+00
   3.261262e+01   1.253566e+02
  -2.244350e+02   1.398676e+02
  -2.541734e+02  -1.479975e+02
  -1.348020e+02  -2.610273e+02
   3.844325e+00  -2.741910e+02
   2.357629e+02  -3.628390e+01
   2.251496e+02   2.405078e+02
   1.884716e+01   2.954596e+02
  -2.545863e+02   8.607343e+01
  -3.474251e+02  -1.387911e+02
  -1.517292e+02  -3.395669e+02
   8.018639e+01  -3.307694e+02
   2.397601e+02  -1.054601e+02
   1.362179e+02  -3.475782e+01
   8.412643e+01   7.828270e-01
   2.132016e+02  -7.481271e+01
   4.158463e+02   7.022657e+01
   3.171721e+02   3.181464e+02
  -9.382671e+00   4.987807e+02
  -3.466180e+02   4.031600e+02
  -5.202405e+02   1.989118e+02
  -3.595437e+02  -1.041309e+02
  -6.269945e+01  -3.138369e+02
   7.634193e+01  -2.548663e+02
   7.201364e+01  -3.265805e+01
  -6.616764e+01   1.230728e+02
  -2.124086e+02   4.566012e+01
  -5.863443e+01  -2.094624e+02
   1.771957e+02  -2.217149e+02
   1.671890e+02  -1.694739e+01
  -9.684728e+00   2.166388e+02
  -1.825788e+02   8.146998e+01
  -1.605311e+02  -2.527926e+02
   5.002795e+01  -3.754558e+02
   2.104861e+02  -1.151215e+02
   3.261143e+02   2.704834e+01
   2.355810e+02   2.164634e+02
   1.255991e+02   2.522929e+02
  -1.163254e+02   1.508277e+02
  -1.833379e+02   2.549359e+01
  -9.655081e+01  -2.762355e+01
   1.017327e+02  -1.439381e+01
  -5.963610e+00   1.037218e+02
  -1.153349e+02   7.623905e+01
  -1.690216e+02   2.520990e+01
  -9.038413e+01  -6.166702e+01
   8.391362e+01   1.702785e+01
   6.711377e+01   1.016611e+02
  -1.711493e+02   1.069727e+02
  -2.580168e+02   2.631060e+01
  -2.612723e+02  -9.982917e+01
  -7.349119e+01  -2.447057e+02
   1.660497e+02  -2.322122e+02
   2.521562e+02  -1.409482e+02
   1.468482e+02   5.862379e+01
   1.660472e+01   8.100160e+01
  -1.299532e+02   7.717833e+00
   1.335618e+01  -1.695891e+02
   1.976566e+02  -6.287597e+01
   2.018412e+02   6.994953e+01
   1.139043e+02   2.203948e+02
  -7.885899e+01   1.541338e+02
  -1.693798e+02   2.818456e+01
  -8.368963e+01  -3.393130e+01
  -3.288059e+00   4.536617e+01
   7.221240e+01   5.513795e+01
  -1.057176e+02   1.454273e+02
  -1.926166e+02  -4.802702e+01
  -2.206713e+02  -1.678263e+02
  -1.647963e+01  -2.319232e+02
   1.508463e+02  -2.302367e+02
   2.263807e+02  -2.477188e+01
   5.996618e+01   1.295698e+02
  -9.179432e+01   8.592529e+01
  -1.160299e+02   1.396878e+01
  -5.303819e+01  -4.555634e+01
   5.920706e+01   1.214984e+01
   2.319714e+00  -2.094696e+01
  -7.825327e+01  -3.294616e+00
  -1.226912e+02  -5.927974e+01
  -1.717569e+00  -2.003434e+02
   6.125326e+01  -1.680748e+02
   1.980973e+02  -1.595220e+01
   1.859782e+02   1.506135e+02
   6.844970e+01   2.490483e+02
  -1.020678e+02   2.028420e+02
  -1.494299e+02   8.125768e+00
  -1.082138e+02  -5.310261e+01
  -5.522054e+01  -6.576378e+01
  -3.608761e+01   2.736709e+01
  -9.686599e+01  -7.883771e+00
  -6.765174e+01  -2.110839e+01
   7.186326e+01  -4.598353e+01
   8.232043e+01   2.439257e+01
   7.686320e+01   4.437500e+01
   3.337516e+01   1.058718e+02
  -1.465073e+02   9.135513e+01
  -1.728172e+02  -3.129035e+01
  -6.096818e+01  -1.989350e+02
   1.051187e+02  -2.497238e+02
   2.436872e+02  -6.487171e+01
   3.485074e+02   4.998021e+01
   7.700230e+01   1.790555e+02
  -5.744300e+01   1.488459e+02
  -1.170340e+02   1.383147e+02
  -1.233964e+02   8.947670e+01
  -1.050557e+02   9.559060e+01
  -1.027048e+02   8.157433e+01
  -1.132571e+02  -5.915991e+01
  -9.227522e+01  -1.269008e+02
  -4.768876e+01  -2.629687e+02
   8.489345e+01  -1.963663e+02
   1.596321e+02  -2.309025e+01
   8.768160e+01   1.037889e+02
   3.126827e+01   1.798418e+02
   1.316177e+01   1.060779e+02
  -4.951158e+01   9.632095e+00
   1.343044e+01  -6.616995e+01
  -4.794842e+01  -3.193961e+01
  -3.929897e+01   7.391921e+00
  -8.120721e+01  -8.129478e+01
  -8.016324e+01  -7.273440e+01
   5.961653e+01  -9.678266e+00
   1.914411e+02   3.326515e+01
   8.209119e+01  -1.326125e+00
   5.708045e+01   6.729607e+01
  -1.253376e+02   8.555402e+01
  -1.864837e+02   2.313284e+01
  -6.162184e+01  -8.042324e+01
   6.964355e+01  -6.973092e+01
   6.912858e+01   1.625889e+01
  -1.324098e+01   6.231942e+01
  -3.930314e+01   7.090494e+01
  -9.303194e+01  -4.731811e+01
  -6.409540e+01  -9.223519e+00
  -5.010697e+01  -7.274286e+01
  -6.860355e+01   6.854177e+01
  -7.027017e+01  -4.427233e+01
  -8.863940e+01  -5.677971e+01
   1.955322e+01  -9.801474e+01
   1.454839e+02  -1.053517e+02
   1.615857e+02  -6.022619e+01
   8.641632e+01   1.167950e+02
  -7.352748e+00   9.642603e+01
  -4.694915e+01   2.630546e+01
  -5.044120e+01   6.371264e+00
   5.160075e+01  -2.597497e+01
   1.705685e+02   4.104114e+01
   5.017811e+01   1.288858e+02
  -1.369433e+02   9.604250e+01
  -1.816138e+02   3.668482e+01
  -5.810775e+01  -3.891738e+01
  -1.129153e+01  -7.746889e+01
   2.425236e+01  -5.561135e+01
  -3.530343e+01   4.728149e+01
   1.314677e+01   5.332958e+01
  -7.786771e+01   1.257807e+01
  -4.853270e+01  -1.041515e+02
   8.130500e+01  -1.367811e+02
   1.262499e+02  -3.447495e+01
   8.706477e+01   4.424052e+01
   3.587645e+01   1.744421e+02
  -7.867855e+01   1.583953e+02
  -8.061361e+01   1.995874e+01
  -1.187572e+02  -1.265337e+02
   1.453028e+00  -1.001177e+02
  -2.180572e+01  -8.767122e+00
   5.122816e+01   3.435510e+01
  -9.697738e+00  -2.355255e+01
   5.350584e+01  -2.530726e+01
  -3.846743e+01   3.016806e+01
   2.190841e+01   7.552154e+01
   3.458536e+01   1.250077e+02
   7.884419e+00   6.468200e+01
  -1.826915e+02  -7.881927e+01
  -1.242554e+02  -1.021187e+01
  -8.385384e+00  -4.714985e+01
   6.863759e+01  -7.618885e+01
   8.732334e+01  -3.520602e+01
   3.231219e+01   1.421655e+01
  -3.789186e+01   1.929518e+01
   4.006818e+01   5.647771e+01
   4.855728e+01  -6.209478e+00
  -3.672646e+01  -9.365512e+00
  -1.109609e+02   4.158424e+01
  -4.204940e+01   2.033122e+01
  -3.187486e+01  -8.507459e+01
   1.183983e+02  -1.314183e+02
   2.115164e+02  -6.218647e+01
   8.521961e+01   7.255181e+01
   6.378111e+01   1.715319e+02
  -1.245406e+02   1.405359e+02
  -1.520096e+02   9.951350e+01
  -1.214528e+02   9.437039e+00
  -4.620960e+01  -1.411354e+01
   7.125764e+00  -2.811180e+01
   3.043806e+01   2.246809e+00
  -5.926969e+01  -3.878484e+00
  -2.311522e+01  -8.263176e+01
   2.768109e+01  -6.435160e+01
   5.738183e+01  -4.827500e-01
   3.407826e+00   1.149650e+02
  -6.889314e+00   1.069072e+02
  -9.338605e+01   2.901264e+01
  -9.817897e+01  -2.755560e+01
  -5.646099e+01  -9.701702e+01
   1.240963e+02  -6.987749e+01
   1.184415e+02   2.782937e+01
   1.034923e+02   6.917214e+01
  -2.294547e+01   6.475452e+01
  -4.077934e+01   2.826814e+00
   2.351823e+01   5.536905e+01
   4.874352e+01  -1.780924e+01
   6.463316e+00   2.571991e+01
  -8.884179e+01   2.836751e+01
  -9.726535e+01   7.240198e+01
  -1.867828e+01   6.617751e+01
  -2.794245e+01  -8.583992e+01
   1.186140e+02  -6.740778e+01
   4.881942e+01  -1.957862e+01
   1.403346e+01   9.834034e+01
  -8.462314e+01   5.564125e+01
  -5.971356e+01  -3.244641e+01
  -4.065851e+00  -6.767079e+00
  -3.401122e+01  -5.750093e+01
   1.650545e+01   2.710246e+01
   1.123635e+02  -3.506223e+00
   5.805569e+01   9.845864e+00
   3.079886e+01   2.358656e+01
   5.103227e+01   3.262914e+01
  -9.989552e+00   9.305980e+01
  -4.383699e+01   5.715318e+01
  -2.749479e+01   1.676967e+01
  -5.594706e+01  -6.754353e+01
  -3.777690e+01  -2.106908e+01
   4.183460e+01  -1.983030e+01
   7.735428e+01   1.500032e+01
  -8.973042e+00   3.430686e+01
  -5.876937e+01   5.348123e+01
  -5.688969e+01   1.300060e+01
  -7.871664e+01  -3.238286e+01
   2.996361e+01   1.161132e+01
   7.554151e+01  -4.943501e+01
   4.250600e+01  -4.941820e+01
  -3.694744e+01  -1.630127e+01
  -6.617990e+01  -1.246404e+01
   1.635666e+01  -7.900425e+00
   1.529801e+02  -2.371363e+01
