
 $NMID
 id='ANONYMOUS ', fmtdat='(2E16.6)'
 volume=1.0
 tramp=1.0
 $END
  -1.116407e+01  -1.787673e+02
   6.828264e+00   2.210525e+01
  -5.510308e+01  -3.113894e+01
  -2.805364e+01  -8.217962e+01
  -3.257253e+01  -9.542142e+01
   8.597342e+01  -9.717886e+01
   8.296997e+01   3.836617e+01
   2.923183e+01   3.207057e+01
   3.371537e+01   6.609346e+01
  -5.604817e+01   3.119002e+01
  -3.538645e+00  -2.098796e+01
  -4.642329e+01  -4.207725e+01
   4.617433e+01   2.734416e+01
   6.917058e+01   4.556740e+01
   2.371907e+01   1.156981e+01
   2.498775e+01  -2.011182e+01
   2.434424e+00   8.578265e+00
  -7.097091e+01   3.769460e+01
   4.787800e+01  -9.839577e+00
  -7.718777e+01   7.772955e+01
  -3.797214e+00  -4.814723e+01
   5.980074e+01   4.006534e+00
  -4.120138e+01   1.517926e+01
  -5.505999e+01  -1.498096e+01
  -2.612733e+01  -2.377082e+01
   3.765655e+00  -8.017475e+00
   2.239743e+00   9.414629e+01
  -9.769483e+00   3.055128e+01
  -4.919721e+01   4.900940e+00
   5.022488e+00  -7.528334e+01
   4.035654e+01  -5.667153e+01
   5.344143e+01  -2.425488e+01
   2.226765e+01  -5.627034e+01
   1.146662e+01   1.470198e+01
  -3.388874e+01  -3.137496e+00
   7.799699e+00  -5.971605e+01
   3.020447e+01  -3.271320e+01
   7.125265e+01   9.623171e+00
   5.044588e+01   5.747136e+01
   1.577442e+01   3.275717e+01
  -1.844486e+01   9.807775e+00
  -5.249592e+01   2.095350e+01
  -6.440070e+01  -6.365301e+01
   4.957620e+01   6.933074e+01
   4.131185e+01   1.015249e+01
   5.209672e+00  -5.488189e-01
  -3.316382e+01  -2.171584e+01
   1.548351e+01   4.525713e+00
  -1.986138e+01   1.056423e+01
   3.114329e+01   9.673455e+00
  -5.131899e+01   4.448993e+01
  -6.224801e+01   5.095488e+01
   5.363055e+01   5.074862e+01
   4.579418e+01  -4.837442e+01
  -2.849202e+01  -3.826060e+00
   1.724353e+01   6.063880e+01
  -1.410030e+01  -2.636403e+01
  -1.406809e+01  -4.750292e+00
  -1.746080e+01  -2.275837e+01
  -1.237313e+01  -3.323229e+01
   4.244786e+01   2.366858e+01
   1.649111e+01   1.166782e+01
  -3.051840e+01  -7.454894e+00
   9.916865e+00   3.148901e+01
  -5.609265e+01  -3.552449e+01
  -4.526163e+01   4.654046e+01
  -2.164447e+01  -6.903738e+00
  -4.507710e+01   2.756327e+01
  -2.650238e+00  -2.568278e+01
  -9.858629e+00   2.589031e+01
  -1.455730e+01   5.751213e+01
  -3.667543e+01  -2.057505e+01
   9.603547e+01  -5.404285e+01
   3.356818e+01   1.448533e+01
   3.098435e+01   3.149613e+01
  -3.511267e+01  -8.680118e+00
  -7.433781e+01   4.266489e+00
  -4.447081e+01  -1.666673e+01
   9.797626e+00  -1.297876e+02
  -7.563843e+00   9.325634e+00
  -3.585482e+01   6.503810e+01
  -2.034183e+01  -5.224807e+01
  -9.599688e+00   2.845143e+01
  -2.050872e+01  -4.733888e+01
  -2.985034e+01   1.423231e+01
   3.139962e+01   4.881708e+01
   5.737275e+00   3.477833e+01
  -3.406461e+01  -1.029489e+01
   3.324504e+00  -5.006792e+01
  -5.649834e+01  -4.236171e+01
   9.164297e+01  -3.063929e+01
   1.876165e+01   2.898821e+01
  -2.419591e+01  -9.227417e+00
   1.604082e+01   6.738250e+00
  -1.331066e+00  -1.599105e+01
   7.192023e-02  -2.947148e+01
   5.545763e+01   5.698763e+01
   5.579038e+01  -3.281122e+00
   6.791426e+00  -1.319873e+01
  -3.549246e+01   3.841122e+00
   1.349553e+01   4.965575e-01
   3.222968e+01  -1.382243e+01
   2.571624e+01   5.342016e+01
  -2.639548e+01  -2.349254e+01
  -4.311468e+00   2.129072e+01
   2.039175e+01  -7.606333e-01
  -3.123887e+01  -6.253490e+01
  -7.755552e+01  -5.146579e+01
   2.656539e+01   3.132803e-01
  -4.827195e+01  -1.130560e+01
  -1.297125e+00   2.175474e+01
  -1.354035e+01  -1.908249e+01
   2.534455e+01  -4.464580e+01
  -3.708873e+01   6.270101e+00
   2.602747e+01   3.922849e+01
   2.947174e+01   1.236112e+01
   2.877040e+01   1.511192e+01
   2.118765e+01   3.373887e+01
   7.424845e+00  -2.884315e+01
   6.846733e+00  -1.666585e+01
   3.147408e+01  -1.821676e+01
   2.169759e+01   1.803218e+01
   2.807921e+01   1.624733e+00
  -7.246046e+01   4.463703e+00
  -3.596816e+01   6.380440e+00
   2.129175e+01  -2.136879e+01
   3.330922e+01   2.064152e+01
   7.432472e+00  -5.576934e+01
   1.546927e+01  -9.362573e+00
   5.029729e+00  -1.208299e+01
   4.364543e+00   5.933040e+00
  -2.720078e+00  -3.658353e+01
  -2.514172e+01  -2.586701e+01
  -1.437420e+01   2.196441e+01
   4.749394e+01  -3.338214e+00
   1.126453e+01   5.386070e+01
   2.169906e+00  -3.005017e+00
   2.595985e+01  -2.390882e+01
  -7.028535e+00  -3.955345e+01
   2.822620e+01   2.483187e+01
   5.454044e+01  -8.347120e+01
   5.613631e+01  -4.361745e+01
  -4.277303e+01  -3.370625e+01
   9.126807e+00   2.830411e+01
   3.948667e+01  -1.505335e+01
  -7.575972e+01   1.609896e+01
   1.463512e+01  -4.076225e+00
   1.940416e+01   2.680024e+01
  -1.521846e+01   7.042639e+01
   1.092756e+01   3.140185e+01
   5.792845e+01   3.215030e+01
   1.843543e+01   4.192544e+01
   6.147941e+01  -3.673124e+01
  -1.624981e+01   3.568461e+01
  -4.880983e+01  -2.330652e+01
   2.561313e+00  -2.408360e+01
  -2.282015e+01  -2.983040e+01
  -1.470176e+01  -6.558010e+01
   3.200897e+01   3.097147e+01
  -3.526523e+01   5.184707e+01
  -1.633171e+01   3.387341e+01
   1.299973e+01   7.606067e-01
  -1.668699e+01  -3.206965e+00
   8.591731e+00   1.468906e+01
  -2.599198e+01   2.437896e+01
   2.016902e+01  -1.072717e+02
  -3.354910e+01  -3.485481e+01
   1.655073e+01  -4.002413e+01
   1.268781e+01   2.828639e+01
   3.121732e+01  -5.903995e+01
   1.707259e+01   7.422729e+01
  -3.785151e+01  -4.076434e+00
  -1.047690e+01   1.343185e+00
   4.099163e+01  -1.928643e+00
  -3.269140e+01  -9.980332e+00
   8.594389e+01   3.057488e+01
   1.246760e+01   2.583677e+01
   1.578784e+00  -4.352704e+01
  -2.754478e+01   4.201952e+01
   3.939402e+01  -5.400398e+01
  -2.036442e+01   1.494143e+01
   5.066209e+00   3.922222e+00
   4.905767e+01  -5.382203e+01
   5.907696e+00   7.162650e+00
  -1.834585e+01  -1.730565e+01
   2.289259e+01  -2.604882e+01
   3.062733e+01  -1.923878e+01
   9.660673e+00  -5.228849e+00
   3.459186e+00   7.103667e+01
  -2.001289e+01   1.637336e+01
   2.726018e+01   3.078900e+01
   1.566243e+01  -2.137469e+00
  -1.219702e+01  -1.229652e+01
  -2.313798e+01  -5.625736e+01
  -6.921884e+01   1.571700e+01
  -3.699187e+01  -2.040033e+01
   3.646283e+01   2.052427e+01
   5.333548e+01  -1.849265e+01
   2.645465e+01  -8.968073e-01
   3.155999e+00  -1.926565e+01
   3.704249e+01  -6.882626e+01
  -1.102751e+01  -1.428335e+00
  -2.598013e+01  -5.264312e+01
  -5.823835e+01   3.990851e+01
  -1.845679e+01   6.870959e+00
   4.346187e+01   2.158754e+01
  -5.656245e+01   4.086967e+00
  -3.686577e+01  -2.979114e+01
  -3.085943e+01  -3.372261e+01
  -5.908808e+00  -6.795660e+00
   2.658820e+01   6.488077e+01
   1.859773e+01  -1.355053e+01
  -2.853186e+01  -2.855397e+01
   6.688323e+00  -3.642252e+01
  -4.398580e+01  -1.082939e+01
  -5.660515e+00   3.414044e+01
  -2.364648e+01  -5.301789e+01
  -1.197529e+01   1.961656e+01
  -4.300023e+01  -1.951588e+01
  -5.144623e+01   4.518797e+01
  -3.229441e+01  -6.315253e+00
   1.919483e+01  -8.966086e+00
  -3.050722e+01   1.423135e+00
  -2.175105e+01  -1.249860e+00
  -2.520394e+01  -6.552379e+01
  -4.003990e+01  -2.761578e+01
   2.051513e+01  -3.740897e+01
  -4.515446e+00   4.058395e+01
   1.092884e+01  -8.575704e+00
  -2.751350e+01   7.435763e+01
   2.036230e-01  -3.495748e+01
  -9.538128e+01  -8.046444e+00
  -3.701660e+01   2.276855e+01
   4.839255e+01  -1.291431e+01
   2.047188e+00   6.580016e+00
  -6.136771e-02   2.365764e+01
   2.081046e+01  -4.522384e+00
  -5.876508e+01   4.667299e+00
  -2.083201e+01   3.241512e+01
  -2.688759e+01   3.130674e+01
  -3.958509e+01  -1.831732e+01
  -2.390716e+01   1.979839e+01
  -1.958053e+01   5.116534e+01
  -2.058567e+01  -5.235520e+01
  -3.348721e+01  -1.176257e+01
  -8.035133e+00   2.884527e+01
   7.487825e+00   7.670313e+00
   5.618953e-01  -4.596505e+01
  -7.563348e+01  -4.898051e+01
   1.266398e+01  -7.882201e+00
   1.813814e+01  -4.263858e+01
   1.042384e+02   3.914027e+00
  -9.681100e+00   3.425759e+00
   2.557477e+01   9.867511e-01
   3.907795e+01  -2.446494e+00
  -7.660306e+00   1.574091e+01
   1.971856e+01   3.634788e+01
   2.362952e+01   6.265506e+01
  -4.903220e+01  -2.897470e+01
   1.496351e+01   1.275911e-01
  -4.585299e+01   3.671325e+01
  -4.745342e+01   1.888615e+01
   1.171315e+01  -1.709202e+01
   2.968475e+00   3.364728e+01
  -2.465752e+01   2.360310e+00
   1.931571e+01  -1.400671e+01
   1.123151e+00  -7.379146e+00
   3.471150e+01   4.195872e+01
  -1.218696e+00  -2.841723e+01
   4.292196e+01   4.154694e+01
   7.048554e+01   1.237979e+01
   9.599783e-01  -3.160620e+01
   2.452366e+00  -3.406683e+01
   2.993835e+01   2.022952e+01
   2.531141e+01   3.659691e+00
  -9.718013e-01  -2.178540e+01
   5.332486e+01   4.785503e+01
  -3.312108e+01   3.793301e+00
  -7.808290e+00  -5.906559e+00
   3.816653e+00  -3.537408e+00
   1.972690e+01   6.873689e+00
  -5.282644e+01  -2.554215e+00
   9.136974e+00   1.400950e+00
  -2.357363e+01  -1.463095e+01
   4.905577e+00  -3.854084e+01
  -1.198598e+01   1.358556e+01
  -1.403970e+01  -4.904652e+00
   1.162485e+01  -2.896278e+01
  -3.629545e+01   1.547499e+01
   7.226538e+00   1.630594e+01
  -1.231478e+01  -7.166535e+00
   2.336074e+01  -5.161558e+01
   1.976750e+01   4.290343e+01
   4.708077e+01   1.996568e+01
   3.581816e+01   1.072875e+01
   2.147581e+01  -1.446223e+01
   5.573889e+00  -3.416427e+01
   2.710170e+01  -8.751801e+01
   4.453055e+00  -1.632588e+00
  -3.989366e+01   7.691965e+00
  -4.402452e+00   4.796742e+01
  -3.028633e+01  -2.829830e+00
  -4.294952e+00   1.901683e+01
   1.456066e+01  -4.825795e+01
   1.495633e+01   1.747602e+01
   4.646075e+00  -6.004007e+00
  -2.955171e+01  -1.220652e+01
   1.665969e+01   3.083284e+01
  -2.194728e+01  -7.895982e+00
  -3.911217e+01   4.878153e+00
  -2.127361e+01   1.432678e+01
   1.891296e+01   1.742789e+01
  -1.507581e+01   1.868661e+01
  -2.629266e+01   1.480290e+01
  -3.894244e+01  -3.721557e+01
   2.632782e+01  -1.809771e+01
   2.738406e+00   5.062022e+00
   1.644371e+00  -1.131861e+01
   6.687538e+00  -9.370795e+00
   1.650465e+01   3.385755e+01
