
 $NMID
 id='ANONYMOUS ', fmtdat='(2E16.6)'
 volume=1.0
 tramp=1.0
 $END
  -3.791118e+03  -9.684760e+01
  -2.374034e+03  -2.094972e+03
   3.098260e+02  -2.387298e+03
   1.516669e+03  -1.135717e+03
   9.754373e+02   4.468302e+01
  -2.032087e+02   3.157929e+02
  -5.015970e+02  -2.342804e+02
  -2.767050e+01  -7.750828e+02
   6.037459e+02  -7.475470e+02
   7.724082e+02   2.432094e+01
   4.453763e+02   6.778973e+02
  -6.750328e+01   7.763008e+02
  -3.917808e+02   1.379133e+02
  -2.496202e+02  -5.715888e+02
   1.656554e+02  -6.349397e+02
   5.357817e+02  -6.966980e+01
   3.133026e+02   5.795989e+02
  -1.901809e+02   6.238454e+02
  -5.005388e+02   2.308980e+02
  -4.616972e+02  -2.909210e+02
  -4.872428e+01  -3.691661e+02
   1.578233e+02  -2.638106e+02
   1.268283e+02  -5.184738e+01
  -1.518944e+02  -1.349817e+01
  -4.226532e+02  -1.913835e+02
  -7.939411e+01  -4.195767e+02
   4.362626e+02  -2.552559e+02
   7.078711e+02   1.608282e+02
   2.957847e+02   4.717957e+02
  -3.944717e+02   2.805836e+02
  -6.443408e+02  -5.709780e+01
  -2.524757e+02  -4.337794e+02
   3.491313e+02  -3.746222e+02
   5.187017e+02  -2.125555e+02
   3.510411e+02   1.947199e+02
   9.679680e+01   3.754980e+02
  -8.849835e+01   2.468405e+02
  -3.224445e+01  -1.391915e+02
   1.132017e+02  -2.235569e+02
   3.617899e+02   1.401579e+02
   1.173252e+02   6.486654e+02
  -3.076576e+02   5.495880e+02
  -4.736539e+02   5.783552e+00
  -1.875047e+02  -4.046099e+02
   2.320163e+02  -2.094297e+02
   2.410986e+02   2.902856e+02
  -9.257625e+01   4.502457e+02
  -4.833089e+02   1.361326e+02
  -5.380601e+02  -4.136696e+02
  -1.981998e+02  -5.304981e+02
   3.332544e+02  -2.602977e+02
   5.923056e+02   1.507296e+02
   3.735929e+02   2.450048e+02
  -1.479050e+02   3.187540e+02
  -3.446187e+02   9.578122e+01
  -2.356285e+02  -7.414523e+00
   7.476328e+01  -4.811104e+01
   9.352190e+01   9.531563e+01
  -1.011337e+02   1.792129e+02
  -2.642704e+02  -4.308705e+01
  -1.298999e+02  -2.283206e+02
   1.716583e+02  -2.660377e+02
   3.419026e+02  -6.689449e+01
   2.303794e+02   1.311777e+02
   2.556130e+01   3.043494e+02
  -3.433681e+02   3.580358e+02
  -3.645098e+02   1.627192e+02
  -2.521930e+02  -2.170020e+02
  -3.362505e+01  -3.845105e+02
   6.249567e+01  -3.211927e+02
   4.785255e+01  -1.899233e+02
   4.225251e+01  -5.909903e+01
   1.309426e+02  -1.476099e+02
   2.487927e+02  -1.170237e+02
   2.302717e+02   1.252431e+02
   1.142455e+02   3.011335e+02
  -1.319032e+02   2.718016e+02
  -1.352322e+02  -2.984806e+01
  -1.258004e+02  -2.611651e+02
   3.808638e+01  -2.813735e+02
   2.392612e+02  -1.334480e+02
   3.041423e+02   1.916395e+02
   1.636912e+02   3.442163e+02
  -7.970024e+01   3.464637e+02
  -2.256765e+02   1.338269e+02
  -1.590512e+02   1.108792e+02
  -1.592985e+02   7.776124e+01
  -3.035687e+02   7.091754e+01
  -3.998978e+02  -5.264975e+01
  -3.701498e+02  -3.327110e+02
   3.726886e+01  -4.585628e+02
   3.766309e+02  -4.183267e+02
   5.096911e+02  -1.973768e+02
   3.348550e+02   1.589703e+02
  -1.308160e+01   2.236968e+02
  -1.781132e+02   2.442006e+02
  -5.924725e+01  -4.252828e+01
   1.553154e+02  -9.637008e+01
   1.476814e+02   1.571144e+01
   6.501161e+01   1.316840e+02
  -1.641297e+02   1.098556e+02
  -1.686689e+02  -6.121928e+01
   1.814021e+01  -1.459578e+02
   1.850705e+02  -2.125595e-01
   1.302011e+02   2.158483e+02
  -3.014660e+01   3.797245e+02
  -2.708818e+02   2.138996e+02
  -3.305450e+02  -8.473345e+01
  -3.045328e+02  -2.962611e+02
  -4.292551e+01  -3.075281e+02
   5.635010e+01  -1.885200e+02
   1.682938e+02   2.564635e+01
   5.104813e+01   2.278385e+01
  -6.661805e+01  -3.834974e+01
  -1.696349e+01  -1.263456e+02
   1.407945e+02  -1.286443e+02
   1.254597e+02   4.695719e+01
   5.312288e+01   2.235926e+01
  -8.103986e+01   8.007308e+01
  -3.894801e+01  -7.775945e+01
   1.249902e+02  -6.610407e+01
   2.868510e+02   1.475638e+01
   2.018559e+02   1.758472e+02
   5.672284e+01   2.702935e+02
  -1.682771e+02   3.179282e+02
  -3.063005e+02   8.315663e+01
  -1.292525e+02  -3.076137e+01
   4.228824e+01  -7.312550e+01
   8.501078e+01   2.173594e+01
  -1.233110e+02   4.586451e+01
  -1.240237e+02   2.399585e-01
  -1.830775e+02  -1.384086e+02
  -7.099961e+01  -1.817179e+02
   7.488712e+01  -1.682626e+02
   8.405006e+01  -5.082525e+01
   8.332909e+01   4.578191e+01
  -9.266193e+01  -3.033508e+01
  -2.422082e+01  -1.315817e+02
   8.940739e+01  -1.628286e+02
   2.408278e+02  -3.547376e+01
   1.557731e+02   1.746092e+02
   1.894103e+01   2.422460e+02
  -1.347338e+02   1.361388e+02
  -1.665066e+02  -1.757655e+01
  -7.386338e+01  -1.252508e+02
   9.261324e+01  -1.797433e+02
   7.887035e+01  -7.935936e-01
   9.997393e+00   8.083987e+00
  -7.934924e+01   1.053480e+02
  -4.927178e+01   7.499685e+00
   1.078845e+02   7.899580e+01
   7.971035e+01   7.305089e+01
   4.821583e+00   1.698439e+02
  -1.816179e+02   1.395880e+02
  -2.504265e+02   2.927373e+01
  -2.066278e+02  -2.086136e+02
  -2.954962e+01  -2.604488e+02
   8.012116e+01  -1.675375e+02
   1.348548e+02  -3.493268e+01
   4.000266e+01   1.035259e+02
   5.295612e+01   4.539068e+01
   9.128115e+00  -4.266295e+01
   7.635960e+01  -5.927065e+01
   3.815536e+01   1.014822e+02
  -4.250422e+01   2.862732e+01
  -1.571519e+02   3.071213e+00
  -7.377650e+01  -5.825413e+01
   2.068115e+01  -1.473149e+02
   1.764713e+02  -1.224143e+02
   1.046877e+02   2.675903e+01
   6.651441e+01   2.437643e+02
  -1.618636e+02   2.814358e+02
  -2.788177e+02   9.162279e+01
  -2.950374e+02  -1.391081e+02
  -3.590423e+01  -1.946213e+02
   8.407716e+01  -1.688251e+02
   5.755530e+01  -6.759676e+01
   1.142333e+02  -5.301088e+01
   4.908898e+01  -9.826218e+01
   1.826474e+02  -7.410086e+01
   1.365635e+02   2.394650e+01
   1.429620e+02   1.723958e+02
  -1.459134e+00   1.929816e+02
  -9.155057e+01   2.126688e+02
  -2.216268e+02   2.915570e+01
  -1.052742e+02  -1.212493e+02
   4.249523e+00  -2.210331e+02
   9.529821e+01  -8.860847e+01
   7.663847e+01   1.197718e+01
   3.163437e+01   3.299849e+01
  -4.623172e+01   2.193249e+01
  -2.170640e+01  -2.392400e+01
   5.888632e+01  -2.057814e+01
   5.641909e+01   5.064975e+01
  -1.078727e+02   1.813212e+01
  -1.570381e+02   6.126145e+00
  -1.919728e+02  -1.050585e+02
  -1.672613e+01  -1.082407e+02
   1.424590e+02  -4.074688e+01
   2.030145e+02  -3.016989e+01
   3.899960e+01   8.579063e+01
  -3.736408e+01   3.042373e+01
  -8.114116e+01   2.555792e+01
   3.225050e+01  -9.717219e+01
   4.005768e+01  -6.832204e+01
   1.118388e+02  -2.171294e+01
   3.440804e+01   8.340652e+01
   1.203643e+02   8.873802e+01
   6.275687e+01  -2.850752e+01
   1.111255e+02   4.339594e+01
   2.709315e+00   8.404462e+01
  -4.421283e+01   1.415136e+02
  -1.240768e+02   1.374809e+02
  -1.811296e+02   5.723696e+01
  -1.165570e+02  -6.685059e+01
  -2.506454e+01  -1.718356e+02
   9.466352e+01  -3.728478e+01
   9.981792e+01   1.475645e+01
  -6.518601e+01   3.727563e+01
  -1.176140e+02  -5.419503e+01
  -1.425283e+02  -1.451888e+02
   5.827682e+01  -1.433667e+02
   1.581375e+02  -9.030712e+01
   1.810468e+02   1.109975e+01
   1.774904e+01   8.069326e+01
  -4.931274e+01   8.513409e+01
  -5.018431e+01   4.267569e+01
   2.103730e+01  -5.995766e+01
   1.231217e+02  -2.543238e+01
  -1.863988e+01   1.328656e+02
  -1.099814e+02   1.695494e+02
  -1.591695e+02   1.347918e+01
  -1.086249e+02  -1.365539e+02
  -6.834505e+00  -2.006879e+02
   1.012850e+02  -1.927218e+02
   6.456413e+01  -2.076691e+01
   9.200312e+01   8.605936e+01
  -2.501661e+01   4.334291e+01
  -5.271251e+01  -4.770841e+01
   3.913704e+01  -5.443956e+01
   2.214447e+00   7.789873e+00
   8.756426e+00  -6.938098e-01
  -1.410161e+01   1.825380e+01
  -5.049322e+01  -3.445212e+01
  -7.627625e+00  -3.207266e+01
  -4.551794e+00  -5.625072e+01
   1.425301e+02   2.181246e+01
   1.005718e+02   7.204565e+01
  -5.623225e+00   4.111813e+01
  -1.736148e+01   1.498544e+01
  -1.472187e+02  -1.413720e+01
  -1.208716e+01  -3.596417e+01
  -6.920375e+00  -4.196723e+01
  -1.218976e+01  -5.890540e+00
  -9.069512e+00   2.786287e+00
   1.843483e+01   4.839618e+01
   9.049389e+01  -1.550211e+01
   8.751119e+01   2.156163e+01
  -2.541192e+00   7.540617e+01
  -9.067547e+01   1.307596e+02
  -2.446631e+02   7.381142e+01
  -1.693596e+02  -9.529630e-01
  -3.334238e+01  -1.531871e+02
   5.011142e+01  -1.919391e+02
   1.270404e+02  -2.638282e+01
   9.772231e+01   1.368265e+00
  -5.099087e+01   1.989824e+01
  -2.961825e+00   8.783895e-01
   4.064791e+01   4.829333e+01
   8.025591e+01   3.227889e+01
  -9.089127e+00   4.541212e+01
   5.601531e+00   1.004683e+02
  -1.138349e+02   3.854462e+00
  -4.795810e+01  -1.031747e+02
  -1.960776e+01  -5.599537e+01
   9.430404e+01  -1.249641e+01
   6.140715e+01   1.242915e+02
   2.773099e+01   1.398192e+02
  -3.231792e+01   8.193272e+01
  -1.357699e+02  -6.898502e+00
  -8.078380e+01  -2.387736e+01
   2.736349e+01  -3.489806e+01
   6.262230e+00  -1.528754e+01
  -7.114219e+01   4.725063e+01
  -6.372527e+00  -2.192758e+01
  -3.477759e+01  -3.188063e+01
   6.446496e+01  -8.171046e+01
   1.108678e+02  -5.512321e+01
   6.763415e+01  -1.740237e+01
  -2.543055e+01   5.987917e+01
  -1.705297e+01   4.867401e+01
  -1.083332e+02   2.463928e+01
   2.293397e+01  -3.985361e+01
  -1.323153e+01  -6.875136e+01
   2.640202e+01   5.117241e+00
  -3.950608e+00   4.761554e+01
  -4.738221e+01   5.512470e+01
  -4.715553e+01  -6.571614e+01
  -4.035380e+01  -5.194818e+00
  -8.613833e+00  -8.375603e+00
  -4.841810e+01  -1.787553e+01
   1.482125e+01   2.557501e+01
   3.798962e+00  -4.793055e+00
   4.629633e-01  -2.064490e+01
   4.111497e+01  -5.373864e+01
  -2.267147e+01   3.162425e+01
   3.734137e+01   2.997474e+01
  -1.213130e+01  -3.721993e+01
  -1.225444e+02  -5.885601e+01
  -1.043104e+02  -9.258406e+01
   5.594089e+01  -3.106519e+01
   1.021412e+02   5.173844e+01
   1.839736e+01   1.302417e+01
   5.260723e+00   9.278643e+01
  -3.730079e+01   6.482413e+01
  -4.126646e+00   1.661897e+01
   5.199676e+01  -3.454350e+00
   3.818155e+01   7.145188e+01
  -7.106253e+01   7.285462e+01
  -1.221710e+02   5.397663e+01
