
 $NMID
 id='ANONYMOUS ', fmtdat='(2E16.6)'
 volume=1.0
 tramp=1.0
 $END
   4.525668e+03  -3.284917e+01
   2.647649e+03   2.771062e+03
  -8.564582e+02   2.868500e+03
  -2.219279e+03   8.913177e+02
  -9.761339e+02  -7.714762e+02
   7.622080e+02  -6.195203e+02
   9.206419e+02   4.613702e+02
  -5.358961e+00   1.157656e+03
  -8.977451e+02   7.825462e+02
  -9.522238e+02  -1.345272e+02
  -4.047675e+02  -8.593724e+02
   3.006038e+02  -9.314081e+02
   6.728532e+02  -1.393490e+02
   3.542355e+02   7.901235e+02
  -3.486707e+02   7.762682e+02
  -6.812695e+02  -1.530128e+01
  -2.375443e+02  -7.550726e+02
   3.587450e+02  -7.200676e+02
   6.489483e+02  -7.145041e+01
   4.249546e+02   3.373334e+02
   2.738315e+01   4.266969e+02
  -2.659745e+02   2.505042e+02
  -2.172793e+02   5.632202e+01
   1.103930e+02  -9.189907e+01
   4.574410e+02   1.272925e+02
   2.071787e+02   4.994821e+02
  -4.494071e+02   4.458721e+02
  -8.681897e+02  -3.541148e+01
  -4.812079e+02  -5.927618e+02
   3.456857e+02  -5.232571e+02
   7.866544e+02   3.063824e+01
   3.763572e+02   5.055523e+02
  -2.721166e+02   5.280800e+02
  -6.053752e+02   2.225611e+02
  -4.200998e+02  -2.896514e+02
  -5.122534e+01  -5.396167e+02
   2.263099e+02  -2.946927e+02
   2.243065e+02   2.153220e+02
  -1.657423e+02   4.570228e+02
  -5.144907e+02  -1.558338e+01
  -2.824236e+02  -7.702494e+02
   3.121587e+02  -7.163917e+02
   6.374716e+02   3.065995e+01
   3.473073e+02   6.046094e+02
  -3.095736e+02   3.416767e+02
  -4.130689e+02  -3.270126e+02
   4.231320e+01  -6.071353e+02
   6.209519e+02  -1.292392e+02
   5.858543e+02   4.112062e+02
   1.298913e+02   6.148123e+02
  -3.912816e+02   3.677444e+02
  -6.415205e+02  -9.646463e+01
  -3.250040e+02  -4.276254e+02
   1.628322e+02  -3.919754e+02
   4.774366e+02  -6.724846e+01
   2.316729e+02   2.414360e+02
  -1.681405e+02   1.210105e+02
  -1.660652e+02  -1.659156e+02
   2.318899e+02  -1.494068e+02
   4.200777e+02   9.284648e+01
   1.313399e+02   3.274118e+02
  -1.757614e+02   2.903308e+02
  -3.510075e+02   9.613108e+01
  -1.777664e+02  -6.747716e+01
   3.692174e+01  -1.790178e+02
   2.473677e+02  -3.622138e+02
   3.260925e+02  -2.640881e+02
   2.890554e+02   1.975788e+02
   1.041332e+02   4.719594e+02
  -9.407774e+01   4.669174e+02
  -1.421638e+02   1.159498e+02
  -1.784649e+01  -3.739820e+01
  -1.663086e+01   5.645293e+01
  -1.664766e+02   1.852579e+02
  -2.709365e+02  -2.241736e+01
  -2.062582e+02  -2.546143e+02
   4.140738e+00  -3.035694e+02
   2.739018e+02   1.676747e+01
   2.365500e+02   1.963291e+02
  -3.568212e+01   2.399770e+02
  -2.086812e+02   1.943301e+02
  -3.319746e+02  -1.536982e+02
  -1.644027e+02  -3.546612e+02
   6.308250e+01  -3.512061e+02
   2.531548e+02  -1.540873e+02
   1.548145e+02  -5.271829e+01
   8.117199e+01  -3.077919e+01
   2.506540e+02  -5.041768e+01
   4.295829e+02   2.659280e+01
   3.694597e+02   3.136592e+02
  -2.086143e+01   4.707125e+02
  -3.757711e+02   4.313542e+02
  -4.928279e+02   1.813984e+02
  -3.242367e+02  -1.348706e+02
  -1.396813e+02  -2.372329e+02
   1.240126e+02  -2.675847e+02
   8.246354e+01  -1.283879e+00
  -1.039912e+02   1.383696e+02
  -2.525418e+02   5.481339e+00
  -9.030571e+01  -2.445973e+02
   1.731907e+02  -2.571161e+02
   2.216978e+02   3.698068e+01
   2.816555e+00   2.406998e+02
  -1.942212e+02   2.316067e+01
  -1.149960e+02  -2.667533e+02
  -6.330930e+00  -3.851727e+02
   2.141537e+02  -2.633503e+02
   3.208467e+02   5.441753e+01
   2.044340e+02   1.863472e+02
   1.035387e+02   2.706089e+02
  -8.565434e+01   1.796326e+02
  -1.936780e+02   2.958932e+01
  -5.593480e+01  -6.643314e+00
   5.702012e+01   3.934893e+01
   3.623643e+01   1.133848e+02
  -1.207405e+02   1.381921e+02
  -2.167670e+02   4.682373e+01
  -6.576182e+01  -6.436434e+01
   8.050335e+01   3.622780e+01
   4.027075e+01   4.903400e+01
  -1.900593e+02   1.361342e+02
  -2.796144e+02   7.863012e+00
  -2.513450e+02  -9.556450e+01
  -9.089358e+01  -2.839619e+02
   2.026747e+02  -2.241430e+02
   2.946840e+02  -1.374064e+02
   9.964109e+01   5.250524e+01
  -7.885059e+01   9.009424e+01
  -1.376865e+02  -2.511204e+01
   3.026419e+00  -1.080834e+02
   2.471073e+02  -3.537252e+01
   2.279060e+02   1.720837e+02
   9.663938e+01   2.531882e+02
  -7.180146e+00   1.737175e+02
  -1.689963e+02  -1.590736e+01
  -1.123779e+02  -5.553837e+01
  -1.714788e+01  -9.321560e+00
   4.788832e+00   1.130229e+02
  -3.044000e+01   1.338315e+02
  -1.736773e+02   6.257486e+00
  -1.536627e+02  -1.509451e+02
  -5.005201e+01  -2.363558e+02
   1.209922e+02  -1.646769e+02
   1.245157e+02  -6.008555e+01
   3.950827e+01   9.530535e+01
  -7.974784e+01   1.172073e+02
  -1.105389e+02   4.292293e+01
  -2.535915e+01   1.356689e+01
   7.350787e+00  -1.488589e+01
  -5.897024e+01   1.371360e+01
  -5.510147e+01  -9.311727e-01
  -2.243701e+01  -1.050143e+02
  -3.786127e+01  -1.854563e+02
   1.439103e+02  -1.724375e+02
   2.016110e+02  -8.449682e+00
   1.166704e+02   1.728100e+02
   3.524846e+01   2.968819e+02
  -1.604810e+02   1.912488e+02
  -1.195531e+02   3.386528e+01
  -4.462818e+01  -6.931151e+01
  -3.791941e+01   2.749230e+01
  -5.998992e+01  -2.188446e+01
  -1.194598e+02   1.191822e+01
  -5.888473e+01  -8.925207e+01
   1.978480e+01  -1.072783e+02
   5.124729e+01  -7.111694e+01
   1.129620e+02  -9.319049e+00
  -3.795204e+01   8.809044e+01
  -1.431200e+02   9.743634e+01
  -1.939071e+02  -5.226135e+01
  -1.462616e+02  -1.888751e+02
   7.995661e+01  -2.481439e+02
   2.510883e+02  -1.051718e+02
   2.830778e+02   1.458449e+02
   1.080610e+02   1.737917e+02
  -5.184705e+01   1.034024e+02
  -7.842520e+01   8.409974e+01
  -2.570455e+01   2.295471e+01
  -1.223589e+02   1.034159e+02
  -1.022366e+02   1.824374e+01
  -1.072906e+02  -7.111842e+00
  -9.377980e+01  -1.711778e+02
  -2.904286e+01  -2.020090e+02
   1.317728e+02  -1.665006e+02
   1.796600e+02  -4.244535e+01
   1.150880e+02   1.199487e+02
  -3.823940e+01   1.152429e+02
  -1.210850e+02   1.400077e+02
  -4.512282e+01  -2.287835e+01
  -2.373187e+01  -3.777070e+01
  -3.717084e+00  -3.817366e+01
  -7.034905e+00   4.295365e+00
  -1.151764e+02  -2.408652e+01
  -5.235197e+01  -2.735508e+01
   8.377705e+01   1.178876e+01
   1.512359e+02  -2.345253e+00
   8.708243e+01   1.933171e+01
  -3.531149e+01   9.951946e+01
  -7.146661e+01   6.822234e+01
  -1.697398e+02   2.081769e+01
   3.728101e+00  -7.569819e+01
   6.210883e+01  -7.496291e+01
   1.450735e+02   2.773526e+01
   1.278751e+01   3.050093e+01
   4.306228e+01   3.288568e+01
  -4.660349e+01   1.072438e+01
  -2.511884e+01  -7.566004e+01
  -5.343239e+00  -5.172459e+01
  -3.544735e+01  -1.107481e+01
  -5.791590e+01  -1.626191e+01
   1.259073e+01  -9.268414e+01
   5.536550e+00  -1.842334e+02
   1.302217e+02  -1.597046e+02
   2.139138e+02  -3.082002e+01
   1.176803e+02   1.841000e+02
   1.915394e+01   1.366235e+02
  -1.347338e+02   6.966330e+01
  -1.174195e+02   1.716125e+01
   6.260191e+01  -2.571155e+01
   1.778629e+02   8.003714e+01
   9.771860e+01   1.574396e+02
  -1.390722e+02   1.297939e+02
  -1.701418e+02   1.967570e+01
  -2.270731e+02  -2.075456e+01
  -5.200026e+01  -3.027367e+01
   4.642759e+01  -6.606603e+01
   2.832680e+01  -3.524825e+01
  -1.017860e+02  -1.117751e+01
  -6.673197e+01  -3.219110e+01
  -3.300024e+01  -1.698819e+02
   8.525295e+01  -1.439150e+02
   1.900447e+02  -6.555928e+01
   1.443782e+02   1.080999e+02
   2.581874e+01   2.333746e+02
  -4.135300e+01   1.351862e+02
  -1.541826e+02   4.070480e+01
  -5.962194e+01  -1.367241e+02
  -3.357906e+01  -9.907976e+01
   4.859768e+01  -2.155728e+01
   4.726133e+01   5.277269e+01
  -1.333466e+01   3.517736e+00
  -5.419501e+01  -6.269009e+01
   7.835083e+01   1.130406e+01
   8.406425e+01   8.022970e+00
   2.805112e+01   6.540254e+01
  -3.066352e+01   4.206775e+01
  -1.437316e+02   3.207404e+01
  -9.625773e+01  -7.879365e+01
  -4.406880e+01  -5.034420e+01
   4.265501e+01   3.068746e+01
   8.316002e+01   4.646082e+01
  -2.234434e+01  -2.079953e+01
  -1.834958e+01   4.737663e+01
  -3.226612e+01   3.385810e+01
   4.538159e+01   2.272253e+01
  -3.065982e+00  -1.049311e+01
  -1.109475e+02   3.364431e+01
  -3.925494e+01  -3.516623e+01
   1.066141e+01  -5.589607e+01
   1.194100e+02  -7.648125e+01
   1.592517e+02  -1.102331e+02
   1.735591e+02   5.273969e+01
   3.001582e+01   1.539306e+02
  -5.535883e+01   1.377542e+02
  -1.388855e+02   8.673589e+01
  -7.898813e+01  -3.322684e+01
  -8.719606e+01  -3.051277e+01
   4.011264e+01  -2.302849e+01
   3.638380e+01  -9.004021e+00
  -4.845422e+01  -2.955431e+01
  -4.793542e+00  -6.441183e+01
  -3.881518e+00  -1.046731e+02
   7.682176e+01  -3.340741e+01
   5.730949e+01   6.428564e+01
   5.690275e+01   1.330367e+02
  -3.996590e+01   2.124401e+01
  -9.367211e+01  -6.334431e+01
  -3.640012e+01  -1.010952e+02
   8.935610e+01  -5.799291e+01
   6.179862e+01  -6.981658e+00
  -1.305530e+01   5.356121e+01
  -5.570227e+01   6.505859e+01
  -1.397485e+01   8.487458e+01
   8.111753e+01   2.788863e+01
   7.915021e+01  -1.363419e+01
  -2.097088e+01  -7.036977e+01
  -1.401617e+02   3.762950e+01
  -9.427414e+01   6.559173e+01
  -8.331183e+01  -2.407873e+01
   2.722423e+01  -5.697560e+01
   4.310834e+01  -5.728561e+01
  -3.538343e+01   7.825034e+00
   3.302902e+01   4.606205e+01
  -1.099700e+01  -1.021241e+01
  -6.022442e+01   1.153628e+01
  -7.290342e+00  -2.151169e+01
   1.066800e+01  -1.336118e+01
   6.525510e+00  -1.542782e+01
   3.060505e+00   5.249586e+01
   3.839562e+01  -4.716873e+01
   1.769299e+00  -3.601593e+00
   1.876312e+01   7.996796e+00
   4.897026e+00   4.883296e+01
   1.103667e+01   2.435127e+01
  -8.372286e+01   3.479900e+01
  -2.557346e+01  -6.038365e+01
   9.150705e+01  -5.876839e+01
   1.585040e+01  -5.036434e+00
  -3.888969e+01   4.973068e+00
  -3.805397e+01   1.259658e+02
  -1.083889e+02   5.468232e+00
  -1.230762e+02   1.947586e+01
  -5.875415e+01  -6.029309e+01
  -5.115940e+00   3.256491e-01
   6.777349e+01   5.183867e+01
   8.134425e+01   3.805159e+01
  -1.360608e+01  -4.866784e+00
  -1.642268e+01  -6.013957e+01
  -1.276740e+01  -3.845945e+01
   8.783658e+01  -1.836469e+01
