
 $NMID
 id='ANONYMOUS ', fmtdat='(2E16.6)'
 volume=1.0
 tramp=1.0
 $END
   3.034312e+03   7.927973e+01
   1.917428e+03   1.714432e+03
  -2.240601e+02   1.903738e+03
  -1.293759e+03   9.596283e+02
  -8.251018e+02  -2.266727e+01
   1.322129e+02  -2.476434e+02
   3.995575e+02   1.795065e+02
   2.861756e+01   5.892090e+02
  -4.934026e+02   5.104580e+02
  -6.158314e+02  -5.583322e+01
  -3.439565e+02  -5.518093e+02
   5.921701e+01  -5.557178e+02
   3.123660e+02  -1.500070e+02
   1.889697e+02   4.448643e+02
  -1.958204e+02   5.245972e+02
  -4.338490e+02   3.752349e+01
  -2.418913e+02  -4.114089e+02
   1.402317e+02  -5.132946e+02
   4.342324e+02  -1.607722e+02
   3.579119e+02   1.945843e+02
   6.823757e+01   3.256413e+02
  -9.896138e+01   1.927438e+02
  -6.848505e+01   2.363327e+01
   1.639318e+02   3.131238e+01
   2.511451e+02   2.235759e+02
   9.474468e+01   3.613553e+02
  -3.617912e+02   1.393838e+02
  -5.779120e+02  -1.780428e+02
  -2.070976e+02  -3.793758e+02
   3.459663e+02  -2.832383e+02
   4.991559e+02   6.593208e+01
   2.318676e+02   3.701199e+02
  -2.278188e+02   3.526957e+02
  -4.415946e+02   1.637411e+02
  -3.444244e+02  -1.363039e+02
  -5.613666e+01  -2.785788e+02
   5.657801e+01  -1.777342e+02
   7.985773e+01   9.095908e+01
  -1.937738e+02   2.427376e+02
  -2.008384e+02  -9.367458e+01
  -4.801246e+01  -4.721573e+02
   3.039830e+02  -4.049992e+02
   3.548374e+02   4.256794e+01
   1.055555e+02   3.458907e+02
  -1.615847e+02   1.217730e+02
  -1.996857e+02  -2.432331e+02
   1.253117e+02  -3.660776e+02
   4.363556e+02  -8.051311e+01
   4.512313e+02   3.077024e+02
   1.531276e+02   4.797110e+02
  -1.975228e+02   2.069412e+02
  -4.867043e+02  -8.196259e+01
  -3.054667e+02  -2.662571e+02
   7.149689e+01  -2.479776e+02
   3.179413e+02  -6.701992e+01
   1.477702e+02   6.304533e+01
  -8.752821e+01   5.039330e+01
  -9.575464e+01  -2.437990e+01
   1.313007e+02  -7.518225e+01
   2.263342e+02   3.450629e+01
   1.504522e+02   2.025936e+02
  -1.370754e+02   2.092358e+02
  -3.099953e+02   9.912184e+01
  -2.055944e+02  -4.228944e+01
  -3.865782e+01  -2.891552e+02
   2.001989e+02  -3.069788e+02
   2.785140e+02  -1.651192e+02
   2.371328e+02   1.535816e+02
  -2.963369e+00   3.760034e+02
  -5.682447e+01   2.651104e+02
  -8.874960e+01   1.041375e+02
  -4.993214e+01   7.044927e+01
  -8.265864e+01   1.090631e+02
  -2.475953e+02   7.981883e+01
  -2.507507e+02  -7.865936e+01
  -1.433925e+02  -2.220423e+02
   7.907772e+01  -1.839668e+02
   1.736292e+02   5.215821e+01
   1.191054e+02   2.196885e+02
   2.559054e+00   2.043689e+02
  -2.100156e+02   1.018444e+02
  -3.128643e+02  -1.661453e+02
  -1.852127e+02  -2.817020e+02
   8.600822e+01  -2.609336e+02
   2.053349e+02  -1.604121e+02
   1.586538e+02   7.281388e-01
   1.257655e+02  -1.200651e+02
   2.101620e+02  -7.149628e+01
   3.160996e+02   9.767168e+01
   2.970440e+02   2.913017e+02
  -4.687860e+01   3.980057e+02
  -3.479271e+02   3.129358e+02
  -3.980579e+02   1.193985e+02
  -2.714518e+02  -9.401709e+01
   8.273253e+00  -2.166251e+02
   1.298079e+02  -2.323742e+02
   1.039758e+01  -4.487507e+01
  -1.530567e+02   9.949358e+01
  -1.159367e+02  -2.233975e+01
   6.437357e+01  -1.660517e+02
   1.495851e+02  -8.852785e+01
   9.120185e+01   5.279124e+01
  -8.423646e+01   1.505389e+02
  -1.284428e+02   1.221172e+01
  -1.604890e+02  -2.260951e+02
   4.507707e+01  -2.960794e+02
   2.196053e+02  -2.498414e+02
   3.091732e+02   5.271174e+01
   2.347976e+02   2.382350e+02
   1.415218e+01   2.678644e+02
  -1.237713e+02   1.378214e+02
  -1.368559e+02   4.350842e+01
  -3.292708e+01   1.031664e+01
   2.732969e+01   2.730350e+01
  -4.809493e+01   7.530944e+01
  -7.764794e+01   3.406334e+01
  -1.321684e+02  -5.627759e+00
  -6.500707e+01  -2.485173e+01
   7.518131e+01  -4.359564e+01
  -1.565547e+01   1.157408e+02
  -7.749054e+01   9.569625e+01
  -2.677942e+02  -2.838715e+01
  -2.190999e+02  -1.492334e+02
  -3.638174e+00  -2.174927e+02
   1.160412e+02  -2.636649e+02
   2.797365e+02  -8.247051e+01
   1.052670e+02   1.665453e+01
  -5.569918e+01   1.200451e+02
  -1.919305e+01   1.122438e+01
   2.538013e+01  -7.012761e+01
   1.588430e+02   2.472644e+01
   2.327088e+02   1.496443e+02
   6.749180e+01   1.515231e+02
  -3.754868e+01   1.441997e+02
  -1.003548e+02   3.031810e+01
  -4.190484e+01  -4.594732e+01
  -1.509718e+01  -8.290920e-01
   2.437416e+01   1.041953e+02
  -8.720872e+01   5.011554e+01
  -1.378077e+02  -1.946585e+01
  -2.085479e+02  -1.735480e+02
   3.555486e+01  -2.120940e+02
   1.858444e+02  -8.460433e+01
   1.550511e+02  -2.419135e+01
   1.141350e+01   7.124997e+01
  -8.642259e+01   9.466980e+01
  -3.129677e+01   4.197559e+01
  -2.392219e+01   7.877723e+00
  -2.935081e+00  -2.693813e+01
   5.057549e+00   5.087103e+01
  -1.276969e+01  -7.077972e+00
  -7.726319e+01  -7.373030e+01
  -8.347322e-01  -2.370082e+02
   1.125811e+02  -1.847641e+02
   1.743700e+02   7.699835e+00
   1.429054e+02   9.082124e+01
   7.037452e+00   2.315173e+02
  -4.172826e+01   8.064653e+01
  -1.445751e+02   4.686740e+01
  -7.048364e+01  -2.508008e+01
  -4.686782e+01  -1.292711e+01
  -4.403356e+01  -5.242010e+00
  -6.862983e+01   2.769782e+01
  -7.349076e+01  -5.528311e+01
   2.691144e+01  -1.177328e+02
   1.321130e+02  -1.349151e+02
   5.340858e+01   1.588167e+01
  -2.225858e+01   1.834860e+02
  -1.358103e+02   3.822216e+01
  -1.543908e+02  -2.767883e+01
  -9.573797e+01  -1.765405e+02
   1.219333e+02  -1.733533e+02
   2.547416e+02  -6.759806e+01
   1.278386e+02   8.799871e+01
   8.550402e+01   9.523735e+01
  -3.701328e+01   9.863150e+01
  -1.374475e+02   9.930022e+01
  -8.374011e+01   1.676029e+01
  -2.655146e+01   8.237912e+01
  -4.815571e+01   4.826864e+01
  -9.488532e+01   3.348901e+01
  -1.117371e+02  -1.370801e+02
  -1.333480e+01  -1.828607e+02
   3.429084e+01  -1.140759e+02
   1.063355e+02   1.784606e+01
   1.329238e+02   1.288769e+02
   3.025917e+01   9.852570e+01
  -6.196108e+01   3.445522e+01
  -1.574118e+01  -5.651698e+00
   2.134755e+01  -6.667986e+01
   3.155298e+00  -6.490571e+01
  -5.418315e+01  -1.383212e+01
  -8.954305e+01   2.157546e+01
  -3.639597e+01  -6.574498e+00
   9.492274e+01  -3.087992e+01
   1.298018e+02   2.720158e+01
   5.236363e+01   6.277055e+01
   4.490172e+01   4.650066e+01
  -1.417236e+02   8.419312e+01
  -1.021406e+02   9.419396e+00
  -3.212777e+01  -3.138824e+01
   3.714650e+01  -4.613619e+00
   7.088057e+01  -3.645968e+01
  -3.047628e+01   1.343749e+02
  -2.041273e+01   4.622224e+01
  -5.185658e+01  -6.829260e+00
  -1.560826e+01  -8.982460e+01
  -4.312621e+01  -6.754185e+01
  -6.992588e+01   4.627267e+01
  -4.899793e+01  -5.498702e+01
  -8.494595e+01  -3.653484e+01
   4.880550e+01  -1.784704e+02
   1.132751e+02  -1.041032e+02
   1.490813e+02  -6.897069e+01
   1.151529e+02   2.556490e+01
   1.087049e+01   8.951912e+01
  -8.699340e+01   4.475251e+01
  -4.201221e+01  -2.092315e+01
   1.256437e+01  -1.973430e+01
   8.467291e+01   1.155420e+01
   5.500662e+01   9.873644e+01
  -1.476336e+02   9.057124e+01
  -1.534856e+02   2.303521e+01
  -1.557725e+02  -1.974670e+01
  -1.631312e+01  -8.931025e+01
   3.795182e+01  -5.056229e+01
   9.215468e+01   6.640235e+00
   1.760790e+01   1.822836e+01
  -9.149180e+01  -1.596649e+01
  -1.644688e+01  -5.925164e+01
   8.413677e+01  -1.424817e+02
   1.294753e+02  -8.955615e+01
   1.338293e+02   1.368857e+02
   6.415009e+00   1.940095e+02
  -4.219294e+01   8.450176e+01
  -1.153992e+02  -1.866568e+01
  -4.203728e+01  -9.568117e+01
   2.952558e+00  -9.244950e+01
   8.804361e+01  -5.432769e+01
   8.381175e+01   1.627157e+01
  -1.526358e+01   7.097905e+00
  -4.717741e+01   2.994850e+01
   3.135241e+01   2.977866e+01
   3.238425e+01   9.859142e+01
   8.597714e+01   8.573508e+01
  -1.555033e+01   4.114698e+01
  -1.482702e+02   7.184883e+00
  -7.109869e+01  -6.197723e+01
  -6.578542e+01  -4.282409e+01
   4.630259e+01  -3.882898e+01
   5.566283e+01  -3.960554e+01
   4.598211e+01  -1.837872e+01
  -3.235870e+01   1.599328e+01
  -3.594663e+01   3.104304e+00
   1.551315e+01   2.623215e+01
  -4.578284e+01   8.172482e-01
  -1.395243e+02  -1.341704e+01
  -8.259914e+01   1.876815e+01
   1.204222e+01  -8.469890e+01
   7.942506e+01  -1.050915e+02
   1.505064e+02  -7.075168e+01
   1.249373e+02   3.157853e+01
   4.767078e+01   1.479010e+02
  -1.217735e+02   1.109654e+02
  -1.424386e+02   4.536945e+01
  -7.423678e+01  -2.699067e+01
  -3.591558e+01  -4.288731e+01
   3.551724e+01  -3.115857e+01
  -4.536076e+01   2.985628e+01
  -4.858127e+01  -5.536956e+01
   3.783058e+01  -9.827268e+01
   3.250783e+01   1.203496e+01
   7.692084e+01  -8.125712e-02
   9.136046e+01   1.320050e+02
  -2.319596e+01   8.397093e+01
  -4.547246e+01   2.199299e+01
  -5.585672e+01  -1.184981e+01
  -5.292623e+00  -8.908468e+01
   1.085051e+02  -3.988308e+01
   8.158211e+01  -4.651132e+01
  -1.383209e+01   1.591212e+01
  -3.542201e+01   5.460958e+01
  -3.487425e+01  -5.564854e+01
   1.047134e+00  -3.466158e+01
   5.421551e+01   9.064712e+00
  -2.683770e+01  -2.600367e+01
  -4.681829e+01   6.643943e+01
  -1.501128e+02   3.497079e+01
  -3.781202e+01  -2.607158e+01
   5.984976e+00  -7.968181e+01
   4.320206e+01  -9.545485e+01
   7.721683e+01   3.821676e+01
   3.781731e+01   4.579466e+01
  -2.226266e+01   5.175682e+01
  -3.876941e+01   4.786943e+01
  -2.594118e+01  -8.416089e-01
  -1.153303e+01  -6.254349e+01
  -3.609014e+00   2.208938e+01
   6.301108e+00   3.588880e+01
   3.836348e+01   2.676759e+01
  -3.632174e+01   2.656577e+01
  -2.815933e+01   7.052548e+01
  -5.362205e+01   6.428638e+01
  -2.844119e-01   3.516528e+01
  -4.314358e+01  -3.668112e+01
   5.728887e+00  -7.340948e+00
  -7.118747e+01  -6.804934e+01
   2.661040e+01   9.583160e+00
   1.015176e+02   2.502944e+01
   4.617985e+01   6.085215e+01
  -4.833394e+01   2.487293e+01
  -8.219623e+01   3.085698e+01
  -4.658357e+01  -7.545560e+01
   6.680589e+01  -3.984192e+01
  -2.616982e+00  -6.929988e+01
   9.342228e+01  -2.048298e+01
  -7.117068e+01  -2.533446e+01
   1.806784e+01   1.671750e+00
  -2.658771e+01   1.083133e+01
   7.299716e+01  -3.781754e+00
