
 $NMID
 id='ANONYMOUS ', fmtdat='(2E16.6)'
 volume=1.0
 tramp=1.0
 $END
   3.947143e+03  -4.238456e+00
   2.347011e+03   2.185589e+03
  -4.508942e+02   2.498852e+03
  -1.701890e+03   9.773212e+02
  -9.148602e+02  -3.460330e+02
   4.310518e+02  -3.402642e+02
   6.693642e+02   2.896199e+02
  -9.875214e+00   8.925090e+02
  -6.667064e+02   6.534346e+02
  -8.027155e+02  -2.797654e+01
  -4.537986e+02  -7.274484e+02
   1.335786e+02  -7.950029e+02
   5.047481e+02  -1.356822e+02
   3.398923e+02   6.187604e+02
  -2.893237e+02   7.135164e+02
  -5.202911e+02   2.802933e+01
  -2.874099e+02  -6.757090e+02
   2.841486e+02  -6.375560e+02
   5.427273e+02  -2.196201e+02
   4.261280e+02   2.902205e+02
   1.342016e+02   3.959889e+02
  -2.039516e+02   2.514157e+02
  -2.097932e+02   4.012820e+01
   2.160781e+02  -1.084074e+01
   3.576064e+02   1.592683e+02
   1.421972e+02   3.455252e+02
  -4.730500e+02   3.275722e+02
  -7.314494e+02  -1.116326e+02
  -3.384302e+02  -5.250212e+02
   3.340104e+02  -3.898063e+02
   6.920420e+02   5.816090e+01
   2.933201e+02   4.308355e+02
  -3.319756e+02   4.366513e+02
  -5.270759e+02   1.525082e+02
  -4.296583e+02  -2.030525e+02
  -4.794157e+01  -3.593465e+02
   1.221678e+02  -2.070645e+02
   1.099542e+02   2.162139e+02
  -2.186920e+02   3.288012e+02
  -4.261401e+02  -5.714440e+01
  -1.992115e+02  -6.280313e+02
   3.054883e+02  -6.141313e+02
   4.950228e+02   3.817088e+01
   1.422672e+02   4.721184e+02
  -2.746643e+02   2.519082e+02
  -3.386103e+02  -3.572499e+02
   2.906359e+01  -4.522077e+02
   5.057172e+02  -1.246929e+02
   5.656680e+02   3.810303e+02
   1.714442e+02   5.509581e+02
  -3.321673e+02   3.464338e+02
  -5.712445e+02  -3.853368e+01
  -3.449813e+02  -3.403453e+02
   7.088401e+01  -2.869254e+02
   3.877624e+02  -3.973542e+01
   2.001110e+02   1.552025e+02
  -1.170478e+02   9.351355e+01
  -8.298232e+01  -8.484736e+01
   2.023397e+02  -1.395788e+02
   3.170735e+02   1.777846e+01
   1.552526e+02   3.307180e+02
  -1.745022e+02   3.239665e+02
  -3.662460e+02   9.563660e+01
  -2.240335e+02  -9.187284e+01
   2.813017e+01  -2.892340e+02
   2.891393e+02  -3.079254e+02
   3.537510e+02  -2.057071e+02
   2.223464e+02   1.514308e+02
   8.386525e+01   3.659192e+02
   2.570180e+01   4.215913e+02
  -8.200164e+01   1.352032e+02
  -5.214335e+01  -1.448752e+01
  -4.245362e+01   1.151476e+02
  -2.047122e+02   5.488733e+01
  -2.716289e+02  -1.072941e+02
  -1.241326e+02  -1.806277e+02
   9.060652e+01  -2.837688e+02
   1.947983e+02  -5.468919e+01
   1.741771e+02   2.622267e+02
  -4.359806e+01   2.377479e+02
  -2.504570e+02   6.291493e+01
  -3.694300e+02  -1.262192e+02
  -1.451576e+02  -3.214533e+02
   5.906002e+01  -2.918584e+02
   2.045130e+02  -6.815787e+01
   2.517066e+02  -8.952288e+01
   1.171752e+02  -2.830084e+01
   3.002925e+02  -7.980695e+01
   4.657039e+02   5.885494e+01
   3.444817e+02   3.243404e+02
  -6.879317e+01   4.651098e+02
  -3.536217e+02   4.507655e+02
  -4.800225e+02   1.950036e+02
  -3.127978e+02  -1.111887e+02
  -9.959794e+00  -2.801835e+02
   6.245858e+01  -2.801162e+02
   9.297591e+01  -6.323387e-01
  -9.775117e+01   9.582148e+01
  -1.913838e+02   3.154556e+01
  -2.351194e+01  -2.010997e+02
   1.586453e+02  -1.732858e+02
   8.551626e+01   3.061770e+01
  -6.636291e+01   1.998999e+02
  -1.888753e+02   3.732572e+01
  -1.306205e+02  -1.863568e+02
  -5.334702e+01  -3.903843e+02
   2.457093e+02  -2.286543e+02
   3.308142e+02   5.790043e+01
   3.070466e+02   1.959794e+02
   1.022867e+02   2.538718e+02
  -8.722019e+01   1.573421e+02
  -1.783666e+02   2.662674e+01
  -5.666950e+01  -1.748839e+01
   1.366101e+01   2.844703e+01
   2.910489e+01   8.574060e+01
  -1.285177e+02   1.352370e+02
  -1.480312e+02  -2.130889e-01
  -2.412008e+01  -7.960884e+01
   8.222506e+01  -5.623040e+01
   1.083122e+02   2.206126e+01
  -1.272532e+02   7.157156e+01
  -3.297170e+02   1.041554e+00
  -2.681137e+02  -1.239728e+02
  -5.532753e+01  -2.063873e+02
   1.911974e+02  -2.208098e+02
   3.302423e+02  -1.313788e+02
   1.758955e+02   7.738841e+01
  -7.063804e+01   9.383375e+01
  -3.596464e+01  -3.497006e+01
   4.089526e+01  -5.204995e+01
   2.008280e+02  -6.863481e+01
   2.200896e+02   7.818803e+01
   8.674176e+01   2.182144e+02
  -5.492786e+01   1.205741e+02
  -1.320188e+02   4.570036e+01
  -8.263338e+01  -2.828695e+01
   8.026119e+01   3.129326e+01
  -6.983923e+00   8.729540e+01
  -8.347749e+01   1.092976e+02
  -2.068945e+02   6.945298e+01
  -2.004613e+02  -4.765181e+01
  -9.115116e+01  -2.032310e+02
   1.276232e+02  -1.232866e+02
   1.979844e+02  -1.947488e+01
   9.621694e+01   1.108044e+02
  -7.190172e+01   5.556135e+01
  -8.466878e+01   2.176053e+01
   1.963964e+01  -3.463449e+01
   3.225760e+01   1.482780e+01
  -4.391922e+01   3.626621e+00
  -4.790674e+01   2.592151e+01
  -1.028495e+02  -1.592942e+02
  -5.351649e+01  -1.452867e+02
   1.547658e+02  -1.556103e+02
   2.176377e+02  -4.080225e+01
   1.971312e+02   1.349617e+02
   6.377559e+01   2.123732e+02
  -9.574766e+01   1.813054e+02
  -1.100765e+02  -2.574603e+00
  -8.117729e+01  -1.035845e+02
   3.508914e+01   3.009425e+00
  -4.299539e+01   2.212601e+01
  -1.320654e+02  -5.022523e+00
  -6.863173e+01  -4.107995e+01
   8.283125e+01  -1.558758e+02
   1.500362e+02  -1.707907e+01
   8.761915e+01   2.420438e+01
  -5.591776e+01   1.621220e+02
  -1.383517e+02   8.006684e+01
  -2.092006e+02  -3.006248e+01
  -1.297660e+02  -1.739179e+02
   9.242595e+01  -2.417847e+02
   2.389257e+02  -1.052754e+02
   2.510848e+02   6.620069e+01
   1.347995e+02   1.726065e+02
   1.550482e+01   1.889925e+02
  -5.105478e+01   6.983052e+01
  -8.528762e+01   1.875934e+01
  -1.341664e+02   1.035824e+02
  -1.102090e+02   1.342187e+02
  -8.975883e+01   2.006787e+01
  -7.788632e+01  -1.294278e+02
  -1.806259e+01  -1.696236e+02
   8.220821e+01  -1.856916e+02
   1.075435e+02  -4.972153e+01
   1.590920e+02   1.619158e+02
   9.971031e+00   1.621885e+02
  -8.823053e+01   1.190123e+02
   3.589030e+00   2.930877e+00
  -2.928663e+01  -3.788697e+01
   4.944958e+01  -4.204237e+01
  -5.645293e+01  -1.806679e+01
  -5.091951e+01  -2.288041e+01
  -2.026615e+01  -4.691672e+01
   8.232996e+01  -1.108315e+01
   1.476107e+02   3.487960e+01
   1.767363e+02   6.199139e+01
   2.577511e+01   8.436158e+01
  -2.097829e+02   6.230627e+01
  -1.765725e+02   4.603457e+01
  -1.191465e+02  -3.608064e+01
   9.551745e+01  -2.067562e+01
   1.403125e+01  -8.763337e+00
   2.387892e+01   6.336134e+01
  -1.307995e+01   1.784557e+01
  -7.466012e+01  -4.020108e+00
  -1.079855e+02  -8.500370e+01
  -3.514077e+01   1.983601e+00
  -3.716223e+01   2.601004e+01
  -5.347318e+01  -3.683329e+01
  -3.687331e+01  -8.289172e+01
   3.901958e+00  -1.486362e+02
   7.014737e+01  -1.550446e+02
   1.575430e+02   1.592121e+01
   1.536277e+02   2.824451e+01
   4.235987e+01   1.466846e+02
  -6.822153e+01   4.310415e+01
  -5.113125e+01   4.574055e+01
   4.971822e+01  -2.277032e+01
   1.060728e+02   1.871685e+01
   9.169726e+01   1.242661e+02
  -7.382998e+01   1.422406e+02
  -2.044220e+02   5.525246e+01
  -1.656607e+02  -9.465410e+01
  -3.287200e+01  -7.063982e+01
   7.304543e+01  -8.855202e+01
   5.474138e+00   6.642294e+01
  -3.587328e+01  -1.021179e+01
  -8.745830e+01  -2.183327e+01
  -4.441730e+01  -1.232565e+02
   7.866226e+01  -1.206514e+02
   1.603067e+02  -1.082540e+02
   8.704249e+01   9.587526e+01
   2.245282e+01   1.966818e+02
  -1.143690e+02   1.765932e+02
  -1.433572e+02   1.525534e+01
  -8.491354e+01  -1.006562e+02
   1.576668e+01  -1.516277e+02
   4.593446e+01   9.694122e+00
   3.997760e+01   3.428451e+01
   3.285636e+01  -8.918470e+00
  -1.247019e+01  -6.741351e+01
   2.064470e+01   3.047596e+00
   8.809204e+01   1.276570e+02
   3.585126e+01   7.211325e+01
  -4.402081e+01   6.154483e+01
  -1.520465e+02  -2.855102e+00
  -1.525946e+02  -4.266589e+01
  -4.116056e+00  -6.485422e+01
   7.969468e+01   1.287872e+01
   7.766623e+01  -4.984639e+01
  -1.316506e+01  -5.148172e+01
  -7.673774e+01   4.343130e+01
  -6.381185e+01  -2.128113e+01
   1.194765e+01  -4.313842e+01
  -5.547356e+01  -3.499007e+01
  -1.285493e+02   2.147822e+00
  -1.496183e+02   2.436243e+01
  -3.042228e+01  -9.757371e+01
   6.568862e+01  -8.671883e+01
   2.102630e+02  -7.425548e+01
   1.652653e+02   8.179833e+01
   6.739280e+01   1.263915e+02
  -1.032926e+02   1.498844e+02
  -1.350919e+02   3.005779e+01
  -5.534886e+01  -1.073300e+01
   2.318346e+01  -8.067474e+01
  -1.137126e+01  -6.313262e+01
   2.964473e+01  -1.618522e+01
  -6.069450e+01  -4.774685e+01
  -1.084160e+01  -7.108843e+01
   5.668387e+01  -2.676930e+01
   1.215750e+02  -1.999205e+01
   4.886006e+01   1.127524e+02
   6.107483e+00   1.464569e+02
  -7.269311e+01   1.141726e+01
  -9.894205e+01  -1.092641e+02
  -5.157568e+01  -9.102527e+01
   1.212643e+02  -5.724784e+01
   6.904857e+01  -4.680896e+01
   7.099438e+01  -1.132355e+01
  -5.215654e+01   1.299976e+01
  -3.738543e+01   4.246532e+01
   4.964993e+01   5.820167e+01
   4.343437e+01  -9.212145e+00
   3.235145e+01   5.792267e+01
  -1.327138e+02   3.202031e+01
  -1.218765e+02   4.132037e+01
  -7.124358e+01   2.923773e+00
  -3.059780e+01  -4.105904e+01
   1.492206e+01  -1.173541e+02
   5.201589e+01  -4.399050e+01
  -1.209442e+01   8.071031e+01
  -2.802427e+01   6.510066e+01
  -4.785490e+01  -4.147886e+01
  -4.049307e+01  -8.856192e+01
  -4.918742e+01  -7.261148e+01
   9.453679e+01   2.959376e+01
   2.191815e+01   2.506526e+01
   1.061571e+01   3.274454e+01
  -7.999377e+00  -2.952773e+00
  -7.283418e+00  -6.154167e+01
  -2.146372e+01   4.349871e+01
  -9.837973e+00   2.423876e+01
  -3.166285e+01  -3.168962e+00
  -5.364186e+00  -1.391935e+01
  -2.697161e+01  -4.978804e+01
   6.816263e+01  -4.930042e+01
   3.741587e+01   7.370546e+01
   2.046613e+01   2.049065e+01
  -1.256045e+02   6.591605e+01
  -1.328176e+02   8.309443e-01
  -8.436449e+00  -1.293263e+01
   4.787195e+01  -5.495048e+01
   2.524532e+01  -3.948315e+01
   4.047681e+01   8.805073e+00
  -1.160010e+01   2.038742e+01
  -5.682125e+01   6.115697e+00
   2.318453e+01  -5.232252e+01
   3.344611e+01  -9.267913e+00
