
 $NMID
 id='ANONYMOUS ', fmtdat='(2E16.6)'
 volume=1.0
 tramp=1.0
 $END
   3.388961e+03  -1.033994e+02
   2.376960e+03   1.704396e+03
   2.712106e+01   2.206357e+03
  -1.385260e+03   1.313921e+03
  -1.030941e+03   1.400462e+02
  -5.533766e+01  -3.073081e+02
   4.665783e+02   1.118800e+02
   5.729872e+01   6.189803e+02
  -4.112897e+02   6.335851e+02
  -7.547748e+02   6.535945e+01
  -4.443020e+02  -5.701333e+02
   2.681657e+01  -7.260531e+02
   3.471834e+02  -1.714876e+02
   3.018456e+02   4.055957e+02
  -1.663219e+02   5.828907e+02
  -4.087038e+02   4.860838e+01
  -3.549421e+02  -4.772484e+02
   9.249271e+01  -6.735828e+02
   5.357732e+02  -2.920817e+02
   4.755920e+02   1.662156e+02
   1.021047e+02   3.998258e+02
  -9.883623e+01   2.542397e+02
  -1.191334e+02   8.404134e+01
   1.395686e+02   8.741111e+01
   2.525096e+02   2.857085e+02
   3.320085e+01   3.076630e+02
  -4.889546e+02   2.218141e+02
  -5.939098e+02  -1.308814e+02
  -3.001815e+02  -3.048484e+02
   3.323763e+02  -2.758266e+02
   5.076635e+02   1.102885e+02
   2.319921e+02   3.952161e+02
  -2.434420e+02   3.498077e+02
  -4.181924e+02   1.384077e+02
  -3.282302e+02  -1.386680e+02
  -1.062408e+02  -3.262351e+02
   5.322303e+01  -2.447580e+02
   1.256148e+01   1.006403e+02
  -1.624777e+02   2.498579e+02
  -2.753528e+02  -2.629125e+01
  -1.185365e+02  -4.851585e+02
   2.450932e+02  -4.661953e+02
   3.667608e+02  -4.659435e+01
   1.995512e+02   2.906660e+02
  -1.726067e+02   1.469617e+02
  -2.254284e+02  -2.402046e+02
   8.770532e+01  -3.751191e+02
   4.811721e+02  -7.091572e+01
   5.254705e+02   3.617080e+02
   1.883204e+02   5.012882e+02
  -2.490927e+02   2.822207e+02
  -5.423804e+02  -1.003806e+02
  -3.148150e+02  -2.504047e+02
   9.805877e+01  -2.901583e+02
   3.456575e+02  -6.160880e+01
   2.489016e+02   4.651522e+01
   1.688131e+00   5.999728e+01
  -7.562759e+01  -4.901466e+01
   5.582032e+01  -8.185680e+01
   3.088147e+02   9.392872e+01
   1.763142e+02   2.431484e+02
  -1.767175e+02   2.553251e+02
  -3.233066e+02   1.447889e+02
  -1.854216e+02  -1.243256e+02
   2.526154e+01  -3.004707e+02
   3.111612e+02  -3.662942e+02
   3.642115e+02  -1.470037e+02
   2.500282e+02   2.258403e+02
   4.878666e+01   3.308186e+02
  -3.185760e+01   3.446115e+02
  -1.101188e+01   1.787700e+02
  -6.287059e+01   6.750032e+01
  -1.808183e+02   9.124323e+01
  -2.893759e+02   1.424892e+02
  -2.385970e+02  -1.503922e+02
  -1.159884e+02  -2.573448e+02
   8.008675e+01  -1.750240e+02
   1.853311e+02   5.160380e+01
   6.648325e+01   2.287011e+02
   1.253065e+01   2.835018e+02
  -2.377156e+02   8.382350e+01
  -3.804574e+02  -8.313622e+01
  -2.090566e+02  -2.869398e+02
   2.133781e+01  -2.802687e+02
   2.069736e+02  -1.573071e+02
   1.535936e+02  -7.382191e+01
   1.497918e+02  -1.080435e+02
   3.336024e+02  -4.235418e+01
   3.874620e+02   7.296462e+01
   2.985350e+02   3.420940e+02
   2.493046e+00   4.550367e+02
  -4.028307e+02   4.215129e+02
  -4.990736e+02   2.434584e+02
  -2.970174e+02  -1.109044e+02
  -5.933071e+01  -2.117253e+02
   5.464846e+01  -2.116176e+02
   7.915074e+00  -3.733692e+01
  -1.066332e+02   4.875620e+00
  -1.300648e+02   1.276665e+00
   6.098505e+01  -2.073403e+02
   5.694162e+01  -1.139291e+02
   1.272165e+02   6.868877e+01
  -1.574462e+01   1.562107e+02
  -1.981683e+02   9.413609e+00
  -1.607280e+02  -2.209835e+02
  -4.777731e+01  -3.453370e+02
   2.691632e+02  -2.203299e+02
   3.164787e+02   5.103045e+01
   3.011636e+02   2.544322e+02
   8.239986e+01   2.750476e+02
  -1.256531e+02   1.834591e+02
  -2.148716e+02   3.917376e+01
  -2.624952e+00   3.653386e+00
   7.779187e+01   8.339721e+01
   3.731599e+01   8.503789e+01
  -1.198510e+02   9.127484e+01
  -1.935336e+02  -4.583977e+01
  -6.171343e+01  -1.449296e+02
   5.943910e+01  -7.089733e+00
   6.291386e+01   8.903079e+01
  -1.767331e+02   1.668776e+02
  -3.170022e+02  -2.118967e+00
  -2.985810e+02  -1.292782e+02
   1.324906e+01  -2.550435e+02
   1.709255e+02  -2.530178e+02
   2.814589e+02  -1.524302e+02
   1.340656e+02   3.610050e+01
  -1.323215e+01   6.753843e+01
  -7.581384e+01  -1.735058e+01
   2.599460e+01  -1.163241e+02
   1.982477e+02  -4.229283e+01
   2.116106e+02   1.306851e+02
   7.211384e+01   1.225065e+02
  -6.832410e+01   1.039158e+02
  -1.581939e+02   6.212255e+01
  -8.296038e+01  -3.886427e+01
   3.250006e+01   2.691989e+01
   7.789799e+01   1.114899e+02
  -8.976256e+01   7.927201e+01
  -2.001156e+02   3.268402e+01
  -2.284267e+02  -5.075855e+01
  -2.665453e+01  -1.921629e+02
   1.396127e+02  -1.989472e+02
   1.477948e+02  -1.056477e+01
   8.115007e+01   9.048955e+01
  -6.471372e+01   9.900650e+01
  -6.534503e+01   3.649045e+01
  -3.528524e+01   5.713337e+00
   4.081150e+01  -4.564842e+01
  -8.811760e+00   4.514197e+01
  -1.328247e+02   1.872248e+01
  -8.112914e+01  -6.872702e+01
   4.289370e+01  -1.989607e+02
   1.662616e+02  -2.156292e+02
   2.943041e+02  -1.492589e+01
   2.297049e+02   1.331782e+02
   5.268332e+00   2.375629e+02
  -1.149723e+02   1.501160e+02
  -1.363210e+02  -3.927595e+00
  -1.300640e+02  -7.903674e+01
  -1.601075e+01   1.640996e+01
  -3.778664e+01   7.295490e+00
  -5.034657e+01  -4.109613e+01
  -9.391180e+01  -8.114531e+01
   2.212976e+01  -7.378221e+01
   1.254154e+02  -4.401736e+01
   1.176243e+02   5.917066e+01
   2.043301e+00   1.722234e+02
  -1.516279e+02   1.285751e+02
  -2.078390e+02  -7.107792e+01
  -1.543323e+02  -1.936434e+02
   1.880264e+02  -2.637077e+02
   2.447426e+02  -6.327575e+01
   3.354942e+02   1.574292e+02
   1.644330e+02   1.709332e+02
   2.083745e+01   1.391250e+02
  -6.868206e+01   1.300537e+02
  -9.528787e+01   1.366970e+02
  -3.692935e+01   8.929827e+01
  -1.365627e+02   2.073289e+01
  -1.666034e+02  -4.906291e+01
  -1.118306e+02  -1.564138e+02
  -3.683041e+01  -2.405481e+02
   1.234220e+02  -2.263476e+02
   1.515167e+02  -3.016430e-01
   1.016993e+02   1.724335e+02
  -6.359340e+01   1.043559e+02
  -1.603461e+01   1.218574e+02
  -4.798313e+01   6.257639e+00
   1.586191e+01  -9.358118e+01
   4.533617e+00  -1.181832e+01
   7.209961e+00   3.572537e+01
  -1.198199e+02  -4.161872e+01
  -8.979513e+01  -1.485956e+01
   5.000187e+01  -8.883684e+00
   1.461387e+02  -1.657415e+01
   1.688035e+02   8.103953e+01
   9.900779e+00   8.669152e+01
  -1.369411e+02   6.160094e+01
  -1.709998e+02   3.298861e+01
  -5.029209e+01  -6.263687e+01
   2.089017e+01  -3.326095e+01
   8.134854e+01   3.283207e+01
   5.107396e+01   1.021054e+02
  -4.608877e+01   8.160800e+01
  -4.389695e+01  -2.738149e+01
  -2.924416e+01  -7.994069e+01
   8.958327e-01  -4.060787e+01
  -7.515152e+01  -2.666511e+01
  -1.010196e+02  -2.052938e+01
  -1.135239e+02  -7.712129e+01
   2.734902e+01  -2.408482e+02
   1.544261e+02  -1.978834e+02
   1.758643e+02  -5.668275e+01
   1.563586e+02   1.379005e+02
  -2.071878e+01   1.514493e+02
  -6.262368e+01  -1.398670e+01
  -6.095536e+01  -1.693365e+01
   2.538043e+01  -3.007749e+01
   1.086225e+02  -1.089320e+01
   7.995710e+01   1.754513e+02
  -7.062946e+01   1.043102e+02
  -1.462448e+02   3.909360e-01
  -1.151157e+02  -6.846946e+00
  -5.513198e+01  -6.453323e+01
   1.934915e+01  -2.915214e+01
   8.041763e+01   1.433890e+01
  -1.130292e+01  -6.009693e+00
  -1.499746e+02  -3.935294e+01
  -7.278273e+00  -1.347289e+02
   1.068136e+02  -1.861257e+02
   2.398660e+02  -6.555493e+01
   1.436574e+02   8.847516e+01
  -3.277085e+01   2.299201e+02
  -7.699526e+01   1.198926e+02
  -1.299985e+02  -4.982694e+01
  -1.052293e+02  -1.275620e+02
   4.654793e+01  -1.248000e+02
  -1.977493e+01   1.526197e+01
   5.692062e+01   5.952673e+01
   3.381372e+01   3.092214e+01
   6.110870e+01  -3.488027e-01
   1.039698e+01   2.268913e+01
   5.573602e+01   1.351920e+02
   6.568647e+01   1.284548e+02
   7.366103e+00   2.630973e+01
  -8.596618e+01  -4.862500e+01
  -1.702421e+02  -7.527476e+01
  -9.745639e+01  -6.728016e+01
   9.958585e+01  -5.561414e+01
   6.256215e+01  -1.532926e+01
   6.456375e+01   1.562978e+01
  -2.844647e+01   6.638974e+01
   3.509069e+01   8.052736e+00
  -3.388655e+01  -3.275960e+01
  -6.247487e+01  -2.559353e+01
  -3.694763e+01   3.170374e+01
  -9.101254e+01   2.089003e+01
  -1.148571e+01  -5.341208e+01
   8.974953e+01  -6.490616e+01
   2.058483e+02  -8.782804e+01
   1.820463e+02   5.285822e+01
   2.238801e+01   1.702719e+02
  -4.749364e+01   1.766595e+02
  -1.196078e+02   7.352363e+01
  -5.571373e+01  -1.595635e+01
  -4.415367e+01  -6.714142e+01
   3.477946e+01  -1.640111e+00
   3.239298e+01   6.072178e+00
   3.176666e+01  -4.094881e+01
  -7.324025e+01  -1.120636e+02
   1.542100e+01  -3.057231e+01
   6.456673e+01  -3.564142e+01
   6.533558e+01   7.831641e+01
  -1.568494e+01   1.083578e+02
  -8.106364e+01   2.933485e+01
  -1.279353e+02  -8.251731e+01
  -5.779214e+01  -1.252666e+02
   7.183141e+01  -7.785314e+01
   9.562647e+01   1.845922e+01
   9.525360e+01   2.768689e+01
   1.286345e+00   6.539642e+01
  -4.894468e+01   3.219889e+01
   3.915464e+01  -1.414101e+01
   7.346495e+01   4.530114e+01
   4.310784e+01   4.053337e+01
  -5.227691e+01   8.816239e+01
  -1.439927e+02   2.910129e+01
  -8.572152e+01  -1.996331e+01
  -7.569486e+00  -1.277698e+02
  -1.233260e+01  -8.516854e+01
   1.213858e+02  -7.836506e+01
   7.061883e+00   1.602644e+01
  -4.862657e+01   4.956618e+01
  -2.322339e+01   8.589648e+00
   1.238368e+01  -8.596796e+01
   2.135002e+01  -6.592231e+01
   5.469892e+01  -5.839099e+00
   2.992944e+01   2.233838e+01
   6.201695e+01   5.554500e+01
  -2.630511e+01   1.085308e+01
   5.104836e+01   8.794937e+00
  -4.259397e+00   6.490416e+01
  -4.919209e+01   8.399571e+01
  -3.713229e+01   3.651039e+01
  -1.235198e+01  -6.251647e+01
  -1.946078e+00  -4.996812e+01
   1.301571e+02  -5.069918e+01
   3.600975e+01   1.006476e+01
   6.776103e+01   1.045207e+02
  -5.192859e+01   4.314527e+01
  -1.034391e+02  -4.397327e+01
  -8.638339e+01   7.482773e+00
   8.409941e+01  -8.386478e+01
   1.047079e+02  -1.473215e+00
   7.172992e+01  -5.584674e+01
   6.472765e+00   2.392510e+01
  -3.354605e+01  -4.179157e+01
   5.413201e+00  -4.119597e+01
   8.367497e+01  -7.247853e+00
