
 $NMID
 id='ANONYMOUS ', fmtdat='(2E16.6)'
 volume=1.0
 tramp=1.0
 $END
  -4.784365e+03  -6.019760e+01
  -2.731492e+03  -2.984139e+03
   9.299322e+02  -3.022531e+03
   2.405984e+03  -8.897285e+02
   9.972060e+02   8.132590e+02
  -7.588010e+02   6.921870e+02
  -9.961430e+02  -5.168565e+02
   2.231212e+01  -1.237927e+03
   9.325536e+02  -8.203406e+02
   1.104508e+03   1.327493e+02
   4.457688e+02   9.463188e+02
  -3.492761e+02   9.263214e+02
  -7.281020e+02   1.169233e+02
  -4.183726e+02  -7.867543e+02
   3.271997e+02  -7.674221e+02
   7.001568e+02   2.789078e+00
   2.864802e+02   7.393633e+02
  -4.032086e+02   6.574293e+02
  -6.454195e+02   1.039967e+02
  -3.907878e+02  -3.420587e+02
   5.870625e+00  -5.215255e+02
   2.676628e+02  -2.187606e+02
   2.787022e+02  -2.677504e+01
  -1.211366e+02   1.066194e+02
  -4.529581e+02  -7.827002e+01
  -2.372998e+02  -4.488241e+02
   4.532179e+02  -4.369222e+02
   9.037250e+02   1.003221e+02
   4.963555e+02   6.761750e+02
  -4.253152e+02   5.031341e+02
  -8.603330e+02  -1.221308e+01
  -3.973959e+02  -5.401694e+02
   3.321556e+02  -5.115453e+02
   6.061618e+02  -2.006257e+02
   3.874269e+02   2.162610e+02
   5.463433e+01   4.932452e+02
  -2.538359e+02   3.334867e+02
  -1.728243e+02  -2.842465e+02
   1.951641e+02  -4.777974e+02
   4.967195e+02  -6.403714e-02
   2.567623e+02   7.345601e+02
  -3.579357e+02   7.678211e+02
  -6.548709e+02  -3.621689e+01
  -2.806015e+02  -6.530629e+02
   2.767340e+02  -3.016995e+02
   4.379791e+02   3.609438e+02
  -1.007457e+02   5.947032e+02
  -6.329494e+02   1.505212e+02
  -6.197579e+02  -4.644579e+02
  -9.923571e+01  -5.899480e+02
   4.361222e+02  -3.840718e+02
   6.967889e+02   6.439801e+01
   3.684060e+02   4.351490e+02
  -1.807806e+02   4.295617e+02
  -5.116318e+02   6.078556e+01
  -2.296652e+02  -2.339528e+02
   1.620332e+02  -1.194491e+02
   1.375694e+02   1.818893e+02
  -1.444242e+02   2.310619e+02
  -3.515156e+02  -9.750188e+01
  -1.607263e+02  -3.468876e+02
   3.011531e+02  -2.720136e+02
   3.792218e+02  -3.135363e+01
   1.987708e+02   1.006759e+02
  -9.588826e+01   2.373161e+02
  -2.630527e+02   3.522738e+02
  -3.367067e+02   2.338784e+02
  -3.089666e+02  -1.477547e+02
  -4.492567e+01  -4.820049e+02
   1.395576e+02  -4.399237e+02
   1.854275e+02  -1.029801e+02
   2.922109e+01   1.352863e+01
  -1.221295e+01  -1.026299e+02
   1.977916e+02  -1.524266e+02
   2.762641e+02   5.596581e+01
   2.103280e+02   2.751425e+02
  -8.062235e+01   3.657664e+02
  -2.499548e+02  -4.093431e+01
  -2.229363e+02  -2.846245e+02
  -2.114938e+01  -3.790225e+02
   3.401961e+02  -1.269496e+02
   3.636825e+02   2.044549e+02
   2.471671e+02   4.127735e+02
  -1.485022e+02   3.828281e+02
  -2.495944e+02   1.452942e+02
  -2.074073e+02   2.741449e+01
  -9.854142e+01   4.151985e+01
  -2.476944e+02   2.006856e+01
  -4.062626e+02  -6.401813e+01
  -3.513738e+02  -3.030576e+02
  -1.095737e+01  -4.458517e+02
   4.004778e+02  -4.656125e+02
   4.708042e+02  -2.425500e+02
   3.846148e+02   9.858543e+01
   4.286007e+01   2.761371e+02
  -1.796094e+02   2.749723e+02
  -1.066000e+02   6.923607e+01
   1.292155e+02  -1.232371e+02
   2.317334e+02   1.816624e+01
   5.033294e+01   2.113866e+02
  -1.671747e+02   1.720741e+02
  -1.847912e+02  -9.777226e+01
  -4.780717e+00  -2.364818e+02
   1.639504e+02  -1.594659e+01
   2.265851e+02   2.128143e+02
  -4.590689e+01   4.045677e+02
  -2.644159e+02   1.789310e+02
  -3.144004e+02  -1.202564e+02
  -2.577198e+02  -2.448006e+02
  -9.952925e+01  -2.791907e+02
   1.178501e+02  -1.542643e+02
   2.203549e+02  -5.582236e+01
   3.804126e+01   1.459578e+01
  -6.793637e+01  -4.492408e+01
  -7.874181e+01  -9.900923e+01
   1.777418e+02  -1.696319e+02
   1.779874e+02  -4.324303e+01
   9.062737e+01   1.138999e+02
  -1.251624e+02   6.142096e+01
  -3.016064e+01  -8.457522e+01
   9.451365e+01  -6.883431e+01
   2.761647e+02  -3.877651e+01
   2.335008e+02   1.170158e+02
   1.238207e+02   2.423339e+02
  -2.227878e+02   3.543424e+02
  -3.149438e+02   1.472226e+02
  -1.961517e+02  -7.171407e+01
   3.815741e+01  -4.905309e+01
   1.770845e+02   1.318353e+00
  -1.313955e+01   1.253865e+02
  -2.201629e+02   4.368389e+01
  -2.418735e+02  -1.070108e+02
  -4.871239e+01  -1.792308e+02
   1.268063e+02  -2.077510e+02
   1.560750e+02  -1.809904e+01
   1.001862e+02  -1.515969e+01
   2.881246e+01  -2.244307e+01
  -8.547535e+01  -5.591553e+01
   3.235567e+01  -8.096623e+01
   1.964940e+02  -4.208477e+01
   2.161988e+02   1.778790e+02
   3.748997e+01   2.128149e+02
  -1.629070e+02   1.205627e+02
  -2.058138e+02  -2.531493e+01
  -1.478226e+02  -1.380861e+02
   6.417243e+01  -8.129928e+01
   6.269184e+01  -3.606135e+01
  -2.866010e+01   2.548162e+01
  -2.368662e+01   7.544635e+01
   3.872611e+01  -1.060699e+01
   3.574246e+01  -1.961186e+01
   8.196431e+01   1.010857e+02
   2.451357e+01   1.667439e+02
  -9.009176e+01   1.560970e+02
  -2.311458e+02   4.079532e+01
  -1.883398e+02  -1.259427e+02
  -2.598991e+01  -2.819417e+02
   1.181347e+02  -1.731346e+02
   2.170312e+02  -2.124625e+01
   5.077174e+01   5.227955e+01
   2.013405e+01   2.065608e+01
   6.680742e+01   3.917124e+01
   6.690286e+01  -8.720122e+00
   7.148176e+01   5.072666e+01
  -1.012875e+02   1.013229e+02
  -1.324668e+02  -3.308440e+01
  -8.022171e+01  -9.502900e+01
   2.439942e+01  -8.672833e+01
   1.601407e+02  -8.934704e+01
   2.726765e+02  -1.333950e+01
   7.115538e+01   1.937406e+02
  -9.425677e+01   2.413206e+02
  -3.086151e+02   8.852946e+01
  -2.938889e+02  -1.186310e+02
  -1.080781e+02  -1.943209e+02
   6.858587e+01  -1.304748e+02
   6.142090e+01  -8.334705e+01
   6.702479e+01  -5.632394e+01
   9.787043e+01  -1.017560e+02
   9.699009e+01  -6.577893e+01
   1.374119e+02  -4.857706e+00
   1.495483e+02   1.576912e+02
   4.025783e+01   2.494318e+02
  -8.664537e+01   1.731036e+02
  -2.653096e+02   4.865939e-01
  -1.288663e+02  -6.546189e+01
  -6.767928e+01  -1.397295e+02
   1.020211e+02  -1.099895e+02
  -1.469381e+01   2.332532e+01
   4.770448e+01   3.544851e+01
   9.932603e+00  -6.369574e+00
   6.008789e+01  -1.085809e+01
   9.747848e+01   1.081770e+01
   6.138567e+01   2.757651e+01
  -4.286072e+01   7.725452e+01
  -1.439173e+02  -9.550818e+00
  -1.411376e+02  -7.670701e+01
  -6.137613e+01  -9.571363e+01
   1.096874e+02  -8.471784e+01
   1.724501e+02   6.206507e-01
   8.819401e+01   7.195198e+01
   1.728926e+01   6.486093e+01
  -5.937086e+01  -5.262016e+01
   6.795273e+01  -1.036388e+02
   4.219271e+01  -6.673279e+01
   6.686634e+01   2.314883e+01
   2.719666e+01   1.538171e+01
   3.670536e+01   2.059025e+01
   9.310636e+01   2.776797e+01
   3.373778e+01   1.066698e+01
   5.394815e+01   1.134933e+02
  -1.330882e+01   1.773646e+02
  -9.042149e+01   1.474347e+02
  -1.314504e+02   4.080952e+01
  -9.849143e+01  -5.796743e+01
  -7.742906e+01  -1.680664e+02
   1.146084e+02  -8.488681e+01
   2.418272e+01   6.312826e+01
  -7.638659e+01   2.984171e+01
  -1.650531e+02  -2.178687e+01
  -9.688233e+01  -8.773049e+01
   9.806114e+01  -1.497026e+02
   1.674145e+02  -1.256022e+02
   1.108754e+02   2.889503e+01
   6.680672e+01   1.113501e+02
  -2.750252e+01   9.696565e+01
   9.936650e+00   2.569489e+01
   1.949264e+01  -2.114821e+01
   5.957698e+01   2.911055e+01
   3.009415e+01   8.281796e+01
  -1.246717e+02   1.436251e+02
  -1.495456e+02   1.190202e+01
  -1.258714e+02  -1.433944e+02
  -2.564481e+01  -2.156501e+02
   1.001748e+02  -1.393244e+02
   1.240397e+02  -8.701161e+01
   4.462181e+01   9.279270e+01
   2.621235e+01   1.100177e+02
  -3.533690e+01   6.609882e+01
  -1.036998e+02  -4.639897e+01
  -4.827471e+01  -2.382124e+01
   3.214524e+01  -1.424818e+01
  -1.750538e+01  -1.335298e+01
   1.038983e+01  -7.436159e+01
  -4.793202e+01  -1.129138e+02
   7.975186e+01  -3.323515e+01
   1.007487e+02  -1.010912e+01
   1.632713e+02   9.615552e+01
   8.425914e+00   5.076880e+01
  -9.430634e+01   2.495782e+01
  -1.058464e+02   6.219985e+01
   1.744962e+01  -2.387969e+01
   6.307681e+01  -1.967825e+01
  -2.011750e+01  -4.917572e+01
  -4.860328e+01  -6.420962e+01
   2.900125e+01   3.445362e+01
   9.433485e+01  -2.179552e+01
   7.468061e+01   5.862103e+01
   2.325536e+01   9.077440e+01
  -5.109212e+01   1.657138e+02
  -1.552029e+02   3.300144e+01
  -1.313593e+02  -4.184760e+01
  -3.076025e+01  -1.949403e+02
   6.286033e+01  -1.315485e+02
   1.212507e+02  -2.320726e+01
   1.285786e+02   4.033530e+01
   1.563187e+01   3.846827e+01
  -2.957191e+01   2.358766e+01
  -2.198953e+00  -1.883379e+01
   7.857788e+01   4.129746e+01
   5.784450e+01   5.850571e+01
   1.363289e+00   4.971245e+00
  -9.490417e+01   4.084382e+00
  -1.416090e+02  -1.287216e+02
  -2.313660e+01  -1.633013e+02
   1.205775e+02  -7.720095e+00
   1.085065e+02   8.298088e+01
   3.449394e+01   1.449196e+02
   1.732335e+01   5.370910e+01
  -8.721014e+01   5.272507e-01
   2.528100e+01  -4.385637e+01
   2.841517e+01  -1.780898e+01
   2.814617e+01  -5.062296e+01
   3.901146e+00   4.260095e+01
  -1.172963e+02   1.677205e+01
  -6.235894e+00  -4.352636e+01
   9.739143e+01  -1.264575e+02
   1.173716e+02  -8.572054e+01
   3.343897e+01  -1.302425e+01
  -7.704557e+01   1.146455e+02
  -1.219794e+02   1.106376e+02
  -4.574568e+01  -4.605286e-01
  -5.207353e+00  -7.362048e+01
  -2.515389e+01  -1.568812e+01
  -1.808382e+01   5.337279e+01
   3.334491e+01   2.824708e+01
  -9.751638e+00   1.665635e+00
  -2.088581e+01   2.349456e+01
  -3.098458e+01  -1.918986e+01
  -2.681766e+01  -4.437514e+01
  -9.551265e-01   6.206646e+00
  -4.456510e+01  -6.569299e+00
  -3.061250e+01  -1.166319e+01
  -2.679147e+01  -4.783329e+01
   6.264898e+01   1.113055e+01
   4.695065e+01   4.859447e+01
  -2.114539e+01   7.448231e+01
  -7.577170e+01   4.302867e+01
  -7.324775e+01  -5.401589e+01
   1.132399e+01  -7.851776e+01
   7.856600e+01  -1.160104e+02
   5.836624e+01  -2.114612e+01
   5.628966e+01   4.752189e+01
  -1.571544e+01   2.572452e-01
  -4.909016e+01   4.168594e+01
  -6.428841e+01   2.605101e+01
   9.250445e+01   1.773281e+01
   3.577354e+01   8.260759e+01
  -1.251361e+01   4.329678e+01
  -1.429323e+02  -5.496460e+00
