
 $NMID
 id='ANONYMOUS ', fmtdat='(2E16.6)'
 volume=1.0
 tramp=1.0
 $END
   3.326392e+03  -4.445957e-01
   2.166176e+03   1.789612e+03
  -1.145183e+02   2.150297e+03
  -1.352888e+03   1.105938e+03
  -9.259744e+02   5.462651e+01
   1.285400e+02  -2.723405e+02
   4.703763e+02   1.202428e+02
   1.197700e+01   6.500663e+02
  -5.266939e+02   6.358260e+02
  -6.065524e+02   4.416729e+00
  -4.357920e+02  -6.209306e+02
   2.188131e+01  -6.277372e+02
   3.430335e+02  -2.013904e+02
   2.818919e+02   4.804372e+02
  -1.651242e+02   5.314116e+02
  -4.609426e+02   4.540438e+01
  -2.255970e+02  -5.167188e+02
   1.459945e+02  -6.423298e+02
   4.837913e+02  -2.935623e+02
   4.628961e+02   1.986308e+02
   8.052085e+01   3.528815e+02
  -8.291942e+01   2.651891e+02
  -1.171909e+02  -5.472813e+00
   1.958806e+02   6.814106e+01
   3.222622e+02   2.152422e+02
   3.826108e+01   3.774620e+02
  -4.507209e+02   1.704615e+02
  -6.123113e+02  -9.414577e+01
  -2.754503e+02  -3.782957e+02
   3.456308e+02  -2.062311e+02
   5.070878e+02   1.275669e+02
   2.630366e+02   3.879232e+02
  -2.145700e+02   3.134274e+02
  -4.791191e+02   1.574683e+02
  -2.211114e+02  -2.137307e+02
  -8.406778e+01  -3.107025e+02
   3.408083e+01  -2.088049e+02
  -2.026848e+01   1.077984e+02
  -1.690741e+02   2.089305e+02
  -2.069689e+02  -1.161478e+02
  -1.063799e+02  -4.856857e+02
   2.544523e+02  -5.219432e+02
   3.560635e+02  -5.744888e+01
   1.408426e+02   3.438144e+02
  -1.521931e+02   2.172409e+02
  -2.285650e+02  -2.289345e+02
   9.840098e+01  -4.021572e+02
   4.459308e+02  -6.313250e+01
   4.436302e+02   3.419272e+02
   1.219539e+02   4.217644e+02
  -2.535577e+02   2.653066e+02
  -5.174844e+02  -9.725631e+01
  -3.135260e+02  -2.640799e+02
   4.795540e+01  -2.662902e+02
   3.624760e+02  -8.098399e+01
   1.529887e+02   4.003219e+01
  -3.969155e+01   1.157032e+01
  -8.012597e+01  -8.955765e+01
   7.110789e+01  -1.156748e+02
   2.271381e+02   2.047942e+01
   8.205253e+01   1.933824e+02
  -1.019587e+02   1.862620e+02
  -3.083705e+02   1.490539e+02
  -2.640039e+02  -1.036696e+02
   2.026158e+01  -2.623705e+02
   3.002038e+02  -3.626252e+02
   3.674040e+02  -1.830806e+02
   2.200366e+02   1.768272e+02
   7.809975e+01   3.284849e+02
  -6.059940e+01   2.951544e+02
  -2.753117e+01   1.780258e+02
  -1.923776e+01   1.003418e+02
  -1.079000e+02   7.270854e+01
  -1.658516e+02   6.965846e+01
  -2.105620e+02  -1.534800e+02
  -9.611001e+01  -2.364777e+02
   1.583265e+02  -1.697941e+02
   1.422728e+02   1.041159e+01
   7.215339e+01   2.150425e+02
  -2.986501e+01   1.669501e+02
  -2.048759e+02   8.174231e+01
  -2.856626e+02  -1.350815e+02
  -1.100228e+02  -2.829035e+02
   6.077090e+01  -2.502881e+02
   2.309971e+02  -1.625681e+02
   1.048889e+02  -2.846468e+01
   1.853433e+02  -8.761159e+01
   2.802280e+02  -1.993339e+01
   3.672690e+02   7.317589e+01
   3.173090e+02   2.838591e+02
  -4.358654e+01   4.519907e+02
  -3.603687e+02   3.884586e+02
  -5.266510e+02   1.402390e+02
  -2.401410e+02  -7.380329e+01
  -3.910821e+00  -3.156901e+02
   1.046657e+02  -1.757502e+02
   1.522761e+01  -5.228385e+01
  -1.027043e+02   2.263379e+01
  -1.499743e+02  -1.955924e+01
  -3.318045e+01  -2.346540e+02
   1.313494e+02  -1.295391e+02
   1.152184e+02   3.953671e+01
  -4.770945e+00   1.662172e+02
  -1.061108e+02  -3.796305e+01
  -1.223049e+02  -2.193002e+02
  -6.592704e+00  -3.782614e+02
   2.029947e+02  -2.157002e+02
   3.334466e+02   6.974211e+01
   2.289315e+02   2.244476e+02
   2.384004e+01   2.452268e+02
  -1.561719e+02   1.400923e+02
  -2.121776e+02  -1.935839e+01
  -4.182392e+01  -9.818752e+01
   5.670063e+01   8.248552e+01
  -1.034047e+01   9.073182e+01
  -1.229657e+02   8.371544e+01
  -1.199126e+02  -1.617606e+01
  -3.564957e+01  -5.730055e+01
   8.509909e+01  -5.133899e+01
   7.639754e+01   1.459284e+02
  -6.293090e+01   1.028946e+02
  -2.976981e+02  -2.538938e+01
  -2.476879e+02  -1.978529e+02
   6.720447e+00  -1.843632e+02
   1.998469e+02  -2.161453e+02
   2.552137e+02  -1.038025e+02
   1.399667e+02   6.693611e+01
   2.344481e+01   1.042659e+02
  -5.506216e+01   1.128529e+01
   8.778921e+01  -6.438650e+01
   1.701449e+02  -2.610895e+01
   1.157936e+02   1.211836e+02
   1.580849e+01   1.623486e+02
  -7.963013e+01   1.485108e+02
  -1.078692e+02   8.217983e+00
  -7.929008e+01  -1.439846e+01
  -2.392828e+00   2.122154e+01
   2.072567e+01   1.036781e+02
  -1.069407e+02   1.285986e+02
  -2.098118e+02  -6.668050e+00
  -1.748892e+02  -1.649752e+02
  -2.242229e+01  -2.099185e+02
   1.397837e+02  -1.294180e+02
   2.239378e+02   3.515199e+01
   1.587811e+01   1.197565e+02
  -1.289077e+01   9.722185e+01
  -2.792810e+01   7.752085e+01
  -4.972787e+01  -4.114447e+01
   1.454037e+01  -8.010374e+00
  -6.187801e+01   4.241477e+01
  -5.517439e+01   3.417885e+01
  -7.980607e+01  -7.704269e+01
  -2.000249e+01  -1.055566e+02
   5.351673e+01  -1.195000e+02
   3.002675e+02   2.148518e+01
   1.142695e+02   1.422542e+02
  -1.373435e+01   2.724658e+02
  -1.390851e+02   1.201595e+02
  -1.173267e+02   4.399334e+01
  -8.324262e+01  -4.375729e+01
  -6.281624e+01  -2.483604e+01
  -7.435278e+01   2.045326e+01
  -9.205248e+01   3.757535e+01
  -2.876123e+01  -6.269595e+00
   7.042248e+01  -1.063145e+02
   1.104625e+02  -1.262089e+01
   1.312947e+01   2.657030e+01
  -7.579970e+00   1.273967e+02
  -1.525076e+02   9.279539e+01
  -2.080799e+02  -6.086844e+01
  -8.544259e+01  -1.726909e+02
   9.578858e+01  -2.665390e+02
   2.780969e+02  -8.836283e+01
   2.203287e+02   5.237453e+01
   1.138975e+02   1.439326e+02
  -1.978973e+01   5.424790e+01
  -9.530925e+01   1.006421e+02
  -6.352458e+01   7.863622e+01
  -2.616994e+01   1.244257e+02
  -4.352007e+01   9.534318e+01
  -9.875329e+01   4.258391e+01
  -1.386918e+02  -2.169459e+02
   5.513441e+00  -2.613537e+02
   9.587167e+01  -1.806111e+02
   1.910374e+02  -5.018163e+01
   1.377958e+02   1.688013e+02
  -3.234885e+01   1.787303e+02
  -8.398872e+01   1.155411e+02
  -4.039895e+01  -6.871733e+01
   5.230450e+00  -6.769909e+01
   2.782852e+01   6.753545e+00
  -2.476716e+01  -3.734736e+01
  -1.443985e+02  -7.451110e+00
   8.845231e-01  -6.242090e+01
   1.351967e+02  -1.577593e+01
   1.622669e+02  -5.324503e+01
   1.307511e+02   6.653234e+01
   6.575716e+01   8.812844e+01
  -1.608044e+02   3.361154e+01
  -1.054570e+02  -5.691194e+01
  -3.333391e+01  -2.263424e+01
   7.863042e+01  -8.261914e+01
   1.275172e+02   4.412554e+01
   5.701990e+00   1.066389e+02
  -7.802999e+01   1.041773e+02
  -8.333760e+01   1.183396e+01
   3.180714e+00  -6.511463e+01
  -6.411467e+01  -7.998510e+01
  -9.920525e+01   1.725322e+01
  -4.949055e+01  -7.581637e-01
  -2.908428e+01  -9.798395e+01
   4.820340e+01  -1.525655e+02
   5.347878e+01  -1.030666e+02
   1.485962e+02  -3.676642e+01
   6.296072e+01   9.878004e+01
   2.554615e+01   1.236999e+02
  -8.973315e+01   1.043261e+02
  -4.582511e+00   5.974526e+01
   4.383101e+01   1.827943e+00
   1.260126e+02   4.382227e+01
   5.824659e+01   8.889022e+01
  -8.905867e+01   1.413127e+02
  -9.863525e+01  -4.114891e+00
  -1.652789e+02  -5.733502e+01
  -4.573054e+01  -8.008632e+01
   5.893350e+01  -3.953283e+01
   7.929107e+01  -3.964019e+01
  -3.923094e+01   4.858036e+01
  -8.711675e+01  -8.385225e+01
  -4.726146e+01  -9.749405e+01
   4.086913e-01  -1.068673e+02
   1.493057e+02  -4.874064e+01
   1.272859e+02   7.163474e+01
   5.151171e+01   2.011614e+02
  -8.977720e+01   1.272530e+02
  -7.259966e+01  -4.936298e+01
  -5.895774e+01  -9.686754e+01
  -2.705183e+00  -1.366846e+02
   2.796783e+01  -6.566871e+01
   5.447421e+01   3.676811e+01
   5.326820e+00   2.978631e+01
   5.036461e+00  -2.731012e+01
   1.320671e+02   5.594781e+01
   8.643933e+01   1.052032e+02
   6.557595e+01   1.255903e+02
  -5.434534e+01   1.985526e+01
  -1.639867e+02  -1.538134e+01
  -1.089011e+02  -8.876688e+01
  -3.298927e+01  -1.031775e+01
   7.995320e+01  -6.365321e+01
   1.206778e+02   2.957099e+00
   2.302588e+00  -3.218160e+00
   3.830188e+00   2.096720e+01
   5.301470e+01  -1.117718e+01
   1.832028e+01  -2.743453e+01
   3.412001e+01   3.286733e+01
  -2.080190e+01  -3.080212e+01
  -1.070401e+02  -3.153181e+01
   2.182188e+01  -1.012198e+02
   1.306924e+02  -1.023880e+02
   1.663032e+02  -4.751600e+01
   1.526681e+02   6.770561e+01
   1.020029e+02   1.002063e+02
  -4.963609e+01   1.753667e+02
  -1.314599e+02   8.848883e+01
  -1.315080e+02  -2.374888e+01
  -1.098549e+01  -7.276527e+01
  -1.210361e+01  -5.340193e+01
  -1.711580e+01  -8.083147e+00
  -2.405545e+01  -6.406458e+01
   3.341858e+01  -1.005761e+02
   1.108338e+01  -6.884491e+01
   1.016256e+02  -2.376540e+01
   7.347846e+01   2.009719e+01
   4.878697e+01   1.253304e+02
  -7.960930e+01   1.546632e+01
  -9.688666e+01  -6.504972e+01
  -8.047767e+01  -1.292989e+02
   5.960056e+01  -1.215816e+01
   1.384565e+02   3.133944e+00
   9.998248e+00   4.459580e+01
  -2.867665e+00   1.179662e+02
  -4.084579e+01   8.184568e+01
  -2.264489e+00  -4.369469e+01
   6.241197e+01  -2.915575e+01
   4.090374e+01   6.171436e+01
  -1.125977e+02   1.677530e+01
  -1.587842e+02   8.874682e+01
  -8.843814e+01   1.108554e+01
  -2.243621e+01  -1.008768e+02
   8.992149e+01  -6.268919e+01
   7.356452e+01  -1.482966e+01
  -4.390588e+01   6.219403e+01
  -2.165791e+01   3.717135e+01
  -3.970116e+01  -3.834478e+01
  -5.116099e+01  -4.421449e+01
   8.672706e+01  -3.154577e+00
   5.311448e+01  -3.965910e+01
   4.212745e+01   7.195728e+00
   7.526485e+01  -3.340536e+01
   1.381828e+01  -2.981399e+01
   9.142324e+00  -6.179758e+01
  -4.736611e+01   6.676498e+01
  -1.454947e+00   7.061182e+01
  -5.106779e+00   3.482132e+01
  -3.176011e+01   4.007566e+00
  -1.003426e+01  -4.268438e+01
   4.286540e+01  -2.775401e+01
   2.832554e+01  -7.748435e+00
   1.166482e+01   9.249265e+01
  -8.078938e+01   5.078805e+01
  -5.997068e+01  -3.572768e+01
  -3.470967e+01  -5.011872e+01
   4.374829e+01  -2.588997e+01
   2.848685e+01  -7.238009e+01
   5.567620e+01   1.510597e+01
  -5.396257e+01  -3.747909e+01
  -8.347408e+00   6.033593e+00
  -2.876471e+01  -3.276394e+01
   1.013277e+02  -6.100131e+01
