
 $NMID
 id='ANONYMOUS ', fmtdat='(2E16.6)'
 volume=1.0
 tramp=1.0
 $END
  -4.811361e+03  -1.507753e+01
  -2.799865e+03  -2.894506e+03
   8.822688e+02  -3.111064e+03
   2.433784e+03  -8.964113e+02
   9.924926e+02   8.382465e+02
  -7.896084e+02   7.095546e+02
  -1.001877e+03  -5.148750e+02
   4.547224e+01  -1.264707e+03
   9.405331e+02  -8.304515e+02
   9.951284e+02   8.559820e+01
   5.245198e+02   9.944237e+02
  -3.030117e+02   9.875305e+02
  -7.239503e+02   1.077789e+02
  -4.414590e+02  -8.122961e+02
   2.782900e+02  -8.609191e+02
   7.017802e+02   5.071576e+01
   3.126410e+02   7.384987e+02
  -4.268502e+02   6.879294e+02
  -6.444348e+02   2.352509e+01
  -4.102006e+02  -4.163111e+02
  -1.318546e+01  -5.041656e+02
   2.603657e+02  -2.851625e+02
   2.674896e+02  -1.658499e+00
  -1.202922e+02   1.304362e+02
  -4.209857e+02  -8.565397e+01
  -2.369027e+02  -5.042027e+02
   5.056515e+02  -4.664371e+02
   9.576664e+02   4.694426e+01
   4.645230e+02   6.394386e+02
  -3.977047e+02   5.621827e+02
  -8.553284e+02  -8.730317e+00
  -3.990790e+02  -5.641674e+02
   3.479994e+02  -5.931481e+02
   6.628617e+02  -2.434195e+02
   3.997490e+02   2.944912e+02
   1.025528e+02   5.354955e+02
  -2.355757e+02   2.833154e+02
  -2.219809e+02  -2.224933e+02
   1.706631e+02  -4.798403e+02
   5.434965e+02  -3.517539e+01
   2.826083e+02   7.891477e+02
  -3.279742e+02   8.129625e+02
  -6.574537e+02  -3.650249e+01
  -3.221698e+02  -6.091047e+02
   3.181594e+02  -3.505779e+02
   4.789579e+02   2.902128e+02
  -4.229406e+01   6.397225e+02
  -6.483944e+02   1.570189e+02
  -6.794609e+02  -4.654024e+02
  -1.647334e+02  -6.721531e+02
   5.137925e+02  -3.982175e+02
   7.215660e+02   7.069811e+01
   4.183197e+02   4.460731e+02
  -1.960924e+02   4.709419e+02
  -4.601624e+02  -8.987119e+00
  -3.113284e+02  -2.671190e+02
   1.239570e+02  -1.024543e+02
   1.692743e+02   1.454449e+02
  -1.830232e+02   2.653818e+02
  -4.328978e+02  -4.283516e+01
  -1.875884e+02  -3.214776e+02
   2.449190e+02  -2.952185e+02
   4.011260e+02  -1.060953e+02
   2.443264e+02   1.213154e+02
  -4.071325e+01   2.485228e+02
  -2.656350e+02   3.394958e+02
  -3.045739e+02   2.431063e+02
  -3.567252e+02  -1.282393e+02
  -6.522161e+01  -5.047548e+02
   1.904782e+02  -4.457151e+02
   1.269176e+02  -1.268569e+02
   7.734357e+01   4.276871e+01
   9.538343e-01  -9.821523e+01
   1.845741e+02  -1.899840e+02
   3.423358e+02   1.022203e+02
   1.380917e+02   3.204801e+02
  -8.336803e+01   3.178244e+02
  -2.593941e+02  -2.762332e+01
  -2.870222e+02  -2.432222e+02
   1.689656e+01  -3.330328e+02
   2.828796e+02  -1.699680e+02
   4.121777e+02   1.985971e+02
   1.728468e+02   3.965627e+02
  -1.312401e+02   2.975833e+02
  -2.471481e+02   1.321316e+02
  -1.767474e+02  -4.621140e+01
  -7.379961e+01   4.301385e+01
  -2.403569e+02   8.409111e+00
  -3.996223e+02  -7.050521e+01
  -3.560508e+02  -2.946765e+02
  -1.307410e+01  -4.209466e+02
   3.383234e+02  -4.336952e+02
   5.615495e+02  -2.142178e+02
   3.443191e+02   1.010049e+02
   3.504696e+01   3.175117e+02
  -1.395914e+02   3.115726e+02
  -8.651189e+01   6.083297e+01
   1.182507e+02  -1.663014e+02
   2.121400e+02   1.459606e+01
   5.454728e+01   1.957779e+02
  -1.520165e+02   1.936714e+02
  -2.463917e+02  -2.857518e+01
   2.860542e+01  -2.249164e+02
   1.866620e+02   3.101748e+01
   1.816659e+02   2.139685e+02
  -5.859186e+01   3.447851e+02
  -2.311236e+02   2.254712e+02
  -3.335444e+02  -4.529230e+01
  -2.960346e+02  -1.867208e+02
  -1.263261e+02  -3.088426e+02
   8.278496e+01  -1.611953e+02
   2.096119e+02  -9.317984e+01
   5.708101e+01   8.259409e+00
  -7.837765e+01  -3.801014e+01
  -3.645062e+01  -1.258095e+02
   1.503863e+02  -1.193086e+02
   1.382026e+02   8.268962e+01
   1.066540e+02   9.345084e+01
  -7.703665e+01   3.013934e+01
  -1.318376e+02  -2.566296e+01
   9.272651e+01  -7.134473e+01
   2.839573e+02   6.705448e+00
   3.396994e+02   1.332132e+02
   1.029849e+02   3.209469e+02
  -2.146829e+02   3.123139e+02
  -3.477593e+02   1.615499e+02
  -1.718780e+02  -4.546597e+01
  -5.911732e+01  -1.319438e+02
   6.635645e+01  -1.249778e+01
  -2.512264e+01   1.083170e+02
  -2.259744e+02   4.297592e+01
  -2.008041e+02  -9.082970e+01
  -5.004421e+01  -1.548993e+02
   7.768266e+01  -1.497187e+02
   1.799749e+02  -1.121228e+01
   5.616455e+01   4.992970e+01
  -6.701175e+01   4.063591e+01
  -8.311649e+00  -9.962240e+01
   9.870747e+01  -1.034926e+02
   1.954865e+02  -6.483826e+01
   2.163007e+02   8.366572e+01
   2.151125e+01   2.649884e+02
  -1.627172e+02   2.073119e+02
  -2.325146e+02  -1.238422e+01
  -1.114986e+02  -1.001064e+02
   6.894975e+01  -1.550213e+02
   3.099948e+01  -3.824896e+01
   5.084903e+01   2.652139e+01
   8.217413e+00   6.740611e+01
   3.670281e+01  -6.452913e+01
   8.948920e+01  -3.468961e+01
   8.000271e+01   6.246103e+01
  -1.890040e+01   1.505752e+02
  -8.346101e+01   1.169741e+02
  -2.730138e+02   3.081221e+01
  -1.619379e+02  -1.968611e+02
  -4.845439e+01  -2.818966e+02
   1.078715e+02  -1.507944e+02
   1.187317e+02  -5.131523e+01
   7.650216e+01   9.681956e+01
   6.077957e+01   2.852223e+01
   2.379009e+01   4.293501e+01
   7.956947e+01  -2.014583e+00
  -2.657580e+01   3.863290e+01
  -4.299121e+01   8.456749e+01
  -6.797060e+01   9.122984e+01
  -7.576785e+01  -5.209884e+01
   5.525976e+01  -9.789968e+01
   1.674167e+02  -8.760373e+01
   1.788592e+02   7.631763e+01
   9.300987e+01   2.492815e+02
  -8.492275e+01   2.971833e+02
  -3.675616e+02   9.995073e+01
  -2.597026e+02  -1.193096e+02
  -1.250630e+02  -1.946490e+02
   1.048547e+02  -2.260497e+02
   5.247239e+01  -1.407226e+02
   1.116733e+02  -8.933457e+01
   8.263498e+01  -1.016277e+02
   6.384965e+01  -8.250005e+01
   1.678706e+02   4.831039e+00
   9.800685e+01   1.418190e+02
   8.913716e+01   2.293791e+02
  -5.926969e+01   1.686100e+02
  -1.376659e+02   3.399235e+01
  -1.667667e+02  -1.653599e+02
   2.435996e+00  -1.739960e+02
   7.454810e+01  -8.928156e+01
   7.799601e+01  -4.583127e+01
   2.234323e+01   1.693984e+01
  -3.633198e+00   3.086981e-01
   7.473658e+01   7.240937e+01
   9.305225e+01   6.079719e+01
   6.045863e+00   2.563367e+01
  -1.028193e+02   2.281014e+01
  -1.440373e+02  -4.864415e+01
  -1.242020e+02  -5.148440e+01
  -5.558181e+01  -8.698266e+01
   2.041353e+02  -5.693896e+01
   1.114253e+02  -5.011301e+01
   5.389462e+01   2.236895e+01
  -8.021309e+01   5.338621e+01
  -9.946382e+01  -2.999406e+01
  -4.334671e+01  -5.111494e+01
   8.879753e+01  -8.807128e+01
   6.826221e+01  -4.282480e+01
   1.509517e+02   2.560629e+01
   3.690777e+01   2.091210e+01
   4.655301e+01   5.734156e+01
   6.576382e+01   3.388883e+01
   2.490708e+01   5.412328e+01
  -5.985824e+01   1.055720e+02
  -7.905654e+01   1.824050e+02
  -1.818209e+02   2.020374e+01
  -1.576828e+02  -1.318780e+02
  -1.719368e+01  -1.090725e+02
   1.944336e+01   1.028737e+01
   1.035839e+02   4.480468e+01
  -4.133653e+01   1.884693e+01
  -1.630694e+02  -2.883693e+01
  -1.313369e+02  -1.321893e+02
   9.505433e+01  -3.567801e+01
   2.127077e+02  -1.103158e+02
   1.690245e+02   3.396976e+01
   1.022628e+02   6.058748e+01
  -7.733748e+01   6.412836e+01
  -3.791959e+01   4.898244e+01
   5.557759e+01  -1.121892e+02
   7.278779e+01  -7.511220e+00
   9.937323e+01   1.113864e+02
  -6.847990e+01   1.937164e+02
  -1.807522e+02   1.024220e+02
  -8.135445e+01  -7.933841e+01
  -1.684776e+01  -2.069450e+02
   1.146402e+02  -1.594544e+02
   1.805799e+02   5.753653e+01
   7.377022e+01   1.332647e+02
  -1.380756e+01   1.109286e+02
  -7.035333e+01   8.232830e+00
  -8.680608e+01  -6.906108e+01
  -6.706566e+01  -2.587878e+01
   3.895439e+00   7.909540e+01
  -2.000491e+01  -1.825970e+01
  -1.153238e+01  -8.725362e+01
  -8.352472e+01  -1.226883e+02
   3.404407e+01  -3.648495e+01
   1.593761e+02  -7.922601e+00
   1.367923e+02   7.062907e+01
   7.588120e+01   7.021614e+01
  -1.255698e+02  -1.504323e+01
  -1.245788e+02  -4.607199e+01
  -1.686658e+01   3.118361e+00
   1.929994e+01   8.177669e+00
   1.922487e+01  -1.577824e+01
   2.476645e-01  -1.639859e+01
   2.825053e+01  -2.415571e+01
   6.164190e+01   2.665022e+00
   7.236742e+01   8.019239e+01
  -2.198635e+01   1.075987e+02
  -7.769331e+01   1.281614e+02
  -2.281852e+02   4.500172e+01
  -1.738349e+02  -1.058220e+02
  -7.208238e+01  -1.895665e+02
   1.137528e+02  -1.566661e+02
   1.043667e+02  -2.138013e+01
   4.359418e+01   7.479524e+01
  -4.221432e+01   4.308999e+01
  -4.750227e+01  -2.013480e+01
  -1.857837e+01   2.507768e+01
  -3.139022e+00   3.338345e+01
   1.822815e+01   2.437306e+01
   1.469888e+01   5.335104e+01
  -6.968535e+01  -5.055452e+01
  -5.105198e+01  -1.430055e+02
  -5.137238e+01  -6.185644e+01
   8.780277e+01  -7.984407e+01
   1.545116e+02   1.227180e+02
   2.645118e+01   1.017850e+02
  -7.356004e+01   1.991434e+01
  -1.347936e+02  -4.431344e+01
  -3.675308e+01  -6.902019e+01
   5.383450e+01  -2.935414e+01
   4.585216e+01  -2.388459e+01
  -2.861314e+00   1.387055e+01
  -8.318903e+01   4.403290e+01
   5.401102e+00  -5.387749e+01
   1.233626e+02  -7.036748e+01
   1.104325e+02  -2.060902e+01
   1.128809e+01  -1.109219e+01
  -1.933911e+01   1.138777e+01
  -1.228090e+02   1.024821e+02
  -5.750659e+01  -9.160207e+00
  -1.930385e+01  -7.677899e+01
   2.906924e+00  -6.663763e+01
   5.360839e+01   3.043043e+01
   5.582103e+01   2.888024e+01
   2.737072e+01   6.137761e+01
   4.892901e-01  -1.344717e+01
  -2.467903e+01  -4.881277e+00
  -7.275852e+00  -6.951115e+00
   2.311818e+01  -6.878491e+01
   4.450738e+01  -1.549872e+01
   6.667079e+01  -3.615843e+01
   5.897103e+01   3.701324e+00
   1.332934e+01  -3.258046e+01
   5.279654e+01   4.715518e+01
  -6.674888e+00   9.011639e+01
   8.666354e+00   1.048733e+01
  -2.267189e+01  -8.315837e+00
   2.159894e+01  -8.944904e+01
   9.221786e+01  -4.804741e+01
   6.777050e+01   1.725668e+01
   5.249483e+01   4.241500e+01
  -5.762868e+01   7.896908e+01
  -7.225779e+01   3.127231e+01
  -6.229638e+00  -5.142472e+01
   9.323385e+01  -7.018873e+01
   4.966355e+01   3.928370e+01
  -2.001552e+01   3.603298e+01
  -1.181593e+02   5.712012e+00
