
 $NMID
 id='ANONYMOUS ', fmtdat='(2E16.6)'
 volume=1.0
 tramp=1.0
 $END
  -3.709337e+03   2.608143e+01
  -2.328792e+03  -1.988410e+03
   2.704764e+02  -2.388927e+03
   1.588184e+03  -1.182186e+03
   1.012389e+03   1.203333e+02
  -1.878572e+02   4.100733e+02
  -6.056247e+02  -2.437086e+02
  -3.230784e+01  -7.669329e+02
   6.152002e+02  -6.527959e+02
   7.750911e+02  -7.021483e+01
   4.653836e+02   6.309540e+02
  -2.824803e+01   7.615979e+02
  -4.670484e+02   1.729004e+02
  -2.869181e+02  -4.693669e+02
   1.664356e+02  -7.123468e+02
   4.617403e+02  -7.905491e+01
   3.234321e+02   5.688715e+02
  -1.521387e+02   6.087174e+02
  -5.541239e+02   2.324603e+02
  -4.260623e+02  -2.433740e+02
  -8.592080e+01  -4.099969e+02
   1.534161e+02  -2.825475e+02
   1.232599e+02  -1.251512e+02
  -1.126730e+02   3.179496e+01
  -3.289738e+02  -1.987888e+02
  -9.710557e+01  -3.906371e+02
   5.212771e+02  -2.614538e+02
   7.041592e+02   1.479791e+02
   3.646981e+02   4.547052e+02
  -3.331141e+02   2.902270e+02
  -5.780379e+02  -1.098575e+02
  -2.359036e+02  -3.767620e+02
   2.786832e+02  -4.101195e+02
   4.949634e+02  -1.798366e+02
   3.253003e+02   2.033642e+02
   8.688876e+01   3.852182e+02
  -1.450310e+02   2.175242e+02
  -5.400398e+01  -1.285065e+02
   1.456007e+02  -2.864981e+02
   2.633808e+02   9.212882e+01
   1.519313e+02   5.285205e+02
  -2.272168e+02   5.502777e+02
  -4.593930e+02   5.289947e+01
  -1.945129e+02  -3.845459e+02
   1.958543e+02  -2.357557e+02
   1.850437e+02   2.598564e+02
  -1.037635e+02   4.454805e+02
  -4.707224e+02   5.693896e+01
  -5.622952e+02  -3.983011e+02
  -1.289169e+02  -5.086832e+02
   2.819848e+02  -2.767176e+02
   5.893090e+02   7.880581e+01
   3.508113e+02   2.942773e+02
  -1.286001e+02   3.282512e+02
  -3.519856e+02   1.353132e+02
  -2.228070e+02  -1.046516e+02
   1.091922e+02  -7.328583e+01
   1.448150e+02   1.023135e+02
  -1.101367e+02   5.673312e+01
  -3.184821e+02  -1.940559e+01
  -1.728156e+02  -2.518484e+02
   1.790809e+02  -2.736826e+02
   3.304600e+02  -1.050903e+02
   2.732292e+02   1.163648e+02
  -3.753264e+01   2.743566e+02
  -2.944361e+02   4.105379e+02
  -3.212000e+02   2.331231e+02
  -2.571111e+02  -1.410527e+02
  -7.653517e+01  -3.274912e+02
   1.085767e+02  -3.943727e+02
   7.694000e+01  -1.266198e+02
   1.019001e+01  -1.080891e+02
   1.098526e+02  -1.146263e+02
   2.422671e+02  -7.651154e+01
   2.201457e+02   4.310988e+01
   9.706981e+01   2.662532e+02
  -6.618988e+01   2.664472e+02
  -1.875070e+02   1.793354e+00
  -1.552154e+02  -2.386894e+02
   3.410721e+01  -2.800435e+02
   2.500914e+02  -4.482620e+01
   3.455588e+02   1.733161e+02
   2.081385e+02   2.861261e+02
  -9.535741e+01   2.823939e+02
  -1.930766e+02   1.671070e+02
  -1.446126e+02   8.805942e+01
  -1.134427e+02   2.472993e+01
  -2.466781e+02   1.402185e+02
  -4.077545e+02  -1.184194e+02
  -3.034896e+02  -3.322289e+02
   5.106080e+01  -4.539491e+02
   3.475539e+02  -3.766786e+02
   4.677568e+02  -1.665242e+02
   3.308451e+02   1.074779e+02
   1.985777e+01   2.623155e+02
  -9.284513e+01   3.057122e+02
  -5.192671e+01   7.590186e+01
   1.441132e+02  -1.006975e+02
   2.148315e+02   4.456325e+01
   5.651790e+01   1.590311e+02
  -1.030928e+02   1.944225e+02
  -1.386701e+02  -9.184635e+01
   3.269043e+01  -1.538435e+02
   1.973324e+02  -7.759872e+01
   1.324810e+02   2.798413e+02
  -1.944700e+01   3.573758e+02
  -2.225859e+02   1.600277e+02
  -3.730877e+02  -3.673945e+01
  -2.563835e+02  -2.309064e+02
  -7.108426e+01  -2.807913e+02
   1.121587e+02  -1.623946e+02
   1.842659e+02  -3.757429e+01
   5.118058e+01  -2.715557e+01
  -4.496954e+01  -4.125475e+01
  -1.366654e+01  -1.314253e+02
   7.802961e+01  -1.028393e+02
   1.483776e+02   2.039052e+01
   5.452553e+01   2.748943e+01
  -1.106686e+02  -2.716895e+01
  -3.965503e+01  -3.542986e+01
   1.833454e+02  -9.050957e+01
   2.804797e+02   1.338602e+01
   2.889277e+02   1.558237e+02
   3.313365e+01   2.746977e+02
  -2.054208e+02   2.444908e+02
  -2.862460e+02   9.207287e+01
  -1.836804e+02  -5.495800e+01
   3.247652e+01  -8.539383e+01
   9.588801e+01   2.241896e+01
  -2.154305e+01   4.884915e+01
  -1.770937e+02   4.173823e+01
  -2.021176e+02  -7.424116e+01
  -6.919856e+01  -2.003508e+02
   5.767161e+01  -1.348895e+02
   1.303940e+02   3.646515e+00
   3.124413e+01   3.523454e+01
  -1.069585e+01  -3.179840e+01
  -6.115334e+00  -1.129474e+02
   8.358854e+01  -7.549713e+01
   1.383462e+02  -1.154453e+01
   1.759111e+02   1.243045e+02
   1.366134e+01   2.375248e+02
  -1.651407e+02   1.691211e+02
  -2.014658e+02   8.151050e+00
  -8.748241e+01  -1.158178e+02
   6.592982e+01  -4.566524e+01
   1.081715e+02  -5.145415e+01
  -2.082645e+01   1.039867e+01
  -2.133238e+01  -8.515626e+01
  -3.171526e+01   3.873423e+01
   6.453170e+01  -5.190398e+01
   1.141442e+02   5.543346e+01
   6.229914e+01   1.980847e+02
  -1.222301e+02   1.342472e+02
  -2.671867e+02   6.362988e+01
  -1.987739e+02  -1.457239e+02
  -4.266445e+01  -2.712243e+02
   1.700016e+02  -1.507386e+02
   1.527403e+02   1.584671e+01
   1.227007e+02   8.651015e+01
   7.259058e+00  -4.183259e+00
   5.498089e+01  -7.457472e+00
   9.897786e+01   1.342719e+01
   8.022588e+00   1.175171e+01
  -4.520971e+01   1.299715e+02
  -1.100058e+02   8.554974e+01
  -1.802014e+02  -3.054994e+01
   5.473254e+00  -1.169778e+02
   1.499980e+02  -1.230331e+02
   1.866018e+02  -3.866963e+01
   9.269422e+01   2.366537e+02
  -7.070481e+01   2.167997e+02
  -2.890155e+02   9.742964e+01
  -2.370404e+02  -6.890980e+01
  -8.471352e+01  -2.136883e+02
   2.036862e+01  -7.827487e+01
   1.405199e+02  -1.060500e+02
   1.223924e+02  -1.023499e+02
   5.119922e+01  -1.185857e+02
   4.867089e+01  -7.476992e+01
   1.050654e+02   5.770921e+01
   1.311110e+02   1.060986e+02
   3.996846e+01   2.505982e+02
  -9.528204e+01   1.232121e+02
  -1.614773e+02  -1.059259e+01
  -1.106835e+02  -1.481864e+02
  -1.069921e+01  -1.465025e+02
   1.142425e+02  -1.092298e+02
   2.077151e+01   2.059786e+01
   1.709224e+01   5.171814e+01
  -1.203516e+01   2.330505e+01
   4.779201e+01   2.638275e+01
   1.149723e+02   4.613988e+01
   4.436323e+00   5.352893e+01
  -6.263696e+01   6.090734e+01
  -1.093709e+02   1.101417e+01
  -1.784610e+02  -7.703680e+01
   4.474421e+01  -1.057387e+02
   1.414268e+02  -2.013725e+01
   1.790512e+02   2.008784e+01
   3.367827e+01   7.581125e+01
  -4.344225e+01   1.187275e+01
  -1.571120e+02  -7.093098e+01
   2.885061e+01  -5.326441e+01
   5.681592e+01  -9.069255e+01
   1.017591e+02   3.550412e+00
   1.120188e+01   7.497506e+01
   9.412405e+01   3.102220e+01
   8.466714e-01  -1.014847e+01
   7.863377e+01  -1.712338e+01
  -2.596383e+01   5.530290e+01
   8.642108e+00   1.704018e+02
  -1.266654e+02   8.285128e+01
  -1.576414e+02   7.270538e+00
  -1.276546e+02  -9.932165e+01
   1.249107e+01  -8.885030e+01
   7.345609e+01  -4.275420e+01
   4.614272e+01  -3.061357e+01
  -1.180707e+02   2.826204e+01
  -1.587949e+02  -1.358445e+02
  -1.069137e+02  -1.136265e+02
   1.086505e+02  -1.443013e+02
   1.786661e+02  -5.610538e+01
   1.532214e+02  -4.126967e+00
   5.712328e+01   6.475592e+01
  -6.643214e+01   1.224541e+02
  -3.750523e+01   7.277151e+00
   9.990856e+01   3.252960e+01
   1.698550e+02   2.809934e+01
   2.199643e+01   1.128144e+02
  -1.314937e+02   1.907048e+02
  -7.747357e+01   7.227660e+01
  -1.275593e+02  -7.285647e+01
   2.451229e+01  -2.138715e+02
   4.939852e+01  -1.552408e+02
   8.228103e+01   3.985534e+00
   6.117758e+01   9.814044e+01
  -4.622365e+00   9.830448e+01
  -8.296521e+01   2.421587e+01
  -2.146299e+01   1.875808e+01
  -3.956710e+01  -3.154898e+01
  -1.645096e+01   2.604296e+01
  -6.621784e+01  -7.544649e+01
   4.693997e+01  -1.234028e+02
  -6.538845e+01  -7.320086e+01
   8.515364e+01  -5.061268e+01
   1.491815e+02   4.155733e+01
   1.257776e+02   8.453848e+01
   2.438881e+01   4.876536e+01
  -9.618566e+00   2.734829e+01
  -1.116730e+02   6.473166e+01
  -4.678490e+01  -2.606354e+01
   9.019697e+01  -2.520700e+01
   2.661194e+01   2.462816e+01
  -4.056575e+01   7.406105e+00
  -1.536561e+01   7.512642e+01
   8.030243e+01   6.887471e+01
   5.996957e+01  -1.342050e+01
   2.012024e+01   6.091789e+01
  -1.030447e+02   6.653566e+01
  -1.894705e+02   5.980379e+01
  -1.847023e+02  -9.228659e+01
  -2.368564e+01  -2.215389e+02
   1.002391e+02  -1.941769e+02
   8.501996e+01  -7.653206e+01
   3.855788e+01   4.728487e+01
  -4.678750e+01  -8.627797e+00
   2.190087e+01   5.721078e+00
   2.601121e+01   1.739916e+01
   2.829271e+01   6.884933e+00
   5.409078e+01   1.491238e+02
  -1.079909e-01   5.096078e+01
  -1.006654e+02  -5.997915e+00
  -6.653601e+01  -1.076897e+02
  -3.727302e+01  -1.507010e+02
   7.360100e+01  -2.460844e+01
   1.004797e+02   1.207227e+02
   5.831922e+01   8.204825e+01
  -6.533665e+01   3.712832e+01
  -6.512462e+01   3.278281e+01
  -3.040022e+01  -4.097302e+01
   1.921808e+01  -2.803940e+01
   2.414336e+01  -5.240062e+01
  -9.381312e+00   5.168742e+01
  -3.297077e+00   3.552418e+01
  -8.251095e+01  -8.953702e+01
   7.717646e+01  -5.925405e+01
   9.910225e+01  -1.149566e+02
   7.877817e+01   3.609950e+01
  -1.555459e+01   1.467458e+02
  -1.052971e+02   4.537015e+01
   1.606734e+00   6.927033e+01
  -1.974754e+01  -4.911219e+01
   8.840280e+01  -4.068674e+01
   4.876268e+01   4.501827e+01
   6.614851e+00   1.779591e+00
  -3.283459e+01   1.242551e+01
  -2.673668e+01  -4.740896e+00
  -4.648593e+01  -8.135708e+01
   2.698698e+00   6.005462e+01
   3.128859e+01  -5.396370e+01
  -2.114808e+01  -3.695214e+00
  -2.390416e+01  -5.091743e+01
  -3.114200e+01  -6.173079e+01
   5.848097e+01  -6.706876e-01
   5.637256e+01   1.778403e+01
  -3.238585e+01   4.183881e+01
  -7.146601e+01   5.569649e+01
  -3.801914e+01  -9.684537e+00
  -2.249897e+01  -4.169327e+01
   8.301708e+01  -1.609961e+01
   1.249098e+02  -4.224440e+01
  -5.764698e+00   1.251724e+02
  -6.669546e+01   6.723792e+01
  -7.355730e+01  -2.922377e+01
  -1.245283e+01  -3.560728e+00
   3.048064e+01  -2.059152e+01
   1.549731e+01   9.303770e+01
  -6.415079e+01   9.686131e+01
  -1.029671e+02   1.081472e+01
