
 $NMID
 id='ANONYMOUS ', fmtdat='(2E16.6)'
 volume=1.0
 tramp=1.0
 $END
  -3.171075e+03   1.172538e+02
  -2.050571e+03  -1.596184e+03
  -9.225567e-01  -1.969973e+03
   1.215129e+03  -1.143203e+03
   9.045097e+02  -1.344926e+02
  -1.429818e+01   2.395916e+02
  -3.847730e+02  -8.310690e+01
  -9.150804e+01  -5.270892e+02
   4.070642e+02  -6.054926e+02
   6.148319e+02  -6.499922e+01
   4.739778e+02   4.975384e+02
   5.281480e+01   6.043605e+02
  -3.241153e+02   2.283697e+02
  -3.108293e+02  -4.407044e+02
   9.736166e+01  -5.521640e+02
   3.928569e+02  -7.061871e+01
   2.958543e+02   4.916034e+02
  -1.007449e+02   5.860815e+02
  -4.105867e+02   2.823902e+02
  -4.172090e+02  -1.792185e+02
  -1.469430e+02  -2.969077e+02
   1.191741e+02  -2.152739e+02
   7.310309e+01  -9.665154e+01
  -1.303292e+02  -1.301180e+02
  -3.129816e+02  -2.370497e+02
  -3.983916e+01  -2.937032e+02
   4.147883e+02  -1.712850e+02
   6.187396e+02   1.570721e+02
   2.040447e+02   3.137130e+02
  -2.659643e+02   1.642344e+02
  -5.106245e+02  -1.023867e+02
  -2.306346e+02  -2.844362e+02
   2.657054e+02  -3.774148e+02
   4.191043e+02  -1.243151e+02
   3.180008e+02   1.244637e+02
   6.336614e+01   2.837784e+02
  -3.474447e+01   1.861018e+02
  -8.442674e+00  -1.210094e+02
   1.436265e+02  -1.823419e+02
   2.070008e+02   9.449972e+01
   5.713631e+01   4.217586e+02
  -1.891629e+02   4.467649e+02
  -3.035211e+02  -7.455802e+01
  -1.718031e+02  -2.703584e+02
   1.229572e+02  -1.503340e+02
   2.242792e+02   2.340245e+02
  -4.906009e+01   3.818595e+02
  -4.288017e+02   6.942716e+01
  -4.383276e+02  -2.648257e+02
  -2.223644e+02  -4.386418e+02
   2.823967e+02  -1.989646e+02
   5.171904e+02   8.045412e+01
   3.304374e+02   2.516874e+02
  -3.737873e+01   2.386297e+02
  -2.593135e+02   5.513929e+01
  -2.340853e+02  -4.029728e+01
   2.453795e+01  -5.170678e+01
  -5.548449e+00   7.433612e+01
  -8.029682e+01  -2.257355e+00
  -3.006039e+02   3.322918e+01
  -7.335268e+01  -1.866416e+02
   1.427752e+02  -2.452746e+02
   2.951880e+02  -1.225746e+02
   2.130645e+02   7.633748e+01
  -4.691918e+01   2.927397e+02
  -2.942089e+02   3.421388e+02
  -3.764334e+02   1.616705e+02
  -2.266461e+02  -1.301539e+02
  -5.920389e+01  -2.768587e+02
   1.344792e+01  -3.053675e+02
   6.146554e+01  -2.217092e+02
   1.041999e+02  -9.924725e+01
   1.011723e+02  -1.157315e+02
   2.234176e+02  -1.604767e+01
   2.499423e+02   1.546689e+02
   1.087231e+02   1.785239e+02
  -4.914966e+01   2.128375e+02
  -1.756016e+02  -3.768247e+01
  -1.563376e+02  -2.023143e+02
  -8.244059e+00  -2.667931e+02
   2.608482e+02  -1.078398e+02
   2.488003e+02   1.463388e+02
   1.577597e+02   2.696644e+02
  -7.820051e+01   2.331965e+02
  -1.374682e+02   2.067651e+02
  -1.153946e+02   1.223559e+01
  -8.036254e+01   6.345177e+01
  -2.091221e+02   1.961382e+01
  -4.254628e+02  -5.162086e+01
  -2.359051e+02  -2.770604e+02
   5.551087e+01  -4.357835e+02
   2.926609e+02  -3.403192e+02
   4.827223e+02  -2.119656e+02
   2.739192e+02   4.869109e+01
   6.884438e+01   2.229489e+02
  -6.644548e+01   2.081094e+02
   1.903900e+01   5.554072e+00
   1.010659e+02  -2.823290e+00
   1.434892e+02   2.663045e+01
  -5.183443e+01   7.207199e+01
  -9.848944e+01   1.785439e+02
  -9.543033e+01  -4.753071e+01
   6.580452e+01  -1.133644e+02
   1.378967e+02   5.106248e+01
   1.556414e+02   2.044070e+02
  -5.425152e+01   3.210610e+02
  -2.205361e+02   1.255495e+02
  -2.832848e+02   1.873444e+00
  -2.690097e+02  -2.264850e+02
  -3.871677e+01  -2.317982e+02
   1.591296e+02  -1.921589e+02
   1.166877e+02   2.686424e+01
   4.115439e+01   1.697428e+01
  -3.914243e+01  -1.864877e+00
   2.629132e+01  -1.053476e+02
   1.389200e+02  -3.279021e+01
   1.678911e+02  -2.321152e+01
  -1.491326e+01   5.304559e+01
  -4.457004e+01  -1.659534e+01
  -5.619465e+01  -4.098801e+01
   1.353189e+02  -3.606154e+01
   2.484007e+02   5.908276e+01
   2.412694e+02   1.238300e+02
   4.760551e+01   2.545855e+02
  -1.574679e+02   2.437954e+02
  -2.483334e+02   7.478323e+01
  -6.608137e+01   4.312947e+00
   1.188291e+01  -6.718183e+01
   5.428650e+01   4.585489e+01
  -9.689641e+01   8.497101e+00
  -1.539072e+02   3.399586e+01
  -2.253573e+02  -1.260333e+02
  -3.292442e+01  -1.465547e+02
   1.217425e+01  -1.217652e+02
   1.267383e+02  -2.622853e+01
   2.207389e+01   9.667678e+00
  -1.011833e+02  -4.485463e+01
  -2.261472e+01   2.889861e+00
   1.076583e+02  -1.271800e+02
   1.801606e+02   3.933903e-01
   1.508905e+02   1.561537e+02
  -9.294932e+00   2.280964e+02
  -2.147148e+02   9.220849e+01
  -1.579769e+02   7.958040e+01
  -1.793437e+01  -7.772007e+01
   1.350658e+02  -7.394447e+01
   7.957619e+01   1.100630e+01
  -9.409368e+00   8.361443e+00
  -3.665553e+01   8.707840e+00
  -3.556209e+00  -1.674012e+01
   9.270983e+01   1.374579e+01
   1.136815e+02   7.779962e+01
   1.812688e+01   1.329062e+02
  -5.189890e+01   1.074527e+02
  -2.270028e+02   6.723468e+00
  -1.914902e+02  -8.782102e+01
  -5.533742e+01  -2.352604e+02
   9.106428e+01  -1.697092e+02
   9.006803e+01  -3.869325e+00
   5.950571e+01   3.048822e+01
   2.115863e+01   3.086418e+01
   5.787727e+01   6.855575e+01
   1.179062e+02  -4.444287e+01
   1.063527e+02   8.237476e+01
  -2.662361e+01   1.231320e+02
  -9.979706e+01   1.036250e+02
  -1.019483e+02   2.679163e+00
   4.669441e+01  -1.002527e+02
   2.155998e+02  -1.160292e+02
   2.142330e+02   8.700963e+01
   8.221525e+01   1.975122e+02
  -1.083844e+02   1.458627e+02
  -2.263953e+02   1.029412e+02
  -1.747719e+02  -1.244011e+02
  -8.707374e+01  -1.787550e+02
   7.723221e+01  -1.114856e+02
   6.278162e+01  -9.717444e+01
   1.019426e+02  -8.523286e+01
   3.475895e+01  -8.216438e+01
   1.671484e+02  -2.168801e+01
   1.222445e+02   6.708353e+00
   1.349157e+02   1.489721e+02
   1.023372e+01   1.594413e+02
  -1.159794e+02   1.752653e+02
  -1.601269e+02   5.078390e+01
  -1.169561e+02  -1.000870e+02
  -3.129072e+01  -1.348794e+02
   7.893010e+01  -8.615449e+01
   1.033894e+02  -2.907717e+01
  -3.282342e+01   5.418709e+01
  -5.693667e+01  -7.340811e+00
   2.599928e+00   1.775540e+01
   8.570552e+01   2.584630e+01
   4.238372e+01   4.023127e+01
  -1.104866e+02   1.784720e+01
  -1.694531e+02  -1.165351e+01
  -1.130820e+02  -4.681769e+01
  -3.168972e+01  -8.375599e+01
   1.054503e+02  -9.845242e+01
   1.151323e+02  -7.459007e+00
   3.626718e+01   4.163890e+01
  -1.149914e+02   7.179832e+01
  -5.725493e+01  -2.091100e+00
  -3.813310e+01  -4.949395e+01
   4.895795e+01  -4.594491e+01
   2.204003e+01  -2.075162e+01
   7.187880e+01   6.591764e+01
   1.730207e+01   7.450044e+00
   7.311378e+01   3.652659e+01
   9.308771e+01   4.586246e-01
   1.498013e+01   1.115513e+02
  -2.683750e+01   1.248061e+02
  -9.355664e+01   1.690141e+02
  -1.440909e+02   4.494822e+01
  -1.513872e+02  -9.047459e+01
  -5.676228e+01  -1.018424e+02
   1.209074e+02  -9.663146e+01
   5.344451e+01   3.476674e-02
  -8.426462e+01  -2.162329e+01
  -1.289211e+02   5.055327e+01
  -7.965623e+01  -1.005512e+02
   5.592378e+01  -6.185709e+01
   1.731522e+02  -6.296330e+01
   1.136900e+02   2.020374e+01
   7.061707e+01   1.231680e+02
  -4.833642e+01   1.007000e+02
  -5.750489e+01  -4.201586e+01
   4.477370e+01  -2.891305e+00
   8.542293e+01  -2.250528e+00
   2.735371e+01   1.839087e+02
  -6.229561e+01   1.633366e+02
  -1.312991e+02   2.761918e+01
  -1.141130e+02  -8.853233e+01
  -1.240450e+01  -1.430839e+02
   8.928530e+01  -1.776814e+02
   8.074905e+01   2.053263e+01
   5.442945e+01   9.072544e+01
   1.597734e+01   1.026957e+02
  -7.377867e+01   3.822104e+01
  -3.572126e+01  -5.421075e+01
   2.414865e+01   1.388992e+01
   1.921534e+00   2.024870e+01
   1.598589e+01  -2.624998e+00
  -7.158157e+01  -1.048963e+02
  -7.636682e+01  -1.024202e+02
   3.026908e+01  -7.700479e+01
   1.403690e+02   3.912086e+01
   7.085655e+01   6.897035e+01
  -1.203365e+01   5.153294e+01
  -5.857361e+01   4.932580e+01
  -5.558188e+01  -3.973073e+01
  -3.844517e+01  -2.246075e+01
   6.430832e+01  -3.172627e+01
   3.577693e+01   4.122946e+01
   1.809276e+01   2.012586e+01
   4.237251e+01   1.204803e+01
   7.938382e+01  -3.925878e+01
   6.555655e+01   2.758242e+01
   2.048594e+01   1.527724e+02
  -1.044733e+02   1.597406e+02
  -2.233690e+02   8.346719e+01
  -1.481363e+02   6.719666e+00
  -8.403814e+01  -1.520993e+02
   5.425100e+01  -1.550098e+02
   1.301224e+02  -6.323290e+01
   9.918082e+01   1.914435e+01
   3.505704e+01   2.516756e+01
  -3.029843e+01   3.206681e+01
   2.112309e+01   5.010507e+01
   2.534971e+01   2.235039e+01
   4.704906e+01   7.983610e+01
  -6.340810e+01   8.833540e+01
  -9.349704e+01   1.503746e-02
  -7.640128e+01  -9.942579e+01
   1.403417e+01  -6.592799e+01
   6.388940e+01  -3.542517e+01
   7.313210e+01   3.551314e+00
   5.149968e+00   4.013317e+01
  -1.141707e+02   7.217496e+01
  -1.312751e+02   1.108558e+01
   1.565800e+01  -4.844585e+01
   3.663384e+01  -6.359682e+01
  -4.216586e+00  -4.270674e+01
  -2.213947e+01  -1.405265e+01
  -6.692708e+01   5.448773e+01
   1.585294e+01  -6.039741e+01
   7.521777e+01  -9.281223e+01
   7.845734e+01  -2.519612e+01
   3.791430e+01   2.173843e+01
  -5.933832e+01   8.958942e+01
  -6.660561e+01   7.635799e+01
  -2.855369e+01  -5.744039e+01
   7.168187e+00  -4.025871e+01
  -5.650900e+01  -4.436898e+01
   1.916011e+01   1.129775e+01
   4.059008e+00   8.327841e+01
   1.863174e+01  -7.631807e+00
   1.001468e+01  -1.134217e+00
  -4.584192e+01  -7.911594e+01
  -5.194422e+01  -1.114906e+01
  -2.366143e+01   6.910731e+01
  -6.514015e+01   1.665001e+00
  -2.133236e+01  -2.844800e+01
   1.465984e+01  -1.328958e+02
   6.229349e+01  -4.656695e+01
   3.488120e+01  -8.033677e+00
   5.218057e+01   7.697528e+01
  -4.002439e+01   6.597139e+01
  -2.726918e+01  -2.351660e+01
  -1.103126e+01  -2.566432e+01
   3.062105e+01  -6.501084e+01
   1.127073e+02  -1.723907e+01
   5.883407e+01   1.002733e+02
  -6.571259e+01   3.602704e+01
  -1.090799e+02   2.002443e+01
  -3.258355e+01   1.569751e+01
   1.413395e+01   8.148774e+00
   2.286365e+01   1.095309e+01
  -1.422298e+00   9.906083e+00
  -7.192977e+01  -6.207438e+00
