
 $NMID
 id='ANONYMOUS ', fmtdat='(2E16.6)'
 volume=1.0
 tramp=1.0
 $END
  -2.751450e+03   4.182397e+01
  -1.878069e+03  -1.368851e+03
  -9.870298e+01  -1.785328e+03
   1.044474e+03  -1.102210e+03
   9.232742e+02  -1.772658e+02
   5.194094e+01   2.577845e+02
  -3.463110e+02  -4.388168e+01
  -1.236281e+02  -4.496162e+02
   3.782389e+02  -5.391222e+02
   5.897120e+02  -8.390309e+01
   3.600027e+02   4.183306e+02
  -1.206820e+01   5.531805e+02
  -2.229527e+02   2.254910e+02
  -1.960482e+02  -3.307784e+02
   5.251542e+01  -5.048730e+02
   3.767128e+02  -3.806533e+01
   2.133045e+02   4.139255e+02
  -1.155288e+02   5.880686e+02
  -3.616274e+02   2.027651e+02
  -3.707940e+02  -1.496873e+02
  -1.702185e+02  -3.052582e+02
   1.071711e+02  -2.413547e+02
   8.377596e+01  -8.808478e+01
  -1.497017e+02  -1.185397e+02
  -2.523961e+02  -2.101897e+02
  -4.644322e+01  -2.824915e+02
   3.732442e+02  -1.919463e+02
   5.277472e+02   1.664000e+02
   2.115851e+02   2.687351e+02
  -2.120019e+02   1.789300e+02
  -4.217304e+02  -1.181088e+02
  -1.635994e+02  -2.054453e+02
   2.107427e+02  -2.954903e+02
   3.898265e+02  -1.688933e+02
   2.484931e+02   1.259066e+02
   5.985752e+00   2.883796e+02
   8.480086e+00   2.081754e+02
   2.666337e+01  -6.055023e+01
   1.459108e+02  -1.376952e+02
   1.610102e+02   8.999907e+01
   6.336583e+01   4.778176e+02
  -1.637283e+02   3.762298e+02
  -2.570459e+02   2.441028e+01
  -1.440463e+02  -2.698484e+02
   1.021532e+02  -1.049813e+02
   1.906585e+02   1.752736e+02
  -3.390432e+01   3.245185e+02
  -4.115364e+02   2.157398e+01
  -3.822316e+02  -2.831374e+02
  -1.527341e+02  -3.996401e+02
   2.431108e+02  -2.397583e+02
   4.377210e+02   6.044548e+01
   3.327415e+02   1.696626e+02
  -1.455604e+00   2.245269e+02
  -2.449316e+02   2.865579e+01
  -2.317009e+02  -5.208187e+01
  -4.946737e+01  -4.044144e+01
   7.218900e+01  -3.284807e+01
  -4.438898e+01   5.018091e+01
  -2.194363e+02  -6.156107e+01
  -1.242824e+02  -1.777234e+02
   1.454949e+02  -1.978474e+02
   2.838644e+02  -1.075352e+02
   1.547305e+02   7.483035e+01
  -1.458891e+01   3.250617e+02
  -2.685525e+02   3.203083e+02
  -3.494620e+02   1.743908e+02
  -1.834165e+02  -1.723296e+02
  -5.998073e+01  -3.637700e+02
  -5.588531e+00  -2.947219e+02
  -1.059132e+00  -9.826958e+01
  -3.372172e+01  -7.213238e+01
   1.199462e+02  -7.873316e+01
   2.231599e+02  -3.857151e+01
   1.424630e+02   9.236997e+01
   1.028848e+02   2.432287e+02
  -1.064062e+02   1.777021e+02
  -2.400998e+02   4.567431e+01
  -6.108898e+01  -1.876785e+02
   3.042301e+01  -2.055865e+02
   2.418349e+02   6.209937e+00
   2.522597e+02   1.321949e+02
   1.297481e+02   2.915743e+02
  -9.363869e+01   1.789657e+02
  -5.418767e+01   1.180381e+02
  -1.052929e+02   5.564098e+01
  -1.188301e+02   5.756689e+01
  -2.345016e+02   5.717720e+01
  -4.034988e+02  -1.141648e+02
  -2.480478e+02  -2.023075e+02
   1.431764e+01  -3.179584e+02
   3.557727e+02  -3.569918e+02
   3.824202e+02  -1.769318e+02
   2.312313e+02   6.770639e+01
   8.238662e+01   1.903420e+02
  -8.905746e+01   1.577800e+02
  -2.371783e+01   8.183342e+01
   9.898398e+01  -3.210389e+01
   1.155592e+02   9.513385e+01
   1.695920e+01   1.025076e+02
  -1.151710e+02   1.366017e+02
  -1.189148e+02  -3.811813e+01
   2.916627e+00  -6.973733e+01
   1.291355e+02  -8.532832e+01
   1.184002e+02   1.637559e+02
  -2.519551e+01   3.305408e+02
  -2.194207e+02   1.574183e+02
  -2.983085e+02  -5.260333e+01
  -2.509834e+02  -1.846729e+02
  -8.949649e+01  -3.233822e+02
   7.814196e+01  -6.435951e+01
   1.447016e+02  -8.177135e+00
  -1.322102e+01   3.090349e+01
  -4.896969e+01  -9.529641e+01
   1.485076e+01  -1.214188e+02
   1.078560e+02  -7.766630e+01
   1.244928e+02   8.804626e+00
   6.414294e+01   7.788875e+01
  -2.399486e+01  -2.008965e+01
  -6.797870e+01  -1.560117e+02
   1.174196e+02  -1.503946e+02
   2.524488e+02   7.419665e+01
   2.101072e+02   1.738849e+02
   1.873454e+01   2.679821e+02
  -1.890021e+02   1.736124e+02
  -2.378598e+02   3.837878e+01
  -9.875160e+01  -5.710757e+01
   8.236497e+01  -1.662689e+01
   4.245108e+01  -4.474408e+01
  -5.387306e+01   3.254046e+01
  -1.794911e+02   3.050910e+01
  -1.839809e+02  -1.018791e+02
  -8.744163e+01  -1.839787e+02
   7.808522e+01  -9.813866e+01
   5.997830e+01  -2.009549e+01
   2.537927e+01   1.682497e+01
  -3.217677e+01  -7.004016e+01
  -9.518687e+00  -1.181758e+02
   1.062608e+02  -3.324795e+01
   1.905883e+02   2.641512e+01
   1.191131e+02   8.623389e+01
   4.727932e+01   1.684557e+02
  -1.292784e+02   1.689879e+02
  -1.325749e+02   1.671920e+01
  -3.276120e+01  -1.435163e+02
   4.137272e+01  -4.897087e+01
   7.251222e+01   2.429543e+01
  -3.154698e+00   8.262700e+00
   9.328412e+01  -4.660293e+01
   3.576262e+01  -5.386589e+01
   1.212110e+02  -1.945674e+01
   1.274342e+02   2.962904e+01
   1.222911e+01   1.261999e+02
  -1.145720e+02   7.934125e+01
  -2.334150e+02  -5.749983e+01
  -1.306916e+02  -1.270883e+02
  -2.965802e+01  -1.877857e+02
   1.295838e+02  -1.972388e+02
   9.816040e+01  -8.920481e+00
   7.513254e+01   6.903174e+01
   9.735238e+00   2.490361e+01
   2.334735e+01   1.357068e+00
   8.239718e+01  -4.043512e+01
   3.323945e+01   4.847632e+01
  -4.532395e+01   1.138352e+02
  -5.703840e+01   1.192910e+02
  -1.085674e+02   3.817141e+00
   6.151295e+01  -1.358848e+02
   1.164645e+02  -1.426169e+01
   1.852755e+02   3.514044e+01
   9.552575e+00   1.811476e+02
  -1.681546e+02   1.316498e+02
  -1.963088e+02   4.649490e+01
  -2.142155e+02  -6.943436e+01
  -9.983405e+01  -1.543114e+02
   3.120379e+01  -1.298486e+02
   4.548722e+01  -3.931481e+01
   4.702340e+01  -5.183595e+01
   3.277684e+01  -4.868499e+01
   9.278998e+01  -1.082642e+02
   1.070111e+02   3.019646e+01
   1.117520e+02   1.558097e+02
  -7.310243e+00   1.979840e+02
  -1.111575e+02   9.136902e+01
  -1.730207e+02   3.436791e+01
  -1.345024e+02  -1.522010e+02
   6.951920e+00  -1.575977e+02
   4.267443e+01  -1.237498e+02
   4.381640e+01   2.157826e+01
   1.409168e-01   3.794267e+00
  -3.503776e+01   7.806366e+01
   5.775901e-01   5.793484e+00
   8.935078e+01  -1.943062e+01
   9.255775e+00   2.485316e+01
  -6.013260e+01   1.483280e+01
  -1.933665e+02   1.345725e+01
  -7.920977e+01  -3.534441e+01
   3.443365e+01  -5.072463e+01
   1.002207e+02  -6.255674e+01
   1.417276e+02   4.877937e+01
   4.522289e+01   8.719474e+01
  -9.790029e+01   5.583724e+01
  -9.353780e+01  -3.674398e+01
  -4.429923e+00  -6.113595e+01
   5.153123e+01  -4.067892e+01
   7.279983e+01  -4.436081e+00
   9.258706e+01   5.554448e+01
   5.192380e+01   3.750191e+01
   4.140476e+01  -2.370667e+01
   3.872831e+01   1.727694e+00
   5.543162e+01   6.210575e+01
  -1.114657e+01   1.050843e+02
  -1.297293e+02   1.179169e+02
  -1.267512e+02   2.580035e+01
  -1.124017e+02  -9.444616e+01
  -1.668233e+01  -8.685755e+01
   5.501982e+01  -4.009111e+01
   4.985965e+01  -2.968929e-01
  -8.847041e+01   3.949475e+01
  -1.205824e+02  -7.097916e+01
  -5.513736e+01  -1.325411e+01
   5.989277e+01  -5.860950e+01
   1.313648e+02  -7.344784e+01
   1.527178e+02   6.640411e+01
   2.690605e+01   8.128465e+01
  -6.023602e+01   1.167720e+01
  -3.856204e+01   2.000828e+01
   3.905363e+01   4.259062e+01
   7.374928e+01   2.256701e+01
   3.352636e+01   9.260177e+01
  -9.294562e+01   9.700326e+01
  -9.911874e+01   5.145222e+01
  -9.802962e+01  -2.221310e+01
  -3.176185e+01  -1.946331e+02
   8.666006e+01  -1.256473e+02
   1.166237e+02   7.476949e+01
   8.172984e+01   9.078125e+01
  -3.621109e+01   1.047979e+02
  -2.195766e+01   5.106221e+00
  -3.624417e+01  -5.674936e+01
  -9.626323e+00  -2.023146e+01
   1.092461e+01   4.556621e+00
  -3.138139e+01  -5.463093e+01
  -6.658812e+01  -4.701468e+01
  -4.310718e+01  -6.073727e+01
   8.024840e+01  -6.647741e+01
   1.466812e+02   2.317995e+01
   1.291821e+02   1.155225e+02
   4.642598e+01   2.170541e+00
  -5.779393e+01   1.741989e+01
  -5.301706e+01   4.215062e+01
  -7.444221e+00   5.086417e+00
   2.664122e+01  -1.439948e+00
   5.986094e+01  -6.768104e+01
  -3.726902e+01   1.877820e+00
  -2.123375e+01  -1.081054e+01
   1.099827e+02  -2.582480e+01
   9.395168e+01   3.835675e+00
   4.226972e+01   3.620701e+01
  -9.721784e+01   1.179822e+02
  -1.089436e+02   6.370925e+01
  -1.377474e+02  -3.002011e+01
  -4.596883e+01  -1.365375e+02
   5.683726e+01  -1.218546e+02
   1.048821e+02  -9.440103e+01
   5.093316e+01  -3.932804e+00
  -3.492135e+01   2.942905e+01
   2.505819e+01  -5.211354e+00
   2.267138e+01   1.170569e+01
   3.025187e+01   8.486325e+01
   1.259325e+01   1.225391e+02
  -1.250284e+01   1.254035e+02
  -1.014541e+02  -8.493448e+00
  -1.203541e+02  -4.412725e+01
  -6.784367e+01  -5.911378e+01
   4.208606e+01  -6.369294e+01
   8.630647e+01   5.597996e+01
   1.971599e+01   1.165437e+01
  -1.082829e+02   9.439363e+00
  -9.653800e+01   1.216725e+01
  -4.858609e+00  -2.732009e+01
   2.804201e+01  -2.312946e+01
   8.601111e+01   3.853300e+00
  -7.009346e+00   2.400982e+01
  -1.231618e+02  -7.533680e+01
  -1.183258e+01   1.224349e+01
   7.525380e+01  -5.920814e+01
   3.360751e+01  -6.340340e+01
   7.126118e+01   8.494922e+00
  -1.218401e+01   7.895520e+01
  -5.011682e+01   6.968848e+01
  -5.672742e+01   3.981002e+01
  -5.423775e+01  -7.556989e+01
  -6.106016e+00  -7.485996e+01
   1.570883e+01   4.305406e+01
  -2.652750e+01   8.599591e+01
  -1.284019e+01   5.329373e+01
   6.868274e+00  -1.760940e+01
  -4.123507e+01  -7.782037e+01
  -1.437623e+01   5.453776e+01
   4.582896e+00   4.225808e+01
  -3.698418e+01  -1.180845e+01
   1.693630e+01  -1.349733e-01
  -3.848868e+00  -1.969580e+01
   2.083136e+01  -3.691804e+01
  -5.668698e+00  -1.332947e+01
  -1.653290e+01   1.935141e+01
  -1.416548e+01   1.251243e+00
  -3.579344e+01  -3.179407e+01
  -3.418202e+00  -8.745078e+01
  -1.736811e+01  -5.387227e+01
   1.295177e+02  -1.537722e+01
   5.842386e+01   1.056360e+02
  -8.984621e+01   8.167674e+01
  -5.091470e+01   2.758754e+01
   8.192642e+00  -3.086017e+01
   8.082892e+01  -7.780256e+01
   5.340108e+01  -1.977903e+01
  -6.707313e+01  -1.888516e+01
  -7.195494e+01   8.769702e+00
