
 $NMID
 id='ANONYMOUS ', fmtdat='(2E16.6)'
 volume=1.0
 tramp=1.0
 $END
  -4.297579e+03   7.896502e+01
  -2.646334e+03  -2.591322e+03
   5.874193e+02  -2.804340e+03
   2.062261e+03  -1.048758e+03
   9.779433e+02   6.394948e+02
  -5.453870e+02   5.504944e+02
  -8.377837e+02  -3.454719e+02
  -2.129904e+01  -1.103108e+03
   7.427976e+02  -8.594886e+02
   9.246961e+02   6.705411e+01
   4.625995e+02   8.896053e+02
  -1.985484e+02   9.137090e+02
  -6.399169e+02   1.392716e+02
  -4.350600e+02  -6.307311e+02
   2.455959e+02  -7.178691e+02
   5.827646e+02  -5.371093e+01
   2.498244e+02   7.228214e+02
  -3.157247e+02   6.743515e+02
  -6.383536e+02   1.030718e+02
  -4.614152e+02  -3.549684e+02
  -3.300756e+01  -4.212617e+02
   2.147783e+02  -2.558684e+02
   2.158569e+02   1.782849e+01
  -1.260175e+02   4.472707e+01
  -3.936362e+02  -1.297626e+02
  -1.706541e+02  -3.995212e+02
   5.456718e+02  -4.283478e+02
   8.359591e+02   5.176406e+01
   4.300298e+02   5.076426e+02
  -4.013062e+02   4.658380e+02
  -7.766329e+02   5.328605e+00
  -3.297826e+02  -4.674154e+02
   2.486389e+02  -5.545875e+02
   5.948020e+02  -2.030130e+02
   4.449135e+02   2.607223e+02
   6.628690e+01   4.453335e+02
  -1.427573e+02   3.042597e+02
  -1.719343e+02  -1.619327e+02
   2.005845e+02  -4.468651e+02
   4.260808e+02   2.999010e+01
   2.716881e+02   6.066526e+02
  -2.926589e+02   6.243558e+02
  -5.487928e+02   3.450054e+01
  -2.683466e+02  -5.707325e+02
   3.182703e+02  -3.144725e+02
   2.947214e+02   2.832668e+02
  -1.213559e+02   6.069618e+02
  -5.291213e+02   1.181626e+02
  -6.002158e+02  -3.867900e+02
  -1.771630e+02  -6.478075e+02
   4.232641e+02  -2.954967e+02
   6.391902e+02   5.807630e+01
   4.185220e+02   3.873272e+02
  -1.624657e+02   3.354066e+02
  -4.927585e+02   1.030077e+02
  -2.399335e+02  -2.241781e+02
   8.664057e+01  -1.930194e+02
   1.594747e+02   1.025666e+02
  -1.595996e+02   1.655089e+02
  -3.241534e+02  -6.565958e+01
  -1.048986e+02  -2.332270e+02
   2.329902e+02  -2.199050e+02
   3.070717e+02  -5.904629e+01
   1.931232e+02   9.838291e+01
   1.147085e+01   2.584921e+02
  -2.006279e+02   3.360893e+02
  -3.515625e+02   2.187553e+02
  -3.217770e+02  -1.049105e+02
  -7.286988e+01  -3.863091e+02
   6.487530e+01  -3.207686e+02
   1.635317e+02  -1.161464e+02
   5.506022e+01  -4.908343e+01
   4.883314e+01  -3.575161e+01
   1.921922e+02  -9.357243e+01
   2.642809e+02   3.607656e+01
   1.778136e+02   2.642668e+02
  -2.144894e+01   2.960593e+02
  -3.031212e+02   7.137735e-01
  -1.559695e+02  -2.140556e+02
   1.119283e+01  -3.064977e+02
   2.847947e+02  -1.413578e+02
   3.443993e+02   1.897126e+02
   1.686705e+02   3.451058e+02
  -4.826575e+01   2.809223e+02
  -2.190475e+02   1.312669e+02
  -1.198258e+02   1.574096e+01
  -1.020432e+02   4.619149e+01
  -3.409309e+02   2.882877e+01
  -3.942351e+02  -4.180583e+01
  -3.270666e+02  -2.844722e+02
  -4.181536e+01  -4.520024e+02
   4.066344e+02  -4.660604e+02
   5.145032e+02  -1.455142e+02
   3.516981e+02   6.418453e+01
   3.496367e+00   3.435654e+02
  -1.248882e+02   2.440580e+02
  -1.416210e+02   1.310671e+01
   6.047141e+01  -7.502578e+01
   1.928097e+02   1.906356e+01
   6.254132e+01   1.440215e+02
  -1.105233e+02   1.786414e+02
  -1.989836e+02  -6.763999e+01
  -3.339263e+01  -2.290066e+02
   2.051628e+02  -7.556942e+01
   1.954292e+02   2.584146e+02
  -1.793460e+01   3.717977e+02
  -2.581797e+02   1.429352e+02
  -3.247437e+02  -5.826450e+01
  -2.714897e+02  -2.783264e+02
  -9.815636e+01  -3.149782e+02
   1.183392e+02  -2.171104e+02
   1.501900e+02   1.144787e+01
   8.923847e+01   1.007731e+02
  -6.263472e+01   1.069097e+01
  -8.564069e+01  -1.013635e+02
   1.426594e+02  -1.112882e+02
   1.848995e+02  -4.234925e+00
   2.870357e+01   2.733038e+01
  -1.908344e+01   5.149946e+00
  -5.650143e+01  -7.826765e+01
   1.601728e+02  -8.978344e+01
   3.315879e+02  -5.605730e+00
   2.496418e+02   1.832070e+02
   2.397826e+01   2.813020e+02
  -1.548341e+02   2.472325e+02
  -2.967106e+02   1.500371e+02
  -1.432071e+02  -7.056771e+01
   1.297989e+01  -1.038859e+02
   5.856223e+01  -1.256961e+01
  -4.854552e+01   1.134397e+02
  -1.773019e+02   8.210361e+01
  -1.936708e+02  -1.046418e+02
  -9.994504e+01  -2.222502e+02
   8.833509e+01  -1.854894e+02
   1.410916e+02  -6.910807e+01
   1.143962e+02   5.383787e+01
  -9.830414e+01  -3.653025e-01
  -4.921587e+01  -4.795810e+01
   7.865801e+01  -1.155916e+02
   2.182133e+02  -4.107890e+01
   1.666698e+02   1.586789e+02
   3.824400e+01   2.459697e+02
  -1.765290e+02   1.486247e+02
  -2.139775e+02  -1.421717e+01
  -5.967883e+01  -7.678881e+01
   9.952732e+01  -1.776450e+02
   7.677812e+01   1.084125e+01
   3.575116e+01   3.172545e+01
   5.203955e+00   4.910981e+01
   5.416617e+01  -3.452236e+01
   7.499706e+01   5.286973e+00
   9.782747e+01   1.164246e+02
   6.597334e+01   1.525187e+02
  -1.198028e+02   1.713261e+02
  -2.014315e+02   3.536591e+01
  -2.268375e+02  -1.969828e+02
  -6.704398e+01  -2.133282e+02
   1.178449e+02  -1.302951e+02
   1.467627e+02  -5.707165e+01
   9.107096e+01   1.407429e+02
  -2.356867e+01   6.416940e+01
   5.193422e+01  -1.360504e+01
   4.053386e+01   1.006381e+00
   6.736602e+00   2.213837e+01
  -3.967744e+01   1.217307e+02
  -1.123605e+02   3.334876e+01
  -9.154614e+01  -1.775714e+01
   5.277457e+01  -1.301093e+02
   1.632045e+02  -5.286281e+01
   1.969034e+02   5.393758e+01
   1.135352e+02   2.517779e+02
  -1.156190e+02   2.573384e+02
  -2.883464e+02   7.309900e+01
  -2.350937e+02  -2.892434e+01
  -1.028115e+02  -2.071014e+02
   5.856767e+01  -1.923874e+02
   4.858309e+01  -9.562117e+01
   4.222696e+01  -7.274431e+01
   1.205102e+02  -6.176535e+01
   1.112323e+02  -1.125743e+02
   1.376116e+02  -8.749136e+00
   1.305853e+02   1.322844e+02
   7.832832e+00   2.635060e+02
  -1.939469e+02   1.933292e+02
  -2.408230e+02   2.917719e+01
  -1.209266e+02  -1.305529e+02
  -4.831703e+01  -1.660618e+02
   9.110928e+01  -8.055243e+01
   8.695121e+01  -3.778479e+01
   3.047526e+01   8.661383e+01
   7.600032e+00  -9.126798e+00
   8.916956e+01  -7.143081e-01
   5.076096e+01   3.768909e+01
   4.165863e+01   4.177350e+01
  -4.870158e+01   1.025282e+02
  -1.463037e+02   3.232305e+01
  -7.270225e+01  -8.441572e+01
  -3.926434e+00  -4.660853e+01
   1.556566e+02  -1.016466e+02
   1.268033e+02   2.210568e+01
   1.306433e+01   3.809016e+01
  -4.975105e+01  -7.492470e+00
  -1.596696e+02  -9.183881e+00
  -2.715963e+01  -3.420298e+01
   8.543233e+01  -2.559601e+01
   9.559772e+01  -9.356570e-01
  -4.548145e+00   5.715905e+01
   2.850430e+01   6.585255e+01
   1.229505e+00  -9.508668e+00
   6.313265e+01  -1.680724e-01
   3.626501e+01  -8.239486e+00
  -4.760598e+00   1.784839e+02
  -9.951836e+01   1.200286e+02
  -1.993956e+02   6.574292e+01
  -1.027585e+02  -8.300036e+01
  -3.875795e+01  -1.069378e+02
   5.455412e+01  -1.100540e+02
   9.898083e+01  -4.237949e+01
  -9.710467e+01   1.477689e+01
  -1.290801e+02  -3.953524e+01
  -6.020024e+01  -1.397977e+02
   9.565199e+01  -1.200229e+02
   2.202564e+02  -7.465706e+01
   1.824172e+02  -3.592835e+00
  -1.261897e+01   1.332208e+02
  -1.612856e+01   1.096464e+02
  -5.455002e+01  -3.676043e+01
  -7.604515e+00  -4.509965e+01
   6.981157e+01   2.143476e+00
   5.869149e+01   1.575580e+02
  -1.173257e+02   2.135634e+02
  -2.148636e+02   7.422031e+01
  -1.280869e+02  -1.864110e+01
  -6.240978e+01  -1.931416e+02
   3.434502e+01  -1.428548e+02
   8.495575e+01   1.732730e+01
   6.675700e+01   1.136989e+02
  -6.309193e+00   8.989981e+01
  -7.941737e+01   2.406524e+00
  -4.431260e+00   2.579634e+01
  -1.086213e+01  -3.798361e+01
   1.633366e+01  -1.276649e+01
  -7.507896e+01   2.617828e+01
  -7.758291e+01  -1.002339e+02
  -4.925428e+01  -1.241467e+02
  -6.939155e+00  -3.080595e+01
   1.485971e+02   3.981953e+01
   9.279488e+01   8.531313e+01
   3.578255e+01   3.322956e+01
  -3.302400e+01   5.925807e+00
  -9.826969e+01   5.163055e+01
  -2.161330e+01  -1.965919e+01
   8.545833e+01  -2.405578e+01
   7.410726e+00  -3.756379e+01
   2.642779e+01  -2.010640e+00
  -4.087075e+01  -4.647564e+01
   6.665451e+01  -1.113501e+01
   6.934388e+01  -1.416248e+01
   1.220225e+00   6.065751e+01
  -6.906415e+01   1.263146e+02
  -2.022698e+02   9.710140e+01
  -8.737054e+01  -3.372879e+01
   2.583688e+01  -1.571041e+02
   2.437278e+01  -1.223301e+02
   1.364267e+02  -6.403486e+01
   3.238855e+01   4.615333e+01
   8.996438e+01   2.902238e+01
   8.554203e+01  -2.434771e+01
   1.336474e+00  -3.235325e+00
   5.284101e+01   3.672723e+01
   1.731179e+01   1.402080e+01
   5.936287e+00   1.038493e+02
  -7.135956e+01  -3.904671e+01
  -8.312691e+01  -1.078577e+02
  -1.430279e+01  -1.009506e+02
   7.750218e+01  -4.430686e+01
   6.696150e+01   1.096116e+02
   8.802937e+01   9.967541e+01
  -9.332271e+01   4.877800e+01
  -1.275137e+02  -2.732986e+00
  -7.814076e+01   4.437273e+00
   5.038261e+01  -2.563705e+01
   8.519278e+01  -4.359990e+01
  -3.420623e+01   4.600416e+01
  -3.350929e+01   6.945727e+00
  -2.371735e+01  -9.547074e+01
   7.026441e+01  -2.908109e+01
   8.503166e+01  -9.175443e+01
   9.957751e+00   3.469993e-01
  -2.342224e+01   1.138893e+02
  -2.223365e+01   8.437384e+01
  -4.483314e+01   5.920673e+00
   2.426859e+01  -6.323079e+01
   4.096923e+01  -4.169811e+01
   5.999737e+01   7.320727e+01
  -5.662982e+00   4.576401e+01
   2.976895e+01   1.938994e+01
   3.614413e+01   2.743617e+01
  -8.630500e+01   1.483874e+01
  -5.137763e+01   5.449083e+01
   9.934948e-01   1.661581e+01
   2.620425e+01  -3.997993e+00
   2.870492e+01  -4.695678e+01
   2.489891e+01  -4.340838e+01
   6.555154e+00  -3.426825e+01
   3.089733e+01   5.738542e+01
   2.778549e+01   2.113539e+01
  -1.344094e+02   3.404646e+01
  -5.164369e+01  -5.246690e+00
  -4.537888e+00  -4.905976e+01
   8.195072e+01   5.499833e+00
   8.697117e+01   3.667111e+01
   3.399503e-01   2.274275e+01
  -8.137514e+01   7.409823e+00
  -3.979127e+01  -1.647138e+01
  -4.428979e+01   4.524745e+01
   1.515610e+01  -3.409045e+01
   1.593714e+01  -1.961926e+00
  -6.687700e+01   6.498860e+00
  -4.665463e+01   1.965576e+01
