
 $NMID
 id='ANONYMOUS ', fmtdat='(2E16.6)'
 volume=1.0
 tramp=1.0
 $END
   2.692194e+03  -2.698779e+01
   1.532172e+03   1.691525e+03
  -5.233550e+02   1.661641e+03
  -1.329622e+03   4.381546e+02
  -5.407418e+02  -5.025119e+02
   5.609809e+02  -3.375861e+02
   5.615429e+02   3.570845e+02
  -4.712194e+01   6.992139e+02
  -6.129149e+02   4.646438e+02
  -5.368292e+02  -1.052705e+02
  -2.923274e+02  -5.725622e+02
   2.236391e+02  -5.451547e+02
   4.458771e+02  -3.459878e+01
   2.573058e+02   4.478301e+02
  -1.802078e+02   4.841767e+02
  -4.051098e+02  -5.863226e+01
  -1.382142e+02  -4.660994e+02
   1.950075e+02  -3.958957e+02
   3.705848e+02  -2.843299e+00
   2.083233e+02   2.884506e+02
  -7.840488e+01   2.480047e+02
  -1.609117e+02   1.463080e+02
  -1.230533e+02   1.727835e+01
   6.873384e+01  -3.298174e+01
   2.857513e+02  -1.961233e+00
   1.298259e+02   3.127240e+02
  -2.565444e+02   2.919962e+02
  -5.709378e+02  -4.109513e+01
  -2.892536e+02  -3.840627e+02
   2.894920e+02  -2.681132e+02
   4.620147e+02   1.848881e+01
   2.256491e+02   3.282925e+02
  -1.569264e+02   3.254147e+02
  -3.982357e+02   1.134450e+02
  -2.102096e+02  -1.470330e+02
  -2.528731e+01  -2.699432e+02
   1.574075e+02  -2.223852e+02
   1.085725e+02   1.640464e+02
  -1.602673e+02   2.675645e+02
  -2.695388e+02  -6.380272e+01
  -8.615199e+01  -4.418995e+02
   1.934496e+02  -4.590900e+02
   4.137929e+02  -3.610845e+00
   2.144653e+02   3.521533e+02
  -1.962432e+02   2.254691e+02
  -2.685772e+02  -2.175578e+02
   2.968724e+01  -2.966377e+02
   3.748385e+02  -7.932373e+01
   3.348985e+02   2.808220e+02
   1.043813e+02   3.827238e+02
  -1.966029e+02   1.698086e+02
  -4.210262e+02  -6.537671e+01
  -2.606597e+02  -2.892032e+02
   9.684550e+01  -2.322078e+02
   3.153004e+02  -3.927078e+01
   1.611692e+02   1.078426e+02
  -1.287651e+02  -1.281425e+01
  -7.992215e+01  -4.829885e+01
   1.332254e+02  -9.462118e+01
   2.029407e+02   1.350126e+01
   1.050696e+02   2.388210e+02
  -1.432983e+02   1.914469e+02
  -2.060023e+02   3.411105e+01
  -1.391754e+02  -5.485299e+01
   4.328816e+01  -1.081590e+02
   6.980188e+01  -1.718305e+02
   2.273610e+02  -1.080806e+02
   2.290859e+02   9.446581e+01
  -2.005276e+01   3.486380e+02
  -7.414707e+01   2.755251e+02
  -1.116950e+01   5.408849e+01
   9.988217e+00  -2.080230e+01
   1.521045e+01   1.374070e+01
  -8.855265e+01   8.113231e+01
  -1.658745e+02  -6.058012e+01
  -9.937639e+01  -1.511371e+02
   6.734107e+01  -1.805645e+02
   1.275203e+02  -1.230126e+01
   1.258875e+02   2.036817e+02
  -5.665461e+01   1.560858e+02
  -1.340571e+02   9.989998e+01
  -2.283233e+02  -9.710065e+01
  -1.176711e+02  -2.311385e+02
   1.133333e+02  -1.397553e+02
   1.285573e+02  -6.212425e+01
   1.228183e+02   3.838854e+01
   6.822382e+01  -7.490628e+00
   1.305098e+02  -5.617534e+01
   1.778715e+02   2.284929e+01
   1.975162e+02   1.610953e+02
   6.258426e+01   2.917060e+02
  -2.222015e+02   2.500359e+02
  -3.497125e+02   1.122927e+02
  -2.030194e+02  -6.820313e+01
  -5.899132e+01  -1.934828e+02
   8.984825e+01  -2.124773e+02
   5.602593e+01  -4.129009e+01
  -2.862698e+01   1.564955e+01
  -9.154824e+01  -2.356873e+01
  -6.859159e+01  -1.098367e+02
   1.002027e+02  -9.628427e+01
   1.579051e+02   1.721150e+01
  -5.996036e+00   1.778055e+02
  -1.288605e+02   8.166566e+01
  -9.828172e+01  -2.020506e+02
   2.214845e+01  -1.928091e+02
   1.019608e+02  -6.749448e+01
   2.222340e+02  -1.082098e+01
   1.169568e+02   1.125697e+02
   5.077192e+01   1.708269e+02
  -7.807107e+01   5.337116e+01
  -1.765252e+02   2.853386e+01
  -7.257631e+01   1.388472e+01
   1.048315e+02  -2.754408e+01
   5.975351e+01   2.944587e+01
  -2.946141e+01   5.077753e+01
  -7.214900e+01  -3.422156e+00
  -6.435703e+01   2.564273e+00
   5.559224e+01  -1.486008e+01
   3.345234e+01   2.954099e+01
  -1.494909e+02  -9.127595e+00
  -1.457822e+02   1.201137e+01
  -2.051245e+02  -1.060718e+02
   1.252337e+01  -1.335705e+02
   8.671541e+01  -1.974296e+02
   2.098708e+02  -3.948449e+01
   1.225312e+02  -4.917199e+01
  -3.745075e+00   1.142290e+02
  -9.904574e+01  -3.872935e+01
   5.335918e+01  -1.263336e+02
   1.291940e+02  -6.133451e+01
   1.561273e+02   5.017808e+01
   5.829064e+01   1.464748e+02
  -8.123530e+01   1.020864e+02
  -9.374530e+01   3.307055e+01
   8.944854e+00  -7.607744e+01
   4.752573e+01   2.382468e+01
   3.407350e+01   6.806218e+01
  -6.639071e+01   7.395358e+01
  -1.475867e+02   1.585398e+00
  -1.351386e+02  -9.142785e+01
  -1.690097e+01  -1.859165e+02
   7.837303e+01  -9.903098e+01
   1.151823e+02  -1.611547e+01
   3.107277e+01   6.077532e+01
  -2.286374e+01   1.037426e+02
  -2.976278e+01  -1.716039e+01
   1.403152e+01  -4.950803e+01
  -3.795367e+01  -4.231776e+01
   5.960424e+00  -5.041168e+01
  -6.230358e+01   3.525343e+01
  -4.312076e+01  -2.110634e+01
  -1.441261e+01  -8.257397e+01
   1.477974e+02  -5.808241e+01
   1.606861e+02  -5.515321e+01
   1.051166e+02   6.101378e+01
   1.941668e+01   1.311595e+02
  -5.543472e+01   1.613160e+02
  -9.709580e+01   7.932470e+00
  -3.088928e+01  -1.227363e+01
   3.545946e+01  -4.849435e+01
  -8.920503e+01   9.093250e+00
  -2.550318e+01   2.818192e+01
  -1.197443e+01  -5.387453e+01
   7.746863e+00  -7.397885e+01
   3.508962e+01  -3.445264e+01
   6.787609e+01   1.393854e+01
  -4.726977e+01   4.621836e+01
  -4.378367e+01   5.506424e+01
  -1.305674e+02  -3.907324e+01
  -1.056999e+02  -1.202033e+02
   1.016675e+02  -1.150160e+02
   1.355682e+02  -9.446728e+01
   8.213162e+01   7.658879e+01
   1.047791e+01   1.075997e+02
  -3.969447e+01   9.202708e+01
  -9.736583e+01   9.356389e+01
  -8.272586e+01   5.853003e+01
  -7.518147e+01   8.338777e+01
  -4.898323e+00   6.305911e+01
  -9.347281e+01  -2.096395e+01
  -5.351283e+01  -6.521176e+01
  -2.599534e+01  -6.831141e+01
   7.028422e+01  -1.368562e+02
   1.282355e+02   4.943635e+00
   1.720324e+01   9.932632e+01
  -4.045943e+01   1.021422e+02
  -2.651654e+01   5.076158e+01
  -2.833499e+01   1.842976e+01
   2.530374e+01  -1.473227e+01
  -4.216853e+01  -6.875263e+01
   1.986617e+01  -8.716278e+00
  -4.976203e+01   4.657476e+01
  -1.108323e+01   2.036109e+00
   8.035377e+01  -3.003647e+01
   1.272043e+02  -5.348202e+01
   7.894767e+01   2.024271e+01
   1.283793e+01   2.465339e+01
  -2.903522e+01   6.522164e+01
  -7.039574e+01   4.522649e+01
  -1.517620e+01  -5.546627e+01
   5.983025e+01   5.855508e+00
   5.422610e+01   5.863059e+01
  -9.748558e+00   1.235133e+01
  -3.109264e+01   2.240860e+00
  -1.355853e+01  -1.187565e+01
  -4.940845e+01   1.172037e+01
  -5.821807e+00  -8.049923e+01
  -3.272933e+01   1.359199e+01
  -3.285466e+01   1.177356e+00
   1.817958e+01  -2.841340e+01
   3.862469e+01  -4.651782e+01
   1.106420e+02  -9.534809e+01
   1.400133e+02  -6.619973e+01
   9.967902e+00   5.092131e+01
  -1.371987e+01   8.472820e+01
  -5.514880e+01   5.123132e+01
  -4.257866e+01  -2.059454e+01
   5.050223e+01  -3.837355e+01
   2.262847e+01  -1.723787e+00
   6.639406e+01   5.066474e+01
  -6.154452e+01   1.118011e+02
  -9.769081e+01   6.203584e+01
  -8.009820e+01  -2.376828e+01
  -4.071762e+01  -4.884025e+01
   2.049126e+01  -5.824046e+01
   6.257628e+01  -1.283073e+01
  -1.126250e+01   6.852398e+01
  -2.912638e+01  -2.384286e+01
  -6.490606e+01  -4.292066e+01
   6.165461e+01  -1.087508e+02
   1.067783e+02  -6.718234e+01
   5.806699e+01   2.722968e+01
   5.451192e+01   1.248738e+02
  -5.508636e+01   6.521594e+01
  -6.750616e+01  -7.386824e+00
  -1.574176e+01  -4.313725e+01
  -3.824803e+01  -1.960137e+01
   2.076795e+01  -9.896888e-01
   6.306689e+01   1.839645e+01
   4.699821e+01   2.445296e+01
   4.699010e+01  -5.603889e+00
   3.483417e+01   2.452377e+01
   2.957176e+01   2.511904e+01
   3.388843e+01   1.048254e+02
  -8.513168e+01   6.820778e+01
  -7.754323e+01  -5.337447e+01
  -8.532538e+01  -7.456435e+01
   5.923223e+00  -3.631165e+01
   7.960615e+01   8.126848e+00
   4.417221e+01  -1.170838e+00
  -2.302807e+00   1.999250e+01
  -1.752697e+01   3.856097e+00
  -4.543491e+01   5.077265e+00
   5.988451e+00   4.054397e+01
  -5.804350e+01  -2.854093e+00
  -5.053199e+01  -1.276817e+01
  -3.312942e+01   2.170600e+01
  -4.172432e+01  -1.108267e+01
   8.580782e+01  -3.717481e+01
   9.750171e+01   7.321779e+00
   9.449760e+01   1.255220e+01
   3.964408e+01   1.066700e+02
  -5.272001e+01   1.060632e+02
  -8.166863e+01   6.638685e+00
   1.618710e+01   2.745141e+00
  -5.044318e+01  -1.886579e+01
  -2.927710e+01   2.915407e+01
   7.387872e-01   1.981448e+01
  -2.348374e+01  -1.955008e+01
  -6.093847e+00  -9.499433e+01
  -5.557399e+01  -3.855739e+01
   4.756064e+01   1.539252e+01
   2.547644e+01   9.764513e+01
   4.012528e+01   4.679682e+01
  -7.132900e+01   2.518501e+01
  -3.018277e+01  -1.101005e+02
  -5.701558e+01  -1.550247e+01
   6.666226e+01  -5.519998e+01
   6.672375e+01   1.263584e+00
   1.752331e+01   1.728774e+01
  -5.566013e+01   5.459642e+01
  -1.658843e+01   4.952615e+00
   4.303527e+01   2.312596e+01
   1.150152e+02  -4.083778e+01
   1.844058e+01   3.153702e+01
  -2.714415e+01   1.322924e+01
  -7.448671e+01   2.050413e+01
  -6.978918e+00  -6.350318e+01
   2.489524e+01  -4.072882e+01
   3.670821e+01  -5.586123e+01
   1.593843e+01  -9.232182e+00
  -2.752051e+01   5.129826e+01
  -3.157490e+01   1.914015e+01
  -4.528489e+01   2.751352e+01
  -5.908117e+01  -3.441146e+01
   3.215586e+01  -2.684457e+01
  -1.447103e+01  -1.275137e+00
   8.115579e+01  -4.011040e+00
  -1.102108e+01  -6.956370e+00
  -1.244073e+01  -1.738263e+01
  -7.851701e+00  -3.793665e+01
  -4.395096e+01   3.586306e+01
  -1.538883e+01  -1.249986e+01
  -4.156603e+01   1.310158e+01
  -9.450325e+01  -3.448419e+01
  -2.906147e+00  -8.522784e+01
   2.447100e+01  -6.043794e+00
  -1.492010e+01   3.048111e+01
  -1.694371e+01   4.001863e+01
  -2.584373e+01  -6.100330e+00
  -1.409859e+01  -3.603252e+01
  -9.315619e+00  -1.875862e+01
  -2.396499e+00  -3.950853e+01
   6.388406e+01  -4.413103e+01
   4.856515e+00   2.277898e+01
  -6.503389e+01   6.783279e+01
  -4.753832e+01   3.316559e+01
   1.738214e+01  -6.610941e+01
   7.921444e+01  -4.349222e+01
