
 $NMID
 id='ANONYMOUS ', fmtdat='(2E16.6)'
 volume=1.0
 tramp=1.0
 $END
   5.011832e+03   1.725834e+02
   2.753986e+03   3.215990e+03
  -1.155140e+03   3.150404e+03
  -2.596053e+03   8.302114e+02
  -1.031124e+03  -9.101364e+02
   8.680051e+02  -6.569385e+02
   1.034249e+03   5.560774e+02
  -6.805888e+01   1.319066e+03
  -1.021121e+03   8.541890e+02
  -1.071789e+03  -2.564134e+02
  -4.592581e+02  -1.060146e+03
   3.265301e+02  -1.027662e+03
   8.230661e+02  -4.747110e+01
   4.127910e+02   8.351319e+02
  -3.178096e+02   8.953412e+02
  -7.382061e+02  -1.007610e+02
  -2.997447e+02  -7.740769e+02
   4.183106e+02  -6.639283e+02
   6.816979e+02  -8.006670e+01
   4.236768e+02   4.639400e+02
  -1.919291e+01   4.590991e+02
  -3.192345e+02   2.823557e+02
  -1.901511e+02   2.475930e+01
   1.129468e+02  -1.269649e+02
   4.640409e+02   1.363768e+02
   2.675509e+02   4.854153e+02
  -5.335126e+02   4.973165e+02
  -9.645537e+02  -9.356881e+01
  -4.483479e+02  -7.389229e+02
   5.245606e+02  -5.704685e+02
   8.865672e+02   3.171535e+01
   3.383188e+02   5.747836e+02
  -3.103809e+02   5.695222e+02
  -6.731241e+02   2.123037e+02
  -4.016763e+02  -2.432847e+02
  -6.975356e+01  -5.672497e+02
   2.669228e+02  -3.241186e+02
   2.525772e+02   2.527357e+02
  -2.163513e+02   5.753565e+02
  -5.703497e+02  -6.360350e+01
  -3.485113e+02  -8.449442e+02
   3.823625e+02  -8.225878e+02
   7.117356e+02   2.684480e+01
   2.716063e+02   7.074340e+02
  -3.762249e+02   4.027193e+02
  -4.553989e+02  -4.272276e+02
   6.383889e+01  -6.719072e+02
   6.102220e+02  -1.223699e+02
   6.995831e+02   4.518265e+02
   1.276940e+02   6.667674e+02
  -4.585276e+02   3.449619e+02
  -6.933099e+02  -4.967263e+01
  -4.358157e+02  -4.504528e+02
   1.929610e+02  -4.375342e+02
   5.340028e+02  -6.367953e+01
   2.727191e+02   2.795899e+02
  -1.246251e+02   9.574081e+01
  -1.545032e+02  -2.041697e+02
   2.254791e+02  -2.402846e+02
   4.066198e+02   1.304678e+02
   1.162955e+02   3.534766e+02
  -2.319804e+02   2.710210e+02
  -3.191758e+02   2.537404e+01
  -1.605368e+02  -6.394308e+01
   8.439471e+01  -2.462509e+02
   1.929155e+02  -3.588970e+02
   3.794850e+02  -2.488581e+02
   3.240821e+02   1.536700e+02
   8.163863e+01   5.359717e+02
  -1.229890e+02   4.836758e+02
  -1.602474e+02   1.567890e+02
  -1.365071e+01  -8.187290e+01
  -1.469070e+01   8.839908e+01
  -2.134923e+02   1.634634e+02
  -3.497310e+02  -2.522599e+01
  -1.573705e+02  -2.884314e+02
   1.166424e+02  -2.540072e+02
   2.690213e+02   2.602218e+00
   2.728900e+02   2.401354e+02
   1.677975e+01   3.307019e+02
  -3.134414e+02   7.974542e+01
  -3.921861e+02  -1.932828e+02
  -1.698522e+02  -4.660746e+02
   1.152775e+02  -3.434018e+02
   2.702654e+02  -8.549900e+01
   1.413497e+02   1.293575e+01
   1.105666e+02  -3.591455e+01
   1.863725e+02  -8.601428e+01
   4.436303e+02   8.485950e+01
   3.300880e+02   3.281204e+02
   8.847041e+00   4.998682e+02
  -4.452657e+02   4.904234e+02
  -5.066381e+02   2.286025e+02
  -3.993083e+02  -8.060348e+01
  -1.001523e+02  -2.879462e+02
   1.538890e+02  -3.134248e+02
   9.721267e+01  -1.587526e+01
  -1.979934e+02   1.531767e+02
  -2.355271e+02  -5.366300e+01
  -3.335483e+01  -2.477042e+02
   2.016581e+02  -1.565897e+02
   2.647239e+02   6.747308e+01
   4.429160e+01   2.954044e+02
  -2.926498e+02   3.346291e+01
  -1.346343e+02  -2.686458e+02
   6.914372e+01  -3.860848e+02
   2.435075e+02  -1.654350e+02
   3.480779e+02   3.981042e+01
   2.977689e+02   2.494431e+02
   1.483876e+02   3.289060e+02
  -1.808385e+02   1.410402e+02
  -1.738056e+02   2.243734e+01
  -7.011707e+01  -3.888065e+01
   8.959875e+01   3.754435e+01
   1.591817e+01   1.400890e+02
  -1.323964e+02   9.510619e+01
  -2.112539e+02   4.298830e+01
  -1.847459e+01  -1.051662e+01
   1.100059e+02  -3.880069e+01
   8.463697e+01   5.991384e+01
  -1.375024e+02   8.036271e+01
  -3.564820e+02  -1.697673e+01
  -2.932121e+02  -1.637514e+02
  -7.358597e+01  -2.929360e+02
   2.772565e+02  -3.378811e+02
   3.074867e+02  -1.043909e+02
   1.940890e+02   6.508645e+01
  -9.355735e+00   1.051271e+02
  -8.136488e+01  -5.308303e+01
   6.623596e+01  -6.403842e+01
   1.783113e+02  -2.663266e+01
   2.626535e+02   1.803469e+02
   1.031183e+02   2.351358e+02
  -5.800342e+01   1.371424e+02
  -1.736613e+02   7.928910e+00
  -7.568964e+01  -7.391121e+01
   1.298508e+01  -1.681084e+01
   1.039221e+02   2.935005e+01
  -3.272790e+01   1.842847e+02
  -1.762155e+02  -2.599177e+01
  -2.149620e+02  -1.297425e+02
  -2.780268e+00  -2.457817e+02
   1.921646e+02  -1.917226e+02
   2.229948e+02   1.066390e+01
   9.845592e+01   1.449941e+02
  -6.590151e+01   1.290593e+02
  -8.067015e+01   4.735921e+01
  -7.890202e+01  -5.783203e+01
   2.462289e+01   7.607079e+01
   1.486411e+01   6.094100e+00
  -3.527981e+00   5.421772e+00
  -8.705849e+01  -5.982975e+01
   4.254329e+01  -1.626555e+02
   1.137486e+02  -2.147668e+02
   2.348754e+02  -7.236764e+01
   2.267245e+02   1.653584e+02
   8.136629e+01   2.948207e+02
  -1.279013e+02   1.797030e+02
  -1.671478e+02   1.321693e+00
  -8.147152e+01  -8.636848e+01
  -5.209993e+01  -4.773074e+01
  -6.797793e+01   6.775736e+01
  -6.286905e+01   1.665464e+01
  -1.931831e+01  -2.475886e+01
  -5.139863e+01  -1.048672e+02
   1.094913e+02  -6.702089e+01
   1.026859e+02   1.299264e+01
   2.514003e+01   1.149399e+02
  -1.664242e+02   7.657089e+01
  -1.984300e+02  -4.689588e+01
  -7.655375e+01  -2.461112e+02
   1.546006e+01  -2.306411e+02
   3.013183e+02  -1.107722e+02
   2.586458e+02   4.729865e+01
   1.323523e+02   1.634167e+02
  -2.375725e+01   1.406031e+02
  -1.220699e+02   1.065147e+02
  -7.518383e+01   1.119732e+02
  -7.086446e+01   1.244490e+02
  -9.648146e+01   1.164668e+02
  -1.099803e+02  -1.598481e+01
  -7.502266e+01  -1.500525e+02
  -8.885762e+00  -2.539872e+02
   1.070588e+02  -2.051710e+02
   2.285207e+02  -2.108336e+01
   1.517964e+02   1.623631e+02
   4.809882e+01   1.901435e+02
  -7.583381e+01   8.766092e+01
  -8.296996e+01   7.335523e+01
  -2.670492e+01  -6.654290e+01
   2.251595e+01  -5.934930e+01
  -1.051263e+01  -7.069816e+01
  -1.628565e+02  -6.486526e+00
  -3.026690e+01  -3.981137e+01
   5.754241e+01  -1.091125e+02
   2.076063e+02   3.282422e+01
   1.800143e+02   3.237156e+00
   9.741869e+00   8.487873e+01
  -5.132802e+01   7.834368e+01
  -1.296857e+02  -9.937099e-01
  -7.645740e+01  -8.590477e+01
   1.323228e+02  -2.965392e+00
   1.096275e+02   4.175046e+00
  -2.739305e+01   9.918283e+01
  -8.543730e+01   7.932718e+01
  -9.277014e+01   7.132334e+00
  -3.172751e+01  -4.529890e+01
  -8.236759e+01  -1.789203e+01
  -8.079160e+01  -6.795797e+00
  -1.075370e+02  -3.432400e+00
  -1.830405e+01  -9.801032e+01
  -1.761552e+01  -2.007256e+02
   8.913579e+01  -1.203965e+02
   1.417032e+02  -5.453814e+01
   1.537542e+02   9.758830e+01
   2.944090e+01   1.409642e+02
  -8.795996e+01   8.262336e+01
  -8.146770e+01  -1.899109e+01
   9.568671e+01   1.795786e+01
   1.563193e+02   1.068747e+02
   1.012370e+02   1.755729e+02
  -1.204279e+02   1.061097e+02
  -2.190323e+02   3.729396e+01
  -2.045982e+02   8.389153e+00
  -8.579419e+01  -5.519781e+01
   1.464051e+01  -8.996572e+01
   3.922318e+01   1.185776e+01
  -4.731702e+01   1.426359e+01
  -1.208712e+02  -5.195022e+01
  -3.923613e+01  -1.171820e+02
   1.344930e+02  -1.732892e+02
   1.805380e+02  -8.501881e+01
   6.737822e+01   1.514033e+02
   1.148800e+01   2.380059e+02
  -1.073585e+02   1.062186e+02
  -1.070384e+02   2.141168e+01
  -6.914585e+01  -1.100856e+02
   1.155078e+01  -1.424961e+02
   5.111423e+01  -4.152684e+01
   5.994187e+01   3.631006e+01
   1.665496e+01   5.946558e+01
  -7.672805e-01  -3.945938e+01
   7.281734e+01   5.093548e+01
   8.900729e+01   1.469074e+02
   4.680336e+01   6.372364e+01
  -4.327176e+01   8.700102e+01
  -1.943695e+02  -7.521579e+01
  -1.171661e+02  -9.302281e+01
  -6.388245e+01  -6.149867e+01
   9.806955e+01  -4.132735e+00
   1.094805e+02  -6.009694e+00
   1.877575e+01   3.569364e+01
  -6.137424e+01   5.752268e+01
   3.309542e+01   2.309396e+01
   3.696895e+01   3.502570e+01
   6.827064e+00  -9.096324e+00
  -1.187153e+02   9.965357e+00
  -1.009273e+02  -1.099616e+00
   2.015222e+01  -1.302512e+02
   1.282551e+02  -9.624829e+01
   1.933852e+02  -4.965201e+01
   1.548841e+02   4.295882e+01
   3.109501e+01   2.307931e+02
  -4.734012e+01   1.431679e+02
  -1.363066e+02   7.720005e+01
  -1.156922e+02  -4.052786e+01
  -2.358719e+01   3.602870e+01
  -2.759532e+00  -1.253010e+01
   4.782615e+01   1.864380e+01
  -6.812070e+01  -6.047723e+01
  -7.599269e+01  -1.327482e+02
   7.813583e+01  -8.321196e+01
   1.017453e+02   2.640360e+01
   5.157801e+01   1.036274e+02
  -1.952803e+01   1.496419e+02
  -5.876979e+01  -3.561807e+01
  -8.827518e+01  -1.236048e+02
   1.698571e+01  -6.432800e+01
   6.294980e+01  -9.819805e+01
   1.580730e+02   2.608434e+01
   6.421042e+01   9.271865e+01
  -1.341155e+01   6.138401e+01
  -7.405904e+00   9.729585e+01
   1.440615e+01   2.618097e+01
   1.176390e+02   3.566858e+00
   4.007701e+01   1.864511e+01
  -6.532453e+01   6.361990e+00
  -1.151727e+02   5.883080e+01
  -8.189377e+01  -1.308341e+01
   1.567664e+01  -9.894588e+01
   1.858711e+01  -3.347786e+01
   5.903090e+01   2.326154e+01
  -4.157140e+01   4.179316e+01
  -1.143293e+02   3.037443e+01
   1.733420e+01   3.228806e+01
  -4.028152e+01  -2.633457e+00
   2.408853e+00   1.141833e+01
   7.302210e+01  -4.001710e+01
   2.910269e+01  -6.527555e+00
  -1.635093e+00   3.881612e+01
  -2.876328e+01   3.184328e+00
   2.954502e+01  -1.099238e+01
  -2.621763e+01   9.417688e+01
  -1.746639e+01   6.226885e+01
  -2.429905e+01   1.937796e+01
  -1.056001e+01  -6.851985e+01
   2.938716e+01  -1.155327e+02
   1.023831e+02  -5.263299e+01
   8.477921e+01   4.443692e+01
   5.801948e+00   1.201672e+02
  -8.279282e+01   7.677142e+01
  -6.702890e+01  -8.047735e+00
  -6.549276e+01  -2.633661e+01
   1.493754e+01  -2.439977e+01
   7.381955e+01  -3.459882e-01
   7.653234e+01  -3.422160e+01
  -4.565379e+01  -6.035772e-02
  -6.732819e+01  -2.481289e+01
   3.988005e+01  -1.366333e+01
   1.371578e+02   1.174478e+01
