
 $NMID
 id='ANONYMOUS ', fmtdat='(2E16.6)'
 volume=1.0
 tramp=1.0
 $END
   1.723965e+03  -1.993369e+02
   1.371478e+03   6.182449e+02
   3.647172e+02   1.129947e+03
  -4.717826e+02   1.048647e+03
  -6.822377e+02   5.603185e+02
  -3.119138e+02  -3.350213e+01
   7.975389e+00  -1.251775e+02
   1.145414e+02   1.961370e+02
  -1.098939e+02   3.751410e+02
  -3.871823e+02   1.423157e+02
  -3.335077e+02  -1.618996e+02
  -1.192163e+02  -3.485126e+02
   6.045789e+01  -2.088669e+02
   1.108834e+02   1.424654e+02
   2.566964e+01   2.935230e+02
  -2.565278e+02   1.041998e+02
  -2.149885e+02  -1.748052e+02
   2.405624e+01  -4.162180e+02
   2.806172e+02  -2.585691e+02
   3.151513e+02   5.062683e+01
   1.282122e+02   2.099132e+02
  -4.407301e+01   1.449940e+02
  -1.758310e+01   9.416782e+01
   1.710122e+02   1.894783e+02
   1.706584e+02   2.262576e+02
  -4.073171e+01   1.956538e+02
  -3.117260e+02   1.536596e+01
  -3.355856e+02  -1.162478e+02
  -7.079325e+01  -1.295415e+02
   1.296253e+02  -8.726274e+00
   2.191398e+02   6.270999e+01
   7.849767e+01   8.117301e+01
  -1.980712e+02   1.764227e+02
  -2.330320e+02   8.988515e+01
  -2.249439e+02  -8.481774e+01
  -5.163851e+01  -1.161464e+02
  -6.559450e+01  -1.346191e+02
  -4.475814e+01   5.621796e+01
  -1.137492e+02   1.850920e+00
  -5.845345e+01  -1.308322e+02
  -4.455397e+00  -2.633630e+02
   1.255816e+02  -2.075812e+02
   1.813880e+02  -2.048962e+01
   9.684546e+01   1.250725e+02
  -6.422998e+01   2.976165e+01
  -7.471771e+01  -1.554896e+02
   9.437738e+01  -2.817346e+02
   2.495714e+02  -2.821253e+01
   2.972427e+02   2.067444e+02
   1.517961e+02   2.498212e+02
  -1.891829e+02   1.817298e+02
  -3.352706e+02  -1.162942e+01
  -1.798909e+02  -1.097310e+02
  -2.258309e+01  -1.551529e+02
   1.445930e+02  -1.066026e+02
   1.749240e+02  -1.137717e+02
   4.793720e+01  -6.256202e+01
  -2.528699e+01   3.980228e+01
   7.724516e+01   2.331814e+00
   1.479187e+02  -3.692501e+01
   9.312360e+01   7.984066e+01
  -5.405527e+01   1.967857e+02
  -2.378625e+02   1.311702e+02
  -1.908463e+02  -2.552883e+01
  -3.304479e+00  -2.780053e+02
   2.202022e+02  -2.525781e+02
   2.504196e+02  -1.058271e+02
   1.779419e+02   1.306105e+02
   2.069139e+01   1.945841e+02
   1.434179e+01   1.937592e+02
   2.092095e+00   1.466206e+02
  -7.760550e+00   1.305079e+02
  -1.102774e+02   8.694340e+01
  -1.760536e+02   3.588916e+00
  -1.742896e+02  -9.894261e+01
  -6.304772e+01  -1.910420e+02
   7.940055e+01  -9.962877e+01
   1.155570e+02   3.941323e+01
   7.443378e+01   1.469506e+02
  -6.640097e+01   1.475603e+02
  -1.479520e+02  -2.335075e+01
  -1.285443e+02  -9.164460e+01
  -1.358711e+02  -1.447904e+02
   4.283068e+01  -2.039232e+02
   1.199357e+02  -7.019720e+01
   8.259910e+01  -1.157466e+02
   2.304402e+02   2.360841e+00
   1.630403e+02   2.858062e+00
   3.038850e+02   8.853421e+01
   2.138795e+02   2.078128e+02
  -7.165612e+01   3.014820e+02
  -2.292227e+02   2.746905e+02
  -2.585142e+02   1.479617e+02
  -1.573171e+02  -6.119366e+01
   1.686839e+01  -1.492814e+02
   7.566265e+01  -1.315387e+02
  -1.232807e+01  -8.073819e+01
  -7.550013e+01   6.812835e+00
  -8.122732e+01  -2.398655e+01
   2.059176e+01  -7.585926e+01
  -8.622754e+00  -4.590336e+01
   6.813388e+01   2.003955e-01
   3.414168e+01   8.107685e+01
  -7.020641e+01  -3.918031e+00
  -9.094588e+01  -1.252929e+02
  -3.259088e+01  -2.062421e+02
   1.692989e+02  -1.409981e+02
   2.722709e+02  -1.581171e+01
   1.827757e+02   1.817496e+02
   3.163734e+01   2.433551e+02
  -1.109898e+02   1.131132e+02
  -1.253877e+02  -8.659142e+00
   1.325161e+01   2.988577e+01
   6.376851e+01   1.286631e+01
  -2.178663e+00   6.476969e+01
  -1.097152e+02  -3.691972e+01
  -6.812539e+01  -3.677139e+01
  -2.524204e+00  -6.017544e+01
   1.618208e+01   3.756141e+01
   4.330640e+01   5.805440e+01
  -7.759791e+01   6.727295e+01
  -1.741163e+02   3.135864e+00
  -2.313596e+02  -1.833562e+02
   9.769562e+00  -1.737666e+02
   1.559124e+02  -1.483596e+02
   1.671264e+02  -6.649431e+01
   1.144047e+02  -7.631331e-01
   3.004115e-01   1.676773e+01
  -4.057802e+01   2.212408e+01
   8.278230e+01  -4.787778e+01
   9.688343e+01   2.106860e+01
   1.207911e+02   5.903698e+01
   2.385608e+01   1.383453e+02
  -2.715813e+01   1.012866e+02
  -1.147298e+02   1.920135e+01
  -1.742533e+00   8.647550e+00
   3.636799e+01   7.660100e+01
  -1.973137e+00   5.300711e+01
  -8.665475e+01   1.016757e+02
  -1.777526e+02  -9.997459e+00
  -7.839738e+01  -9.436285e+01
  -2.439257e+01  -1.199341e+02
   9.702726e+01  -1.253070e+02
   1.099619e+02  -1.443806e+01
   8.757913e+01   4.761026e+01
  -8.476122e+00   3.313189e+01
  -4.996613e+01   8.466052e+01
  -2.496389e+01   2.113020e+01
   6.136671e+01  -8.321748e+00
  -4.186368e+01   3.383082e+01
  -1.309315e+02   6.156100e+01
  -6.596335e+01  -6.746310e+01
  -2.274697e+01  -1.212277e+02
   1.631726e+01  -8.953834e+01
   1.615223e+02   2.714836e+01
   1.136160e+02   9.423557e+01
   1.005316e+01   1.341970e+02
  -3.355008e+01   1.714657e+02
  -8.338289e+01   9.367283e+01
  -4.733353e+01   1.429650e+01
   5.173293e+00  -6.722985e+00
  -6.884086e+01   2.505451e+01
  -1.235345e+02  -1.802074e+01
  -1.558968e+00  -5.638900e+01
   7.232433e+01  -4.491799e+01
   4.507549e+00  -3.938781e+01
   6.009840e+01   4.404017e+00
  -5.333931e+01   9.488651e+01
  -1.057980e+02   9.290341e+01
  -1.022826e+02  -5.987818e+01
  -6.971022e+01  -1.230403e+02
   8.042207e+01  -1.255716e+02
   1.551483e+02  -4.790171e+01
   1.763979e+02   5.914968e+01
   9.298675e+01   1.337130e+02
   6.453931e+01   8.737713e+01
  -1.254186e+02   4.384615e+01
  -7.897703e+01   8.014258e+01
   2.288704e+01   5.442119e+01
  -8.159156e+01   9.193969e+01
  -1.535815e+02  -1.166062e+01
  -1.067102e+02  -1.001057e+02
  -4.625745e+01  -1.648361e+02
   9.877522e+01  -7.395132e+01
   1.249206e+02   2.636750e+01
   6.913363e+01   6.420302e+01
  -1.884623e+01   6.671167e+01
   1.017964e+01   8.378762e+01
  -3.664154e+01   1.534791e+01
  -4.237662e+01  -3.058337e+01
  -8.245644e+00  -1.153938e+01
  -3.901022e+01   3.495772e+01
  -2.984809e+01   3.358270e+01
  -6.601753e+01  -1.710259e+01
   6.137339e+01  -3.939772e+01
   7.587557e+01  -4.582731e-01
   9.665108e+01   1.017947e+00
   3.512515e+01   2.831187e+01
  -5.968423e+01   8.080352e+01
  -1.294861e+02   3.757933e+00
  -1.316608e+01  -4.772882e+01
   6.873889e+00   2.434926e+01
   3.208468e+01  -5.177913e+01
   1.951464e+01   2.953601e+01
  -1.438976e+01   5.838540e+01
  -7.993616e+01   6.343717e+01
  -4.768987e+01  -3.368525e+01
  -5.151140e+01  -2.914871e+01
  -4.340947e+00   3.801571e+01
  -7.105299e+01  -5.844744e+01
  -6.051990e+01  -1.457146e+01
   6.848888e+01  -7.822510e+01
   7.273939e+01  -8.414843e+01
   1.491899e+02  -5.140517e+01
   1.795983e+02   2.247103e+01
   3.196994e+01   4.373486e+01
  -8.084445e+01   4.423764e+01
  -5.775920e+01  -1.150538e+01
   9.631133e+01   9.968965e+00
   8.724455e+01   4.129982e+01
   5.647411e+01   9.427408e+01
  -1.504801e+01   5.726003e+01
  -1.235441e+02  -3.111430e+01
  -1.350965e+02   2.556361e+00
  -3.087881e+01  -1.330809e+01
   5.933934e+01  -3.653935e+01
   1.369794e+01   6.763414e+00
  -8.253773e+01   1.137226e+01
  -4.014240e+01   4.127008e+01
  -4.839409e+01  -7.548542e+01
   1.023577e+01  -1.082933e+02
   5.484300e+01  -4.601010e+01
   6.121927e+01   3.185353e+01
   3.806887e+01   1.223386e+02
  -7.011698e+01   5.950629e+01
  -5.984973e+00   5.692279e+00
  -5.471844e+00  -1.068842e+02
  -7.728354e+01  -8.316890e+01
   9.081465e+01  -3.562463e+01
   4.021958e+01   5.427023e+01
  -1.894181e+01   4.368880e+01
   5.587892e+01  -3.588355e+01
   5.224678e+00   8.764648e+01
   1.598999e+01   5.369227e+01
  -1.907092e+01   9.417757e+01
  -7.100923e+01   2.809673e+01
  -1.741075e+02   4.142386e+01
  -6.116180e+01  -1.067501e+01
   2.428139e+01   5.279914e+01
   3.404506e+01  -2.242835e+01
  -1.980270e+01   3.082679e+01
  -2.705507e+01  -1.959787e+01
  -3.367079e+01  -2.159721e+01
  -3.613984e+01   2.957197e+01
  -1.901013e+01  -3.263056e+01
  -1.597941e+01   7.938581e-01
  -8.848037e+01  -2.547111e+01
  -5.055540e+01  -5.983099e+01
   2.379471e+00  -5.057715e+01
   4.940545e+01  -1.305538e+02
   6.748822e+01  -4.351544e+01
   8.993488e+01   6.425438e+00
   4.924706e+01   1.271281e+02
  -3.260764e+01   1.383368e+02
  -2.990320e+01   2.302459e+01
  -5.478225e+01  -2.364279e+01
  -2.056181e+01   5.494444e+01
   7.337819e+00  -1.983263e+01
  -1.567547e+01  -2.069732e+01
  -5.791505e+01  -1.001681e+02
  -4.856498e+01  -7.703329e+01
   2.371390e+01  -1.031219e+02
   6.805111e+01   8.983707e+00
   5.214443e+01   8.577296e+01
   2.333812e+01   2.521851e+01
  -5.237002e+01  -1.146219e+01
   1.052321e+01  -2.968382e+01
  -8.383303e+01  -6.657733e+01
   6.520255e+01  -4.235525e+01
   3.581560e+01   3.813412e+00
   2.566907e+01   6.449902e+01
   2.710669e+00   3.669432e+01
  -9.290690e+01   2.195799e+01
  -3.998122e+00  -2.964281e+01
   4.067248e+01  -5.133642e+01
   6.798191e+01   4.520170e+01
  -3.723763e+01   5.244701e+01
  -6.105077e+01   5.825115e+01
  -6.521564e+01  -3.012288e+01
  -2.315964e+01  -7.498411e+01
  -4.723334e+00  -1.050155e+02
   1.273961e+01  -4.680300e+01
   4.502781e+01   2.232460e+01
  -4.087259e+01   2.589508e+01
   4.532619e+01   2.943982e+00
  -2.452092e+01  -5.679111e+01
   3.359766e+01  -1.756328e+01
   3.699814e+01  -2.873171e+01
   7.182644e+01  -1.569269e+01
  -2.696692e+00  -3.088608e+01
  -3.467338e+01  -2.622572e+01
  -1.171762e+01   1.820997e+01
  -2.461643e+01   2.425652e+01
   8.126503e+01   8.255203e+01
  -4.686844e+01   2.776918e+01
  -9.696421e+01   3.438365e+01
  -9.576702e+01  -7.069906e+01
  -2.570971e+01   3.749027e+01
   4.487306e+01   4.841017e+01
  -9.208057e+00   7.452832e+01
   1.032652e+01   6.831363e+01
  -1.052910e+02   9.005472e+00
  -4.379256e+01  -4.779049e+01
   4.403220e+00   7.747986e-01
   8.731942e+01  -4.045777e+01
  -2.485096e+01  -3.211248e+01
  -5.613677e+01  -2.884239e+01
  -6.860156e+01  -5.970995e+00
  -5.414093e+01  -8.446409e+00
   7.326501e+01  -5.190226e+01
