
 $NMID
 id='ANONYMOUS ', fmtdat='(2E16.6)'
 volume=1.0
 tramp=1.0
 $END
   2.198587e+03  -1.118575e+02
   1.465579e+03   1.234301e+03
  -1.881954e+02   1.514815e+03
  -9.695900e+02   6.427892e+02
  -6.004196e+02  -1.684143e+02
   1.910157e+02  -2.892825e+02
   4.334113e+02   9.625427e+01
   7.190656e+01   5.144538e+02
  -3.652857e+02   4.323419e+02
  -4.997707e+02  -8.553313e+00
  -2.530820e+02  -4.588143e+02
   5.751709e+01  -4.738390e+02
   2.633570e+02  -5.833304e+01
   2.232092e+02   2.458489e+02
  -1.000683e+02   3.858442e+02
  -2.851942e+02   4.896947e+01
  -1.475645e+02  -3.522546e+02
   1.809589e+02  -3.994645e+02
   3.241031e+02  -1.025427e+02
   2.761075e+02   1.540413e+02
   4.630509e+01   2.330183e+02
  -1.081220e+02   1.188459e+02
  -7.910190e+01   3.856376e+01
   6.014735e+01   7.402492e+00
   2.306280e+02   8.788060e+01
   2.343858e+01   2.341250e+02
  -2.789988e+02   1.655868e+02
  -3.812451e+02  -4.265019e+01
  -1.493276e+02  -2.075689e+02
   1.858185e+02  -2.301913e+02
   3.657122e+02  -2.753118e+01
   1.442953e+02   2.625239e+02
  -9.186056e+01   2.628460e+02
  -2.907981e+02   9.348349e+01
  -2.192640e+02  -1.734887e+02
  -6.092086e+01  -1.944978e+02
   7.941656e+01  -1.548787e+02
   1.737454e+01   8.019815e+01
  -5.972206e+01   1.840602e+02
  -1.882121e+02  -4.076938e+01
  -8.751620e+01  -3.404901e+02
   1.213000e+02  -2.842832e+02
   2.710821e+02  -8.678949e+01
   1.474296e+02   1.829165e+02
  -1.590271e+02   1.439886e+02
  -1.695696e+02  -1.987444e+02
  -8.748750e+00  -3.252797e+02
   2.673945e+02  -1.255789e+02
   3.042719e+02   2.507426e+02
   7.258926e+01   2.995543e+02
  -2.045270e+02   2.166968e+02
  -3.285641e+02  -2.024362e+01
  -2.734206e+02  -2.044670e+02
   1.150786e+02  -1.704404e+02
   2.169796e+02  -4.155393e+01
   1.071355e+02   3.614800e+01
  -1.286493e+02   3.658057e+01
  -6.055478e+01  -3.953406e+01
   6.112338e+01  -7.083236e+01
   1.674597e+02   4.035022e+01
   5.520187e+01   1.300072e+02
  -5.859515e+01   1.577804e+02
  -1.334033e+02   6.399453e+01
  -1.314950e+02  -9.336081e+01
   3.905978e+01  -1.180372e+02
   1.880983e+02  -2.251996e+02
   1.146555e+02  -1.469584e+02
   1.680028e+02   7.304175e+01
   4.917993e+01   2.409794e+02
  -8.973231e+01   1.957825e+02
  -1.447882e+01   5.802143e+01
  -8.891939e+01  -2.076491e+00
  -2.886817e+01   2.560191e+01
  -1.519443e+02   4.383132e+01
  -1.284490e+02  -5.604016e+01
  -1.253503e+02  -1.318657e+02
   3.958557e+01  -9.740940e+01
   1.301117e+02  -7.371424e+00
   1.009120e+02   1.438786e+02
   6.153452e+00   1.600276e+02
  -1.345708e+02   1.072847e+02
  -1.774966e+02  -9.360301e+01
  -9.013478e+01  -1.941797e+02
   7.538691e+01  -1.622764e+02
   8.103261e+01  -7.621254e+01
   2.979106e+01  -2.935020e+01
   5.684421e+01  -4.192885e+01
   1.244900e+02  -4.766407e+01
   2.282552e+02   1.167915e+02
   2.491214e+02   1.750488e+02
   1.358873e+01   2.792504e+02
  -2.269902e+02   2.101985e+02
  -2.611886e+02   1.138924e+02
  -1.685480e+02   2.397008e-01
  -1.611515e+01  -1.465779e+02
   6.281376e+01  -8.791358e+01
   3.446041e+01  -1.070012e+01
  -2.579332e+01   1.361789e+01
  -8.617896e+01   1.725306e+01
  -5.938498e+01  -9.882423e+01
   5.152816e+01  -1.901066e+01
   3.949121e+01   3.140346e+01
   1.557225e+00   7.471009e+01
  -1.111307e+02   2.442620e+01
  -9.310373e+01  -1.387971e+02
   5.607302e+01  -1.551564e+02
   1.519156e+02  -9.348153e+01
   2.067088e+02   1.036007e+00
   1.791345e+02   1.833710e+02
   7.042218e+01   2.192236e+02
  -1.542337e+02   9.227955e+01
  -1.117778e+02   1.765050e+01
   3.755095e+00  -3.346017e+01
   7.150861e+01   8.122143e+01
   3.899843e+01   5.203664e+01
  -1.079338e+02   1.592321e+01
  -8.835927e+01  -5.434564e+01
   2.871121e+01  -6.847796e+01
   6.686638e+01  -1.085861e+01
   2.734761e+01   5.163540e+01
  -9.804145e+01   9.571354e+01
  -2.148993e+02  -2.076825e+01
  -1.466084e+02  -6.130924e+01
  -4.919768e+01  -1.118259e+02
   6.868920e+01  -1.243009e+02
   1.396813e+02  -1.349398e+02
   8.281850e+01   8.687106e+00
  -2.151396e+01   7.762174e+01
  -2.226957e+01   3.165873e+01
  -8.753550e+00  -7.336525e+01
   1.120174e+02  -2.026371e+01
   8.334562e+01   4.469487e+01
   2.736327e+01   8.795198e+01
  -4.733717e+01   9.342836e+01
  -9.260513e+01   2.857497e+01
  -6.485858e+01  -3.501696e+01
   3.330075e+01   4.630921e+01
   4.288733e+01   8.132856e+01
  -2.678411e+01   6.639424e+01
  -1.760271e+02   9.210705e+01
  -7.926680e+01  -8.486311e+01
   5.931151e-01  -8.718914e+01
   9.842122e+01  -6.499962e+01
   1.236819e+02  -4.519033e+01
   8.084651e+00   5.410067e+01
  -6.115273e+01   5.983280e+01
  -7.055406e+01   6.346060e+01
   3.832914e+00   1.767218e+01
   7.788560e+01   2.056432e+01
  -6.263353e+00  -1.276454e+00
  -2.499200e+01   1.316463e+01
  -8.579206e+01  -5.655943e+01
  -4.629267e+00  -1.076199e+02
   9.696395e+01  -1.040311e+02
   1.248722e+02   1.323985e+01
   1.087772e+02   1.108443e+02
   7.500676e+01   1.088687e+02
  -1.923435e+01   9.324948e+01
  -3.401413e+01   3.563938e+01
  -2.007523e+01  -1.703966e+01
  -5.495437e+01  -1.987446e+01
  -4.882952e+01  -4.558903e+01
  -8.024463e+01  -1.039983e+01
  -1.618877e+00  -3.901994e+01
   6.239082e+01  -6.120505e+01
   9.642592e+01  -2.767837e+01
   3.264972e+01   4.512604e+01
  -1.456324e+01   8.109525e+01
  -1.071607e+02   6.892308e+01
  -7.211614e+01  -2.010459e+01
  -6.136971e+01  -1.043976e+02
   3.485090e+01  -1.572188e+02
   1.263291e+02  -6.970299e+01
   1.746027e+02   8.954929e+01
   4.813566e+01   2.129605e+01
  -6.832676e+01   1.004940e+02
  -3.277281e+01   1.054603e+02
  -5.371691e+01   7.708118e+01
  -6.764987e+01   2.806238e+01
  -7.886300e+01   4.342876e+01
  -5.138419e+01   2.228396e+01
  -4.354493e+01  -7.362611e+01
  -1.271420e+01  -1.502317e+02
   1.004408e+02  -9.778352e+01
   3.021973e+01  -2.655289e+01
   2.492124e+01   9.072489e+00
   2.735891e+00   1.054249e+02
  -7.447836e+01   5.148715e+01
  -5.213669e+01   7.885359e+00
   2.435755e+01   1.248371e+01
  -3.211194e+01  -2.982294e+01
  -5.444991e+00   1.083403e+01
  -7.819885e+01   2.148618e+01
  -6.266209e+01  -5.562275e+00
  -2.452208e+01   2.656374e+01
   7.600842e+01   1.739593e+01
   8.065256e+01   5.029709e+01
   1.961486e+01   6.353693e+01
  -1.140982e+02   5.973997e+01
  -9.839673e+01   3.601883e+00
  -2.541572e+01  -5.647859e+01
  -3.224775e+01   2.671287e+01
   8.811132e+00   2.022062e-01
   3.697545e+01   5.244994e+00
  -2.177813e+01   7.112549e+01
  -9.665173e+01  -2.653727e+01
  -2.962279e+01   2.679032e+01
  -2.536789e+01   1.325722e+01
  -3.647203e+01  -1.350205e+01
  -2.906386e+01   4.678711e+01
   5.397386e-01  -6.337201e-01
   7.909286e-01  -1.280164e+02
   5.036537e+01  -6.320288e+01
   1.318253e+02  -2.921845e+01
   2.476710e+01   2.384967e+01
   8.080703e+00   7.053555e+01
  -1.550387e+01   5.272221e+01
  -4.934845e+01  -1.441552e+01
   5.569292e+01   1.830920e+00
   5.545192e+01  -7.184611e+00
   1.041238e+01   2.624286e+01
  -1.059642e+02   4.693496e+01
  -1.440223e+02   1.214184e+01
  -1.718120e+02  -2.893217e+01
  -5.354322e+01  -3.496286e+01
   2.735855e+01  -9.600639e+01
   6.062475e+01  -5.865789e+00
  -2.635923e+00   1.471100e+01
  -4.109550e+01  -3.700063e+01
  -4.037711e+01  -9.276351e+01
   1.000134e+02  -3.182226e+01
   1.155938e+02  -8.419502e+01
   1.127627e+02  -8.097063e-01
  -3.075088e+01   1.440848e+02
  -5.429266e+01   2.754484e+01
  -7.656056e+01   2.732703e+01
   4.378483e+00  -9.536874e+01
   2.419406e+01  -1.390479e+02
  -3.269072e+01  -3.628011e+01
   8.062395e+01   2.451827e+01
   3.163889e+01  -2.560756e+01
  -1.898819e+01   2.297523e+01
   2.455746e+01   2.058974e+01
   3.142131e+01   5.485920e+01
   4.533080e+01   5.888758e+01
  -2.427861e+01  -1.590191e+01
  -4.611128e+01  -1.952540e+01
  -1.140845e+02  -3.692206e+01
  -5.368053e+01   2.209189e+00
   4.134622e+01   1.932587e+01
   5.211140e+01   8.335106e+00
   3.468660e+01   1.650326e+01
  -1.265341e+01   1.989545e+00
   2.884543e+01  -4.030072e+00
   6.074283e+01  -3.790011e+01
  -4.330271e+01  -5.658280e+00
  -6.339513e+01  -4.277044e+01
  -3.799972e+01  -4.299656e+01
   1.655372e+01  -4.096493e+01
   1.057872e+02  -3.830748e+01
   7.756348e+01  -8.811252e+01
   7.289431e+01   3.999774e+01
  -1.561208e+00   8.309431e+01
  -4.367491e+01   8.201643e+01
  -6.887568e+01   2.553108e+01
  -4.217312e+01  -8.330234e+01
   2.368265e+01  -1.165283e+01
  -6.610577e+01  -7.366143e+01
  -5.177777e+01   1.631123e+00
  -7.869465e+01  -1.545636e+01
  -4.053705e+01  -1.463291e+01
   1.887556e+01  -5.188713e+01
   4.240047e+01  -1.585161e+01
   4.370151e+01   7.775523e+01
   1.384909e+01   1.193662e+02
   2.473399e+01   4.619715e+01
  -5.385873e+01  -5.024719e+01
  -5.664067e+01  -3.583820e+01
   2.154087e+01  -2.338636e+01
   1.610202e+01   6.308615e+00
   6.578913e+01  -8.245637e+00
  -3.014528e+01  -4.617204e-01
  -2.722271e+01  -7.125107e+00
   2.152273e+01   3.782312e+00
   5.344847e+00   4.399719e+01
  -4.455671e+01   3.598032e+01
  -3.280600e+01   5.823428e+01
  -8.170699e+01   2.255544e+01
  -5.178011e+01   8.157147e+00
   5.869034e+00  -3.811102e+01
   5.497613e+01  -4.562890e+01
   2.166179e+01  -3.063167e+01
   2.756591e+00  -2.678979e+00
  -5.015299e+01   3.113921e+01
  -7.122830e+01   7.223076e+00
  -4.780077e+01   2.403023e+01
   1.929598e+01   1.340202e+01
   4.893113e+01  -3.747108e+01
   6.913529e+01   3.291482e+01
   4.053129e+01  -9.119374e+00
   1.002491e+01   1.369973e+01
   3.522370e+01  -4.374543e+01
   3.492526e+01   4.221373e+01
  -3.484327e+01   1.764015e+01
  -8.178625e+01   3.640048e+01
  -3.447226e+01  -4.834870e+01
  -5.524054e+00  -4.994280e+01
   2.333508e+01  -4.943516e+01
   4.729722e+01   4.532610e+00
   2.583863e+01   4.476491e+01
  -4.280905e+01   2.285959e+01
  -4.412312e+01   1.143439e+01
  -3.963252e+01  -4.623157e+01
   2.029831e+01  -7.876577e+01
   3.099335e+01   2.465005e+01
  -1.807387e+00  -2.832030e+01
  -3.649258e+01  -1.510366e+00
   2.614671e+01  -2.796897e+01
  -3.807623e+01  -3.795415e+01
   8.570304e+01   4.683584e+00
