
 $NMID
 id='ANONYMOUS ', fmtdat='(2E16.6)'
 volume=1.0
 tramp=1.0
 $END
   5.834699e+02  -1.906174e+02
   4.175575e+02   2.248849e+02
  -4.601698e+01   3.856422e+02
  -2.513652e+02   1.880755e+02
  -1.551134e+02  -5.552698e+01
   7.612560e+01  -1.235165e+02
   9.156171e+01   3.950955e+01
   5.987950e+01   1.355477e+02
  -1.216463e+02   1.314837e+02
  -1.765586e+02  -1.228499e+01
  -1.216440e+02  -6.318866e+01
  -2.191963e+01  -6.270074e+01
   6.248857e+01  -6.155351e+01
   6.791430e+01   7.749371e+01
   1.569428e+00   9.580941e+01
  -6.238969e+01   1.313442e+01
  -8.130699e+01  -7.475608e+01
   2.564484e+00  -8.763543e+01
   4.834194e+01   4.941602e+01
   7.003311e+01   2.077335e+01
  -1.400536e+01   1.054260e+02
  -5.514729e+00   1.754521e+01
  -2.241247e+01  -3.434090e+01
   2.228983e+01  -5.535871e+00
   5.795279e+01  -1.760595e+01
   8.868729e+00  -6.404566e+00
  -5.403036e+01   7.822708e+01
  -7.831226e+01   4.556304e+01
  -7.248935e+01  -5.322003e+01
   9.193683e+01  -8.682847e+01
   9.083294e+01   2.126767e+01
   6.060674e+01   4.407020e+01
  -2.040930e+01   4.159995e+01
  -5.068441e+01   3.017756e+01
  -1.260574e+02  -5.886832e+01
  -5.542106e+01  -6.754445e+01
   1.459107e+01  -9.224358e+01
   3.942940e+01   2.041112e+01
  -7.020374e+01   7.223065e+01
  -5.522692e+01   3.689583e+01
  -8.002054e+01  -1.753589e+01
   2.110319e+01  -1.289875e+02
   1.174927e+02  -3.730719e+01
   5.559677e+01   7.539224e+01
  -2.985317e+01   5.074350e+01
  -1.036560e+02  -3.924188e+01
  -3.029468e+01  -7.338796e+01
   7.548663e+01  -7.291287e+01
   1.006986e+02  -9.541824e+00
  -9.744948e+00   5.989388e+01
  -1.171426e+02   9.249129e+01
  -5.304630e+01  -1.741396e+01
  -5.221326e+01  -2.913871e+01
  -1.464326e+01  -9.147650e+01
   4.506539e+01  -5.114895e+01
   9.875842e+01  -5.042610e+01
  -3.079812e+01   1.279401e+01
  -1.490972e+01  -3.854693e+01
   1.662830e+01  -2.098764e+01
   5.990441e+01  -3.308853e+00
   6.371297e+01   5.239326e+01
  -6.411753e+00   5.347170e+00
  -6.116106e+01  -2.002590e+01
  -5.642730e+01  -4.281240e+01
  -5.236128e+01  -5.104816e+01
  -1.747896e+01  -4.207079e+01
   3.373522e+01  -1.284427e+01
   2.758481e+01  -1.145998e+01
   5.050160e+01   4.424150e+01
  -8.622737e+00   5.457536e+01
  -5.322759e+01  -2.601958e+01
   1.709390e+00  -2.053982e+01
  -7.196104e+01   5.091253e+01
  -4.499974e+01   4.378721e+01
  -9.429660e+00   3.027195e-01
  -4.457192e+01  -1.868402e+01
   1.613160e+01   4.509386e+00
   2.251384e+01  -1.118639e+01
   2.989840e+01  -4.525848e+01
  -1.018098e+00   5.428314e+01
  -4.997367e+01   4.320722e+01
  -3.331607e+01  -1.201020e+01
  -6.836977e+01  -4.524283e+01
   2.453325e+01  -6.247618e+01
   1.776776e+00   2.085483e+01
  -4.066859e+00  -3.888854e+01
   1.625734e+01  -6.929112e+01
   1.982687e+01  -2.874374e+01
   1.455340e+02  -2.722059e+01
   6.508973e+01   2.123953e+01
   4.761007e+01   9.633651e+01
  -4.158836e+01   1.046759e+02
  -4.322147e+01   3.737918e+01
  -7.133808e+00  -3.396492e+00
  -4.624009e+01  -4.052316e+01
  -1.820283e+01  -4.241620e+01
   1.471511e+01  -1.404833e+01
   4.396228e+01   8.011430e+00
   3.105855e+01   1.669650e+01
   1.192445e+01  -3.587086e+01
  -5.062133e+00  -4.520389e+01
  -7.651072e-02  -2.394607e+01
   6.352037e+01  -2.601179e+01
   3.276217e+01   1.945512e+01
   5.007928e+00  -2.128147e+01
  -5.575268e+00  -3.040770e+01
   1.638432e+01  -4.123352e+01
   1.103453e+02  -1.747343e+01
   1.533036e+01   4.306367e+01
  -2.372906e+01   5.291082e+01
   5.813971e+01   4.730502e+01
  -4.386548e+01   2.465070e+01
   1.009243e+01  -1.584103e+01
  -7.734613e+00   3.437557e+01
  -1.511712e+01   2.780288e+01
  -4.890877e+01   1.063698e+02
   2.496390e+01   4.975392e+01
  -8.596029e+01  -5.742661e+01
   2.430825e+01  -7.063271e+01
   2.975785e+01   5.540358e+01
   1.738481e+01  -1.157644e+01
  -5.150163e+01   1.637503e+01
   3.842350e+00  -2.424942e+01
   3.091134e+01  -2.878061e+01
  -6.375599e+01   5.021105e+01
   6.957615e+00   2.255613e+00
  -8.623001e+00  -1.947243e+01
  -6.993569e+00   8.923462e+00
  -6.374180e+00  -1.501051e+01
  -1.343219e+01   1.474507e+01
   9.254501e+00   1.043496e+01
   5.771912e+01  -7.968537e-01
  -2.455872e+01   7.360673e+01
   3.398026e+01  -4.517338e+00
   4.517261e+01  -3.157511e+01
   3.397710e+00  -6.535035e+01
   2.751006e+01  -3.682090e+01
   1.159798e+01  -6.664776e+00
  -6.030228e-01   1.930379e+01
   5.937581e+00   7.781627e+00
  -7.672704e+01  -5.460057e+00
  -1.375572e+01  -3.794291e+00
   4.178879e+01  -3.947672e+01
   6.945090e+01  -3.061323e+01
   1.042067e+01  -3.941719e+01
  -2.548799e+01  -3.499687e+01
  -5.272632e+01   1.997447e+01
  -1.463412e+01   2.642922e+01
  -2.553383e+01   4.332997e+01
  -2.459462e+01  -1.668334e+01
  -3.283163e+01   1.878854e+01
   4.100065e+01  -2.446421e+01
  -3.188949e+01  -1.652504e+01
   1.059113e+01  -8.075532e+00
  -3.232659e+00   5.277791e+00
   2.292907e+01   7.845087e-01
   4.236303e+01   5.552186e+01
  -1.936371e+01   1.987211e+01
   4.038562e+01   7.015923e+00
  -6.878717e+01  -5.757358e+00
   4.327535e+01   2.385612e-01
  -4.188950e+01  -6.240167e+00
   1.664140e+01  -3.264486e+01
  -2.111472e+01   1.407931e+01
  -2.647526e+01  -4.405938e+00
  -2.417768e+01   2.052896e+01
   3.030105e+01   7.541503e+00
  -4.359612e+01   2.889718e+01
   7.161506e+00   6.425735e+01
   4.213597e+00   3.019811e+01
  -2.180522e+01  -6.874404e+01
   1.410418e+01  -3.717960e-01
   1.317010e+01  -9.331871e+00
   2.571365e+01   2.216953e+01
   5.640925e+01  -1.367115e+01
   1.757995e+00  -3.265752e+00
  -6.246127e+00  -2.546968e+01
   3.814040e+01  -3.056603e+01
   7.314599e+00   3.553635e+01
  -2.691596e+01  -3.301304e+01
  -2.370147e+01  -4.485917e+01
  -3.505154e+01  -3.209220e+01
  -7.317110e+01  -3.325926e+00
  -8.702974e+01  -3.840550e+01
  -1.602973e+01  -5.975292e+00
   3.509948e+01   3.776803e+01
   4.314199e+01   3.880202e+01
   8.211152e+01   2.849107e+01
  -1.996989e+01  -5.411492e+01
   6.555388e+01  -1.160297e+01
   1.191876e+01   1.336712e+01
  -7.183178e+01   2.176894e+01
  -1.618772e+00  -2.672849e+01
  -4.766798e+01  -4.051057e+01
   3.637583e+01  -5.048694e+01
   1.066035e+02  -1.133183e+00
  -1.998232e+01  -5.641127e+01
  -3.192665e+00   1.811963e+01
   1.075891e+01   1.681692e+01
  -1.543363e+01  -5.461405e+00
   3.138179e+01  -4.590590e-01
  -1.072762e+01  -1.487460e+01
   1.377609e+01   2.922194e+01
   2.141592e+01  -4.911938e+00
   6.282484e+01   5.410811e+01
  -1.149946e+01  -9.705941e+00
  -2.620902e+01   3.254726e+01
  -9.314966e+00  -1.364964e+01
   4.665221e+01  -4.063355e+00
   3.949440e+00  -1.162180e+01
   8.901427e+00  -1.783369e+01
   4.179736e+01  -6.441293e+01
   8.543482e+00   2.975158e+01
   2.045291e+01   6.138691e+01
  -1.668838e+01  -2.922020e+01
   3.973361e+01   5.700211e+01
  -7.523076e+01   1.309816e+01
   3.044368e+01   3.828449e+01
   5.254217e+01  -3.247535e+01
   2.910501e+01   6.602182e+01
   4.871809e+01  -5.455453e+01
   2.430737e+01   5.433716e+01
  -6.718135e+01   7.693843e+01
  -3.334419e+01   2.013824e+00
  -4.407630e+01   3.202276e+01
   2.636993e+01  -2.443934e+00
   4.940935e+00   1.075961e+01
  -7.798837e+00   3.211938e+01
  -1.342980e+00   2.814541e+01
  -3.731878e+01   3.059528e+01
  -3.959509e+01  -1.597633e-02
  -1.690478e+01  -1.931551e+00
   1.856647e+01  -9.348889e+00
   6.260226e+00   7.118637e+00
  -4.669497e+01   2.638923e+01
  -1.177081e+01   2.378419e+01
  -1.859969e+01  -3.331255e+00
  -6.313103e+00  -3.476319e+01
  -1.089683e+01   5.451579e+01
  -1.361155e+01  -2.562802e+01
  -2.831489e+01  -2.406083e+01
   3.701345e+00   6.732051e+01
   9.802293e+00   1.104306e+01
  -6.210751e+00   2.660505e+01
   7.776418e+00  -3.623231e+01
   1.834169e+00  -3.000355e+01
   3.780548e+01   2.225155e+01
   9.636151e-01  -3.583738e+01
  -2.306245e+01  -2.872042e+01
   7.954835e+01   5.566317e+00
  -9.570648e+00  -2.049153e+01
  -2.392634e+01   5.529909e+01
   3.249372e+00   7.245359e+00
   1.650904e+01  -3.639646e+00
  -2.275249e+01   2.863513e+01
  -5.188606e+01  -3.734256e+01
   1.932077e+01   3.526025e+01
  -6.434684e+01   4.632542e+01
   6.411759e+01  -7.915862e+01
   3.071492e+01  -3.346868e+01
   2.735347e+01  -1.803869e+01
   1.420215e+01  -4.498164e+01
   5.030423e+01   1.273529e+01
   6.419289e+01   4.932178e+00
   1.254843e+01   2.062113e+01
  -6.485202e+00   3.537230e+00
  -2.662454e+01   2.373781e+01
   2.309552e+01  -1.458771e+01
   1.525552e+01   5.804000e+01
   3.003993e+01  -1.850545e+01
  -3.087550e+01   1.056258e+00
  -8.625893e+01  -4.766928e+01
   1.030380e+00  -2.780876e+01
   1.070957e+00   1.264667e+01
   3.159199e+01  -1.497218e+01
  -6.969827e+00   5.218559e+01
  -4.149583e+01   5.358974e+00
  -4.534621e+00   3.348363e+01
   1.110696e+01   2.901647e+01
   2.856554e+01  -7.091245e+01
  -2.496556e+01  -1.214179e+01
   3.747914e+00   3.846160e+00
  -8.166457e+00  -5.691722e+01
  -1.114288e+01  -2.302524e+01
   4.818441e+01  -1.296502e+01
   9.410920e+00   1.244374e+01
   2.190530e+01   7.763665e+00
   1.886230e+01   3.409474e+01
   1.474270e+01  -3.180304e+01
   2.524988e+01   1.251462e+01
   9.636338e+00  -3.719623e+01
  -1.741231e+01   2.832870e+01
   4.571640e+01   4.451356e+01
   1.765689e+01   2.730333e+01
   1.062514e+01   3.270278e+01
  -4.233586e+01  -4.915046e+00
   1.574946e+01  -2.738263e+01
   2.107242e+01  -1.229318e+01
   2.170058e+01  -1.857293e+01
   1.250057e+00  -3.229445e+00
   2.315791e+00  -2.366714e+01
  -1.149220e+01  -2.138954e+01
  -7.436333e-01   3.268756e+01
  -7.616984e+01  -1.694466e+01
  -1.156039e+00  -1.432153e+01
  -2.298619e+01   6.903598e-01
   4.108117e+01   1.452195e+01
  -1.092756e+01  -6.730617e+01
   2.228254e+01   2.631995e+00
  -9.667826e+00   6.373104e+01
  -6.247352e+01  -1.338922e+01
   5.420715e+00  -1.743616e+00
  -1.585881e+01  -1.812178e+00
   1.623023e+00  -3.840398e+01
   2.628002e+01   2.739159e+01
  -3.960385e+01   5.536661e+01
  -3.285966e+01  -3.727259e+00
  -7.211095e+01   5.102689e+00
   1.770276e+01  -1.613243e+01
  -8.282719e+00  -2.645560e+01
