
 $NMID
 id='ANONYMOUS ', fmtdat='(2E16.6)'
 volume=1.0
 tramp=1.0
 $END
   4.517170e+03   7.533267e+01
   2.523611e+03   2.811139e+03
  -9.465437e+02   2.908817e+03
  -2.245164e+03   7.835748e+02
  -8.989529e+02  -8.266523e+02
   8.118686e+02  -5.743685e+02
   9.460712e+02   5.350541e+02
  -6.692582e+01   1.092183e+03
  -9.350632e+02   7.548512e+02
  -9.838028e+02  -1.332750e+02
  -3.902266e+02  -9.342363e+02
   3.275894e+02  -8.873735e+02
   6.348285e+02  -9.839628e+01
   3.930989e+02   7.433011e+02
  -2.209450e+02   7.566043e+02
  -6.267763e+02  -1.535301e+01
  -2.891772e+02  -6.825455e+02
   3.462397e+02  -6.506635e+02
   6.227544e+02  -3.247817e+01
   3.592228e+02   3.911685e+02
  -1.329369e+01   4.452380e+02
  -2.354981e+02   2.319889e+02
  -2.205332e+02   2.040566e+01
   1.154756e+02  -9.370090e+01
   4.236626e+02   1.570319e+02
   2.466979e+02   4.458664e+02
  -4.713114e+02   4.027685e+02
  -8.607164e+02  -1.094873e+02
  -4.405908e+02  -6.018633e+02
   4.349715e+02  -5.437487e+02
   7.461617e+02   9.372276e+00
   3.440446e+02   5.554014e+02
  -2.674878e+02   5.561032e+02
  -6.113517e+02   2.662651e+02
  -4.175066e+02  -2.840863e+02
  -4.138571e+01  -4.627060e+02
   1.932150e+02  -2.659504e+02
   2.388876e+02   2.550026e+02
  -1.914185e+02   4.484239e+02
  -5.265243e+02   1.367390e+00
  -2.664304e+02  -6.601523e+02
   3.047954e+02  -7.402964e+02
   6.659585e+02  -7.838690e+00
   2.394792e+02   6.067444e+02
  -3.158005e+02   3.949421e+02
  -4.274899e+02  -3.446142e+02
   8.662557e+01  -5.722814e+02
   5.433571e+02  -1.415151e+02
   6.154707e+02   3.879716e+02
   1.582474e+02   5.835021e+02
  -4.105789e+02   3.095318e+02
  -6.497538e+02  -6.917650e+01
  -4.267262e+02  -4.351178e+02
   1.548231e+02  -4.371940e+02
   5.135264e+02  -7.149970e+01
   2.263889e+02   2.358253e+02
  -1.329198e+02   1.259234e+02
  -1.632391e+02  -1.131170e+02
   1.985309e+02  -2.198601e+02
   3.695658e+02   9.324516e+01
   1.565832e+02   3.124227e+02
  -1.724362e+02   1.827049e+02
  -3.580774e+02   5.576150e+01
  -1.651075e+02  -7.990913e+01
   4.635786e+01  -2.092701e+02
   2.313174e+02  -3.287165e+02
   3.129360e+02  -1.794190e+02
   2.791482e+02   1.290647e+02
   1.063865e+02   4.755959e+02
  -1.208825e+02   3.528004e+02
  -7.924953e+01   1.120542e+02
  -1.063857e+01  -3.146374e+01
  -8.178987e+00   6.664456e+01
  -1.975300e+02   1.891844e+02
  -2.862638e+02  -3.783599e+01
  -2.066010e+02  -2.570732e+02
   9.344546e+01  -3.301322e+02
   2.602712e+02  -5.599324e+01
   1.895480e+02   1.900378e+02
  -2.322640e+01   3.320063e+02
  -3.207229e+02   1.436498e+02
  -3.965611e+02  -1.796401e+02
  -1.561207e+02  -3.869125e+02
   1.454763e+02  -3.152408e+02
   2.457230e+02  -1.008629e+02
   1.545142e+02   4.465639e+01
   1.156462e+02   3.573028e+00
   1.821952e+02  -2.792984e+01
   3.493768e+02   6.322792e+01
   3.657587e+02   3.044105e+02
  -2.067173e+01   4.503059e+02
  -3.569049e+02   4.289907e+02
  -5.089659e+02   1.854951e+02
  -3.375037e+02  -1.069126e+02
  -7.177928e+01  -2.962131e+02
   1.348387e+02  -2.932529e+02
   3.777771e+01  -6.057959e+01
  -1.055573e+02   8.568149e+01
  -2.133510e+02  -1.719939e+01
  -5.725509e+01  -2.276882e+02
   2.231823e+02  -1.836195e+02
   1.951356e+02   6.079919e+01
  -9.232839e+00   2.381048e+02
  -2.410275e+02   2.688359e+01
  -1.703124e+02  -2.601583e+02
   3.554217e+01  -3.480024e+02
   2.279117e+02  -1.313051e+02
   3.604940e+02   6.822681e+01
   2.399954e+02   2.359348e+02
   1.138518e+02   3.063844e+02
  -1.017395e+02   1.295855e+02
  -2.031621e+02   1.111232e+01
  -4.881647e+01  -1.420847e+01
   8.221709e+01  -2.583883e+01
   6.412061e+01   8.780746e+01
  -1.054846e+02   1.362954e+02
  -1.348158e+02  -4.349760e+01
  -5.481049e+01  -1.015089e+02
   1.194250e+02  -4.470062e+00
   5.232940e+01   5.826041e+01
  -8.030911e+01   9.904391e+01
  -2.404516e+02  -2.495096e+01
  -2.641870e+02  -7.309069e+01
  -3.096313e+01  -2.474201e+02
   1.490924e+02  -3.080307e+02
   2.736978e+02  -1.243351e+02
   2.417953e+02   9.693403e+01
   1.427620e+01   1.021153e+02
  -1.421675e+02  -7.161610e+00
  -1.268110e+01  -9.560478e+01
   2.077779e+02  -9.217433e+01
   2.055985e+02   1.090899e+02
   1.501134e+02   2.530511e+02
  -8.597045e+01   1.997048e+02
  -9.708262e+01   1.814645e+01
  -3.401356e+01  -3.068365e+01
   3.810436e+01   3.815570e+00
   6.471863e+01   1.012157e+02
  -1.453806e+02   1.561169e+02
  -1.413574e+02  -7.200940e+01
  -1.867314e+02  -1.051989e+02
  -2.729205e+00  -1.849435e+02
   2.031703e+02  -1.869333e+02
   2.548870e+02   1.342746e+01
   8.232592e+01   1.104408e+02
  -6.103699e+01   1.268167e+02
  -1.402262e+02   4.771221e+01
   2.888410e+01   1.462024e+01
  -1.818675e-01  -5.139337e+01
   6.411247e+00  -1.251300e+01
  -7.004482e+01  -1.389380e+01
  -6.072748e+01  -8.008576e+01
   6.816448e-01  -1.392576e+02
   1.130844e+02  -1.698200e+02
   1.844581e+02  -5.425735e+01
   2.610326e+02   7.312967e+01
  -2.489749e+01   2.164986e+02
  -1.028983e+02   1.760831e+02
  -1.403243e+02  -2.599845e+00
  -7.327165e+01  -3.777429e+01
  -3.092317e+01   1.443699e+01
  -5.569068e+01   6.274281e+01
  -9.754595e+01  -4.350059e+01
  -9.524006e+00  -2.545824e+01
  -1.554094e+01  -1.021991e+02
   7.824687e+01   7.544674e+00
   9.123846e+01   6.448740e+01
  -3.662582e+01   1.271594e+02
  -1.537787e+02   8.973281e+01
  -2.103353e+02  -7.042553e+01
  -1.232187e+02  -2.475332e+02
   1.312342e+02  -2.004661e+02
   2.563752e+02  -1.432634e+02
   2.605556e+02   1.019777e+02
   4.836953e+01   2.200902e+02
  -4.046561e+01   7.208065e+01
  -1.333142e+02   1.058455e+02
  -7.760471e+01   7.272445e+01
  -6.085694e+01   9.381957e+01
  -8.464127e+01  -4.698309e+00
  -9.387754e+01  -4.199781e+01
  -1.312557e+02  -1.070720e+02
  -6.026584e+01  -2.240667e+02
   7.435517e+01  -2.221349e+02
   2.317764e+02  -3.749114e+01
   1.307909e+02   8.970066e+01
   4.075893e+01   2.038627e+02
  -3.351382e+01   1.022725e+02
  -1.142093e+02   1.590665e+00
  -1.503554e+01  -4.305858e+01
  -2.487386e+00  -7.419642e+00
  -3.512426e+01   1.281086e+01
  -6.089100e+01  -1.497456e+01
  -7.299459e+01  -7.203027e+01
   5.364714e+01  -8.998982e+01
   1.374221e+02   6.223602e+01
   1.880214e+02   9.546881e+01
   5.241789e+01   5.365799e+01
  -1.374454e+02   6.814119e+01
  -1.614497e+02   1.140652e+01
  -5.241951e+01  -5.096718e+01
   4.141343e+01  -3.672758e+01
   1.087016e-01   3.731690e+01
   8.558766e+00   8.642980e+01
  -7.068240e+01   7.107186e+01
  -6.967785e+01   8.985042e+01
  -1.840425e+01  -2.473238e+01
  -2.267518e+01   1.798929e+01
  -3.726771e+01  -4.484244e+01
  -1.066091e+02   1.683201e+01
  -3.261390e+01  -4.342014e+01
   2.762374e+01  -1.573183e+02
   1.398872e+02  -1.303832e+02
   1.468300e+02  -9.988430e+00
   1.252726e+02   1.096762e+02
   5.092294e+01   1.728584e+02
  -1.229326e+02   7.634318e+01
  -6.136803e+01   2.235683e+01
   1.855672e+01  -5.523803e+01
   1.987920e+02   1.072417e+01
  -1.548732e+01   8.092672e+01
  -7.577453e+01   5.485215e+01
  -1.878590e+02   4.971420e+01
  -1.756806e+02  -2.401438e+01
   3.520235e+01  -8.680931e+01
   8.337555e+01  -1.005136e+02
   4.429373e+01  -6.795438e+01
  -2.531588e+01   8.340198e+01
  -1.301560e+02   4.782471e+01
  -1.161041e+01  -1.353587e+02
   9.019204e+01  -1.313580e+02
   2.041389e+02  -6.077408e+01
   1.587348e+02   7.722684e+01
  -5.144442e+01   1.486834e+02
  -7.272099e+01   1.690129e+02
  -1.596338e+02   2.633988e+00
  -4.127908e+01  -1.042496e+02
  -3.249336e+01  -1.208650e+02
   1.435697e+02  -5.940788e+00
   3.405243e+01   6.839358e+01
   7.906222e+01   3.905346e+01
  -2.556646e+01  -5.195868e+01
   9.229281e+00   2.660964e+00
   6.065186e+01   6.186998e+01
   1.020476e+01   7.815984e+01
  -7.067241e+00   6.891833e+01
  -2.027014e+02  -3.622047e+01
  -1.070157e+02  -1.423290e+02
  -7.528206e+01  -7.299503e+01
   8.437317e+01   4.976129e+01
   9.049654e+01  -4.697179e+01
   2.383954e+01  -2.820339e+01
  -7.611956e+01   9.776036e+01
   1.081129e+01   4.464391e+01
   3.349076e+01   1.589618e+01
   6.602538e+01  -7.671203e+01
  -9.146379e+01  -2.803298e+01
  -8.021485e+01  -2.849501e+01
   3.591899e+01  -5.732993e+01
   1.024041e+02  -1.341923e+02
   1.905617e+02  -3.495376e+01
   1.045029e+02   8.438159e+01
   3.835908e+01   1.166307e+02
  -7.462176e+01   1.123518e+02
  -8.514482e+01   2.446627e+01
  -8.568258e+01  -5.725829e+00
   2.741906e+00  -4.937912e+01
   1.465770e+00  -1.006746e+01
  -5.441987e+01   9.284892e+00
  -3.367734e+01  -1.095316e+02
  -5.572310e+01  -1.266449e+02
   5.955710e+01  -1.261281e+02
   5.154748e+01   3.768990e+00
   1.320930e+02   1.533525e+02
   6.254123e+01   9.451116e+01
  -7.044954e+01   2.684365e+01
  -1.747659e+02  -1.135298e+02
  -3.263112e+01  -1.130143e+02
   6.027709e+01  -3.876771e+01
   1.290057e+02   1.851102e+01
   6.397677e+01   5.352804e+01
  -6.566862e+01   1.001412e+02
  -5.419697e+01   3.528787e+01
   5.878196e+01  -2.764527e+01
   3.972756e+01   4.124136e+01
  -4.500704e+01   5.546503e+01
  -9.659725e+01   3.320336e+01
  -7.848491e+01   2.835143e+01
  -5.002603e+01   3.223762e+01
  -2.877483e+01  -7.723145e+01
   4.567232e+01  -7.451093e+01
   2.243746e+01  -3.337684e+00
  -3.463343e+01   1.285734e+01
  -5.710440e+00   6.789202e-01
  -8.535221e+01  -3.732511e+01
  -3.665773e+01  -2.922435e+01
  -1.011891e+01  -3.426726e+01
   1.179586e+02   6.808754e+00
   3.952466e+01   3.785538e+01
   6.418923e+01   9.194481e-01
   4.465951e+00   2.524973e+01
   3.601301e+01   1.262160e+01
  -1.885333e+01  -5.219189e+01
  -4.551136e+01   4.966112e+01
   1.286781e+01   3.313126e+01
   9.040381e+00  -2.135280e+01
  -4.520086e+00  -2.602629e+01
   6.592869e+01  -9.738594e+01
  -5.107745e+01   4.716601e+01
   2.367692e+01   7.381267e+01
  -5.093350e+01   1.039992e+01
  -1.160548e+02   1.756022e+01
  -8.289886e+01  -3.940822e+01
  -2.273892e+01  -5.130239e+01
   2.433120e+00  -5.164893e+00
   1.433861e+01  -1.178285e+01
  -9.551270e+01   4.195002e+01
  -5.864514e+01  -3.119180e+01
   3.578191e+01  -9.374858e+01
   5.858172e+01  -5.993780e+00
