
 $NMID
 id='ANONYMOUS ', fmtdat='(2E16.6)'
 volume=1.0
 tramp=1.0
 $END
   4.452337e+03   9.698590e+01
   2.525611e+03   2.707208e+03
  -8.879867e+02   2.765542e+03
  -2.203472e+03   7.419189e+02
  -8.713874e+02  -7.519276e+02
   7.423565e+02  -5.497789e+02
   9.318259e+02   5.549532e+02
  -6.766095e+01   1.100156e+03
  -8.549620e+02   7.351202e+02
  -9.716873e+02  -1.233855e+02
  -4.624851e+02  -9.375069e+02
   2.528863e+02  -8.937541e+02
   6.490828e+02  -3.458585e+01
   3.734570e+02   7.557984e+02
  -3.366324e+02   7.434404e+02
  -6.329851e+02  -1.543351e+01
  -2.219278e+02  -7.163438e+02
   3.644038e+02  -6.722445e+02
   5.812619e+02  -3.336773e+01
   3.832859e+02   3.476833e+02
   2.409455e+01   4.713631e+02
  -2.679789e+02   1.983926e+02
  -2.594500e+02  -4.970671e+01
   1.162156e+02  -8.785428e+01
   4.553990e+02   9.771328e+01
   2.276956e+02   4.888252e+02
  -4.734218e+02   4.241693e+02
  -8.950896e+02  -1.042374e+02
  -4.685122e+02  -5.611464e+02
   4.753788e+02  -5.150108e+02
   7.173436e+02   7.146266e+01
   3.567459e+02   4.634042e+02
  -3.025894e+02   5.435265e+02
  -5.362638e+02   2.041560e+02
  -4.159242e+02  -2.143881e+02
  -2.185947e+01  -4.552160e+02
   1.743850e+02  -2.620239e+02
   1.952416e+02   2.398220e+02
  -2.181210e+02   4.393625e+02
  -4.836467e+02  -8.901777e+01
  -2.866585e+02  -6.944395e+02
   2.914738e+02  -6.925275e+02
   6.150275e+02   5.384837e+01
   2.121175e+02   5.607112e+02
  -3.141734e+02   2.870583e+02
  -3.905031e+02  -3.284910e+02
   8.550245e+01  -5.929163e+02
   5.610548e+02  -1.406995e+02
   5.632603e+02   3.757663e+02
   1.234999e+02   6.311163e+02
  -3.722615e+02   3.406044e+02
  -5.837557e+02  -9.433953e+01
  -3.680883e+02  -4.267757e+02
   2.106447e+02  -3.364485e+02
   4.022985e+02  -1.449440e+01
   2.751687e+02   2.223166e+02
  -1.931912e+02   1.339249e+02
  -1.059895e+02  -1.367859e+02
   2.197778e+02  -1.861367e+02
   4.096055e+02   1.178083e+02
   1.138691e+02   3.115905e+02
  -1.987186e+02   3.304740e+02
  -3.426657e+02   6.172491e+01
  -2.194867e+02  -6.863905e+01
   2.605746e+01  -2.218075e+02
   2.198798e+02  -2.740753e+02
   3.633246e+02  -2.204093e+02
   3.510105e+02   1.182917e+02
   4.675040e+01   4.727178e+02
  -1.203725e+02   4.778046e+02
  -1.115798e+02   1.286236e+02
  -2.231394e+01  -2.717201e+00
  -5.048656e+00   9.561284e+01
  -2.304182e+02   1.537784e+02
  -2.264390e+02  -3.124314e+01
  -1.579372e+02  -2.682780e+02
   8.174864e+01  -2.809425e+02
   2.158996e+02  -9.733839e+00
   2.390081e+02   2.734553e+02
  -4.242183e+01   2.613986e+02
  -2.709819e+02   1.512577e+02
  -3.643391e+02  -1.775687e+02
  -2.461269e+02  -4.019308e+02
   1.384225e+02  -3.592101e+02
   2.093300e+02  -1.620275e+02
   1.558149e+02   9.894270e+00
   7.247911e+01  -1.151541e+02
   2.354463e+02  -4.350230e+01
   3.743742e+02   3.225812e+01
   3.270356e+02   2.348832e+02
   7.460061e+01   4.758268e+02
  -3.673996e+02   3.414851e+02
  -4.966601e+02   2.066570e+02
  -2.746133e+02  -3.611290e+01
  -9.986968e+01  -3.427794e+02
   1.217392e+02  -2.169355e+02
   7.856922e+01  -5.943164e-01
  -8.607852e+01   8.056575e+01
  -1.712747e+02  -2.430323e+01
  -8.741080e+01  -2.127576e+02
   1.712784e+02  -1.962249e+02
   1.858358e+02   4.365451e+01
  -2.978432e+01   2.412801e+02
  -1.491618e+02   4.055320e+01
  -1.770749e+02  -2.813754e+02
   6.542551e+01  -3.438945e+02
   2.401662e+02  -1.850035e+02
   3.058976e+02   1.101301e+02
   2.684966e+02   2.602723e+02
   9.027610e+01   2.911861e+02
  -1.533631e+02   1.809722e+02
  -1.497409e+02  -3.709771e+01
  -6.470457e+01  -6.972236e+01
   6.745999e+01   1.888355e+01
   6.110903e+01   1.358501e+02
  -1.350384e+02   1.040666e+02
  -1.927815e+02   1.597528e+00
  -8.738508e+01  -7.100062e+01
   8.771304e+01  -1.119414e+01
   1.134200e+02   1.161710e+02
  -1.236357e+02   1.224507e+02
  -2.636696e+02   8.759645e-01
  -3.063270e+02  -1.698714e+02
  -1.311879e+02  -2.625316e+02
   1.834588e+02  -3.037791e+02
   2.810746e+02  -1.756956e+02
   2.142180e+02   7.164466e+01
  -4.351496e+01   7.198782e+01
  -1.089178e+02   4.266884e+01
   3.273312e+01  -5.344435e+01
   1.758637e+02  -5.725735e+01
   2.873909e+02   9.170529e+01
   3.949723e+01   2.163035e+02
  -3.531399e+01   1.545145e+02
  -1.516854e+02   3.173192e+01
  -6.179976e+01  -6.452870e+01
   5.283021e+01  -1.769111e+00
   1.645844e+01   9.019947e+01
  -6.066478e+01   1.296130e+02
  -1.995574e+02   5.035477e+01
  -1.814756e+02  -1.421180e+02
  -2.234486e+00  -2.885768e+02
   1.830842e+02  -1.482593e+02
   1.391847e+02  -1.911922e+01
   6.722807e+01   1.365402e+02
  -5.389458e+01   8.585619e+01
  -1.206845e+02   3.677296e+01
   2.223393e+01  -4.238242e+01
   7.601944e-01  -2.951428e+00
  -1.858944e+01  -2.635230e+01
  -7.854737e+01   8.276830e+00
  -7.684576e+01  -1.024401e+02
   3.580609e+01  -8.787726e+01
   1.539141e+02  -1.240064e+02
   1.820487e+02  -6.993698e+01
   1.971500e+02   1.432052e+02
   1.146969e+02   2.635072e+02
  -5.892943e+01   1.785705e+02
  -1.110031e+02  -1.225026e+01
  -1.059885e+02  -1.240404e+02
   3.718484e+00  -7.163268e+00
  -7.756434e+01  -5.384977e+00
  -1.690930e+02  -1.777635e+01
  -1.067801e+02  -6.107904e+01
   8.000087e+01  -9.529604e+01
   1.405368e+02  -3.854292e+01
   5.924367e+01   6.087328e+01
  -4.985014e+01   1.311923e+02
  -1.336122e+02   3.483134e+01
  -1.775198e+02  -8.429642e+01
  -8.587818e+01  -2.083219e+02
   6.167935e+01  -3.290226e+02
   2.512123e+02  -6.418234e+01
   2.050666e+02   6.463342e+01
   1.912328e+02   1.827965e+02
   3.434248e+01   2.461871e+02
  -6.355387e+01   9.953159e+01
  -4.820008e+01   7.647814e+01
  -1.205404e+02   6.803909e+01
  -5.600515e+01   4.392176e+01
  -1.059056e+02   4.193001e+01
  -1.478045e+02  -1.698062e+02
   1.143153e+01  -2.218391e+02
   1.696488e+02  -1.926197e+02
   1.193287e+02  -1.599122e+01
   1.005565e+02   1.703804e+02
   4.451240e+01   1.645801e+02
  -4.567720e+01   1.095445e+02
  -7.971691e+01  -2.792096e+01
  -2.420668e+01  -5.264605e+01
   9.299485e+00  -2.726320e+01
  -2.853393e+01  -3.771517e+01
  -5.370208e+01  -4.939208e+01
  -4.378248e+01   1.177167e+00
   7.582328e+01  -3.010010e+01
   8.803245e+01  -2.272354e+01
   1.437155e+02   1.616098e+02
   1.204101e+01   9.124010e+01
  -7.697800e+01   8.418356e+01
  -1.699089e+02   2.882297e+00
  -6.641116e+01  -3.816578e+00
   7.643008e+01  -2.548652e+01
   5.783404e+01  -3.013646e+01
  -3.930108e+01   4.910147e+01
  -7.040953e+01   5.699731e+01
  -4.381570e+01  -6.913964e+00
  -1.287340e+02  -5.633361e+01
  -5.509418e+01  -4.803870e+01
  -4.660641e+01  -1.745735e+01
  -1.749865e+01  -1.424020e+01
  -2.669466e+01  -1.052619e+02
   1.593196e+01  -1.503113e+02
   1.758947e+02  -1.394464e+02
   1.398402e+02  -1.366265e+02
   1.972321e+02   1.144121e+02
   4.128124e+01   8.465566e+01
  -7.327261e+01   8.145024e+01
   5.213325e+00  -7.179916e+00
  -1.664347e+01  -3.610592e+01
   1.537284e+02  -2.903565e+01
   5.910897e+01   8.120169e+01
  -7.781366e+01   1.322569e+02
  -1.940989e+02   6.672387e+01
  -1.011828e+02  -3.404190e+01
  -3.665338e+01  -7.289694e+01
   6.157086e+01  -5.724487e+01
   7.711607e+01  -3.686732e+00
   4.181477e+00   7.043107e+00
  -5.756661e+01  -5.212591e+01
  -4.708846e+01  -1.241489e+02
   7.175089e+01  -1.756587e+02
   8.261091e+01  -4.453137e+01
   1.263319e+02   1.030189e+02
   2.264452e+01   1.968496e+02
  -1.168600e+02   1.668157e+02
  -9.919609e+01   3.899316e+01
  -5.801954e+01  -9.304641e+01
   1.663761e+01  -1.058965e+02
   9.285244e+01  -1.265337e+01
   1.315962e+01   2.794806e+01
   5.088985e+01  -1.554977e+00
   3.814121e+01   1.862554e+01
   1.100243e+01   1.586103e+01
   1.029743e+02   5.051237e+01
   4.367905e+01   9.900354e+01
  -2.320122e+01   3.923137e+01
  -2.036793e+02  -5.936979e+01
  -1.314688e+02  -5.935487e+01
  -4.527074e+01  -7.028130e+01
   1.110285e+02  -7.329037e+01
   4.685436e+01   1.895109e+00
   3.452560e+01  -6.711892e+00
  -7.005487e+01   2.326316e+01
  -1.742170e+01   2.649669e+01
  -1.543424e+01   1.879634e+01
  -6.182279e+00  -1.592642e+01
  -7.537784e+01  -3.979275e-01
  -9.624487e+01   5.238116e+00
  -4.441596e+01  -1.192349e+02
   9.233972e+01  -1.042330e+02
   1.754119e+02  -4.408297e+01
   1.269372e+02   7.858528e+01
  -6.333148e+01   2.391436e+02
  -6.948973e+01   1.875407e+02
  -1.121254e+02   6.209015e+01
  -8.803117e+01  -7.347323e+01
  -3.257181e+01   2.133240e+01
   2.175610e+01  -3.237499e+01
  -2.515721e+01   6.371811e+00
  -5.248293e+01  -5.868360e+01
  -5.011763e+01  -8.406503e+01
   4.882766e+01  -4.291827e+01
   1.050004e+02   2.427717e+00
   4.752156e+01   1.055937e+02
  -6.999245e+00   8.364594e+01
  -1.101792e+02   4.990627e+01
  -4.620931e+01  -8.247835e+01
  -5.894593e+00  -5.835950e+01
   1.353050e+02  -1.076450e+02
   7.778233e+01   2.673162e+01
   2.941937e+01   7.970967e+01
   6.455480e+00   5.946910e+01
  -3.784640e+01   3.416296e+00
   5.737262e+01  -1.012107e+01
   2.898279e+01  -1.147258e+01
  -3.560074e+01   2.958046e+01
  -1.282470e+02   5.765415e+01
  -7.484185e+01   6.827351e+01
  -8.644416e+01  -4.325977e+01
   7.093801e+01  -1.139001e+02
   6.772862e+00  -7.662097e+01
   1.217396e+01   4.678367e+00
   4.405917e+01   6.170180e+01
  -3.960162e+01   4.004591e+00
  -1.763915e+01   2.710093e+00
  -2.318057e+01  -1.077305e+00
   3.295325e+01  -8.111857e+01
   1.625472e+01   1.273058e+01
  -8.841920e+00   2.872704e+01
   3.853970e+01  -5.707051e+00
  -5.238666e+00  -4.439642e+01
  -3.798970e+01   2.292728e+01
  -1.672090e+01   7.465161e+01
   1.133996e+01   4.703989e+01
  -6.234092e+01  -1.126732e+01
   6.343021e+01  -6.660523e+01
   2.416972e+01  -1.015836e+02
   2.106449e+01  -9.251562e+01
   8.917677e+01   8.581799e+01
  -8.403870e+01   2.034868e+01
   1.162293e+00  -2.593161e+01
  -1.644082e+02  -3.973625e+01
  -1.183084e+01  -2.070819e+01
   1.881807e+01   1.026940e+01
   7.655169e+01  -4.215749e+01
   2.965409e+01   2.299332e+01
  -6.504259e+01   8.549594e+00
  -8.340370e+01  -2.096676e+00
   6.973655e+01  -3.254995e+01
   6.442305e+01   1.744215e+00
