
 $NMID
 id='ANONYMOUS ', fmtdat='(2E16.6)'
 volume=1.0
 tramp=1.0
 $END
  -3.370636e+03   3.214677e+01
  -2.203803e+03  -1.776526e+03
   1.474453e+02  -2.172250e+03
   1.351253e+03  -1.169907e+03
   9.547768e+02   2.967759e+01
  -1.159250e+02   3.370572e+02
  -4.643602e+02  -2.406121e+02
   2.215833e+01  -6.678688e+02
   5.035948e+02  -6.564170e+02
   7.187101e+02  -1.244085e+02
   4.315126e+02   5.777304e+02
  -1.079148e+01   6.796985e+02
  -3.641511e+02   1.886813e+02
  -2.754770e+02  -4.723713e+02
   1.383373e+02  -5.969573e+02
   3.960849e+02  -1.569399e+01
   2.974438e+02   4.582554e+02
  -1.810797e+02   6.080597e+02
  -4.801780e+02   2.251297e+02
  -3.985282e+02  -2.190265e+02
  -1.321695e+02  -3.404858e+02
   1.604136e+02  -2.864763e+02
   1.036161e+02  -9.393998e+01
  -1.232383e+02  -9.971312e+01
  -3.029776e+02  -1.919985e+02
  -8.298267e+01  -3.064593e+02
   4.169087e+02  -2.304867e+02
   6.319725e+02   1.451318e+02
   3.179142e+02   3.642308e+02
  -2.930654e+02   2.873436e+02
  -5.449152e+02  -6.691725e+01
  -2.269173e+02  -4.020322e+02
   2.708865e+02  -3.684921e+02
   5.007168e+02  -1.562898e+02
   3.353252e+02   1.811007e+02
   4.689040e+01   4.126291e+02
  -6.601635e+01   2.232703e+02
  -1.483658e+01  -7.767107e+01
   1.411274e+02  -2.204636e+02
   2.987512e+02   1.185001e+02
   1.044950e+02   5.067244e+02
  -2.276577e+02   4.976790e+02
  -3.493379e+02   2.887628e+01
  -1.732570e+02  -3.686567e+02
   1.923211e+02  -2.172156e+02
   2.115907e+02   2.417904e+02
  -4.216605e+01   4.261659e+02
  -4.273352e+02   1.633289e+01
  -4.496053e+02  -3.479898e+02
  -1.972641e+02  -5.132216e+02
   3.188479e+02  -2.377468e+02
   5.846775e+02   7.122900e+01
   3.299720e+02   2.284943e+02
  -5.092607e+01   2.359686e+02
  -3.124904e+02   7.328637e+01
  -2.381282e+02  -9.463621e+01
   5.062353e+01  -3.854890e+01
   8.815063e+01   8.703396e+01
  -1.390131e+02   1.086529e+02
  -2.156889e+02  -6.567648e+01
  -1.258003e+02  -2.622386e+02
   1.429008e+02  -2.294248e+02
   2.845346e+02  -1.263813e+02
   2.560797e+02   8.462765e+01
  -1.791971e+01   2.322601e+02
  -2.595356e+02   2.825666e+02
  -3.685860e+02   1.943310e+02
  -2.001179e+02  -1.253491e+02
  -5.629492e+01  -3.441180e+02
   8.926559e+01  -2.901179e+02
   2.190428e+01  -1.431367e+02
   5.375420e+01  -1.077853e+02
   1.312141e+02  -8.773774e+01
   2.316344e+02  -8.110752e+01
   3.106600e+02   1.097866e+02
   1.260607e+02   2.562106e+02
  -5.681963e+01   2.519019e+02
  -1.906582e+02  -3.557481e+01
  -1.639255e+02  -2.583078e+02
  -4.480027e+00  -2.725541e+02
   2.228225e+02  -1.732200e+01
   3.259231e+02   1.646859e+02
   1.794101e+02   2.783611e+02
  -4.456930e+01   1.995750e+02
  -2.145085e+02   1.310357e+02
  -1.519483e+02   7.734948e+01
  -1.112749e+02   3.205365e+01
  -2.982600e+02   3.913771e+01
  -4.185718e+02  -8.298908e+01
  -3.469923e+02  -2.686645e+02
  -5.802742e+00  -4.320865e+02
   3.500111e+02  -4.089575e+02
   4.363150e+02  -1.547536e+02
   2.282887e+02   5.308079e+01
   3.382302e+01   2.403648e+02
  -1.931700e+01   1.943429e+02
  -3.457610e+01   2.973952e+01
   9.249110e+01  -1.552391e+01
   1.345545e+02   4.662759e+01
  -2.243691e+01   2.081815e+02
  -1.173510e+02   1.562674e+02
  -1.124820e+02  -6.112022e+01
   5.788668e+01  -1.426521e+02
   2.084012e+02  -6.250481e+01
   1.260454e+02   2.511469e+02
  -4.700442e+01   3.323667e+02
  -2.364642e+02   2.471968e+02
  -3.342180e+02  -3.836722e+00
  -3.010509e+02  -2.594394e+02
  -1.039353e+02  -2.619431e+02
   1.133990e+02  -1.409658e+02
   1.447934e+02   1.399994e+01
   2.055069e+01  -2.836433e+00
  -4.127907e+01  -9.370632e+01
  -3.910147e+01  -1.341066e+02
   1.448305e+02  -9.854477e+01
   1.361971e+02   3.839045e+01
   6.599272e+01   7.003026e+01
  -5.788229e+01   5.236475e+01
  -7.154302e+01  -5.016043e+01
   1.395677e+02  -8.639365e+01
   3.044961e+02   4.482691e+00
   2.582539e+02   1.176303e+02
   1.705684e+01   2.306314e+02
  -2.057686e+02   1.840791e+02
  -2.582957e+02   1.487321e+02
  -1.846683e+02  -5.115198e+01
  -8.043582e+00  -5.249511e+01
   9.949864e+01  -4.021449e+00
  -4.326765e+01   1.163823e+02
  -1.326341e+02   5.853807e+01
  -1.758342e+02  -7.216816e+01
  -7.547035e+01  -1.759734e+02
   1.145288e+02  -9.431974e+01
   1.018730e+02  -7.914782e+01
   1.001846e+02   1.997368e+01
  -2.749201e+01  -3.726718e+01
  -5.526493e+01  -7.726845e+01
   9.195427e+01  -1.037427e+02
   1.802369e+02  -2.805034e+01
   1.884124e+02   1.170019e+02
   6.083535e+00   1.671577e+02
  -1.411021e+02   1.214555e+02
  -1.750059e+02   4.477139e+01
  -5.858427e+01  -1.526360e+02
   2.157456e+01  -1.559082e+02
   9.653886e+01  -6.732309e+01
   2.248457e+01  -2.220156e-01
  -2.906924e+01   6.932161e+00
   3.495528e+01  -3.221815e+01
   8.494869e+01   2.408632e+01
   1.327143e+02   9.736950e+01
   5.707728e+01   1.280532e+02
  -1.608115e+02   1.702934e+02
  -2.496675e+02   4.409272e+01
  -1.573228e+02  -1.327259e+02
  -3.299736e+01  -2.715374e+02
   1.534670e+02  -1.685037e+02
   8.538114e+01  -9.029413e+01
   9.167406e+01   1.941357e+01
  -3.443778e+01   3.217717e+01
   4.566553e+01   3.167174e+00
   1.230268e+02  -3.194267e+01
   1.079582e+02   3.142676e+01
   4.267128e+01   9.060219e+01
  -8.955039e+01   5.842641e+01
  -1.265210e+02  -1.041698e+02
   4.787603e+00  -7.445458e+01
   1.522091e+02  -4.328209e+01
   2.150828e+02   2.096597e+01
   4.509522e+01   1.667741e+02
  -1.657234e+02   2.311958e+02
  -2.395165e+02   7.543447e+01
  -2.930198e+02  -6.181906e+01
  -1.093034e+02  -1.484769e+02
   3.294208e+01  -1.210578e+02
   3.114868e+01  -1.542276e+02
   7.245552e+01  -1.460351e+02
   1.048832e+02  -1.127467e+02
   5.189088e+01  -1.194193e+02
   1.406206e+02   3.466400e+01
   9.945137e+01   8.857794e+01
   4.705723e+01   2.102118e+02
  -8.530960e+01   8.082034e+01
  -1.407274e+02  -4.505669e+01
  -6.672527e+01  -1.262670e+02
   1.525140e+01  -1.165702e+02
   7.729490e+01  -8.248864e+01
   1.848959e+01  -5.142826e+01
  -1.387415e+01   8.812257e+01
  -2.670124e+01   3.285750e+01
   2.441242e+01  -2.956869e+01
   5.372533e+01   3.439692e+01
   1.199365e+01   7.687215e+01
  -8.515942e+01   4.522229e+00
  -1.671210e+02  -7.810179e+00
  -1.482376e+02  -7.185806e+01
   6.901774e-01  -3.895766e+01
   1.232937e+02  -1.072586e+02
   1.321641e+02  -3.038111e+00
   6.715278e+01   6.476420e+01
  -1.334145e+01   7.767623e+01
  -6.940750e+01   1.600345e+01
   1.163770e+01  -1.413610e+01
   3.354460e+01  -4.313855e+01
   5.522828e+01   1.240292e+01
   9.330892e+01   6.573771e+01
   2.993633e+01   4.975759e+01
   6.608134e+01  -7.816623e+00
   6.112835e+01   2.973849e+01
  -2.866870e+00   3.903902e+01
  -6.611759e+01   1.694266e+02
  -1.057860e+02   1.246596e+02
  -1.997699e+02   8.452981e+01
  -1.291750e+02  -2.493243e+01
   2.759873e+01  -1.427761e+02
   9.139948e+01  -6.194470e+01
   5.926677e+01   5.362399e+01
  -1.075002e+01   1.886159e+01
  -8.129567e+01   8.149190e+00
  -1.028799e+02  -9.204702e+01
   4.692071e+01  -9.661026e+01
   8.987212e+01  -1.449635e+01
   1.644132e+02   1.297872e+01
   3.637844e+01   1.024209e+02
  -1.104573e+02   6.492043e+01
  -2.934520e+01   2.230271e+00
   7.656682e+01  -6.710129e+01
   1.146080e+02   1.967106e+01
   4.443835e+01   1.018148e+02
  -1.035331e+02   1.131926e+02
  -1.179959e+02   8.737824e+01
  -1.619157e+02  -6.345123e+01
  -2.033726e+01  -2.151686e+02
   3.716781e+00  -1.489715e+02
   1.095258e+02  -5.277752e+00
   6.285218e+01   1.282791e+02
   7.795388e+00   9.545889e+01
  -7.758446e+01  -2.142422e+01
  -7.981052e+01  -4.119134e+01
   3.433830e+00  -5.363570e+00
  -2.102854e+01  -3.631143e+01
  -8.384348e+01  -2.344582e+01
  -7.426742e+01  -7.712538e+01
  -5.623737e+01  -1.416876e+02
   8.063777e+01  -2.905337e+01
   1.073614e+02   1.209915e+01
   1.531051e+02   1.136679e+02
   8.029721e+00   2.212879e+01
  -8.121074e+01   8.817034e-02
  -1.110667e+02   7.710866e+00
  -2.494714e+01  -2.100311e+01
   5.215132e+01  -4.137432e+01
   6.199325e+01  -6.224862e+01
   3.912669e+01  -3.350200e+01
   2.459669e+00  -3.227767e+01
   7.642871e+01  -2.210872e+01
   6.092845e+01   1.390156e+01
  -3.782795e+00   9.048116e+01
  -1.483318e+02   8.824688e+01
  -1.823327e+02   6.688082e+01
  -2.302934e+02  -3.460153e+01
  -8.165616e+01  -1.333547e+02
   7.206666e+01  -1.571411e+02
   9.782260e+01  -2.873667e+01
   3.857953e+01   2.914781e+01
   4.236585e+01   4.475470e+01
  -8.103377e+00  -1.111485e+01
   3.354857e+00   1.926466e+01
   4.799368e+01   6.128203e+01
   5.839981e+00   1.054153e+02
   1.850799e+01   8.825510e+01
  -2.593039e+01  -6.030911e+01
  -1.799614e+01  -7.922902e+01
  -1.595952e+01  -8.924011e+01
   6.288351e+01  -7.264586e+01
   1.248113e+02  -3.528591e+00
   4.880807e+01   1.270856e+02
  -7.955743e+01   7.493650e+01
  -1.083839e+02  -3.873790e+01
  -6.892621e+01   1.395695e-01
   1.048959e+00  -6.498978e+01
   3.612536e+01  -6.032221e+01
   6.041341e+01   5.872831e+00
  -2.197603e+01   4.983842e+01
  -8.179978e+00  -4.338212e+01
   1.321747e+02  -4.403142e+01
   9.087766e+01  -4.667060e+01
   9.347547e+01   3.097684e+01
  -1.590054e+01   7.660686e+01
  -4.138854e+01   9.951874e+01
  -4.708369e+01  -2.728360e+01
   1.790362e+01  -2.004250e+01
   1.040312e+01  -3.982236e+01
   1.073112e+01   2.786612e+01
   4.913186e+01   1.957835e+01
  -2.479609e+01   8.619262e+01
  -4.048015e+01  -1.363417e+01
  -3.113779e+01   2.427496e+01
  -1.053490e+01  -5.815882e+01
   5.558899e+01  -2.099820e+01
  -2.486099e+01  -8.562839e-01
   2.575557e+01  -1.592695e+01
  -2.314203e+01  -6.111844e+01
   5.280847e+00   4.599398e+01
   8.052760e+00  -9.580980e+00
  -4.583441e+01   2.462182e+01
  -5.343268e+01   5.620135e+01
  -5.589199e+00  -3.023404e+01
   1.585997e+01  -7.386587e+01
   8.671135e+01  -2.507990e+01
   9.506108e+01   2.535247e+01
   7.063255e+01  -2.312072e+00
  -1.088992e+02   3.977570e+01
  -9.100975e+01   4.523329e+01
  -1.615899e+01  -2.267975e+00
   1.196580e+01   1.467719e+00
   1.278717e+02  -1.727542e+01
  -4.731510e+01   2.212642e+01
  -2.103349e+01   3.588965e+01
