
 $NMID
 id='ANONYMOUS ', fmtdat='(2E16.6)'
 volume=1.0
 tramp=1.0
 $END
  -1.426905e+03   2.145342e+00
  -8.899036e+02  -7.734621e+02
   9.300166e+00  -9.133856e+02
   6.263990e+02  -4.504847e+02
   4.259386e+02   9.030074e+01
  -3.364653e+01   1.169858e+02
  -2.390801e+02  -4.019729e+01
   7.150855e+00  -2.601171e+02
   2.063328e+02  -2.490499e+02
   3.304827e+02  -3.590643e+01
   1.900026e+02   2.383192e+02
   1.042260e+01   3.439435e+02
  -1.493555e+02   8.672083e+01
  -7.027016e+01  -1.381202e+02
   5.045888e+01  -2.426509e+02
   2.419807e+02  -6.242056e+01
   1.049807e+02   1.908401e+02
  -2.205780e+01   2.142828e+02
  -2.073665e+02   9.521236e+01
  -1.876795e+02  -1.061387e+02
  -4.152211e+01  -1.703518e+02
   6.606355e+01  -7.430228e+01
   5.309337e+01  -4.489856e+01
  -3.988182e+01  -4.857779e+01
  -1.069671e+02  -1.143163e+02
  -2.163556e+01  -1.138482e+02
   1.934664e+02  -1.190789e+02
   2.455862e+02   1.074057e+02
   1.208569e+02   1.423815e+02
  -1.257561e+02   8.335008e+01
  -1.821530e+02  -3.117461e+01
  -9.921784e+01  -1.224051e+02
   6.173331e+01  -1.602971e+02
   1.885088e+02  -3.118667e+01
   8.490558e+01   7.643471e+01
   2.589414e+01   1.813873e+02
  -3.585114e+01   1.403853e+02
   2.720955e+01  -4.600782e+01
   7.791462e+01  -3.709208e+01
   1.731324e+02   3.907628e+01
   6.468351e+01   2.088819e+02
  -1.108351e+02   2.063380e+02
  -1.847799e+02   5.370093e+01
  -7.462597e+01  -2.011749e+02
   8.189920e+01  -1.172240e+02
   9.785053e+01   9.687574e+01
  -1.722559e+01   1.552345e+02
  -2.233649e+02   2.749319e+01
  -2.333232e+02  -1.412610e+02
  -6.368470e+01  -2.117384e+02
   1.129811e+02  -1.570136e+02
   2.323935e+02   5.037775e+01
   1.501362e+02   1.157446e+02
  -7.291427e+01   8.920968e+01
  -1.535393e+02   6.326425e+01
  -9.554444e+01  -9.315609e+01
   9.386677e+00  -6.014046e+01
   4.536558e+01   4.834267e+01
  -6.919799e+01   5.756413e+01
  -1.063642e+02   2.363676e+01
  -7.068665e+01  -4.776246e+01
   8.816171e+01  -9.654880e+01
   1.278818e+02  -7.899113e+01
   7.306619e+01   2.997963e+01
  -2.632924e+01   1.197139e+02
  -1.219411e+02   1.376804e+02
  -1.448966e+02   1.404976e+02
  -9.759166e+01  -2.923507e+01
  -6.215635e+01  -1.610617e+02
   1.666908e+01  -8.642692e+01
   1.276540e+01  -8.803499e+01
   1.558463e+01  -3.859663e+01
   4.895120e+00  -1.512963e+01
   1.118344e+02   5.921455e+00
   8.925808e+01   2.299209e+01
   8.021629e+01   1.214064e+02
  -1.124431e+02   8.636223e+01
  -9.123232e+01  -3.633343e+01
  -6.525789e+01  -6.678848e+01
  -3.008007e+01  -1.392992e+02
   1.396107e+02  -2.169397e+01
   1.520002e+02   1.034545e+02
   6.297123e+01   2.184365e+02
  -4.700893e+01   1.044561e+02
  -6.672569e+01   5.740587e+01
  -7.886118e+00   1.277076e+01
  -4.641468e+01   1.044706e+01
  -1.200645e+02  -2.411003e+01
  -1.353719e+02  -5.065395e+01
  -1.500478e+02  -1.380121e+02
   1.571218e+01  -2.239539e+02
   1.007604e+02  -1.146547e+02
   2.028452e+02  -7.780685e+01
   1.035253e+02   1.432974e+01
  -1.042705e+01   2.890596e+01
  -1.318784e+01   5.030514e+01
  -8.284538e+01   3.867964e+01
   4.454009e+01  -6.875581e+01
   3.905292e+01   9.549127e+00
   4.616106e+01   7.942652e+01
  -4.114794e+01   5.145237e+01
  -4.853209e+01   1.195126e+01
   2.325771e+01  -7.777507e+01
   6.433408e+01   3.323538e+01
   4.867127e+01   8.828282e+01
   1.771374e+01   8.626819e+01
  -6.941209e+01   2.779126e+01
  -1.165854e+02  -2.546410e+01
  -1.088835e+02  -4.060311e+01
  -6.849691e-01  -8.926398e+01
   2.046621e+01  -5.356216e+01
   6.318314e+01  -4.017032e+00
   2.279091e+01   1.319858e+01
   1.945752e+00  -7.704204e+01
  -5.750755e+01  -4.380295e+00
   6.809105e+01  -4.525015e+01
   6.875852e+01   3.130930e+01
   4.615873e+01   1.816022e+01
  -4.944081e+01  -2.829358e+01
  -9.652308e+00  -8.933737e-01
   7.640788e+01   1.204939e+01
   1.417336e+02   7.684203e+00
   1.138869e+02   1.297718e+01
   7.271350e+01   8.405968e+01
  -7.767756e+01   8.164680e+01
  -1.374136e+02   2.139008e+01
  -4.017372e+01  -4.568582e+01
   6.889056e+01   2.185772e+01
   3.267223e+01  -6.398155e+01
   7.554628e+00   6.664751e+01
  -5.461932e+01   3.402015e+01
  -7.183691e+01  -5.127897e+01
   1.814844e+01  -9.656289e+01
   3.612473e+01  -3.679351e+01
   4.206673e+01  -3.701966e+01
   1.344106e+01   2.606360e+01
   5.831179e+00   1.695921e+01
  -4.545680e+01  -7.201732e+00
   8.190489e+01  -6.999448e+01
   7.021353e+01  -5.190233e+01
   5.628755e+01   1.243938e+02
  -2.536511e+01   1.370277e+02
  -9.351548e+01   6.009308e+01
  -1.020901e+02   1.512004e+01
  -4.936697e+01  -5.238522e+01
   6.104393e+01  -1.262194e+01
   4.407494e+01  -1.217528e+01
   2.862368e+01   5.832003e+00
  -3.314586e+01   3.488720e+01
  -3.592572e+00   2.349792e+01
   4.784028e+01  -8.198423e+01
   1.244761e+01   8.193975e+01
   3.026511e+01   7.719503e+01
  -4.576546e+01   6.920749e+01
  -8.066785e+01   6.470749e+01
  -9.164186e+01  -1.085580e+02
   2.605037e+01  -9.628656e+01
   3.217712e+01  -4.548218e+01
   5.364901e+01   1.196180e+01
   1.708592e+01   5.242104e+01
   1.265897e+01   3.539728e+01
   2.722073e+01  -7.370728e+01
   4.233040e+01   2.456171e+01
   3.247555e+01   4.104374e+01
  -3.771293e+01   4.656824e+01
  -8.023036e+01  -2.301845e+01
  -2.427444e+01   2.190032e+01
  -5.387944e+00  -1.842147e+01
   9.318577e+01  -5.501502e+01
   4.004491e+01   7.565638e+01
   9.305212e+01   4.582837e+01
  -5.324923e+00   5.766603e+01
  -6.460191e+01   6.722669e+01
  -1.196470e+02   6.589740e+00
  -1.946270e+01  -9.577238e+01
  -1.911863e+01  -5.528733e+01
   2.771147e+01  -1.019044e+01
   3.800568e+01   1.336193e+00
   1.584592e+01   2.649600e+01
   3.709858e+01  -9.040955e+00
   2.249428e+01   2.091986e+01
   6.088200e+01   9.287345e+01
   2.530736e+01   1.261178e+02
  -7.569909e+01   7.245295e+01
  -4.441425e+01  -3.225317e+00
  -6.891307e+01  -4.319100e+01
  -2.723869e+01  -7.535354e+01
   4.368267e+01  -2.060181e+01
   6.404922e+01  -2.331434e+01
  -9.771068e+00   8.148131e+01
  -5.309678e+01  -1.745592e+00
   4.649655e+01   1.694352e+01
   5.196801e+01   2.817354e+01
   4.069827e+01  -3.208505e+01
  -1.620046e+01   3.769668e+00
  -1.068371e+02  -1.686097e+00
  -2.640642e+01  -2.133969e+01
   5.652666e+01  -5.744964e+01
   1.144237e+02  -6.279231e+01
   1.560366e+01   7.387365e+00
   3.755089e+01  -3.795786e+01
  -2.978833e+01   2.469063e+01
  -2.899992e+00   3.804023e+00
   6.188718e+01   1.336388e-01
   2.349183e+01  -1.089502e+02
   7.189626e+01  -1.884021e+01
   3.325967e+01   5.670593e+01
   6.631621e+01   2.861514e+01
   3.490785e+00   3.309347e+01
   5.602498e+01  -1.426654e+01
   2.914544e+01   5.885034e+01
  -1.845273e+00   6.445627e+01
  -8.168867e+01   7.087709e+01
  -1.202952e+02   3.457416e+01
  -2.742651e+01  -3.295442e+01
  -2.792035e+01  -2.911203e+01
  -9.750052e+00  -4.318889e+01
  -1.057381e+01  -2.939052e+00
  -7.802203e+00   3.471101e+01
  -9.317717e+01  -6.971274e+00
  -1.944449e+01  -1.669728e-01
   2.398472e+01  -5.263111e+01
   3.122912e+01  -2.643370e+01
   6.995642e+01  -7.379312e+01
  -1.658441e+01   1.045373e+02
  -1.415471e+01  -2.466213e+01
  -4.129791e+01   3.995220e+00
   4.841182e+01   1.575715e+01
  -4.209165e-01   1.500886e+01
   2.614831e+01   4.228986e+01
  -9.812241e-01   7.835656e+01
  -4.654523e+01   2.233697e+01
  -4.266603e+01  -7.317837e+01
  -1.507947e+01  -1.164951e+02
   1.840556e+01  -3.489730e+01
   8.227189e+01  -6.545787e+00
   6.582797e+01   8.108689e+01
   1.862227e+01   5.120916e+01
  -2.625447e+01   1.646437e+01
   1.426856e+01  -1.459094e+01
  -1.023350e+01   4.386838e+01
  -2.697221e+00   2.409499e+01
  -1.774934e+01   3.031305e+01
  -4.451947e+01  -5.675134e+01
  -4.177619e+01  -7.573444e+01
   3.828390e+01  -9.598665e+00
   6.284462e+01   2.831806e+00
   8.056828e+01   8.427706e+00
   3.416296e+01   2.458252e+01
  -6.763417e+01  -6.633126e+01
  -5.551294e+01   4.698657e+01
   3.593188e+01   4.431579e+01
   4.892513e+01   5.619470e+00
   2.013644e+01   4.034083e+01
  -4.138977e+01   5.197388e+00
   4.856342e+01  -1.088307e+01
   6.869410e+01  -3.316692e+01
   4.788124e+01  -2.335914e+01
   4.325315e+01   1.162260e+01
  -6.185064e+01   5.649877e+01
  -5.057752e+01   5.637683e+01
  -1.121863e+02  -2.718364e+01
  -5.709696e+00  -1.188287e+02
   5.607169e+01  -9.660403e+01
   4.232908e+01  -4.457112e+01
  -2.069836e+01   3.291065e+01
   1.469839e+01   9.995497e+00
  -4.306151e+01   3.835885e+01
  -6.895824e+00   1.435775e+01
   1.716418e+01   4.274981e+01
  -3.970804e+01   2.487515e+01
   3.367632e+00   4.489905e+01
  -5.693207e+00  -4.668819e+01
  -5.974191e+01  -2.269186e+01
   2.851796e+01  -3.800596e+01
   2.088577e+01  -3.882906e+01
   5.608936e+01  -3.716302e+01
   3.517304e+01   6.836547e+01
  -7.333795e+01   5.674826e+01
  -8.610366e+01  -8.010034e-01
  -5.609974e+01   1.367329e+01
   5.552924e-01  -1.748763e+01
   9.483657e-03  -4.101161e+01
  -2.770583e+01   9.151472e+00
  -1.247956e+01   2.534564e+01
  -1.882692e+01  -5.864360e+00
   1.101171e+01  -3.142162e+01
   6.045634e+01  -5.211127e+01
   1.656895e+01  -4.561227e+01
   1.127498e+01  -1.965885e+01
  -7.318791e+01   5.595819e+01
   1.450915e+01  -1.678778e+01
  -7.130756e+01  -3.539212e+01
   3.628533e+01   4.865325e+01
  -2.034820e+00   2.120790e+01
  -3.255908e+01  -1.403915e+01
   1.081352e+01   2.141536e+01
  -1.155438e+01   1.159520e+01
  -2.593708e+01  -2.378488e+01
  -5.309377e+00   3.996875e+01
  -4.913953e+01   3.494941e+01
   2.003246e+01  -1.805261e+01
  -4.059942e+01  -1.732817e+01
   1.047704e+01   1.105177e+01
  -8.817179e+00  -4.995013e+00
   2.961030e+01   2.362091e+01
   3.169975e+01  -3.514664e+01
  -3.002870e+00  -9.242559e+00
  -5.775149e+01   1.953825e+01
  -3.921080e+01  -4.696569e+01
   5.780415e+00   8.789851e+00
  -1.570663e+01   5.221877e+01
   1.209228e+01   2.003415e+01
  -1.045164e+01  -7.548165e+00
   1.324848e+01  -9.035379e+00
  -1.082699e+01   4.583504e+00
   4.499643e+01   1.844080e+01
  -3.852079e+00  -1.549075e+01
   5.576098e+01  -1.779278e+01
  -5.785290e+01   4.467134e+01
