
 $NMID
 id='ANONYMOUS ', fmtdat='(2E16.6)'
 volume=1.0
 tramp=1.0
 $END
  -7.624555e+02   3.573467e+01
  -4.106674e+02  -4.904559e+02
   2.097662e+02  -5.115227e+02
   4.489387e+02  -1.000392e+02
   1.543173e+02   1.697359e+02
  -1.525398e+02   1.265493e+02
  -2.073158e+02  -9.726572e+01
   1.082926e+01  -2.092572e+02
   2.059220e+02  -1.703201e+02
   2.009316e+02   5.048268e+00
   1.083671e+02   2.177395e+02
  -8.283288e+01   1.496850e+02
  -1.261984e+02   4.381897e+01
  -5.308091e+01  -1.111714e+02
   2.962451e+01  -2.123330e+02
   1.258710e+02   3.974321e+01
   4.960857e+01   1.589222e+02
  -1.080882e+02   8.388857e+01
  -1.495576e+02  -2.299317e-01
  -2.177724e+01  -2.691303e+01
   2.379680e+01  -1.184573e+02
   7.542209e+01  -4.220913e+01
   7.719360e+01   2.222869e+01
  -4.154986e+01  -2.245714e+01
  -1.179598e+02  -6.368128e+01
  -8.567274e+01  -6.668538e+01
   9.847863e+01  -5.520208e+01
   2.034649e+02   7.374421e+01
   7.835343e+01   1.430545e+02
  -8.548212e+01   1.270170e+02
  -1.344184e+02  -1.532492e+01
  -5.386420e+01  -7.882645e+01
   1.055319e+02  -7.014753e+01
   3.176019e+01  -7.018738e+01
   1.402274e+01   8.215038e+01
  -1.728316e+01   8.479145e+01
  -5.018039e+01   2.191812e+01
  -5.829702e+01  -4.369040e+01
   2.182948e+01  -5.183089e+01
   7.257746e+01  -3.472116e+01
   4.606005e+01   6.727236e+01
  -1.114678e+02   1.136608e+02
  -1.319126e+02  -1.550034e+01
  -1.351058e+00  -1.385345e+02
   7.361270e+01  -1.051567e+02
   5.742426e+01   8.193066e+01
   1.615868e+01   6.473460e+01
  -4.463928e+01   1.001054e+02
  -9.644651e+01  -9.234992e+01
  -5.391093e+01  -9.197721e+01
   6.283769e+01  -1.066307e+02
   1.134566e+02   2.358356e+01
   9.996523e+01   1.495990e+02
  -6.948593e+01   6.023169e+01
  -3.686945e+01  -4.595927e+01
  -3.305008e+01  -7.756424e+01
   1.690648e+01   1.312206e+01
   5.029052e+01   2.810048e+01
  -3.340149e+01  -3.111493e+00
  -9.175044e+01  -1.812940e+01
  -5.184839e+01  -3.703517e+01
   4.825391e+01   5.978360e+00
   5.593988e+00  -8.348451e+00
   5.810410e+01   6.270398e+01
   8.826831e+00   4.366071e+01
  -1.385914e+01   7.344782e+01
  -1.395522e+02   4.774663e+01
  -1.707148e+01   2.491421e+01
   4.189341e+01  -1.083691e+02
   3.919753e+01  -4.720542e+01
   5.071565e+01  -1.108160e+02
   2.470495e+01   2.464751e+01
  -3.702882e+01   2.492663e+01
   5.066006e+01  -4.776545e+01
   1.242170e+01  -5.431448e-01
   5.580423e+01   7.993127e+01
   9.984806e+00   5.560148e+01
  -5.316871e+00   6.983231e+00
  -2.158778e+01   3.312275e+00
   3.743478e+01   3.849753e+00
   1.679366e+01  -1.578911e+01
  -1.073690e+01  -5.268955e+00
   4.200655e+01   2.861875e+01
  -4.264409e+01   3.876199e+01
   2.599581e+01   5.919520e+01
  -8.132592e+01  -1.654453e+01
  -1.248193e+01  -2.562961e+00
  -3.611619e+01  -3.658902e+01
  -5.604891e+01  -4.359639e+01
  -5.871438e+01  -3.832179e+01
   3.487721e+01  -4.492246e+01
   6.612044e+01  -5.813531e+01
   7.484082e+01  -1.886545e+01
   4.395110e+01   2.700388e+01
   2.562636e+01   3.838687e+01
  -4.467971e+01   4.539106e+01
  -7.843495e+01   3.211714e+01
  -1.055970e+01  -4.408109e+01
   2.612787e+01  -4.101804e+00
  -1.777259e+01   2.545711e+01
  -2.183353e+01   3.877715e+01
  -1.165780e+02  -3.949047e+01
   2.951115e+01  -8.438150e+00
   5.032894e+01  -1.214428e+01
   3.872275e+01   5.028739e+01
   6.656591e+00   5.663548e+01
   7.836112e+00   7.941047e+00
  -4.825906e+01  -7.936890e+00
  -7.275430e+01  -8.985060e+00
  -2.443128e+01  -5.344480e+01
  -3.540240e+01  -6.794935e+01
   2.744912e+01   2.826437e+01
  -4.989855e+00   1.611661e+01
  -3.677656e+00  -3.449511e+01
   1.806991e+01  -1.797332e+01
  -1.331707e+01  -1.957152e+01
   2.442531e+01  -1.155561e+01
   6.435066e+01   5.502697e+01
  -4.101078e+01   2.765664e+01
  -2.286375e+01  -3.511128e+01
  -1.697776e+01   7.011057e+00
   1.502570e+01   6.837104e+00
   9.440694e+00   4.774867e+01
   5.721508e+01   1.276555e+01
   1.388575e+00   5.284301e+01
  -7.568024e+01   3.391318e+01
   6.869425e+01  -3.919162e+01
  -8.105754e+00   3.513637e+01
   3.383454e+01  -2.025630e+01
  -1.658407e+01  -1.867319e+01
  -6.701587e+01   4.750103e+01
  -2.416427e+01   3.087742e+01
  -1.962510e+01  -6.919940e+01
  -8.327419e-01  -6.483117e+00
   4.531898e+01  -5.122822e+01
   1.932773e+01   2.082795e+01
   1.229784e+01   5.413484e+00
  -1.964680e+01  -2.911786e+01
  -3.984581e+01   3.030764e+01
   2.955859e+01   1.384447e+01
   3.366673e+01   4.714924e+01
  -5.542015e+01   8.208351e+00
  -6.016427e+01   7.995319e+01
  -5.055324e+01   1.173244e+01
  -6.615092e+00   1.746825e+01
   2.688381e+01   3.197455e+00
   2.890190e+00  -1.984224e+01
   1.509037e+01   3.511718e+01
   3.222661e+01   7.808070e-01
   1.196663e+01  -8.280944e+00
  -6.192174e+01  -3.477033e+00
  -5.868015e+00  -4.030154e+00
  -3.292001e+01   4.906167e+00
  -3.004159e+01   5.472403e+01
  -5.006365e+01   1.013638e+01
  -4.537869e+01  -7.221553e+01
  -5.004455e+01   1.932389e+01
  -2.614375e+01  -3.299597e+01
   5.304337e+01  -6.045984e+01
   1.480102e+00  -1.696595e+00
   8.785099e+00   2.769402e+01
   1.627820e+01   2.726165e+01
   1.371658e+01   2.305629e+01
  -1.956086e+01   4.809292e+00
   1.717148e+01   6.672912e+01
  -1.086142e+01   4.422987e+01
   1.745391e+01  -3.215224e+01
   3.593583e+01  -1.866734e+01
   3.482813e+01   8.086164e+00
   3.688918e+01  -2.725394e+01
   2.302786e+01   1.591645e+01
  -1.951344e+01   6.584565e+01
  -4.918247e+01   4.198208e+01
  -1.750117e+01   1.647712e+01
  -1.745873e+01   2.908423e+01
   2.711164e+01  -2.376145e+01
  -3.947599e+01   6.310017e+00
   3.097967e+01  -4.100320e+01
  -3.378937e+00   1.987847e+01
  -4.856021e+00  -3.948046e+01
   6.509773e+01   1.229145e+01
   4.991441e+01   1.655519e+01
   5.772052e+01   2.821739e+01
  -4.275814e+01  -1.005446e+00
  -2.224483e+01  -2.612763e+01
   1.569775e+00  -1.224538e+01
  -2.194141e+00  -1.658399e+01
   3.297808e+01  -4.586354e+01
  -2.201271e+01  -3.668298e+01
  -6.429616e+01  -3.977822e+00
  -6.384074e+00   6.265039e+01
  -3.753355e+00   1.966654e+01
  -5.959361e+00   8.700371e+00
   4.594238e+01   3.580763e+00
  -2.562758e+01  -2.635350e+00
  -1.391634e+01   2.902258e+01
   3.419669e+01  -1.174623e+01
  -3.663889e+01  -3.248728e+01
   8.583746e+00  -1.201372e+01
   4.440061e+01  -4.055475e+01
  -5.240984e+00  -1.959956e+01
   1.822355e+01  -2.344435e+01
  -1.027698e+01  -4.622784e+01
  -7.247085e+00  -2.634593e+01
  -1.039347e+00  -1.270876e+01
  -5.878938e+01  -1.277465e+01
   2.917724e+01   1.647382e+00
  -8.362118e+00  -3.116657e+01
  -3.894803e+01  -6.012289e+01
   2.213721e+01   5.616908e+00
  -5.067471e+01  -3.362771e+00
  -4.325631e+01  -7.445860e+00
  -6.291648e+01   1.679321e+00
  -2.497837e+01   1.451455e+01
  -5.836525e+01  -2.236989e+01
   2.210500e+01  -6.277445e+01
   3.728917e+01  -7.784080e+01
  -1.608031e+01   3.670417e+01
  -3.864143e+01   1.234301e+01
  -1.440260e+01   1.445925e+01
   7.454698e+01  -5.992041e+01
  -7.040982e+00  -2.648793e+01
   1.822109e+01  -3.230037e+00
   3.796065e+01   1.742022e+00
   3.207983e+01   5.043709e+01
  -3.378340e+01  -8.171306e+00
  -1.884486e+01   6.708154e+00
  -1.403680e+01  -3.374880e+01
   4.962002e+00  -3.683290e+01
  -5.121329e-01   3.115416e+01
   1.535982e+01   1.277081e+01
   9.604005e+00   4.769531e+01
  -3.975449e+01  -5.016824e+01
   1.838207e+01  -6.573807e+01
  -3.126709e+01   3.562668e+00
   5.307682e+01   3.730586e+01
   1.824472e+01   1.010375e+01
  -3.173423e+01   2.601728e+01
   1.570047e+01   5.454129e+01
  -2.479071e+01  -9.804038e+00
  -1.864157e+01   2.317820e+01
   4.606355e+01   1.750760e+01
  -4.564367e+01  -5.423427e+01
  -3.010428e+01  -3.411888e+01
  -2.141581e+01  -1.208686e+01
   3.159564e+01  -3.663639e+00
  -2.527081e+01   3.649001e+01
   3.253059e+01  -2.445211e+01
  -7.248365e+00  -3.903100e+01
  -1.688762e+01   1.864482e+01
  -2.697435e+01   5.541858e+01
   3.047312e+01   5.736653e+00
   5.481288e+01  -4.437617e+00
   6.721970e+00  -3.306609e+01
   3.425503e+01  -2.606702e+01
   3.506591e+01  -1.623926e+01
  -4.600433e+00  -5.462497e+01
  -1.118963e+01  -3.429737e+01
  -4.109250e+01  -3.708770e+01
  -7.616170e+01   2.838567e+01
  -1.035637e+02   6.872483e+00
  -2.931850e+01  -7.652291e-01
   5.347339e+01  -6.961878e+01
  -9.201268e+00  -2.316442e+01
   2.395484e+01  -2.685130e+01
  -9.055037e-01   4.511147e+00
   7.367780e+01  -1.279088e+00
  -3.572520e+01   2.695699e+01
  -2.848463e+01   1.677170e+01
  -1.065223e+01  -1.633443e+01
  -4.692182e+01   3.827297e+00
  -3.231523e+01  -5.993903e+01
  -9.040690e+00  -2.670746e+00
   6.892002e+01  -1.704684e+01
  -1.327809e+01  -2.893795e+01
   1.606493e+00   2.594645e+01
  -4.148339e+01  -1.051499e+01
   3.104200e+01   4.493523e+01
  -7.008149e+01   6.303780e+01
   1.956957e+01  -2.439770e+01
  -5.028379e+01  -1.021629e+01
   4.111177e+01  -1.167069e+02
  -2.483315e+01   2.294209e+00
  -4.762215e+01  -8.647328e+00
   6.683026e+01  -1.977454e+01
  -1.451283e+01  -3.172520e+01
   2.341150e+01  -2.159923e+01
   3.218277e+01   1.119417e+01
  -5.991689e+00  -1.382118e+01
   3.418896e+01   1.475008e+01
   4.510940e+01   2.746954e+01
  -1.824383e+01   3.658725e+01
   2.775242e+01  -3.988890e+01
   7.481574e+00  -1.683178e+01
  -3.118724e+01  -9.988439e+00
   7.624687e-01   1.298334e+01
   3.079063e+01   4.945632e+01
   7.556144e+00   7.282853e+01
  -1.350829e+01   2.896964e+01
  -2.536878e+01   3.898256e+01
  -6.386344e+01  -2.265148e+01
   2.588824e+01   4.357746e+01
   2.128341e+01  -4.120849e+01
  -2.168635e+01  -2.881303e+01
   6.569979e+00  -2.019641e+01
  -1.315427e+01   2.791420e+00
   4.462798e+01   1.195191e+01
   2.649528e+01  -4.493165e+01
   5.045233e+01   3.671614e+01
  -2.972410e+01   5.757032e+00
  -1.227109e+01  -4.309973e+00
   5.116956e+00  -5.296930e+01
  -1.411780e+01   6.794977e+01
  -4.001218e+01  -3.363706e+01
  -4.564559e+01  -1.461074e-01
  -1.025391e+01   7.334679e+01
  -9.648236e+00  -3.845156e+01
  -4.523576e-01  -3.395762e+01
  -2.478796e+01  -3.240376e+01
  -9.340358e+01   2.095826e+01
