
 $NMID
 id='ANONYMOUS ', fmtdat='(2E16.6)'
 volume=1.0
 tramp=1.0
 $END
   4.594463e+03   7.973627e-02
   2.579671e+03   2.783433e+03
  -8.290470e+02   2.966521e+03
  -2.293131e+03   8.745016e+02
  -1.030579e+03  -7.817230e+02
   7.893814e+02  -7.218731e+02
   1.024519e+03   4.639808e+02
   4.445940e+00   1.176534e+03
  -9.204196e+02   8.809275e+02
  -1.007472e+03  -1.656173e+02
  -5.122369e+02  -1.001916e+03
   2.989606e+02  -9.583259e+02
   7.046666e+02  -9.357973e+01
   3.988636e+02   8.115151e+02
  -3.102539e+02   8.120535e+02
  -6.366945e+02  -8.740151e+01
  -3.408455e+02  -7.440390e+02
   4.615203e+02  -7.046841e+02
   6.360913e+02  -9.718786e+01
   4.171698e+02   3.136012e+02
  -1.751039e+01   5.039703e+02
  -2.741300e+02   2.672686e+02
  -2.051403e+02   7.580640e+01
   8.452372e+01  -8.138954e+01
   3.883098e+02   1.226992e+02
   2.477420e+02   4.748531e+02
  -4.541592e+02   4.198935e+02
  -8.360377e+02  -2.881341e+01
  -4.440010e+02  -5.901435e+02
   4.038881e+02  -5.139457e+02
   8.420943e+02   1.870351e+01
   4.232417e+02   4.928407e+02
  -2.998362e+02   5.245614e+02
  -5.958880e+02   2.249173e+02
  -4.739054e+02  -2.798247e+02
  -3.571202e+01  -4.897703e+02
   1.917484e+02  -3.387859e+02
   1.934613e+02   2.230910e+02
  -1.844181e+02   4.775926e+02
  -5.064299e+02   2.289691e+00
  -2.377891e+02  -7.530482e+02
   2.906532e+02  -8.023272e+02
   6.343507e+02  -1.756379e+01
   2.729120e+02   6.134265e+02
  -2.902711e+02   3.941342e+02
  -4.471316e+02  -3.217080e+02
   2.138792e+01  -5.799335e+02
   5.944803e+02  -2.145409e+02
   6.284427e+02   3.440785e+02
   1.660194e+02   5.940691e+02
  -3.910086e+02   3.577045e+02
  -6.397560e+02  -7.026084e+01
  -3.645631e+02  -4.047062e+02
   1.453642e+02  -4.377443e+02
   4.860235e+02  -5.243445e+01
   2.458941e+02   2.669771e+02
  -1.494949e+02   9.118921e+01
  -1.880444e+02  -1.360234e+02
   1.835395e+02  -2.511791e+02
   3.652788e+02   7.614514e+01
   1.188169e+02   2.953790e+02
  -2.426181e+02   2.401846e+02
  -2.595702e+02   5.530906e+01
  -2.312892e+02  -1.098557e+02
   1.668187e+01  -2.094695e+02
   2.093002e+02  -2.720524e+02
   3.655246e+02  -2.057580e+02
   2.869960e+02   9.832818e+01
   9.529230e+01   4.999714e+02
  -1.520385e+02   4.016514e+02
  -1.907022e+02   1.012959e+02
  -3.257571e+01   2.103463e+00
  -5.660289e+01   9.800957e+01
  -2.094350e+02   1.196737e+02
  -3.244069e+02  -2.269992e+01
  -1.489065e+02  -2.600444e+02
   6.388126e+01  -2.735089e+02
   2.097975e+02   5.991864e+00
   2.250790e+02   2.117046e+02
  -4.887159e+01   2.902458e+02
  -2.893010e+02   1.314707e+02
  -3.898572e+02  -1.526255e+02
  -1.874204e+02  -3.799358e+02
   7.919350e+01  -3.258283e+02
   2.379081e+02  -1.299485e+02
   1.853282e+02   1.726567e+01
   8.469744e+01  -5.775013e+01
   2.369584e+02  -7.172600e+01
   4.283415e+02   5.115653e+01
   3.489763e+02   2.573290e+02
   3.080066e+01   4.622053e+02
  -3.948409e+02   4.095398e+02
  -5.198565e+02   2.256168e+02
  -3.721847e+02  -4.196176e+01
  -1.006478e+01  -2.894135e+02
   1.224253e+02  -2.123024e+02
   7.306605e+01   3.608448e+00
  -1.081965e+02   1.458349e+02
  -2.040367e+02  -1.261810e+01
  -6.869526e+01  -1.626093e+02
   1.481405e+02  -2.351474e+02
   2.182820e+02   4.809320e+01
   1.715818e+01   2.113747e+02
  -2.422520e+02   5.168267e+01
  -1.569142e+02  -2.901678e+02
   7.986641e+01  -3.617409e+02
   2.479019e+02  -2.218436e+02
   3.305844e+02   9.106669e+01
   2.331579e+02   2.403163e+02
   1.060157e+02   2.628755e+02
  -9.045809e+01   1.807833e+02
  -1.268561e+02  -8.804205e+00
  -4.183560e+01  -2.443438e+01
   2.592135e+01   2.716452e+01
   1.659766e+01   1.221336e+02
  -1.574269e+02   1.638233e+02
  -1.945743e+02   4.358251e+01
  -5.946944e+01  -3.511480e+01
   1.018892e+02  -9.976128e+01
   4.101312e+01   1.184042e+02
  -6.985053e+01   6.702887e+01
  -2.674132e+02  -1.672070e+01
  -2.275013e+02  -1.394737e+02
  -1.172890e+02  -3.223856e+02
   1.779269e+02  -2.643452e+02
   2.590551e+02  -1.458224e+02
   1.793095e+02   6.594537e+01
   7.266396e+01   1.071974e+02
  -1.009600e+02  -1.656528e+01
   2.735290e+01  -1.359396e+02
   1.414251e+02  -6.685561e+01
   2.044891e+02   8.472106e+01
   7.693289e+01   2.011334e+02
  -8.530315e+01   1.509545e+02
  -1.339371e+02   1.436816e+01
  -1.092374e+02  -1.422646e+01
   2.509299e+01   4.787573e+01
  -1.694385e+01   7.889225e+01
  -1.302253e+02   3.246359e+01
  -2.484368e+02  -4.669752e+00
  -2.153117e+02  -8.167502e+01
  -4.842604e+01  -2.301465e+02
   1.596872e+02  -1.767515e+02
   1.890033e+02  -6.918344e+01
   2.679597e+01   1.661538e+02
  -6.193364e+01   8.963902e+01
  -8.845920e+01  -6.480248e+00
  -7.756132e+01  -2.561371e+00
   1.524305e+01  -9.133648e+00
  -6.093649e+01  -2.930310e+01
  -4.971639e+01  -3.336305e+00
  -8.382233e+01  -8.511613e+01
   1.352541e+01  -1.302407e+02
   1.412696e+02  -1.567199e+02
   2.767497e+02  -8.336128e+01
   2.293179e+02   1.383562e+02
   8.489939e+01   2.709796e+02
  -9.610451e+01   1.691324e+02
  -1.173847e+02   1.941284e+01
  -8.236662e+01  -6.350971e+01
  -7.704856e+01  -6.668184e+01
  -4.958944e+01  -2.507930e+00
  -6.525890e+01   3.223848e+01
  -2.563308e+01  -4.982067e+01
   4.493775e+01  -5.060730e+01
   7.314544e+01  -3.128979e+01
   9.338856e+01   1.381220e+00
   5.353089e+00   7.899671e+01
  -1.274624e+02   6.835428e+01
  -1.606683e+02  -6.476950e+01
  -9.337280e+01  -1.835354e+02
   1.732397e+02  -2.040810e+02
   2.644808e+02  -1.534695e+02
   3.046607e+02   9.152615e+01
   1.055907e+02   1.875923e+02
  -2.316535e+01   1.724874e+02
  -9.237135e+01   1.279632e+02
  -2.191644e+01   5.528239e+01
  -1.044124e+02   9.974195e+01
  -1.188614e+02   6.074873e+01
  -1.104657e+02   2.198433e+01
  -1.390014e+02  -1.642930e+02
  -6.008934e+01  -1.838452e+02
   1.006068e+02  -2.122330e+02
   1.916518e+02  -4.898109e+01
   1.340998e+02   1.005582e+02
   9.383104e+00   1.688587e+02
  -6.861033e+01   8.753729e+01
  -6.114534e+01   7.028981e+00
  -4.571368e+01  -1.269507e+01
   1.200696e+01  -7.228118e+01
   1.151154e+01  -1.485183e+01
  -1.045062e+02  -6.696107e+01
  -6.385977e+01  -5.321797e+01
   1.025471e+02  -5.169976e+01
   1.281493e+02  -2.023130e+01
   1.783297e+02   7.490814e+01
   3.027408e+01   6.469148e+01
  -9.137765e+01   3.377189e+01
  -1.532750e+02   1.970137e+01
  -9.839909e+01  -3.835657e+01
   8.048551e+01  -5.176378e+01
   8.110858e+01   2.442310e+01
   3.099841e+01   7.951945e+01
  -2.373613e+01   5.276965e+01
  -9.564886e+01   1.016410e+01
  -6.097417e+00  -7.184334e+01
  -1.146143e+01  -5.692604e+01
  -6.705075e+01   2.328630e+01
  -5.196468e+01   2.347286e+01
   2.747885e+01  -8.563351e+01
   4.339783e+01  -7.466511e+01
   1.722621e+02  -1.092337e+02
   1.263604e+02  -1.644853e+01
   1.117392e+02   1.244739e+02
  -3.007815e+01   1.450825e+02
  -3.187615e+01   5.503366e+01
  -6.150558e+01  -8.596685e+00
   4.939188e+01  -7.257251e+01
   1.046606e+02  -1.929254e+01
   8.626205e+01   1.681981e+02
  -6.216201e+01   1.159532e+02
  -1.274604e+02   8.777310e+01
  -2.048636e+02  -6.594123e+01
  -2.753813e+01  -8.930290e+01
   2.303546e+01  -1.362261e+02
   4.961391e+01  -6.792524e+00
  -6.831271e+00   9.112795e+01
  -1.471861e+02  -4.766047e+01
  -2.643307e+01  -1.692609e+02
   6.356535e+01  -1.350992e+02
   1.779033e+02  -1.192501e+02
   8.504292e+01   9.034278e+01
   7.176094e+00   1.702096e+02
  -9.066617e+01   1.930009e+02
  -1.215128e+02  -2.613871e+01
  -3.625930e+01  -1.579783e+02
  -2.860817e+01  -9.178504e+01
   9.143117e+01  -3.186637e+01
   3.795511e+01   2.939031e+01
   4.381900e+01   1.322893e+01
   1.425865e+01   2.158807e+01
   7.320245e+01  -3.058027e+01
   9.509859e+01   1.092705e+02
   5.308966e+01   1.278412e+02
  -5.555180e+01   7.092912e+01
  -1.216346e+02  -8.213572e+01
  -9.218322e+01  -1.291831e+02
  -7.332190e+01  -1.791076e+01
   1.282792e+02  -4.220195e+01
   1.108426e+02  -3.228527e+01
   4.166788e+01  -1.069768e+01
  -5.571940e+01   6.894598e+00
  -1.109727e+01   4.688038e+01
   1.958170e+01  -1.234206e+01
  -9.550681e+00  -4.209409e+01
  -1.104661e+02   5.771654e-01
  -8.106941e+01  -2.755495e+01
  -2.809607e-03  -4.972024e+01
   1.109008e+02  -9.492073e+01
   1.485406e+02  -3.287634e+01
   1.296485e+02   6.696715e+01
   5.244096e+01   1.937268e+02
  -6.828068e+00   1.438474e+02
  -1.539792e+02   5.294156e+01
  -6.163271e+01  -9.031104e+01
  -4.558084e+01  -9.788222e+01
   1.597804e+01   4.854531e+01
  -6.899005e+01  -1.461785e+01
  -1.433578e+01  -1.775474e+01
   9.440022e+00  -6.082454e+01
  -3.612068e+01  -8.647677e+01
   9.035381e+01   4.930128e+01
   8.138803e+01   1.445673e+02
   3.325373e+01   1.186531e+02
  -1.793570e+01  -2.991199e+00
  -1.055323e+02  -9.850698e+01
  -5.911174e+00  -9.093879e+01
   5.510152e+01  -8.420730e+01
   7.680687e+01  -6.410363e+01
   4.731334e+01   4.962529e+01
  -7.028829e+01   6.202088e+01
   5.014380e+00   2.638891e+01
   6.511400e+01   2.607514e+01
   6.368035e+01  -3.855862e+01
   2.961157e+01   2.988084e+01
  -2.410826e+01   3.558255e+01
  -6.397653e+01   4.320940e+01
  -7.773854e+01  -2.368427e+01
  -3.516071e+01  -1.157722e+02
   6.598798e+01  -2.873152e+01
   3.041183e+01   8.292402e+00
  -5.242155e+01   2.757416e+01
  -9.075940e+01   5.948186e+01
  -4.335713e+01  -8.461726e+01
   2.081257e+01  -6.404626e+01
  -1.466203e+01  -4.144674e+01
  -3.074163e+01   1.034159e+01
  -7.369090e-01   2.058397e+01
   1.103146e+02   6.631024e+00
   1.644447e+01   1.455995e+01
  -6.547276e+01  -3.102901e+01
   1.679854e+01   1.984883e+01
   3.932462e+00   7.564393e+01
  -5.021527e+01   2.360961e+01
  -3.140697e+01  -5.894045e+01
   4.544640e+01  -4.423753e+01
   3.963688e+01  -1.797355e+01
   7.519568e+01   2.928380e+01
   3.393980e+01   5.736480e+01
   6.303263e+01   2.883336e+01
  -1.008152e+02   3.488888e+01
   1.322438e+01   3.165403e-01
   5.659694e+01  -6.504192e+01
   5.009838e+01  -4.364824e+00
   5.522284e+01  -4.162188e+01
  -4.399708e+00   2.171842e+01
   3.426549e+01  -4.169512e+01
   3.344444e+01  -5.361575e+01
   3.749598e+01  -3.418930e+01
