
 $NMID
 id='ANONYMOUS ', fmtdat='(2E16.6)'
 volume=1.0
 tramp=1.0
 $END
  -4.689976e+03  -3.664453e+01
  -2.680365e+03  -2.930402e+03
   9.134941e+02  -2.958430e+03
   2.411282e+03  -8.611359e+02
   1.034826e+03   8.689622e+02
  -7.924599e+02   6.436373e+02
  -9.753006e+02  -5.198728e+02
   3.165495e-01  -1.133965e+03
   9.100334e+02  -8.474316e+02
   1.081639e+03   1.057185e+02
   4.522419e+02   1.011253e+03
  -2.902577e+02   9.475212e+02
  -6.929553e+02   9.053635e+01
  -3.829873e+02  -8.460201e+02
   3.143400e+02  -7.732559e+02
   6.548930e+02   7.886096e+01
   2.708536e+02   8.162776e+02
  -3.106603e+02   7.066004e+02
  -6.528966e+02   6.928948e+01
  -3.619838e+02  -4.597361e+02
   6.632963e+01  -4.309460e+02
   2.704830e+02  -2.650076e+02
   2.450600e+02   1.698640e+01
  -1.201290e+02   1.298867e+02
  -4.670467e+02  -1.450693e+02
  -2.013041e+02  -4.978103e+02
   4.927451e+02  -5.117997e+02
   8.900431e+02   4.667830e+01
   4.464139e+02   6.196288e+02
  -3.766785e+02   5.643663e+02
  -7.653792e+02  -8.594190e+01
  -3.821285e+02  -4.456762e+02
   2.674971e+02  -5.895287e+02
   6.226116e+02  -1.369031e+02
   4.319616e+02   2.493930e+02
   5.877382e+01   5.146461e+02
  -2.655852e+02   3.067738e+02
  -2.124046e+02  -2.089065e+02
   1.843302e+02  -4.650829e+02
   4.852574e+02  -1.998213e+01
   3.109574e+02   7.393671e+02
  -3.410898e+02   7.791913e+02
  -6.783118e+02   2.357245e+01
  -2.481750e+02  -6.531738e+02
   3.119610e+02  -3.905239e+02
   4.319325e+02   3.418217e+02
  -1.018680e+02   6.267600e+02
  -6.331115e+02   1.754892e+02
  -6.299613e+02  -4.832598e+02
  -1.163647e+02  -6.000098e+02
   4.173298e+02  -3.615531e+02
   6.350569e+02   1.198067e+02
   3.315908e+02   4.704336e+02
  -2.197234e+02   4.333654e+02
  -4.408962e+02   5.114660e+01
  -2.312491e+02  -2.158373e+02
   1.460014e+02  -9.718313e+01
   1.710053e+02   2.172723e+02
  -1.529631e+02   2.334068e+02
  -3.973522e+02  -6.960319e+01
  -1.800547e+02  -3.714857e+02
   2.389351e+02  -2.921241e+02
   3.477244e+02  -2.305150e+01
   2.430579e+02   9.438557e+01
  -5.375074e+01   2.047018e+02
  -2.156243e+02   3.028220e+02
  -3.232082e+02   2.288560e+02
  -3.129894e+02  -1.407970e+02
  -8.345554e+01  -4.333203e+02
   1.055775e+02  -3.745978e+02
   7.499503e+01  -7.140346e+01
  -7.750336e-01   4.706132e+01
   2.409753e+00  -1.281167e+02
   2.396936e+02  -1.911871e+02
   3.250589e+02   6.809136e+01
   1.390788e+02   2.507402e+02
  -6.475698e+01   2.259804e+02
  -2.317390e+02   2.406241e+01
  -2.033799e+02  -2.960641e+02
   1.529201e+01  -3.508699e+02
   2.447335e+02  -1.750912e+02
   3.592393e+02   1.636016e+02
   2.012172e+02   3.838154e+02
  -9.571182e+01   2.598847e+02
  -2.501002e+02   1.255920e+02
  -1.874768e+02  -3.200476e+01
  -1.204699e+02  -1.453925e+01
  -1.848093e+02   1.039394e+02
  -3.736764e+02  -4.070382e+01
  -2.880213e+02  -2.615792e+02
   5.825083e+01  -4.595766e+02
   3.590774e+02  -3.908026e+02
   5.158925e+02  -2.133165e+02
   3.829764e+02   1.108589e+02
   1.186553e+02   3.340655e+02
  -1.520983e+02   2.728079e+02
  -8.819011e+01   1.509726e+01
   1.279695e+02  -1.392444e+02
   2.518757e+02  -3.376843e+01
   5.067146e+01   2.430318e+02
  -2.198713e+02   2.638625e+02
  -1.611092e+02   8.558155e+00
   9.170828e+01  -1.719194e+02
   2.092693e+02  -6.358420e+01
   1.643828e+02   2.457944e+02
  -3.518093e+01   3.116227e+02
  -2.531488e+02   2.034961e+02
  -3.327664e+02  -7.459201e+01
  -2.664837e+02  -3.143976e+02
  -1.099710e+02  -3.484096e+02
   8.767675e+01  -1.604770e+02
   2.034979e+02   2.128563e+00
   9.131893e+01   3.461762e+01
  -6.837397e+01  -1.086041e+02
   3.527399e+01  -1.479315e+02
   1.287944e+02  -1.625397e+02
   1.687179e+02   3.879626e+01
   1.148096e+02   2.746435e+01
  -7.270291e+01   5.518872e+01
  -8.479909e+01  -5.580190e+01
   8.389723e+01  -4.177228e+01
   2.364017e+02  -1.314525e+01
   3.163320e+02   1.276477e+02
   1.196526e+02   2.281527e+02
  -1.764807e+02   3.168973e+02
  -3.076194e+02   7.659787e+01
  -1.333883e+02  -5.031412e+01
  -9.716612e+00  -1.526354e+02
   9.815119e+01  -1.398009e+01
   1.666982e+01   1.578421e+02
  -1.904335e+02   1.871840e+01
  -2.057525e+02  -1.360004e+02
  -8.297980e+01  -2.869959e+02
   1.439819e+02  -1.450215e+02
   1.840409e+02  -6.679006e+01
   7.059092e+01   1.170276e+01
  -1.718364e+01  -2.929087e+00
  -1.342194e+01  -8.359936e+01
   8.134383e+01  -1.440184e+02
   1.759976e+02  -5.234364e+00
   1.911722e+02   1.420349e+02
  -1.335281e+01   2.119917e+02
  -1.500533e+02   1.997678e+02
  -1.928199e+02   3.192475e+01
  -4.922093e+01  -1.707615e+02
   6.379038e+01  -1.600399e+02
   6.752193e+01  -6.918525e+01
  -2.075552e+01  -1.052561e+01
  -2.625831e+01   4.462588e+01
   1.726384e+01   4.819205e+01
   6.857375e+01   2.955383e+01
   1.023978e+02   7.556256e+01
   2.247856e+01   1.332955e+02
  -1.113169e+02   2.038049e+02
  -2.230103e+02   2.522870e+01
  -2.121489e+02  -1.286747e+02
  -1.237995e+01  -2.259008e+02
   6.029123e+01  -2.280453e+02
   1.663784e+02  -5.949910e+01
   1.179485e+02   1.310426e+02
   1.254764e+01  -7.679972e-01
   1.036896e+02   2.234603e+00
   8.106495e+01   6.688135e+01
  -2.109445e+00   7.861580e+00
  -2.517185e+01   4.577344e+01
  -1.456713e+02   1.476818e+01
  -1.226850e+02  -4.035333e+01
  -4.675697e+00  -8.910905e+01
   1.347559e+02  -6.121062e+01
   1.726919e+02   3.172219e+01
   1.109620e+02   2.251381e+02
  -7.099514e+01   2.030064e+02
  -3.255528e+02   9.943834e+01
  -2.952651e+02  -7.822716e+01
  -1.095210e+02  -2.106753e+02
   7.006002e+01  -1.332806e+02
   1.149643e+02  -1.029389e+02
   9.804040e+01  -1.025405e+02
   9.227595e+01  -8.382672e+01
   6.092383e+01  -6.244944e+01
   8.767494e+01  -4.433612e+00
   1.123383e+02   1.084478e+02
  -1.844569e+01   2.170336e+02
  -7.563819e+01   1.935585e+02
  -1.323671e+02   3.268353e+01
  -1.767029e+02  -1.082413e+02
   3.128337e+00  -1.776999e+02
   6.092497e+01  -6.983540e+01
   4.586883e+01   1.941387e+01
  -1.895764e+01   7.106122e+01
  -1.434415e+01   4.464661e+01
   8.391736e+01  -8.956472e+00
   1.004450e+02   2.750738e+01
   6.455582e+01   3.314152e+01
  -5.957991e+01   2.078106e+01
  -9.471073e+01   3.313908e+01
  -1.865765e+02  -3.269005e+01
  -5.368258e+01  -1.027160e+02
   1.873481e+02  -6.026709e+01
   1.860342e+02   7.096425e+00
   1.923859e+01   5.867836e+01
  -2.335185e+01   1.358285e+01
  -7.181902e+01   4.520769e+00
  -4.802849e+01  -7.280496e+01
   7.440278e+01  -3.429362e+01
   1.067980e+02   7.501682e+01
   1.679958e+01   5.970366e+01
  -2.875899e+00   3.816587e+01
   1.209312e+02  -6.920787e+01
   1.195663e+02   2.403307e-01
   7.385510e+01   4.266751e+01
  -1.028186e+01   1.340715e+02
  -1.547338e+02   1.510658e+02
  -8.011055e+01   6.117428e+01
  -1.403027e+02  -5.778529e+01
  -3.776104e+01  -1.628934e+02
   5.547895e+01  -4.457939e+01
   5.690002e+01   4.232108e+01
  -7.225321e+01   8.830187e+01
  -1.023775e+02  -7.755241e+01
  -8.181208e+01  -9.776881e+01
   1.119342e+02  -1.031905e+02
   1.896166e+02  -7.240737e+01
   2.010406e+02   3.458792e+01
   1.008632e+02   3.369531e+01
  -3.487917e+01   9.195811e+01
  -4.172544e+01  -5.022230e+01
   3.302921e+01  -4.660937e+01
   7.753791e+01   1.752073e+01
   7.469895e+01   1.119752e+02
  -8.192038e+01   1.553592e+02
  -1.807181e+02   4.839796e+01
  -1.224934e+02  -6.452755e+01
  -3.303700e+01  -2.089039e+02
   1.087421e+02  -1.546785e+02
   9.833261e+01   1.252928e+01
   9.983472e+01   1.013819e+02
   3.938813e+01   1.268981e+02
  -5.823029e+01  -3.175912e+01
  -5.335537e+01  -2.001460e+01
   4.180933e+01  -4.106403e+01
  -2.479208e+00  -3.946944e+01
  -8.851495e+00  -1.828131e+01
  -2.206473e+01  -5.712853e+01
  -4.788030e+01  -1.338971e+02
   4.138045e+01  -2.162175e+00
   1.366475e+02   8.676837e+01
   1.575212e+02   1.296512e+02
   2.824165e+01   4.791574e+01
  -9.644386e+01   1.101521e+01
  -9.998080e+01  -1.544268e+01
  -7.503600e+01  -3.805717e+01
   1.011212e+02  -2.545228e+01
   3.251027e+01  -2.146302e+01
  -3.068816e+01  -5.823719e+01
  -1.550686e+01   4.357080e+01
   5.566298e+01   4.110069e+01
   8.590027e+01   3.237481e+01
  -6.525005e+01   9.580758e+01
  -1.118183e+02   9.660927e+01
  -2.094156e+02   5.219272e+01
  -1.665327e+02  -1.058796e+02
  -3.217811e+01  -1.939892e+02
   8.265084e+01  -1.425616e+02
   8.183860e+01  -5.717331e+01
   5.340746e+01   1.171131e+01
   4.357381e+01   4.513468e+01
   4.635593e+00   4.802272e-01
  -5.963324e+01   3.689043e+01
   3.131331e+01   6.072798e+01
   6.746015e+01   9.922033e+01
   3.063719e+00   1.108186e+02
  -5.943245e+01  -2.259467e+01
  -8.285436e+01  -1.442751e+02
   7.429475e+00  -1.235613e+02
   8.937836e+01  -2.507664e+01
   8.912382e+01   8.881245e+01
  -1.855605e+01   7.636830e+01
  -9.331955e+01   6.164061e+01
  -9.611380e+01   6.203241e+00
  -3.188596e+01  -5.285770e+01
   5.825945e+01  -1.067423e+01
   6.279765e+01  -1.809685e+01
  -6.239808e+01   4.973659e+01
  -2.530368e+01  -5.023734e+01
   1.079115e-01  -2.510181e+01
   1.046968e+02  -6.449488e+01
   1.626314e+02  -7.624311e+01
   1.072569e+02  -6.155442e+01
   1.109297e+01   5.756016e+01
  -2.925416e+01   9.846921e+01
  -6.523548e+01   3.272013e+01
   3.475100e+01  -6.830980e+01
   5.342962e+01  -1.039512e+02
   4.027281e+01   4.430734e+01
   2.064821e+01  -2.365266e+01
  -4.028548e+01   3.644013e+01
  -2.055210e+01   4.921311e+01
  -6.946184e+00   1.278231e-01
  -2.889104e+01   1.621478e+00
   5.184586e+01   5.043862e-01
   1.517559e+01  -3.291097e+01
   4.254709e+01  -2.530229e+00
   2.560702e+01  -7.125666e+01
   4.037774e+01   3.338754e+01
   3.910779e+01   6.867073e+01
  -5.695682e+01   7.844660e+01
  -4.848142e+00  -1.920189e+01
  -6.462102e+01   1.175270e+01
   1.160991e+01  -1.245310e+02
   5.322240e+01  -1.013512e+02
   8.085434e+01   7.233439e+01
   3.109933e+00   6.871038e+01
  -2.681999e+01   2.702085e+01
  -8.909269e+01   6.576145e-01
  -4.659381e+01   3.695473e+01
  -1.764198e+01  -6.568207e+00
   5.090608e+01  -1.015238e+01
  -4.866095e+01   5.349908e+01
  -1.095601e+02   2.972691e+01
