
 $NMID
 id='ANONYMOUS ', fmtdat='(2E16.6)'
 volume=1.0
 tramp=1.0
 $END
  -2.205351e+03  -8.891216e+01
  -1.491882e+03  -9.686828e+02
  -2.653101e+02  -1.340908e+03
   6.066545e+02  -1.047839e+03
   7.382393e+02  -4.787624e+02
   3.218997e+02  -1.033383e+02
  -6.806963e+01  -3.107495e+01
  -2.092639e+01  -2.202599e+02
   2.378426e+02  -3.566625e+02
   3.428021e+02  -1.270834e+02
   3.179760e+02   2.917902e+02
   2.460213e+01   4.175961e+02
  -1.223914e+02   1.764797e+02
  -1.207342e+02  -2.381606e+02
   1.199703e+01  -3.585993e+02
   2.118515e+02  -1.120289e+02
   2.708524e+02   3.324089e+02
  -2.548429e+01   5.042080e+02
  -3.066732e+02   3.193971e+02
  -4.044375e+02  -6.458901e+01
  -1.237447e+02  -2.209443e+02
   9.372732e+01  -1.503181e+02
  -3.147113e+01  -5.462088e+01
  -2.194890e+02  -1.891268e+02
  -2.089242e+02  -3.082166e+02
   8.196868e+01  -2.628938e+02
   4.401288e+02  -3.879225e+01
   3.783381e+02   2.453411e+02
   7.654297e+01   2.401074e+02
  -3.273586e+02   3.741308e+01
  -3.336622e+02  -1.417094e+02
  -1.318789e+01  -2.264912e+02
   1.282796e+02  -2.562484e+02
   3.169907e+02  -9.516447e+01
   1.635447e+02   1.067797e+02
   7.729442e+01   2.324105e+02
   5.804894e+01   1.039660e+02
   9.305212e+01  -8.936681e+01
   1.329891e+02  -7.307552e+00
   7.415641e+01   1.923248e+02
  -1.219310e+02   3.356240e+02
  -1.996970e+02   2.914728e+02
  -1.922395e+02  -2.320627e+01
  -4.184893e+01  -1.267234e+02
   7.819423e+01  -7.810181e-01
   3.246486e+01   1.868409e+02
  -1.152146e+02   2.237236e+02
  -3.185955e+02   2.458497e+01
  -4.550513e+02  -2.884943e+02
  -1.009843e+02  -3.725983e+02
   1.977303e+02  -1.158919e+02
   3.839712e+02   8.202661e+01
   2.865114e+02   2.276864e+02
   4.455385e+01   1.855298e+02
  -1.602441e+02   9.195642e+01
  -1.863386e+02   4.171212e+01
  -2.716628e+01   4.173693e+01
  -1.629984e+01   1.353156e+01
  -5.323920e+01  -5.862489e+01
  -1.368898e+02  -2.259505e+01
  -7.624887e+01  -9.161115e+01
   8.260651e+01  -2.111900e+02
   2.442023e+02  -1.351662e+02
   2.455030e+02   9.518297e+01
  -4.458343e+01   3.047710e+02
  -2.557577e+02   3.250055e+02
  -3.359786e+02   1.147112e+02
  -2.042244e+02  -1.571457e+02
  -2.791452e-01  -2.244353e+02
   3.794833e+00  -2.228557e+02
  -3.073881e+01  -1.304898e+02
  -2.073099e+01  -1.358037e+02
   1.351252e+02  -1.770781e+02
   2.957442e+02  -6.450059e+01
   1.885240e+02   1.825125e+02
   4.745118e+01   1.800767e+02
  -7.326922e+01   7.360496e+01
  -1.604989e+02  -1.089809e+02
  -1.023037e+02  -1.838189e+02
   1.154894e+02  -2.152500e+02
   1.784830e+02  -2.712289e+01
   2.279739e+02   1.342214e+02
   1.013432e+02   2.652011e+02
  -1.689949e+01   1.518939e+02
  -3.958950e+01   1.807475e+02
  -1.213225e+02   1.383751e+02
  -1.409498e+02   7.055506e+01
  -2.258165e+02   5.609386e+01
  -3.475946e+02  -9.991671e+01
  -2.355102e+02  -2.887473e+02
   2.134378e+01  -3.707030e+02
   2.973559e+02  -3.201322e+02
   4.147161e+02  -1.062258e+02
   2.209112e+02   7.028371e+01
   2.200013e+01   2.234549e+02
  -7.985237e+01   1.172798e+02
   6.937931e+01   2.818100e+01
   1.108992e+02   3.332156e+00
   8.842599e+01   4.160499e+01
  -4.457612e+01   1.531325e+02
  -1.021683e+02   1.745219e+01
  -4.809519e+01  -1.493981e+00
   2.989406e+00  -6.981556e+01
   1.086079e+02   5.394851e+01
   3.735385e+01   2.266804e+02
  -4.550230e+01   2.270936e+02
  -1.830579e+02   1.857075e+02
  -3.405447e+02  -1.305910e+01
  -2.191054e+02  -2.249533e+02
   1.331875e+01  -2.831151e+02
   1.289163e+02  -1.246824e+02
   9.757001e+01  -1.873793e+01
   1.777545e+01  -1.859212e+01
  -5.790008e+00  -7.509948e+01
   2.359234e+01  -7.574539e+01
   1.425580e+02  -3.824867e+01
   1.275570e+02   4.578657e+01
   2.730457e+01   8.580524e+01
  -1.287872e+02   3.079766e+00
  -2.617330e+01  -7.861451e+01
   1.275396e+02  -4.219269e+01
   2.889183e+02   7.300406e+00
   2.058582e+02   2.260003e+02
   4.033509e+01   2.127863e+02
  -1.881446e+02   2.088588e+02
  -2.636275e+02   1.951647e+01
  -1.167977e+02  -8.702771e+01
   9.839477e+00  -3.140497e+01
   1.057938e+01   1.538438e+01
  -7.775462e+01   1.290685e+02
  -1.830349e+02  -2.142625e+01
  -1.492412e+02  -3.641742e+01
  -5.516022e+01  -1.591844e+02
   1.110671e+02  -1.199371e+02
   1.317225e+02  -3.510299e+01
  -1.623070e+01   1.801972e+01
  -6.216362e+01  -6.731513e+01
  -8.400000e+01  -1.092105e+02
   7.996668e+01  -1.308033e+02
   2.017259e+02   1.065680e+01
   2.108761e+02   9.594674e+01
   5.021020e+01   1.836857e+02
  -1.476160e+02   1.191407e+02
  -1.664449e+02  -1.351265e+01
  -1.268531e+01  -8.490456e+01
   5.965701e+01  -8.200692e+01
   1.014599e+02  -3.378887e+01
   9.965110e-01   5.134697e+01
  -3.327743e+01  -4.215184e+00
   1.173743e+01  -9.698350e+00
   8.128742e+01   2.828243e+01
   8.445025e+01   9.555742e+01
   2.919736e-01   1.656322e+02
  -1.474323e+02   1.396493e+02
  -1.781112e+02  -3.157706e+01
  -1.510400e+02  -1.774460e+02
   2.538226e+01  -1.533723e+02
   1.130611e+02  -8.219945e+01
   7.346204e+01  -3.342034e+01
   3.274856e+01   6.460694e+01
   5.563196e+01  -1.538817e+01
   7.708803e+01  -4.207879e+01
   6.328365e+01  -3.071232e+01
   6.643158e+01   3.430107e+01
  -5.279608e+01   1.164625e+02
  -9.801943e+01   8.047340e+01
  -9.459209e+01   4.801265e-01
   2.788854e+01  -1.154938e+02
   1.503081e+02  -6.692645e+01
   1.606745e+02   7.144710e+01
   4.699174e+01   2.124529e+02
  -1.111166e+02   2.079022e+02
  -2.749247e+02   5.039772e+01
  -1.505584e+02  -1.115158e+02
  -9.249144e+01  -1.023747e+02
   7.081154e+01  -8.994471e+01
   2.281020e+01  -4.360583e+01
   2.710466e+01  -7.051588e+01
   8.131856e+01  -6.569895e+01
   6.397908e+01  -3.998708e+01
   9.820705e+01   4.672169e+01
   4.130995e+01   1.626369e+02
   3.444454e+01   1.573742e+02
  -1.142136e+02   1.140027e+02
  -1.283661e+02  -4.699825e+01
  -1.633073e+02  -1.785647e+02
   4.178328e+00  -1.277797e+02
   3.875881e+01  -7.143813e+01
   4.359038e+01   2.400553e+01
  -3.866290e+01   8.610452e+01
  -8.361526e+01   8.981665e+00
   3.759506e+01   6.830513e+01
   6.048586e+01   1.416374e+01
   2.800029e+00   1.475261e+01
  -7.411781e+01  -8.142470e+00
  -1.947718e+02   2.528366e+01
  -1.631078e+02  -4.801872e+01
   3.800364e+01  -7.931377e+01
   1.434129e+02  -4.788104e+01
   2.021826e+02  -2.646666e+01
  -1.244353e+01   1.798140e+01
  -9.642785e+01   3.447161e+01
  -1.108506e+02   1.329190e+01
  -2.251372e+01  -3.787829e+01
   4.412704e+01  -6.846304e+01
   5.692871e+01  -2.744310e+00
   8.175324e+01   5.816804e+00
  -8.990307e+00  -3.421370e+01
   3.210537e+01   3.528303e+01
   2.781051e+01  -1.777532e+00
   2.846289e+01   6.178851e+01
  -6.114825e+01   1.343043e+02
  -9.039469e+01   1.463366e+02
  -1.820027e+02   7.234442e+01
  -8.700050e+01  -5.107580e+01
   2.401708e+01  -7.590252e+01
   8.908602e+01  -5.137149e+01
   5.337605e+01   6.309206e+01
  -7.666026e+01  -4.556339e+00
  -1.485172e+02  -4.824856e+01
  -5.712591e+01  -8.746556e+01
   8.606214e+01  -8.846720e+01
   1.725601e+02  -1.048970e+02
   1.380219e+02  -1.506462e+00
  -9.554703e+01   8.940631e+01
  -5.935646e+01   1.310883e+01
  -5.642105e+01  -1.664068e+01
   6.069879e+01  -5.021656e+01
   7.754330e+01   3.385142e+01
   4.249556e+01   2.613026e+01
  -5.258092e+01   5.627947e+01
  -1.454713e+02   7.550744e+01
  -8.445375e+01  -3.681027e+01
  -1.980323e+01  -1.739015e+02
   8.350818e+01  -5.816490e+01
   9.518649e+01   3.214849e+01
   6.317854e+01   1.414420e+02
   1.689587e+01   6.626485e+01
  -5.760884e+00   4.864624e+01
  -1.515489e+01  -1.089396e+01
  -4.071062e+01  -4.336216e+01
   1.460806e+01   1.172964e+01
  -9.499029e+01  -7.873214e+01
  -5.492884e+01  -8.106013e+01
  -5.315434e+01  -7.708710e+01
   5.799749e+01  -3.004913e+01
   1.120211e+02   2.559922e+01
   9.437597e+01   4.766236e+01
   3.942401e+01   3.375507e+01
  -8.091561e+01   1.203607e+01
  -7.484060e+01   1.136666e+01
  -1.934535e+01  -4.245987e+01
   2.328986e+01  -2.021204e+01
  -1.921309e+00   1.446932e+01
  -2.289877e+01  -1.070052e+01
  -9.719856e+00  -1.185889e+01
   3.797902e+01  -6.475166e+00
   7.995570e+01   2.476241e+01
   3.152051e+01   3.263294e+01
  -3.625739e+01   1.420500e+02
  -1.461434e+02   9.473396e+01
  -1.064356e+02  -4.737204e+01
  -4.211217e+01  -1.445296e+02
   7.729505e+01  -9.106669e+01
   1.233431e+02   9.590251e+00
   5.357346e+01  -1.928002e+01
   4.175826e+01  -1.857184e+01
   2.130952e+01   2.633696e+01
   6.149760e+01   2.251694e+01
  -1.288671e+00  -8.960148e+00
  -2.556114e+01   4.419787e+01
  -1.107336e+02   8.060893e+01
  -1.107442e+02  -4.941886e+01
  -7.918359e+01  -1.234935e+02
  -5.639760e+01  -8.157969e+01
   1.024906e+02  -2.996655e+01
   1.154404e+02  -6.924924e+00
   4.330322e+01   8.236628e+01
  -1.405555e+02   9.066531e+01
  -3.852674e+01   4.747329e+01
  -1.231805e+00  -3.439065e+01
   2.506190e+01  -8.086860e+01
  -1.134648e+01  -2.704195e+01
   3.030882e+00   1.649020e+01
  -7.716887e+01  -4.324464e+01
  -2.456576e+01  -4.262149e+01
   8.653444e+01  -2.105069e+01
   1.181253e+02  -5.582718e+01
   2.610027e+01   6.281281e+01
  -4.435764e+01   1.377060e+02
  -9.246996e+01   3.903880e+01
  -6.775296e+01   6.157959e+00
   1.282745e+00  -1.927909e+01
   3.397632e+01  -5.802644e+01
   4.217593e+01   6.226688e+01
   1.806922e+01   3.725601e+01
   1.669364e+01   4.175991e+01
  -4.512600e+01   6.311585e+00
  -3.593544e+01  -5.172190e+01
  -2.240610e+01  -2.276756e+01
   3.844742e+01   1.925190e+01
  -2.424405e+01   2.936791e+01
   2.298332e+01  -3.879839e+01
  -2.684068e+00  -7.470842e+01
   1.493715e+01  -7.031376e+01
  -4.724187e+00   5.014020e+01
   1.012761e+01   3.116821e+01
  -2.175421e+01   1.537430e+01
  -8.194574e+01  -3.268853e+01
   8.729082e+00  -7.513236e+01
   6.725809e+01  -3.629626e+01
   8.716382e+01   1.396020e+00
   3.077447e+01   1.858964e+01
  -1.911824e+01   9.326913e+01
  -9.161348e+00   7.206898e+01
  -5.700831e+01   2.406257e+00
   6.544807e+01  -3.059802e+01
   6.019371e+00  -2.033970e+01
  -4.333630e+01   2.657739e+01
  -5.224278e+01   8.087389e-01
