
 $NMID
 id='ANONYMOUS ', fmtdat='(2E16.6)'
 volume=1.0
 tramp=1.0
 $END
   1.722240e+03  -6.006236e+01
   1.278445e+03   6.477478e+02
   3.254041e+02   1.107113e+03
  -4.363628e+02   9.558302e+02
  -6.175872e+02   4.283789e+02
  -2.533268e+02   4.646251e+01
   6.562064e+01  -7.101629e+01
   9.993631e+01   1.990919e+02
  -1.369515e+02   3.489385e+02
  -3.076744e+02   1.743454e+02
  -2.697337e+02  -1.420438e+02
  -1.717339e+02  -3.511407e+02
   7.002316e+01  -2.210776e+02
   1.131792e+02   1.775815e+02
  -1.372530e+01   2.490631e+02
  -1.612394e+02   1.337370e+02
  -1.896126e+02  -2.816640e+02
  -7.228954e+01  -4.640416e+02
   3.016898e+02  -2.299751e+02
   3.118444e+02   2.349460e+01
   1.128632e+02   2.020252e+02
  -5.462894e+00   1.524002e+02
   7.187364e+01   4.727423e+01
   1.431394e+02   8.476998e+01
   1.499924e+02   2.499527e+02
  -7.448549e+01   2.249949e+02
  -2.875234e+02  -5.323799e+01
  -3.162145e+02  -1.045789e+02
  -4.996145e+01  -1.179361e+02
   1.349386e+02  -5.211528e+00
   2.670553e+02   1.622038e+02
   9.198608e+01   2.285980e+02
  -1.722929e+02   1.855878e+02
  -1.956029e+02   7.690284e+01
  -2.091217e+02  -5.742547e+01
  -7.705348e+01  -1.474356e+02
  -7.940953e+01  -9.122572e+01
  -1.342576e+02   5.916196e+01
  -8.307178e+01   3.696464e+01
  -4.954835e+01  -1.453162e+02
   5.418182e+01  -2.101041e+02
   1.497082e+02  -1.924482e+02
   8.615884e+01  -4.426215e+01
   6.003275e+01   1.121802e+02
   2.821521e+00   1.072459e+01
  -7.290177e+01  -1.498175e+02
   8.524322e+01  -1.998444e+02
   2.437675e+02  -5.211428e+00
   3.026198e+02   2.410703e+02
   8.293853e+01   2.628088e+02
  -1.700784e+02   1.696489e+02
  -2.668309e+02  -7.165535e+00
  -1.999543e+02  -1.480815e+02
  -7.573708e+00  -5.288519e+01
   1.675581e+02  -7.743663e+01
   1.522049e+02  -4.794119e+00
   4.742812e+01   1.262795e+01
   1.957773e+01  -3.155191e+01
   5.025851e+01   1.465717e+01
   7.735890e+01  -1.184718e+01
   9.551780e+01   5.180301e+01
  -1.966528e+01   1.342289e+02
  -2.870918e+02   1.414067e+02
  -2.214109e+02  -5.936671e+01
   2.645325e+01  -1.836370e+02
   1.640227e+02  -2.195806e+02
   2.432640e+02  -1.235440e+02
   1.918745e+02   1.043576e+02
   7.147769e+01   2.262555e+02
   3.128955e+01   1.779621e+02
   1.546644e+01   1.563813e+02
   7.534356e+00   1.023567e+02
  -1.493420e+02   1.057174e+02
  -2.007494e+02   2.014077e+01
  -1.748821e+02  -1.011946e+02
  -4.675293e+01  -1.572290e+02
   9.456959e+01  -5.851045e+01
   8.527614e+01   6.957374e+01
   7.710445e+01   1.792767e+02
  -5.881887e+01   1.015590e+02
  -1.267872e+02   4.094827e+01
  -1.878221e+02  -9.128224e+01
  -1.322830e+02  -1.768463e+02
   2.693965e-01  -2.396941e+02
   1.033515e+02  -1.504441e+02
   9.057804e+01  -8.702678e+01
   1.483020e+02  -4.032463e+01
   2.044378e+02  -4.242537e+01
   3.041653e+02   5.694052e+01
   9.417512e+01   1.747316e+02
  -2.299200e+01   2.496382e+02
  -2.244080e+02   2.646611e+02
  -3.114357e+02   1.286300e+02
  -1.708760e+02  -5.885240e+01
   4.473732e+01  -1.239551e+02
   2.167549e+01  -9.862355e+01
  -6.381101e+00   4.461399e+00
  -8.068747e+01  -3.579555e+01
  -4.380033e+01  -5.938650e+01
  -2.826608e+00  -1.121988e+02
   8.644093e+01  -3.761045e+01
   5.203029e+01   1.802930e+01
   7.868334e+01   1.339283e+02
  -1.056260e+02   2.136669e+00
  -9.071551e+01  -1.558601e+02
  -2.564101e+01  -1.248096e+02
   1.620240e+02  -1.776670e+02
   3.193751e+02  -1.035541e+01
   1.870188e+02   1.536745e+02
   3.927609e+01   1.729154e+02
  -1.219646e+02   1.702987e+02
  -1.085918e+02   2.529772e+01
  -2.263371e+01  -1.327628e+01
   1.611402e+01   5.400115e+01
  -2.679116e+01   6.113630e+01
  -1.047348e+02   5.563937e+01
  -1.294211e+02  -1.839812e+00
  -4.255823e+01   5.216506e+01
   1.144130e+02   5.198253e+01
   4.165881e+01   4.234283e+01
  -1.506987e+02   1.313978e+02
  -1.961914e+02  -7.944401e+01
  -1.544473e+02  -1.146098e+02
  -5.494716e+00  -1.813483e+02
   1.377008e+02  -1.664011e+02
   1.516705e+02  -4.620342e+01
   6.034056e+01   1.412175e+01
  -2.568846e+01   1.121299e+02
  -3.685654e+01  -4.915112e+01
   3.782033e+01  -5.560176e+01
   1.163431e+02  -2.319929e+01
   6.858304e+01   7.753606e+01
   1.873061e+01   1.291855e+02
  -5.953998e+01   1.071186e+02
  -1.058423e+02  -2.406909e+01
  -1.898923e+00  -3.429790e+01
   1.480050e+01   2.741170e+01
  -5.227911e+01   1.139670e+02
  -6.318829e+01   7.268194e+01
  -1.826002e+02   3.003109e+01
  -1.098937e+02  -5.575688e+01
   2.449917e+01  -1.128380e+02
   9.672618e+01  -8.283088e+01
   4.105576e+01   4.623000e-01
   2.801659e+01   2.353493e+01
  -5.540933e+01   7.660258e+01
  -1.003446e+02   3.139782e+01
  -1.276186e+01  -6.387173e+00
   2.979786e+01  -8.320531e+01
   2.585320e+01   3.944664e+01
  -3.806224e+01  -1.776783e+00
  -5.907598e+01  -6.642739e+01
  -3.818537e-01  -1.668022e+02
   2.172634e+02  -9.130070e+01
   1.449656e+02  -5.454446e+00
   1.608006e+02   1.097459e+02
  -6.817088e+01   1.463122e+02
  -6.634601e+01   1.082882e+02
  -7.835100e+01   3.843624e+01
  -4.310975e+01  -7.838532e-01
  -4.651811e+01   1.765676e+00
  -5.507112e+01  -3.887330e+01
  -2.916639e+01   1.152574e+01
  -7.167838e+00   1.447364e+00
  -1.375570e+01  -3.873756e+01
   1.438889e+02  -1.246622e+02
   1.023274e+02  -1.557064e+01
   1.181813e+01   1.395745e+02
  -1.257762e+02   7.499486e+01
  -1.346522e+02  -7.258337e+01
  -1.966518e+01  -1.354497e+02
   7.242224e+01  -1.171095e+02
   1.919881e+02  -5.322410e+01
   2.422335e+02   6.786938e+01
   1.013617e+02   1.073828e+02
  -1.319101e+01   1.068095e+02
  -2.295723e+01   6.522088e+01
  -1.818494e+01   6.771227e+00
  -5.762676e+01   9.366815e+01
  -5.530399e+01   7.215790e+01
  -5.321925e+01  -2.161217e+01
  -1.117181e+02  -4.901894e+01
   1.811705e+01  -1.352946e+02
   1.034160e+02  -7.790045e+01
   1.525200e+02  -3.253159e+01
   9.358659e+01   7.072365e+01
  -3.813730e+01   1.603485e+02
  -8.222842e+01   5.674236e+01
  -7.156047e+01  -5.436718e+00
  -1.582418e+01  -6.392417e+01
  -3.309588e+01  -4.783512e+01
  -4.388038e+01  -4.249377e+01
  -7.524076e+01   8.745481e+00
  -6.965178e+01  -6.938235e+01
   8.536768e+01  -2.951530e+01
   1.134039e+02   1.443436e+01
   1.082135e+02   7.222055e+01
  -3.502021e+01   7.149509e+01
  -5.698155e+01   1.321910e+01
  -8.225618e+01  -7.296639e-01
  -3.676461e+01  -4.065654e+01
   3.829430e+01  -3.893431e+01
   4.422171e+01  -7.827919e-01
   3.166952e+01   1.849155e+01
   1.982176e+01   4.707631e+01
  -5.815533e+01   2.104856e+01
  -1.076017e+01  -4.808294e+01
  -6.756803e+01  -4.274194e+01
  -3.907059e+01   2.278169e+01
  -7.670909e+01  -2.163596e+01
  -4.695340e+01  -1.694408e+01
   1.883453e+01  -5.492720e+01
   8.824109e+01  -1.372325e+02
   1.199230e+02  -4.858004e+01
   4.810874e+01   8.701668e+01
   2.601778e+01   1.072226e+02
  -3.338557e+01   2.183697e+01
  -5.405637e+01   3.622162e+00
   7.225017e+01  -8.081023e+00
   7.498776e+00   1.704459e+01
   3.806736e+01   7.540183e+01
  -1.029338e+02  -1.843049e+01
  -1.362977e+02   8.665977e+01
  -1.276828e+02  -7.846604e+01
  -4.293079e+01  -5.084999e+01
   1.690417e+01  -2.059544e+01
   5.622141e+01   2.929462e+01
  -2.613135e+01   2.322633e+01
  -1.671083e+01  -4.824559e+01
  -4.271945e+01  -1.086489e+02
   2.805625e+01  -6.545463e+01
   7.250879e+01  -5.815251e+01
   7.193555e+01   6.161944e+01
   9.795877e+00   1.421194e+02
  -2.126889e+01   9.244040e+01
  -5.148209e+01   3.291281e+00
  -1.282716e+01  -4.202693e+01
   2.915234e+01  -1.135801e+02
   1.270354e+00   3.519299e+01
   4.733491e+01   6.185750e+01
   1.702889e+01  -2.188849e+01
   1.643205e+01  -2.839430e+01
  -1.601923e+01   3.150807e+01
   3.709779e+01   2.364764e+01
   2.077302e+01   1.268106e+02
  -3.180369e+01   1.871440e+01
  -9.351984e+01  -3.166302e+01
  -6.766553e+01   5.023640e+00
   8.184878e+00  -7.000329e+01
   6.964539e+01  -1.725848e+01
   1.149790e+02   4.585427e+00
  -1.761568e+01  -4.684869e+00
  -4.623074e+01   1.102298e+01
  -2.893266e+01   5.634495e+00
   1.218526e+01  -3.908097e+01
  -1.799391e+01   2.827912e+01
  -4.634892e+01  -7.009455e+00
  -6.492968e+01  -8.069276e+01
  -9.581498e+01  -9.285026e-01
   1.068599e+02  -8.021086e+01
   1.346841e+02  -6.044425e+01
   9.865369e+01  -1.182882e+01
   9.342312e+00   6.782959e+01
  -1.161818e+02   1.283948e+02
  -3.867934e+01   4.204385e+01
  -9.364156e+01  -3.090996e+01
  -1.295945e+01  -4.188021e+01
   9.857296e+00   1.842989e+01
  -1.237256e+01   6.445743e+01
  -1.595459e+01  -2.936968e+01
  -1.055036e+01  -2.486700e+01
  -7.419802e+00  -7.372222e+01
   1.141385e+02   1.822107e+01
   8.913775e+00   5.104663e+01
  -3.866900e+01   4.655313e+01
  -7.874938e+01   4.432693e+01
  -7.184253e+01  -5.121617e+01
  -3.165545e+00  -5.286014e+01
   1.146883e+02  -3.190854e+01
   1.080670e+02  -1.120454e+01
  -4.098102e+01   1.010366e+02
  -2.502742e+00   1.960278e+01
  -3.053927e+01   2.684907e+01
   1.211663e+01  -9.788111e+00
   6.809499e+01  -5.118821e+01
   5.404823e+01   4.921194e+01
  -8.441979e+01   6.096834e+01
  -9.882608e+01   1.042535e+02
  -5.614721e+01   2.169718e+01
   3.586945e+01  -1.073891e+02
   1.122667e+01  -4.136306e+01
   9.616361e+00  -7.386535e+01
   6.142584e+01  -5.470891e-01
   9.046684e-01   9.578449e+00
  -7.213544e+01  -3.882600e+01
  -3.840414e+01  -4.404343e+01
   3.037800e+01  -3.664956e+01
   3.181895e+01   1.786641e+01
   8.496559e+01   7.914801e+01
  -5.852367e+00   3.549390e+01
  -2.348272e+01   1.702786e+01
  -3.825991e+01  -2.420789e+01
   4.027716e+01  -2.295650e+01
  -4.464587e+01   9.283271e+01
   1.867437e+01   9.652139e+00
  -2.639549e+01   3.294118e+01
   4.740597e+00  -6.202967e+01
   6.533066e+00  -3.993967e+01
   9.543812e+01   6.880884e+01
  -9.417378e+00   3.526479e+01
  -1.029651e+02   9.277351e+01
  -1.281382e+02  -1.752980e+01
  -3.695676e+01  -2.582003e+01
   3.068563e+01  -2.201744e+01
   4.400241e+01  -5.368545e+01
   5.436422e+01   1.548204e+01
   7.776330e+00  -1.300633e+01
  -2.980775e+01   9.947764e+00
   5.903759e+00   3.675828e+01
   3.657100e+01  -3.561196e+00
