
 $NMID
 id='ANONYMOUS ', fmtdat='(2E16.6)'
 volume=1.0
 tramp=1.0
 $END
   3.917546e+03  -3.940083e+01
   2.489555e+03   2.227232e+03
  -4.260342e+02   2.552192e+03
  -1.787269e+03   1.148690e+03
  -1.073185e+03  -2.268579e+02
   2.949633e+02  -4.175471e+02
   6.911125e+02   2.815366e+02
   4.137322e+01   8.822413e+02
  -7.089475e+02   7.366026e+02
  -8.578634e+02   3.849608e+01
  -4.678699e+02  -7.402811e+02
   1.206520e+02  -8.499320e+02
   4.740265e+02  -1.581548e+02
   3.474281e+02   6.054393e+02
  -2.082139e+02   6.900379e+02
  -6.077310e+02   9.827868e+01
  -3.321789e+02  -5.917671e+02
   2.289264e+02  -6.532834e+02
   5.556863e+02  -2.234889e+02
   4.582816e+02   2.564358e+02
   2.325741e+01   4.476441e+02
  -1.857307e+02   2.712441e+02
  -1.870903e+02   1.013374e+02
   1.334180e+02  -5.719081e+01
   3.642199e+02   2.253689e+02
   8.165190e+01   4.100003e+02
  -4.225058e+02   3.661317e+02
  -7.568520e+02  -6.718489e+01
  -3.048444e+02  -4.996592e+02
   3.448218e+02  -3.745189e+02
   6.749597e+02   7.665987e+01
   3.063212e+02   4.201517e+02
  -2.593069e+02   4.323718e+02
  -4.853655e+02   2.020704e+02
  -3.934022e+02  -1.756639e+02
  -6.117525e+01  -3.684761e+02
   1.139645e+02  -2.455043e+02
   1.138130e+02   1.611539e+02
  -1.980672e+02   3.207377e+02
  -3.729182e+02  -1.018552e+02
  -1.684983e+02  -6.158096e+02
   2.847772e+02  -6.522468e+02
   5.040209e+02   1.884810e+01
   2.045674e+02   4.315369e+02
  -2.664637e+02   2.347799e+02
  -2.828801e+02  -2.723039e+02
   1.266789e+02  -5.166001e+02
   5.662631e+02  -9.968648e+01
   5.070135e+02   3.948530e+02
   1.557141e+02   5.131400e+02
  -4.007540e+02   2.992234e+02
  -5.992191e+02  -6.043250e+01
  -3.659610e+02  -2.959914e+02
   1.271957e+02  -3.882482e+02
   4.042403e+02  -6.962255e+01
   3.031796e+02   8.327207e+01
  -9.571948e+01   5.784694e+01
  -1.079885e+02  -6.899663e+01
   1.983998e+02  -9.553306e+01
   2.993890e+02   8.255446e+01
   1.547752e+02   2.438046e+02
  -1.854098e+02   2.276787e+02
  -3.390609e+02   5.892496e+01
  -2.355241e+02  -6.369660e+01
   5.391230e+01  -3.287055e+02
   2.343810e+02  -3.159740e+02
   4.036497e+02  -1.793517e+02
   2.576143e+02   1.925363e+02
   5.142149e+01   4.072784e+02
  -2.849831e+01   3.817669e+02
  -7.345767e+01   1.609724e+02
  -1.055515e+01   1.548264e+01
  -1.041994e+02   7.441338e+01
  -2.421293e+02   1.364368e+02
  -2.578723e+02  -8.965085e+01
  -1.460931e+02  -2.403087e+02
   1.062085e+02  -2.420828e+02
   2.080850e+02   1.467498e+01
   1.582800e+02   2.698312e+02
  -1.007676e+01   2.971830e+02
  -2.884915e+02   6.122575e+01
  -3.644814e+02  -1.191784e+02
  -1.910281e+02  -3.208033e+02
   6.743228e+01  -3.014379e+02
   1.646900e+02  -1.867672e+02
   1.673573e+02  -1.098631e+02
   1.663313e+02  -3.208685e+01
   2.684261e+02  -6.846578e+01
   4.094406e+02   3.451818e+01
   3.207307e+02   3.095557e+02
  -1.270220e+01   4.878985e+02
  -3.453824e+02   4.765571e+02
  -5.524986e+02   1.513581e+02
  -3.190047e+02  -9.847881e+01
  -1.515959e+01  -2.895744e+02
   8.430164e+01  -2.286101e+02
   1.669588e+01  -3.483252e+00
  -1.220520e+02   8.850969e+01
  -1.403242e+02   1.109987e+01
  -1.214690e+02  -1.150673e+02
   1.404940e+02  -1.383940e+02
   1.410268e+02   3.115561e+01
  -5.181521e+01   1.620151e+02
  -1.545185e+02  -6.636296e+00
  -1.854366e+02  -2.667877e+02
   3.994522e+01  -3.492605e+02
   2.811195e+02  -1.537405e+02
   3.667487e+02   7.317714e+01
   2.753199e+02   2.599383e+02
   1.038912e+02   2.928574e+02
  -1.056770e+02   1.706046e+02
  -1.768546e+02   6.135794e+00
  -2.417337e+01  -4.981215e+01
  -3.491666e+01   3.284896e+01
   1.688417e+01   1.392112e+02
  -1.694263e+02   1.000381e+02
  -1.736523e+02  -3.949077e+01
  -1.829948e+01  -7.150660e+01
   8.926067e+01   2.284358e+01
   3.134288e+01   8.819891e+01
  -1.452462e+02   7.515336e+01
  -3.486700e+02   2.366235e+00
  -3.040760e+02  -1.843029e+02
  -2.924947e+01  -2.665428e+02
   2.404804e+02  -2.141251e+02
   2.830991e+02  -1.573356e+02
   1.949106e+02   4.002321e+01
  -4.252884e+01   7.872047e+01
  -1.291852e+02   2.777310e+00
   5.134521e+01  -1.175111e+02
   1.605317e+02  -8.745545e+01
   1.715614e+02   1.224474e+02
   8.347795e+01   2.246160e+02
  -7.801467e+01   1.241098e+02
  -8.787425e+01   3.469069e+01
  -7.992087e+01  -2.068438e+01
   3.254309e+01   3.723570e+01
   2.635493e+01   6.483267e+01
  -8.830189e+01   1.559787e+02
  -2.425820e+02   5.419087e+01
  -1.863766e+02  -1.088313e+02
  -4.113898e+01  -1.815005e+02
   1.701024e+02  -1.778062e+02
   2.092771e+02   3.707918e+01
   7.110424e+01   1.035090e+02
  -7.849041e+01   9.341898e+01
  -2.799344e+01  -1.410896e+00
  -5.407847e+01  -2.667308e+01
   5.138311e+00   2.702695e+01
   1.171015e+00   9.134258e+00
  -6.914864e+01  -2.900182e+01
  -1.254723e+02  -1.243239e+02
  -3.810302e+01  -2.193851e+02
   1.826055e+02  -1.535894e+02
   2.318039e+02   1.776238e+01
   1.662227e+02   1.758952e+02
   4.438781e+01   2.596320e+02
  -1.580824e+02   1.211110e+02
  -1.668315e+02   1.005865e+01
  -6.203811e+01  -2.790295e+01
  -1.783266e+01  -4.066292e+01
  -7.570027e+01   6.301719e+00
  -1.031043e+02   7.795854e+01
  -2.117470e+00  -1.581975e+01
   4.627896e+01  -6.715547e+01
   1.538929e+02   1.955342e-01
   1.013245e+02   5.848507e+01
   1.037936e+01   1.003526e+02
  -1.916387e+02   5.290773e+01
  -2.026273e+02  -6.862859e+01
  -9.901426e+01  -1.643893e+02
   1.299307e+02  -2.694478e+02
   2.724642e+02  -6.550798e+01
   2.162090e+02   1.140057e+02
   7.133226e+01   1.903805e+02
   1.191843e+01   6.873756e+01
  -6.395324e+01   9.495133e+01
  -1.352272e+02  -3.674502e-01
   4.184360e-01   8.306315e+01
  -4.141984e+01   4.227663e+01
  -1.731133e+02  -3.834942e+01
  -1.221231e+02  -1.997945e+02
   1.251886e+01  -2.431927e+02
   9.741454e+01  -1.662240e+02
   2.231492e+02  -2.236654e+01
   2.365985e+02   1.859201e+02
  -1.533301e+00   1.919262e+02
  -7.332252e+01   1.006431e+02
  -6.235534e+01   2.501104e+01
  -2.621881e-01  -2.833564e+01
   2.613819e+00  -4.290216e+01
  -6.309749e+01  -5.658444e+01
  -2.375614e+01   9.775578e+00
  -3.974947e+01  -1.090401e+01
   6.656591e+01  -4.419215e+01
   1.634843e+02   4.414551e+01
   1.462462e+02   5.490395e+01
  -3.084512e+01   1.098840e+02
  -1.053083e+02   1.077504e+02
  -1.033685e+02   9.211719e+00
  -4.846807e+01  -8.373339e+01
   4.201329e+01  -5.557989e+01
   7.385240e+01   1.839721e+01
   2.118926e+01   8.244423e+01
  -9.310755e+01   7.600836e+01
  -7.397882e+01  -3.129056e+01
  -5.316287e+01  -7.124730e+01
  -1.561635e+01  -2.372721e+01
   3.869694e+00   4.808577e+00
  -7.671985e+01   4.624470e+01
   7.129748e+01  -4.019917e+01
   1.872074e+01  -1.359478e+02
   1.714940e+02  -1.408731e+02
   1.777194e+02  -8.718420e+01
   1.396067e+02   1.112077e+02
   5.265575e+00   1.739996e+02
  -8.010581e+01   3.449081e+01
  -1.128177e+02  -2.390042e+01
   2.734194e+00  -6.840742e+01
   8.250173e+01   7.199390e+01
   2.821388e+01   1.471046e+02
  -8.841417e+01   1.653698e+02
  -1.667034e+02   1.123986e+01
  -1.469515e+02  -1.016892e+02
  -2.116865e+01  -8.633889e+01
   7.808588e+01  -5.577811e+01
   5.850056e+01   7.429691e+00
  -5.720015e+01   3.989686e+01
  -4.048561e+01  -1.186620e+01
  -8.563664e+01  -1.596929e+02
   1.025376e+02  -1.484603e+02
   1.984598e+02  -1.137563e+02
   1.246327e+02   1.286352e+02
   5.974006e+01   2.270428e+02
  -1.112116e+02   1.718117e+02
  -5.922795e+01  -3.685621e+01
  -3.691524e+01  -4.178665e+01
  -3.815706e+00  -1.248862e+02
   8.492480e+01  -4.103717e+01
  -5.783662e-01   1.453170e+01
   3.274169e+01   2.909129e+01
   5.463978e+01   4.630626e+01
  -1.724305e+01   9.031177e+01
   1.022296e+01   1.048139e+02
   1.452164e+01   1.120484e+02
  -3.150699e+01   2.864247e+01
  -1.492567e+02  -1.363227e+01
  -8.848210e+01  -4.610612e+01
   5.697321e+00  -3.199659e+01
   2.008313e+01  -4.131790e+01
   1.062857e+02  -1.018934e+00
   2.470098e+01  -1.089799e+01
  -6.336977e+01   3.732164e+01
   5.724996e+00   3.697437e+01
  -4.692631e+01   5.097769e+00
  -1.137168e+01   2.437696e+01
  -1.181972e+02  -1.396423e+01
  -5.328407e+01  -3.731545e+01
  -4.154402e+01  -6.109082e+01
   1.408723e+02  -1.114406e+02
   1.650421e+02  -9.703479e+01
   1.574564e+02   6.464398e+01
   2.836563e+01   1.368608e+02
  -8.414173e+01   1.499533e+02
  -9.897071e+01   8.365749e+01
  -6.232501e+01  -9.739904e-01
  -2.518468e+01   7.096083e+01
   1.541571e+01  -2.428443e+01
   5.005362e+01  -2.017927e+01
  -2.158950e+01  -1.648886e+01
  -3.263325e+01  -7.560023e+01
   3.167168e+01  -5.091426e+01
   1.373227e+02   5.536160e+01
   1.708757e+01   1.047436e+02
   5.039196e+01   1.041281e+02
  -7.672534e+01   4.410618e+00
  -1.264029e+02  -9.382099e+01
  -3.703377e+01  -7.211757e+01
   3.852127e+01  -3.441412e+01
   1.014429e+02  -5.431646e+00
   7.636575e+01   5.037572e+01
  -5.429987e+01   2.947178e+01
   2.749132e+01  -1.362437e+01
   2.027288e+01  -3.327261e+01
   9.802497e+01   4.196048e+01
   7.970271e+00   4.546687e+01
  -5.984709e+01  -1.024023e+00
  -8.500366e+01   8.968158e+01
  -4.974581e+01  -3.168437e+01
   1.379509e+01  -4.240389e+01
   3.660566e+01  -4.358769e+01
   7.656520e+01  -4.393186e+01
   1.713834e+01   8.857826e+01
  -2.186909e+00   4.183292e+01
  -3.055985e+01   2.992483e+01
  -2.975931e+01  -5.313833e+01
   6.317461e+01  -8.773528e+01
  -8.457829e-01   5.681604e+01
  -2.969639e+01   5.053051e+01
   6.493856e+01  -3.406228e+01
  -6.925019e+01  -1.548743e+01
  -4.412553e+01  -4.447946e+00
   6.651901e+00   1.478475e+01
  -2.147537e+01   8.433278e+01
  -2.967364e+01   9.223872e+00
  -3.311162e+01  -2.691007e+01
   2.355563e+01   3.621244e+00
  -1.212902e+01   8.682705e+00
   1.683160e+01   4.060462e+01
   4.294592e+01   8.303920e+00
  -6.448551e+01  -1.785302e+01
  -4.710318e+01  -1.161220e+01
  -8.521557e+01  -3.126701e+01
   2.725439e+01  -3.269087e+01
   1.110657e+02  -4.686348e+01
   3.621765e+01  -1.645814e+00
  -2.928576e+01   1.842965e+01
  -2.927517e+01   4.256599e+01
   6.427865e+01  -5.423399e+01
   5.218205e+01  -6.380171e+01
