
 $NMID
 id='ANONYMOUS ', fmtdat='(2E16.6)'
 volume=1.0
 tramp=1.0
 $END
   4.925358e+03   7.835985e+01
   2.730609e+03   2.989126e+03
  -1.055193e+03   3.034515e+03
  -2.450934e+03   7.903567e+02
  -9.297019e+02  -9.130732e+02
   8.519513e+02  -6.157225e+02
   1.069950e+03   6.013863e+02
  -5.118342e+01   1.254300e+03
  -9.232591e+02   8.010504e+02
  -1.046747e+03  -1.792573e+02
  -4.495012e+02  -1.070997e+03
   3.473718e+02  -9.456727e+02
   7.840361e+02  -7.127585e+01
   4.352124e+02   7.935310e+02
  -3.403690e+02   8.243763e+02
  -6.740965e+02   1.698966e+01
  -2.266689e+02  -7.630934e+02
   3.024122e+02  -6.388331e+02
   6.294182e+02  -2.249248e+01
   3.936227e+02   3.941064e+02
  -6.915101e+01   5.211917e+02
  -2.886508e+02   2.178373e+02
  -3.211645e+02   1.930147e+01
   1.033523e+02  -1.701901e+02
   4.703214e+02   1.015333e+02
   2.417639e+02   4.712842e+02
  -4.728622e+02   5.220079e+02
  -1.008349e+03  -3.979930e+01
  -4.513823e+02  -6.770865e+02
   4.616126e+02  -5.240626e+02
   8.714673e+02   7.426830e+01
   4.046343e+02   5.552184e+02
  -2.738702e+02   5.881789e+02
  -6.801239e+02   1.910094e+02
  -4.440714e+02  -2.042631e+02
  -1.133411e+02  -5.340572e+02
   2.128278e+02  -3.528681e+02
   2.001982e+02   2.940546e+02
  -1.819260e+02   4.784836e+02
  -5.409215e+02  -2.501797e+01
  -2.993395e+02  -7.235891e+02
   3.734319e+02  -7.844904e+02
   7.576416e+02   6.765273e+01
   3.411643e+02   6.383202e+02
  -3.363062e+02   3.380914e+02
  -5.056114e+02  -3.789894e+02
   6.416862e+01  -6.228670e+02
   6.258063e+02  -1.238870e+02
   6.377445e+02   4.512972e+02
   1.538054e+02   6.756593e+02
  -4.112387e+02   3.909857e+02
  -7.057079e+02  -8.222587e+01
  -4.389268e+02  -4.235187e+02
   2.016754e+02  -3.892349e+02
   4.403278e+02  -7.434677e+01
   2.639061e+02   2.005668e+02
  -1.675617e+02   1.200290e+02
  -1.500326e+02  -1.897460e+02
   1.780003e+02  -2.202965e+02
   4.419678e+02   6.067999e+01
   1.407820e+02   4.107268e+02
  -1.403325e+02   2.514986e+02
  -3.746460e+02   7.095303e+01
  -1.736524e+02  -1.025220e+02
   1.649161e+00  -2.089232e+02
   2.313306e+02  -2.985440e+02
   3.379288e+02  -2.200867e+02
   3.500238e+02   1.166376e+02
   1.419927e+02   4.393128e+02
  -1.162374e+02   4.219690e+02
  -1.289684e+02   9.227964e+01
  -5.233508e+01  -1.077717e+02
   1.552387e+01   1.097625e+02
  -1.665372e+02   1.060573e+02
  -3.157403e+02   2.130741e+01
  -1.715108e+02  -2.834966e+02
   5.874131e+01  -2.905111e+02
   2.671565e+02  -1.858856e+01
   2.372524e+02   3.151403e+02
  -1.664721e+01   3.282770e+02
  -2.850144e+02   1.210784e+02
  -3.744046e+02  -1.861856e+02
  -1.680150e+02  -3.871482e+02
   1.550900e+02  -2.879441e+02
   1.809076e+02  -8.895122e+01
   1.284878e+02   2.131664e+01
   7.776836e+01   4.424707e+01
   2.420404e+02  -3.671328e+01
   3.639155e+02   7.102903e+01
   3.849976e+02   2.955031e+02
  -1.534536e+01   4.687330e+02
  -3.845050e+02   4.487306e+02
  -5.362959e+02   2.058862e+02
  -3.577261e+02  -1.238076e+02
  -7.581894e+01  -2.917610e+02
   1.737555e+02  -2.952775e+02
   1.001789e+02  -7.948225e+01
  -1.541068e+02   1.225602e+02
  -2.804087e+02  -3.884613e+01
  -4.388517e+01  -2.397530e+02
   1.744797e+02  -1.805990e+02
   2.546025e+02   5.343600e+01
   6.148304e+00   1.690443e+02
  -2.166814e+02   4.289115e+01
  -1.092621e+02  -2.692949e+02
   4.557099e+01  -4.120585e+02
   2.227524e+02  -1.654940e+02
   3.607255e+02   5.125675e+01
   2.698532e+02   2.158268e+02
   6.729465e+01   2.928980e+02
  -7.461256e+01   1.953358e+02
  -2.227562e+02   4.487377e+01
  -9.407364e+01  -8.975804e+00
   8.920492e+01   2.012897e+01
   8.084061e+01   1.011960e+02
  -1.407208e+02   1.335789e+02
  -2.231207e+02  -6.115474e+01
  -2.615456e+01  -8.428281e+01
   8.985227e+01  -4.502335e+01
   7.559225e+01   1.161418e+02
  -9.215101e+01   6.187207e+01
  -2.487873e+02   1.612287e+00
  -3.039241e+02  -1.683131e+02
  -1.073411e+02  -1.659842e+02
   1.971205e+02  -2.697602e+02
   2.952032e+02  -1.343753e+02
   1.854088e+02   5.010195e+00
  -1.018742e+01   1.390811e+02
  -1.530093e+02  -1.588559e+01
   4.308101e+01  -1.259994e+02
   1.958137e+02  -7.392398e+01
   2.373399e+02   8.267796e+01
   6.966883e+01   2.486240e+02
  -7.928049e+01   1.688377e+02
  -1.630754e+02  -1.807766e+01
  -5.198216e+01   3.742547e+00
   1.355614e+01  -2.833114e+01
  -4.007356e+01   1.014788e+02
  -8.293329e+01   5.848842e+01
  -2.100858e+02   6.733178e+01
  -2.124275e+02  -1.620841e+02
  -1.920544e+00  -1.804113e+02
   1.725783e+02  -1.715182e+02
   2.402146e+02  -5.642062e+01
   7.653022e+01   1.287786e+02
  -8.953892e+01   8.874210e+01
  -9.751416e+01   4.775506e+01
  -3.740923e-01   8.724608e+00
  -3.034314e+01  -2.809054e+01
  -3.543218e+01  -2.735150e+01
  -1.038705e+02  -1.627167e+01
  -9.630978e+01  -7.371121e+01
   1.160873e+01  -1.288793e+02
   9.602377e+01  -9.463955e+01
   2.314226e+02  -1.009756e+02
   2.066506e+02   1.363852e+02
   6.789841e+01   2.499347e+02
  -1.308943e+02   1.425869e+02
  -1.457548e+02   2.845120e+01
  -8.804355e+01  -3.193145e+01
  -6.851462e+01  -2.877278e+01
  -9.141993e+01   3.377052e+01
  -9.925449e+01   1.611553e+00
  -2.998051e+01   8.038446e-01
   4.066171e+01  -1.240978e+02
   7.662123e+01  -8.093295e+01
   8.927645e+00   5.732274e+01
  -2.237687e+01   1.294378e+02
  -8.559653e+01   9.296788e+01
  -2.188914e+02  -2.166636e+01
  -1.141133e+02  -2.129588e+02
   2.496593e+01  -2.323530e+02
   2.586523e+02  -7.799886e+01
   3.126487e+02   1.058056e+02
   1.388952e+02   1.927291e+02
   1.087447e+01   1.917785e+02
  -6.836005e+01   1.605905e+02
  -8.700033e+01   9.142273e+01
  -9.479961e+01   1.484854e+02
  -1.033505e+02   5.440080e+01
  -1.289557e+02  -7.765191e+00
  -1.445905e+02  -1.860277e+02
  -3.297230e+01  -3.119711e+02
   8.667977e+01  -1.768162e+02
   2.001116e+02  -3.897323e+01
   1.909035e+02   8.645588e+01
   1.150558e+01   1.371643e+02
  -6.214722e-01   8.095645e+01
  -5.996488e+01   4.287756e+01
   3.047476e+01   2.559919e+01
   5.171776e+01  -7.500208e+01
  -9.297891e+01  -1.159405e+01
  -3.322128e+01  -4.819183e+01
  -6.661581e+01   2.468094e+01
   8.182281e+01  -1.656877e+01
   1.463403e+02   4.343379e+01
   1.262535e+02   2.237566e+01
   8.500970e+00   7.151373e+01
  -1.442523e+02   1.018616e+02
  -1.998267e+02  -3.688630e+00
  -1.908131e+01  -5.860503e+01
   1.226044e+02  -7.958652e+00
   6.795434e+01   5.766415e+01
   3.255279e+01   5.604913e+01
  -4.029170e+01   6.007284e+01
  -4.560080e+01   3.385332e+01
  -1.732777e+00  -3.151534e+01
  -4.620071e+01  -2.064637e+01
  -8.247016e+01   1.439134e+01
  -7.980212e+01  -1.800858e+01
  -5.127019e+01  -5.890215e+01
   1.992402e+01  -1.405112e+02
   1.365584e+02  -1.540555e+02
   1.133936e+02  -1.358748e+01
   1.271817e+02   1.122249e+02
  -3.116960e+00   9.697977e+01
  -9.697505e+01   4.322619e+01
  -1.104301e+02   3.673398e+01
   6.203717e+01  -2.948124e+01
   1.749558e+02   6.084652e+01
   1.142926e+02   1.273905e+02
  -1.217348e+02   1.175820e+02
  -2.572605e+02   9.014751e+01
  -1.565507e+02  -5.023702e+00
  -1.460618e+01  -3.435735e+01
   6.189180e+01  -4.904491e+01
   5.459902e+01  -2.155630e+01
  -5.736073e+01  -2.143044e+01
  -9.182790e+01  -2.668286e+01
  -3.611938e+01  -1.206687e+02
   1.440700e+02  -1.725393e+02
   1.394994e+02  -7.623519e+01
   1.002848e+02   1.123274e+02
  -3.582780e+00   1.917778e+02
  -6.163891e+01   1.595231e+02
  -7.285109e+01  -5.809349e+00
  -8.639270e+01  -1.122855e+02
   6.037018e+00  -1.067017e+02
   2.424542e+01  -2.663995e+01
   1.006177e+02   2.968305e+01
   5.793314e+01   1.609192e+01
  -9.046951e-01  -3.043850e+01
  -1.155122e+00  -1.371704e+01
   2.996317e+01   1.030335e+02
   4.924792e+01   8.205678e+01
  -5.982966e+01   2.150069e+01
  -1.661042e+02  -3.116483e+01
  -1.116218e+02  -7.054368e+01
   6.239639e+00   1.371764e+01
   7.838694e+01  -3.991495e+01
   1.371698e+02  -1.747146e+01
   2.306865e+01   4.351203e+01
  -5.320271e+01   8.263870e+00
  -6.779646e+00   4.008990e+00
   5.947031e+01   4.833827e+01
  -3.236043e+01  -5.313527e+01
  -1.360767e+02  -1.384053e+01
  -9.418594e+01  -2.637460e+01
  -2.509316e+01  -1.228886e+02
   1.395807e+02  -1.488939e+02
   2.031531e+02  -8.238659e+01
   1.399955e+02   6.389152e+01
   3.116972e+01   1.948425e+02
  -3.254560e+01   1.434017e+02
  -1.693004e+02   3.090184e+01
  -1.251143e+02  -1.874113e+01
  -2.155577e+01  -4.362653e+01
   4.631129e+01   5.308605e+01
   3.822334e+00  -1.418020e+01
  -4.746859e+01  -7.875267e+01
   1.845191e+01  -1.282403e+02
   7.464272e+00  -1.283723e+02
   6.720613e+01   8.105057e+01
   5.028670e+01   7.289111e+01
  -6.446256e+01   7.119903e+01
  -1.329831e+02   4.929070e+01
  -1.360490e+02  -1.320550e+02
  -4.851093e+01  -7.258908e+01
   5.835469e+01  -5.153633e+01
   1.220017e+02   4.341104e+01
   3.111879e+01   7.263388e+01
  -6.731665e+01   9.310956e+01
  -4.148924e+01   1.543599e+01
   5.678974e+01  -2.176182e+00
   7.415009e+00   3.889147e+01
   2.068993e+01   2.812030e+01
  -3.515737e+01   6.351522e+01
  -1.490487e+02   1.112047e+02
  -6.873443e+01   5.217887e+01
   2.987578e+01  -1.150573e+02
   6.071154e+01  -1.264779e+02
   8.159868e+01  -2.566450e+01
  -4.361842e+01   7.792291e+01
   2.336877e+01   1.016246e+02
  -3.811357e+01  -6.864843e+00
  -1.144069e+01  -8.783577e+01
   3.765258e+01  -5.424464e+01
   6.410235e+01   2.466891e+01
   3.275568e+01   2.391268e+00
   4.125460e+01  -1.960516e+01
   2.025515e+01  -3.852716e+01
  -4.938453e+01   9.182352e+00
  -1.447721e+01   4.192540e+01
  -1.059041e+01   1.404180e+02
  -5.818400e+01   8.176389e+00
  -4.100459e+01  -5.548817e+01
  -6.003118e+00  -1.365951e+02
   3.683270e+01   6.796172e+00
   7.119273e+01  -2.879293e+01
   2.363045e+01   8.851141e+01
  -6.216282e+01   1.231101e+01
  -6.807826e+01  -4.820977e+01
  -3.497043e+01  -2.434125e+01
   8.140150e+01   2.757492e+01
   9.802701e+01   3.711203e+00
   4.104767e+01  -4.296631e+01
  -3.255435e+01  -2.957602e+01
  -7.473957e+01  -3.175847e+01
   3.169513e+00  -1.603174e+01
   7.856773e+01  -2.824376e+01
