
 $NMID
 id='ANONYMOUS ', fmtdat='(2E16.6)'
 volume=1.0
 tramp=1.0
 $END
   4.391427e+03   1.446404e+01
   2.554142e+03   2.673933e+03
  -6.902039e+02   2.797153e+03
  -2.151943e+03   8.585000e+02
  -8.810531e+02  -6.796001e+02
   7.273523e+02  -5.510577e+02
   9.101516e+02   4.176993e+02
  -1.111254e+02   1.068282e+03
  -8.202583e+02   7.633898e+02
  -9.219837e+02  -1.015470e+02
  -4.189851e+02  -8.748583e+02
   2.764907e+02  -8.267603e+02
   6.912574e+02  -6.270224e+01
   3.351727e+02   7.693054e+02
  -2.854649e+02   7.341265e+02
  -6.157694e+02   1.887063e+01
  -2.667338e+02  -7.006147e+02
   2.918714e+02  -6.353552e+02
   6.288179e+02  -6.343691e+01
   3.857420e+02   3.274743e+02
   1.017051e+01   4.456525e+02
  -2.725016e+02   2.145749e+02
  -2.125238e+02   5.091674e+00
   1.278606e+02  -1.199845e+02
   4.122879e+02   1.456290e+02
   1.436724e+02   4.283975e+02
  -4.792095e+02   3.700762e+02
  -8.644454e+02  -8.919714e+01
  -4.514650e+02  -5.429309e+02
   4.122923e+02  -5.391451e+02
   7.466067e+02   3.126087e+01
   3.608437e+02   5.209054e+02
  -3.159897e+02   5.583462e+02
  -6.338019e+02   2.184824e+02
  -3.781576e+02  -2.010434e+02
  -3.681194e+01  -4.948525e+02
   2.335681e+02  -2.617124e+02
   1.891909e+02   2.112721e+02
  -1.973920e+02   4.539433e+02
  -4.237427e+02  -1.018973e+01
  -2.131834e+02  -7.310460e+02
   3.678801e+02  -7.289218e+02
   6.173037e+02   5.564449e+01
   2.263434e+02   5.471549e+02
  -3.639879e+02   3.827323e+02
  -3.882288e+02  -3.497875e+02
   5.603565e+01  -5.551838e+02
   5.205414e+02  -1.330413e+02
   6.337639e+02   4.030027e+02
   1.897598e+02   6.468341e+02
  -4.206245e+02   3.228705e+02
  -6.077178e+02  -1.269336e+02
  -3.879947e+02  -4.087681e+02
   1.706108e+02  -3.865080e+02
   4.677525e+02  -3.085061e+01
   2.205302e+02   1.739816e+02
  -1.270458e+02   1.104678e+02
  -1.486547e+02  -1.462649e+02
   1.908636e+02  -1.869147e+02
   3.709802e+02   6.134199e+01
   1.309225e+02   2.728679e+02
  -2.765733e+02   2.334499e+02
  -2.918735e+02   9.784765e+01
  -2.519077e+02  -1.166034e+02
   1.498243e+01  -1.828978e+02
   2.024024e+02  -3.055939e+02
   4.036117e+02  -2.255890e+02
   3.359240e+02   8.956502e+01
   8.048391e+01   3.721944e+02
  -1.434307e+02   4.187537e+02
  -1.112675e+02   1.058187e+02
  -1.737324e+01  -5.287790e+01
   6.386283e+00   1.165183e+02
  -1.379828e+02   8.189053e+01
  -2.546226e+02  -2.364368e+01
  -1.351915e+02  -2.687637e+02
   1.517260e+02  -2.605513e+02
   2.669076e+02   1.139378e+01
   1.497006e+02   2.581065e+02
  -5.276469e+01   3.043684e+02
  -2.689345e+02   9.066355e+01
  -3.898115e+02  -1.747223e+02
  -1.941976e+02  -4.125702e+02
   8.772149e+01  -3.144973e+02
   2.667531e+02  -1.237194e+02
   1.627499e+02   1.327764e+01
   8.288831e+01   2.814574e+00
   2.517412e+02  -1.030060e+02
   3.846328e+02   2.141252e+01
   3.078074e+02   2.718873e+02
  -1.427478e+01   4.174972e+02
  -3.961976e+02   4.109474e+02
  -4.405205e+02   2.025975e+02
  -3.221139e+02  -9.480769e+01
  -8.251371e+01  -3.665038e+02
   1.158637e+02  -2.828604e+02
   1.306503e+02  -4.783360e+01
  -6.254159e+01   7.516927e+01
  -1.949772e+02  -4.423676e+01
  -2.827701e+01  -2.392547e+02
   1.259666e+02  -8.468264e+01
   1.247884e+02   6.462108e+01
  -1.062152e+01   2.235959e+02
  -2.124700e+02   3.260680e+01
  -1.281580e+02  -2.103004e+02
   4.848164e+01  -3.125998e+02
   2.652572e+02  -2.376695e+02
   3.176340e+02   6.735328e+01
   2.378814e+02   2.632119e+02
   1.223594e+02   2.312475e+02
  -1.382052e+02   1.542092e+02
  -1.671788e+02  -4.860861e+01
  -4.393629e+01  -3.222640e+00
   9.381452e+01   3.437513e+01
  -2.469908e+01   1.322987e+02
  -1.381268e+02   6.540374e+01
  -1.532901e+02  -7.793509e+01
  -1.045571e+02  -1.221275e+02
  -8.611132e+00  -3.348694e+01
   5.760680e+01   9.132089e+01
  -9.425170e+01   4.371890e+01
  -3.228931e+02   4.475323e+01
  -2.837598e+02  -1.576677e+02
  -7.952834e+01  -2.504271e+02
   2.297243e+02  -2.926944e+02
   2.827984e+02  -1.129758e+02
   1.987601e+02   3.434715e+01
   4.381437e+01   7.966986e+01
  -8.578838e+01  -3.983586e+00
   4.774964e+01  -9.678262e+01
   2.482825e+02  -3.860791e+01
   2.352423e+02   9.345025e+01
   6.309267e+01   2.198455e+02
  -1.539322e+02   1.811336e+02
  -1.189706e+02   3.071520e+01
  -1.991004e+01  -1.376379e+01
   7.029843e+01  -1.758169e+01
   1.213498e+01   8.312664e+01
  -7.820987e+01   1.942795e+02
  -2.311682e+02   3.305480e+01
  -1.634385e+02  -9.514072e+01
  -3.024389e+01  -2.258429e+02
   1.719499e+02  -1.291915e+02
   1.760195e+02   2.663237e+01
   2.014944e+01   1.650268e+02
  -7.221742e+01   1.662335e+02
  -2.813863e+01   2.386806e+01
  -4.404683e+01  -5.032814e+01
   5.640660e+01   5.181635e+01
  -4.584678e+01   2.228687e+00
  -5.848705e+01  -3.808966e+00
  -1.004321e+02  -7.941081e+01
  -1.009068e+01  -1.480479e+02
   9.231416e+01  -1.285297e+02
   2.263661e+02  -3.781735e+01
   1.904173e+02   1.415149e+02
   6.941004e+01   2.087068e+02
  -6.045138e+01   9.670041e+01
  -1.419700e+02   1.611190e+00
  -9.497966e+01  -7.157536e+01
   2.957725e+01  -8.270447e+01
  -7.318063e+01   4.257355e+01
  -8.178858e+01   5.145981e+01
  -6.118170e+01  -1.125658e+02
   6.133971e+01  -1.137537e+02
   9.362742e+01  -1.080342e+02
   9.648133e+01   2.384960e+01
   6.263775e+00   8.556292e+01
  -1.515083e+02   1.083878e+02
  -2.418644e+02  -4.394475e+01
  -1.004885e+02  -1.923992e+02
   1.559503e+02  -2.454663e+02
   2.747575e+02  -1.466928e+02
   2.781075e+02   1.224064e+02
   1.011300e+02   1.695686e+02
   8.948410e+00   1.461003e+02
  -8.688195e+01   1.070616e+02
  -3.388685e+01   5.947788e+00
  -1.052711e+02   1.241521e+02
  -1.431786e+02   6.076832e+01
  -1.073254e+02  -1.256715e+00
  -1.870745e+02  -1.896987e+02
  -5.395926e+01  -2.662470e+02
   9.214368e+01  -1.897425e+02
   1.387874e+02  -1.184589e+01
   1.174949e+02   1.083281e+02
   6.613146e+01   1.713571e+02
  -5.076679e+01   7.710751e+01
  -3.500338e+01   5.230338e+01
   2.487261e+01  -3.201214e+01
   1.190836e+01  -5.186139e+01
  -5.408295e+01  -4.532123e+01
  -1.183544e+02   7.285084e+00
  -1.922962e+01  -2.750877e+01
   8.430747e+01  -8.818055e+01
   1.752570e+02  -1.706314e+01
   1.243932e+02   7.749224e+01
  -2.792051e+01   1.312900e+02
  -1.122294e+02   7.264892e+01
  -1.884343e+02  -2.041564e+00
  -6.348236e+01  -1.601706e+01
   6.798479e+01  -2.551566e+01
   1.220050e+02   9.278199e+00
  -8.594586e+00   6.972931e+01
  -3.656098e+01   7.209125e+01
  -2.711537e+01  -4.676992e+01
  -8.768763e+01  -6.214746e+01
  -4.638683e+00  -4.029862e+01
  -7.006964e+01  -2.505395e-01
  -8.245813e+01  -2.737867e+01
  -5.168060e+01  -3.979431e+01
   1.518602e+01  -1.153772e+02
   8.641736e+01  -1.456006e+02
   1.479593e+02  -5.079687e+01
   1.523747e+02   9.409655e+01
  -1.021018e+01   1.040572e+02
  -7.190423e+01   1.168355e+02
  -3.843195e+01  -2.383007e+01
   2.117791e+01  -3.059251e+01
   1.602366e+02  -3.079052e+00
   1.333898e+02   8.458408e+01
  -7.517170e+01   1.396748e+02
  -1.797404e+02   6.395284e+01
  -1.661778e+02  -1.598947e+01
  -6.618590e+01  -1.298629e+02
   4.604180e+01  -2.638382e+01
   2.174648e+01   1.840623e+01
   1.045307e+01   6.773046e+01
  -4.722702e+01  -3.535437e+01
  -3.327220e+01  -7.121815e+01
   1.175349e+02  -1.321933e+02
   1.650172e+02  -9.623891e+01
   1.574581e+02   1.459120e+02
   1.203818e+01   2.131559e+02
  -8.326968e+01   1.598420e+02
  -1.024376e+02  -1.777022e+01
  -8.596941e+01  -1.251543e+02
   3.335886e+01  -1.039965e+02
   6.074746e+01  -1.095404e+00
   3.271438e+01   1.926023e+00
  -7.209007e+00  -2.499410e+01
  -2.405995e+01  -3.313667e+01
  -2.095670e+01   1.930462e+01
   8.776662e+01   7.567208e+01
   7.602520e+00   8.290428e+01
   2.191964e+01   9.951460e+01
  -1.441449e+02  -7.736544e+01
  -1.640338e+02  -1.674236e+01
   3.165870e+01  -3.260133e+01
   9.355432e+01  -3.900959e+01
   1.217906e+02  -3.765701e+01
   4.750731e-01  -1.674639e+00
   2.276941e+00   4.013570e+01
  -9.378621e-01   3.024757e+01
   1.123649e+01   4.748153e+01
  -8.587768e+00  -1.611685e+01
  -8.296034e+01   3.915359e+01
  -6.251177e+01  -4.068565e+01
  -5.638162e+00  -9.084348e+01
   1.671522e+02  -1.579950e+02
   2.043815e+02  -5.594282e+01
   1.890958e+02   8.350117e+01
   2.207340e+01   1.729430e+02
  -8.876135e+01   1.530459e+02
  -1.245214e+02   3.996532e+01
  -1.017255e+02  -6.704657e+01
  -7.496458e+01  -6.333999e+01
  -4.168686e+01  -4.874809e+01
  -1.731161e+01   8.157387e+01
  -4.443682e+01  -3.383796e+01
  -5.411726e+01  -1.176598e+02
   2.534763e+01  -1.255741e+02
   8.764809e+01  -1.963667e+01
   5.864148e+01   1.113751e+02
  -3.720200e+01   6.536020e+01
  -8.871960e+01   2.079811e+01
  -7.879994e+01  -6.440163e+01
   2.230877e+00  -1.097614e+02
   3.479754e+01  -6.709636e+01
   1.714137e+02   1.593175e+01
   2.155736e+01   7.534148e+01
  -4.381789e+00   6.027379e+01
  -8.918339e+01   1.188465e+01
   1.785985e+01  -1.248960e+01
   8.590071e+01   7.373530e+00
   5.079685e+01   3.140944e+01
  -2.610426e+01   4.865006e+01
  -8.998247e+01   5.044811e+01
  -1.461769e+02  -2.774342e+01
  -3.221642e+00  -7.211440e+01
   4.029123e+01  -1.038851e+02
   2.462845e+01   1.495663e+01
   3.183924e+01   7.734443e+01
  -1.420322e+01   2.595073e+01
  -2.821498e+00  -4.241043e+01
   1.635704e+01  -1.010809e+02
  -3.826716e+00  -5.118343e+01
   1.415472e+01   9.166407e+00
   4.415149e+01   5.194010e+01
   6.154542e+01  -3.827820e+00
  -1.365415e+01  -5.273744e+01
   4.209765e+00   1.722562e+01
  -4.670509e+01   4.490934e+01
  -4.707322e+01   4.424024e+01
   8.386069e+00  -1.171177e+01
  -1.765527e+01  -2.362521e+01
   1.173295e+01  -2.862936e+01
   2.294926e+01  -3.037456e+01
   6.487329e+01   7.575918e+01
  -2.445762e+00   3.178349e+01
  -8.041999e+01   7.530707e+01
  -1.018494e+02  -1.086760e+01
   5.968662e+00  -7.994436e+01
   5.157209e+01  -3.187523e+01
   1.767595e+01  -2.471986e+01
   5.949362e+01  -4.679687e+01
  -5.944865e+00  -2.517958e+01
  -6.118276e+01   7.443017e-01
   1.072034e+02  -6.574408e+00
   8.238958e+01  -3.436381e+00
