
 $NMID
 id='ANONYMOUS ', fmtdat='(2E16.6)'
 volume=1.0
 tramp=1.0
 $END
   4.631783e+03   5.918980e+01
   2.522992e+03   2.826235e+03
  -1.010983e+03   2.854143e+03
  -2.328267e+03   7.532939e+02
  -9.134298e+02  -9.168075e+02
   8.435677e+02  -5.764936e+02
   9.832827e+02   5.548996e+02
  -8.396005e+01   1.163936e+03
  -8.542135e+02   8.126754e+02
  -9.922175e+02  -1.685762e+02
  -3.873809e+02  -9.327917e+02
   3.430729e+02  -9.416967e+02
   7.379532e+02  -4.501286e+01
   3.703390e+02   7.628051e+02
  -3.290850e+02   7.750485e+02
  -6.664811e+02  -2.226980e+01
  -2.382287e+02  -7.567093e+02
   4.158648e+02  -6.553234e+02
   5.616625e+02  -8.347510e+01
   3.196926e+02   3.851001e+02
  -2.714716e+01   4.514082e+02
  -3.087334e+02   2.839719e+02
  -2.995916e+02  -6.869595e+01
   9.494543e+01  -1.356723e+02
   4.719271e+02   5.327039e+01
   2.433869e+02   4.942677e+02
  -4.863564e+02   4.697926e+02
  -8.867765e+02  -9.388511e+01
  -4.232222e+02  -5.920341e+02
   4.498036e+02  -5.442213e+02
   8.147441e+02   8.743969e+01
   4.064549e+02   5.297520e+02
  -3.287105e+02   5.577533e+02
  -6.673805e+02   1.977934e+02
  -4.760023e+02  -2.803966e+02
  -1.021776e+02  -5.580233e+02
   2.663246e+02  -3.149906e+02
   1.621668e+02   2.908548e+02
  -2.545126e+02   5.102867e+02
  -5.481796e+02   5.416435e+01
  -2.717175e+02  -7.267118e+02
   4.406243e+02  -7.701987e+02
   6.740479e+02  -1.214032e+01
   2.020702e+02   6.307642e+02
  -3.535185e+02   3.529289e+02
  -4.877343e+02  -3.798712e+02
   5.815976e+01  -5.910688e+02
   6.250705e+02  -1.741694e+02
   6.130250e+02   4.615374e+02
   1.926649e+02   6.325688e+02
  -3.822434e+02   3.795593e+02
  -6.620883e+02  -7.956810e+01
  -3.808173e+02  -4.124707e+02
   2.785502e+02  -3.611466e+02
   4.652627e+02  -5.911561e+01
   2.252040e+02   2.777252e+02
  -1.827446e+02   1.197542e+02
  -1.333464e+02  -2.212873e+02
   2.230772e+02  -2.151140e+02
   3.829047e+02   9.257779e+01
   1.749104e+02   2.862451e+02
  -1.855362e+02   2.716768e+02
  -3.381889e+02   3.120134e+01
  -2.005679e+02  -1.333321e+02
  -1.820077e+01  -2.275430e+02
   2.548671e+02  -3.807153e+02
   3.445071e+02  -2.753241e+02
   2.987572e+02   6.027376e+01
   5.753301e+01   4.503550e+02
  -1.261449e+02   3.861496e+02
  -1.352623e+02   1.043328e+02
   2.798930e+00  -6.605724e+01
   7.210969e+00   8.938679e+01
  -1.804656e+02   1.451709e+02
  -2.788646e+02  -5.055807e+01
  -1.515691e+02  -3.136661e+02
   2.111859e+01  -2.620684e+02
   2.313171e+02  -2.972128e+01
   2.094249e+02   2.199060e+02
  -1.101347e+01   3.338660e+02
  -2.925928e+02   1.363540e+02
  -3.787848e+02  -1.285919e+02
  -2.255551e+02  -3.922767e+02
   8.902204e+01  -3.389406e+02
   2.389828e+02  -1.490207e+02
   1.565247e+02   2.679967e+01
   8.494442e+01  -3.322316e+01
   2.452808e+02  -5.008423e+01
   3.826056e+02   7.466356e+01
   3.002707e+02   2.587330e+02
   5.543760e+01   4.183443e+02
  -3.707667e+02   4.807917e+02
  -4.701857e+02   2.094489e+02
  -3.129862e+02  -7.589289e+01
  -5.403998e+01  -3.140856e+02
   1.208122e+02  -2.418192e+02
   1.289130e+02   5.590905e+00
  -8.777084e+01   9.779730e+01
  -2.393830e+02   7.859625e+00
  -2.117962e+00  -2.115213e+02
   1.908247e+02  -1.871939e+02
   2.228064e+02   8.134714e+01
  -1.980767e+01   1.379620e+02
  -1.790725e+02   6.058000e+01
  -1.219603e+02  -2.569897e+02
  -1.232458e+01  -4.128373e+02
   2.579419e+02  -2.075681e+02
   3.335569e+02   3.289967e+00
   2.653260e+02   2.481065e+02
   1.167028e+02   2.318655e+02
  -7.486166e+01   2.163297e+02
  -2.150397e+02   5.835875e+01
  -2.687536e+01  -5.125163e+01
   7.098329e+01  -7.118732e+00
   4.689693e+01   1.009041e+02
  -1.390170e+02   5.783015e+01
  -1.600825e+02  -1.629304e+01
  -1.236411e+02  -1.357131e+02
   7.104183e+01  -7.827550e+01
   9.878086e+01   3.429079e+01
  -1.039877e+02   1.099619e+02
  -2.941830e+02   1.101055e+01
  -1.837872e+02  -1.642211e+02
  -6.550489e+00  -2.606247e+02
   1.505455e+02  -3.073879e+02
   3.256327e+02  -8.907119e+01
   2.187781e+02   7.705704e+01
  -6.002274e+01   9.602258e+01
  -1.387672e+02  -4.916092e+01
  -9.811980e+00  -7.440670e+01
   2.455519e+02  -8.937881e+01
   1.891903e+02   1.405151e+02
  -2.551630e+01   2.151335e+02
  -1.210687e+02   1.278012e+02
  -1.928702e+02   1.186155e+01
  -6.325098e+01  -4.212999e+01
   7.433801e+01   3.821569e+01
   2.598069e+01   5.663462e+01
  -4.793902e+01   8.248870e+01
  -2.034921e+02   2.926898e+01
  -2.190424e+02  -1.532488e+02
  -3.196696e+01  -2.712365e+02
   1.544963e+02  -1.878605e+02
   2.019252e+02  -1.730700e+01
   3.584634e+01   1.017553e+02
  -1.125572e+02   1.260174e+02
  -1.240914e+02   7.204626e+01
  -3.846243e+01  -3.073944e+01
   1.862727e+01  -7.283774e+00
  -2.284583e+01   2.147680e+01
  -7.782641e+01  -4.987665e+01
  -1.174990e+02  -9.088743e+01
  -6.865892e+01  -6.928228e+01
   5.298868e+01  -1.309241e+02
   2.018877e+02  -6.208420e+01
   1.975802e+02   1.713140e+02
   2.129757e+01   2.378952e+02
  -1.101271e+02   1.964240e+02
  -1.342621e+02   5.634239e+01
  -2.301696e+01  -5.746980e+01
  -3.350366e+01  -2.779072e+01
  -1.910897e+01  -6.815041e+01
  -1.043933e+02   4.321866e+01
  -3.319998e+00  -6.012682e+01
   2.669481e+01  -1.040353e+02
   1.307400e+02  -2.526645e+01
   1.315869e+02  -1.049908e+01
   1.735488e+01   3.454154e+01
  -1.694287e+02   7.399758e+01
  -1.566788e+02  -2.308612e+01
  -1.125863e+02  -2.173407e+02
   1.180688e+02  -2.450890e+02
   2.934720e+02  -9.806510e+01
   2.662120e+02   7.489342e+01
   1.174810e+02   1.967536e+02
  -2.290253e+00   1.632716e+02
  -1.298670e+02   1.029730e+02
  -4.545418e+01   7.170747e+01
  -1.174010e+02   8.467330e+01
  -2.926970e+01   1.062274e+02
  -1.341317e+02  -3.802234e+01
  -1.229651e+02  -1.391582e+02
  -5.457083e+00  -2.187090e+02
   9.886324e+01  -1.633342e+02
   2.546400e+02  -4.186485e+01
   1.292063e+02   1.027454e+02
   2.071499e+01   1.942833e+02
  -5.719797e+01   9.864771e+01
  -5.718282e+01   3.620367e+01
  -3.869338e+01  -3.521563e+01
   4.587097e+01  -2.442633e+01
   1.767358e+01  -8.150568e+00
  -1.283613e+02   8.911287e+00
  -1.154075e+02  -3.501703e+01
   5.097454e+01  -2.829984e+01
   2.046759e+02   4.786482e+01
   1.137625e+02   8.604309e+01
  -4.294578e+00   1.165761e+02
  -1.041885e+02   1.215747e+02
  -1.168713e+02   6.304029e+01
  -1.002199e+02  -2.841163e+01
   1.155191e+02  -1.907884e+01
   1.010491e+02   6.653158e+00
  -4.321999e+00   5.534194e+01
  -5.097034e+01   5.183660e+01
  -8.029356e+01   3.008985e+01
  -6.216509e+01  -1.137701e+02
  -1.940228e+01  -5.187115e+01
  -7.343760e+01  -1.396739e+01
  -2.776176e+01   4.101604e+01
  -5.660020e+00  -3.622118e+01
   7.756056e+01  -1.835089e+02
   9.979570e+01  -1.412113e+02
   1.933739e+02  -7.423539e+01
   7.343277e+01   1.145115e+02
   5.881980e+01   1.750111e+02
  -1.068894e+02   2.202853e+01
  -2.832299e+01   2.810793e+01
   9.583705e+01  -4.783162e+00
   1.659118e+02   8.779798e+01
   1.197703e+02   1.167086e+02
  -9.656557e+01   1.513101e+02
  -1.660350e+02   2.781315e+01
  -1.344941e+02  -6.470328e+00
  -3.961171e+01  -7.400958e+01
   7.794302e+01  -4.534095e+01
   2.249206e+01  -4.082924e+01
  -3.436880e+01  -4.858833e+00
  -1.228273e+02  -7.604490e+01
  -8.988423e+01  -1.148640e+02
   7.863531e+01  -8.255991e+01
   7.341988e+01  -7.811592e+01
   8.118918e+01   8.580169e+01
  -3.728815e+01   1.858761e+02
  -7.788569e+01   2.140336e+02
  -1.281908e+02  -3.689557e+01
  -4.244623e+01  -1.461758e+02
   5.116544e+01  -5.474719e+01
   7.259494e+00  -4.318978e+01
   8.537094e+01   5.494092e+01
   8.751620e+00   5.168490e+01
   4.806459e+01  -2.400864e+01
   5.536326e+01  -3.488239e+01
   1.656259e+01   1.336697e+02
   1.082503e+02   9.352885e+01
   1.498026e+00   6.120886e+01
  -1.260132e+02  -6.262361e+01
  -1.685936e+02  -1.025088e+02
  -4.450328e+01  -4.264231e+01
   1.579125e+02  -3.392306e+01
   8.449920e+01   1.342581e+01
  -1.616706e+00   1.136665e+01
  -4.942223e+01   3.073685e+01
   4.290481e+00  -1.086132e+00
   4.164599e+00   2.388097e+01
   4.557912e+01  -4.187908e+01
  -5.805820e+01  -3.913103e+01
  -1.486402e+02  -1.444339e+01
   4.724843e+01  -6.672288e+01
   1.562874e+02  -1.020766e+02
   1.730873e+02  -4.733758e+01
   1.217394e+02   5.183482e+01
   2.819205e+01   1.407515e+02
  -3.903905e+01   9.372110e+01
  -4.621514e+01   6.602704e+01
  -1.614755e+02  -6.932600e+01
  -4.913068e+01  -1.777475e+01
  -1.633229e+01   6.130526e+01
  -4.456646e+00   1.126699e+01
  -3.539145e+00  -8.835916e+01
  -5.534849e+01  -6.023193e+01
  -3.542874e+00  -7.020689e+01
   8.469648e+01   2.175982e+01
   8.134740e+01   8.371337e+01
   1.964690e+01   9.082530e+01
  -1.355792e+02  -1.302749e+01
  -7.984970e+01  -4.845326e+01
  -2.278311e+01  -1.349408e+02
   5.699242e+01  -4.925908e+01
   9.320707e+01  -1.509187e+01
   1.546999e+01   4.277118e+01
   3.266769e+01   7.092334e+01
  -9.509531e+00   3.647890e+01
   3.404806e+01   6.592041e+01
  -4.291488e-01  -2.267053e+01
   2.842868e+01  -1.378508e+01
  -5.855225e+01   2.748781e+01
  -1.253889e+02   9.842224e+01
  -6.352127e+01   1.612496e+01
   2.487172e+01  -1.170229e+02
   3.400004e+01  -1.217870e+02
  -2.601780e+01  -2.515355e+01
   8.029876e+00   6.864672e+01
  -5.293038e+01   5.051798e+01
  -4.133005e+01  -1.781686e+01
  -6.818002e+00  -8.113803e+01
   1.633618e+01  -1.349013e+01
   2.566175e+00  -1.903160e+00
   4.067288e+01   5.624455e+01
   2.360126e+01   3.344626e+01
  -9.410424e+00   2.176642e+01
  -1.676454e+01  -1.853783e+01
  -4.254452e+01   4.650045e+01
  -5.577158e+01   1.278313e+01
  -7.601149e+01   1.904601e+01
   3.948699e-01  -6.770249e+01
   2.936824e+01  -4.880391e+01
   9.341023e+01  -6.333048e+01
   5.982538e+01   8.586904e+01
   4.980648e+01   6.392152e+01
  -4.539051e+01   1.366684e+01
  -1.330012e+02  -2.253152e+01
  -7.091481e+00  -4.996146e+01
   7.893792e+01  -3.631477e+01
   3.329838e+01  -2.556912e+01
   1.123595e+00  -2.037716e+01
  -3.301570e+01   1.459927e+01
  -3.232405e+01  -2.109218e+01
   2.882125e+01  -3.899246e+01
   1.476345e+01  -2.968710e+00
