
 $NMID
 id='ANONYMOUS ', fmtdat='(2E16.6)'
 volume=1.0
 tramp=1.0
 $END
  -3.645251e+03   4.841615e+01
  -2.289420e+03  -1.975863e+03
   2.668210e+02  -2.313451e+03
   1.632509e+03  -1.207991e+03
   9.219288e+02   1.452246e+02
  -2.634668e+02   3.579996e+02
  -5.841066e+02  -2.168471e+02
  -6.903239e+01  -7.892615e+02
   5.936077e+02  -6.666014e+02
   7.759492e+02   4.794256e+01
   4.125203e+02   6.037496e+02
  -4.918017e+01   7.520929e+02
  -5.119041e+02   1.495995e+02
  -2.994924e+02  -6.114811e+02
   1.919823e+02  -5.890013e+02
   5.031731e+02  -1.054019e+02
   2.478835e+02   5.218532e+02
  -1.619782e+02   5.632255e+02
  -5.310010e+02   2.119755e+02
  -3.900442e+02  -2.831041e+02
  -5.794622e+01  -3.099630e+02
   1.715738e+02  -2.009921e+02
   1.394776e+02  -1.087845e+02
  -1.465469e+02  -5.856367e+01
  -3.594447e+02  -2.289700e+02
   1.244285e+01  -3.802475e+02
   4.347666e+02  -2.310527e+02
   7.005956e+02   1.175551e+02
   4.091880e+02   3.906571e+02
  -3.198646e+02   3.012381e+02
  -5.522103e+02  -7.002832e+01
  -2.676622e+02  -4.131014e+02
   2.383456e+02  -4.096222e+02
   4.912376e+02  -1.452358e+02
   3.906626e+02   1.852290e+02
   5.876065e+01   3.671539e+02
  -9.568836e+01   1.971038e+02
  -1.562909e+01  -1.976112e+02
   2.102677e+02  -3.058299e+02
   2.918628e+02   9.506987e+01
   1.106405e+02   5.625792e+02
  -2.248436e+02   5.927285e+02
  -3.342470e+02  -3.105321e+01
  -2.085208e+02  -3.792682e+02
   2.394561e+02  -2.203009e+02
   2.489728e+02   2.575905e+02
  -1.312832e+02   4.398342e+02
  -5.292135e+02   1.522412e+02
  -4.472964e+02  -3.955845e+02
  -1.236972e+02  -5.369426e+02
   3.369264e+02  -2.565346e+02
   5.675985e+02   8.093527e+01
   3.434051e+02   3.071897e+02
  -1.085136e+02   2.463347e+02
  -3.144419e+02   1.018203e+02
  -1.819486e+02  -1.110525e+02
   9.741263e+01  -4.681782e+01
   9.136958e+01   9.806478e+01
  -1.392397e+02   2.999473e+01
  -2.619585e+02  -2.725973e+00
  -1.947269e+02  -2.245891e+02
   1.785070e+02  -2.854761e+02
   3.217205e+02  -1.058201e+02
   2.510958e+02   8.321487e+01
  -2.275712e+01   2.484270e+02
  -2.884815e+02   3.660844e+02
  -3.110862e+02   1.784102e+02
  -2.767470e+02  -1.571171e+02
  -4.363789e+01  -3.984625e+02
   7.436393e+01  -3.628281e+02
   5.590536e+01  -1.791429e+02
   2.149227e+01  -6.424887e+01
   1.675822e+02  -1.107285e+02
   2.199650e+02  -7.444366e+01
   2.331787e+02   1.376988e+02
   1.095298e+02   2.449984e+02
  -2.052656e+01   2.198662e+02
  -2.239683e+02   2.169386e+01
  -1.751989e+02  -1.794941e+02
   4.572386e+01  -2.391777e+02
   2.397140e+02  -1.534394e+02
   3.927022e+02   1.905983e+02
   1.583747e+02   2.841446e+02
  -6.821982e+01   2.015348e+02
  -2.081085e+02   1.330347e+02
  -1.482963e+02  -3.000520e+01
  -1.556785e+02   2.502307e+01
  -2.229172e+02   6.033207e+01
  -3.903028e+02  -7.791568e+01
  -2.619298e+02  -2.419460e+02
   5.379140e+01  -4.433167e+02
   3.094534e+02  -4.577524e+02
   4.506396e+02  -1.629814e+02
   3.055098e+02   5.047993e+01
   2.143296e+01   2.217247e+02
  -4.703360e+01   2.319977e+02
  -2.610119e+01   2.879162e+01
   1.248221e+02  -8.322340e+01
   1.059879e+02   1.907802e+01
   4.262825e+01   1.479472e+02
  -2.051854e+02   8.852626e+01
  -1.489118e+02  -2.636965e+01
   4.568043e+01  -1.370876e+02
   1.395298e+02  -2.168808e+01
   1.522171e+02   2.187564e+02
  -1.595694e+01   3.422614e+02
  -2.332963e+02   1.497362e+02
  -3.587062e+02   3.507747e+01
  -2.360678e+02  -1.764747e+02
  -4.838964e+01  -3.243561e+02
   9.208318e+01  -1.437358e+02
   1.334712e+02   2.923860e+01
   4.931185e+01   3.538326e+01
  -3.618985e+01  -6.982428e+01
  -4.545887e+01  -1.892368e+02
   8.101662e+01  -1.270817e+02
   1.121464e+02   4.305874e+01
   7.040117e+01   9.118669e+01
  -1.331816e+02  -2.514058e-01
  -3.402704e+01  -2.023151e+01
   1.629367e+02  -7.792269e+01
   3.032843e+02   6.371756e+00
   2.665535e+02   1.279187e+02
   1.022491e+02   2.115350e+02
  -1.980215e+02   2.466920e+02
  -2.607810e+02   1.030329e+02
  -1.372421e+02  -1.586219e+01
   5.725417e+00  -9.061425e+01
   7.237944e+01  -3.588934e+01
  -6.972357e+01   6.990778e+01
  -2.113865e+02  -4.381000e-01
  -2.159304e+02  -4.105350e+01
  -5.888471e+01  -1.587246e+02
   3.593882e+01  -1.376881e+02
   1.045566e+02   5.520233e+00
   5.206664e+01   9.068443e+01
  -4.781020e+01   1.705109e+01
  -1.724477e+00  -9.158045e+01
   1.253910e+02  -9.684478e+01
   2.010638e+02   1.498643e+00
   1.963171e+02   1.479228e+02
   2.273941e+01   1.616493e+02
  -1.271104e+02   1.716157e+02
  -1.965859e+02  -2.786811e+01
  -4.897255e+00  -1.050453e+02
   3.230049e+01  -1.062372e+02
   1.102350e+02  -3.979518e+01
  -3.909640e+01  -4.059719e+01
  -4.242069e+01   6.549803e+00
   7.997565e+01  -2.143605e+01
   1.086698e+02   2.609654e+01
   1.441544e+02   1.207563e+02
  -1.679713e+00   1.139342e+02
  -1.227563e+02   1.522384e+02
  -2.311667e+02   9.701087e+00
  -2.081531e+02  -1.836211e+02
  -3.984111e+01  -2.122141e+02
   1.266332e+02  -1.038735e+02
   7.116083e+01  -1.476740e+01
   9.355594e+01   2.128118e+01
   2.655242e+01   4.635220e+01
  -1.330244e+01   1.414027e+01
   1.393444e+02  -2.762190e+01
   6.440767e+01   5.679626e+01
  -7.280759e+01   5.936995e+01
  -1.648888e+02   2.886677e+01
  -1.134221e+02  -3.846605e+01
   5.011568e+00  -1.790177e+02
   1.349385e+02  -8.632994e+01
   2.108445e+02   8.632525e+01
   4.165244e+01   2.238339e+02
  -1.659987e+02   2.140766e+02
  -2.540430e+02   1.029350e+02
  -2.969517e+02  -4.377900e+01
  -1.007247e+02  -1.809238e+02
   6.025516e+01  -1.108213e+02
   1.153484e+02  -4.247302e+01
   7.871182e+01  -1.545877e+01
   6.733502e+00  -1.335049e+02
   7.350262e+01  -6.510603e+01
   1.436661e+02   4.549796e+01
   9.594954e+01   1.848199e+02
   2.908411e+01   2.253970e+02
  -1.351998e+02   2.043581e+02
  -2.082313e+02   2.143619e+01
  -7.934279e+01  -1.173294e+02
   3.377600e-01  -1.661228e+02
   3.639235e+01  -1.010892e+02
   4.908375e+01  -1.915440e+00
  -3.898448e+01  -1.007713e+01
  -3.420343e+01   2.105038e+01
   6.599630e+01   8.176635e+01
   7.862565e+01  -5.817115e+00
   1.085913e+02   3.523998e+01
  -2.547175e+01   8.849394e+01
  -1.531433e+02   1.013831e+01
  -1.256618e+02  -2.076504e+01
   2.678560e+01  -9.923882e+01
   1.304201e+02  -1.230895e+02
   1.172073e+02   2.777483e+01
   2.415762e+01   1.051586e+02
  -5.420566e+01   1.463338e+01
  -1.583336e+02  -3.080721e+01
  -2.297000e+01  -1.250298e+02
   6.720978e+01  -2.952510e+01
   8.840964e+01   6.115939e+00
   1.025720e+02   2.667358e+01
   2.301172e+01   4.929719e+01
   9.141503e+01   6.986551e-01
   6.475143e+01  -4.139269e+01
   4.138468e+01  -1.081688e+01
  -5.815891e+01   9.092801e+01
  -8.548177e+01   1.667182e+02
  -1.806988e+02  -3.251254e+01
  -9.711590e+01  -8.628587e+01
   1.808920e+01  -1.078671e+02
   8.179920e+01  -7.507314e+01
   9.524591e+01  -3.449023e+01
  -2.815171e+01   2.339427e+00
  -1.289010e+02  -1.625641e+01
  -2.888189e+01  -2.874177e+01
   1.086057e+02  -1.373103e+02
   1.866966e+02  -6.733762e+01
   1.827160e+02   2.905595e+01
   3.911358e+01   6.428198e+01
  -6.277920e+01   1.230889e+02
  -7.406521e+01   1.120625e+01
  -2.583294e+01  -4.221866e+01
   1.032775e+02  -6.804304e+00
   1.880809e+01   8.871999e+01
  -8.602400e+01   1.658074e+02
  -1.445318e+02   1.370602e+01
  -1.072992e+02  -1.469798e+02
  -6.389485e+01  -1.765561e+02
   1.023052e+02  -1.255429e+02
   1.273691e+02   2.581602e+01
   1.101669e+02   8.521685e+01
  -3.256947e+01   1.296662e+02
  -6.915844e+01  -1.515356e+00
  -4.607843e+00  -2.741711e+01
   2.906953e+01  -1.423842e+00
   4.145457e+00   7.735836e+01
   4.072705e+00  -4.007379e+01
  -1.162335e+02  -3.162047e+01
  -1.304599e+01  -8.504370e+01
  -6.652204e+00   3.181024e+00
   1.651550e+02   5.425056e+01
   1.319005e+02   7.316423e+01
   3.168185e+01   7.608649e+01
  -1.235861e+02   5.906920e+01
  -6.901873e+01  -1.994320e+01
  -3.885975e+01   2.500750e+01
   4.763060e+01  -5.160061e+01
   1.985604e+01   1.643413e+01
  -2.336710e+01   2.589472e+01
   4.082279e+01   3.095980e+01
   7.198102e+01   1.129108e+01
   1.277503e+02  -4.573376e+01
   2.464670e+01   1.579900e+02
  -1.170006e+02   1.067967e+02
  -2.154551e+02   7.136973e+01
  -1.955590e+02  -9.855941e+00
  -6.588471e+01  -1.952674e+02
   8.461749e+01  -1.409360e+02
   1.070639e+02  -6.205929e+01
   8.019628e+01   4.069164e+01
   1.331977e+01   6.173321e+01
   3.591349e+01   8.768362e+01
   1.214985e+01  -1.828668e+01
  -2.207838e+01   4.749619e+01
   2.100337e+01   9.195530e+01
  -6.372803e+00   7.135729e+01
  -1.069147e+02  -2.668088e+01
  -2.359953e+01  -1.094685e+02
   2.725435e+01  -8.264267e+01
   8.133003e+01  -1.074312e+01
   1.654938e+02   8.210515e+00
   6.819304e+01   9.994966e+01
  -9.589737e+01   9.550391e+01
  -1.066218e+02   3.856369e+00
  -1.384976e+02  -4.284992e+01
   2.869668e+01  -1.658223e+01
   9.401298e+01  -9.345096e+00
  -6.828006e+00   4.977669e+01
  -6.679371e+01   3.284160e+00
   2.794736e+01  -1.741872e+01
   7.808525e+01  -6.812262e+00
   1.411551e+02  -6.382492e+01
   7.992125e+01   5.643891e+01
  -2.392153e+00   1.020848e+02
  -8.375676e+01   6.808916e+01
  -2.834351e+01   4.278902e+00
  -2.665711e+01  -2.624797e+01
   1.104198e+02  -2.592942e+01
   6.862519e+01  -4.078395e-01
   2.238259e+01   5.295075e+01
  -2.934156e+01   3.896620e+01
  -7.726654e+01   7.300364e+00
  -3.923098e+01  -1.970096e+01
   9.207465e+00  -6.565743e+00
   2.427039e+01   3.472356e+01
  -2.620793e+01  -4.420104e+01
  -5.296160e+01  -1.799192e+01
   8.285158e+00  -8.538204e+01
   5.630205e+01   1.373984e+00
   4.819592e+01   2.689320e+01
   1.958664e+01   1.055306e+02
   1.068082e+01   8.192979e+00
  -4.938972e+01   1.746518e+00
  -4.127435e+00  -5.270101e+01
   1.831212e+01  -3.834045e+01
   1.196427e+02   3.979646e+00
   2.725698e+01   7.623169e+00
  -1.847723e+01   3.618241e+01
  -1.099454e+02   7.054173e+01
  -7.465153e+01  -5.647294e+00
  -6.899815e+00   7.383006e+00
   4.349578e+01   3.294306e+01
   2.384477e+01   2.279179e+01
  -8.906382e+01   1.786164e+01
