
 $NMID
 id='ANONYMOUS ', fmtdat='(2E16.6)'
 volume=1.0
 tramp=1.0
 $END
  -3.420987e+03   8.849653e+01
  -2.284170e+03  -1.741473e+03
   1.034161e+02  -2.223863e+03
   1.365002e+03  -1.266474e+03
   9.691537e+02  -8.525257e+01
  -9.382755e+01   2.677571e+02
  -4.607078e+02  -1.066749e+02
  -6.322869e+01  -6.322788e+02
   5.279407e+02  -5.828898e+02
   6.807144e+02  -3.266750e+01
   4.261938e+02   6.133635e+02
   9.330318e+00   6.742173e+02
  -3.367307e+02   2.235934e+02
  -3.169457e+02  -4.994637e+02
   1.004739e+02  -6.111059e+02
   4.555588e+02  -5.116747e+01
   3.204486e+02   5.499022e+02
  -1.395181e+02   6.470702e+02
  -4.807554e+02   1.993850e+02
  -3.856701e+02  -2.502149e+02
  -1.337701e+02  -3.567375e+02
   1.715703e+02  -3.021412e+02
   1.114705e+02  -1.142441e+02
  -1.848152e+02  -5.336862e+00
  -2.891405e+02  -2.331733e+02
  -4.748291e+01  -2.894765e+02
   4.745432e+02  -2.319699e+02
   6.292976e+02   1.779382e+02
   2.622248e+02   3.748916e+02
  -2.650753e+02   2.495953e+02
  -5.521178e+02  -1.028473e+02
  -2.232673e+02  -4.243398e+02
   2.259845e+02  -3.548497e+02
   5.051375e+02  -1.209091e+02
   3.543849e+02   2.304687e+02
   9.816328e+01   3.141610e+02
  -1.394914e+00   1.915821e+02
  -3.858839e+01  -8.168256e+01
   2.057804e+02  -1.733130e+02
   1.244855e+02   8.637646e+01
   1.075005e+02   4.900310e+02
  -2.706865e+02   5.173630e+02
  -3.523307e+02   2.542501e+01
  -1.405511e+02  -3.722119e+02
   1.422049e+02  -1.877520e+02
   2.369448e+02   3.059710e+02
  -1.409683e+02   3.995206e+02
  -4.749187e+02   4.001248e+01
  -4.880631e+02  -3.571684e+02
  -1.522929e+02  -5.599383e+02
   2.202669e+02  -2.853460e+02
   5.460084e+02   2.548959e+01
   4.134843e+02   2.277190e+02
  -1.258051e+02   2.448809e+02
  -2.714061e+02   1.915665e+01
  -1.869930e+02  -5.581585e+01
  -5.928597e+00  -2.887890e+01
   7.123240e+01   4.377850e+01
  -1.379694e+02   9.921928e+01
  -2.413071e+02  -5.737947e+01
  -1.421121e+02  -1.928690e+02
   1.580461e+02  -2.185178e+02
   3.988410e+02  -1.094081e+02
   2.964410e+02   1.327070e+02
   6.867033e+00   2.889106e+02
  -2.417490e+02   3.629613e+02
  -4.183780e+02   2.079510e+02
  -2.277284e+02  -1.642140e+02
  -9.471785e+01  -3.814718e+02
   4.789958e+01  -3.275898e+02
   3.999564e+01  -1.651987e+02
   5.107735e+01  -2.937992e+01
   7.841764e+01  -6.581405e+01
   2.527133e+02  -9.238666e+01
   2.526981e+02   1.290150e+02
   6.958991e+01   2.679738e+02
  -6.319351e+01   1.847789e+02
  -2.085319e+02   1.105859e+01
  -2.140175e+02  -2.646747e+02
   5.391545e+01  -2.272664e+02
   2.281494e+02  -1.203874e+02
   2.896363e+02   9.750197e+01
   1.954361e+02   3.091204e+02
  -1.046431e+02   2.532400e+02
  -2.746502e+02   8.784725e+01
  -1.375599e+02   8.441827e+01
  -1.241211e+02   3.585440e+01
  -2.474927e+02   9.282609e+01
  -3.765164e+02  -8.082941e+01
  -3.003295e+02  -3.141691e+02
  -3.438102e+00  -3.855662e+02
   3.417529e+02  -4.004137e+02
   4.838473e+02  -1.288855e+02
   3.012419e+02   1.164597e+02
   5.952806e+01   2.363409e+02
  -7.752333e+01   1.882332e+02
  -1.625844e+01   3.753651e+01
   1.265082e+02  -7.536447e+01
   1.017161e+02   9.767079e+00
   2.544421e+01   1.729899e+02
  -6.432039e+01   1.313620e+02
  -1.315465e+02  -2.274519e+01
  -2.267185e-01  -1.774875e+02
   1.601964e+02  -3.195542e+00
   1.522302e+02   2.403799e+02
  -5.482600e+01   3.485137e+02
  -2.458883e+02   2.032504e+02
  -3.452237e+02  -6.122642e+00
  -3.121485e+02  -2.666721e+02
  -5.282086e+01  -3.268817e+02
   8.233634e+01  -1.372941e+02
   1.291179e+02   2.190911e-02
   5.068382e+01   2.699913e+01
  -1.105292e+02  -3.483825e+00
  -2.906427e+01  -1.300583e+02
   1.114980e+02  -2.055960e+01
   1.082213e+02   4.285855e+01
   9.554460e+01   7.400229e+01
  -6.480266e+01  -1.305514e+01
  -5.322195e+01  -7.075971e+01
   1.220908e+02  -1.002332e+02
   2.758651e+02   2.805929e+01
   3.097183e+02   1.149563e+02
   1.053312e+02   2.643006e+02
  -1.823011e+02   2.841520e+02
  -2.412189e+02   1.202939e+02
  -1.453417e+02   8.393491e-01
   5.389920e+01  -1.176209e+02
   5.085479e+01   2.624008e+01
  -8.604565e+01   7.445312e+01
  -2.438197e+02   4.127747e+01
  -2.157163e+02  -1.294012e+02
  -3.308807e+01  -2.099283e+02
   9.590222e+01  -1.055221e+02
   1.516383e+02  -1.076269e+02
   4.721972e+01   2.269568e+01
  -5.513731e+01  -1.196335e+01
   3.929207e+01  -1.046423e+02
   6.285370e+01  -1.508009e+02
   2.499847e+02  -3.643313e+01
   1.360192e+02   1.039650e+02
   1.248382e+01   1.949022e+02
  -1.244455e+02   1.233911e+02
  -2.050194e+02   4.470997e+01
  -3.332573e+01  -1.574662e+02
   1.343399e+02  -1.161600e+02
   1.037650e+02  -7.290318e+01
   3.057528e+01  -6.201407e+01
  -6.436363e+01   8.383304e+00
   3.580490e+01  -3.322384e+01
   6.427860e+01   2.125956e+00
   7.574151e+01   1.038274e+02
   4.655929e+01   1.697149e+02
  -1.013423e+02   1.467819e+02
  -1.953228e+02   4.558545e+01
  -9.972666e+01  -2.013410e+02
  -3.214285e+01  -2.429576e+02
   1.637301e+02  -1.642623e+02
   1.722960e+02  -5.219849e+01
   8.437847e+01   6.918980e+01
   4.837433e+01   2.278553e+01
   8.125701e+01  -7.758584e+00
   8.780888e+01   6.244697e+01
   9.003950e+01  -7.825598e+00
  -6.705794e+00   8.805277e+01
  -1.378123e+02   6.357892e+01
  -1.453255e+02  -9.431378e+01
   4.681922e+01  -1.105588e+02
   1.854697e+02  -1.080263e+02
   2.487595e+02   5.694879e+01
   1.444943e+02   2.059788e+02
  -1.248668e+02   2.928003e+02
  -2.265197e+02   4.495692e+01
  -2.126153e+02  -1.197671e+02
  -5.616750e+01  -1.352849e+02
   2.845424e+01  -1.390915e+02
   1.128312e+02  -1.116479e+02
   1.559431e+01  -4.743990e+01
   7.815852e+01  -1.196453e+02
   8.775374e+01  -6.263694e+01
   1.243303e+02   2.053016e+01
   9.112645e+01   1.981019e+02
   2.617442e+01   2.043074e+02
  -5.989464e+01   1.863345e+02
  -1.693380e+02  -1.418536e+01
  -1.333643e+02  -8.275544e+01
   2.923870e+01  -1.175982e+02
   5.725706e+01  -1.023517e+02
   9.787080e+01  -3.185678e+00
  -5.692061e+01   6.922845e+00
  -5.866492e+01   9.460931e+01
  -2.431707e+01   8.711521e+00
   6.524867e+01  -2.266385e+00
   2.563653e+01   1.195542e+01
  -6.594181e+01   4.033846e+01
  -1.290360e+02   1.640409e+01
  -1.474375e+02  -8.604155e+01
   2.639575e+01  -8.293986e+01
   1.075785e+02  -5.882710e+01
   1.067216e+02  -2.074424e+01
   8.482220e+01   3.879219e+01
  -3.236859e+01  -5.052384e+00
  -4.921616e+01  -2.616704e+01
  -5.062353e+01  -1.310599e+02
   5.073541e+01  -6.712496e+01
   8.390162e+01  -4.964279e+01
   3.498708e+01   6.979391e+01
   4.086348e+01   7.516211e+01
   1.039847e+02   2.852513e+01
   5.224744e+01  -2.608706e+01
  -9.744687e+00   8.775805e+01
  -4.940234e+01   1.274386e+02
  -1.377474e+02   1.844428e+02
  -2.229540e+02   6.447958e+01
  -1.205773e+02  -7.483629e+01
  -4.923512e+01  -8.644170e+01
   8.600958e+01  -4.495257e+01
   1.078912e+02   3.822775e+01
  -8.640214e+01   3.816069e+01
  -1.792552e+02   3.512176e+00
  -9.937685e+01  -8.904348e+01
   1.377191e+02  -1.489619e+02
   2.083480e+02  -1.493191e+01
   1.307902e+02   4.151646e+01
  -1.404819e+01   9.207667e+01
  -1.992792e+01   7.715366e+01
  -4.801570e+01  -4.793042e+01
   7.459842e+00  -6.239046e+01
   5.956020e+01   4.273551e+00
  -8.073066e+00   7.716626e+01
  -6.673740e+01   1.639993e+02
  -1.818031e+02   1.172153e+02
  -1.257177e+02  -1.163369e+02
  -4.580927e+01  -1.550379e+02
   9.901727e+01  -1.110403e+02
   9.949753e+01   4.425689e+00
   1.171602e+02   1.078221e+02
   3.360525e+01   9.825976e+01
  -2.342393e+01  -1.029771e+01
  -1.854594e+01  -2.827636e+01
  -1.611535e+01  -3.640474e+00
   8.396163e+00  -2.348216e+01
  -6.075273e+01  -2.826822e+01
  -2.670136e+01  -8.366761e+01
  -3.458051e+01  -8.312077e+01
   8.353894e+01  -4.624569e+01
   1.511237e+02   3.096451e+01
   8.278686e+01   1.137338e+02
   3.698767e+01   2.357032e+01
  -6.626521e+01  -2.115148e+01
  -1.268008e+02   5.689163e+00
  -4.621505e+01  -1.857242e+01
   8.360848e+01  -3.329567e+00
   4.111173e+01   1.657096e+01
   1.575752e+01  -2.063217e+01
   2.216921e+01   1.990226e+01
   7.752515e+01   2.020215e+01
   5.912175e+01   3.991399e+01
   2.680366e+01   3.946486e+01
  -1.057191e+02   1.091342e+02
  -2.269340e+02   1.158278e+02
  -1.181608e+02  -9.108770e+01
  -6.360907e+01  -1.517379e+02
   5.874193e+01  -2.020783e+02
   1.162452e+02  -1.082414e+02
   7.212115e+01   7.838593e+00
   1.324158e+01   3.958666e+01
  -4.109322e+01  -4.690435e+01
   6.038834e+01  -4.847430e+00
   5.555029e+01   5.176592e+01
  -1.083516e+01   5.263707e+01
  -6.633188e+01   9.366431e+01
  -7.110072e+01  -2.305173e+01
  -1.131092e+02  -6.295828e+01
  -3.862662e+01  -9.640191e+01
   6.716884e+01  -5.803696e+01
   8.444861e+01   4.659449e+01
  -1.639483e+00   1.038601e+02
  -4.565392e+01   2.070506e+01
  -1.327635e+02   5.470484e+00
  -9.607958e+01  -1.106268e+02
   5.719595e+01  -2.635384e+01
   4.991271e+01  -1.328386e+01
   1.214891e+00  -9.924313e+00
  -1.080746e+02   2.850204e+01
  -1.824118e+01  -6.922160e+01
   6.544421e+01  -8.494302e+01
   1.412770e+02  -9.581702e+01
   2.301952e+01  -6.235725e+00
  -2.789472e+01   5.961469e+01
  -3.845203e+01   1.049213e+02
  -2.582804e+01  -2.009886e+01
  -2.189360e+01  -3.705204e+01
  -2.340523e+01   2.836545e+00
   1.481262e+01   7.003424e+01
   3.881518e+01  -6.972548e+00
   3.762058e+01   4.738846e+01
  -1.465461e+01   7.294482e+00
  -4.767779e+01  -2.808801e+01
  -5.188121e+00   2.324010e+01
   2.078118e+01  -3.709944e+00
   1.629281e+01  -7.603582e+00
  -7.070618e+00   2.269264e+01
   2.010866e+00  -4.790547e+01
   6.331933e+01  -4.848980e+01
   7.259306e+01  -1.279426e+01
  -3.029983e+01   9.853927e+01
  -2.115023e+01  -3.583644e+01
  -5.410035e+01  -6.684929e+01
  -6.788542e+01  -5.692749e+01
   7.477531e+01  -1.410544e+01
   8.521891e+00  -2.315793e+01
   6.788730e+00  -2.864747e+01
  -6.939645e+01   3.539460e+01
  -5.060744e+01  -2.882135e+01
  -2.463656e+01   3.056678e+01
   1.750022e+00   1.485631e+01
   4.923377e+01  -1.388897e+01
   1.047227e+01  -3.452429e+01
  -5.441688e+01   8.628102e+01
