
 $NMID
 id='ANONYMOUS ', fmtdat='(2E16.6)'
 volume=1.0
 tramp=1.0
 $END
  -3.442038e+03  -1.645841e+01
  -2.203187e+03  -1.839058e+03
   1.122662e+02  -2.217309e+03
   1.402359e+03  -1.189159e+03
   1.013464e+03  -1.972821e+01
  -4.670744e+01   3.105991e+02
  -4.641894e+02  -1.578939e+02
  -7.619699e+01  -6.057587e+02
   5.707317e+02  -5.834897e+02
   6.922941e+02  -5.925655e+01
   4.260372e+02   6.140000e+02
  -3.293083e+01   6.528915e+02
  -3.614813e+02   2.390497e+02
  -2.572249e+02  -4.466250e+02
   1.608764e+02  -4.725627e+02
   4.411741e+02  -6.599712e+01
   3.427542e+02   5.989571e+02
  -1.637920e+02   6.463898e+02
  -5.326786e+02   1.827430e+02
  -4.705133e+02  -2.367212e+02
  -6.252909e+01  -3.947131e+02
   1.433073e+02  -2.231708e+02
   8.846322e+01  -1.523009e+02
  -1.169291e+02  -7.143618e+01
  -2.658504e+02  -2.121820e+02
  -8.744772e+01  -3.924357e+02
   4.556761e+02  -2.425412e+02
   6.427179e+02   1.187070e+02
   2.459210e+02   3.806725e+02
  -3.247901e+02   2.276974e+02
  -5.540145e+02  -7.136759e+01
  -2.194986e+02  -3.536096e+02
   2.504260e+02  -4.140925e+02
   4.307443e+02  -1.570010e+02
   3.671110e+02   1.745943e+02
   9.184837e+01   3.505211e+02
  -7.314317e+01   2.306939e+02
   1.269006e+01  -1.045312e+02
   1.797297e+02  -2.343584e+02
   2.297124e+02   4.600266e+01
   5.569082e+01   5.171686e+02
  -2.902067e+02   4.746258e+02
  -3.662496e+02   4.168887e+01
  -1.388730e+02  -3.577545e+02
   1.652091e+02  -1.437096e+02
   2.279300e+02   2.475276e+02
  -7.407973e+01   4.054635e+02
  -3.882667e+02   5.369060e+01
  -4.930530e+02  -3.614327e+02
  -9.624527e+01  -4.692795e+02
   3.132972e+02  -3.069159e+02
   5.277457e+02   9.490193e+01
   3.042538e+02   2.953937e+02
  -6.160582e+01   2.545904e+02
  -2.975376e+02   8.678332e+01
  -2.046322e+02  -4.850505e+01
  -2.743414e+01   3.971117e+01
   8.852307e+01   1.044416e+02
  -1.173709e+02   8.207902e+01
  -2.291752e+02  -6.819858e+00
  -1.933820e+02  -2.160829e+02
   1.673650e+02  -2.421471e+02
   3.012185e+02  -8.899332e+01
   1.897392e+02   1.398091e+02
  -5.866795e+01   3.219681e+02
  -3.056156e+02   3.392857e+02
  -3.925325e+02   1.538207e+02
  -2.394116e+02  -1.614258e+02
  -6.315766e+00  -3.881101e+02
   5.461054e+01  -3.301159e+02
   6.616888e+01  -1.296311e+02
   5.038961e+01  -4.847801e+01
   1.500231e+02  -7.927168e+01
   2.193710e+02  -1.441800e+02
   2.785905e+02   8.200537e+01
   6.582718e+01   2.629540e+02
  -1.210844e+02   2.238067e+02
  -2.695877e+02  -5.255135e+01
  -1.657182e+02  -2.504574e+02
   6.999922e+01  -2.506621e+02
   2.897279e+02  -5.488222e+01
   2.707361e+02   1.533848e+02
   1.835432e+02   3.384944e+02
  -2.379016e+01   2.976174e+02
  -2.151941e+02   1.465946e+02
  -1.636744e+02   8.525426e+01
  -1.618259e+02   1.169027e+02
  -2.712252e+02   2.425385e+01
  -4.264832e+02  -8.789569e+01
  -3.434781e+02  -2.704811e+02
  -2.566846e+01  -4.728959e+02
   3.633427e+02  -3.351765e+02
   4.856550e+02  -1.828649e+02
   2.138730e+02   9.855032e+01
   5.975489e+01   2.156010e+02
  -5.331201e+01   1.830158e+02
  -9.583638e+01  -2.101323e+01
   5.912196e+01  -7.061987e+01
   1.231618e+02   1.391952e+01
   5.119414e+01   2.034161e+02
  -7.827850e+01   1.527674e+02
  -2.093327e+02  -3.797086e+01
   6.770058e+01  -1.567112e+02
   1.354510e+02  -1.819843e+01
   9.000221e+01   2.485927e+02
   9.248678e+00   3.357042e+02
  -2.162106e+02   2.304861e+02
  -3.630231e+02  -1.035502e+02
  -2.656375e+02  -2.777781e+02
  -5.582857e+01  -2.449353e+02
   1.294941e+02  -1.225262e+02
   1.691254e+02   2.571700e+01
   1.325675e+01  -2.348701e+01
  -2.863777e+01  -2.739435e+01
   4.680630e+01  -1.299655e+02
   1.310943e+02  -6.602184e+01
   1.269245e+02   9.073493e+01
  -3.214511e+01   8.051560e+01
  -9.374976e+01  -2.931048e+01
  -4.334379e+01  -6.826008e+01
   1.337768e+02  -6.721710e+01
   2.757663e+02  -4.977453e+01
   2.310075e+02   1.725625e+02
   4.646288e+01   2.032217e+02
  -1.903039e+02   2.000538e+02
  -2.444546e+02   7.841437e+01
  -1.486865e+02  -1.842152e+01
   6.960034e+01  -4.571231e+01
   1.112265e+02   1.939661e+01
  -6.600841e+01   9.932672e+01
  -2.191071e+02   6.104877e+01
  -1.774927e+02  -9.230946e+01
  -1.022812e+02  -1.573621e+02
   7.073653e+01  -1.835074e+02
   1.137572e+02  -8.498034e+01
   6.990183e+01  -1.938340e+00
  -2.296180e+01  -4.956183e-01
   3.965832e+01  -7.952344e+01
   5.763097e+01  -1.148742e+02
   1.839959e+02   1.596199e+01
   1.692904e+02   1.569016e+02
   2.528503e+01   2.059500e+02
  -1.353969e+02   1.439057e+02
  -1.193940e+02  -4.511922e+01
  -3.317403e+01  -7.250089e+01
   6.293523e+01  -8.182463e+01
   1.591202e+01  -5.866424e+01
   4.115954e+01  -2.471111e+00
  -6.447399e+01  -9.280107e+00
   1.328056e+01  -9.126700e+01
   1.151009e+02  -3.402792e+00
   1.083918e+02   8.068790e+01
  -3.979752e+00   1.916112e+02
  -1.417926e+02   1.140106e+02
  -2.554908e+02   9.681656e+00
  -2.315685e+02  -1.741230e+02
  -1.610083e+01  -2.367075e+02
   1.222645e+02  -1.706549e+02
   1.239266e+02  -7.526260e+01
   7.962992e+01   7.727796e+01
   8.099844e+01   4.595243e+01
   2.897328e+01   1.380877e+01
   7.826807e+01   2.112825e+01
   9.161404e+01   1.089028e+02
  -7.475998e+01   8.117887e+00
  -1.306185e+02   7.648168e+01
  -5.255475e+01  -1.645147e+01
   2.356971e+00  -9.249179e+01
   1.648750e+02  -4.130139e+01
   2.298500e+02   8.389678e+01
   7.591081e+00   2.653846e+02
  -1.252692e+02   1.926150e+02
  -2.384648e+02   9.973861e+01
  -2.678689e+02  -3.360665e+01
  -1.108666e+02  -1.303699e+02
  -2.071265e+01  -1.541184e+02
   1.183582e+02  -1.016113e+02
   8.831812e+01  -3.195238e+01
   5.128216e+01  -1.006786e+02
   1.054611e+02  -4.988914e+01
   1.228278e+02   2.799568e+01
   1.776472e+02   1.647420e+02
   8.067947e+01   2.530413e+02
  -6.803935e+01   1.957549e+02
  -1.508188e+02  -3.846354e+00
  -1.509089e+02  -1.402314e+02
   3.539020e+01  -1.454740e+02
   8.717368e+01  -5.478776e+01
   1.097501e+02   9.098964e+01
   3.363142e+01   2.570272e+01
   4.427826e+01   3.200270e+00
   9.041208e+01   2.414554e+01
   5.380140e+01   1.774125e+00
   2.942566e+01   3.438003e+01
  -1.137891e+02   7.474512e+01
  -2.059420e+02   1.775783e+01
  -1.226036e+02  -1.354984e+02
  -2.180987e+01  -9.072793e+01
   1.532469e+02  -7.501251e+01
   1.725741e+02   1.744430e+01
  -2.084100e+01   5.063749e+01
  -1.018853e+02   2.295158e+00
  -4.101376e+01  -2.659432e+01
  -6.990450e+01  -6.719721e+01
   5.800763e+01  -6.026138e+01
   7.339579e+01   6.728688e+00
   4.509352e+01   6.615135e+01
   8.411821e+00   2.910793e+01
   7.105390e+01  -1.219096e+01
   1.128210e+01  -8.972007e+00
   1.195217e+02   1.091433e+02
  -9.782944e+01   1.121430e+02
  -1.287593e+02   1.289928e+02
  -1.938751e+02   2.407161e+01
  -1.382725e+02  -7.647530e+01
   9.104268e+00  -1.761793e+02
   8.766083e+01  -1.094242e+02
   1.526474e+01   1.622836e+01
  -7.756685e+01   3.490028e+01
  -1.444044e+02  -2.711752e+01
  -2.861276e+01  -8.016445e+01
   1.064553e+02  -9.401699e+01
   1.324448e+02  -4.341207e+01
   1.817323e+02   5.197493e+01
   1.532878e+01   6.229202e+01
  -3.961443e+01   8.660548e+01
  -6.084955e+01  -1.666893e+01
   2.011474e+01   1.959304e+01
   3.362918e+01   5.254812e+01
   1.997070e+01   8.842720e+01
  -6.864997e+01   1.284523e+02
  -1.235635e+02   2.884767e+01
  -9.564321e+01  -8.878024e+01
   7.722012e+00  -1.861793e+02
   4.175526e+01  -1.115017e+02
   1.136564e+02   5.231844e+01
   6.736635e+01   1.491821e+02
  -3.752397e+01   8.503509e+01
  -1.531724e+01  -1.042533e+01
   1.578932e+01   2.919220e+01
  -3.985524e+01  -2.446835e+01
  -5.408125e+00   6.446445e+01
  -3.677063e+01  -6.392528e+00
  -4.348461e+01  -5.447446e+01
  -3.606359e+01  -9.937721e+01
   6.126573e+01  -1.856330e+01
   1.601558e+02   1.077824e+01
   1.008395e+02   3.085402e+01
  -2.675289e+01   4.302587e+01
  -3.184776e+01  -1.793509e+00
  -6.022662e+01  -6.515365e+00
   1.870659e+01   2.060708e+01
   1.641627e+01  -5.602966e+01
   2.976117e+01  -5.438897e+01
  -6.224238e+01  -4.205645e+00
   4.336806e+01  -6.299099e+01
   6.772794e+01  -5.775294e+01
   1.173447e+02   5.109840e+01
   5.783120e+01   7.318018e+01
  -6.336303e+01   1.070773e+02
  -1.325660e+02   1.256619e+02
  -1.935921e+02  -2.088725e+01
  -1.792785e+01  -1.514808e+02
   6.159567e+01  -1.708509e+02
   9.582914e+01  -5.659486e+01
   3.654721e+01  -4.828844e+01
   4.301321e+01   5.703111e+01
  -3.418982e+01   1.776992e+01
  -8.710060e+00  -2.125858e+01
   8.127664e+00   5.145838e+01
   3.350511e+01   1.272137e+02
  -1.166050e+01   1.113717e+02
  -9.718997e+01  -1.988667e+00
  -1.033956e+02  -1.213061e+02
   1.692451e+01  -7.302446e+01
   6.008123e+01  -2.188378e+01
   1.457168e+02   1.718431e+01
   3.691308e+01   1.109451e+02
  -1.030709e+02   8.051148e+01
  -9.215210e+01  -6.973278e+01
  -1.365983e+01  -7.750271e+01
   7.428286e+01  -1.177554e+02
   2.248553e+01   2.663430e-01
  -9.636284e+01   8.821999e+00
  -4.293242e+01   1.725343e+01
  -2.142749e+01  -4.580311e+01
   7.711447e+01  -9.530740e+01
   1.656011e+02  -5.229417e+01
   1.108715e+02  -3.932561e+01
  -8.870354e+00   9.888435e+01
  -8.052601e+01   8.567971e+01
  -3.557852e+01   4.219043e+01
  -3.111308e+01  -5.758508e+01
   5.868801e+01  -7.927865e+01
   4.052308e+01   9.345987e-01
   5.109268e+01   2.371078e+01
   3.951847e+01   6.764888e+01
  -8.321682e+01   2.367965e+00
  -7.740199e+01  -1.918329e+01
  -1.332177e+01   4.619941e+01
   3.791430e+01   3.131833e+01
  -2.452671e+01   3.149234e+01
  -4.465026e+01  -5.249171e+01
   8.367442e+00  -5.410115e+01
   8.566690e+00  -2.339093e+01
   3.874337e+01  -1.275828e+01
   4.601333e+01   8.223811e+01
  -2.234975e+01   6.426945e+01
  -7.735992e+01  -8.129025e+01
  -3.841362e+01  -2.069250e+01
  -1.564384e+01  -4.528663e+01
   8.752610e+01   2.597039e+01
   7.646551e+01  -3.109775e-02
   2.280139e+01   9.183624e+01
  -9.086671e+01   1.898691e+01
  -5.183791e+01   2.505484e+01
   6.669723e+01  -2.161130e+01
   3.393730e+00   6.065643e+01
  -3.610686e+01   3.836920e+01
  -8.560563e+01  -3.725854e+01
