
 $NMID
 id='ANONYMOUS ', fmtdat='(2E16.6)'
 volume=1.0
 tramp=1.0
 $END
  -4.202284e+03   6.231359e+01
  -2.557954e+03  -2.395525e+03
   5.256923e+02  -2.633862e+03
   1.985356e+03  -1.034610e+03
   9.973354e+02   4.216451e+02
  -4.593322e+02   5.274583e+02
  -8.260322e+02  -2.775204e+02
   6.605516e-01  -9.805593e+02
   7.484061e+02  -7.593023e+02
   9.467379e+02   4.050590e+01
   4.313827e+02   8.003571e+02
  -1.483848e+02   7.955753e+02
  -5.599751e+02   1.597169e+02
  -3.869961e+02  -6.442806e+02
   2.426266e+02  -7.208759e+02
   6.085186e+02  -3.045573e+01
   2.700257e+02   6.713286e+02
  -2.328151e+02   6.721687e+02
  -6.818738e+02   1.381941e+02
  -4.582977e+02  -2.865549e+02
  -3.655581e+01  -4.961848e+02
   2.338710e+02  -2.487396e+02
   2.296610e+02  -5.045545e+01
  -1.147375e+02   4.122347e+01
  -3.400630e+02  -1.393375e+02
  -1.870825e+02  -3.870645e+02
   4.482191e+02  -3.258375e+02
   8.107154e+02   9.133582e+01
   3.744063e+02   5.035195e+02
  -3.497912e+02   3.947178e+02
  -6.935974e+02  -1.126717e+02
  -3.157058e+02  -4.798865e+02
   2.576856e+02  -4.948327e+02
   5.766636e+02  -2.150397e+02
   4.386804e+02   2.269695e+02
   6.979082e+01   4.512510e+02
  -1.712837e+02   2.745527e+02
  -9.708180e+01  -1.491306e+02
   1.839456e+02  -3.642256e+02
   3.941140e+02   8.811965e+01
   2.012116e+02   6.465886e+02
  -2.954667e+02   6.778427e+02
  -5.731917e+02  -3.668524e+01
  -2.550388e+02  -4.903153e+02
   2.471799e+02  -2.452594e+02
   3.406002e+02   3.248905e+02
  -1.007273e+02   5.063599e+02
  -5.106065e+02   1.028247e+02
  -5.191201e+02  -4.108650e+02
  -1.577036e+02  -5.913795e+02
   3.833791e+02  -3.173354e+02
   6.881945e+02   1.040055e+02
   3.937304e+02   3.292134e+02
  -1.327719e+02   3.365593e+02
  -4.656507e+02   1.002809e+02
  -2.444840e+02  -1.814832e+02
   4.505397e+01  -8.174583e+01
   1.827346e+02   1.552169e+02
  -1.636174e+02   1.827123e+02
  -3.131411e+02  -1.019003e+02
  -1.206954e+02  -2.654756e+02
   2.596460e+02  -2.253500e+02
   3.269455e+02  -1.445519e+02
   1.980024e+02   5.360550e+01
  -3.963516e+01   2.699509e+02
  -2.599430e+02   3.534881e+02
  -3.433334e+02   2.232011e+02
  -2.497602e+02  -1.895063e+02
  -8.163845e+01  -4.464307e+02
   1.172050e+02  -3.904699e+02
   1.240417e+02  -1.763827e+02
   4.129534e+01   3.273316e+01
   9.796685e+01  -1.131095e+02
   2.125588e+02  -1.313811e+02
   2.254328e+02   6.423810e+01
   2.307698e+02   2.707760e+02
  -8.645488e+01   2.196264e+02
  -1.994894e+02  -4.717537e+00
  -1.585637e+02  -3.247021e+02
   2.710349e+01  -2.783547e+02
   2.842359e+02  -1.268035e+02
   3.675443e+02   1.872609e+02
   1.723816e+02   3.523654e+02
  -9.147997e+01   3.099782e+02
  -2.428608e+02   1.001482e+02
  -1.695799e+02   3.321911e+01
  -8.590616e+01   6.058768e+01
  -2.669843e+02   3.743965e+01
  -4.316480e+02  -4.739091e+01
  -3.002472e+02  -3.175681e+02
  -3.026557e+01  -4.315794e+02
   3.777944e+02  -4.302443e+02
   5.164198e+02  -2.264418e+02
   3.021345e+02   6.494638e+01
   3.608213e+01   2.770461e+02
  -1.713862e+02   2.523573e+02
  -9.695434e+01   2.099208e+01
   1.206317e+02  -1.189453e+02
   1.766648e+02   6.128230e+01
   2.127957e+01   2.229560e+02
  -2.313046e+02   1.909491e+02
  -1.737085e+02  -7.280904e+01
   4.189469e+01  -2.284837e+02
   1.821514e+02  -3.301538e+00
   2.032109e+02   2.605589e+02
  -3.821759e+01   3.266434e+02
  -2.382417e+02   1.909815e+02
  -3.522503e+02  -4.775693e+01
  -2.541985e+02  -3.004620e+02
  -4.251245e+01  -2.905266e+02
   1.441435e+02  -1.706108e+02
   2.055959e+02  -2.769212e+01
   5.371625e+01   6.488052e+01
  -6.946639e+01  -4.178764e+01
  -2.618625e+01  -1.255411e+02
   7.468355e+01  -7.075843e+01
   1.973407e+02   7.008445e+01
   5.457660e+01   9.349894e+01
  -2.757338e+01  -1.877067e+01
  -9.577660e+01  -1.155752e+02
   1.537707e+02  -5.509734e+01
   2.405130e+02   1.977694e+01
   2.768689e+02   1.412097e+02
   7.223104e+01   2.673173e+02
  -2.172698e+02   2.710166e+02
  -3.154353e+02   1.112696e+02
  -2.053137e+02   4.971988e+00
  -1.151006e+01  -1.065169e+02
   8.493836e+01   3.908238e+01
  -7.588997e+01   6.306904e+01
  -2.050590e+02   6.813395e+01
  -1.879609e+02  -1.550128e+02
  -8.030291e+01  -1.084892e+02
   6.013078e+01  -2.229239e+02
   1.768786e+02   1.438349e+01
   8.199558e+01   6.317159e+01
  -4.597987e+01   6.651922e+01
  -2.458442e+01  -1.095673e+02
   8.620903e+01  -1.545772e+02
   2.026013e+02  -1.864221e+01
   2.411092e+02   1.349145e+02
   1.185787e+01   2.334139e+02
  -1.638802e+02   1.962577e+02
  -2.083940e+02   5.964332e+01
   1.173579e+01  -8.673017e+01
   6.265918e+01  -1.138782e+02
   6.130435e+01  -8.919731e+01
   5.024879e+01   2.776688e+01
  -5.249044e+01  -3.929092e+01
   6.010876e+00  -7.599144e+01
   9.444257e+01  -4.793323e+01
   1.306484e+02   1.087929e+02
   4.848476e+01   1.872560e+02
  -1.678034e+02   1.454803e+02
  -2.346622e+02   6.688714e+01
  -2.112748e+02  -1.270867e+02
  -6.464381e+01  -2.491400e+02
   1.022148e+02  -1.340223e+02
   1.185093e+02  -7.897725e+01
   4.888563e+01   7.197166e+01
  -8.727138e+00   1.063673e+01
   5.407304e+01   7.617395e+00
   1.095630e+02  -7.233308e+00
   9.014092e+00   7.821333e+01
  -2.118010e+01   8.290820e+01
  -1.083440e+02   1.093206e+02
  -1.346953e+02  -2.603114e+01
   3.629601e+01  -1.084195e+02
   1.516733e+02  -1.144620e+02
   1.946075e+02   7.232492e+01
   7.097194e+01   2.219248e+02
  -9.742840e+01   2.342181e+02
  -2.485918e+02   5.971341e+01
  -2.162181e+02  -6.466983e+01
  -1.067956e+02  -2.046888e+02
  -2.381208e+01  -1.413861e+02
   1.510259e+02  -7.482820e+01
   8.889042e+01  -4.410241e+01
   7.355797e+01  -1.231881e+02
   1.506799e+02  -9.397465e+01
   9.849353e+01   3.139778e+01
   5.944264e+01   1.332905e+02
   1.150343e+01   2.193533e+02
  -1.150596e+02   1.980564e+02
  -1.700731e+02   7.617412e+00
  -1.340298e+02  -1.061598e+02
  -7.275308e+01  -1.671704e+02
   4.111396e+01  -9.133614e+01
   6.944309e+01   1.735489e+01
  -8.079857e+01  -1.002226e+01
  -4.519703e+01   3.667661e+01
   1.919087e+01   1.171086e+01
   1.067927e+02  -2.150380e+01
   3.509126e+01   3.774702e+01
  -1.251801e+01   6.053606e+01
  -1.906768e+02   1.996166e+01
  -1.270573e+02  -6.813815e+01
   1.134754e+01  -7.905410e+01
   8.281665e+01  -1.119178e+02
   1.021143e+02   1.045380e+01
   2.964842e+01   3.105510e+01
  -4.519602e+01   6.600147e+01
  -2.744966e+01  -7.219574e+01
  -2.908031e+01  -4.597196e+01
   4.999189e+01  -1.338211e+01
   9.558410e+01  -5.363205e+01
   4.384269e+01   3.271233e+01
   9.405126e+00   2.895776e+01
   3.443001e+01   5.731643e+00
   6.447357e+01  -6.679532e+00
   5.135445e+01   1.554230e+02
  -2.916464e+01   1.463940e+02
  -1.211841e+02   1.692928e+02
  -2.083968e+02   2.883585e+01
  -1.455300e+02  -1.481876e+02
  -4.104448e+01  -1.279796e+02
   1.009476e+02  -9.745169e+01
   7.875946e+01   3.907424e+01
  -1.011645e+02  -2.890920e+01
  -1.228165e+02  -1.012933e+01
  -6.633018e+01  -1.409604e+02
   5.540058e+01  -6.398425e+01
   2.268849e+02  -1.487521e+01
   1.584232e+02   1.021553e+02
   1.419561e+01   1.191949e+02
  -1.209962e+02   7.097479e+01
  -3.858418e+01   6.205127e+00
  -2.344203e+01  -6.029073e+01
   1.275390e+02   3.151860e+01
   2.843038e+01   8.505673e+01
  -5.336681e+01   1.435665e+02
  -2.380557e+02   2.207585e+01
  -1.262670e+02  -8.892505e+01
   1.718497e+01  -1.941493e+02
   6.315551e+01  -1.297691e+02
   1.576085e+02   1.247828e+01
   2.301454e+01   1.312155e+02
   1.447588e+01   1.187395e+02
  -6.202715e+01   1.108128e+01
  -8.937335e+01   3.048098e-01
  -5.218318e+01  -5.078925e+01
  -2.242940e+01   2.914796e+01
  -4.760673e+01  -7.357269e+01
  -6.186034e+01  -3.732543e+01
  -3.787850e+01  -1.144634e+02
   4.729079e+01   1.477054e+01
   1.627610e+02   3.288354e+01
   1.733444e+02   2.190808e+01
   8.020384e+01   7.286639e+01
  -3.063822e+01   1.837472e+01
  -8.693687e+01   3.382704e+01
   5.522163e+00  -8.819627e+01
   3.866413e+01  -3.352769e+00
  -1.301832e+01   1.263454e+01
  -5.925092e+01   1.161057e+01
   4.500713e+01   8.942791e+00
   6.803152e+01  -1.994771e+01
   1.614670e+02   1.013966e+01
  -1.393000e+00   4.045243e+01
  -1.870450e+02   1.559809e+02
  -1.869507e+02   3.703855e+01
  -1.464735e+02  -8.279297e+01
  -8.236976e+00  -1.712181e+02
   5.110055e+01  -1.292363e+02
   1.075016e+02  -4.619233e+01
   1.309518e+02  -1.365397e+01
   2.021211e+01   5.211333e+00
  -1.840481e+01   1.312832e+01
  -1.670109e+00   2.278252e+00
   3.115500e+01   1.903578e+01
  -4.484242e+00   3.705402e+01
  -4.280990e+01   4.978053e+01
  -8.506209e+01   1.513471e+01
  -1.113522e+02  -7.546706e+01
  -5.424204e+01  -1.705794e+02
   8.291638e+01  -3.933324e+01
   8.641285e+01   1.498602e+02
  -6.449618e+00   9.807106e+01
  -3.637419e+01   8.600763e+01
  -8.694723e+01   1.929677e+01
  -6.301148e+01  -5.498967e+01
   2.698752e+01  -5.539739e+01
   4.091213e+01  -4.326294e+01
  -8.118107e+01  -2.083317e+00
  -8.383215e+01  -1.699065e+01
  -4.986623e+00  -8.933325e+01
   8.660598e+01  -7.278302e+01
   1.520180e+02  -7.743286e+01
   7.099082e+01   5.373427e+01
   2.753914e+01   1.263217e+02
  -9.854438e+01   6.788940e+01
  -1.123720e+02   2.806579e+01
  -1.289250e+01  -5.759078e+01
   4.572741e+01  -9.137130e+00
   2.248420e+01   4.848363e+01
   2.206406e+01   2.112805e+01
   2.017024e+01   1.553863e+01
  -8.944616e+01   2.374858e+01
   6.658398e+00  -6.081211e+01
  -6.730184e+01  -3.289946e+01
  -2.123015e+01  -1.584871e+01
   5.882957e+01   3.026230e+01
   3.086196e+01  -4.652331e+01
   2.798035e+01   6.508821e+00
   3.172717e+01  -1.017190e+02
  -4.755257e+00   5.554084e+01
   5.028203e+00   4.869522e+01
  -7.169444e+01  -2.276839e+00
  -7.838938e+01  -5.302954e+01
  -1.693092e+00  -7.259801e+01
   6.928408e+01  -2.898667e+01
   1.051388e+02   2.965301e+01
   5.095550e+01   5.138830e+01
  -2.482277e+01   1.185348e+01
  -2.825169e+01  -1.389961e+01
   2.264237e+01  -4.120179e+01
   2.651220e+01   1.563120e+01
   7.410428e+01   4.953852e+00
  -5.277947e+01   6.131100e+01
  -2.098174e+01  -3.254821e+00
