
 $NMID
 id='ANONYMOUS ', fmtdat='(2E16.6)'
 volume=1.0
 tramp=1.0
 $END
  -2.599691e+03   2.904849e+00
  -1.835948e+03  -1.123549e+03
  -3.339171e+02  -1.558380e+03
   7.546672e+02  -1.361967e+03
   8.837428e+02  -5.710183e+02
   3.202723e+02  -7.630511e+00
  -1.603360e+02   4.844368e+01
  -1.012521e+02  -3.797355e+02
   3.198317e+02  -3.860218e+02
   5.156218e+02  -2.264625e+02
   3.623118e+02   3.333525e+02
   9.216929e+01   5.684713e+02
  -1.390284e+02   1.780048e+02
  -1.825885e+02  -2.538419e+02
   3.555838e+01  -4.446413e+02
   2.669335e+02  -1.175386e+02
   3.102636e+02   3.803717e+02
  -1.988462e+01   5.369568e+02
  -3.696788e+02   2.476494e+02
  -4.129628e+02  -7.734218e+01
  -1.732714e+02  -2.941204e+02
   6.861033e+01  -2.436515e+02
   4.577576e+00  -6.366343e+01
  -1.981229e+02  -1.957227e+02
  -2.066372e+02  -3.657131e+02
   7.037591e+01  -2.335874e+02
   4.006905e+02   1.331541e+01
   5.068871e+02   2.198854e+02
   1.117736e+02   2.736800e+02
  -2.619373e+02   8.716201e+01
  -3.902762e+02  -1.062968e+02
  -1.162899e+02  -3.396625e+02
   2.034443e+02  -3.046097e+02
   4.181792e+02  -6.770224e+01
   2.554271e+02   1.109056e+02
   8.256831e+01   2.500155e+02
   2.949795e+01   7.940177e+01
   1.355263e+02  -6.172718e+01
   1.939932e+02   6.876918e+00
   1.015740e+02   2.516549e+02
  -7.363945e+01   3.946209e+02
  -1.844172e+02   2.689529e+02
  -2.081372e+02  -1.805407e+01
  -1.137356e+01  -1.734835e+02
   7.444906e+01  -1.086244e+01
   6.563357e+01   2.028255e+02
  -1.247590e+02   3.097328e+02
  -3.640114e+02   6.626165e+01
  -3.728181e+02  -3.275923e+02
  -9.743013e+01  -4.671149e+02
   2.663905e+02  -2.201259e+02
   4.395803e+02   2.267806e+01
   2.879852e+02   1.424157e+02
   2.486615e+01   1.607689e+02
  -2.584041e+02   8.240972e+01
  -2.566589e+02   7.237774e+01
  -3.195900e+01   6.229594e+01
  -3.979835e+01  -1.782499e+01
  -1.010997e+02   2.612248e+01
  -1.750608e+02  -2.884002e+00
  -8.213226e+01  -1.150369e+02
   2.085810e+02  -2.247316e+02
   2.715079e+02  -1.543508e+02
   2.468774e+02   5.610016e+01
   3.281035e+01   3.464213e+02
  -3.578022e+02   3.506646e+02
  -3.833337e+02   9.237006e+01
  -2.220434e+02  -2.089652e+02
  -9.126027e+00  -2.375343e+02
  -3.429456e+01  -2.767856e+02
  -7.722275e+01  -1.658849e+02
   1.380036e+01  -1.159292e+02
   1.204249e+02  -1.689568e+02
   2.594678e+02  -4.914333e+01
   2.215124e+02   4.751771e+01
   1.395633e+02   2.392310e+02
  -1.008002e+02   1.220237e+02
  -1.984080e+02  -9.689099e+01
  -6.343271e+01  -2.414705e+02
   1.272666e+01  -2.101325e+02
   2.133783e+02  -1.544188e+01
   2.991489e+02   1.807321e+02
   1.936052e+02   2.727019e+02
  -4.373259e+01   2.362922e+02
  -1.539672e+02   2.153497e+02
  -1.695621e+02   9.547720e+01
  -1.419467e+02   7.294290e+01
  -3.438460e+02   6.865466e+01
  -3.865504e+02  -4.425387e+01
  -3.048368e+02  -2.449288e+02
   6.740757e+01  -4.010607e+02
   3.568436e+02  -3.354098e+02
   4.466043e+02  -1.498449e+02
   2.136509e+02   1.579496e+02
  -4.520817e+00   2.606134e+02
  -6.416630e+01   2.085404e+02
   3.266271e+01   1.293794e+01
   1.407729e+02   7.922285e+01
   8.788485e+01   2.986754e+01
   2.933562e+00   1.116393e+02
  -7.854429e+01   3.925791e+01
  -1.425672e+01   4.282835e+00
   2.320818e+01  -1.447736e+02
   1.347796e+02   3.727692e+01
   1.894011e+02   2.053917e+02
  -6.854198e+01   3.428251e+02
  -2.377585e+02   1.418119e+02
  -3.881685e+02  -2.726573e+01
  -2.973842e+02  -2.359754e+02
  -4.114716e+01  -2.658541e+02
   1.078164e+02  -9.990432e+01
   1.462546e+02  -3.095667e+01
  -1.520125e+00   1.210906e+00
  -7.285171e+01  -1.166831e+02
  -3.035811e+01  -9.864673e+01
   1.706001e+02  -6.570293e+01
   1.366674e+02  -1.989775e+01
   2.483806e+01  -1.569833e+01
  -7.439152e+01  -6.150681e+01
  -1.613129e+01  -1.412533e+02
   1.754310e+02  -9.582869e+01
   2.531914e+02   8.939238e+00
   2.538311e+02   1.789659e+02
  -1.464757e+00   2.706519e+02
  -1.753527e+02   2.423846e+02
  -2.351666e+02   9.568394e+01
  -1.470971e+02  -5.585887e+01
   4.606488e+01  -2.038437e+01
   1.062930e+02   9.394979e+00
  -4.486203e+01   2.928345e+01
  -1.496982e+02   2.565374e+01
  -1.436999e+02  -1.037557e+02
  -6.985008e+01  -1.979223e+02
   1.516967e+01  -1.012627e+02
   1.477701e+02  -9.349056e+01
   4.591738e+01  -5.616365e+00
  -1.587033e+01  -8.432296e+00
  -1.742274e+01  -1.396032e+02
   1.570865e+02  -1.070811e+02
   2.065303e+02   6.743915e+00
   1.272543e+02   1.406375e+02
  -2.306707e+01   1.090005e+02
  -1.650595e+02   1.170493e+02
  -1.419962e+02  -3.932838e+01
  -4.425777e+01  -9.604159e+01
   5.349166e+01  -7.716914e+01
   4.830467e+01   7.323872e-01
   7.198184e+00   4.678174e+01
  -6.302768e+01   2.901298e+01
   4.411551e+01  -2.733035e+01
   7.374860e+01  -7.516537e+00
   6.875096e+01   1.221097e+02
   4.857646e+01   1.604972e+02
  -1.035564e+02   2.198330e+02
  -2.660787e+02   3.953223e+01
  -1.323696e+02  -1.439907e+02
   1.598976e+00  -1.909209e+02
   7.661620e+01  -1.007635e+02
   6.747210e+01  -2.798455e+01
   5.251400e+01   3.907785e+01
  -2.064954e+01   3.623481e+01
   5.998639e+01   2.106461e+01
   1.208631e+02  -2.850339e+01
   1.107288e+02   5.142916e+01
  -5.335681e+01   1.316452e+02
  -1.463295e+02   5.892301e+01
  -9.954507e+01  -7.998315e+01
   8.117637e+01  -1.636422e+02
   1.486188e+02  -8.809390e+01
   1.755257e+02   1.149083e+02
   1.127276e+02   2.076187e+02
  -1.909604e+02   1.589624e+02
  -2.775361e+02   1.565278e+01
  -2.647796e+02  -8.745754e+01
  -6.377776e+01  -1.623057e+02
   4.278045e+01  -1.221702e+02
   3.457898e+01  -9.694345e+01
   1.013590e+02  -8.338338e+01
   4.705077e+01  -1.186777e+02
   9.456981e+01  -8.407288e+01
   1.150831e+02  -4.705728e+01
   1.276821e+02   1.610541e+02
   5.949107e+01   2.298767e+02
  -1.197700e+02   1.015932e+02
  -1.359643e+02   5.727350e+01
  -1.031354e+02  -1.490130e+02
  -3.643037e+01  -1.928392e+02
   5.366058e+01  -6.339629e+01
   2.083945e+01   1.160479e-01
   9.003483e-01   5.925311e+00
  -3.411479e+00   4.648942e+01
   3.023248e+01  -2.744419e+01
   4.396317e+01   1.899847e+01
   1.116684e+02   2.458520e+01
  -1.125998e+02   2.804315e+01
  -1.574629e+02   3.244380e+01
  -1.803517e+02  -5.831735e+01
  -1.334501e+01  -1.183402e+02
   1.568503e+02  -6.185574e+01
   1.237260e+02  -2.176523e+01
   6.318007e+01   5.122315e+01
  -1.296882e+02   5.538108e+01
  -4.314595e+01  -3.457825e+01
   3.228727e+00  -4.049550e+01
   6.438785e+01  -2.405241e+01
   9.648715e+01  -4.906083e+01
   5.227385e+01  -9.653240e+00
   7.171028e+01   8.972862e+01
   5.874758e+01   3.205242e+01
   1.690334e+01   2.933491e+01
   3.178143e+01   7.281951e+01
  -1.562775e+01   1.332065e+02
  -1.291745e+02   1.478669e+02
  -2.002071e+02   9.703158e+01
  -1.527599e+02  -9.459060e+01
   4.832301e+01  -1.411785e+02
   1.265902e+02  -9.120292e+01
   9.904340e+01   1.824287e+01
  -3.490439e+01   3.887128e+01
  -8.656983e+01  -6.001516e+01
  -8.197970e+01  -6.537287e+01
   7.455680e+01  -1.037917e+02
   1.287345e+02  -5.907515e+01
   1.626849e+02   2.140129e+01
   5.323749e+01   1.291966e+02
  -2.667160e+01   7.608047e+01
  -8.020057e+01  -5.236052e+01
   9.434234e+00   4.388548e+01
   2.438023e+01   5.684397e+01
   4.542375e+01   4.340789e+01
   2.481207e+00   8.801851e+01
  -1.821852e+02   6.474923e+01
  -1.723049e+02  -9.032912e+01
   4.242687e-01  -2.006450e+02
   6.948174e+01  -1.230810e+02
   1.399826e+02   4.209744e+01
   8.328803e+01   5.086066e+01
  -1.478733e+01   1.184882e+02
  -6.239035e+01   6.593709e+01
  -4.762805e+01  -2.889873e+01
  -3.354391e+01  -4.709758e-01
  -5.118456e+01  -4.211718e+01
  -6.808809e+01  -2.887259e+01
  -4.559300e+01  -1.224126e+02
  -6.916931e+01  -5.427290e+01
   1.173022e+02  -2.832604e+01
   1.131791e+02   2.776510e+01
   1.058283e+02   3.935615e+01
   2.227221e+01   7.975790e+01
  -4.395890e+01   3.165422e+01
  -1.053136e+02   5.796439e+01
  -1.141619e+01   5.685405e+00
   3.273263e+01  -1.512806e+01
   5.789994e+00   1.908554e+01
   8.257200e-01   1.551344e+01
  -2.156627e+01   5.875133e+01
   4.114982e+01  -4.000786e+01
   1.030431e+02  -1.933617e+01
   6.759067e+01   7.539639e+01
  -9.823295e+01   1.105541e+02
  -1.813286e+02   5.900751e+01
  -1.581452e+02  -1.044055e+02
  -3.631116e+01  -1.449073e+02
   5.513989e+01  -1.895001e+02
   9.225424e+01  -2.358549e+01
   1.277470e+02  -3.926623e+00
   3.982151e+01   1.804781e+00
   1.496388e+00  -1.319505e+01
   1.022326e+00   1.633687e+01
   2.114631e+01   1.048049e+02
   4.902644e+00   5.610932e+01
  -2.786599e+01   9.088935e+01
  -1.283274e+02  -2.579976e+01
  -8.478400e+01  -9.776513e+01
  -1.841733e-01  -4.672305e+01
   1.314442e+02  -3.537142e+01
   1.057133e+02   6.628737e+01
   3.325955e+01   1.151717e+02
  -4.385458e+01   8.767907e+01
  -1.452799e+02  -7.588346e+01
  -3.819221e+01  -3.938586e+01
   4.943705e+01  -1.754022e+00
   7.266062e+01  -4.054918e+01
  -2.842631e+00   6.809855e+00
  -1.173947e+01   4.015328e+01
   2.271002e+01  -6.019530e+01
   9.071880e+01  -6.150340e+01
   1.144646e+02  -8.231994e+01
  -2.893862e+00  -3.214955e+01
   8.833486e+00   3.064856e+01
  -7.688082e+01   3.910823e+01
  -5.680174e+01   2.849775e+00
  -2.539626e+01  -4.583443e+00
  -1.568080e+01  -4.851143e+01
   5.384900e+01   5.515116e+01
   3.396993e+01   8.318975e+01
  -6.681025e+00   1.195657e+02
  -4.091890e+01  -3.408877e+00
  -1.627824e+01  -5.170694e+01
  -1.126201e+01  -2.873365e+01
   3.648397e+01   5.397878e+00
  -3.435405e+00  -3.243839e+01
  -2.940534e+01  -7.837360e+01
   3.576987e+01  -6.116119e+01
   7.045920e+01  -1.511103e+01
   5.147577e+01   1.737032e+01
   4.941888e+01   4.770292e+01
  -5.242121e+01   4.404389e+01
  -8.905022e+01  -4.604081e+01
  -4.256087e+01   2.207327e+01
   9.477016e+01   6.666354e+00
   9.493451e+01   2.759301e+01
   4.224696e+01   3.925300e+01
   7.212767e+00   6.292489e+01
  -3.298291e+01   8.105647e+01
  -4.803744e+01   1.267566e+01
   7.174170e+01   3.376577e+01
  -5.337783e+00   3.532344e+01
  -5.315234e+01   5.521480e+01
  -7.605447e+01   6.014577e+01
