
 $NMID
 id='ANONYMOUS ', fmtdat='(2E16.6)'
 volume=1.0
 tramp=1.0
 $END
   2.114010e+03   8.677073e+01
   1.474719e+03   9.978606e+02
   2.277469e+02   1.284418e+03
  -6.377430e+02   9.850229e+02
  -6.306503e+02   3.433903e+02
  -1.932883e+02  -2.256978e+01
   1.510248e+02   4.589238e+01
   6.113267e+01   2.608782e+02
  -2.319037e+02   4.116721e+02
  -4.094853e+02   1.010037e+02
  -2.900729e+02  -3.056489e+02
  -8.581379e+01  -4.325515e+02
   1.426022e+02  -1.265784e+02
   1.534743e+02   2.403448e+02
  -1.018667e+01   3.785098e+02
  -2.618536e+02   8.760817e+01
  -2.202641e+02  -2.642883e+02
   1.780744e+00  -3.706941e+02
   2.778487e+02  -2.375526e+02
   2.965964e+02   9.098670e+01
   1.515349e+02   1.987092e+02
  -4.092709e+01   2.110706e+02
  -4.832655e+01   5.686940e+01
   2.491479e+02   1.238867e+02
   1.741308e+02   3.030670e+02
  -1.383056e+02   1.950644e+02
  -3.518078e+02   6.243742e+01
  -3.970388e+02  -1.789427e+02
  -5.437280e+01  -2.086752e+02
   2.517888e+02  -4.383802e+01
   2.789331e+02   1.349407e+02
   1.241475e+02   2.378298e+02
  -2.141611e+02   2.156870e+02
  -2.677992e+02   1.358439e+01
  -2.155223e+02  -8.348593e+01
  -7.526244e+01  -1.758605e+02
  -4.141636e+01  -6.913763e+01
  -1.120837e+02   5.046568e+01
  -1.431311e+02  -1.321427e+00
  -8.368844e+01  -1.242165e+02
   4.436257e+01  -3.647888e+02
   2.035462e+02  -2.642953e+02
   2.189228e+02   3.812976e+01
   6.099980e+01   1.270227e+02
  -5.681027e+01   9.575747e+01
  -5.957413e+01  -2.154786e+02
   6.214017e+01  -2.858687e+02
   3.006517e+02  -2.697048e+01
   2.885985e+02   2.680085e+02
   8.437933e+01   3.349820e+02
  -2.104735e+02   1.973002e+02
  -2.935771e+02  -7.006723e+01
  -2.191958e+02  -1.197359e+02
  -3.129048e+01  -1.355615e+02
   1.895605e+02  -5.678230e+01
   1.597106e+02  -6.603696e+00
   1.484330e+01  -3.116855e+01
   2.232216e+01  -6.185484e+01
   5.452979e+01   3.187192e+01
   1.093431e+02   6.104750e+01
   8.218953e+01   1.435191e+02
  -1.570131e+02   1.625025e+02
  -3.218596e+02   1.266956e+02
  -2.569677e+02  -1.003608e+02
   9.474376e+00  -2.962055e+02
   2.510338e+02  -2.818521e+02
   2.780373e+02  -1.109107e+02
   1.701133e+02   7.625257e+01
   1.165492e+01   2.576772e+02
  -2.782397e+01   2.578535e+02
   2.872829e+01   1.655041e+02
  -2.291776e+01   1.334027e+02
  -1.144865e+02   1.212240e+02
  -1.574679e+02   2.057249e+01
  -2.085003e+02  -1.194534e+02
  -1.356018e+02  -1.803879e+02
   5.652685e+01  -1.014404e+02
   6.032739e+01   2.318034e+01
   1.108597e+02   1.302056e+02
  -9.328558e+00   1.804167e+02
  -2.219807e+02   1.975122e+01
  -2.224269e+02  -1.200934e+02
  -1.035182e+02  -1.684478e+02
   2.373714e+01  -1.893091e+02
   7.557216e+01  -1.385628e+02
   9.328225e+01  -2.492195e+01
   1.502704e+02  -7.305945e+01
   2.187772e+02   1.274828e+01
   3.430105e+02   8.530220e+01
   1.964598e+02   2.752371e+02
  -3.891179e+01   2.870091e+02
  -3.135479e+02   3.443076e+02
  -3.996019e+02   9.744798e+01
  -1.347269e+02  -4.731599e+01
   1.391540e+00  -2.182377e+02
   5.581578e+01  -9.201107e+01
   4.820459e+01  -8.021499e+01
  -8.622762e+01   2.071903e+01
  -1.007172e+02  -3.922206e+01
  -4.304281e+01  -1.164534e+02
   2.594827e+01  -3.978480e+01
   5.533182e+01  -1.348143e+01
   1.582944e+01   1.099599e+02
  -1.132211e+02   2.456993e+01
  -1.275154e+02  -1.576477e+02
  -2.486837e+01  -2.180859e+02
   1.343308e+02  -1.143329e+02
   2.995206e+02  -7.734020e+00
   1.747643e+02   2.292983e+02
   1.986493e+01   2.589676e+02
  -1.046556e+02   8.851153e+01
  -7.604906e+01   1.180823e+01
  -1.874692e+01   4.282534e+00
   4.786183e+01   3.303003e+01
  -4.324627e+01   4.296570e+01
  -6.125735e+01   4.102543e+01
  -1.174899e+02  -1.311907e+00
  -3.396659e+01  -3.040977e+01
   6.470575e+01   3.829092e+01
  -1.779328e+01   2.428622e+01
  -9.796360e+01   3.296510e+01
  -2.302398e+02  -4.237117e+00
  -1.840969e+02  -8.248777e+01
  -4.584112e+01  -2.172757e+02
   1.582210e+02  -1.140168e+02
   1.850013e+02  -4.713238e+01
   9.972979e+01  -2.948141e+00
   5.611548e+01   4.890582e+01
  -2.591536e+01  -2.984922e+01
   8.542445e+01  -3.479422e+01
   1.804152e+02  -6.219155e+00
   1.551196e+02   1.200685e+02
   1.036184e+02   1.348960e+02
  -4.726977e+01   7.370227e+01
  -5.952565e+01  -4.774848e+01
  -2.320665e+01  -1.087879e+02
  -2.760518e+01   5.738812e+01
   3.336151e+01   1.270765e+02
  -5.498780e+01   6.268372e+01
  -1.554320e+02   3.807628e+00
  -1.361689e+02  -1.049176e+02
  -7.200383e-01  -1.176757e+02
   1.306140e+02  -9.965109e+01
   1.398376e+02  -4.692371e+00
   7.614458e+01   6.447521e+01
  -2.502904e+01   9.471672e+01
  -2.682522e+01   3.738543e+01
  -3.772329e+01   2.584552e+01
   6.053834e+01  -1.107260e+01
  -1.947271e+01   4.580887e+01
  -4.047725e+01   2.230325e+01
  -8.670252e+01  -1.563647e+02
   3.004800e+01  -1.634223e+02
   1.452041e+02  -9.498482e+01
   2.713948e+02   4.515676e+01
   1.093442e+02   1.373869e+02
   5.348362e+01   1.956539e+02
  -7.217223e+01   1.003216e+02
  -5.393505e+01  -1.178874e+01
   6.280449e+00   2.729566e+01
  -3.856449e+00   4.523408e+01
  -6.292446e+01   3.339675e+01
  -6.777311e+01  -2.520490e+01
  -8.375846e+01  -5.789473e+01
   7.935865e+01  -1.357170e+02
   7.882540e+01  -9.894522e+01
   7.978473e+01  -7.416209e+00
   1.044364e+01   1.244814e+02
  -1.230385e+02   1.134826e+02
  -1.435537e+02  -8.427782e+01
  -6.335855e+01  -1.832833e+02
   1.360812e+02  -1.440553e+02
   2.164328e+02  -4.084677e+01
   1.426442e+02   6.363121e+01
   8.359837e+01   1.099896e+02
  -5.418721e+01   1.043895e+02
  -6.548916e+01   7.040656e+01
  -9.927016e+01   2.469855e+01
  -6.699665e+01   7.189113e+01
  -1.114741e+02   7.993777e+01
  -1.117247e+02   3.863585e+01
  -1.138498e+02  -1.122156e+02
  -1.664103e+01  -1.467491e+02
   5.585270e+01  -1.581561e+02
   1.456314e+02   2.642746e+01
   1.077903e+02   1.056336e+02
   5.584577e+01   1.394539e+02
  -3.739328e+01   4.794703e+01
  -1.033786e+02  -1.299020e+01
  -9.484238e+00  -5.920016e+01
  -4.278338e+01  -3.952838e+01
   5.853672e+00  -7.977190e+00
  -8.167076e+01  -3.433532e+01
  -2.630332e+01  -2.186990e+01
   9.211511e+01  -1.290488e+01
   1.677978e+02  -1.781456e+01
   1.292824e+02   4.551479e+01
   1.873161e+01   9.572047e+01
  -1.097176e+02   7.464274e+01
  -6.388436e+01  -5.429723e+00
  -2.108235e+01  -1.356734e+02
   3.199240e+01  -1.469896e+01
   8.336329e+01   3.739813e+01
   5.725645e+01   8.211626e+01
   1.095916e+01   3.312003e+01
  -4.972209e+01  -2.140917e+01
  -8.014771e+01  -7.137252e+01
  -5.580911e+01  -1.052449e+02
   5.670870e+00   4.203965e+01
  -4.891521e+01   3.489044e+01
  -6.615292e+01  -6.582106e+01
   1.656721e+01  -9.135934e+01
   9.387715e+01  -1.288411e+02
   1.107889e+02  -3.839526e+01
   9.802763e+01   5.942216e+01
  -2.602350e+01   1.151390e+02
  -9.252534e+01   8.777825e+01
  -1.145848e+02   2.120987e+01
   3.113187e+01  -1.774001e+01
   8.410211e+01   5.309153e+01
   9.378868e+01   1.073614e+02
  -9.419720e+01   6.302809e+01
  -1.076442e+02   2.947039e+00
  -1.081276e+02  -3.054359e+01
  -2.665614e+01  -9.981673e+01
   2.330264e+01  -4.550149e+01
  -3.071361e+01  -9.322867e+00
   1.116089e+01  -2.440069e+01
  -8.332749e+01   2.476044e+01
  -1.332945e+01  -1.102954e+02
   4.501217e+01  -1.053281e+02
   1.584500e+02  -3.903613e+01
   7.097058e+01   3.239055e+01
  -1.061571e+00   1.686548e+02
  -9.297286e+01   6.626403e+01
  -7.553116e+01   2.580560e+01
  -7.205228e+01  -6.863082e+01
   5.390515e+01  -8.842462e+01
   1.768907e+01  -3.470002e+01
   3.083058e+01   3.919626e+01
  -4.696154e+01  -6.544443e-01
  -2.295255e+01  -2.145979e+01
  -2.337647e+01   4.297364e+01
  -1.180428e+00   3.890789e+01
   1.944153e+01   4.722650e+01
  -5.494964e+01   6.238231e+01
  -1.251096e+02  -8.081593e+01
  -1.126773e+01  -3.294318e+01
  -2.157625e+01  -2.753632e+01
   7.021250e+01  -4.991135e+01
   5.795395e+01   6.520196e+00
   9.221491e+01  -2.394116e+01
  -3.239569e+00  -4.501192e+00
  -2.101374e+01  -1.828468e+01
  -5.404938e+01   3.785903e+01
   1.022265e+01  -1.741040e+01
  -2.357856e+01  -1.232387e+01
  -4.501753e+01   1.377182e+01
  -2.229919e+01  -9.290421e+01
   4.553874e+01  -1.090041e+02
   1.675096e+02  -1.574135e+01
   1.343193e+02   6.214763e+00
   3.219196e+01   1.085615e+02
  -6.134719e+01   7.877838e+01
  -1.698890e+01   8.697330e+01
  -6.330907e+01  -5.067864e+00
  -4.093931e+01  -2.943885e+01
   1.066311e+01  -1.349704e+01
  -1.286954e+00   9.130442e+00
  -2.814565e+01  -2.637603e+01
  -2.200092e+01  -6.222438e+01
   1.104541e+02  -4.063032e+01
   5.991913e+01   9.034334e+00
   8.425412e+01   5.511001e+01
   7.195114e+01   5.938578e+01
  -8.695089e+01  -1.476238e+01
  -1.273055e+02  -4.117059e+01
  -8.686612e+01  -1.283938e+02
   4.286092e+01  -5.511268e+01
   8.726633e+01  -2.544009e+01
   1.598640e+01   7.451275e+01
  -5.093645e+01   5.274234e+01
  -5.970559e+01   7.961199e+01
   1.106093e+02  -2.405280e+01
   8.868650e+01  -3.071503e+01
   7.081336e+00   5.937640e+01
  -2.278767e+01   1.659272e+01
  -9.431673e+01   2.851569e+01
  -1.752272e+01  -3.753855e+01
  -3.626831e+00  -6.873493e+01
   7.837000e+01  -3.569813e+01
  -3.819775e+00   1.246885e+01
   2.284479e+01   2.525370e+01
  -4.988224e+01   6.820372e+01
  -1.062548e+01  -4.269897e+01
  -6.655454e+01   1.348117e+01
   4.710498e+01  -7.174432e+01
   5.419381e+01   9.792633e+00
   4.984948e+01  -4.424464e+01
   3.082009e+01  -2.771868e+01
  -6.641313e+01   5.449345e+01
  -1.821597e+01   5.392292e+00
  -4.891815e+00   2.369945e+01
   1.073623e+01   3.509122e+01
  -8.131874e+01   2.918756e+01
  -2.771267e+01  -1.869527e+01
   8.945786e+00  -8.920935e+01
  -6.121769e+00  -3.243700e+01
   7.075088e+01   7.360196e+01
   2.188000e+01  -5.648489e+00
   1.471733e+01   1.962063e+01
  -9.149925e+01  -1.648740e+01
  -3.883136e+01  -4.704958e+01
   5.246458e+01  -2.615504e+01
   2.959304e+01   3.849364e+00
   4.504231e+01   1.099983e+01
  -4.665153e+01  -2.514563e+01
  -1.031022e+02   5.361776e+01
   3.955266e+01  -5.281545e+00
   6.077554e+01   4.339054e+00
