
 $NMID
 id='ANONYMOUS ', fmtdat='(2E16.6)'
 volume=1.0
 tramp=1.0
 $END
  -1.479294e+03   3.849784e+01
  -1.030066e+03  -6.226317e+02
  -1.914515e+02  -9.190595e+02
   3.934545e+02  -7.943848e+02
   5.005432e+02  -3.551364e+02
   1.621243e+02   5.471302e+01
  -5.285339e+01   5.245540e+01
  -5.934878e+01  -2.052329e+02
   1.967171e+02  -3.005745e+02
   3.008046e+02  -9.218288e+01
   2.453269e+02   1.166114e+02
   9.231571e+01   3.684878e+02
  -1.146538e+02   8.723708e+01
  -1.216264e+02  -1.432062e+02
   4.511071e+01  -2.551336e+02
   1.921588e+02  -5.963631e+01
   1.877162e+02   2.140827e+02
  -3.520712e+01   3.722794e+02
  -2.084068e+02   1.391492e+02
  -3.023354e+02  -3.462916e+01
  -1.685372e+02  -1.622548e+02
   8.792245e+00  -1.393554e+02
   1.455237e+01  -6.126794e+01
  -1.070988e+02  -1.249463e+02
  -9.872311e+01  -1.953369e+02
   9.598836e+01  -1.597349e+02
   1.964132e+02  -8.643638e+01
   1.661687e+02   1.164178e+02
   6.508446e+00   1.837620e+02
  -1.585866e+02   5.511366e+01
  -2.698886e+02  -1.164740e+02
  -6.670921e+01  -1.398261e+02
   1.362151e+02  -1.342108e+02
   2.110953e+02  -5.877418e+01
   1.176389e+02   4.222488e+01
   5.245191e+01   1.083144e+02
   3.114805e+01   7.443346e+01
   7.019824e+00  -7.760832e+01
   1.197993e+02  -3.180996e+01
   6.973068e+01   8.206025e+01
   6.070333e+00   2.191719e+02
  -5.624533e+01   2.013622e+02
  -9.925307e+01  -2.044063e+01
  -6.339560e+01  -1.185553e+02
   2.852650e+01  -1.994450e+01
   5.213887e+01   9.949631e+01
  -7.415472e+01   1.544253e+02
  -2.345948e+02  -2.453354e+01
  -1.757669e+02  -1.843576e+02
  -7.018797e+01  -2.172789e+02
   1.216995e+02  -1.511039e+02
   2.497749e+02   1.029979e+00
   1.821017e+02   1.986377e+02
   1.808713e+01   9.165785e+01
  -1.670492e+02   3.283844e+01
  -9.486555e+01   1.591096e+01
  -2.503483e+01  -7.912261e+00
  -3.221056e+01  -4.320636e+00
  -3.729427e+01  -3.037728e+01
  -5.292926e+01  -2.948122e+01
  -5.763595e+01  -6.041045e+01
   7.063855e+01  -1.125270e+02
   2.006616e+02  -3.434898e+01
   1.852099e+02   6.193865e+01
  -3.556387e+01   2.088612e+02
  -1.245355e+02   2.333125e+02
  -2.396901e+02   3.271123e+01
  -1.104722e+02  -1.044607e+02
  -6.072668e+01  -2.197840e+02
   1.495294e+01  -1.337195e+02
   2.620329e+00  -8.359073e+01
  -9.174174e+00  -9.424526e+01
   7.247089e+01  -5.114493e+01
   1.789331e+02   3.291304e+01
   9.378662e+01   9.070816e+01
   7.615551e+01   1.589277e+02
  -4.740033e+01   1.199827e+02
  -1.343223e+02  -2.735741e+01
  -4.395955e+01  -1.331979e+02
   7.564872e+01  -1.373832e+02
   1.060471e+02  -5.363233e+01
   1.632306e+02   1.071302e+02
   1.066007e+02   1.392128e+02
  -6.890796e+01   1.520684e+02
  -5.288633e+01   1.247250e+02
  -3.204218e+01  -2.258095e+00
  -9.565022e+01   3.620698e+01
  -1.176851e+02  -1.130071e+01
  -2.578660e+02  -6.877819e+01
  -1.641472e+02  -2.087454e+02
   3.670964e+00  -2.000463e+02
   2.392128e+02  -2.196144e+02
   2.747121e+02  -1.042331e+02
   1.210763e+02   5.310073e+01
   6.717770e+00   1.335036e+02
  -2.687691e+01   4.827837e+01
   4.356917e+01  -1.481473e+01
   1.110843e+02   3.581422e+01
   4.996179e+01   2.622211e+01
   1.106078e+01   1.011634e+02
  -3.045037e+01   4.937812e+01
   3.312753e+00   9.066541e+00
   4.921868e+01   1.903335e+01
   7.901801e+01  -5.457092e+00
   7.241074e+01   1.492664e+02
   2.716120e+00   1.738319e+02
  -8.861223e+01   8.438131e+01
  -1.910894e+02  -3.687480e+01
  -2.081224e+02  -1.060371e+02
   3.984030e+01  -1.423250e+02
   1.073807e+02  -3.412740e+01
   1.007155e+02   7.725291e+00
   1.273291e+01  -1.492294e+01
   6.331868e+00  -2.997491e+01
   2.920924e+01  -1.188043e+02
   9.142352e+01   9.660406e+00
   6.970585e+01   5.768750e+01
   1.898131e+01   2.151786e+01
  -9.212289e+01  -7.796375e+00
  -3.111927e+01  -8.478082e+00
   1.073040e+02  -9.898057e+01
   1.387642e+02  -9.067162e+00
   1.310870e+02   1.438544e+02
   6.923145e+01   1.522189e+02
  -6.179571e+01   1.364020e+02
  -9.942670e+01   8.012630e+01
  -6.873205e+01   3.383326e+01
   2.975431e+01  -5.354835e+01
   4.506083e+01   1.080416e+01
  -4.419826e+01   6.727095e+01
  -1.078097e+02   1.488442e+01
  -9.797485e+01  -6.298242e+01
  -9.139679e+01  -7.165435e+01
   3.996513e+01  -7.566620e+01
   6.423803e+01  -1.337492e+01
   2.454555e+01   4.274335e+01
  -2.211623e+01  -8.065477e+01
  -2.767081e+01  -1.052138e+02
   4.972575e+01  -5.596857e+00
   1.026487e+02   2.556472e+01
   7.359711e+01   6.456929e+01
   7.341902e+01   9.625184e+01
  -2.589231e+01   7.272505e+01
  -7.936783e+01  -1.001568e+01
  -3.051507e+01  -5.610069e+01
   5.215908e+01  -6.899657e+00
   3.637148e+01   2.302485e+01
  -3.716124e+01   2.699907e+01
   1.160880e+01   1.170683e+01
   1.579386e+01   7.668399e+00
   2.072857e+01  -4.256066e+01
   8.180327e+01   1.939435e+01
  -1.555022e+01   1.134822e+02
  -1.078281e+02   9.915655e+01
  -9.562862e+01   1.616721e+01
  -1.276221e+02  -1.246913e+02
  -8.180101e+01  -1.660959e+02
   5.513490e+01  -1.274862e+02
   6.655991e+01  -4.350890e+01
   6.413335e+01   3.132309e+01
  -2.300666e+00  -1.351116e+01
   5.821498e+01  -3.897995e+01
   5.782154e+01   1.608395e+01
  -3.482619e+01  -1.147577e+01
  -3.240855e+01   8.757499e+01
  -1.003213e+02   2.624847e+01
  -5.526615e+01   4.971924e+00
   6.709573e+01  -5.051782e+01
   5.393421e+01  -2.930329e+01
   1.173640e+02   2.667997e+01
   4.618726e+01   1.325300e+02
  -7.688356e+01   1.573693e+02
  -1.970910e+02   4.059144e+01
  -5.969778e+01  -2.547685e+01
  -7.123512e+01  -9.337076e+01
   3.804017e+01  -7.014241e+01
   3.928933e+01  -2.978109e+01
   7.826604e+01  -9.660496e+01
   2.573787e+01  -5.175621e+01
   8.026524e+01  -5.802029e+01
   7.648496e+01   3.253208e+01
   7.173329e+01   9.602230e+01
   4.978715e+01   9.093206e+01
  -1.106843e+01   7.780836e+01
  -5.496099e+01  -1.571372e+01
  -6.788840e+01  -8.051411e+01
  -2.309297e+01  -1.071757e+02
   8.713561e+01  -3.986354e+01
   6.590103e+01   3.759308e+00
   1.277716e+01   4.526934e+01
  -3.623748e+01   1.267909e+01
  -6.738448e+01   4.091619e+01
   4.699446e+01  -2.565015e+01
   8.982420e+01   5.783354e+01
  -1.979500e+01   2.196656e+01
  -8.687514e+01   1.367046e+01
  -8.364640e+01  -4.696978e+01
   1.847855e+01  -5.460154e+01
   3.803756e+01  -5.762151e+01
   7.749048e+01   2.815714e+01
   2.229418e+01   2.210935e+01
  -9.828449e+00   1.776777e+01
  -2.083248e+01  -2.040102e+01
  -9.349673e+00   5.275224e+01
   3.825638e+01  -7.234047e+01
  -3.592591e+01  -2.333732e+01
   9.389617e+01   6.227241e+01
   5.021156e+01  -1.076483e+01
   8.488778e+01  -4.635829e+01
   2.326666e+01  -3.917653e+00
   5.468725e+01   3.868647e+01
   6.736928e+01   1.098246e+02
  -1.095056e+02   1.128803e+02
  -9.771496e+01  -5.986680e+00
  -8.939731e+01  -5.835132e+00
   6.654034e+00  -9.737844e+01
   2.630002e+01  -5.880555e+01
  -4.720918e+00   1.457765e+00
   2.134079e+01   3.146499e+01
  -3.840477e+01  -1.970308e+01
  -4.659717e+01  -3.881949e+01
   5.063586e+01  -5.986381e+01
   5.038556e+01  -1.205362e+01
   5.692132e+01  -3.951712e+00
  -3.081907e+01   7.268009e+01
  -7.400687e+01   6.148171e+01
   5.957821e+01   2.130036e+01
  -5.446803e+00   2.768808e+01
   5.700631e+01  -3.572990e+01
  -1.916125e+01   5.606831e+01
   4.247489e+00   6.071334e+01
  -5.885771e+01   2.644221e+01
  -1.086595e+02  -3.610535e+01
  -3.050407e+01  -8.369503e+01
   4.652005e+00  -6.565279e+01
   7.721230e+01   1.636293e+01
   3.599285e+01   5.832334e+01
   9.099777e+00   8.799320e+01
  -2.065214e+01   1.453529e+01
   1.447756e+01  -1.196739e+02
  -4.105318e+01   1.670620e+01
  -2.663980e+01   3.984622e+01
   3.605445e+01  -9.897741e+00
  -3.520501e+01  -1.519417e+01
   1.656321e+01  -5.697038e+01
   1.662602e+01  -4.959874e+01
   1.265801e+02  -2.940223e+00
   5.529669e+01  -2.735559e+01
  -2.796550e+01   5.359065e+01
  -7.277297e+01  -4.288691e+01
  -8.200281e+01  -1.269680e+01
  -1.520448e+00  -1.068859e+01
  -1.247843e+01  -1.918910e+01
   1.490356e+01   6.421378e+01
  -1.120877e+01   3.840981e+01
   2.326306e+01  -5.161536e+01
   2.655720e+01  -3.285238e+01
   5.059068e+01   2.502312e+01
   8.123084e+01   4.191512e+01
  -3.183485e+01   5.413418e+01
  -9.489999e+01   1.151255e+02
  -6.105102e+01  -1.576780e+01
  -2.982373e+01  -5.915982e+01
  -6.042110e+01  -1.171686e+02
   6.420251e+01  -7.223401e+01
   5.518850e+01   4.680466e+01
   2.835056e+01  -2.254059e+01
   1.348651e+01   2.659236e+01
  -4.843574e+00   2.368573e+01
   3.862739e+01   7.437059e+01
   6.888324e+01   1.948737e+01
   1.578079e+01  -2.787492e+01
  -1.555203e+01  -2.599356e+01
  -8.376549e+01  -1.076927e+02
   1.356387e+00  -4.633904e+01
  -9.499368e+00  -2.537702e+01
   5.503748e+01   2.969218e+01
   4.291109e+01   9.992095e+01
  -6.385519e+01   3.727036e+01
  -5.006395e+01   1.784315e+00
  -3.051065e+01  -2.886804e+01
   1.251489e+01  -3.564739e+00
   2.879278e+01   5.002169e+01
  -1.863742e+01   2.016919e+01
  -4.497339e+01   7.482692e+00
   1.931695e+01   2.452605e+00
   1.400071e+01  -1.451111e+01
   6.991189e+01  -3.494692e+01
   4.443156e+01   4.495122e+01
  -3.116497e+01   5.340098e+01
  -6.017460e+01   5.808177e+01
  -3.999520e+01   5.819202e+01
   2.652023e+01  -1.952120e+01
   3.125679e+00  -4.352785e+01
   1.131200e+01  -5.882112e+01
   1.157695e+01   6.881867e+00
  -1.029600e+01   1.743302e+01
   4.027646e+01  -2.543767e+01
   2.636172e+01  -1.353852e+01
   2.415019e+01  -1.539221e+00
  -2.570645e+00   2.195796e+01
  -1.783947e+01  -2.646242e+01
   1.180741e+00   8.078156e+00
  -2.616620e+01  -7.437858e+00
   1.284636e+01   1.982101e+01
   3.904869e+01   2.956773e+01
  -3.707957e+01   4.856783e+01
  -5.457559e+01   4.643153e+01
  -5.162837e+01  -2.255155e+01
  -3.736354e+01  -3.377596e+01
   1.723781e+00  -5.004295e+01
   1.678458e+00   1.379622e+01
  -3.362234e+01   4.979890e+01
  -1.406393e+01   3.564840e+01
  -7.487345e+01  -4.081163e+01
  -1.590333e+01  -2.861899e+01
   1.019059e+01  -6.490415e+01
  -3.528986e+01  -2.786766e+01
  -2.821297e+00  -2.148563e+01
  -1.816498e+01   4.985032e+01
