
 $NMID
 id='ANONYMOUS ', fmtdat='(2E16.6)'
 volume=1.0
 tramp=1.0
 $END
  -2.371223e+03  -4.550582e+00
  -1.667134e+03  -1.144700e+03
  -1.562924e+02  -1.586515e+03
   8.392520e+02  -1.136768e+03
   7.708649e+02  -3.793643e+02
   1.878860e+02   4.700579e+01
  -2.502570e+02   5.085442e+01
  -4.151556e+01  -3.294997e+02
   2.741977e+02  -4.630868e+02
   4.253795e+02  -1.093295e+02
   3.153972e+02   3.794139e+02
   4.758111e+01   4.891698e+02
  -1.939337e+02   1.826862e+02
  -2.218620e+02  -2.697898e+02
   4.214690e+01  -4.283425e+02
   2.656112e+02  -1.234812e+02
   2.783306e+02   3.353859e+02
  -6.053984e+01   4.625258e+02
  -2.920079e+02   2.462430e+02
  -3.493305e+02  -7.469077e+01
  -1.988195e+02  -2.745057e+02
   7.893891e+01  -1.228471e+02
   1.696606e+01  -4.986887e+01
  -1.339610e+02  -1.473634e+02
  -2.331168e+02  -2.605029e+02
   6.865884e+01  -3.001414e+02
   3.736496e+02  -8.916604e+01
   4.543409e+02   1.990843e+02
   1.879282e+02   2.423947e+02
  -2.456821e+02   5.298418e+01
  -3.385771e+02  -1.385865e+02
  -1.089694e+02  -2.477442e+02
   2.173584e+02  -2.562258e+02
   3.837723e+02  -5.410467e+01
   1.972611e+02   1.115652e+02
   8.713198e+01   1.630790e+02
   3.506000e+00   1.459671e+02
   2.144456e+01  -9.521335e+01
   1.305921e+02  -1.131408e+02
   1.037780e+02   1.462769e+02
  -4.150904e+01   3.860774e+02
  -1.605619e+02   3.299311e+02
  -1.939507e+02  -4.791192e+01
  -9.151093e+01  -2.234525e+02
   7.355676e+01  -9.724010e+01
   1.015549e+02   1.340834e+02
  -7.768855e+01   2.881476e+02
  -3.032928e+02   7.299280e+01
  -3.570381e+02  -2.831252e+02
  -1.453467e+02  -3.189106e+02
   2.257583e+02  -1.725104e+02
   3.652462e+02   4.304354e+01
   2.884653e+02   1.590191e+02
   3.435781e-01   1.808517e+02
  -2.976980e+02   1.191093e+02
  -1.994015e+02   5.744555e+01
  -4.627442e+01  -6.134922e+01
   2.849572e+01  -3.833429e+01
  -3.069374e+01   4.225566e+01
  -1.597780e+02  -9.245501e+00
  -8.195061e+01  -1.183665e+02
   1.216890e+02  -1.971264e+02
   2.990420e+02  -1.015455e+02
   2.128998e+02   4.690158e+01
  -4.854011e+01   2.888625e+02
  -2.415740e+02   2.736343e+02
  -3.402670e+02   7.539946e+01
  -1.447004e+02  -9.607499e+01
  -9.220628e+00  -2.757878e+02
   1.977976e+01  -2.040955e+02
  -6.926855e+00  -2.194089e+02
   9.301801e+01  -1.152184e+02
   1.139913e+02  -2.842630e+01
   2.488042e+02   9.435136e-01
   1.642607e+02   4.441325e+01
   1.328632e+01   2.353025e+02
  -8.419281e+01   1.184225e+02
  -1.471485e+02  -8.124687e+00
  -1.264664e+02  -1.806583e+02
   8.615618e+01  -1.560391e+02
   2.759960e+02  -4.791945e+01
   2.349608e+02   1.342974e+02
   1.200947e+02   2.256710e+02
  -3.008301e+01   2.487596e+02
  -1.425291e+02   1.508619e+02
  -1.030035e+02   8.158056e+01
  -1.152839e+02   1.105934e+02
  -1.910952e+02   4.830503e+01
  -2.926718e+02  -1.157312e+02
  -3.166603e+02  -2.635323e+02
   1.711417e+01  -3.917171e+02
   3.219271e+02  -2.908772e+02
   4.004687e+02  -1.140838e+02
   1.874459e+02   1.457354e+02
  -1.634689e+01   1.907811e+02
  -1.051482e+02   1.490104e+02
   2.454326e+01   5.962953e+01
   1.100251e+02  -2.661448e+01
   6.772116e+01   3.354236e+01
  -5.013569e+01   5.403259e+01
  -9.522808e+01   6.970084e+01
  -1.208010e+02  -5.710732e+01
   2.594731e+01  -1.171401e+02
   1.091048e+02   4.455230e+01
   1.324223e+02   2.143261e+02
   1.564645e+01   2.787387e+02
  -2.279255e+02   1.694910e+02
  -3.082659e+02  -6.146795e+01
  -2.325365e+02  -1.658338e+02
  -9.364629e+01  -2.213866e+02
   8.595982e+01  -1.387342e+02
   7.303224e+01  -1.426776e+01
  -5.951681e-01  -1.656302e+01
  -2.888301e+01  -2.665031e+01
   1.359639e+01  -8.023978e+01
   6.185033e+01  -2.854101e+01
   1.232697e+02   5.013664e+01
  -1.375405e+01   1.749222e+01
  -3.444999e+01  -7.344281e+01
  -8.620985e+01  -5.353784e+01
   8.863915e+01  -4.138360e+01
   2.540594e+02  -7.745729e+00
   1.879565e+02   1.415674e+02
  -9.897774e+00   2.588656e+02
  -1.657991e+02   2.316447e+02
  -2.113638e+02   1.035876e+02
  -9.369124e+01  -6.845803e+01
  -3.206544e+01  -3.522536e+01
   3.766618e+01  -1.669404e+01
  -7.689265e+01   4.017482e+01
  -1.920461e+02   4.794282e+01
  -1.500275e+02  -6.362346e+01
  -7.638991e+01  -7.099611e+01
   7.221005e+01  -1.113903e+02
   1.086375e+02   1.530598e+01
  -9.645161e+00   5.141768e+01
  -6.656550e+01  -7.059947e+01
  -4.102526e+01  -8.240691e+01
   7.744393e+01  -9.832538e+01
   1.479515e+02   2.526626e+01
   1.378405e+02   7.633340e+01
  -2.289701e+01   1.763124e+02
  -1.144410e+02   1.293136e+02
  -1.733281e+02   9.326832e+00
  -4.390757e+01  -7.945661e+01
   4.894245e+01  -9.032235e+01
   6.467792e+01  -3.038602e+01
  -5.804884e+00  -5.408503e-01
  -6.427783e+01  -3.167093e+01
   2.881685e+01   5.118846e+01
   3.934585e+01   7.531066e+00
   6.541051e+01   8.113514e+01
   4.022325e+01   1.256139e+02
  -1.360826e+02   5.794786e+01
  -1.653958e+02  -1.071877e+01
  -9.952067e+01  -1.261788e+02
   6.977447e+00  -1.277231e+02
   1.258465e+02  -9.278250e+01
   8.837264e+01   1.425615e+01
   1.278335e+02   4.322681e+01
  -2.549729e+01   2.734160e+01
   5.032834e+01  -2.758846e+01
   1.262596e+02  -6.587786e+00
   2.006286e+01   5.303026e+01
  -1.545217e+01   6.332280e+01
  -8.288392e+01   7.289538e+01
  -8.723125e+01  -4.614745e+01
  -1.176531e+01  -8.313560e+01
   1.416541e+02  -6.885087e+01
   1.409675e+02   8.606074e+01
   7.281962e+01   1.618610e+02
  -1.001528e+02   1.740421e+02
  -2.349342e+02   7.540804e+01
  -2.373820e+02  -8.672768e+01
  -5.899916e+01  -1.024288e+02
  -6.645931e+00  -1.143649e+02
   7.810554e+01  -3.729854e+01
  -2.189033e+00  -6.530197e+01
   4.155713e+01  -7.935506e+01
   1.425469e+02  -7.529034e+01
   7.391684e+01   2.028546e+01
   7.722373e+01   8.374435e+01
   7.147878e+00   1.308904e+02
  -3.520663e+01   2.020335e+02
  -1.379320e+02   1.632139e+00
  -3.432179e+01  -9.945221e+01
   1.493367e+01  -1.698596e+02
   6.896956e+01  -6.534639e+01
   6.588449e+01   5.681342e+01
  -5.879064e+01   4.855227e+01
  -8.756944e+01   4.345985e+01
  -1.399523e+01   1.000168e+01
  -2.990398e+01   5.691019e+01
   6.684085e+01   8.571143e+00
  -1.252665e+02   6.425400e+01
  -1.470677e+02   1.117298e+01
  -1.289472e+02  -5.108641e+01
   4.513043e+01  -7.321167e+01
   8.184053e+01  -7.111735e+01
   8.902643e+01   3.385122e+00
   2.640399e+01   2.966146e+01
  -6.992360e+01   3.231365e+01
  -2.054884e+01   3.207140e+01
   2.697017e+00  -3.073160e+01
   1.205450e+02  -1.413709e+01
   1.104995e+02  -3.067007e+01
   2.484211e+01   3.781143e+01
   5.044450e+01   3.061522e+01
   9.150100e+01   2.629497e+01
   3.804904e+01  -3.586734e+01
   8.985072e+01   2.496695e+01
  -4.435374e+01   1.257209e+02
  -1.140943e+02   1.446375e+02
  -1.619294e+02   2.091647e+01
  -1.137663e+02  -2.789344e+01
   4.394930e+01  -1.567197e+02
   6.616151e+01  -1.221312e+01
   7.594350e+01   2.163394e+01
  -2.797186e+01  -4.908421e+01
  -1.072941e+02  -5.125428e+01
  -6.494606e+01  -9.108172e+01
   6.867053e+01  -8.165360e+01
   1.553416e+02  -5.025852e+01
   1.508529e+02   8.055734e+01
   3.764799e+00   8.786611e+01
  -7.026124e+01   4.571014e+01
  -6.295494e+01  -3.020440e+01
   3.532005e+01  -1.873133e+01
   1.027927e+02   1.700202e-01
   2.351028e+01   1.396858e+02
  -6.590763e+01   9.765988e+01
  -1.784785e+02   1.045739e+02
  -7.985988e+01  -4.131608e+01
   8.814306e+00  -1.591433e+02
   1.084051e+02  -1.367329e+02
   1.573570e+02  -1.486545e+00
   2.661060e+00   8.809217e+01
  -2.040382e+01   6.545112e+01
  -5.798500e+01  -1.321939e+01
  -4.662961e+01   6.563623e+00
   2.187145e+01  -1.900588e+01
  -4.134031e+01  -3.522947e+01
   1.621631e+01  -5.391346e+01
  -6.633380e+01  -8.243134e+01
   3.936153e+01  -5.631536e+01
   5.617270e+01  -5.275316e+01
   9.694767e+01  -2.711163e+00
   5.398833e+01   4.645043e+01
  -2.021142e+01   7.639123e+01
  -3.043347e+01   1.266202e-01
  -1.075412e+01   1.195249e+01
   2.443683e+01   1.183049e+01
   3.498192e+01   6.007419e+01
   8.629166e+00   4.079571e-01
  -1.461681e+01  -2.219417e+01
   2.595158e+01   5.383679e+01
   2.966899e+01  -3.580131e+01
   9.890141e+01   4.485857e+01
  -1.956417e+01   5.559219e+01
  -1.155610e+02   7.484227e+01
  -1.787479e+02   1.349291e+02
  -1.045813e+02  -6.546992e+00
  -2.997554e+01  -1.868033e+02
   6.049269e+01  -7.921958e+01
   9.132006e+01  -4.091478e+01
   1.271159e+02   5.192985e+01
   2.226321e+01  -1.951613e+01
   3.006517e+01  -1.089560e+01
   2.993406e+01   1.016808e+01
   3.954231e+01   2.301756e+01
  -3.300594e+00   2.569118e+01
  -4.620567e+01   4.469426e+01
  -3.660894e+01  -1.929755e+01
  -1.167571e+02  -9.863175e+01
  -4.337677e+00  -3.725113e+01
   6.671685e+00  -3.146710e+01
   8.389703e+01   7.619547e+01
   3.587734e+01   7.341256e+01
  -7.579941e+01   7.795241e+01
  -4.703285e+01  -2.330338e+01
  -3.115137e+01  -3.423176e+01
   4.623906e+01  -2.381209e+01
   4.599934e+01  -1.886219e+01
   8.229948e+01   1.150852e+00
  -8.296207e+01  -6.865540e+00
  -1.248296e+01  -6.451953e+00
   4.412682e+01  -6.106343e+01
   9.804937e+01  -2.977018e+01
   5.193304e+01   5.246746e+01
  -2.645344e+01   8.680153e+01
  -6.472133e+01   5.891535e+01
  -2.692060e+01   2.499580e+01
  -1.524289e+00  -4.430080e+01
   6.761264e+01  -8.262303e+01
   6.450143e+01  -1.027587e+01
   5.040526e+01   5.381086e+01
  -4.807236e+01   6.979148e+01
  -5.135600e+01   4.665658e+01
   1.365266e+01  -3.193622e+01
  -3.063582e+01  -2.461926e+01
   4.757359e+01   2.621153e+01
  -5.084314e+01   6.294668e+01
   3.501619e+01   1.258420e+01
  -2.117525e+01  -2.428767e+00
   6.860810e-01   2.485595e+00
   7.459497e+01   2.631581e+01
   3.933778e+01   5.204254e+01
   5.328669e+01   7.873408e+00
  -5.594874e+01  -8.370526e+00
   3.710516e+01  -2.445516e+01
   2.381335e+01  -1.018461e+01
   6.115988e+01   6.406165e+01
   2.579059e+01   3.870101e+01
  -2.918751e+01   1.324693e+01
  -3.171477e+01   8.140537e+00
   2.690572e+01  -3.744956e+01
   1.542353e+01   1.276644e+01
   4.880757e+01  -1.008547e+01
  -2.790502e+01   2.417176e+01
  -7.084949e+01   6.455908e+01
