
 $NMID
 id='ANONYMOUS ', fmtdat='(2E16.6)'
 volume=1.0
 tramp=1.0
 $END
   2.873336e+03  -4.984500e+00
   1.984400e+03   1.480055e+03
   1.034410e+02   1.838676e+03
  -1.047199e+03   1.182724e+03
  -8.504330e+02   3.064022e+02
  -7.141635e+01  -8.828192e+01
   2.703929e+02   5.974211e+01
   1.749565e+00   4.483790e+02
  -3.350692e+02   5.607149e+02
  -6.037022e+02   1.741314e+02
  -4.062954e+02  -3.894550e+02
  -1.000195e+02  -5.723663e+02
   2.189055e+02  -1.874719e+02
   2.885917e+02   3.777313e+02
  -1.688650e+01   5.270329e+02
  -3.582234e+02   6.966031e+01
  -2.944737e+02  -4.101881e+02
   5.425102e+01  -5.411051e+02
   4.016485e+02  -3.116253e+02
   4.296166e+02   1.110050e+02
   1.111257e+02   3.333535e+02
  -1.778808e+02   2.103567e+02
  -7.033202e+00   7.049993e+01
   1.295393e+02   6.105582e+01
   3.012086e+02   2.438669e+02
  -4.982425e+01   3.186761e+02
  -4.026664e+02   1.383441e+02
  -5.470358e+02  -1.986716e+02
  -2.141672e+02  -2.887837e+02
   3.219069e+02  -1.877988e+02
   4.233033e+02   1.641609e+02
   1.718163e+02   2.856879e+02
  -2.154343e+02   3.118562e+02
  -3.849356e+02   1.551587e+02
  -2.291816e+02  -8.003562e+01
  -9.803413e+01  -2.968312e+02
   1.825342e+01  -1.918072e+02
  -5.325376e+01   4.158298e+01
  -2.019444e+02   4.332320e+01
  -1.448153e+02  -1.673612e+02
   2.769660e+01  -4.200172e+02
   2.017859e+02  -3.773690e+02
   3.494921e+02  -2.866269e+01
   8.272429e+01   3.113997e+02
  -1.477541e+02   1.547297e+02
  -2.000254e+02  -2.749926e+02
   9.158928e+01  -3.918491e+02
   4.090368e+02  -2.460828e+01
   4.498504e+02   3.591970e+02
   1.897497e+02   4.650276e+02
  -2.795800e+02   1.964443e+02
  -4.990036e+02  -6.065251e+01
  -3.255473e+02  -2.403809e+02
   5.731696e+01  -1.821243e+02
   2.049708e+02  -5.324846e+01
   2.565961e+02   1.367170e+01
   7.696642e+01   2.143130e-01
   3.217971e+01  -8.806478e+01
   7.789567e+01   1.216266e+01
   2.133267e+02  -1.949172e+01
   1.021804e+02   1.747278e+02
  -1.443047e+02   2.437161e+02
  -3.064211e+02   1.545024e+02
  -2.873895e+02  -5.703578e+01
  -2.011219e+00  -2.940330e+02
   3.264520e+02  -3.445372e+02
   3.454567e+02  -1.557468e+02
   2.387471e+02   1.817543e+02
   2.163335e+01   2.727152e+02
  -2.927396e+01   2.365192e+02
   2.374732e+01   1.536630e+02
  -6.315803e+01   1.346224e+02
  -6.775224e+01   1.100408e+02
  -2.838178e+02   4.545000e+01
  -2.140663e+02  -1.295754e+02
  -8.334529e+01  -2.236848e+02
   9.084880e+01  -2.236126e+02
   1.609130e+02   1.050005e+02
   6.645646e+01   2.056727e+02
  -4.509105e+00   1.794462e+02
  -2.515876e+02   2.206345e+01
  -3.168272e+02  -1.736422e+02
  -2.478077e+02  -1.823201e+02
   6.736197e+00  -2.080964e+02
   1.109253e+02  -1.378174e+02
   1.526079e+02  -2.458478e+01
   1.422617e+02  -5.757212e+01
   2.971945e+02  -4.163514e+01
   4.346358e+02   8.250483e+01
   2.803296e+02   2.817337e+02
  -5.185499e+01   4.161518e+02
  -2.920197e+02   3.687512e+02
  -4.721150e+02   1.364741e+02
  -2.781934e+02  -1.589813e+02
  -1.338724e+01  -2.033438e+02
   1.059252e+02  -1.721113e+02
   6.199411e+01  -6.517141e-02
  -8.851687e+01   7.071124e+01
  -8.743092e+01  -2.710108e+01
   6.527332e+00  -1.257753e+02
   1.021920e+02  -8.913027e+01
   4.502686e+01   1.553634e+01
   2.552165e+01   1.433115e+02
  -1.642759e+02   1.071050e+00
  -1.005111e+02  -2.341682e+02
  -1.559452e+01  -3.479611e+02
   2.241983e+02  -2.154527e+02
   3.559531e+02   1.456130e+01
   2.677260e+02   2.414544e+02
   5.299094e+01   2.389922e+02
  -1.201144e+02   1.250987e+02
  -1.111769e+02  -1.418000e+01
  -3.542667e+01  -4.496335e+01
   1.834399e+01   8.374526e+01
  -7.694109e+00   1.105600e+02
  -1.277405e+02   8.091641e+01
  -1.366788e+02  -3.438994e+01
  -2.176892e+01   5.533617e+00
   1.306967e+02   4.491878e+01
   5.320016e+00   1.091742e+02
  -1.288233e+02   6.980082e+01
  -3.032323e+02  -7.775680e+01
  -2.207801e+02  -1.442488e+02
  -7.648556e+01  -2.828081e+02
   1.801679e+02  -1.788687e+02
   2.961563e+02  -1.294863e+02
   6.589765e+01   1.194924e+01
  -2.996663e+01   4.283115e+01
  -7.030181e+01   1.736298e+01
   8.327600e+01  -3.038828e+01
   1.606514e+02  -1.534616e+01
   1.101001e+02   8.233564e+01
   5.802072e+01   1.630901e+02
  -7.032319e+01   8.617163e+01
  -1.394256e+02   2.466135e+01
  -2.691773e+01  -8.636114e+00
   4.568890e+01  -8.640696e+01
   5.020941e+01   5.867706e+01
  -9.447714e+01   7.318463e+01
  -1.866874e+02   4.410282e+01
  -1.243193e+02  -1.451631e+02
   1.945542e+01  -1.965087e+02
   1.511896e+02  -9.356177e+01
   1.849588e+02  -6.276575e+01
   1.096295e+01   6.976213e+01
  -5.722502e+01   8.862650e+01
  -8.653069e+01   5.463682e+01
   3.731683e+01  -1.911961e+01
   5.019071e+01  -1.409676e+00
  -4.825623e+01  -1.822196e+01
  -6.054659e+01   2.188829e+00
  -1.154771e+02  -3.199830e+01
  -4.723434e+00  -9.487190e+01
   1.432274e+02  -1.703811e+02
   2.422472e+02   3.951502e+00
   1.722627e+02   1.860400e+02
   2.522999e+01   1.991228e+02
  -3.889930e+01   1.215838e+02
  -1.405806e+02  -1.850486e+00
  -8.685603e+01  -3.986619e+01
  -9.539226e+00  -3.891037e+01
  -2.654161e+01  -4.078726e+01
  -7.860549e+01  -3.362597e+01
  -8.356907e+01  -3.562777e+01
   5.784086e+01  -9.147342e+01
   1.024177e+02  -4.071528e+01
   1.138113e+02   8.189685e+01
   1.192674e+00   1.288971e+02
  -2.311465e+02   7.091126e+01
  -2.740007e+02  -6.035259e+01
  -4.788596e+01  -1.654721e+02
   7.411930e+01  -2.165913e+02
   2.114142e+02  -9.062217e+01
   2.289264e+02   7.463228e+01
   1.444170e+02   1.734116e+02
  -9.825544e+01   1.710837e+02
  -1.221313e+02   9.021625e+01
  -6.744785e+01   1.519125e+02
  -9.389647e+00   6.787542e+01
  -3.464864e+01   5.111460e+01
  -1.138514e+02  -4.839323e+01
  -9.716975e+01  -1.938438e+02
  -5.487309e+01  -2.071221e+02
   1.343361e+01  -1.606754e+02
   1.627339e+02  -5.045240e+01
   1.125337e+02   1.337639e+02
   7.803567e+01   1.159101e+02
  -7.455901e+01   9.853274e+01
  -1.127397e+02  -6.279289e+01
   3.734783e+01  -3.404900e+01
   1.309550e+01  -4.597570e+01
  -1.740756e+01  -1.759094e+01
  -1.092630e+02  -1.966920e+01
  -7.670531e+01  -3.546781e+01
   5.079112e+01  -5.423716e+00
   1.382266e+02  -1.639689e+01
   1.542099e+02   8.609829e+01
  -9.277068e+00   1.262228e+02
  -1.645694e+02   1.111559e+02
  -1.632320e+02   3.913300e+01
  -8.855856e+01  -2.947421e+01
   3.562023e+01  -2.280309e+01
   4.778682e+01   3.088641e+01
   1.617265e+01  -4.804836e+00
  -3.105184e+01   7.874527e+01
  -7.507491e+01   4.721975e+00
  -6.280696e+01   1.463443e+01
  -5.816697e+01  -4.024519e+01
  -1.603464e+01   1.168622e+00
  -6.491005e+01  -2.179821e+01
  -6.222805e+01  -4.485650e+01
   7.820435e+00  -1.684585e+02
   1.334863e+02  -1.129786e+02
   1.303949e+02  -3.803394e+01
   1.805886e+02   7.880242e+01
  -1.899215e+01   1.191854e+02
  -6.835563e+01   6.184433e+01
  -7.138576e+01   1.043987e+01
  -3.977717e+01  -3.165239e+00
   1.258644e+02   2.145246e+01
   4.857924e+01   1.036284e+02
  -7.267405e+01   1.113360e+02
  -1.525388e+02   6.142981e+01
  -1.162230e+02  -8.622804e+01
  -1.150840e+01  -3.650349e+01
   7.897272e+01  -3.699092e+01
   2.585708e+01  -1.364525e+01
  -7.948018e+01   9.160020e+01
  -1.224156e+02  -9.310470e+00
  -4.727951e+01  -1.337263e+02
   4.167723e+01  -1.410346e+02
   1.122807e+02  -8.623945e+01
   1.192240e+02   9.391663e+00
   3.292787e+00   1.730367e+02
  -9.822230e+01   1.295576e+02
  -8.397214e+01  -2.702508e+01
  -5.901585e+01  -7.512785e+01
  -2.327578e+00  -1.355124e+02
   3.424222e+01  -1.171849e+02
   3.440344e+00   4.941859e+01
   4.571205e+01   1.642282e+01
  -8.671955e+00  -1.911567e+01
   5.607056e+01   9.960173e+00
   2.672213e+01   8.437253e+01
   4.893832e+01   1.440208e+02
  -3.384054e+01   7.774409e+00
  -8.637171e+01  -7.398471e+00
  -1.274569e+02  -9.187477e+01
  -6.674258e+01  -1.046869e+02
   5.827148e+01  -7.494397e+01
   8.340776e+01   4.009824e+01
   3.643455e+01  -2.283593e+01
  -1.318935e+01   7.177969e+01
  -6.854886e+00   9.787535e+00
   2.750560e+01  -3.473995e+01
  -1.647600e+01  -1.122464e+01
  -1.104321e+02   2.406253e+01
  -4.546001e+01   3.363050e+01
  -3.372713e+00  -3.357406e+01
   7.575337e+01  -1.138277e+02
   1.282062e+02  -6.613741e+01
   1.523264e+02   8.089998e+01
   2.393187e+01   1.959264e+02
  -8.628308e+01   1.366058e+02
  -1.481718e+02   1.418006e+01
  -1.033601e+02  -2.461076e+01
  -3.481652e+01  -1.942592e+01
   2.986396e+01  -8.009539e+01
  -2.339482e+01   4.307100e+01
  -4.113947e+01  -4.596460e+01
  -4.232913e+01  -5.026927e+01
   7.137958e+01  -6.121890e+01
   4.493721e+01  -6.293932e+01
   9.329603e+01   7.244000e+01
  -5.743491e+00   1.759915e+02
  -5.567182e+01   4.574053e+01
  -1.318032e+02  -6.376014e+00
  -5.662885e+01  -1.001104e+02
   3.813658e+01  -4.719526e+01
   7.803056e+01   4.170869e+01
   2.335972e+01   3.246916e+01
   8.367261e+00   4.037760e+01
  -4.952272e+01   8.481831e-01
   4.125096e+01  -2.887205e+01
   3.524871e+01   1.826295e+01
  -6.689896e+01   4.485716e+01
  -1.029442e+02   5.256631e+01
  -7.815656e+01   1.937650e+01
  -9.032841e+01   2.132837e+00
  -7.848684e+00  -7.514510e+01
   1.036761e+02  -8.670563e+01
   6.501047e+01   2.800694e+01
   4.287068e+00   4.709307e+01
  -2.006949e+00   1.087020e+02
  -1.282265e+02   7.567127e+00
  -2.202779e+00  -1.336286e+01
   3.911555e+01  -9.008180e+00
  -1.174643e+01  -4.284245e+00
   1.460960e+01   4.711607e+00
  -1.184106e+01  -1.105307e+01
  -5.376582e+01  -4.287341e+01
   5.633396e+01  -1.396849e+01
   6.485661e+00   4.903932e+01
   4.982595e+01   3.252885e+01
  -3.758270e-01   5.573655e+01
  -6.848636e+01  -3.338037e+01
  -4.034615e+01  -4.974392e+01
   4.913045e+01  -4.275793e+00
   8.987255e+01   5.699294e+01
   5.955785e+01   3.470554e+01
  -3.683801e+01   3.741916e+01
  -9.019644e+01  -3.055112e+01
  -5.437207e+01  -3.780152e+01
   3.522552e+01   9.741772e+00
   4.714686e+01  -7.530209e+01
   7.515033e+01  -1.322286e+01
  -4.030830e+01   3.588861e+00
  -4.351283e+01   4.936258e+01
   2.185146e+01  -5.441483e+01
   2.683434e+01  -5.994847e+01
