
 $NMID
 id='ANONYMOUS ', fmtdat='(2E16.6)'
 volume=1.0
 tramp=1.0
 $END
   2.533271e+03  -5.234814e+01
   1.792757e+03   1.120204e+03
   2.090795e+02   1.587765e+03
  -8.180062e+02   1.178516e+03
  -8.368109e+02   3.552645e+02
  -1.564267e+02  -1.218024e+02
   2.324700e+02  -1.846807e+01
   4.870415e+01   3.328496e+02
  -3.185783e+02   4.707154e+02
  -4.752033e+02   1.247372e+02
  -3.779516e+02  -3.418598e+02
  -1.266190e+02  -5.125325e+02
   1.984492e+02  -2.246590e+02
   1.800475e+02   2.709050e+02
   1.142202e+01   4.417527e+02
  -3.029342e+02   9.151580e+01
  -3.093287e+02  -3.564961e+02
   3.812479e+01  -5.166824e+02
   4.527020e+02  -2.376584e+02
   4.176932e+02   8.439126e+01
   1.153514e+02   2.813680e+02
  -4.929428e+01   2.192744e+02
  -2.051279e+00   9.508802e+01
   1.624669e+02   1.369752e+02
   2.045856e+02   2.516364e+02
  -7.155334e+01   3.042031e+02
  -3.755554e+02   8.093759e+01
  -4.821512e+02  -1.568062e+02
  -1.424652e+02  -2.800418e+02
   2.438008e+02  -1.150835e+02
   4.723643e+02   1.275594e+02
   1.312288e+02   2.750204e+02
  -2.376263e+02   2.495441e+02
  -4.174523e+02   1.271092e+02
  -2.755321e+02  -1.548873e+02
  -1.136579e+02  -2.436362e+02
  -8.051108e+01  -1.775594e+02
  -6.086739e+01   2.714747e+01
  -1.350448e+02   1.101364e+02
  -2.096697e+02  -1.490588e+02
   4.016901e+01  -4.062649e+02
   2.095031e+02  -2.777851e+02
   2.301958e+02  -1.156793e+01
   2.038539e+01   2.248732e+02
  -7.075897e+01   3.050050e+01
  -4.806779e+01  -2.115665e+02
   1.003263e+02  -2.608421e+02
   3.515655e+02  -1.008868e+02
   4.211054e+02   3.755801e+02
   1.565587e+02   4.217008e+02
  -2.435018e+02   2.482437e+02
  -3.881554e+02  -3.206724e+00
  -2.502889e+02  -1.637875e+02
  -5.903776e+00  -2.038133e+02
   2.311233e+02  -3.448202e+01
   1.609029e+02  -5.948986e+00
  -2.890527e+01   9.084536e+00
  -1.640242e+01  -3.232913e+01
   1.676733e+01  -5.850263e+01
   1.500005e+02  -3.946151e+00
   6.148221e+01   1.204125e+02
  -1.300831e+02   1.610232e+02
  -2.677359e+02   1.187615e+02
  -2.439362e+02  -7.174851e+01
   2.932621e+01  -2.681210e+02
   2.702554e+02  -2.846579e+02
   2.733761e+02  -1.842596e+02
   2.174081e+02   1.685781e+02
   4.682410e+01   2.714894e+02
  -3.433332e+01   2.644615e+02
   2.108509e+01   1.834166e+02
  -1.222023e+01   8.968371e+01
  -8.646034e+01   1.201083e+02
  -2.844129e+02   2.662250e+01
  -1.768808e+02  -1.062777e+02
  -7.957871e+01  -2.220743e+02
   3.907476e+01  -1.247457e+02
   1.154877e+02   6.364084e+01
   4.688416e+01   1.968541e+02
  -9.331132e+01   1.818278e+02
  -2.251821e+02   4.267261e+01
  -2.227371e+02  -1.621415e+02
  -1.236073e+02  -1.808116e+02
   3.412700e+01  -2.456773e+02
   1.530470e+02  -1.506448e+02
   1.224448e+02  -1.709915e+01
   1.261044e+02  -1.053004e+02
   2.590689e+02  -3.858766e+01
   3.489123e+02   5.344323e+01
   2.672727e+02   2.213293e+02
  -1.967307e+01   3.192572e+02
  -3.287577e+02   3.628405e+02
  -3.748666e+02   1.485134e+02
  -2.349617e+02  -6.594255e+01
  -3.576475e+01  -1.897994e+02
   9.283517e+01  -1.511041e+02
  -3.111241e+01   3.507859e+01
  -1.059434e+02  -1.100181e+01
  -1.125192e+02  -2.805679e+01
  -7.849887e+01  -1.317166e+02
   1.369206e+02  -1.589719e+02
   8.396133e+01  -9.256805e+00
  -1.668131e+01   1.434519e+02
  -1.164385e+02  -1.875783e+01
  -9.213503e+01  -1.555265e+02
   7.710799e+01  -2.810499e+02
   1.952702e+02  -2.217988e+02
   3.016808e+02   6.121469e+00
   2.451972e+02   1.964204e+02
   7.215880e+01   1.874412e+02
  -5.817988e+01   1.691336e+02
  -1.383992e+02   2.473512e+01
  -8.847711e+01   3.205497e+01
   9.191775e+01   9.452060e+01
  -7.793539e+00   7.739493e+01
  -1.174449e+02   4.400426e+01
  -1.471270e+02  -7.890360e+01
   5.229351e+01  -7.946973e+00
   9.885541e+01  -2.268946e+01
   2.186630e+01   1.103699e+02
  -1.393274e+02   9.712932e+01
  -2.647697e+02  -2.062033e+01
  -2.153566e+02  -5.784947e+01
  -3.754202e+01  -2.409818e+02
   1.812286e+02  -1.953562e+02
   2.429175e+02  -1.763911e+01
   1.235897e+02   5.905018e+01
   4.460919e+00   6.508246e+01
  -7.270952e+01  -1.071172e+01
   5.831665e+01  -8.437416e+01
   1.921374e+02  -4.340979e+01
   1.327066e+02   6.696859e+01
   6.886276e+01   1.155413e+02
  -1.023486e+02   6.281906e+01
  -1.081888e+02   3.818049e+01
  -3.168961e+01  -2.411810e+01
   2.331696e+01   2.523830e+00
   1.421782e+01   6.877370e+01
  -8.815577e+01   1.692601e+02
  -2.670212e+02   6.152270e+01
  -1.759202e+02  -5.774381e+01
  -6.139183e+01  -1.762309e+02
   1.050041e+02  -1.253453e+02
   1.120455e+02  -3.506008e+00
   8.295858e+01   1.245268e+01
  -8.613636e+01   4.607894e+01
  -7.676395e+01   1.264767e+01
  -3.453765e+01  -6.647985e+01
   6.947007e+01  -4.129775e+00
  -1.046965e+01  -6.175882e+01
  -1.108253e+02  -5.849182e-01
  -9.734124e+01  -9.891706e+01
  -5.496230e+01  -2.065604e+02
   1.213965e+02  -9.689076e+01
   2.654946e+02  -2.403601e+01
   1.927778e+02   2.165042e+01
   6.755722e+01   2.101242e+02
  -5.517214e+01   1.430836e+02
  -1.267953e+02   2.149635e+01
  -8.868133e+01  -3.368505e+01
   5.137026e+01  -6.304490e+01
  -5.243024e+01   4.100996e+01
  -1.722398e+02   1.902254e+01
   1.813483e+00  -7.812175e+01
   6.584571e+01  -1.352281e+02
   8.483991e+01  -1.109450e+02
   1.108301e+02   2.626567e+01
  -2.502984e+01   1.197175e+02
  -2.125873e+02   9.799256e+01
  -1.734340e+02  -5.691355e+01
  -2.693712e+01  -1.701307e+02
   1.137195e+02  -1.494216e+02
   2.248328e+02  -3.477055e+01
   2.154670e+02   2.269947e+01
   7.266856e+01   9.354688e+01
   1.931438e+01   1.615827e+02
  -7.768886e+01   3.180265e+01
  -4.146779e+01   8.183692e+01
  -2.535877e+01   8.339861e+01
  -1.303299e+02   1.269403e+02
  -1.416143e+02  -2.322092e+01
  -1.140250e+02  -9.435440e+01
  -1.978406e+01  -2.173031e+02
   2.019537e+01  -1.069379e+02
   1.130170e+02  -7.472051e-02
   1.049366e+02   1.642661e+02
  -1.610226e+00   1.265807e+02
  -2.901288e+01   3.971661e+01
  -4.490047e+01  -1.585822e+01
   2.490181e+01  -3.302585e+01
  -3.601760e+01  -3.506177e+01
  -1.624223e+01  -3.250269e+01
  -6.336345e+01   1.041259e+01
  -2.112750e+01  -5.618076e+00
   6.414751e+01  -5.789333e+01
   1.404815e+02  -3.431905e+00
   1.220764e+02   8.780821e+01
  -3.444170e+01   7.963241e+01
  -5.306262e+01   8.157318e+01
  -1.455658e+02   3.558182e+01
  -5.684530e+01  -5.090006e+01
   7.931070e+01  -1.016595e+02
   9.768764e+01  -1.888738e+01
   2.115544e+01   4.046934e+01
  -5.479899e+01   4.009958e+01
  -4.069012e+01  -5.293110e+01
  -3.971953e+01  -9.690526e+01
  -3.112972e+01  -8.227387e+01
  -1.031500e+02  -1.642954e+01
  -5.320738e+01  -1.356602e+01
  -4.371152e+01  -1.233011e+02
  -1.534276e+01  -1.517003e+02
   1.121420e+02  -1.444366e+02
   1.744699e+02  -4.842190e+01
   9.534953e+01   1.074220e+02
  -1.526664e+01   9.725649e+01
  -1.055698e+02   1.076911e+02
  -3.077023e+01  -3.718515e+01
   7.487104e+01   5.640220e+00
   1.221306e+02  -1.373802e+01
   7.710626e+01   7.700981e+01
  -9.943480e+01   7.356727e+01
  -1.792591e+02   5.796394e+01
  -1.442334e+02  -5.622911e+01
   2.463251e+01  -1.130226e+02
   5.704513e+01  -3.829612e+01
   5.832192e+01  -5.410816e+00
  -2.107452e+01   2.826872e+01
  -1.072548e+02   8.720313e+00
  -5.532057e+01  -1.087802e+02
   6.790107e+01  -1.301012e+02
   1.455561e+02  -2.654781e+01
   8.314776e+01   8.633881e+01
  -5.958012e+01   1.506541e+02
  -1.145577e+02   1.071050e+02
  -6.581912e+01   3.307291e+00
  -7.237616e+01  -9.780840e+01
   3.852760e+00  -1.198734e+02
   2.331382e+01   3.055041e+01
   5.268284e+01   2.097192e+01
  -1.877133e+01  -1.568398e+01
  -1.826181e+01  -1.651597e+01
   1.046329e+01  -2.636307e+01
   5.085087e+01   9.556495e+00
  -1.963371e+01   1.117523e+02
  -9.184628e+01   6.387593e+01
  -1.100879e+02  -8.647389e+01
  -1.050507e+02   7.204958e+00
   6.391743e+01  -5.877076e+01
   1.175031e+02  -9.003374e+01
   6.655805e+01   1.191596e+01
   5.626437e+01   9.991733e+00
  -2.571002e+01   5.345402e+01
   2.407050e+01   2.901110e+01
  -4.780987e+00  -5.920907e+01
   3.297663e+01  -7.469020e+00
  -5.422850e+01  -3.078175e+01
  -1.144912e+02   8.912942e+00
   2.565135e+01  -2.316573e+01
   1.030509e+02  -1.188697e+02
   1.534761e+02   9.780097e+00
   7.300532e+01   8.683598e+01
   6.383179e+01   1.529186e+02
  -4.489571e+01   8.319079e+01
  -2.074926e+01   8.398021e+01
  -5.102033e+01   1.926233e+01
  -2.078518e+01  -3.295035e+01
   3.220058e+01   8.232615e+00
  -4.281959e+01  -6.566525e+01
  -4.662937e+01  -8.719652e+00
  -1.329243e+01  -7.384692e+01
   2.119509e+01  -6.182383e+01
   1.145666e+02  -4.045552e+01
   5.692776e+01   9.362071e+01
  -1.565713e+01   7.198114e+01
  -3.269812e+01   1.237088e+01
  -9.380885e+01  -5.680794e+01
  -1.042344e+02  -1.167320e+02
   4.852583e+01  -5.300910e+01
   7.161473e+01  -2.763041e+01
   2.566987e+01   3.330931e+01
  -3.194376e+01   2.314384e+01
  -6.541483e+01   2.839684e+01
  -1.291066e+01  -2.458887e+01
   8.245281e+01  -3.078482e+01
   7.056196e+01   2.319960e+01
  -1.031139e+02   4.380260e+01
  -1.114014e+02  -7.416984e+00
  -2.441311e+01  -1.264889e+01
  -2.848715e+01  -1.702942e+01
   1.746799e+01  -3.514577e+01
   3.528069e+01  -2.101747e+01
  -4.732612e+01   3.846384e+01
  -2.471864e+01   7.992495e+01
  -4.266460e+01  -2.637485e+01
   5.680146e+01  -7.784418e+01
   2.460859e+01  -7.919475e+01
   3.880504e+01   3.582949e+01
  -1.891331e+01   5.056260e+00
  -2.287366e+01   1.627243e+01
   1.701943e+01   6.723368e+00
   2.593137e+01   4.180959e+01
   2.611387e+01   3.403320e+01
  -1.713155e+01   2.818276e+01
  -3.394237e+01   2.909529e+01
  -1.393990e+01   3.173570e+01
  -1.665827e+01  -9.356161e+01
   2.711160e+01  -4.691525e+01
   8.451712e+01   1.648927e+01
   1.702665e+01  -3.269443e+00
  -1.048274e+02   3.937363e+01
  -5.681198e+01   3.754854e+01
  -9.271047e+00  -5.107475e+01
   9.615544e+00  -6.108488e+01
   8.556880e+01  -3.779040e+01
   8.491381e+00  -1.682346e+01
  -1.162176e+01  -1.671829e+01
  -3.392441e+01   7.187385e+00
   7.625799e+01  -3.214541e+01
   5.854352e+01  -3.655045e+01
