
 $NMID
 id='ANONYMOUS ', fmtdat='(2E16.6)'
 volume=1.0
 tramp=1.0
 $END
  -2.655419e+03   1.773763e+01
  -1.890745e+03  -1.229839e+03
  -2.431183e+02  -1.634665e+03
   8.427791e+02  -1.223128e+03
   8.306728e+02  -4.188709e+02
   2.675191e+02   6.631645e+01
  -1.491607e+02   8.762887e+01
  -6.491797e+01  -3.795291e+02
   2.422045e+02  -5.217444e+02
   4.712214e+02  -1.477415e+02
   4.133089e+02   3.579576e+02
   4.689760e+01   5.150915e+02
  -1.694765e+02   1.888544e+02
  -2.214801e+02  -2.783059e+02
   6.639762e+00  -4.725826e+02
   3.346259e+02  -2.058614e+02
   2.473344e+02   3.852589e+02
  -1.161748e+02   5.827974e+02
  -4.427534e+02   3.041728e+02
  -4.564314e+02  -1.372585e+02
  -1.453704e+02  -2.548194e+02
   6.116157e+01  -1.872157e+02
   3.289724e+01  -8.444532e+01
  -2.024807e+02  -1.035290e+02
  -2.060780e+02  -3.141844e+02
   9.421100e+01  -3.349535e+02
   4.587804e+02  -8.896261e+01
   4.879805e+02   2.063486e+02
   1.746601e+02   2.563261e+02
  -3.103287e+02   1.584011e+02
  -3.610938e+02  -1.608064e+02
  -8.478577e+01  -3.216085e+02
   2.531877e+02  -3.020418e+02
   3.586038e+02  -1.024664e+02
   2.707546e+02   9.035865e+01
   5.301617e+01   2.420490e+02
   4.026995e+00   1.963686e+02
   8.331287e+01  -8.506818e+01
   1.037239e+02  -1.145845e+02
   1.205512e+02   1.496074e+02
  -4.749698e+01   4.838668e+02
  -2.424713e+02   2.727586e+02
  -2.373670e+02  -7.719204e+00
  -4.685406e+01  -2.270209e+02
   8.406979e+01  -5.431557e+01
   1.265687e+02   2.295727e+02
  -8.599553e+01   3.106036e+02
  -3.312638e+02   1.838835e+01
  -3.561963e+02  -3.934447e+02
  -1.255451e+02  -4.194716e+02
   2.324805e+02  -2.320869e+02
   4.292866e+02   3.333759e+01
   2.709290e+02   1.590957e+02
   3.527027e+01   1.646649e+02
  -1.821987e+02   4.413345e+01
  -1.734162e+02  -1.891306e+01
  -3.935358e+01  -5.648543e+00
   3.698817e+01   5.893439e+01
  -9.481950e+01   3.160697e+01
  -1.525499e+02  -4.651198e+01
  -1.521720e+02  -2.132526e+02
   1.317629e+02  -2.283197e+02
   2.588870e+02  -1.284936e+02
   2.957391e+02   1.065156e+02
  -6.596452e+01   3.364930e+02
  -2.279861e+02   3.198512e+02
  -3.338835e+02   1.084493e+02
  -2.370430e+02  -2.208978e+02
  -4.108959e+01  -2.655087e+02
   3.374385e+00  -3.265374e+02
  -2.106070e+01  -2.003881e+02
   4.889248e+01  -1.377421e+02
   1.564264e+02  -1.313702e+02
   2.646335e+02  -1.631556e+01
   2.175803e+02   1.570491e+02
   5.356973e+01   2.454045e+02
  -1.208291e+02   1.627413e+02
  -1.706128e+02  -3.989112e+01
  -6.695955e+01  -1.797437e+02
   4.024381e+01  -2.334792e+02
   1.870931e+02   2.937152e+01
   3.004986e+02   1.861915e+02
   1.623025e+02   2.662331e+02
  -3.246124e+01   2.839089e+02
  -9.976009e+01   9.279410e+01
  -1.233238e+02   9.534584e+01
  -1.257792e+02   9.391800e+01
  -2.797633e+02   5.694269e+01
  -4.083191e+02  -1.496550e+02
  -2.849734e+02  -2.860241e+02
   3.917897e+01  -3.779115e+02
   3.788921e+02  -2.978753e+02
   4.976127e+02  -1.542948e+02
   2.347490e+02   8.047053e+01
   5.303459e+01   2.195356e+02
  -6.832257e+01   1.412796e+02
   5.005428e+01  -3.659672e+00
   9.439354e+01   2.041350e+01
   1.122553e+02   6.944320e+01
   1.859961e+01   1.248768e+02
  -1.079649e+02   7.277727e+01
  -6.902040e+01  -5.958689e+01
  -4.569156e+01  -9.561314e+01
   1.457303e+02  -5.133236e+00
   1.278086e+02   1.817821e+02
   5.789422e+01   3.198635e+02
  -2.483303e+02   1.821904e+02
  -3.315591e+02  -4.176800e+01
  -2.321175e+02  -3.144512e+02
  -6.353905e+01  -2.604037e+02
   1.743889e+02  -1.361526e+02
   1.541119e+02  -4.117234e+00
   5.257003e+01  -8.234834e+00
  -1.022702e+02  -6.541240e+01
   1.381350e+01  -1.857269e+02
   1.182361e+02  -1.366500e+02
   9.949282e+01   3.863425e+01
  -4.114963e+01  -1.355063e+01
  -8.397139e+01  -3.816698e+01
  -2.974526e+01  -5.366296e+01
   1.439707e+02  -8.739938e+01
   2.533124e+02   2.298216e+01
   1.858503e+02   1.320475e+02
  -1.047306e+01   2.265364e+02
  -1.972092e+02   2.404235e+02
  -2.212711e+02   1.241551e+02
  -1.432834e+02  -5.792309e+01
   5.439336e+01  -3.851514e+01
   1.298881e+02   3.768093e+01
  -5.113125e+01   1.459601e+02
  -1.466802e+02   1.048335e+02
  -1.853088e+02  -1.196629e+02
  -6.831784e+01  -1.932110e+02
   4.933312e+01  -1.432837e+02
   6.532500e+01  -3.120343e+00
  -1.410329e+00   8.404558e+01
  -4.421143e+01   9.084368e+00
  -3.922907e+01  -1.071062e+02
   1.038195e+02  -9.762438e+01
   2.454541e+02   4.387601e+00
   2.185209e+02   1.779779e+02
  -2.325487e+01   2.058317e+02
  -1.446051e+02   1.645908e+02
  -1.948489e+02  -1.033320e+00
  -2.281529e+01  -7.434439e+01
   4.839542e+01  -9.855457e+01
   3.575728e+01  -1.252262e+01
   1.675892e+01   2.757830e+01
   1.449933e+01   1.602066e+01
  -5.411215e+01  -5.002093e+01
   9.651286e+01  -3.915208e+00
   1.470326e+02   1.439654e+02
  -2.695162e+01   1.736687e+02
  -1.496815e+02   1.497388e+02
  -2.044398e+02   1.950949e+01
  -1.858961e+02  -1.589597e+02
  -3.540067e+01  -1.888902e+02
   1.224517e+02  -2.320624e+02
   1.464614e+02  -2.597963e+01
   8.513698e+01   1.154284e+02
   7.916453e+01  -2.023257e+01
   1.100249e+02  -4.638795e+01
   4.688112e+01   3.441798e+01
   5.217014e+01   2.122533e+01
  -5.740928e+01   1.287171e+02
  -1.249711e+02   2.139915e+01
  -1.041900e+02  -8.958124e+01
  -4.934551e+01  -1.529403e+02
   1.818331e+02  -8.604412e+01
   1.879738e+02   3.411530e+01
   5.961725e+01   2.087882e+02
  -1.022734e+02   2.177836e+02
  -2.693707e+02   1.051857e+02
  -2.446174e+02  -8.011491e+01
  -3.038077e+01  -1.766808e+02
   7.751593e+01  -1.028673e+02
   9.485948e+01  -9.950216e+01
   8.093852e+01  -7.840550e+01
   5.117928e+01  -5.194273e+01
   1.002472e+02  -7.818909e+01
   1.081188e+02  -1.037677e+01
   1.143038e+02   1.523659e+02
   1.040316e+02   1.946585e+02
  -7.852503e+01   1.567138e+02
  -1.484214e+02   2.292158e+01
  -5.970927e+01  -1.131981e+02
   2.031442e+01  -1.589610e+02
   5.850440e+01  -6.739202e+01
   6.086788e+01  -2.418075e+00
   2.416807e+01   5.672255e+01
  -3.524150e+01   4.045584e+01
   3.334589e+01  -4.091642e+00
   1.679437e+01   1.426211e+00
   3.182506e+01  -4.517211e+01
  -7.304772e+01   7.629817e+01
  -1.699837e+02   3.676476e+01
  -1.516403e+02  -3.006258e+01
  -1.194828e+01  -7.318030e+01
   1.112300e+02  -4.080046e+01
   7.645844e+01   7.184384e+01
   3.294490e+01   1.196510e+02
  -3.947349e+01   5.030778e+01
  -9.929681e+01  -2.189550e+00
  -2.142576e+01  -4.408342e+01
  -4.784846e+00  -5.100923e+01
   2.377515e+01  -5.889422e+00
   6.252799e+01   1.223988e+01
   6.578291e+01   3.578374e+01
   2.049539e+01   1.669212e+01
   1.055724e+02  -5.335806e+01
   5.719589e+01   5.868008e+01
  -1.585561e+01   1.479240e+02
  -1.242698e+02   1.084066e+02
  -1.946129e+02   9.829577e+00
  -1.269151e+02  -1.445922e+02
   2.228562e+01  -2.245599e+02
   5.621571e+01  -7.982955e+01
   8.897990e+01  -5.551655e+01
   2.789297e+01   1.068563e+01
  -6.889374e+01  -3.266531e+01
  -4.524320e+01  -1.130341e+02
   7.782655e+01  -6.999689e+01
   1.409712e+02  -1.966418e+01
   1.368789e+02   7.412734e+01
   3.488940e+01   6.566062e+00
  -7.927966e+01  -6.647777e+00
  -8.083251e+01   5.728027e+01
  -3.242777e+01  -5.921557e+01
   1.005779e+02  -1.781196e+01
  -3.445919e+01   8.023928e+01
  -5.977755e+01   1.034763e+02
  -1.422392e+02   8.440961e+01
  -8.554728e+01  -8.528783e+01
  -6.244838e+01  -2.116895e+02
   7.771107e+01  -9.741254e+01
   1.715485e+01   5.191770e+01
   4.396854e+01   1.767536e+02
   1.288360e+01   6.959965e+01
  -1.001490e+02  -1.227874e+01
  -5.049163e+01  -2.823224e+01
  -4.013193e-02  -7.009994e+01
  -4.651116e+00   1.281881e+01
  -3.747163e+00  -4.421165e+01
  -8.515531e+01  -1.072561e+02
   4.058709e+01  -1.221490e+02
   1.134823e+02  -5.146576e+01
   1.560652e+02   3.581214e+01
   1.344351e+02   4.005946e+01
   2.212690e+01   7.951606e+01
  -3.726135e+01   5.344152e+01
  -6.588045e+01   1.562548e+01
   3.379708e+00  -4.573813e+00
   4.643440e+01   5.257502e+01
  -1.596248e+00   2.482486e+01
  -1.121244e+01   6.445117e+01
   2.785806e+01   3.261557e+01
   4.001169e+01   3.044807e+01
   9.491117e+01   1.460169e+01
  -1.494067e+01   5.389759e+01
  -1.051143e+02   1.121648e+02
  -1.717064e+02   4.989437e+01
  -1.437377e+02   6.434197e+00
  -7.718356e+01  -1.921129e+02
   1.272076e+02  -6.922864e+01
   9.645642e+01  -8.044889e+01
   7.256989e+01  -3.907859e+01
  -1.060583e+01  -7.777053e+00
   3.734558e+01   8.559927e+01
   4.441578e+01   1.287724e+01
   4.006006e+01   4.499526e+01
   4.754794e+01   4.638897e+01
  -9.909944e+00   9.612769e+01
  -7.402099e+01   3.633757e+01
  -1.274296e+02  -1.236307e+02
  -8.683280e+00  -1.056001e+02
   2.970895e+01  -2.698187e+01
   1.004234e+02   3.238837e+01
   4.861541e+01   6.042322e+01
  -3.573989e+01   4.038635e+01
  -9.602514e+01   2.398440e+01
  -1.695907e+01  -4.122796e+01
   2.675763e+01  -6.274401e+01
   4.631901e+01  -4.616101e+01
   2.689415e+00   6.332914e+00
  -1.019212e+02  -1.971666e+01
  -3.841410e+01  -8.852383e+01
   3.967725e+01  -9.546041e+01
   1.110811e+02  -5.443651e+01
   6.137353e+01   2.241791e+00
  -6.252828e+01   6.901664e+01
  -5.254281e+01   6.630403e+01
   8.442571e+00   4.592753e+01
   2.732470e+01  -6.085051e+01
   2.920202e+01  -4.316599e+01
   4.373906e+01   3.570346e+01
   5.796054e+01   9.054387e+01
   2.566571e+01   1.054430e+02
   1.823507e+01  -3.746847e+01
  -3.076532e+01  -5.973805e+01
  -3.187013e+01  -3.780488e+01
  -8.982270e+01   5.177973e+01
   2.767613e+01   4.059991e+01
  -4.370343e+01  -5.445165e+01
  -1.111217e+01  -5.824454e+01
   2.065305e+01   7.676966e+00
   5.475444e+01   1.105583e+01
  -1.858669e+01   5.883873e+01
  -3.090790e+01   4.144614e+01
  -3.802294e+01  -7.299523e+00
   3.124869e+01  -6.497308e+01
   4.295526e+01  -1.475093e+01
   3.458200e+01   4.783733e+01
  -4.637887e+01  -3.641810e+01
  -8.445868e+01  -2.556101e+00
  -5.627667e+01   1.163094e+01
  -1.218074e+01   6.126523e+00
  -1.600584e+00   4.597162e+01
   1.845088e+01  -3.276674e+01
  -4.963517e+01   2.809327e+01
  -9.723368e+01   4.595786e+01
