
 $NMID
 id='ANONYMOUS ', fmtdat='(2E16.6)'
 volume=1.0
 tramp=1.0
 $END
   2.556776e+03   4.422957e-01
   1.744564e+03   1.046166e+03
   3.035884e+02   1.535248e+03
  -7.419057e+02   1.198094e+03
  -7.739823e+02   4.960799e+02
  -2.328703e+02  -2.856731e+01
   1.252068e+02  -1.683770e+01
   6.600100e+01   3.408548e+02
  -2.536330e+02   3.954310e+02
  -4.573335e+02   1.710717e+02
  -3.895652e+02  -3.163107e+02
  -9.759922e+01  -5.149665e+02
   1.423441e+02  -2.205096e+02
   1.307756e+02   2.720303e+02
   3.499490e+01   4.415683e+02
  -2.152430e+02   8.076799e+01
  -2.701276e+02  -3.629948e+02
  -6.639424e+00  -5.429492e+02
   3.818393e+02  -2.721858e+02
   3.926405e+02   8.808438e+01
   1.492605e+02   2.833100e+02
  -9.865899e+01   1.925968e+02
   2.415915e+01   6.676563e+01
   1.764721e+02   1.818808e+02
   1.373400e+02   2.960456e+02
  -7.286388e+01   3.048015e+02
  -4.285915e+02   6.747573e+01
  -4.410073e+02  -1.781098e+02
  -1.016967e+02  -2.194938e+02
   2.647121e+02  -1.061277e+02
   3.663758e+02   1.662315e+02
   1.053496e+02   2.758921e+02
  -2.068780e+02   2.414776e+02
  -3.743076e+02   1.547250e+02
  -2.131733e+02  -1.193174e+02
  -5.342058e+01  -2.127317e+02
   1.669414e+01  -9.616943e+01
  -6.485034e+01  -4.635565e+01
  -1.454195e+02   2.444376e+01
  -1.407111e+02  -1.940837e+02
   1.959390e+01  -3.866070e+02
   1.438409e+02  -3.553200e+02
   2.414318e+02  -2.884383e+01
   5.362605e+01   1.670572e+02
  -9.312722e+01   5.670051e+01
  -1.044699e+02  -2.030227e+02
   1.135676e+02  -3.158031e+02
   3.632423e+02  -1.370475e+01
   3.530842e+02   2.811732e+02
   1.615130e+02   4.059214e+02
  -2.735482e+02   1.967084e+02
  -4.308144e+02  -2.723261e+01
  -3.013937e+02  -1.570113e+02
   3.977770e+01  -1.539455e+02
   1.882669e+02  -7.420634e+01
   1.238414e+02  -4.689452e+01
   2.916589e+01  -1.544195e+01
   1.408145e+01  -2.241589e+01
   9.104704e+01   8.597211e+00
   1.598651e+02   2.445241e+01
   1.020583e+02   1.330820e+02
  -1.269981e+02   2.537757e+02
  -2.649854e+02   1.364001e+02
  -2.466096e+02  -5.806431e+01
   5.233916e+00  -2.741272e+02
   2.329492e+02  -3.341657e+02
   2.936642e+02  -1.334976e+02
   1.802628e+02   1.223787e+02
   2.791119e+01   2.642668e+02
  -2.889075e-01   2.718316e+02
   1.453529e+01   1.901591e+02
  -1.467531e+01   1.252742e+02
  -1.162239e+02   1.163200e+02
  -2.565955e+02   1.356517e+01
  -2.425529e+02  -1.232139e+02
  -7.100516e+01  -3.187255e+02
   1.205201e+02  -1.897328e+02
   1.621078e+02   3.529742e+01
   9.308562e+01   1.992839e+02
  -4.251931e+01   2.129523e+02
  -1.576170e+02   7.254786e+01
  -3.173019e+02  -1.098977e+02
  -1.664426e+02  -2.680184e+02
   3.550544e+01  -2.138485e+02
   8.002011e+01  -1.010305e+02
   4.617247e+01  -7.975033e+01
   1.223189e+02  -7.083888e+01
   2.386306e+02   2.755556e+00
   3.460105e+02   8.259584e+01
   2.825228e+02   2.899660e+02
  -5.868391e-01   3.992394e+02
  -3.149940e+02   3.045741e+02
  -3.711827e+02   1.101616e+02
  -2.140997e+02  -1.149799e+02
   3.001283e-01  -2.223131e+02
   2.395582e+01  -1.588769e+02
  -3.917118e+01   1.236421e+01
  -1.268946e+02  -3.931638e+01
  -1.333687e+02  -2.938104e+01
  -3.541803e+01  -1.032012e+02
   8.810632e+01  -5.425727e+01
   4.088515e+01   3.461402e+01
   2.613835e+01   1.117220e+02
  -1.180185e+02  -3.664647e+01
  -1.068714e+02  -1.860697e+02
   5.259177e+00  -3.016326e+02
   2.354553e+02  -2.397777e+02
   3.484961e+02   2.662155e+00
   2.832644e+02   2.415592e+02
   8.489769e+01   2.329695e+02
  -1.637501e+02   1.417481e+02
  -1.459201e+02   3.071887e+01
  -4.814290e+01  -2.849315e+01
   5.592393e+01   2.308609e+01
  -2.249515e+01   1.068859e+02
  -1.528006e+02   2.853982e+01
  -1.173999e+02  -2.922143e+01
  -3.391809e+01  -4.884207e+01
   7.435903e+01   2.871777e+00
   1.006785e+01   8.587218e+01
  -1.420579e+02   6.289394e+01
  -2.985873e+02  -2.973205e+01
  -1.954892e+02  -1.297848e+02
  -9.799055e+01  -2.576668e+02
   2.116620e+02  -2.133476e+02
   2.155185e+02  -9.182362e+01
   9.406825e+01   6.542530e+01
   6.145052e+00   5.872139e+01
  -2.058215e+01   2.082356e+01
   4.976988e+01  -5.997262e+01
   1.187552e+02   5.822716e+00
   1.323370e+02   1.200558e+02
   4.438375e+01   2.175364e+02
  -8.121316e+01   1.253657e+02
  -7.614706e+01  -4.797537e+01
  -6.158445e+01  -8.126235e+01
   6.334693e+01   2.165159e+00
   2.121812e+01   1.148868e+02
  -7.834755e+01   9.807411e+01
  -2.374673e+02   7.580927e+00
  -1.875797e+02  -1.646444e+02
   9.879632e+00  -2.085436e+02
   1.273673e+02  -1.293129e+02
   1.415841e+02  -2.693960e+01
  -1.434587e+01   9.280369e+01
  -3.391144e+01   9.255131e+01
  -8.909107e+01  -3.588125e+01
   7.079246e-01  -4.741716e+01
   1.038214e+02  -1.441042e+01
  -4.221011e+01   7.783260e+01
  -9.196918e+01   9.588921e+01
  -9.664366e+01  -6.594160e+01
  -5.790416e+00  -1.629421e+02
   1.464978e+02  -1.149656e+02
   2.193155e+02  -5.556471e+00
   1.858139e+02   1.818746e+02
   1.610888e+01   1.622833e+02
  -9.230734e+01   1.596657e+02
  -1.150135e+02   6.853962e+00
   1.960282e+00   1.534137e+01
  -4.361950e+01  -6.395584e+01
  -5.142663e+01  -1.981000e+01
  -9.506762e+01  -3.920817e+01
  -7.512946e+01  -8.428222e+00
   7.087851e+01  -8.577815e+01
   1.311501e+02  -7.320690e+01
   1.501955e+02  -5.983317e+00
  -1.949132e+01   5.303203e+01
  -1.501065e+02   1.768032e+02
  -1.979184e+02  -8.732301e+01
  -3.036159e+01  -2.396696e+02
   9.860865e+01  -1.477122e+02
   2.389594e+02  -7.360774e+01
   2.294475e+02   4.464675e+01
   6.996024e+01   1.381264e+02
  -3.380499e+01   7.255418e+01
  -3.273242e+01   3.415888e+00
  -2.574010e+01   5.843491e+01
  -1.975455e+01   7.909385e+01
  -9.282577e+01   6.315992e+01
  -5.925682e+01  -4.172236e+01
  -1.197315e+02  -1.477964e+02
  -5.120263e+01  -1.671288e+02
   5.762376e+01  -1.741876e+02
   1.730584e+02   3.236181e+01
   1.921822e+02   1.186430e+02
   1.424665e+01   1.339283e+02
  -6.714683e+01   1.075525e+02
  -8.085556e+01  -5.294717e+01
  -2.252660e+01  -7.494632e+01
   3.872719e+01   1.255582e+01
   2.418206e+01   1.187650e+01
  -1.249425e+02   1.619856e+01
  -6.253205e+01   4.310487e+01
   1.367515e+02  -5.486327e+01
   1.649781e+02  -4.562117e+00
   1.115164e+02   4.490276e+01
   3.918176e+01   4.768880e+01
  -1.230343e+02   1.287060e+02
  -9.367373e+01   5.901716e+01
  -7.585448e+01   3.606810e+01
   4.976545e+01  -2.745887e+01
   5.990624e+01  -2.672838e+01
   4.639903e+01   1.144080e+01
  -8.489714e+01   5.198516e+01
  -5.115751e+01   4.276241e+01
  -6.598759e+01  -2.599559e+01
  -5.086308e+01  -5.912014e+01
  -3.685256e+01   2.781896e+01
  -7.518685e+01   1.450356e+01
  -5.421982e+01  -5.743740e+01
   3.071390e+01  -1.749928e+02
   1.686567e+02  -1.248036e+02
   1.777775e+02   4.345397e+00
   1.453211e+02   7.643463e+01
  -2.438925e+01   1.556675e+02
  -4.459486e+01   5.849335e+01
  -7.148078e+01  -6.247204e+01
   6.279976e-01  -1.619710e+01
   1.013646e+02   3.109340e+01
   5.535513e+01   5.534197e+01
  -5.771003e+01   8.662123e+01
  -1.645215e+02   2.568665e+01
  -1.106231e+02  -4.211883e+01
  -5.053530e+00  -7.518482e+00
   4.421192e+01  -8.334466e+01
   1.133116e+02   1.979859e+01
  -4.470058e+01   9.357762e+01
  -1.222357e+02  -2.632386e+01
  -7.177361e+01  -9.479163e+01
   6.916832e+01  -1.536554e+02
   1.352315e+02  -1.469152e+02
   1.485588e+02   9.923241e+01
   4.763844e+01   1.786587e+02
  -1.273580e+01   1.157762e+02
  -5.141377e+01   2.011749e+01
   9.100205e+00  -7.265293e+01
   3.879616e+01  -8.813314e+01
   2.508892e+01  -2.798007e+01
   6.256105e+01  -2.253397e+00
   2.430857e+01   9.765678e+01
  -1.458173e+00  -6.051550e+00
   7.563814e+01   7.580666e+00
   9.918431e+01   3.625253e+01
   1.006681e+02   8.757734e+01
  -1.468735e+01   5.356933e+01
  -1.359733e+02  -3.446903e+01
  -4.594650e+01  -2.421185e+01
   3.213966e+01  -3.704852e+01
   5.583817e+01  -4.837748e+01
   6.272095e+01  -8.275493e+01
  -1.520437e+00   2.566707e+01
  -1.709098e+01   3.265707e+01
  -6.389501e+01   1.956958e+00
   1.218827e+01   2.562456e+01
  -1.204762e+01  -2.140549e+01
  -4.738780e+01   1.875472e+01
  -6.738352e+01  -4.870449e+01
  -6.910695e+01  -6.357326e+01
   6.661773e+01  -1.425221e+02
   1.888272e+02  -7.319876e+01
   1.494049e+02   4.785947e+01
   5.663692e+01   1.100314e+02
  -5.948849e+01   1.502925e+02
  -5.432474e+01  -2.525993e+01
  -8.264594e+01  -6.415202e+00
  -5.794910e+01  -9.676446e+01
  -3.448862e+01   2.257373e+01
  -6.213549e+01   4.624876e+00
  -2.652874e+01  -1.704857e+01
  -2.076013e+01  -1.226380e+02
   2.006187e+01  -6.295915e+01
   4.034307e+01   3.974171e+01
   6.626951e+01   1.369102e+02
  -5.153518e-01   1.179392e+02
  -3.394592e+01   5.983257e+01
  -1.268949e+02  -1.003071e+02
  -4.534135e+01  -3.525238e+01
   1.001292e+02  -8.902484e+01
   1.156528e+02  -3.681784e+01
   5.606590e+01   3.114457e+01
   1.704198e+01   5.765556e+01
  -4.928224e+01   5.383362e+01
   3.889993e+01  -3.206833e+01
   9.681748e+01  -7.359098e+01
   1.379550e+01  -3.869766e+00
  -2.060963e+01   5.761294e+01
  -8.462001e+01   9.057812e+01
  -1.826904e+01  -1.853195e-01
   2.100983e+01  -1.104116e+02
   9.518255e+01  -5.111326e+01
   3.162983e+01   1.995218e+01
  -1.642328e-01  -7.676897e-01
  -4.852545e+00   8.894582e+01
  -2.048611e+01   2.082218e+00
   3.804536e-01  -1.710776e+01
  -4.372409e+01  -5.044049e+01
  -3.339217e+01   4.028797e+01
   4.320698e+01   4.082371e+01
   6.623607e-01  -2.514353e+01
   1.513667e+01  -4.546495e+01
  -1.692347e+01   2.803113e+01
  -1.108303e+01   3.728263e+01
   3.281108e+01   6.212732e+01
  -8.386553e+01   5.666005e+01
  -8.315701e+01   4.681630e+01
  -7.679311e+01  -6.565327e+01
   3.281646e+01  -6.896025e+01
   1.003574e+02   6.703937e+01
   5.209687e+01   3.251353e+01
  -3.395967e+01  -1.504869e+01
  -6.671576e+01  -4.920215e+01
  -5.370981e+01  -5.103998e+01
  -1.204722e+00  -1.065643e+02
   5.976974e+01  -4.081252e+01
   1.040914e+01   1.581607e+01
  -9.809277e+00   1.912137e+01
  -2.758399e+01  -1.133258e+01
   6.447677e+00  -3.559492e+01
   4.753667e+01  -3.173891e+01
