
 $NMID
 id='ANONYMOUS ', fmtdat='(2E16.6)'
 volume=1.0
 tramp=1.0
 $END
   1.780031e+03  -5.439532e+01
   1.320203e+03   7.282054e+02
   2.451918e+02   1.108386e+03
  -5.089493e+02   9.077049e+02
  -5.725666e+02   2.796322e+02
  -1.598885e+02  -1.065044e+02
   7.625360e+01   1.502390e+01
   8.043479e+01   2.675472e+02
  -1.547866e+02   3.088769e+02
  -2.965101e+02   6.100997e+01
  -2.606924e+02  -2.016440e+02
  -1.540819e+00  -3.585672e+02
   9.541778e+01  -1.424639e+02
   1.346341e+02   2.352132e+02
   3.567183e+00   2.799525e+02
  -2.385609e+02   7.332893e+01
  -1.901317e+02  -2.220027e+02
   2.736785e+01  -3.938494e+02
   2.709132e+02  -2.241091e+02
   3.359622e+02   4.711165e+01
   1.448328e+02   2.202066e+02
   7.001143e+01   1.194878e+02
  -1.897359e+01   7.638313e+01
   1.223363e+02   1.254388e+02
   2.012101e+02   1.758834e+02
  -6.518564e+01   2.693274e+02
  -2.550357e+02   9.226562e+01
  -2.774365e+02  -1.102236e+02
  -3.553495e+01  -1.211482e+02
   1.365023e+02  -1.224426e+02
   2.623357e+02   1.234636e+01
   5.724230e-01   1.891580e+02
  -1.900761e+02   1.784691e+02
  -2.119015e+02   1.124001e+02
  -1.948595e+02  -9.086034e+01
  -6.712307e+01  -1.535824e+02
  -2.259549e+01  -6.217142e+01
  -3.682911e+01   4.820696e+01
  -1.228086e+02   3.096426e+01
  -1.658629e+02  -1.255063e+02
  -1.417010e+00  -2.295600e+02
   1.145930e+02  -1.805019e+02
   1.493226e+02   3.499110e+00
   4.020180e+01   1.678887e+02
  -5.564749e+01   3.690731e+01
  -8.194622e+01  -5.552542e+01
   1.088661e+02  -1.851567e+02
   2.587174e+02  -6.160749e+01
   3.140791e+02   2.051539e+02
   1.049773e+02   2.101497e+02
  -1.545136e+02   2.051755e+02
  -3.214455e+02  -6.826253e+01
  -1.957958e+02  -1.067559e+02
  -1.422109e+01  -1.329476e+02
   1.142648e+02  -1.449655e+01
   1.297210e+02  -7.840908e+01
   4.092756e+01  -1.440696e+01
  -3.532583e+01  -2.341979e+01
   9.593236e+01   5.378251e+00
   7.930494e+01   1.094900e+02
   5.461076e+01   7.938557e+01
  -9.478650e+01   1.512477e+02
  -2.183119e+02   1.024327e+02
  -2.126690e+02  -6.640039e+01
   7.435108e+01  -1.852346e+02
   1.701168e+02  -2.079772e+02
   2.357889e+02  -1.181438e+02
   1.304987e+02   9.169492e+01
   5.208030e+01   1.958921e+02
   1.070176e+01   1.602345e+02
   1.504257e+01   1.077475e+02
   5.644801e+01   7.084440e+01
  -1.215691e+02   9.539364e+01
  -1.641521e+02   3.307332e+01
  -9.599221e+01  -4.596123e+01
  -3.141645e+01  -1.042647e+02
   8.192677e+01  -1.225997e+02
   1.261859e+02   1.688710e+01
   4.747356e+01   1.839552e+02
  -9.596210e-01   1.122587e+02
  -1.454993e+02   9.297897e+01
  -1.843333e+02  -9.724109e+01
  -2.956521e+01  -1.700651e+02
   7.671542e+01  -1.656188e+02
   8.730961e+01  -1.578387e+02
   8.739406e+01  -7.749393e+01
   8.953134e+01  -1.129576e+02
   1.735565e+02  -5.985022e+01
   2.498353e+02   1.012064e+02
   1.509843e+02   2.137450e+02
   3.581633e+01   2.827246e+02
  -2.007875e+02   2.460416e+02
  -2.396830e+02   1.075909e+02
  -2.111382e+02  -2.608444e+01
  -2.977183e+01  -1.638400e+02
   5.289737e+01  -7.602669e+01
  -9.233955e+00  -9.560007e+00
  -1.169531e+02   1.009807e+00
  -5.788853e+01  -5.848971e+01
  -1.530023e+01  -1.007065e+02
   6.331801e+01  -6.403432e+01
   3.233567e+01   6.668370e+01
   1.498978e+01   2.678149e+01
  -7.233516e+01   4.996754e+01
  -5.205944e+01  -1.335583e+02
   1.594619e+01  -1.650123e+02
   1.394039e+02  -1.550051e+02
   2.239040e+02   4.757053e+01
   1.794979e+02   1.891405e+02
   5.029101e+00   2.059734e+02
  -3.809658e+01   9.266817e+01
  -9.103043e+01  -3.837192e+01
  -6.671447e+01  -3.104301e+01
  -3.966807e+01   2.840454e+01
  -7.692158e+01   6.662226e+01
  -1.066864e+02   5.185710e+01
  -1.429542e+02  -5.767316e+01
  -1.336629e+01  -1.129429e+01
   3.642359e+01  -2.884207e+01
   2.212311e+01   9.214629e+01
  -7.187268e+01   6.123895e+01
  -1.478420e+02   6.354503e+01
  -1.148432e+02  -1.061983e+02
   1.407578e+00  -1.955766e+02
   1.729617e+02  -1.216969e+02
   1.923580e+02  -1.249666e+02
   7.726734e+01   3.023358e+01
  -2.621784e+01   2.391419e+01
  -9.228529e+01   6.666637e+01
   6.989097e+01  -3.084422e+01
   1.006394e+02  -2.575040e+01
   9.868067e+01   8.128607e+01
   4.703629e+01   7.119491e+01
  -7.939609e+01   3.365378e+01
  -3.228431e+01   1.780707e+01
  -2.518919e+00  -3.621472e+01
   7.845976e+01  -6.448434e+01
   2.870654e+01   1.307522e+02
  -4.310930e+01   5.438303e+01
  -1.173808e+02   4.033884e+01
  -1.275691e+02  -1.128694e+02
   1.784632e+01  -7.640412e+01
   1.070795e+02  -6.383312e+01
   1.055702e+02  -6.324480e+01
   7.795331e+01   6.400260e+01
  -2.234459e+01   2.427324e+01
  -5.744012e+01   7.508207e+01
   3.969099e+01  -4.972024e+01
   3.039201e+01   1.599767e+01
  -6.200582e+01   3.502324e+01
  -1.016551e+02   5.111926e+01
  -8.652867e+01  -2.250636e+01
   1.099750e+01  -6.462208e+01
   7.251692e+01  -8.898061e+01
   1.892521e+02  -4.667179e+01
   1.118805e+02   1.191816e+02
   2.278232e+01   1.713281e+02
  -5.252123e+01   6.544822e+01
  -1.193822e+02   2.524660e+01
  -6.757945e+01  -2.747170e+01
  -8.986156e+01  -1.906544e+01
  -3.360054e+01  -3.930499e+01
  -1.070497e+02  -3.304446e+00
  -8.654510e+00  -7.403680e+01
   6.030344e+01  -7.071061e+01
   2.859108e+01  -3.467783e+01
   1.377284e+02   1.889630e+01
  -1.589029e+01   1.255589e+02
  -9.465871e+01   1.204429e+02
  -1.732819e+02  -3.591153e+01
  -7.301340e+01  -9.139335e+01
   2.511756e+01  -1.650853e+02
   5.553741e+01  -3.556807e+01
   1.808081e+02   8.558761e+01
   1.182879e+02   8.635648e+01
  -1.211087e+01   1.003466e+02
  -7.635198e+01   5.683595e+01
  -7.770987e+01   2.270283e+01
   2.387583e+01   4.256599e+01
  -9.221318e+01   5.405200e+00
  -9.268646e+01  -1.918172e+01
  -5.708067e+01  -3.673924e+01
   1.721686e+01  -1.458362e+02
   5.233669e+01  -7.346885e+01
   1.223480e+02  -3.587781e+01
   5.723131e+01   7.476673e+01
  -8.592641e+00   7.481009e+01
   6.260904e-01   2.872125e+01
  -2.161743e+01   4.287605e+00
   5.742244e+01  -5.623556e+01
   6.801195e+01  -2.376725e+01
  -9.697660e+00  -9.199798e+00
  -2.455467e+01   5.251918e+00
  -6.318905e+01  -2.048524e+01
   5.555743e+01   4.401349e+00
   8.314158e+01  -3.636001e+01
   1.097333e+02   7.910468e+01
   4.408754e+01   7.239276e+01
  -8.979339e+01   3.031676e+01
  -8.686678e+01   2.841529e+00
  -5.174602e+01  -2.773279e+01
  -2.235858e+01  -6.717270e+01
   4.089676e+01   6.223151e+00
  -2.644314e+01   3.244410e+01
   2.734212e+01   3.224687e+01
  -8.350793e+01  -8.591001e+01
  -4.249271e+01  -1.738363e+01
  -6.528825e+01  -4.333846e+01
  -2.573539e+00   8.431540e+00
  -3.535923e+01   2.552484e+00
  -1.407777e+01  -6.761187e+01
   1.052895e+01  -1.605606e+02
   8.959803e+01  -7.253768e+01
   1.008345e+02  -4.347706e+01
   1.082223e+02   3.492146e+01
   2.281116e+01   6.597935e+01
  -7.452288e+01   2.344962e+01
  -2.617779e+01  -9.321285e+00
   5.670681e+01  -5.594501e+01
   9.958629e+01  -5.093651e+01
   1.781876e+01   6.758706e+01
  -4.256590e+01   1.100320e+02
  -7.418397e+01   9.195678e+00
  -1.304542e+02  -4.371910e+01
   4.263374e+00  -7.637556e+01
   5.952007e+01  -3.500062e+01
   3.094171e+01  -1.655362e+01
  -1.497883e+01   4.386834e+01
  -7.505794e+01   1.062052e+01
  -8.352953e+00  -9.123947e+01
   3.982752e+01  -9.860611e+01
   3.325092e+01  -7.374073e+01
   1.296475e+02   3.843337e+01
   7.967810e+00   1.417691e+02
  -3.068131e+00   5.959002e+01
  -7.618232e+01  -3.054298e+01
  -2.347570e+01  -5.839487e+01
  -5.461453e+00  -8.789875e+01
   9.533872e+01   7.752530e+01
   9.505568e+00   2.935987e+01
  -1.077419e+00   1.654653e+01
   4.267136e+01   1.493279e+01
   5.206383e+00  -3.226444e+01
   7.023022e+01   4.267300e+01
  -7.469113e-01   9.870694e+01
  -6.096155e+01   1.486409e+00
  -4.475408e+01  -7.610556e+00
  -9.872383e+01  -9.274107e+01
   4.265854e+01  -7.939695e+00
   2.591485e+01   3.944736e+01
   3.105175e+01   3.557487e+01
  -1.165614e+01   3.095539e+01
  -1.620399e+01   2.793357e+01
  -9.700635e+00  -3.483613e+01
   1.027183e+01   3.900919e+01
   3.233750e+01  -3.068091e+00
  -8.426726e+01  -5.953591e+01
  -5.499261e+01   8.882818e-01
  -2.310766e+01  -6.259280e+00
   4.894856e+01  -1.042490e+02
   7.430801e+01  -1.394701e+01
   8.497894e+01  -1.972999e+00
   2.189720e+01   6.624284e+01
  -3.499578e+01   1.366458e+02
  -4.492404e+01   3.649424e+01
  -4.914189e+01  -4.540895e+01
  -4.552695e+01  -5.344693e+01
  -5.184770e+01  -1.304779e+01
  -2.161021e+01  -2.293335e+01
  -8.451857e+01  -2.894592e+01
  -8.514940e+00  -2.612139e+01
   5.971873e+01  -6.582296e+01
   4.774719e+01   3.563590e+00
   1.075521e+02   1.325190e+01
  -1.383010e+01   1.197311e+02
  -2.510614e+01   3.988833e+01
  -6.291388e+01  -3.785892e+01
  -6.942499e+01  -7.992902e+01
   1.065830e+01  -9.627511e+01
   5.464184e+01  -2.402106e+01
   1.889086e+01   2.316122e+01
  -3.153817e+01   6.024041e+01
  -2.300837e+01  -1.039672e+01
  -2.892715e+00  -1.263578e+01
   2.937868e+01  -1.404766e+01
  -5.125695e+01   1.397601e+01
  -6.548075e+01  -9.266873e-01
  -8.387886e+01   6.066835e+01
  -5.860911e+01   1.672366e+01
   6.231463e+01  -2.826499e+01
   6.659464e+01  -3.738517e+01
   6.432182e+00  -1.035583e+01
   1.565149e+01   4.279249e+01
  -2.555278e+00   1.393408e+01
  -8.350938e+00   1.269224e+00
  -1.767902e+01  -7.057412e+01
   3.721089e+01  -3.878696e+01
   9.666756e+01  -4.036777e+01
   5.667494e+01   2.229839e+01
   1.114058e+01  -3.626711e+01
  -3.198736e+01  -5.563891e+01
  -2.590796e+01   3.166461e+01
   1.902435e+01   1.866524e+01
  -1.545756e+01   6.769538e+01
   2.292474e+01  -5.026258e+00
  -1.457607e+00  -4.265915e+01
  -4.300050e+00   8.582392e+00
   2.193225e+00  -3.921001e+01
   2.067602e+01  -6.555735e+00
   2.560712e+01   1.277085e+01
  -2.473515e+01  -1.341910e+01
  -5.983007e+01   2.221088e+01
  -5.233279e+01  -6.632122e+01
   6.003913e+01  -5.132698e+01
   5.161916e+01  -6.168364e+01
  -5.748783e+00  -1.894589e+01
  -3.619662e+01  -3.188006e+01
  -6.544308e+01   8.271564e+00
   1.928077e+01   2.122499e+01
   7.200579e+01  -8.986661e+00
