
 $NMID
 id='ANONYMOUS ', fmtdat='(2E16.6)'
 volume=1.0
 tramp=1.0
 $END
  -1.230931e+03  -3.475873e+01
  -8.241515e+02  -5.905249e+02
  -5.865775e+01  -7.057087e+02
   4.258278e+02  -4.921377e+02
   3.732543e+02  -2.167730e+02
   9.980130e+01   4.000726e+01
  -1.217733e+02   1.236061e+01
  -2.303163e+01  -1.366156e+02
   8.817348e+01  -1.325572e+02
   1.971388e+02  -6.334278e+01
   2.352680e+02   1.330924e+02
   3.165755e+01   2.148884e+02
  -1.217943e+02   1.289834e+02
  -4.490403e+01  -1.177254e+02
   4.144572e+01  -2.000599e+02
   1.696267e+02  -3.833696e+00
   4.654856e+01   1.709370e+02
  -3.930074e+01   2.120811e+02
  -1.295395e+02   1.131090e+02
  -1.533708e+02  -3.905227e+01
  -1.307340e+02  -1.241006e+02
   2.381782e+01  -1.405483e+02
   2.469674e-01  -7.891930e+01
  -9.465076e+01  -8.424250e+01
  -7.171447e+01  -9.680832e+01
   5.100115e-01  -1.511153e+02
   1.575049e+02  -5.849298e+01
   2.065374e+02   1.732475e+02
   9.693618e+01   1.536385e+02
  -1.270005e+02   6.096651e+01
  -2.021532e+02  -7.713993e+01
  -5.377211e+01  -1.079310e+02
   9.606683e+01  -5.152709e+01
   1.482948e+02  -7.411959e+01
   1.209032e+02   7.744193e+01
   4.218549e+01   1.268049e+02
   3.304042e+00   6.312486e+01
   4.518899e+01  -7.247141e+01
   8.733171e+01  -6.312746e+01
   6.416355e+01   4.564332e+01
  -2.384129e+01   1.648185e+02
  -1.140753e+02   1.458079e+02
  -1.498468e+02  -2.879068e+01
  -5.038777e+01  -8.028259e+01
   1.056321e+02  -8.432470e+01
   3.349160e+01   1.410695e+02
  -8.230646e+01   1.257522e+02
  -1.170486e+02   4.419742e+01
  -1.417591e+02  -1.412441e+02
  -2.042654e+01  -1.824333e+02
   1.665468e+02  -7.855496e+01
   2.015785e+02   3.846056e+01
   1.162892e+02   1.074198e+02
  -3.020079e+01   6.028063e+01
  -1.334980e+02   4.853532e+01
  -1.103145e+02  -1.133838e+01
  -1.298200e+01   3.328602e+01
  -3.870874e+01  -2.229609e+01
   5.000127e+01  -5.687246e+00
  -9.666874e+01  -4.235138e+01
  -1.396925e+01  -5.131915e+01
   1.434035e+02  -6.415537e+01
   1.321848e+02   9.901923e+00
   1.335928e+02   1.487981e+01
   3.447399e+01   2.145591e+02
  -1.653985e+02   1.275265e+02
  -1.418105e+02  -1.746068e+01
  -9.371985e+01  -9.433172e+01
  -2.737296e+01  -1.279782e+02
  -3.544234e+01  -1.087205e+02
   7.209205e+01  -6.780364e+01
  -6.530271e+01  -7.418967e+01
   8.832790e+01  -5.645444e+01
   1.160511e+02   3.583227e+01
   6.150826e+01   8.452754e+01
  -8.057968e+00   1.156393e+02
  -4.099339e+00   1.015934e+02
  -8.629562e+01  -1.606825e+01
  -1.835913e+01  -1.690516e+02
  -2.533021e+01  -9.301319e+01
   1.241341e+02   5.570069e+01
   1.140735e+02  -1.647678e+01
   6.342572e+01   1.764595e+02
  -6.260697e+00   1.182838e+02
  -7.847907e+01   4.611789e+01
  -3.239606e+01  -1.299614e+00
  -6.954003e+01  -5.950348e+00
  -1.107421e+02   5.947110e+00
  -1.312137e+02  -4.335049e+01
  -1.769205e+02  -1.112869e+02
  -2.625795e+01  -1.564995e+02
   1.761126e+02  -1.051150e+02
   2.147965e+02  -5.212435e+00
   1.681400e+02   3.985220e+01
  -3.745176e+01   1.241681e+02
   3.085365e+00   9.172961e+01
   1.891885e+01   7.146743e+00
   1.097422e+00  -1.604921e+01
   5.517451e+01   3.566182e+01
  -2.584475e+00   6.929372e+01
  -1.646964e+01  -8.169267e+00
  -9.994606e+01   8.817034e+00
   6.291208e+00  -3.449593e-01
   2.885209e+01   7.713675e+00
   3.084458e+01   9.972889e+01
  -2.358075e+01   1.123957e+02
  -9.350025e+01   1.103060e+02
  -1.738866e+02  -2.986677e+01
  -1.237224e+02  -9.678537e+01
  -8.421429e+00  -1.419621e+02
   4.395602e+01  -4.054394e+01
   8.172689e+01  -8.185247e+00
  -6.320173e+00   2.189140e+01
  -3.225221e+01  -6.814589e+01
  -1.298815e+01  -4.426746e+01
   2.050003e+00  -6.674421e+01
   6.083322e+01   7.165465e+01
  -5.154941e+01   3.622548e+01
   1.804473e+01  -3.700878e+01
   1.928186e+01  -2.386046e+01
   1.014216e+02  -4.462479e+01
   1.493676e+02   4.978729e+01
   8.280036e+01   9.568179e+01
  -1.896246e+01   7.314414e+01
  -1.219269e+02   5.876962e+01
  -1.029265e+02   1.800256e+01
  -5.347133e+01  -3.743620e+01
   7.996948e+00   1.339501e+01
   2.273591e+01   1.513175e+01
  -5.679568e+01   4.400716e+01
  -9.255164e+01  -1.921724e+01
  -5.432329e+01  -4.257541e+00
   4.931719e+01  -9.574573e+01
   4.553680e+01  -6.055905e+01
  -1.650957e-01  -9.252068e+01
   1.583678e+00  -5.470950e+00
  -5.077866e+00   8.840112e+00
   1.327541e+01  -3.772367e+01
   5.421687e+01  -2.808887e+01
   1.204158e+02  -2.220125e+01
   7.116316e+01   6.449532e+01
  -2.580748e+01   5.222851e+01
  -3.870845e+01   4.046433e+01
   2.667843e+00   1.804691e+01
  -5.118784e+01  -2.115564e+01
   6.387511e+01  -4.703024e+00
   2.002717e+01  -7.132666e+01
   5.461612e+01   4.818481e+01
  -2.227860e+01   7.151152e+01
   1.749973e+01   3.588170e+01
   5.471728e+01  -1.643035e+01
   1.302554e+01   7.245960e+01
  -3.303423e+00   3.574371e+01
  -1.565963e+02   6.917457e+01
  -1.197552e+02  -2.042978e+01
  -5.668714e+01  -5.729053e+01
   3.650522e+01  -4.546937e+01
   2.836808e+01  -6.270477e+01
   4.685064e+01  -3.809379e+01
   5.863755e+01   2.875764e+01
   5.365616e+01  -1.544184e+00
  -5.758828e+01  -8.960890e+00
   6.598474e+01   5.087977e+01
   3.717994e+01   3.382137e+01
  -7.326427e+01  -6.408684e+00
  -5.715695e+01   1.244623e+01
  -8.408722e+01  -1.215773e+01
  -1.278113e+01  -1.283181e+02
   1.160314e+02   3.462522e+01
   5.307963e+01   1.673023e+01
   5.038761e+01   7.158403e+01
  -9.078362e+01   1.164149e+02
  -1.386670e+02   3.164602e+01
  -7.669291e+01  -3.756828e+01
  -5.666706e+01  -8.256571e+01
  -1.412626e+01  -8.827381e+00
   3.639079e+01  -2.176531e+01
   3.016807e+01  -4.322111e+00
   7.479777e-02  -1.232900e+00
  -4.303931e+01  -3.420065e+01
   5.231284e+01  -2.103539e+01
   2.339366e+01   3.063524e+01
   2.153100e+01   8.183853e+01
  -5.132119e+01   8.097532e+01
   2.428247e+00  -3.692195e+00
  -4.115956e+01  -3.583130e+01
   1.365375e+00  -7.111595e+01
   7.063301e+01  -5.620237e+01
   2.546409e+01   5.462707e+01
  -9.325682e+00   4.445396e+01
   2.065269e+00   4.086190e+00
   3.648599e+01   7.702081e+00
   4.845918e+01   5.202433e+00
   2.759880e+01   2.889867e+01
  -2.685034e+01   4.007665e+01
  -1.222753e+02  -2.107980e+01
  -5.834425e+01  -2.403582e+01
  -9.268277e+00  -7.698342e+01
   6.724060e+00  -4.970471e+01
   9.199793e+01   1.181810e+01
   6.668971e+01   1.301261e+01
  -7.960214e+01   6.934514e+01
  -1.031272e+01  -6.059987e+01
   4.856855e+00  -4.962475e+01
   2.210221e+01   3.914466e+00
  -9.327416e+00   2.639263e+01
   7.481772e+01   1.722088e+01
   1.016208e+01   3.117662e+01
   2.670094e+01  -3.708119e+01
   5.007110e+01   3.148388e+01
   3.460052e+01   9.399441e+01
  -5.495597e+00   8.262675e+01
  -3.648663e+01   7.856370e+01
  -6.607423e+01   3.436190e+01
  -7.492750e+01  -2.024113e+01
   4.310333e+01  -2.149249e+01
   2.139737e-01  -5.891999e+00
   2.589886e+01  -5.151164e+01
  -8.043920e+00   2.512216e+00
  -6.873247e+01   5.202155e+01
  -3.487611e+01  -2.676984e+01
  -4.339697e+00   7.299036e+00
   3.898512e+01  -3.578380e+01
   5.978540e+01   3.674784e+01
   1.819086e+01   2.654336e+01
  -5.610172e+01   4.766817e+01
  -4.313137e+01  -2.430619e+01
   3.389358e+01  -3.154899e+01
   1.445417e+01   3.353727e+00
   5.068154e-01   2.583056e+01
  -1.075102e+02   7.321640e+01
  -9.099680e+01   3.135658e+01
  -1.690695e+01  -1.476935e+01
   1.557737e+01  -7.802624e+01
   3.955970e+01  -7.069487e+01
   9.215854e+00  -5.268068e+00
   9.299486e+00   8.106491e+01
  -1.132629e+01   5.886023e+01
  -8.572201e+00   5.536040e+01
  -2.738392e+01  -2.799452e+01
  -4.113145e+01  -3.144457e+01
   1.262589e+01   2.616010e+01
  -9.361018e+00  -7.264943e+01
  -1.265083e+01  -8.393639e+00
   5.119477e+01  -6.784776e+01
   4.778699e+01   3.416665e+01
   5.335504e+01   4.486468e+00
   7.249559e+01   6.085230e+01
   7.526147e+01  -6.536510e+00
  -3.402084e+01   1.184495e+02
  -4.292667e+01   3.384750e+01
  -4.848606e+01  -1.361643e+01
   7.316306e+01   4.097336e+01
   3.252218e+01   2.021715e+01
  -2.162330e+01   1.919684e+01
   1.293980e+00   4.581656e+01
   2.738297e+00   2.115408e+01
   5.584528e+00   5.417824e+01
   5.078647e+01   5.899546e+01
  -2.986578e+01   1.021628e+02
  -9.034607e+01  -1.463679e+01
  -6.660602e+01  -3.068839e+01
   2.885798e+01  -7.403251e+01
   3.464919e+01  -7.868493e+01
   6.688364e+01  -4.837306e+01
   2.971282e+00  -2.956036e+01
   1.811013e+01   5.557972e+00
   3.452856e+01  -2.429884e+01
   3.341364e+01  -2.869195e+01
   2.332808e+01   5.301152e+01
   1.547849e+01   4.400418e+01
  -4.857717e+01   2.873878e+01
  -2.243227e+01   2.819514e+01
  -1.895666e+01  -6.422610e+01
  -2.546095e+01  -3.095216e+01
   5.685962e+01   1.961562e+01
   9.972099e+00   2.966952e+01
  -1.401631e+01   4.072851e+01
  -3.085911e+01   6.388726e+00
  -9.428743e+01  -8.629571e+00
  -3.815920e+01  -1.488316e+01
   3.430211e+01  -5.794919e+01
   4.002985e+01   1.005602e+01
  -2.339150e+00  -2.054032e+01
  -2.674613e+01  -2.223516e+01
  -1.186024e+01   7.986772e+00
  -2.382770e+01   2.546430e+01
   4.917222e+01   2.444295e+01
   2.014574e+01  -3.034616e+01
  -2.312359e+01   3.434532e+01
   6.595528e+00   2.631558e+01
  -2.159518e+01  -3.441022e+01
  -7.709152e+01  -2.227268e+01
  -3.535590e+00  -4.067338e+01
  -8.642520e-01   1.808553e+01
   3.568259e+01   6.519177e+01
  -7.321987e+00   4.947529e+01
  -3.853665e+01  -2.803164e+01
  -2.930066e+01   3.534939e+01
  -3.536746e+01  -5.687048e+01
   3.143415e+01  -3.534681e+01
   4.773166e+00   2.229144e+01
   9.092677e+01  -6.968145e+01
   1.378266e+01   5.292027e+01
   1.027255e+01   5.253207e-01
   1.611454e+01   7.766591e+01
  -1.921205e+01  -1.596294e+01
  -3.424340e+00   2.236863e+00
  -4.294503e+01   2.438262e+01
  -1.247827e+01  -1.950021e+01
   3.708368e+01   6.642717e+00
   7.220226e+01  -3.372124e+01
   2.084311e+01  -2.087675e+01
  -5.782156e+01   1.123678e+01
  -3.897477e+01   1.507187e+01
  -6.523847e+01  -4.895391e+01
   4.514362e+01   2.341951e+01
   2.202769e+01   7.727557e+00
  -3.378831e+01  -2.705350e+01
  -2.701901e+01   1.576968e+01
