
 $NMID
 id='ANONYMOUS ', fmtdat='(2E16.6)'
 volume=1.0
 tramp=1.0
 $END
   1.683374e+03   8.386484e+01
   1.170934e+03   7.923365e+02
   1.366773e+02   1.040858e+03
  -5.467429e+02   8.377937e+02
  -6.006367e+02   3.100076e+02
  -2.370404e+02  -6.755524e+01
   1.270987e+02  -6.214622e+00
   4.079015e+01   2.211822e+02
  -2.438343e+02   3.156600e+02
  -3.221380e+02   8.222100e+01
  -2.699669e+02  -2.700337e+02
   1.118809e+01  -3.654997e+02
   1.544224e+02  -9.745725e+01
   8.530321e+01   2.053052e+02
  -7.572310e+01   2.352418e+02
  -2.509229e+02   9.802640e+01
  -1.562740e+02  -2.173328e+02
   2.574808e+01  -4.049127e+02
   2.822796e+02  -2.269418e+02
   2.344838e+02   6.303191e+01
   8.215329e+01   2.643467e+02
  -4.042300e+01   1.054086e+02
   8.969513e+00   5.163902e+01
   1.665888e+02   9.482749e+01
   1.195430e+02   2.624312e+02
  -1.171914e+02   1.901532e+02
  -3.540620e+02   1.075533e+01
  -2.888180e+02  -1.771479e+02
  -4.369120e+01  -2.001299e+02
   1.465522e+02  -4.727678e+01
   2.453122e+02   1.428095e+02
   5.828124e+01   1.980473e+02
  -1.688381e+02   1.924948e+02
  -2.872767e+02   7.277916e+01
  -1.237591e+02  -1.316255e+02
   2.567764e+01  -2.467491e+02
   1.531739e+01  -1.112401e+02
  -5.382816e+01   4.782582e+01
  -1.267297e+02   2.944886e+01
  -6.806946e+01  -1.257452e+02
   2.747312e+01  -2.627401e+02
   1.805350e+02  -1.955602e+02
   1.828476e+02   5.419171e+01
  -9.272846e-01   1.380035e+02
  -9.284409e+01   1.015136e+01
  -7.121189e+01  -1.575612e+02
   8.726074e+01  -2.361371e+02
   2.641416e+02   1.237426e+01
   2.790586e+02   2.139296e+02
   1.503762e+02   2.916507e+02
  -1.542804e+02   9.692209e+01
  -3.083467e+02  -7.241357e+01
  -2.388475e+02  -1.500963e+02
   5.369461e+01  -1.432643e+02
   1.916919e+02  -3.385769e+01
   1.068755e+02  -3.318773e+00
   4.765430e+01   3.365297e+01
   7.016792e+00   5.092215e+01
   6.368237e+01   7.316352e+00
   1.578138e+02   4.716332e+01
   7.193571e+01   7.818460e+01
  -1.001805e+02   1.874488e+02
  -2.278850e+02   1.128539e+02
  -1.209523e+02  -9.334859e+01
   3.614894e+01  -2.028408e+02
   2.200763e+02  -2.264981e+02
   2.561039e+02  -6.649726e+01
   1.635759e+02   1.398595e+02
  -1.542295e+01   2.187284e+02
  -7.336879e+01   1.577717e+02
   4.427665e+01   1.251213e+02
   6.929317e+00   5.411908e+01
  -5.892230e+01   9.815916e+01
  -1.550409e+02   4.329029e+01
  -1.487720e+02  -1.043563e+02
  -3.764220e+01  -1.236646e+02
   2.635996e+01  -1.259570e+02
   1.235715e+02   4.889345e+01
   5.343470e+01   2.413558e+02
  -1.178347e+02   7.964770e+01
  -1.488982e+02  -6.939298e+00
  -1.455556e+02  -1.239648e+02
  -1.074005e+02  -2.627822e+02
  -3.179643e+01  -1.250998e+02
   1.106811e+02  -6.594355e+01
   1.131623e+02  -7.930116e+01
   8.787013e+01  -8.513685e+00
   1.622662e+02  -2.912284e+01
   2.493162e+02   8.953076e+01
   1.286979e+02   2.022291e+02
  -2.537024e+01   2.045537e+02
  -2.666978e+02   2.611242e+02
  -3.193503e+02   7.103065e+01
  -1.683397e+02  -5.948469e+01
  -8.414291e+00  -1.516244e+02
   4.525499e+01  -1.142782e+02
   3.300898e+01  -4.489473e+01
  -4.205869e+01   4.507995e+01
  -1.469511e+01  -5.132175e+01
   3.472353e+01  -1.167800e+02
   4.945745e+01   3.628099e+00
   2.021676e+01   9.100209e+01
   8.218122e+00   1.116295e+02
  -1.223737e+02  -4.050197e+00
  -4.882131e+01  -1.427965e+02
   5.021877e+01  -2.394498e+02
   1.886903e+02  -1.059912e+02
   2.755894e+02   1.958956e+01
   1.381004e+02   1.597416e+02
   3.673336e+01   1.563110e+02
  -1.535401e+02   1.289984e+02
  -5.649355e+01  -7.662669e+00
  -2.895273e+01   4.074337e+01
   7.717342e+01   6.928205e+01
  -8.756068e+01   1.003923e+02
  -2.363639e+01   3.255086e+01
  -5.787631e+01  -2.010117e+01
  -4.311316e+00  -4.462431e+01
   4.884113e+01   2.709708e+01
   2.952061e+01   6.208000e+01
  -6.032948e+01   6.969875e+01
  -2.030445e+02  -2.502220e+00
  -1.053301e+02  -1.054262e+02
  -3.650735e+01  -1.219008e+02
   2.067524e+02  -1.727142e+02
   1.415121e+02   1.202722e+01
   4.883174e+01  -3.714253e+01
  -4.684647e+00   5.440813e+01
  -7.334812e+00   2.498913e-03
   5.971839e-01  -1.130568e+01
   1.391692e+02   8.570856e+00
   9.929630e+01   4.992723e+01
   3.978841e+01   1.099359e+02
  -7.243562e+01   1.597788e+01
  -7.516889e+01  -3.955744e+01
  -1.926828e+01  -7.030518e+01
   3.050694e+00  -2.212954e+01
   4.586118e+01   9.672967e+01
  -6.636328e+01   1.105452e+02
  -1.791040e+02   1.838706e+01
  -1.290465e+02  -8.991561e+01
  -2.270516e+01  -1.686786e+02
   8.378393e+01  -1.433414e+02
   1.145275e+02   2.031645e+00
   5.570511e+01   3.556579e+01
  -7.183374e+01   4.899405e+01
  -5.605906e+01   9.862833e+00
  -2.364136e+01  -5.430260e+00
  -2.886905e+01   3.545535e+00
   2.996853e+01  -4.594431e+01
  -4.647283e+01  -1.804064e+01
  -1.100229e+02  -9.485189e+01
  -4.909889e+01  -1.274430e+02
   1.404921e+02  -1.060924e+02
   1.066866e+02  -1.981844e+01
   1.083912e+02   9.298696e+01
  -3.182015e-01   1.450168e+02
  -6.732007e+01   6.470502e+01
  -1.142690e+02  -8.024868e+00
  -6.519204e+01  -5.020326e+01
   4.323648e-01   1.281943e+01
  -2.252212e+01   7.250374e+01
  -6.231633e+01   8.533635e+00
  -4.512318e+01   1.035030e+01
   3.505363e+00  -7.792373e+01
   1.232889e+02  -4.996902e+01
   7.016446e+01  -4.852705e+00
   2.297942e+01   1.089257e+02
  -1.542673e+02   6.411529e+01
  -1.665516e+02  -3.227986e+01
  -4.626424e+01  -1.322814e+02
   1.255932e+02  -6.305285e+01
   1.437760e+02  -6.542137e+00
   1.911477e+02   4.634624e+01
   5.415724e+01   1.062546e+02
  -2.893887e+01   9.352828e+01
  -4.458910e+01   1.279417e+02
  -8.646402e+01   6.992653e+01
  -6.617152e+01   4.004480e+01
  -2.063025e+01   3.487769e+01
  -7.313530e+01  -1.376945e+01
  -4.356709e+01  -6.034870e+01
  -2.578421e+01  -1.835631e+02
   3.882076e+01  -1.152546e+02
   4.762904e+01   2.252928e+01
   5.700858e+01   1.127343e+02
  -3.203603e+01   1.032452e+02
  -4.669935e+00   4.666742e+01
  -7.571471e+01   2.042699e+01
   1.684993e+01   3.605266e+01
   1.403584e+01  -2.940165e+01
   9.984632e+00  -2.728902e+01
  -2.941759e+01  -3.092362e+00
  -1.817975e+01   4.861371e+01
   1.717291e+01   5.013364e+00
   6.916864e+01   1.207585e+01
   1.081167e+02   8.766618e+01
   2.951236e+01   3.536058e+01
  -6.585100e+01   8.392439e+00
  -1.182731e+02   1.852240e+01
  -7.206396e-01  -1.097475e+01
   2.331600e+01  -3.033207e+01
   7.775915e+01  -1.265245e+01
   8.208526e+00   6.881240e+01
  -2.910102e+01   7.165725e+01
  -5.477307e+01  -5.122327e+01
  -6.810929e+01  -1.518341e+00
  -3.760871e+01   3.731159e+00
  -3.558035e+01  -2.585401e+01
   4.598985e+01   3.251502e+01
  -2.583474e+01  -3.345188e+01
   2.075151e+01  -1.028708e+02
   1.231905e+02  -7.171487e+01
   6.726849e+01  -7.428079e+00
   7.065476e+01   6.521079e+01
   3.039935e+01   6.442139e+01
  -4.131129e+01   1.303397e+01
  -5.382588e+01  -5.050361e+00
   1.835718e+01   3.118058e+01
   5.160815e+01   4.839276e+01
   5.543018e+01   6.371722e+01
  -7.056145e+01   7.660446e+01
  -9.804539e+01  -7.391740e+00
  -5.170986e+01   8.700870e+00
  -7.474605e+00  -4.056167e+01
   9.355748e+01  -1.522784e+01
  -2.111772e+01  -5.932189e+01
  -2.046089e+01   6.191796e+01
  -8.059006e+01  -2.577784e+01
   2.042630e+00  -2.257259e+01
   1.471868e+01  -1.449499e+02
   4.519063e+01  -9.955060e+01
   8.043043e+01   6.269587e+01
   9.754843e+00   1.098602e+02
  -6.514897e+01   4.288072e+01
  -1.214308e+02   1.014940e+01
  -7.958673e+01  -9.556355e+01
   4.303951e+01  -3.731664e+01
   1.683325e+00  -2.240293e+01
   1.574742e+01   2.476953e+01
   5.279930e+01   2.665119e+01
   1.009957e+01  -2.042955e+01
   3.207047e+01   3.322734e+01
  -1.373653e+01   2.268194e+01
   1.710134e+01   8.196486e+01
  -4.131361e+01   4.170449e+01
  -6.028107e+01  -4.365322e+01
  -1.102303e+02  -2.000495e+01
  -5.693408e+00  -7.480648e+01
   3.977792e+01  -1.896864e+01
   3.912025e+01  -2.246772e+01
   3.016766e+01  -2.073578e+01
  -9.697510e+00  -1.780777e+01
   1.288750e+01  -1.349540e+01
   8.040996e+00   3.464585e+01
  -2.451860e+01  -2.432626e+01
   4.707148e+01   2.927817e+01
  -5.591640e+01   8.440511e+00
  -1.867441e+01  -1.110425e+02
   2.323081e+01  -1.019793e+02
   1.077888e+02  -2.491661e+01
   9.243203e+01   7.167579e+01
   1.960160e+01   1.133054e+02
  -8.205191e+01   1.253151e+02
  -1.247749e+02   7.347463e+01
  -4.110116e+01  -2.095026e+01
  -6.242408e+00   9.257324e+00
  -1.650531e+01  -7.299671e+01
   1.205290e+01  -3.732771e+01
  -2.627670e+01  -1.934502e+00
  -1.606190e+01  -9.194367e+01
   6.661612e+00  -5.510626e+01
   2.835705e+01   1.069721e+01
   1.574540e+01   3.935621e+01
   4.767891e+01   7.911064e+01
  -2.666434e+01   5.667397e+01
  -4.603523e+01   1.211749e+01
   2.086553e+01  -8.012049e+01
   6.250027e+01   1.584975e+01
  -2.094348e+01  -2.287644e+01
   6.221878e+01  -3.148522e+01
  -7.889190e+01   3.622587e+01
   1.777426e+01  -6.430868e+01
  -3.546076e+01   3.987070e+01
  -1.706576e+00  -3.252480e+01
   2.667899e+01   4.861340e+00
  -4.165288e+01   6.984312e+01
  -1.034775e+02   3.394746e+01
  -2.677406e+01   2.484129e+01
   2.348169e-01  -7.356290e+01
   6.107297e+01  -5.528210e+01
   2.080887e+01  -7.798483e+01
  -6.765794e+00   1.111966e+02
  -8.072305e+01   5.474124e+01
  -2.837846e+01  -9.693425e+00
  -1.827517e+01  -5.359371e+01
   2.658183e+01  -4.530685e+01
   6.132032e+00   4.596042e+00
   4.080186e+01   3.559679e+01
   9.429200e+01  -4.144678e+00
  -1.039409e+01  -4.699499e+01
  -1.312073e+01  -8.831737e+00
  -3.518099e+01  -1.482593e+01
   5.727288e+01   4.557465e+01
  -3.651002e+01   1.525162e+01
  -5.638210e+01  -2.259842e+01
  -2.646234e+00  -1.441850e+01
   4.177429e+01  -1.043686e+02
   3.911397e+01   1.412234e+01
   6.031183e+00   5.688173e+01
  -4.792651e+01   1.223705e+01
  -2.246188e+01  -2.046560e+01
   5.435950e-01   1.157277e+01
   2.813198e+01  -4.250182e+01
   7.057413e+01  -1.842980e+00
   5.968977e+01   2.278779e+01
  -2.325622e+01   1.042310e+01
   3.554810e-01   3.463598e+01
   5.198180e+01  -3.531038e+01
   7.346200e+00   1.779870e+01
