
 $NMID
 id='ANONYMOUS ', fmtdat='(2E16.6)'
 volume=1.0
 tramp=1.0
 $END
   1.743243e+03  -1.515868e+00
   1.299545e+03   7.805544e+02
   2.219076e+02   1.196902e+03
  -6.176258e+02   9.545041e+02
  -6.221540e+02   3.777694e+02
  -2.331571e+02  -3.210498e+01
   9.281281e+01  -5.163484e+01
   6.342760e+01   2.300172e+02
  -1.871717e+02   3.302537e+02
  -3.043480e+02   1.302581e+02
  -2.246694e+02  -2.642479e+02
  -5.227151e+01  -3.420132e+02
   1.140187e+02  -1.360412e+02
   1.597023e+02   1.974106e+02
  -4.638526e+01   3.510247e+02
  -1.999664e+02   2.818840e+01
  -2.368956e+02  -2.384047e+02
  -3.134376e+01  -4.470214e+02
   3.088822e+02  -2.527985e+02
   3.340691e+02   1.130337e+02
   5.945745e+01   2.170885e+02
  -5.904826e+01   1.095196e+02
  -3.130029e+01   1.113741e+02
   9.256396e+01   1.553991e+02
   1.072418e+02   2.113986e+02
  -1.184610e+02   1.921106e+02
  -2.859060e+02   6.786972e+01
  -2.958586e+02  -1.927544e+02
  -6.521849e+01  -2.089236e+02
   2.164577e+02  -2.876272e+00
   2.958088e+02   1.515336e+02
   4.894131e+01   1.678296e+02
  -2.364880e+02   1.728133e+02
  -2.352579e+02   2.910320e+01
  -2.635912e+02  -8.466659e+01
  -1.866347e+01  -1.352057e+02
  -2.170018e+01  -3.101909e+01
  -5.689888e+01   7.555894e+00
  -1.523893e+02   1.563313e+01
  -1.067306e+01  -2.001292e+02
   9.683305e+01  -3.159581e+02
   2.009289e+02  -2.141772e+02
   1.410556e+02   4.438273e+01
   4.348156e+01   1.206446e+02
  -1.652922e+01   6.849458e+00
  -6.020845e+01  -1.192438e+02
   1.334261e+02  -1.967173e+02
   2.444679e+02  -2.225596e+00
   2.682781e+02   2.673163e+02
   8.753555e+01   3.218475e+02
  -1.655978e+02   1.775779e+02
  -2.717779e+02  -7.213726e+01
  -1.985442e+02  -1.409008e+02
   1.529637e+01  -1.000081e+02
   1.613405e+02  -5.306100e+01
   1.355957e+02   9.960147e+00
   8.567287e+01  -1.978695e+01
  -6.703212e+01  -2.068369e+00
   4.107492e+01  -4.610253e+01
   1.500223e+02   5.993698e+01
   6.543969e+01   7.743168e+01
  -1.052349e+02   1.376894e+02
  -2.452395e+02   1.199644e+02
  -1.839637e+02  -8.532787e+01
   9.539327e+01  -2.235281e+02
   2.196081e+02  -2.260530e+02
   2.823165e+02  -3.174195e+01
   1.287214e+02   1.067802e+02
   2.539967e+01   2.140543e+02
  -4.067622e+01   1.775465e+02
   5.384002e+01   1.558715e+02
  -2.640098e+01   1.294968e+02
  -1.738181e+02   5.648013e+01
  -1.495952e+02  -2.221466e+01
  -1.243827e+02  -1.309832e+02
  -3.001457e+00  -1.519913e+02
   5.560826e+01  -5.838681e+01
   6.604400e+01   3.687298e+01
   5.580350e+01   1.751244e+02
  -9.608703e+01   1.466068e+02
  -1.706583e+02  -9.393755e+00
  -1.791323e+02  -1.420893e+02
  -9.215210e+01  -1.858760e+02
   4.620234e+01  -1.872137e+02
   2.077844e+02  -9.633368e+01
   8.310174e+01  -5.434420e+01
   1.279901e+02  -5.029668e+00
   2.317139e+02  -4.370320e-01
   2.342821e+02   9.344135e+01
   2.197940e+02   2.329044e+02
  -6.811597e+01   3.355588e+02
  -2.510999e+02   2.190654e+02
  -3.028888e+02   4.856496e+01
  -1.814240e+02  -6.558717e+01
   1.188040e+01  -1.365308e+02
   4.163927e+01  -9.959891e+01
  -3.307558e+01   1.517897e+01
  -1.034681e+02   1.987820e+01
  -3.560576e+01  -5.002390e+01
  -2.636988e+01  -7.643424e+01
   6.302783e+01  -3.907080e+01
   8.517210e+01  -1.679996e+00
  -3.303122e+00   9.963951e+01
  -9.003020e+01  -1.761915e+01
  -1.063495e+02  -1.276875e+02
  -1.693676e+00  -2.413718e+02
   1.756258e+02  -8.052259e+01
   2.182091e+02   4.064506e+01
   1.284045e+02   1.772726e+02
   6.736273e+01   1.717856e+02
  -8.264192e+01   5.082561e+01
  -8.987261e+01   3.582247e+01
   8.023580e+00   4.680799e+01
  -7.900960e+01   2.151224e+01
   3.190355e+00   9.046486e+01
  -1.087385e+02   3.187836e+01
  -3.925989e+01   2.235076e+01
   1.261080e+01  -4.690711e+01
   7.671501e+01   1.679045e+01
   4.687919e+01   2.547316e+01
  -1.610241e+02   5.439796e+01
  -1.909533e+02  -8.512680e+00
  -1.559342e+02  -1.420952e+02
   2.720490e+01  -1.512768e+02
   1.144866e+02  -1.798531e+02
   1.522056e+02  -2.253789e+01
   4.937769e+01  -8.616776e+00
  -1.243646e+01   2.933727e+01
   3.543826e+01   5.269267e+00
   1.885047e+01  -5.141735e+00
   1.331390e+02   1.435680e+01
   8.739547e+01   5.601163e+01
   6.004493e+01   9.861927e+01
  -7.411536e+01   8.994785e+01
  -8.627217e+01  -1.344376e+01
   1.502439e+01   1.041055e+01
   2.474065e+01   2.533804e+00
  -1.678650e+01   6.674252e+01
  -5.106897e+01   5.456769e+01
  -1.540938e+02  -1.832418e+01
  -1.292537e+02  -6.953357e+01
  -2.569706e+01  -9.050793e+01
   1.272420e+02  -1.243890e+02
   1.292096e+02  -4.392067e+00
   4.418231e+01   2.339539e+01
  -5.537247e+01   2.685241e+01
   1.140837e-01  -2.042140e+01
   3.287178e+01  -3.301565e+01
   3.216867e+00   4.474947e+01
  -1.537623e+01   6.568614e+01
  -3.891940e+01  -6.280191e+01
  -3.270892e+01  -5.553432e+01
   5.220408e+00  -9.532871e+01
   9.418087e+01  -1.264721e+01
   9.939331e+01  -5.606346e+01
   1.403899e+02   1.170971e+02
   5.391007e+01   2.507614e+02
  -8.257432e+01   1.013482e+02
  -9.844163e+01  -6.623853e+00
  -4.680824e+01   1.009451e+01
   2.644133e+01  -2.845921e+01
  -3.066636e+01  -3.712337e+00
  -9.722812e+01  -8.832437e+00
  -5.580798e+00   7.475585e-01
   1.679839e+01  -1.038830e+02
   1.548536e+02  -4.293230e+01
   6.138095e+01   5.134772e+01
  -1.543048e+01   1.198498e+02
  -1.029634e+02   6.254403e+01
  -1.257556e+02  -6.552560e+01
  -3.521792e+01  -1.465658e+02
   1.048630e+02  -1.804329e+02
   1.504471e+02  -6.090262e+01
   1.885574e+02   6.085005e+01
  -6.807578e-02   6.065679e+01
  -3.771039e+01   7.950239e+01
  -7.184654e+01   3.836221e+01
  -2.657440e+01   4.133838e+01
  -5.444338e+01   8.984974e+01
  -4.128608e+01   8.174309e+01
  -7.095315e+01   2.479769e+01
  -5.137603e+01  -6.247605e+01
   4.651780e+01  -1.739352e+02
   9.159804e+01  -4.870638e+01
   1.281195e+02   2.630027e+01
   7.532028e+01   9.134186e+01
  -7.966548e+00   1.407250e+02
  -5.520912e+01  -2.775484e+01
  -4.960479e+01  -1.742221e+01
  -9.154791e+01  -1.129018e+02
   6.496442e+01  -9.709099e+01
  -6.157555e+01   5.562313e+00
  -3.658043e+01  -5.838906e+01
  -4.406977e+00   8.437226e+00
   3.759259e+01  -2.189202e+01
   7.538335e+01   2.760399e+01
   1.009938e+02   5.878693e+01
   5.110403e+01   9.030401e+01
  -6.856144e+01   4.172953e+01
  -8.187613e+01  -2.607643e+01
  -1.694951e+01  -6.390239e+01
   6.000911e+01   5.282459e+00
   5.429683e+01  -1.384884e+01
   2.672732e+01   3.569593e+01
   6.273969e+01   4.983473e+01
  -2.894281e+01  -1.340410e+01
  -4.587613e+01  -3.441477e+01
  -2.462004e+01  -3.837540e+01
  -1.040196e+00  -5.114227e+00
  -7.175017e+01   6.335826e+00
  -5.016954e+01  -7.531431e+01
  -5.700988e+00  -1.149513e+02
   1.171329e+02  -6.393562e+01
   1.916166e+02  -2.636246e+01
   9.506842e+01   7.375267e+01
   9.240131e+00   1.184945e+02
  -7.407445e+01   2.173519e+01
  -5.809134e+01  -4.421184e+01
   5.442363e+01  -6.009404e+01
   1.210185e+02   2.597817e+01
   7.720093e+01   6.204193e+01
  -1.119507e+02   6.248431e+01
  -9.775367e+01   5.514606e+01
  -1.157368e+02   4.792709e+00
  -3.310433e+01   2.444532e+00
   2.718032e+01  -6.805586e+01
   3.332076e+01   2.507716e+01
  -4.199941e+01  -2.654198e+00
  -4.080975e+01   1.328219e+01
   1.340062e+01  -6.489623e+01
   4.601722e+01  -1.169005e+02
   1.036173e+02  -8.412757e+01
   5.771110e+01   4.706871e+01
  -3.107439e+01   7.101503e+01
  -7.772113e+01   6.920506e+01
  -6.985485e+01   1.821707e+01
  -1.612211e+01  -1.400299e+02
   6.344307e+01  -5.731812e+01
   8.889544e+00  -4.480288e+01
   3.886057e+01   4.696608e+01
   2.003112e+01   1.883838e+01
   4.862060e+00  -1.860371e+01
   3.343829e+01   1.708982e+01
   3.991108e+01   1.056563e+02
   3.394431e+01   6.517953e+01
  -1.104022e+02   2.957624e+01
  -3.424368e+01  -2.111561e+01
  -8.784634e+01  -7.588115e+01
   3.953443e+01  -7.078426e+01
   7.570156e+01  -3.068489e+01
   7.087996e+01  -6.680398e+00
   3.601671e+01   1.435079e+01
  -3.536595e+01  -2.760252e+01
  -1.175073e+01   5.269046e+00
  -3.354027e+01  -4.034948e+00
  -2.366623e+01   2.731901e+01
   3.911990e-03   1.902204e+01
  -6.508653e+01  -2.493691e+01
   7.529404e+00  -2.455389e+01
   7.601538e+01  -1.110902e+02
   1.745637e+02  -3.893596e+00
   5.733395e+01   4.750291e+01
  -6.326824e+00   9.813327e+01
  -1.183020e+02   1.076089e+02
  -5.311962e+01   3.295530e+01
  -5.361852e+01   6.240183e+01
   1.317018e+00  -5.828725e+01
  -1.417662e+01  -2.196394e+01
  -1.092005e+01   1.433979e+00
   1.092821e+01  -8.587576e+01
  -7.904873e+01  -8.264440e+01
  -8.732431e-01  -7.896441e+01
   5.686971e+01   1.313949e+01
  -3.667969e+00   4.317802e+01
   2.539355e+01   1.216812e+02
  -4.886194e+01  -5.555114e+01
  -6.964680e+01  -6.133094e+01
   1.106603e+01  -4.914355e+01
   2.370595e+01  -2.754262e+01
   4.667030e+01  -3.072058e+01
   2.381578e+01   3.331355e+01
   4.676093e+00   4.095918e+01
   3.573146e+00   3.882660e+01
  -3.418214e+01   2.311943e+01
   7.874803e+01  -4.275143e+01
   1.549610e+01  -1.184054e+00
  -3.844698e+01   1.429311e+01
  -9.720136e+01   2.520101e+01
  -5.710298e+01  -7.549152e+01
  -2.036006e+01  -4.423245e+01
   2.152258e+01  -7.425907e+01
   7.243478e+01  -3.614418e-01
   9.364481e-01  -3.308766e+01
  -5.392516e+01   1.306756e+01
  -4.033412e+01  -6.400951e+00
  -2.678246e+01  -2.834772e+01
   1.326435e+01   9.514602e+00
  -2.173068e+01  -2.002764e+01
   8.007967e+00   9.685267e+01
  -1.650533e+01  -5.533791e-02
  -1.368358e+01   4.582888e+01
  -6.712783e+00   2.879798e+00
   1.546350e+01   9.937980e+01
   3.563005e+00   1.273148e+01
   4.324378e+00   3.058018e+01
  -3.966882e+01  -3.820260e+01
  -2.266767e+00  -3.747790e+01
   4.292103e+01   5.682009e+01
   5.445097e+01   2.368976e+01
   2.531750e+01   4.328728e+01
  -5.509305e+01  -4.688525e+01
  -9.109362e+01   6.386748e-01
  -1.240128e+01  -4.811049e+01
   5.621770e+01  -3.013212e+01
   7.140097e+01  -2.863199e+01
   1.048867e+01   1.403761e+01
   1.255433e+01   4.894110e+01
  -5.296946e+01   2.003929e+01
   1.372295e+01  -2.234170e+01
   6.601284e+00  -5.019002e+01
