
 $NMID
 id='ANONYMOUS ', fmtdat='(2E16.6)'
 volume=1.0
 tramp=1.0
 $END
   2.305392e+03   3.570905e+01
   1.606053e+03   1.116099e+03
   2.011397e+02   1.407749e+03
  -6.643872e+02   1.037291e+03
  -7.299513e+02   4.038234e+02
  -2.435337e+02  -5.444815e+01
   1.224647e+02  -2.198970e+01
   8.058173e+01   3.313363e+02
  -2.323098e+02   4.070578e+02
  -3.720365e+02   1.241309e+02
  -3.201021e+02  -3.154371e+02
  -7.808417e+01  -4.168522e+02
   9.216315e+01  -1.712661e+02
   1.498488e+02   2.278719e+02
  -4.839659e+01   4.261467e+02
  -2.360303e+02   7.572156e+01
  -2.295117e+02  -3.231245e+02
   7.303058e+01  -4.873928e+02
   3.573752e+02  -3.117277e+02
   4.474174e+02   4.582821e+01
   1.038971e+02   2.349179e+02
  -9.010653e+01   1.773738e+02
   2.074170e+01   6.433612e+01
   1.434299e+02   2.364096e+02
   2.273345e+02   3.355628e+02
  -7.582154e+01   3.016402e+02
  -3.393119e+02   1.014136e+02
  -4.175395e+02  -2.021910e+02
  -1.150112e+02  -2.526670e+02
   2.262688e+02  -1.720958e+02
   3.591766e+02   9.125824e+01
   1.551018e+02   2.260854e+02
  -1.863621e+02   2.155527e+02
  -2.664862e+02   3.917020e+01
  -2.177589e+02  -5.524544e+01
  -7.673392e+01  -1.784263e+02
  -6.438494e+00  -7.275417e+01
  -1.026883e+02   7.090502e+01
  -1.503665e+02   4.822169e+01
  -1.077807e+02  -2.105384e+02
   4.894943e+01  -3.959855e+02
   1.670234e+02  -2.935083e+02
   1.599579e+02  -1.826586e+01
  -2.143690e+00   1.374472e+02
  -9.844628e+01   8.444606e+01
  -7.614431e+01  -2.452960e+02
   1.162629e+02  -2.868241e+02
   2.945204e+02  -8.008030e+00
   3.103813e+02   3.281117e+02
   1.698778e+02   3.913712e+02
  -2.015686e+02   1.862997e+02
  -3.470342e+02  -4.605244e+01
  -2.826633e+02  -1.428487e+02
   2.887472e+01  -1.287604e+02
   2.725222e+02  -8.673179e+01
   1.281890e+02  -4.817713e+01
   2.402855e+01   3.520453e+01
  -2.096963e+01  -1.649372e+01
   9.380083e+01  -4.272809e+01
   1.607174e+02  -2.220551e+01
   1.488332e+02   1.277245e+02
  -1.454185e+02   1.817841e+02
  -2.861521e+02   8.425365e+01
  -2.031713e+02  -5.448943e+01
   7.647376e+01  -2.938306e+02
   2.645483e+02  -2.826558e+02
   3.268261e+02  -1.211226e+02
   2.153479e+02   1.386256e+02
   9.685087e+00   2.544245e+02
   3.400872e+00   2.675008e+02
  -6.893491e+00   1.572213e+02
   8.352460e-01   1.312662e+02
  -1.468053e+02   1.273076e+02
  -2.641085e+02  -3.275235e+00
  -1.729600e+02  -1.039444e+02
  -3.669927e+01  -2.524177e+02
   1.137499e+02  -1.157795e+02
   1.775627e+02   1.921349e+01
   5.136236e+01   1.822084e+02
  -1.198043e+01   2.148311e+02
  -1.587849e+02   2.454542e+01
  -1.984358e+02  -1.619310e+02
  -9.878103e+01  -2.597946e+02
  -7.633186e+01  -1.267284e+02
   9.063578e+01  -1.387785e+02
   1.326714e+02  -6.303367e+01
   1.307022e+02  -7.005466e+01
   2.140237e+02  -1.235999e+02
   3.336333e+02   8.986711e+01
   2.708501e+02   2.547531e+02
   2.487165e+01   3.863543e+02
  -3.431960e+02   2.901005e+02
  -3.689131e+02   1.818275e+02
  -2.612972e+02  -1.429025e+02
   3.925788e+01  -1.395210e+02
   8.006481e+01  -1.576544e+02
   1.279387e+01  -5.572884e+01
  -1.183569e+02   6.266432e+00
  -1.077057e+02  -8.604255e+01
   3.355493e+01  -1.454398e+02
   4.217372e+01  -8.414674e+01
   5.935663e+01   7.232469e+01
  -1.171737e+01   1.263435e+02
  -1.348996e+02  -3.202216e+01
  -9.343777e+01  -1.360209e+02
   5.028396e+01  -2.675324e+02
   1.991244e+02  -2.084178e+02
   3.127112e+02   5.651394e+01
   1.730405e+02   2.204593e+02
  -1.223030e+01   2.048366e+02
  -1.106462e+02   8.717677e+01
  -8.215990e+01   2.270626e+00
  -5.509821e+01   3.916917e+01
   5.255717e+01   1.104514e+02
   4.378614e+01   5.008959e+01
  -8.429833e+01   3.399179e+01
  -1.285266e+02  -6.254938e+01
   2.140314e+01  -4.572422e+01
   6.612264e+01  -2.118495e+01
   1.377363e+01   9.696782e+01
  -1.085076e+02   1.078966e+02
  -2.756611e+02  -6.275739e+01
  -2.332942e+02  -1.797580e+02
  -2.742128e+01  -2.015267e+02
   2.130996e+02  -2.069251e+02
   1.869938e+02  -9.504320e+01
   1.143872e+02   3.508066e+01
  -6.542032e+01   8.979869e+01
   6.410600e+01  -3.513019e+01
   8.206651e+01  -4.987600e+01
   1.960478e+02  -3.271998e+01
   1.418229e+02   7.805713e+01
   4.635265e+01   1.051899e+02
  -7.072123e+01   1.116470e+02
  -3.300390e+01   8.812327e+00
  -6.642107e+01  -6.055338e+01
   3.318063e+01   3.070067e+01
   9.140623e+01   1.487241e+02
  -2.149486e+01   1.243974e+02
  -2.144077e+02   2.108958e+01
  -1.526552e+02  -1.423206e+02
  -8.110827e+00  -1.894530e+02
   1.596600e+02  -9.112224e+01
   1.393065e+02  -8.920520e+00
   6.892209e+00   4.545617e+01
   5.829868e+00   5.417847e+01
  -2.701517e+01   5.975350e+01
  -5.486519e+01  -3.080416e+00
  -3.078178e+01  -4.536338e+01
   2.672420e+01   1.625995e+01
  -5.804165e+01   2.405946e+01
  -9.639043e+01  -1.781328e+01
  -7.173328e+00  -1.076196e+02
   1.026997e+02  -1.154829e+02
   1.837951e+02  -1.700860e+01
   1.864535e+02   1.550738e+02
   4.563397e+01   1.993002e+02
  -2.520663e+01   1.146657e+02
  -7.009374e+01   3.038801e+01
  -5.764718e+01  -3.399194e+01
   3.072231e+01  -5.877777e+01
  -3.773473e+01   1.637175e+01
  -1.075409e+02   3.689365e+01
   2.989846e+00  -8.191515e+01
   2.288013e+01  -1.582758e+02
   5.802625e+01  -1.055639e+02
   1.347348e+02  -2.453151e+00
  -5.087466e+00   1.021370e+02
  -1.588546e+02   4.765409e+01
  -1.758886e+02  -6.996278e+01
  -5.627450e+01  -1.772080e+02
   9.287718e+01  -1.894971e+02
   2.104034e+02  -3.485906e+01
   1.779390e+02   1.145631e+02
   8.093292e+01   8.879925e+01
  -7.758043e+00   1.721705e+02
  -2.811669e+01   6.001222e+01
  -6.537072e+01   2.118703e+01
   1.116764e+01   1.755304e+01
  -8.054463e+01   1.161404e+02
  -8.590808e+01  -1.436617e+01
  -7.779689e+01  -1.132189e+02
  -8.919841e+01  -1.709228e+02
   4.987710e+01  -1.379670e+02
   1.379952e+02  -8.045952e+00
   1.068692e+02   9.299592e+01
   5.484731e+01   1.278217e+02
  -4.103456e+01   6.892089e+01
  -2.310808e+01  -1.034639e+00
  -9.213234e+00  -9.393684e+01
   2.892989e+01  -3.983866e+01
  -2.313304e+01   3.378393e+00
  -7.877135e+01  -1.808072e+01
  -8.898661e+01  -8.041045e+01
   1.208726e+02  -5.790101e+01
   1.581340e+02   3.137575e+01
   1.220447e+02   3.830142e+01
   6.106153e+00   5.162546e+01
  -8.108268e+01   2.813313e+01
  -9.376264e+01   3.402510e+01
  -5.808130e+01  -6.173623e+01
   6.655313e+01   4.062429e+00
   5.434982e+01  -2.616431e+00
  -3.893968e+01   6.766354e+01
  -1.019537e+02   9.460863e+01
  -8.279275e+01   2.332937e+01
  -3.320674e+01  -8.134033e+01
  -4.409551e+01  -5.006112e+01
  -5.234504e+01   6.313408e+00
  -1.989864e+01  -1.816597e+01
  -3.298606e+00  -3.325464e+01
   3.138766e+01  -1.153981e+02
   8.447422e+01  -1.608034e+02
   1.265618e+02   1.917278e+00
   1.112131e+02   6.408549e+01
  -8.929813e-01   1.430354e+02
  -1.084764e+02   2.673649e+01
  -8.609303e+01  -1.442194e+01
   3.413087e+01   4.463541e+01
   1.251414e+02   6.794983e+00
   8.925496e+01   8.566981e+01
  -3.506588e+01   1.003275e+02
  -1.152900e+02   3.384187e+00
  -1.503991e+02  -2.773478e+01
  -2.242134e+00  -6.769597e+01
   3.725787e+01  -3.989426e+01
   1.244111e+02  -1.446150e+01
   2.092580e+01  -7.244384e+00
  -3.407680e+01  -4.069157e+01
   6.633673e+01  -1.038072e+02
   1.275626e+02  -8.236849e+01
   1.313124e+02  -1.065574e+02
   1.312065e+02   9.652761e+01
  -1.124110e+01   1.641673e+02
  -8.043445e+01   1.182701e+02
  -1.334201e+02  -1.884279e+01
  -2.438869e+00  -4.998570e+01
  -7.137770e+00  -6.752493e+01
   9.508139e+01  -4.855457e+01
   3.806954e+01   6.875560e+01
   4.245788e+01   4.021238e+00
   9.959729e+00  -6.363755e+01
  -4.877821e+00  -7.867168e+01
   7.758655e+01   1.032566e+02
   4.329529e+01   8.177613e+01
  -2.894997e+01   7.668805e+01
  -7.078352e+01  -2.818642e+01
  -1.074168e+02  -7.359713e+01
   7.718873e+00  -3.201682e+01
   5.630848e+01   1.814500e+01
   1.463844e+02   3.169254e+01
   4.164073e+01  -6.351681e+00
   3.183181e+01   3.599866e+01
   2.278819e+01  -2.940048e+01
   1.601824e+01   1.075294e+01
   3.988963e+01  -1.842867e+01
  -3.754613e+01   9.841453e+00
  -7.832047e+01  -4.886193e+00
  -2.531812e+01  -6.985546e+01
   5.492374e+01  -1.337140e+02
   1.427005e+02  -4.654128e+01
   1.494397e+02   5.947695e+01
   5.085730e+01   1.326563e+02
  -1.032938e+02   8.189147e+01
  -8.859613e+01   6.401470e+01
  -5.795928e+01  -6.011217e+01
  -1.846161e+01  -1.065893e+02
   1.650254e+01  -1.910042e+01
  -3.610369e+01  -4.627469e+01
  -2.313536e+01  -1.802982e+01
  -9.078923e+00  -9.348453e+01
   4.353713e+01  -8.426420e+01
   5.200734e+01   6.324776e+01
   8.516173e+00   1.085633e+02
   4.850812e+01   1.043240e+02
  -7.758048e+01   1.155404e+01
  -9.612252e+01  -8.380291e+01
  -7.359248e+01  -1.284783e+02
   9.897043e+00  -4.449864e+01
   1.074487e+02   3.345677e+01
   3.218098e+01   1.370140e+01
  -6.823369e+01   9.432895e+01
   2.070752e+01   4.264823e+00
  -2.772085e+01  -5.873131e+01
   6.158057e+01  -2.002229e+01
   2.173889e+01   2.907067e+01
  -5.960645e+01   5.187991e+01
  -8.225499e+01   1.298085e+01
  -4.343265e+01   4.424366e+00
  -1.203417e+01  -7.776697e+01
   3.693115e+01  -3.906459e+01
   7.782491e+01   6.140351e+01
  -4.400974e+01   2.550314e+01
  -2.073936e+01   5.777738e+00
   1.546296e+01   5.323142e+00
  -8.682658e+01  -5.792433e+01
   6.193361e+00  -1.321501e+01
   4.034880e+00  -2.270296e+01
   1.588174e+01  -1.447537e+01
   1.028465e+01  -9.890647e+00
   4.809357e+01  -5.629592e+01
  -2.467780e+01   3.273514e+00
  -2.178280e+01  -9.970191e+00
   8.390413e+01   3.902121e+01
   4.849727e+01  -1.459704e+01
  -1.749398e+01  -5.363270e+01
  -5.187380e+01  -3.734203e+01
   4.847238e+01  -2.803948e+01
   4.330086e+01  -1.878808e+00
   1.115017e+01  -3.931124e+00
  -1.039438e+01  -1.165054e+00
  -7.715096e+01   2.191797e+01
  -7.394983e+01  -3.706202e+01
  -6.673548e+01  -2.842087e+01
   4.216685e+01  -6.590581e+01
   3.244411e+01  -3.131114e+01
  -1.006651e+02   8.680254e+00
  -3.625638e+01  -9.166987e+01
  -5.864916e+01  -3.971505e+01
   1.528100e+01  -3.313063e+00
