
 $NMID
 id='ANONYMOUS ', fmtdat='(2E16.6)'
 volume=1.0
 tramp=1.0
 $END
   7.801948e+02   4.951866e+01
   5.266478e+02   3.989963e+02
   4.547196e+01   5.356664e+02
  -3.155801e+02   4.781733e+02
  -3.043752e+02   1.390974e+02
  -1.205268e+02  -1.002574e+01
   6.392420e+01   3.616873e+01
  -4.882234e+00   1.171715e+02
  -1.281057e+02   1.005638e+02
  -2.171007e+02   3.526215e+01
  -9.071971e+01  -1.090404e+02
  -6.056771e+01  -1.791895e+02
   9.313617e+01  -1.150312e+01
   2.447633e+01   8.638728e+01
  -4.505439e+01   9.318615e+01
  -1.010994e+02   6.592115e+01
  -7.006759e+01  -5.378176e+01
  -2.647770e+01  -2.172664e+02
   1.106318e+02  -3.391869e+01
   1.580172e+02   3.166057e+01
   7.408207e+01   1.037579e+02
  -4.172934e+01   6.633635e+01
   3.340255e+01   5.826891e+01
   4.229890e+01   1.023127e+02
  -9.652860e+00   1.146697e+02
  -1.296398e+01   9.697767e+01
  -1.585774e+02   3.966732e+01
  -1.279571e+02  -1.043935e+02
  -5.934753e+01  -1.044988e+02
   3.903901e+01   3.376755e+01
   1.183163e+02   1.184312e+02
  -1.722020e+01   4.552368e+01
  -3.374434e+01   9.141707e+01
  -1.711604e+02   6.137674e+01
  -7.457218e+01  -1.420421e+01
  -4.723592e+01  -1.398757e+02
   2.408835e+01  -5.138945e+01
   1.269922e+01   8.622213e+00
  -3.037830e+01   2.728441e+00
   2.057792e+01  -7.229931e+01
  -9.106093e+00  -1.782976e+02
   5.849360e+01  -1.022763e+02
   6.035558e+01   2.147762e+00
   2.950462e+00   6.623228e+01
  -3.032117e+01   3.319019e+01
  -1.228337e+01  -4.352419e+01
   1.385274e+01  -1.234578e+02
   1.308372e+02   3.619487e+01
   1.308206e+02   1.626973e+02
   1.022130e+01   1.341459e+02
  -4.888501e+01   2.217591e+01
  -1.817944e+02  -8.400142e+01
  -1.196562e+02  -3.578619e+01
   2.545754e+01  -8.355800e+01
   5.116867e+01   2.789789e+01
   3.553021e+01  -8.600264e+00
   1.598974e+01  -2.913158e+01
  -2.577812e+01   2.186273e+01
   4.777329e+01   9.402586e+00
   2.643379e+01   1.037822e+01
   6.257499e+01   6.908545e+01
  -2.961087e+00   6.346331e+01
  -1.091660e+02   8.233490e+01
  -1.225124e+02  -3.928680e+01
   2.742032e+01  -1.136004e+02
   1.318444e+02  -7.364864e+01
   1.933329e+02  -6.590321e+01
   1.261363e+01   5.612636e+01
  -4.226602e+00   4.584224e+01
   1.494197e+01   9.115206e+01
  -2.931436e+01   5.076498e+01
  -6.425732e+01   6.140421e+01
  -5.929748e+01   8.437824e+01
  -4.868416e+01  -6.876925e+01
  -2.241422e+01  -6.904980e+01
  -2.240697e+01  -2.690162e+01
   7.873914e+01  -9.959243e+01
   6.597598e+01  -1.200510e+00
   3.391809e+01   1.164519e+02
  -4.458681e+01   7.982128e+01
  -6.440285e+01  -3.094463e+01
  -7.954426e+01  -1.052723e+02
   1.525205e+01  -1.119713e+02
  -2.069760e+01  -6.023807e+01
   4.414452e+01  -2.946412e+01
   6.948951e+01   2.748919e+01
   3.343880e+01  -2.378452e+00
   1.048480e+02  -1.013910e+01
   9.183395e+01  -9.765455e+00
   1.178437e+02   1.180292e+02
  -8.550727e+01   1.140146e+02
  -1.866789e+02   9.017625e+01
  -1.815007e+02   4.042126e+01
  -1.059779e+02  -6.615673e+00
   1.733374e+01   4.696523e+01
   6.083879e+01  -4.466702e+01
   9.556813e+00   2.386888e+01
  -2.980427e+01  -1.655153e+01
  -2.005250e+01   1.436143e+01
   2.311569e+01   1.235186e+01
  -3.093620e+00  -1.113985e+01
   5.140734e+01   5.608002e+01
   1.819665e+01  -1.573153e+01
  -7.858553e+01  -3.718702e+00
  -1.244347e+01  -7.092669e+01
   1.250666e+01  -8.767773e+01
   8.744124e+01  -6.451903e+01
   1.202049e+02   5.163252e+00
   5.849780e+01   1.280001e+02
   5.483236e-02   1.004750e+02
   1.711697e+00   3.893393e+01
   4.035501e+00  -4.157533e+01
   5.265078e+00   4.808032e+01
  -2.628039e+00   3.552204e+01
  -5.899909e+00  -7.964202e+00
  -7.607489e+01   3.105567e+01
  -6.904284e+01   4.680458e+00
  -2.860416e+01  -2.526092e+01
   6.200608e+01  -1.863461e+01
  -2.123050e+01   1.308321e+01
  -3.304110e+01   4.728456e+01
  -5.984653e+01  -2.008991e+01
  -8.054596e+01  -5.857331e+01
   1.995125e+01  -1.219621e+02
   9.310498e+01  -3.034909e+01
   8.817629e+01   6.099631e+00
   5.478157e+01   1.191217e+01
  -2.943586e+01  -1.090416e+01
  -6.284486e+01   3.770744e+01
   2.227096e+01  -3.290536e+01
   4.790927e+01   4.375549e+00
   4.113233e+01   7.079149e+01
  -3.146745e+01   2.825365e+01
  -6.678499e+01   2.447444e+01
  -2.310532e+01   4.765478e+01
  -1.795813e+00  -1.843701e+01
  -7.803065e+00  -3.734472e+01
   1.931632e+01   7.983437e+01
  -4.544698e+01   8.426672e+01
  -8.667419e+01   1.153607e+01
  -3.787230e+01  -2.160951e+01
  -2.824780e+01  -1.096286e+02
   9.335514e+01  -9.245571e+01
   1.207137e+02   1.160247e+01
   3.030640e+01   9.043424e+01
  -9.436522e+00  -2.225596e+01
  -1.707010e+01   2.380507e+01
  -2.625878e+01  -4.021143e+01
   5.461402e+00  -1.785355e+01
   3.335471e+01  -1.109114e+00
  -3.168941e+01  -1.865906e+00
   2.071704e+01  -4.441292e+01
  -2.143063e+00  -7.366514e+01
   4.049179e+01  -5.123920e+01
   2.689095e+01  -4.038405e+01
   6.056185e+01   6.231548e+01
  -2.553762e+00   6.007948e+01
  -1.820729e+01   1.217350e+02
  -5.149503e+01   1.545471e+01
  -7.122427e+01   1.033577e+01
  -5.826086e-02   3.330740e+01
  -3.551128e+01  -4.811963e+01
  -8.759581e+00   3.180347e+01
   1.702689e+01  -1.844263e+01
   1.272114e+01  -9.243964e+01
   8.476574e+01   3.587687e+00
   2.618251e+01   1.686824e+01
  -7.592233e+01   3.057079e+01
  -8.810498e+01   4.617753e+01
  -6.800857e+01   1.142207e+01
   2.769223e+01  -5.144950e+01
   7.374560e+01  -6.671021e+01
   1.249573e+02  -1.984557e+01
   3.128318e+01   3.942819e+01
   3.833699e+01   9.419065e+01
  -1.928269e+01   4.408364e+00
  -5.090178e+01   2.829018e+01
  -3.078659e+01   1.262167e+01
  -1.470711e+01   1.500003e+01
  -8.509153e+01   7.350839e+01
  -1.034344e+01  -4.439294e+01
  -1.341045e+01  -1.148561e+02
  -2.667803e+01  -7.564761e+01
  -3.719758e+01  -6.236081e+01
   5.022408e+01   7.013391e+01
  -8.900314e-01   8.152731e+01
   1.363966e+01   7.487351e+01
  -2.289255e+01  -1.706182e+01
  -2.513537e+01  -2.487891e+01
   5.250529e-01  -1.316649e+01
   8.531469e+00  -4.624911e+01
   2.761565e+01  -3.917388e+01
   4.304796e+00  -2.897160e+01
  -1.375519e+01   5.256249e+01
   4.667717e+01   4.710690e+00
   5.843239e+01  -4.232338e+01
   2.624690e+01   5.891709e+01
  -4.397212e+01   4.060821e+01
  -2.576653e+01   8.454426e+01
  -5.895855e+01  -8.740438e+01
  -3.596522e+01  -8.467983e+00
   2.130692e+01  -1.426258e+01
   8.023078e+00  -2.659371e+01
  -1.363242e+01  -7.136700e+00
  -3.773880e+01   4.636267e+01
  -1.242365e+02  -1.127425e+01
  -3.857566e+01  -1.357890e+01
  -6.237931e+01   4.190814e+01
  -7.136481e+01  -1.483770e+01
  -2.220097e+01   4.930987e+00
   2.150882e+01  -4.912131e+01
   5.522365e+01  -4.482514e+01
   5.032626e+01  -3.127395e+01
   2.885453e+01  -4.271154e+01
  -4.018710e+00  -1.045107e+01
   2.721523e+01   8.086672e+00
  -3.286446e+01   8.024867e-01
   4.266665e+01  -8.581946e+01
   5.676381e+00   2.158201e+01
  -1.748733e+00   1.156379e+01
  -4.683369e+00   1.664270e+01
  -7.511970e+01  -1.831086e+01
  -6.654187e+01   1.698047e+01
   7.381399e+00   2.093633e+01
   3.199239e+01   7.967318e-01
   5.195841e+01   8.218516e+01
   2.905749e+01   2.110643e+00
   7.311667e+00   2.294857e+01
  -4.925464e+01   2.010080e+01
  -2.070711e+01  -2.803434e+01
   4.175533e+01  -2.867040e+01
   8.820322e+01   6.657959e+00
   2.987841e+01   5.955392e+01
   4.263461e+01   1.034434e+02
  -4.207922e+01   1.745550e+01
  -3.703877e+01   2.772424e+01
  -2.760626e+01   2.550861e+00
   3.402123e+00  -5.190945e+00
   2.997391e+01  -9.493356e+00
   1.423853e-01   8.743369e+00
   4.767592e+01   5.168774e+01
  -8.667506e+00   1.764970e+00
  -2.260575e+00   1.533844e+01
   6.709829e+01   3.265628e+01
  -1.564376e+01   6.762815e+01
  -3.661655e+01  -5.286717e+01
  -7.863432e+01  -2.665372e+01
  -7.356928e+01  -4.084610e+01
   3.536222e+01  -3.124460e+01
  -3.853430e+00  -5.472347e+01
   1.223327e+01   2.216707e+01
  -2.931967e+01   3.795485e+01
  -4.727476e+01  -2.498326e+01
   3.113745e+01  -9.589405e+00
   1.541457e+01  -3.724733e+01
  -1.525158e+01   2.100524e+01
   8.065615e+00  -4.872593e+01
  -1.546261e+01  -4.858405e+01
  -3.108101e+01  -3.857507e+01
   3.102691e+01  -2.202557e+01
   1.057208e+02  -1.644091e+01
   3.608609e+01   4.642117e+01
   2.037943e+01   2.154506e+01
  -1.566327e+01   2.208240e+01
   7.118530e+00  -1.020431e+01
  -3.681761e+01   1.409414e+01
   9.730770e+00  -1.667637e+00
   5.469553e+01  -3.411666e+01
  -1.529674e+01  -5.226960e+01
   1.981663e+01  -3.266049e+01
  -3.882779e+00  -8.426741e+01
   2.569764e+01  -2.634803e+01
  -4.842455e+01   7.710605e+01
  -3.812839e+01   5.359050e+01
  -2.436503e+01   4.736643e+01
  -1.925836e+01   2.331401e+01
  -2.323673e+01  -1.941668e+01
   1.857298e+01  -6.472844e+01
   1.217122e+01  -2.452269e+01
   5.967482e+01   4.881485e+01
   2.497664e+01  -2.890382e+01
  -3.126950e+01   5.012403e+01
   4.173869e+01  -1.067657e+01
   5.496605e+01  -1.824271e+01
   1.110717e+01  -5.068224e+01
   4.505843e+01   3.910371e+01
  -4.482700e+01   3.032056e+01
  -1.099289e+01  -3.259367e+01
  -4.185742e+01  -2.841782e+01
   5.733625e+01  -3.488479e+01
   5.755984e+00  -9.382633e-01
   4.758469e+01  -5.435403e+00
  -5.748887e+01  -2.210595e+00
   3.647605e+01  -3.953816e+01
   3.306346e+01  -7.718895e+00
  -1.719400e+00   3.054979e+00
   4.403106e+00  -4.461573e+01
  -2.041383e+01   2.069228e+01
   4.416817e+01   1.402529e+00
  -2.751365e+01  -5.756865e+00
  -6.980203e+00   2.787966e+01
   8.055164e+01  -6.898771e+00
   3.098170e+01  -2.023501e+01
   6.087437e+01   5.071700e+01
   1.551575e+01   6.545764e+01
  -6.142315e+01  -6.463760e+01
   1.445221e+01   5.811476e+01
   7.742759e+00  -5.575447e+01
  -3.394241e+01  -1.068619e+01
   2.347325e+01   5.636091e+01
  -5.595384e+01  -1.608960e+00
  -4.341091e+01   1.776361e+01
  -3.151286e+01   3.162842e+01
  -3.906369e+01  -1.427847e+01
   2.897004e+01   3.613763e+01
   2.900679e+01   4.446928e+01
  -3.011381e+01  -2.362316e+01
   3.531581e+01  -1.097084e+01
   1.853656e+01  -1.990515e+01
   1.661153e+01  -9.109433e+00
