
 $NMID
 id='ANONYMOUS ', fmtdat='(2E16.6)'
 volume=1.0
 tramp=1.0
 $END
  -2.199613e+02   7.209837e+00
  -1.989556e+02  -9.940472e+01
  -2.038990e+01  -1.215359e+02
   2.354011e+01  -4.194825e+01
   9.043782e+01   1.521430e+01
  -3.553838e+01   3.595065e+01
  -4.890229e+01  -9.121674e+00
   2.790377e+01  -3.332236e+01
   3.818941e+01  -4.010948e+01
   1.969562e+01  -2.510793e+01
   1.274280e+01   6.258757e+01
   1.141730e+01   6.426377e+01
  -5.040709e+01   1.289306e+01
  -5.170332e+01  -6.896182e+01
  -6.462477e+01  -4.750430e+01
   4.495153e+01   1.641816e+01
   4.531476e+01   2.372347e+01
   1.212205e+01   1.846909e+01
  -3.708592e+01   1.301233e+01
  -3.076335e+01   5.543011e+00
  -1.169152e+01   5.307673e+00
  -1.506686e+01   1.371759e+01
   4.544444e+00   2.395782e+01
  -2.124567e+00   2.823637e+01
  -8.367734e+00   3.459876e+01
  -2.435929e+01   1.028750e+01
   6.617436e+01   4.215937e+01
   2.049075e+01   5.087239e+00
  -5.879064e+00   3.998467e+01
  -1.069257e+01   1.001979e+01
  -6.952690e+01  -1.312922e+01
  -8.442318e+01  -6.756790e+01
   2.964759e+01   1.449236e+01
   6.277708e+01  -2.661442e+01
   8.511111e-01  -1.428682e+01
   4.336801e+01   3.877649e+00
   4.054405e+01   2.719822e+01
   6.740153e+00  -6.913979e+00
  -1.274434e+01   8.118496e+01
  -5.278945e+01  -2.238444e+00
  -4.031997e+00   5.236621e+01
  -2.043206e+00   1.158598e+01
  -1.266917e+02   9.494216e+00
  -5.839049e+01   1.436004e+01
   1.675030e+01  -5.477552e+01
   2.042780e+01  -4.595394e+01
  -2.195542e+01  -5.942126e+00
  -9.868646e+01   3.078410e+01
  -2.279318e+01  -8.252372e+00
  -6.300951e+01  -6.398576e+01
   7.535573e+01   4.320168e+01
   2.548455e+01  -1.063122e+00
   5.988318e+00   2.461658e+01
  -9.969414e+00   4.808666e+00
  -4.037337e+01  -1.075033e+01
  -1.141027e+01   4.216538e+01
  -3.340771e+01  -4.441704e+00
  -5.762533e+01  -5.580336e+01
  -5.317903e+01  -2.914416e+00
   3.384096e+01  -6.429220e+01
  -2.538548e+01  -4.162967e+00
  -5.685475e+01  -1.902882e+01
   2.236581e+00   3.356306e+01
  -4.084488e+00  -6.489234e+01
   1.820854e+00   2.880705e+01
  -3.660514e+01   7.216646e+00
  -1.679938e+00  -2.761486e+01
  -4.950264e+01   6.482070e+01
  -3.550644e+01  -3.286725e+01
  -1.360978e+01  -5.542842e+01
  -2.076030e+01   1.051322e+01
  -3.446528e+01   1.494508e+01
   2.585737e+01  -5.437096e+01
   1.192424e+01  -4.334372e+01
  -2.868419e+01   7.032208e+01
   2.273788e+01   3.516460e+01
  -1.821659e+01   3.649153e+01
   2.588880e+01   2.474493e+01
   2.403305e+01   1.817421e+01
   3.017757e+01   1.447793e+00
   2.657502e+01  -6.930330e+00
  -1.139463e+01   1.947806e+01
  -3.484135e+00   4.572028e+01
  -4.973243e+01  -1.163598e+01
  -6.753163e+00  -3.070080e+01
  -4.346583e+00  -1.648708e+01
  -2.829938e+01  -5.782921e+00
   2.673057e+01   6.443988e+01
  -3.039087e+01  -6.019326e+01
  -7.645625e+01  -1.628199e+01
   3.507514e+01  -7.639117e+01
   3.839584e+01  -1.265847e+01
   9.340843e+01  -1.707779e+01
   3.842244e+01  -7.750170e+00
   2.674170e+01   1.561986e+01
   1.428702e+01   5.826177e+01
   1.003331e+01  -4.939511e+01
   2.564216e+01  -7.400353e+01
  -1.857475e+01   8.569620e+01
   2.399730e+01  -1.102305e+00
  -4.166652e+01   2.110226e+01
  -2.706665e+01  -5.707161e+01
  -4.649371e+01   2.190224e+01
   2.866682e+01  -2.191763e+01
  -1.432686e+01   5.493896e+01
  -2.267113e+01   5.410869e+01
   1.028353e+01   1.471615e+00
  -1.185675e+01   1.108553e+01
   6.700322e+00   2.188845e+01
   8.044271e+01  -2.952270e+01
  -3.929446e+00  -3.821491e+01
  -2.712508e+01   3.490894e+00
  -1.778247e+01   8.687565e+00
   1.258596e+01   3.286581e+01
   3.502074e+01  -4.295299e+01
   6.510711e-01   1.229451e+01
   3.457628e+01  -4.167142e+01
   1.068727e+01   1.134013e+01
  -3.516301e+01  -7.136256e+00
   2.206283e+01  -5.642476e+01
  -2.926237e+01   1.053739e+01
  -2.875827e+00  -1.055713e+01
  -7.536362e-01  -4.563573e+01
  -8.182878e+00   4.721459e+01
   3.181818e+00   2.347395e+01
   1.948545e+01   4.832321e+00
  -2.385472e+01  -2.051909e+01
  -1.570076e+01  -7.062961e+01
   6.364451e+01  -8.032479e+00
   2.485269e+00  -3.121248e+01
   1.619040e+01   1.325667e+01
  -8.140964e+01   3.049796e+01
  -3.284065e+01   3.800734e-02
  -2.552714e+01  -2.746560e+00
  -6.610171e+00  -1.531241e+01
  -2.570953e+01  -6.330046e+00
  -4.127966e+01  -3.698823e+01
  -4.535805e+01  -9.809303e+00
  -3.250318e+01  -3.088644e+01
   3.695947e+01  -2.893518e+01
   1.014856e+01   2.024581e+01
   3.641827e+00  -4.245616e+01
   2.734983e+01  -1.907532e+01
   2.194753e+01  -2.370403e+01
   1.959751e+01  -2.596024e+01
   2.833603e+01  -2.736187e+01
  -6.796888e+01  -1.244550e+00
   4.066790e+01   7.370002e+01
   5.116890e+01  -3.401809e+01
  -4.078199e+01  -3.876445e+01
   1.824060e+00  -6.502078e+01
  -3.725105e+01  -3.989941e+01
   5.389161e+01   3.052864e+01
   5.069985e-01   5.879719e+01
  -6.384962e+01   7.660954e+00
  -5.154329e+01  -1.286576e+01
  -3.543020e+01  -2.587450e+01
  -1.991002e+01  -3.126220e+01
   5.254784e+01  -1.251269e+01
  -2.240464e+01  -5.552989e+01
  -1.327956e+01   4.732268e+01
   2.672201e+00  -1.551793e+01
  -7.515496e+00  -1.319303e+01
  -2.291555e+01   2.924846e+01
  -3.857338e+00  -7.094751e+00
  -1.378058e+00  -4.343385e+01
   1.732708e+01  -4.504391e+01
  -2.704203e+01   3.354849e+01
   4.965481e+01  -5.341085e+01
  -1.661229e+01   2.980539e+01
  -2.748369e+01  -3.835569e-01
   2.708666e+01   4.462002e+01
  -8.445374e+00   5.803663e+01
  -4.677031e+01  -2.357772e+01
  -9.175013e+00  -1.631913e+01
   3.796859e+01  -7.161194e+01
  -4.169706e+01  -1.596532e+01
   6.082052e+00   4.668301e+01
   1.852690e+01  -7.753384e+01
  -1.423580e+01   5.615493e+01
   2.148017e+01  -7.226820e+01
   1.037557e+02  -3.307267e+00
  -4.258040e+01   3.110864e+01
   3.758480e+01  -2.575957e+01
  -4.139505e+00  -2.072911e+01
  -2.756648e+00   5.282939e+00
   5.049637e+01   1.530618e+00
   9.339451e+00   4.240045e+01
   3.898023e+01  -2.810885e+01
   3.074494e+01   1.855264e+01
   8.362322e+00  -3.288787e+01
  -1.685981e+01   1.146131e+01
   3.184372e+00  -6.373429e+01
   5.163152e+01   1.144716e+01
  -1.575053e+01   2.619956e+01
  -2.176760e+01  -6.158769e+00
   3.033870e+01  -4.420656e+01
   1.594859e+01  -6.081548e+00
  -2.409488e+01  -3.777330e+01
  -1.158650e+01  -2.316641e+01
  -2.657142e+01  -4.806226e+01
  -8.428046e+00  -6.680978e+00
  -7.197548e+01  -1.977945e+01
  -1.119160e+01   5.413053e+01
   1.518212e+01   2.288424e+01
   6.505538e+00   1.090956e+01
  -2.106006e-01   5.084168e+01
   1.786025e+01  -3.443876e+01
  -6.890317e+01  -2.486083e+01
   2.008660e+01  -1.080749e+01
   1.006524e+01  -1.858163e+01
  -7.410300e-01   8.969043e+01
   1.947072e+01   8.369595e+01
  -4.014360e+01   1.677367e+00
   1.280548e+01  -4.133707e+00
   1.135146e+01  -4.177884e+01
  -4.202381e+00   1.037428e+01
   1.934856e+01   3.759706e+01
  -6.604151e+00   2.754126e+00
  -9.253897e+00   2.991154e+01
  -5.249890e+01  -4.431098e+00
  -5.291226e+00  -2.368670e+01
  -5.900443e+00   7.174981e+00
  -1.975122e+01  -2.830377e+01
   3.250539e+00   3.755610e+00
   2.000425e+01  -2.382437e+01
   4.425860e+01   1.499485e+01
  -6.255369e+01   3.665390e+00
  -2.246899e+01   4.234951e+00
   9.707419e+00  -3.907309e+01
   8.262187e+00   8.914507e+01
  -2.430004e+01   1.964814e+00
   1.906458e+01   2.893430e+01
  -3.861528e+01  -4.060156e+01
   3.403529e+01  -4.188641e+01
   1.559171e+01  -3.643552e+01
   1.915013e+01   4.004455e+01
   7.664647e+01   7.240436e+00
  -2.323002e+01   2.002657e+01
   3.026700e+01   2.963684e+01
   8.321428e+00   2.622071e+01
   4.251653e+01  -4.104461e+01
  -2.306866e+01   1.113308e+01
  -4.709386e+00   4.149771e+01
   1.136548e+00  -4.228826e+01
   2.143254e+01  -1.996868e+01
  -3.571463e+00   1.726500e+01
  -2.554758e+01   1.605333e+01
   9.100688e+00   1.621684e+01
  -4.220329e+01   3.121602e+01
   4.232037e+01  -9.360336e+00
  -2.497540e+01  -2.193989e+00
  -3.049479e+01   2.384732e+01
  -2.688876e+01  -6.393030e+00
  -1.794124e+01   4.522342e+01
  -8.589308e+00   9.762391e+00
  -3.059206e+01   2.462494e+01
   1.187688e+00  -5.170604e+01
   2.286057e+01  -2.145927e+01
  -1.571559e+01   6.719528e+01
  -8.505916e+01  -2.597150e+01
   4.859237e+01   1.525029e+01
  -2.894914e+01   7.859162e+00
  -3.086436e+00  -4.523637e+01
  -1.782609e+01  -6.781611e+01
   5.957168e+01   1.254788e+01
  -2.952701e+01  -4.035255e+00
   4.306927e+01   3.954106e+01
  -2.045598e+01  -2.018840e+01
   7.375383e+00  -3.577025e+01
  -9.493432e+00   2.820174e+01
   4.521996e+01   3.606393e+01
   2.353755e+01  -6.127737e+01
  -6.413827e+00   1.023917e+01
   7.613606e+00   6.363367e+01
  -3.508761e+01   1.132172e+01
  -1.311194e+01  -5.818719e+00
   1.415706e+01   4.779000e+01
  -6.121525e+01   2.789207e+00
  -3.240966e+01  -1.558275e+01
  -7.219062e+01   9.121543e+00
   1.792717e+00  -8.751480e+00
   6.465575e+01  -3.965042e+01
  -4.684919e+01   2.931862e+01
  -4.236622e+00   1.324780e+01
   1.553374e+01  -2.913425e+01
   7.339142e+00   2.815014e+01
  -1.034055e+01  -9.100712e+00
  -9.326550e+00   5.080863e+01
   3.421391e+01   3.831858e+01
  -3.268903e+01   3.126599e+01
   2.721786e+01  -2.316100e+01
   1.047915e+01  -3.471232e+01
   4.049732e+01   8.642465e-01
  -2.724943e+01   2.849415e+01
  -1.508876e+01  -7.205973e-02
   3.623816e+01  -6.996551e+01
   2.042511e+01   1.411646e+00
   1.114906e+01   2.334806e+01
   2.645823e+01  -9.664292e+00
   6.721018e+00  -2.028859e+01
  -2.083202e+01  -6.080579e+00
   1.711584e+01  -1.822002e+01
   2.801587e+01   2.481951e+01
   1.112683e+00  -3.257856e+01
  -5.129836e+01   1.967649e+01
  -3.239678e+00   1.916292e+01
   2.355868e+01  -2.832011e+01
  -1.387141e+01  -3.840946e+01
   2.742363e+01  -3.400662e+00
  -9.519491e+00   1.059296e+01
  -1.762715e+01   4.111254e+01
  -7.040504e+01   1.532894e+01
  -2.682593e+00  -2.089952e+01
  -2.995377e+01   9.936013e+00
   2.498219e+00   1.786595e+01
   4.701023e+01  -4.270459e+01
  -6.951229e+00  -1.100726e+01
   4.445848e+00   2.465010e+01
   3.557641e+01   3.044994e+01
