
 $NMID
 id='ANONYMOUS ', fmtdat='(2E16.6)'
 volume=1.0
 tramp=1.0
 $END
  -9.847339e+01  -5.884522e+01
  -8.195919e+01  -3.558456e+01
  -1.215636e+01  -6.869220e+01
   1.208369e+02   2.330598e+01
   2.859419e+01  -5.381386e+00
   1.281912e+01   7.744359e+01
  -3.532937e+00  -2.522196e+01
  -2.007105e+01  -4.287897e+00
   4.242408e+01  -3.622740e+01
  -1.916945e+01  -1.035482e+01
   2.819365e+01   5.607844e+01
  -4.734161e+01  -8.600898e+00
  -1.250359e+00   2.980897e+01
  -3.762699e+01  -2.463365e-01
   1.766854e+01   1.177166e+01
   1.713151e+01   2.405375e+01
   3.404523e+01   1.314897e+01
   3.639616e+01   4.738110e+01
   3.314469e+01  -2.222714e+01
   4.114821e+01  -5.002408e+00
  -2.377801e+01   4.862709e+00
   4.767325e+00  -5.093657e+01
  -4.332333e+01   6.940551e+00
   1.026534e+01   1.294029e+01
  -6.305725e+00   2.621659e+00
  -2.955788e+01  -2.040929e+01
   6.029312e+01   4.553111e+00
  -5.502099e+01  -3.663883e+01
   3.998301e+01   7.084384e+01
  -7.001890e+01   1.851800e+01
   1.025917e+01  -8.079453e+01
  -2.968324e+01  -3.142766e+01
   1.936188e+01   5.353341e+01
   2.677258e+01  -3.135551e+01
   1.742515e+01  -2.487245e+00
  -3.832442e+01   3.439103e+00
  -6.376877e+00   2.262334e+01
  -9.382805e+00  -1.066773e+01
  -1.170494e+01   5.498835e+00
  -2.051776e+01   6.305403e-01
   3.657298e+01   3.292032e+01
   1.410989e+01   1.023294e+02
  -3.386432e+01  -7.083031e+00
   5.674430e-01  -2.803491e+01
   1.554372e+01  -1.388605e+01
   2.002823e+01  -4.167878e+00
   3.665119e+01   3.675299e+01
  -1.996754e+01   1.592696e+01
  -4.437071e+01   2.693411e+00
  -2.371156e+01  -5.005809e+01
  -1.299259e+01  -3.031105e+01
   2.152382e+01  -1.399993e+01
   6.236118e+01  -2.762700e+01
   6.298305e+01   3.126679e+01
  -1.835352e+01   1.228411e+01
  -3.050545e+01   7.279746e+00
  -5.705554e+01   8.460472e+00
   3.669221e+01  -6.511869e+01
  -1.296856e+01   6.868455e+01
   4.692389e+00   2.117420e+01
  -7.863385e+00  -5.238200e+01
   1.990880e+01   1.400675e+01
  -1.309791e+00  -2.221342e+01
   6.533023e+00  -4.136885e+00
   2.568191e+01   3.246345e+01
   9.584480e+00  -3.795190e+01
  -1.906057e+01  -2.005939e+01
  -4.028044e+01   3.599704e+01
   2.588389e+01  -5.857470e+01
  -1.281780e+01   5.617686e+01
   1.998447e+01  -1.374502e+01
  -4.679915e+01   3.458109e+01
   1.512571e+01   1.025564e+01
   3.411429e+01  -4.966338e+01
  -5.467761e+00   5.897217e+01
   2.782100e+01  -2.836517e+01
  -5.494841e+01   2.265313e+01
  -1.093465e+01  -1.843550e+01
   2.584336e+00   4.011503e+01
  -1.587254e+01  -3.241444e+01
   2.522136e-02  -2.202489e+01
   2.513538e+01   4.139355e+00
   1.485921e+01  -1.454149e+01
  -8.973721e+00  -1.790292e+01
   4.950711e+00  -1.235643e+01
  -4.984676e+01   5.802709e+01
   6.842293e+00   7.197373e+00
  -1.400865e+01   1.559660e+01
   1.839878e+01  -2.926936e+01
   2.145726e+01  -8.336639e+00
   7.651306e+01  -2.032607e+01
   7.730862e+00  -1.448675e+01
  -2.527381e+01   1.739960e+01
   1.466210e+01  -2.046801e+01
  -9.839642e+00  -7.277781e+00
  -2.030015e+01  -5.928624e+00
   8.838795e+00  -2.386484e+01
   2.357605e+01  -4.733757e+00
   9.423502e+00   5.121298e+01
  -1.708975e+01   5.287976e+01
   7.353765e+00   2.105376e+01
  -7.312223e+01  -3.246574e+00
  -4.626534e+01  -1.801089e+01
  -1.188159e+01  -4.254471e+01
   1.485536e+01  -4.117324e-01
  -1.076027e+01   5.709403e+00
  -2.842395e+00   1.948474e+00
  -1.846279e+01  -4.408202e+01
  -1.796400e+01   6.209820e+01
   5.787733e+01   3.670344e+01
  -2.101677e+01   7.513905e+00
   6.244995e-01  -3.067001e+01
  -2.941550e+01   1.623800e+01
   1.541290e+01   1.348059e+01
  -3.630654e+00  -1.231240e+01
   4.614305e+01   5.179723e+01
  -1.784671e+01  -1.219746e+01
   4.624779e+01   2.354328e+01
  -2.316419e+01   4.924624e+01
  -1.163734e+01   2.864725e+00
  -1.874534e+01  -1.713568e+01
   2.659849e+01  -6.350811e+00
  -1.152957e+01   1.234981e+01
   4.033971e+00   2.503038e+01
   1.638971e+01   2.388299e+01
  -8.230657e+01   2.323898e+01
   3.344561e+01  -6.274942e+01
  -1.950422e+01  -2.498445e+01
   1.024865e+01   1.222152e+01
   1.908089e+00  -2.314458e+01
   7.627790e+00  -1.108428e+01
  -5.215733e+01  -8.502888e+01
   2.657350e+01  -4.517491e+01
   6.641652e+01  -6.956132e+01
  -1.209679e+00   2.031829e+01
  -1.317220e+01   4.239186e+01
  -9.872572e+00   2.892608e+01
  -3.510351e+01   1.671091e+01
  -1.805534e+01  -1.232428e+01
  -1.191126e+01  -3.210179e+01
   7.467021e+01   2.234322e+01
  -3.062833e+01   3.633067e+00
   1.317345e+01  -5.171059e+00
  -3.751628e+00  -2.360214e+00
   1.681128e+01   2.598305e+01
  -3.692018e+01   4.655185e+00
  -4.761618e+01   3.717934e+01
   2.532334e+01   1.092675e+01
  -7.695238e+00   3.622908e+01
  -5.531938e+01   7.885314e+00
   3.787069e+01   3.794426e+01
   1.572245e+01   3.702508e+01
  -4.447853e+00   1.793533e+01
  -8.963273e+00  -9.744210e+00
  -3.500917e+01  -4.090034e+01
  -4.316491e+01  -1.663456e+01
  -2.911597e+01  -5.130394e+00
   1.142189e+00  -1.219373e+01
  -1.498749e+01  -3.930712e+01
   2.723425e+01  -4.640461e+00
  -3.796803e+01  -2.968047e+01
  -1.479967e+01   1.327794e+01
  -1.176921e+01   3.119819e+01
  -3.329041e+01  -1.774290e+01
   4.841325e+01   1.009405e+01
  -2.611623e+01   1.426452e+01
  -8.010867e+00   2.477220e+01
   1.876129e+01   7.134202e+00
   9.823410e+00   1.831007e+01
  -2.981848e+01   2.206374e+01
  -1.073424e+01  -5.555853e+00
  -2.583742e+01   3.120362e+01
  -1.059921e+01   4.480582e+01
   2.617453e+01  -9.689770e+00
   6.322652e+00   9.007560e-01
   5.348321e+01  -2.220323e+01
   3.678377e+01   2.850270e+01
  -1.167388e+01   2.765525e+01
   1.587697e+01  -1.321092e+01
   3.727655e+01  -2.517978e+01
   2.567520e+00  -1.468452e+01
   2.347001e+01   4.474959e+01
   5.863809e+01   4.516919e+01
   4.239892e+00   2.443910e+01
   1.153732e+00  -2.577549e+01
  -4.556744e+01   7.102652e+00
  -1.403333e+01   1.303224e+01
   2.420169e+01   5.730064e+00
   1.096314e+01   2.755071e+01
  -2.529059e+00   1.143537e+00
   3.639641e+01  -3.195853e+01
  -3.919571e+01  -3.963816e+00
  -7.735009e+00   1.527214e+01
   3.568555e+00  -3.811077e+01
  -2.666459e+01  -2.208033e+01
  -1.324128e+01  -3.248638e+01
   2.580759e+01  -1.627203e+01
  -9.347251e+00  -4.135644e+01
  -2.884869e+01   5.183761e-04
   3.782990e+00  -1.295470e-01
  -5.572318e+01  -3.893865e+00
  -1.893363e+01   2.235270e+00
  -7.011302e+01   1.187024e+01
  -1.732963e+01   1.574921e+01
   1.505031e+00   1.219511e+01
  -6.662088e+00  -7.072841e+01
  -1.060494e+01  -2.669492e+01
   2.302000e+01  -3.889570e+01
   6.367173e+01   1.516195e+01
  -1.716039e+01   1.156262e+01
   1.789383e+01  -2.192338e+01
   1.938321e+01   5.221118e+01
  -2.477790e+01  -2.112605e+01
   2.977043e+01  -8.532567e+00
   3.352362e+00   1.394504e+01
  -2.049055e+01   6.271687e+01
   1.283947e+01  -4.809773e+01
  -5.082709e+01   3.242926e+01
   3.099945e+01   4.533934e+01
   4.160698e+01   1.186559e+01
   3.741469e+01   3.594405e+01
  -2.645750e+01   1.016020e+01
   2.632490e+01  -2.230666e+01
   7.174946e+00   7.184065e+01
   5.837408e+00   3.783063e+00
  -6.376110e+01  -2.206209e+01
  -9.324368e+00  -6.915635e+01
  -1.110739e+01   6.376452e+00
   3.577591e+01   2.336666e+01
   1.056937e+01   2.129447e+01
  -1.839358e+01   2.990020e+01
   5.519044e+01   4.033076e+01
  -2.464774e+00   3.038396e+01
  -8.925771e+01  -6.272209e+00
   4.943744e+01  -1.813838e+00
  -2.492419e+01  -1.053417e+01
   7.936855e+00   8.001693e+00
   1.759568e+01   6.950160e+00
  -1.194438e+01  -3.377896e+01
   5.900085e+00   1.282365e+01
  -9.414550e+00   5.168580e+01
   8.827712e+00   1.592884e+01
  -1.942976e+00  -5.818761e+01
  -2.255829e+01   2.881230e+01
  -4.864959e+01  -1.041825e+01
   1.073799e+01  -1.286739e+01
   1.965388e+01  -1.620051e+01
  -5.080184e+01   1.157792e+01
   4.104290e+00  -8.643753e+00
  -3.721475e+00   9.538881e+00
  -6.251231e+01   4.060574e+01
   5.620516e+00  -1.635666e+01
  -2.149767e+01  -4.869243e+01
  -4.715938e+00   1.253770e+01
   2.823972e+01  -2.665957e+01
   1.509216e+01   7.486557e+01
   5.414320e+01  -1.600243e+01
   5.789111e+01  -1.440368e+01
   5.092259e+01  -4.725119e+00
  -7.036126e+01   1.586216e+01
   2.113670e+01  -4.699743e+01
  -2.454362e+01  -1.432440e+01
   1.093531e+01   4.559761e+01
  -1.330984e+01   7.846730e+00
   1.317868e+01  -2.208459e+00
   1.869938e+01  -2.631113e+01
  -2.531906e+01   6.430652e+00
  -9.346487e+00   6.349146e+00
  -2.613104e+01   1.263985e+01
   3.460853e+00  -1.787318e+01
  -1.536146e+00   1.328093e+01
  -2.625911e+01   5.439512e+01
  -1.403593e+01   5.053304e+01
  -2.939902e+01  -2.397431e+01
  -2.566737e+00  -2.444803e+01
  -6.465266e+01  -2.251966e+01
  -5.992330e+01   7.525114e+01
   2.344448e+01   4.457141e+01
   1.492290e+01   3.482047e+01
   4.648743e+01   2.004076e+01
  -9.552516e+00   3.000077e+01
  -5.439137e+01  -5.665733e+01
   5.501479e+01  -6.313297e+00
   2.040594e+01   5.379167e+01
   2.413545e+01   1.114243e+01
   1.596046e+00   4.902498e+01
   1.094119e+01   1.014069e+01
   3.969527e+01  -7.492576e+00
  -3.558958e+00   2.173629e+01
  -2.347023e+01  -1.192894e+01
  -4.878274e+01   1.678508e+00
   4.727475e+01   8.370218e+01
   3.868739e+01  -6.032257e+00
   7.368694e+01  -2.329592e+01
  -9.890174e-01  -3.700450e+01
   3.228935e+01  -1.281130e+01
  -6.608730e+00   1.483415e+01
   1.241372e+01  -5.437256e+01
  -2.643761e+01   2.535622e+01
  -1.104777e+01  -1.051601e+01
  -1.301876e+01  -1.197016e+01
   7.353993e+00  -7.341745e+01
   6.692898e+01   7.213108e+00
  -6.982019e+01  -3.605847e+01
  -2.831975e+01  -4.381207e+00
   2.054143e+01  -2.001619e+01
  -1.973182e+01   4.491899e+01
   2.302772e+01   1.305993e+01
  -1.612981e+01  -5.912632e+00
  -3.592056e+01   6.552092e+01
   2.840613e+01   8.002774e+01
   3.143949e+01   5.084931e+01
  -1.108644e+01  -2.160086e+01
   4.545175e+01  -3.665802e+01
   1.767026e+01   3.010660e+01
  -2.642842e+01  -5.988527e+00
   1.548655e+01  -3.027283e+01
   1.340306e+01   3.529886e+01
   1.505109e+01   1.963365e+01
  -1.195825e+01   7.447658e+00
