
 $NMID
 id='ANONYMOUS ', fmtdat='(2E16.6)'
 volume=1.0
 tramp=1.0
 $END
  -1.422530e+07   1.785638e+06
  -1.052365e+07  -5.646694e+06
  -1.129303e+06  -9.197611e+06
   5.619398e+06  -6.760649e+06
   5.270862e+06  -1.105317e+06
   5.823824e+05   2.587128e+06
  -2.863545e+06   1.542599e+06
  -2.430567e+06  -2.158588e+06
   3.613866e+05  -4.046961e+06
   2.559235e+06  -2.033651e+06
   2.491526e+06   1.591858e+06
   5.859762e+05   2.924717e+06
  -1.274130e+06   7.409624e+05
  -1.284273e+06  -2.375885e+06
   5.996003e+05  -3.022525e+06
   2.418513e+06  -5.342592e+05
   2.123238e+06   2.637732e+06
  -2.227750e+05   3.675084e+06
  -2.510128e+06   2.049249e+06
  -2.853190e+06  -4.477348e+05
  -1.440017e+06  -1.792516e+06
  -6.262591e+04  -1.567177e+06
  -1.054429e+05  -9.231655e+05
  -1.139798e+06  -1.070330e+06
  -1.421207e+06  -1.960522e+06
   1.916258e+05  -2.439953e+06
   2.744200e+06  -1.594646e+06
   3.862228e+06   1.947252e+05
   2.254604e+06   1.588674e+06
  -6.436463e+05   1.572533e+06
  -2.044793e+06   3.354279e+05
  -8.288685e+05  -9.720808e+05
   1.358245e+06  -1.190772e+06
   2.173496e+06  -5.139751e+04
   1.129777e+06   1.524907e+06
  -3.391258e+05   2.075994e+06
  -8.485329e+05   9.890982e+05
  -3.816897e+05  -6.399262e+05
   2.026142e+05  -9.907638e+05
   2.462163e+05   3.559634e+05
  -2.960022e+05   1.721009e+06
  -9.760539e+05   1.270208e+06
  -1.095844e+06  -6.385080e+05
  -2.416758e+05  -1.777160e+06
   1.046481e+06  -7.552763e+05
   1.435813e+06   1.305602e+06
   1.413467e+05   2.153872e+06
  -1.920736e+06   9.525858e+05
  -2.779677e+06  -1.050286e+06
  -1.428962e+06  -2.085631e+06
   1.011889e+06  -1.534133e+06
   2.368043e+06  -1.301756e+05
   1.578606e+06   9.377048e+05
  -3.406301e+05   9.684170e+05
  -1.461395e+06   1.747931e+05
  -9.128822e+05  -5.616618e+05
   3.848194e+05  -5.060811e+05
   8.778525e+05   2.002382e+05
   1.039963e+05   7.046622e+05
  -8.767774e+05   3.947649e+05
  -7.638007e+05  -4.340578e+05
   4.612591e+05  -9.070867e+05
   1.480701e+06  -4.338275e+05
   1.081932e+06   7.734907e+05
  -5.470190e+05   1.842676e+06
  -2.055981e+06   1.847487e+06
  -2.323006e+06   5.502403e+05
  -1.436547e+06  -1.247207e+06
  -3.516846e+05  -2.280809e+06
   1.897192e+05  -2.009849e+06
   2.609600e+05  -1.123644e+06
   4.007931e+05  -6.411589e+05
   8.854094e+05  -6.620924e+05
   1.420598e+06  -4.006910e+05
   1.458455e+06   5.496290e+05
   7.420402e+05   1.466356e+06
  -3.991994e+05   1.308954e+06
  -1.210155e+06   3.128873e+04
  -1.044757e+06  -1.271451e+06
   6.318200e+04  -1.494517e+06
   1.298101e+06  -5.589532e+05
   1.690069e+06   6.837010e+05
   1.007542e+06   1.348107e+06
  -2.327183e+04   1.226279e+06
  -5.263110e+05   7.686491e+05
  -4.540468e+05   5.235096e+05
  -5.483746e+05   5.918761e+05
  -1.274966e+06   5.660559e+05
  -2.049889e+06  -6.562934e+03
  -1.803009e+06  -1.075330e+06
  -2.804514e+05  -1.997389e+06
   1.476719e+06  -2.034040e+06
   2.101241e+06  -1.018585e+06
   1.255700e+06   3.943978e+05
  -9.383397e+04   1.187182e+06
  -7.061218e+05   8.502245e+05
  -2.416211e+05  -1.085832e+05
   5.798378e+05  -6.320615e+05
   8.434560e+05  -2.219645e+05
   3.455347e+05   5.074578e+05
  -3.138648e+05   5.707694e+05
  -4.066506e+05  -1.451614e+05
   2.060212e+05  -6.690791e+05
   9.481428e+05  -1.067802e+05
   1.034807e+06   1.212034e+06
   1.577687e+05   2.009150e+06
  -1.190549e+06   1.427341e+06
  -2.037821e+06  -9.565003e+04
  -1.716696e+06  -1.340704e+06
  -4.864999e+05  -1.505261e+06
   6.424489e+05  -8.161378e+05
   8.380923e+05  -1.140500e+05
   2.471232e+05   2.105673e+03
  -2.160535e+05  -3.550306e+05
   8.357140e+04  -6.071050e+05
   7.832453e+05  -3.517976e+05
   9.741865e+05   2.303538e+05
   3.100771e+05   5.844714e+05
  -5.284751e+05   3.707071e+05
  -5.733047e+05  -1.792760e+05
   3.226575e+05  -4.850347e+05
   1.261723e+06  -1.683226e+05
   1.219078e+06   5.916377e+05
   1.110515e+05   1.187238e+06
  -1.110367e+06   1.083178e+06
  -1.406294e+06   3.058048e+05
  -6.438802e+05  -5.122756e+05
   3.484037e+05  -6.771223e+05
   6.416484e+05  -1.282724e+05
   7.199594e+04   4.638916e+05
  -7.020691e+05   4.046514e+05
  -9.012108e+05  -2.561248e+05
  -3.524277e+05  -7.935580e+05
   4.062452e+05  -6.473702e+05
   6.725158e+05  -3.796282e+04
   2.556335e+05   3.328517e+05
  -3.343026e+05   8.086988e+04
  -3.872261e+05  -4.827130e+05
   2.602653e+05  -7.230035e+05
   9.980678e+05  -3.180578e+05
   1.043881e+06   4.607264e+05
   2.793515e+05   1.002049e+06
  -6.036808e+05   8.801051e+05
  -8.306346e+05   2.248903e+05
  -3.312105e+05  -3.854099e+05
   2.713891e+05  -4.583777e+05
   3.804210e+05  -5.529095e+04
   1.042461e+04   3.097376e+05
  -3.375986e+05   2.539328e+05
  -2.636613e+05  -6.020098e+04
   1.265532e+05  -1.542265e+05
   3.520090e+05   1.735086e+05
   5.199471e+04   5.827549e+05
  -6.166204e+05   5.434726e+05
  -1.066003e+06  -9.352045e+04
  -8.185029e+05  -9.040210e+05
   2.537874e+03  -1.255461e+06
   7.653403e+05  -8.732808e+05
   9.463908e+05  -8.402147e+04
   6.097238e+05   4.917781e+05
   2.360704e+05   5.156519e+05
   1.474917e+05   2.156920e+05
   2.046338e+05   8.288042e+04
   6.585305e+04   2.975662e+05
  -3.550330e+05   5.222566e+05
  -7.426506e+05   3.081063e+05
  -6.659816e+05  -3.353679e+05
  -9.513346e+03  -8.602730e+05
   8.335758e+05  -7.057966e+05
   1.207235e+06   1.176066e+05
   7.339616e+05   9.913100e+05
  -3.062755e+05   1.236049e+06
  -1.165242e+06   7.073347e+05
  -1.267954e+06  -1.197070e+05
  -6.934444e+05  -6.277437e+05
  -2.098168e+04  -6.152696e+05
   2.629726e+05  -3.956144e+05
   1.712583e+05  -3.719108e+05
   7.693747e+04  -5.640425e+05
   2.548206e+05  -6.036613e+05
   5.886443e+05  -1.920509e+05
   6.998999e+05   5.000705e+05
   3.503670e+05   9.430849e+05
  -2.688655e+05   7.554220e+05
  -6.631732e+05   7.513104e+04
  -4.970502e+05  -5.667900e+05
   5.737264e+04  -7.160943e+05
   4.793197e+05  -3.503546e+05
   4.305555e+05   1.728272e+05
   8.507488e+04   4.693914e+05
  -1.115398e+05   4.375283e+05
   2.625205e+04   2.648842e+05
   2.117687e+05   1.774406e+05
   3.365864e+04   2.028422e+05
  -5.282634e+05   1.756748e+05
  -9.998430e+05  -4.902307e+04
  -8.651882e+05  -4.107221e+05
  -1.205392e+05  -6.714352e+05
   6.648205e+05  -6.219489e+05
   8.827012e+05  -2.770167e+05
   4.726159e+05   1.110212e+05
  -6.551615e+04   2.516105e+05
  -2.299218e+05   8.280060e+04
  -4.243982e+03  -1.488064e+05
   2.440891e+05  -1.313938e+05
   2.456836e+05   1.532228e+05
   8.388976e+04   3.758518e+05
  -2.415768e+03   2.431367e+05
   7.365657e+04  -1.076686e+05
   1.891823e+05  -2.273982e+05
   1.682827e+05   9.670182e+04
  -6.403505e+04   5.347443e+05
  -4.072818e+05   5.687253e+05
  -5.969561e+05   9.924374e+04
  -3.841819e+05  -4.304637e+05
   1.615684e+05  -5.261870e+05
   5.722930e+05  -1.530206e+05
   3.849216e+05   2.835357e+05
  -3.086712e+05   3.752550e+05
  -8.455493e+05   6.312176e+04
  -6.512105e+05  -3.756973e+05
   1.286901e+05  -5.886262e+05
   7.644498e+05  -4.165112e+05
   7.070563e+05  -1.171192e+04
   1.297643e+05   2.751799e+05
  -3.120933e+05   2.013042e+05
  -1.848490e+05  -1.108984e+05
   3.121328e+05  -2.548777e+05
   6.000695e+05   4.822751e+04
   3.234338e+05   6.036542e+05
  -3.108687e+05   8.641320e+05
  -7.598295e+05   4.618110e+05
  -6.694018e+05  -3.655828e+05
  -1.655054e+05  -9.289297e+05
   3.307311e+05  -7.353656e+05
   4.990663e+05   7.485181e+03
   3.197824e+05   5.923104e+05
  -1.406568e+04   5.462719e+05
  -2.700639e+05   9.327945e+04
  -3.007848e+05  -1.880380e+05
  -1.387473e+05  -8.228480e+04
  -2.828027e+03   6.654868e+04
  -8.693061e+04  -1.056016e+05
  -2.756485e+05  -4.630088e+05
  -2.005258e+05  -5.617813e+05
   2.855399e+05  -2.454707e+05
   7.899201e+05   1.827523e+05
   7.506730e+05   3.817680e+05
   1.315063e+05   3.414659e+05
  -4.714181e+05   2.436295e+05
  -5.195722e+05   1.516567e+05
  -1.486056e+05   1.748492e+04
   8.491016e+04  -1.157739e+05
  -4.576082e+04  -1.368364e+05
  -2.001908e+05  -7.326423e+04
  -8.000668e+03  -7.055353e+04
   3.958748e+05  -1.215353e+05
   5.313110e+05  -1.392149e+04
   1.603264e+05   3.278161e+05
  -4.462142e+05   5.976326e+05
  -8.051733e+05   4.066145e+05
  -6.660816e+05  -2.027201e+05
  -1.674490e+05  -7.223738e+05
   3.293044e+05  -7.153897e+05
   5.184328e+05  -2.741528e+05
   3.530836e+05   1.296103e+05
   5.636112e+04   1.784173e+05
  -8.317095e+04   8.845177e+02
   2.376613e+04  -5.152617e+04
   1.951216e+05   1.621700e+05
   1.781441e+05   4.078937e+05
  -8.075739e+04   3.425594e+05
  -3.643152e+05  -7.820208e+04
  -3.765799e+05  -5.002676e+05
  -3.250498e+04  -5.171521e+05
   4.094627e+05  -9.807077e+04
   5.355400e+05   3.836360e+05
   1.798981e+05   5.430523e+05
  -3.504221e+05   3.313910e+05
  -5.495156e+05  -1.530452e+04
  -2.643452e+05  -2.589211e+05
   1.192022e+05  -3.094912e+05
   1.385855e+05  -1.917675e+05
  -1.743427e+05  -1.655413e+04
  -3.445578e+05   3.396601e+04
  -6.933893e+04  -1.429789e+05
   4.010967e+05  -3.826862e+05
   5.880770e+05  -3.573108e+05
   3.501049e+05   2.560811e+04
  -2.414437e+04   4.295800e+05
  -2.116534e+05   4.394153e+05
  -1.635052e+05   6.437828e+04
  -1.731208e+04  -2.627570e+05
   1.162219e+05  -2.049544e+05
   1.865298e+05   1.065187e+05
   1.425289e+05   2.891527e+05
  -2.307110e+04   1.811692e+05
  -1.993363e+05  -2.902208e+04
  -2.390693e+05  -9.785467e+04
  -1.280133e+05  -1.449295e+04
   2.069905e+03   4.148024e+04
   4.580978e+04  -5.027883e+04
   4.321920e+04  -2.062613e+05
   9.062921e+04  -2.331122e+05
   1.804351e+05  -4.280735e+04
   1.880186e+05   2.285441e+05
   2.482558e+04   3.308317e+05
  -2.201815e+05   1.523686e+05
  -3.199336e+05  -1.493296e+05
  -1.259807e+05  -3.024996e+05
   2.353783e+05  -1.979909e+05
   4.288287e+05   2.887586e+04
   2.447909e+05   1.790185e+05
  -1.367510e+05   1.822181e+05
  -3.071408e+05   9.792904e+04
  -9.357388e+04   1.184976e+04
   2.211361e+05  -9.209825e+03
   2.273167e+05   6.867239e+04
  -1.168670e+05   1.815701e+05
  -4.355991e+05   1.581642e+05
