
 $NMID
 id='ANONYMOUS ', fmtdat='(2E16.6)'
 volume=1.0
 tramp=1.0
 $END
  -2.586337e+07   8.516789e+05
  -1.823540e+07  -1.106310e+07
  -1.158178e+06  -1.643460e+07
   1.084512e+07  -1.206739e+07
   9.974472e+06  -2.022249e+06
   1.093000e+06   4.857989e+06
  -5.504644e+06   2.999761e+06
  -4.627086e+06  -4.140777e+06
   8.604519e+05  -7.827371e+06
   4.987793e+06  -3.761692e+06
   4.497558e+06   3.384190e+06
   6.639398e+05   5.739217e+06
  -2.609519e+06   1.165946e+06
  -2.210356e+06  -4.884831e+06
   1.439390e+06  -5.834327e+06
   4.564540e+06  -8.148111e+05
   3.629564e+06   5.164155e+06
  -9.120773e+05   6.772270e+06
  -4.961640e+06   3.313277e+06
  -5.105831e+06  -1.451283e+06
  -2.093031e+06  -3.574515e+06
   3.532973e+05  -2.638898e+06
  -2.217072e+05  -1.393475e+06
  -2.431211e+06  -2.179227e+06
  -2.677946e+06  -4.260610e+06
   8.330058e+05  -4.894758e+06
   5.753447e+06  -2.610601e+06
   7.512218e+06   1.139127e+06
   4.015876e+06   3.511304e+06
  -1.690196e+06   2.930268e+06
  -4.209377e+06   2.204174e+05
  -1.484438e+06  -2.253735e+06
   3.059102e+06  -2.341988e+06
   4.550929e+06   2.552245e+05
   2.032968e+06   3.426268e+06
  -1.186891e+06   4.182203e+06
  -1.941402e+06   1.654016e+06
  -4.817439e+05  -1.538462e+06
   7.970541e+05  -1.855973e+06
   4.654227e+05   1.006538e+06
  -9.443790e+05   3.494762e+06
  -2.111375e+06   2.364535e+06
  -2.024536e+06  -1.292141e+06
  -4.220301e+05  -3.269469e+06
   1.723650e+06  -1.269333e+06
   2.329075e+06   2.456816e+06
   4.790529e+04   3.830631e+06
  -3.634760e+06   1.436854e+06
  -5.158772e+06  -2.351141e+06
  -2.546171e+06  -4.188261e+06
   2.127545e+06  -2.904628e+06
   4.660722e+06  -2.926826e+04
   3.041988e+06   1.995147e+06
  -6.757168e+05   1.862693e+06
  -2.785852e+06   2.121099e+05
  -1.714981e+06  -1.147127e+06
   7.585683e+05  -9.218249e+05
   1.725595e+06   4.859002e+05
   2.649307e+05   1.461078e+06
  -1.701935e+06   8.849892e+05
  -1.628521e+06  -7.002234e+05
   7.028316e+05  -1.639004e+06
   2.749859e+06  -7.638774e+05
   1.945906e+06   1.500923e+06
  -1.398309e+06   3.394648e+06
  -4.375199e+06   3.170323e+06
  -4.591891e+06   5.789424e+05
  -2.461435e+06  -2.720397e+06
  -2.412768e+05  -4.471973e+06
   6.147057e+05  -3.883108e+06
   6.015010e+05  -2.263990e+06
   9.599837e+05  -1.346821e+06
   2.037324e+06  -1.214981e+06
   3.013970e+06  -4.841762e+05
   2.839488e+06   1.454699e+06
   1.213744e+06   3.147035e+06
  -1.067398e+06   2.617743e+06
  -2.505435e+06  -1.130589e+05
  -1.935144e+06  -2.736039e+06
   3.782937e+05  -2.984991e+06
   2.680114e+06  -8.487731e+05
   3.155204e+06   1.696701e+06
   1.630850e+06   2.798298e+06
  -3.139354e+05   2.274173e+06
  -1.105866e+06   1.287185e+06
  -8.775303e+05   9.066591e+05
  -1.108825e+06   1.103212e+06
  -2.569563e+06   9.561700e+05
  -4.020912e+06  -3.028598e+05
  -3.391495e+06  -2.388156e+06
  -2.567814e+05  -3.992813e+06
   3.251554e+06  -3.795559e+06
   4.361551e+06  -1.659916e+06
   2.437578e+06   1.031704e+06
  -4.210537e+05   2.374051e+06
  -1.590358e+06   1.574216e+06
  -4.753986e+05  -2.639375e+05
   1.257203e+06  -1.166997e+06
   1.698835e+06  -3.182136e+05
   5.912622e+05   1.054953e+06
  -7.221256e+05   1.112987e+06
  -8.300070e+05  -3.157124e+05
   4.212807e+05  -1.345731e+06
   1.854594e+06  -2.180188e+05
   1.963654e+06   2.437705e+06
   1.803525e+05   4.038418e+06
  -2.489173e+06   2.788715e+06
  -4.082599e+06  -4.045528e+05
  -3.300960e+06  -2.931814e+06
  -7.713535e+05  -3.104459e+06
   1.423699e+06  -1.528711e+06
   1.705328e+06  -8.497959e+04
   4.950097e+05   4.529146e+04
  -3.810006e+05  -7.305841e+05
   2.357715e+05  -1.173492e+06
   1.573998e+06  -5.820149e+05
   1.889433e+06   5.673985e+05
   5.577539e+05   1.181922e+06
  -1.079894e+06   6.788580e+05
  -1.134615e+06  -4.132001e+05
   6.731162e+05  -9.357559e+05
   2.535547e+06  -1.973726e+05
   2.382347e+06   1.338165e+06
   8.196751e+04   2.401334e+06
  -2.365370e+06   2.015009e+06
  -2.848046e+06   4.069250e+05
  -1.204007e+06  -1.104542e+06
   7.849428e+05  -1.275925e+06
   1.274752e+06  -1.546342e+05
   6.665293e+04   9.203522e+05
  -1.445058e+06   6.982440e+05
  -1.754926e+06  -6.244705e+05
  -6.135325e+05  -1.623046e+06
   8.731750e+05  -1.256165e+06
   1.347984e+06  -1.911167e+04
   4.943629e+05   6.791916e+05
  -6.420426e+05   1.195800e+05
  -6.804493e+05  -9.967755e+05
   6.275434e+05  -1.376746e+06
   2.021767e+06  -4.654417e+05
   1.991865e+06   1.076619e+06
   4.020145e+05   2.026040e+06
  -1.322851e+06   1.656915e+06
  -1.685950e+06   3.340513e+05
  -6.226695e+05  -8.095801e+05
   5.919129e+05  -8.845839e+05
   7.813915e+05  -6.754082e+04
   4.736202e+03   6.295993e+05
  -7.091483e+05   4.840581e+05
  -5.515942e+05  -1.472312e+05
   2.392601e+05  -3.062505e+05
   6.662425e+05   3.690033e+05
   2.610098e+04   1.147060e+06
  -1.296421e+06   9.789724e+05
  -2.093450e+06  -3.478897e+05
  -1.478593e+06  -1.917617e+06
   1.992933e+05  -2.500240e+06
   1.655549e+06  -1.641549e+06
   1.914032e+06  -4.083768e+04
   1.175198e+06   1.090272e+06
   4.116509e+05   1.114452e+06
   2.388971e+05   4.925754e+05
   3.528909e+05   1.958061e+05
   6.410594e+04   5.811725e+05
  -7.821875e+05   9.756550e+05
  -1.520746e+06   5.006441e+05
  -1.282582e+06  -7.759247e+05
   1.017051e+05  -1.725341e+06
   1.761105e+06  -1.280955e+06
   2.382185e+06   4.156299e+05
   1.316756e+06   2.067930e+06
  -7.715843e+05   2.394824e+06
  -2.397328e+06   1.238335e+06
  -2.506597e+06  -4.011762e+05
  -1.320427e+06  -1.342018e+06
   2.302692e+04  -1.251675e+06
   5.980832e+05  -7.803341e+05
   4.404897e+05  -7.205358e+05
   2.684125e+05  -1.090730e+06
   5.987520e+05  -1.140011e+06
   1.187877e+06  -2.805970e+05
   1.307486e+06   1.105930e+06
   5.479382e+05   1.929859e+06
  -6.532579e+05   1.461195e+06
  -1.329014e+06   5.577576e+04
  -9.033934e+05  -1.185593e+06
   2.041421e+05  -1.404885e+06
   9.734956e+05  -6.394353e+05
   8.120727e+05   3.725104e+05
   1.155514e+05   9.147506e+05
  -2.526786e+05   8.447074e+05
   3.024062e+04   5.412032e+05
   3.864343e+05   3.987903e+05
   2.769666e+04   4.132905e+05
  -1.063845e+06   2.625593e+05
  -1.955427e+06  -2.564192e+05
  -1.647749e+06  -9.384937e+05
  -1.524567e+05  -1.325743e+06
   1.392384e+06  -1.115086e+06
   1.782879e+06  -4.274579e+05
   9.212038e+05   2.610400e+05
  -1.634365e+05   4.716433e+05
  -4.581108e+05   1.361512e+05
   3.406245e+04  -2.840567e+05
   5.225356e+05  -2.198228e+05
   4.616962e+05   3.489162e+05
   8.504684e+04   7.770957e+05
  -6.368482e+04   4.927119e+05
   1.624223e+05  -2.158417e+05
   4.199812e+05  -4.426007e+05
   3.147375e+05   2.158149e+05
  -2.261908e+05   1.058960e+06
  -8.983403e+05   1.054072e+06
  -1.175581e+06   7.525427e+04
  -6.659102e+05  -9.256631e+05
   4.126617e+05  -9.969596e+05
   1.154515e+06  -1.839569e+05
   7.187091e+05   6.353179e+05
  -6.679013e+05   6.996720e+05
  -1.698637e+06   5.192933e+03
  -1.261983e+06  -8.363699e+05
   3.236131e+05  -1.161131e+06
   1.582436e+06  -7.394639e+05
   1.421882e+06   6.553898e+04
   2.281708e+05   5.690495e+05
  -6.447996e+05   3.622212e+05
  -3.403331e+05  -2.427794e+05
   6.738869e+05  -4.488373e+05
   1.188170e+06   2.085741e+05
   5.291332e+05   1.268200e+06
  -7.854766e+05   1.670301e+06
  -1.605958e+06   7.857836e+05
  -1.277216e+06  -8.466129e+05
  -1.780586e+05  -1.885287e+06
   7.740828e+05  -1.424415e+06
   9.917958e+05   7.942436e+04
   5.561850e+05   1.222917e+06
  -9.082715e+04   1.088476e+06
  -5.419400e+05   1.484309e+05
  -5.836709e+05  -4.197012e+05
  -2.811324e+05  -1.839933e+05
  -8.377065e+03   1.359699e+05
  -1.295369e+05  -2.207598e+05
  -4.660012e+05  -9.647378e+05
  -3.319277e+05  -1.148855e+06
   5.847451e+05  -4.399620e+05
   1.549618e+06   4.902931e+05
   1.453533e+06   8.753129e+05
   2.069832e+05   6.971337e+05
  -9.965604e+05   4.131645e+05
  -1.063871e+06   2.265609e+05
  -2.818431e+05   1.503521e+04
   1.949454e+05  -2.189241e+05
  -9.052311e+04  -2.838860e+05
  -4.095507e+05  -1.814551e+05
   3.817421e+03  -1.441204e+05
   8.325476e+05  -1.766452e+05
   1.059753e+06   6.615278e+04
   2.345080e+05   6.868901e+05
  -1.011343e+06   1.112899e+06
  -1.663914e+06   6.575364e+05
  -1.273237e+06  -5.358560e+05
  -2.066560e+05  -1.474137e+06
   7.722779e+05  -1.360938e+06
   1.082131e+06  -4.450564e+05
   6.875516e+05   3.264658e+05
   7.349107e+04   3.661722e+05
  -1.871245e+05  -1.793409e+04
   4.422845e+04  -1.095649e+05
   3.684212e+05   3.452658e+05
   2.959783e+05   8.376883e+05
  -2.217810e+05   6.661995e+05
  -7.211267e+05  -2.270215e+05
  -6.611284e+05  -1.076330e+06
   4.320205e+04  -1.042661e+06
   8.517843e+05  -1.134223e+05
   1.004180e+06   8.744998e+05
   2.541842e+05   1.116771e+06
  -7.630289e+05   5.882256e+05
  -1.084605e+06  -1.323687e+05
  -4.664148e+05  -5.506371e+05
   2.945014e+05  -5.773691e+05
   2.925650e+05  -3.483691e+05
  -3.657114e+05  -6.320238e+04
  -6.979178e+05   7.916488e+03
  -1.063374e+05  -2.958456e+05
   8.627349e+05  -6.981300e+05
   1.212047e+06  -6.212869e+05
   6.711360e+05   1.028662e+05
  -1.243462e+05   8.463220e+05
  -4.834128e+05   8.272948e+05
  -3.243547e+05   8.088881e+04
   1.655727e+04  -5.378170e+05
   2.736493e+05  -3.803955e+05
   3.609578e+05   2.594670e+05
   2.328698e+05   6.021024e+05
  -8.654995e+04   3.445393e+05
  -3.946403e+05  -9.848705e+04
  -4.505418e+05  -2.264825e+05
  -2.489001e+05  -4.098584e+04
  -1.557711e+04   7.348971e+04
   8.957611e+04  -1.179999e+05
   1.387788e+05  -4.226600e+05
   2.580175e+05  -4.445415e+05
   3.886156e+05  -3.004823e+04
   3.227575e+05   5.148152e+05
  -3.388716e+04   6.775299e+05
  -4.761571e+05   2.614686e+05
  -6.057218e+05  -3.670979e+05
  -1.937109e+05  -6.339103e+05
   4.990114e+05  -3.500784e+05
   8.431374e+05   1.413769e+05
   4.530810e+05   4.006458e+05
  -3.081398e+05   3.284072e+05
  -6.308325e+05   1.271736e+05
  -1.778126e+05   4.710742e+01
   4.648526e+05   2.431980e+04
   4.560622e+05   1.901852e+05
  -2.734611e+05   3.588031e+05
  -9.192615e+05   2.504098e+05
