
 $NMID
 id='ANONYMOUS ', fmtdat='(2E16.6)'
 volume=1.0
 tramp=1.0
 $END
  -1.003391e+07  -1.407944e+06
  -6.207587e+06  -5.245906e+06
   5.507740e+05  -6.224719e+06
   4.751399e+06  -4.051304e+06
   3.884190e+06  -3.822168e+05
   2.064352e+05   1.874992e+06
  -2.235330e+06   9.504077e+05
  -1.615009e+06  -1.778585e+06
   6.617462e+05  -3.022107e+06
   2.098862e+06  -1.238375e+06
   1.575438e+06   1.587550e+06
  -5.731547e+04   2.319597e+06
  -1.121246e+06   2.982730e+05
  -6.482975e+05  -2.090031e+06
   8.377182e+05  -2.250641e+06
   1.801790e+06  -9.120972e+04
   1.127274e+06   2.202865e+06
  -7.339087e+05   2.575555e+06
  -2.134575e+06   9.769342e+05
  -1.900747e+06  -9.234339e+05
  -5.362397e+05  -1.567210e+06
   3.924867e+05  -9.741587e+05
   5.986785e+03  -4.442437e+05
  -9.469476e+05  -9.178172e+05
  -9.488450e+05  -1.867296e+06
   5.776501e+05  -1.981538e+06
   2.501167e+06  -7.633449e+05
   2.992957e+06   8.869256e+05
   1.403549e+06   1.662563e+06
  -8.974605e+05   1.109279e+06
  -1.771819e+06  -1.422826e+05
  -5.192919e+05  -1.042650e+06
   1.371843e+06  -8.725418e+05
   1.888865e+06   2.935730e+05
   6.950417e+05   1.525735e+06
  -7.091233e+05   1.680333e+06
  -9.089309e+05   5.453216e+05
  -1.014783e+05  -7.206559e+05
   4.858319e+05  -7.309134e+05
   1.875016e+05   4.856069e+05
  -5.539994e+05   1.415580e+06
  -9.643091e+05   8.554187e+05
  -7.207637e+05  -5.978106e+05
  -1.240114e+04  -1.251863e+06
   6.702186e+05  -3.463287e+05
   7.049648e+05   1.084900e+06
  -2.131916e+05   1.447522e+06
  -1.500621e+06   3.279694e+05
  -1.918569e+06  -1.198713e+06
  -8.144574e+05  -1.781292e+06
   9.778757e+05  -1.058603e+06
   1.858753e+06   1.954341e+05
   1.125044e+06   9.205622e+05
  -3.409457e+05   6.884893e+05
  -1.093728e+06  -5.881785e+04
  -6.104646e+05  -5.262559e+05
   3.446002e+05  -3.140616e+05
   6.683570e+05   2.713230e+05
   7.346949e+04   5.876462e+05
  -6.749659e+05   3.083975e+05
  -6.174571e+05  -2.778107e+05
   3.036830e+05  -5.596016e+05
   1.074790e+06  -1.696604e+05
   6.698106e+05   6.684408e+05
  -7.563247e+05   1.275006e+06
  -1.948429e+06   1.041021e+06
  -1.888011e+06  -3.128149e+04
  -8.277758e+05  -1.253197e+06
   1.570289e+05  -1.813313e+06
   4.301790e+05  -1.512243e+06
   3.148256e+05  -8.882506e+05
   4.393589e+05  -5.421068e+05
   9.162267e+05  -4.369193e+05
   1.294769e+06  -5.602893e+04
   1.115021e+06   7.547905e+05
   3.506368e+05   1.371891e+06
  -5.691591e+05   1.040031e+06
  -1.034481e+06  -1.545550e+05
  -6.714321e+05  -1.211257e+06
   3.021664e+05  -1.202683e+06
   1.142729e+06  -2.017848e+05
   1.188300e+06   8.720790e+05
   4.857131e+05   1.227247e+06
  -2.752147e+05   8.816359e+05
  -5.165589e+05   4.259371e+05
  -3.813758e+05   2.989398e+05
  -4.838793e+05   3.896885e+05
  -1.075450e+06   2.672019e+05
  -1.606145e+06  -3.133919e+05
  -1.255860e+06  -1.128025e+06
   8.688940e+04  -1.630465e+06
   1.505560e+06  -1.386018e+06
   1.863171e+06  -4.614543e+05
   9.483165e+05   5.501484e+05
  -2.940442e+05   9.593258e+05
  -7.363078e+05   5.660937e+05
  -1.830742e+05  -1.355965e+05
   5.722645e+05  -4.146307e+05
   7.035727e+05  -4.274335e+04
   1.814064e+05   4.604417e+05
  -3.503971e+05   4.211778e+05
  -3.276548e+05  -1.598482e+05
   2.133712e+05  -5.262114e+05
   7.374526e+05  -2.510577e+04
   6.849071e+05   1.043495e+06
  -7.898340e+04   1.628725e+06
  -1.104133e+06   1.030799e+06
  -1.634089e+06  -3.283257e+05
  -1.221367e+06  -1.333819e+06
  -1.790707e+05  -1.301042e+06
   6.535501e+05  -5.573596e+05
   7.016343e+05   4.730161e+04
   1.989337e+05   4.206159e+04
  -1.198067e+05  -3.143778e+05
   1.520639e+05  -4.595082e+05
   6.617416e+05  -1.550866e+05
   7.322568e+05   3.183229e+05
   1.685607e+05   4.999250e+05
  -4.679521e+05   2.242382e+05
  -4.447401e+05  -2.172244e+05
   3.078001e+05  -3.520790e+05
   1.036456e+06   2.583713e+04
   9.145357e+05   6.459098e+05
  -6.821153e+04   9.810119e+05
  -1.051974e+06   7.126342e+05
  -1.175432e+06   3.251683e+04
  -4.330212e+05  -5.039303e+05
   3.819086e+05  -4.744117e+05
   5.210448e+05   4.131462e+03
  -2.232466e+04   3.768640e+05
  -6.200966e+05   2.124451e+05
  -6.808172e+05  -3.344777e+05
  -1.756443e+05  -6.832744e+05
   4.061445e+05  -4.692867e+05
   5.441036e+05   4.955974e+04
   1.706444e+05   2.934318e+05
  -2.628827e+05   1.616549e+04
  -2.268191e+05  -4.376873e+05
   3.226514e+05  -5.295196e+05
   8.453927e+05  -9.121969e+04
   7.574053e+05   5.340991e+05
   6.564487e+04   8.411997e+05
  -6.145451e+05   6.077990e+05
  -6.979115e+05   5.624385e+04
  -2.150553e+05  -3.555597e+05
   2.803290e+05  -3.311646e+05
   3.234756e+05   7.571664e+03
  -2.120634e+04   2.585779e+05
  -3.101345e+05   1.715427e+05
  -2.261018e+05  -7.984412e+04
   1.011922e+05  -1.159227e+05
   2.500967e+05   1.737283e+05
  -4.091175e+04   4.622933e+05
  -5.704921e+05   3.355667e+05
  -8.328288e+05  -2.401926e+05
  -5.086173e+05  -8.491618e+05
   1.989957e+05  -1.007231e+06
   7.477355e+05  -5.922652e+05
   7.803547e+05   6.810208e+04
   4.341988e+05   4.967535e+05
   1.238826e+05   4.787320e+05
   7.429148e+04   2.205931e+05
   1.271138e+05   9.933642e+04
  -5.508256e+03   2.364170e+05
  -3.613712e+05   3.585090e+05
  -6.397692e+05   1.350791e+05
  -4.889827e+05  -3.731932e+05
   1.163961e+05  -6.979668e+05
   7.736209e+05  -4.404937e+05
   9.489961e+05   2.792472e+05
   4.385397e+05   8.992952e+05
  -4.234846e+05   9.321642e+05
  -1.026955e+06   3.892224e+05
  -9.971056e+05  -2.757204e+05
  -4.785485e+05  -6.018726e+05
   6.054110e+04  -5.094014e+05
   2.790635e+05  -2.968912e+05
   2.203830e+05  -2.776543e+05
   1.681300e+05  -4.294840e+05
   2.993304e+05  -4.305438e+05
   4.948855e+05  -5.448530e+04
   4.781416e+05   5.129528e+05
   1.306275e+05   8.110838e+05
  -3.355408e+05   5.633322e+05
  -5.423294e+05  -3.922038e+04
  -3.100391e+05  -5.215839e+05
   1.468202e+05  -5.577321e+05
   4.185641e+05  -2.137905e+05
   3.061802e+05   1.845302e+05
   4.380189e+03   3.700051e+05
  -1.370160e+05   3.270098e+05
  -9.358222e+03   2.214039e+05
   1.382130e+05   1.824503e+05
  -8.540243e+03   1.703172e+05
  -4.423013e+05   5.510475e+04
  -7.788599e+05  -1.984344e+05
  -6.232213e+05  -4.579276e+05
   2.240633e+02  -5.405511e+05
   6.161241e+05  -3.822844e+05
   7.412132e+05  -8.996164e+04
   3.590228e+05   1.445100e+05
  -8.905020e+04   1.802827e+05
  -1.898098e+05   3.419765e+04
   3.108444e+04  -1.125009e+05
   2.248979e+05  -6.501284e+04
   1.705951e+05   1.643554e+05
  -4.684173e+03   3.238151e+05
  -5.207863e+04   2.002970e+05
   7.451470e+04  -8.252130e+04
   1.915532e+05  -1.649895e+05
   1.179688e+05   1.016856e+05
  -1.427450e+05   4.222382e+05
  -4.156740e+05   3.850094e+05
  -4.797756e+05  -3.095729e+04
  -2.230842e+05  -4.116424e+05
   2.180404e+05  -3.826846e+05
   4.788738e+05  -1.473056e+04
   2.624117e+05   2.939608e+05
  -3.033011e+05   2.524975e+05
  -6.903945e+05  -7.543299e+04
  -4.766904e+05  -3.949696e+05
   1.809935e+05  -4.562737e+05
   6.749115e+05  -2.308299e+05
   5.755533e+05   8.896435e+04
   6.814573e+04   2.413401e+05
  -2.774942e+05   1.178303e+05
  -1.248636e+05  -1.148729e+05
   2.983456e+05  -1.503804e+05
   4.752608e+05   1.440101e+05
   1.531521e+05   5.449705e+05
  -4.035566e+05   6.440411e+05
  -6.943649e+05   2.426086e+05
  -4.803240e+05  -4.065323e+05
   1.685978e+04  -7.766611e+05
   3.809755e+05  -5.445551e+05
   3.984505e+05   7.678692e+04
   1.701667e+05   5.216580e+05
  -8.442303e+04   4.375623e+05
  -2.256625e+05   3.510411e+04
  -2.200037e+05  -1.970221e+05
  -1.085050e+05  -8.682840e+04
  -8.384313e+03   5.480091e+04
  -3.772521e+04  -9.746009e+04
  -1.421036e+05  -4.151444e+05
  -8.369185e+04  -4.812101e+05
   2.553418e+05  -1.489226e+05
   6.078704e+05   2.726407e+05
   5.524779e+05   4.227171e+05
   5.098375e+04   2.926757e+05
  -4.275562e+05   1.226845e+05
  -4.437124e+05   4.334928e+04
  -1.123356e+05  -7.708893e+03
   9.081486e+04  -8.041686e+04
  -2.714586e+04  -1.186396e+05
  -1.622252e+05  -9.216327e+04
   9.298025e+03  -5.969163e+04
   3.512494e+05  -3.404000e+04
   4.287309e+05   7.866727e+04
   5.824499e+04   2.942882e+05
  -4.690797e+05   4.056549e+05
  -7.089604e+05   1.843692e+05
  -4.909126e+05  -2.838705e+05
  -1.304798e+04  -6.115743e+05
   3.796591e+05  -5.155424e+05
   4.636260e+05  -1.275616e+05
   2.662085e+05   1.669246e+05
   1.120687e+04   1.537157e+05
  -7.922074e+04  -1.553423e+04
   2.058178e+04  -4.345497e+04
   1.339358e+05   1.561464e+05
   8.149222e+04   3.541498e+05
  -1.233213e+05   2.606139e+05
  -2.850784e+05  -1.282613e+05
  -2.178120e+05  -4.732977e+05
   7.076110e+04  -4.251149e+05
   3.563703e+05  -4.409494e+03
   3.684756e+05   4.074521e+05
   4.811838e+04   4.685246e+05
  -3.412616e+05   2.014657e+05
  -4.348193e+05  -1.079393e+05
  -1.603353e+05  -2.463322e+05
   1.497715e+05  -2.185140e+05
   1.343243e+05  -1.252015e+05
  -1.490722e+05  -4.187521e+04
  -2.855775e+05  -3.002021e+04
  -2.786579e+04  -1.259299e+05
   3.844968e+05  -2.432327e+05
   5.196668e+05  -1.946247e+05
   2.642513e+05   7.457939e+04
  -9.238355e+04   3.379745e+05
  -2.354961e+05   3.107384e+05
  -1.353504e+05   1.339986e+04
   3.282874e+04  -2.204126e+05
   1.314054e+05  -1.409716e+05
   1.367430e+05   1.249259e+05
   6.567684e+04   2.568181e+05
  -5.426179e+04   1.348443e+05
  -1.568281e+05  -6.007442e+04
  -1.704366e+05  -1.131798e+05
  -9.807407e+04  -2.737853e+04
  -1.255646e+04   2.861991e+04
   3.872630e+04  -4.707838e+04
   7.836453e+04  -1.697215e+05
   1.328453e+05  -1.705183e+05
   1.648720e+05   8.901619e+03
   1.064599e+05   2.304761e+05
  -4.973181e+04   2.784085e+05
  -2.086317e+05   8.364774e+04
  -2.290940e+05  -1.814641e+05
  -4.819996e+04  -2.694637e+05
   2.197967e+05  -1.176541e+05
   3.363674e+05   1.003516e+05
   1.647166e+05   1.856902e+05
  -1.429217e+05   1.173857e+05
  -2.644868e+05   1.894873e+04
  -7.113536e+04  -1.054258e+04
   1.922041e+05   3.163338e+04
   1.799090e+05   1.008505e+05
  -1.291300e+05   1.363094e+05
  -3.897058e+05   6.080980e+04
