
 $NMID
 id='ANONYMOUS ', fmtdat='(2E16.6)'
 volume=1.0
 tramp=1.0
 $END
   5.844754e+07  -2.003371e+06
   3.640552e+07   3.540453e+07
  -6.617079e+06   4.006653e+07
  -2.841468e+07   1.588735e+07
  -1.738036e+07  -7.139547e+06
   3.288281e+06  -9.860055e+06
   1.029405e+07   1.194840e+06
   3.013772e+06   1.017436e+07
  -6.355042e+06   9.728804e+06
  -9.998113e+06   2.202864e+06
  -7.375638e+06  -6.177084e+06
  -1.086915e+06  -8.773336e+06
   3.974276e+06  -2.982859e+06
   2.771754e+06   5.397180e+06
  -3.787866e+06   6.729147e+06
  -8.198642e+06  -1.238046e+06
  -4.848864e+06  -1.044866e+07
   3.604078e+06  -1.231171e+07
   1.026941e+07  -6.446416e+06
   1.126534e+07   1.695401e+06
   7.218540e+06   7.477007e+06
   1.145374e+06   9.024438e+06
  -2.858388e+06   6.558424e+06
  -2.108104e+06   2.926466e+06
   9.374839e+05   2.036949e+06
   3.779554e+05   4.060858e+06
  -5.213777e+06   4.593432e+06
  -9.719868e+06   8.691459e+05
  -7.348892e+06  -3.919568e+06
  -5.744174e+05  -5.127315e+06
   3.530612e+06  -2.791588e+06
   2.455030e+06  -2.687977e+05
  -4.581658e+05   7.513546e+05
  -2.072209e+06   4.998660e+05
  -2.157983e+06  -1.241861e+06
  -8.932855e+05  -3.828834e+06
   1.639893e+06  -4.039039e+06
   3.380263e+06  -1.643414e+05
   2.025471e+06   3.632807e+06
  -6.518171e+05   2.159697e+06
  -4.399076e+05  -2.322670e+06
   2.445430e+06  -2.351289e+06
   2.603301e+06   3.267353e+06
  -2.413981e+06   6.476052e+06
  -7.302870e+06   1.309984e+06
  -5.593871e+06  -7.040404e+06
   1.729351e+06  -8.952043e+06
   7.607107e+06  -2.749786e+06
   7.220466e+06   4.410833e+06
   1.962500e+06   6.154057e+06
  -3.531142e+06   2.806112e+06
  -5.383835e+06  -1.526125e+06
  -2.499485e+06  -3.577397e+06
   2.483059e+06  -2.329900e+06
   4.705606e+06   8.573017e+05
   2.076189e+06   2.787103e+06
  -1.740053e+06   1.467669e+06
  -1.780255e+06  -1.034047e+06
   1.434225e+06  -9.650081e+05
   2.661939e+06   1.862062e+06
  -6.039700e+05   3.723766e+06
  -4.853717e+06   2.147696e+06
  -5.582472e+06  -1.316044e+06
  -2.504019e+06  -4.095752e+06
   1.676284e+06  -5.440840e+06
   4.913449e+06  -5.066434e+06
   6.234658e+06  -1.990598e+06
   4.800260e+06   3.032904e+06
   1.162015e+06   6.252319e+06
  -1.836685e+06   4.917648e+06
  -1.869583e+06   1.228823e+06
  -1.819858e+05  -3.898363e+05
   1.752290e+05   8.817004e+05
  -1.427788e+06   1.852994e+06
  -2.747618e+06   4.044897e+05
  -2.078165e+06  -1.785294e+06
  -1.231710e+05  -2.078844e+06
   1.477290e+06  -2.212828e+05
   1.679288e+06   2.018696e+06
   8.001755e+04   2.929065e+06
  -2.722163e+06   1.768351e+06
  -4.577898e+06  -1.031845e+06
  -3.443084e+06  -3.721734e+06
  -1.293639e+05  -4.366853e+06
   2.264987e+06  -2.909970e+06
   2.309091e+06  -1.247595e+06
   1.898681e+06  -7.139988e+05
   2.995121e+06  -5.082938e+05
   4.426140e+06   7.187733e+05
   3.571323e+06   2.753364e+06
   1.904534e+05   4.166913e+06
  -3.161442e+06   3.981676e+06
  -4.138342e+06   2.227673e+06
  -2.674584e+06  -3.266600e+05
  -3.602931e+05  -2.208801e+06
   1.026051e+06  -1.975742e+06
   5.662361e+05   3.839053e+03
  -1.056420e+06   1.341235e+06
  -1.928038e+06   4.485407e+05
  -9.809654e+05  -1.197448e+06
   4.859672e+05  -1.125048e+06
   4.087718e+05   4.060143e+05
  -1.139436e+06   6.938140e+05
  -1.950123e+06  -1.386760e+06
  -6.422375e+05  -3.639359e+06
   1.717037e+06  -3.484750e+06
   3.268510e+06  -1.062098e+06
   3.338416e+06   1.522990e+06
   2.245295e+06   2.779573e+06
   4.488140e+05   2.599677e+06
  -1.219456e+06   1.483608e+06
  -1.574414e+06   2.609452e+05
  -4.992385e+05  -3.908370e+04
   3.716603e+05   7.571818e+05
  -4.067252e+05   1.382868e+06
  -1.948604e+06   6.263672e+05
  -2.095040e+06  -8.892848e+05
  -4.053338e+05  -1.453729e+06
   1.187898e+06  -5.876844e+05
   8.825071e+05   4.613522e+05
  -8.864260e+05   5.036517e+05
  -2.197555e+06  -3.600606e+05
  -1.721779e+06  -1.377858e+06
   2.750821e+05  -1.969401e+06
   2.322305e+06  -1.667651e+06
   2.801330e+06  -2.996258e+05
   1.258583e+06   1.277904e+06
  -9.111056e+05   1.560968e+06
  -1.602033e+06   2.310525e+05
  -2.396611e+05  -1.099696e+06
   1.529597e+06  -7.742736e+05
   1.753632e+06   7.844777e+05
   3.382743e+05   1.682962e+06
  -1.125633e+06   9.849535e+05
  -1.281579e+06  -3.358352e+05
  -2.384402e+05  -8.076908e+05
   8.230695e+05  -6.481718e+04
   7.670953e+05   1.060289e+06
  -5.571086e+05   1.452430e+06
  -2.021805e+06   5.845642e+05
  -2.080758e+06  -1.030942e+06
  -4.183178e+05  -2.103078e+06
   1.449445e+06  -1.688914e+06
   1.756685e+06  -2.263212e+05
   5.115693e+05   8.839586e+05
  -6.657240e+05   8.169866e+05
  -6.232745e+05   8.219215e+04
   1.403942e+05  -3.409495e+05
   4.823581e+05  -1.771459e+05
   7.352839e+04   7.420491e+04
  -4.950455e+05  -1.059963e+05
  -5.296833e+05  -7.148780e+05
   2.187812e+05  -1.220112e+06
   1.402678e+06  -9.195025e+05
   2.116602e+06   3.999392e+05
   1.510821e+06   1.953251e+06
  -1.909525e+05   2.448679e+06
  -1.621890e+06   1.427025e+06
  -1.696256e+06  -1.321418e+05
  -8.391223e+05  -8.885836e+05
  -3.017878e+05  -6.098112e+05
  -5.016138e+05  -1.765995e+05
  -6.742270e+05  -3.114743e+05
  -1.120541e+05  -7.933415e+05
   8.909414e+05  -9.202559e+05
   1.463427e+06  -3.241173e+05
   1.044456e+06   7.232811e+05
  -2.629743e+05   1.458933e+06
  -1.735407e+06   1.083678e+06
  -2.271724e+06  -4.733976e+05
  -1.157186e+06  -2.123418e+06
   1.019255e+06  -2.416580e+06
   2.586772e+06  -1.061867e+06
   2.383640e+06   6.714443e+05
   9.452750e+05   1.357478e+06
  -2.290793e+05   9.333829e+05
  -3.745614e+05   4.830818e+05
  -2.609501e+04   7.535072e+05
  -5.845482e+04   1.343985e+06
  -6.630586e+05   1.335209e+06
  -1.316856e+06   3.501392e+05
  -1.373575e+06  -1.071020e+06
  -5.913957e+05  -1.907020e+06
   6.062512e+05  -1.461219e+06
   1.299528e+06  -7.650890e+03
   8.341528e+05   1.303910e+06
  -3.982162e+05   1.426367e+06
  -1.203674e+06   4.070988e+05
  -8.441528e+05  -7.336078e+05
   1.316543e+05  -1.119869e+06
   5.686425e+05  -8.034809e+05
   9.864335e+04  -4.123354e+05
  -4.475874e+05  -3.249807e+05
  -6.890880e+04  -3.832365e+05
   1.173939e+06  -2.261230e+05
   2.111947e+06   3.126084e+05
   1.653898e+06   1.040588e+06
  -3.689282e+04   1.475098e+06
  -1.617201e+06   1.189719e+06
  -1.863935e+06   2.916423e+05
  -8.501889e+05  -5.208368e+05
   2.647493e+05  -5.965721e+05
   5.289991e+05  -3.079377e+04
   5.100581e+04   4.419969e+05
  -4.336566e+05   2.715364e+05
  -4.966108e+05  -3.375132e+05
  -2.891665e+05  -7.157167e+05
  -1.261750e+05  -4.764208e+05
  -1.395720e+05   8.086113e+04
  -2.657519e+05   2.742846e+05
  -2.775679e+05  -2.361750e+05
   1.199457e+05  -9.894708e+05
   8.951817e+05  -1.096390e+06
   1.400519e+06  -2.203034e+05
   9.048394e+05   9.048709e+05
  -3.972640e+05   1.182827e+06
  -1.279271e+06   3.894856e+05
  -7.539345e+05  -5.593723e+05
   7.092792e+05  -6.629431e+05
   1.600778e+06   9.221399e+04
   9.962299e+05   8.750604e+05
  -5.076809e+05   9.914832e+05
  -1.511307e+06   4.650362e+05
  -1.229803e+06  -2.022226e+05
  -1.270563e+05  -5.148932e+05
   6.594666e+05  -2.686434e+05
   4.040465e+05   2.987555e+05
  -5.670293e+05   5.493994e+05
  -1.197228e+06  -3.879172e+04
  -7.256609e+05  -1.166559e+06
   5.305436e+05  -1.740078e+06
   1.465492e+06  -9.426092e+05
   1.284624e+06   7.306903e+05
   2.407596e+05   1.800483e+06
  -7.286688e+05   1.304579e+06
  -9.360173e+05  -1.845424e+05
  -4.343228e+05  -1.204438e+06
   2.370812e+05  -9.715632e+05
   5.772983e+05  -8.318505e+04
   4.552802e+05   3.723259e+05
   1.425666e+05   1.322127e+05
   5.772741e+04  -9.130550e+04
   3.247887e+05   3.046679e+05
   5.462209e+05   9.728179e+05
   1.815511e+05   1.085695e+06
  -7.499849e+05   4.113556e+05
  -1.493947e+06  -4.434696e+05
  -1.280329e+06  -8.273506e+05
  -1.968123e+05  -7.096179e+05
   8.288512e+05  -4.392995e+05
   9.832933e+05  -1.911830e+05
   3.899915e+05   5.946698e+04
  -1.318556e+05   2.325255e+05
  -6.556835e+04   1.968878e+05
   2.332833e+05   7.641413e+04
   6.692996e+04   1.296438e+05
  -6.253944e+05   2.618996e+05
  -1.062389e+06   2.409101e+04
  -5.067285e+05  -6.894522e+05
   7.867976e+05  -1.229550e+06
   1.722625e+06  -8.368312e+05
   1.481261e+06   3.753284e+05
   3.274837e+05   1.408491e+06
  -7.502150e+05   1.425251e+06
  -1.046604e+06   5.965418e+05
  -6.615364e+05  -1.985242e+05
  -1.605498e+05  -3.580045e+05
   3.495736e+04  -8.694598e+04
  -9.680607e+04  -4.635084e+03
  -2.975189e+05  -3.780801e+05
  -2.559401e+05  -8.138893e+05
   1.546054e+05  -6.995107e+05
   6.823649e+05   7.882156e+04
   7.947064e+05   9.143215e+05
   1.895404e+05   1.040304e+06
  -7.278051e+05   3.071591e+05
  -1.077576e+06  -6.631161e+05
  -4.103304e+05  -1.092197e+06
   6.926518e+05  -7.348138e+05
   1.152518e+06   2.937172e+04
   5.809056e+05   6.281239e+05
  -2.694437e+05   7.301175e+05
  -4.037171e+05   3.952877e+05
   2.147483e+05  -7.731170e+03
   6.468107e+05  -6.364131e+04
   1.705101e+05   3.130873e+05
  -8.166203e+05   7.067200e+05
  -1.292518e+06   5.606499e+05
  -8.154721e+05  -1.810386e+05
   6.685382e+04  -8.969875e+05
   5.630928e+05  -9.015134e+05
   4.588922e+05  -2.065343e+05
   8.647334e+04   4.667549e+05
  -2.198874e+05   4.671057e+05
  -3.556072e+05  -1.061189e+05
  -2.804120e+05  -5.749147e+05
   2.786198e+04  -4.631367e+05
   3.972056e+05   1.825320e+04
   5.044793e+05   2.907323e+05
   2.512519e+05   1.104721e+05
  -5.889645e+04  -1.747879e+05
  -9.158500e+04  -9.448216e+04
   6.692541e+04   3.312864e+05
   3.649824e+04   5.879326e+05
  -2.882594e+05   2.900701e+05
  -5.164846e+05  -3.244372e+05
  -2.389601e+05  -6.390263e+05
   3.840849e+05  -3.469946e+05
   7.024002e+05   2.358501e+05
   2.922562e+05   5.567547e+05
  -5.114476e+05   3.933515e+05
  -9.150690e+05  -2.916059e+04
  -5.080884e+05  -3.643325e+05
   2.811030e+05  -4.411024e+05
   6.453318e+05  -2.854781e+05
   2.795684e+05  -3.565942e+04
  -3.071998e+05   1.049693e+05
  -3.958796e+05  -1.318938e+04
   1.314069e+05  -2.741564e+05
   6.918607e+05  -2.966694e+05
