
 $NMID
 id='ANONYMOUS ', fmtdat='(2E16.6)'
 volume=1.0
 tramp=1.0
 $END
   1.748952e+07  -5.074567e+03
   1.181552e+07   8.203028e+06
   7.402210e+04   1.115047e+07
  -7.625191e+06   7.477878e+06
  -6.498626e+06   7.861190e+05
  -4.465864e+05  -3.201855e+06
   3.626012e+06  -1.634438e+06
   2.755283e+06   2.855635e+06
  -8.392757e+05   4.934887e+06
  -3.344777e+06   2.216484e+06
  -2.874245e+06  -2.297218e+06
  -3.514027e+05  -3.727091e+06
   1.709287e+06  -7.595689e+05
   1.345369e+06   3.119253e+06
  -1.066430e+06   3.668776e+06
  -3.000003e+06   3.584938e+05
  -2.233335e+06  -3.497625e+06
   7.897804e+05  -4.444128e+06
   3.383033e+06  -2.112714e+06
   3.427779e+06   1.025418e+06
   1.436781e+06   2.457964e+06
  -2.471906e+05   1.901120e+06
  -2.336607e+04   1.042413e+06
   1.345467e+06   1.396679e+06
   1.597284e+06   2.630070e+06
  -5.349427e+05   3.058597e+06
  -3.656528e+06   1.650870e+06
  -4.813709e+06  -7.535951e+05
  -2.600704e+06  -2.295680e+06
   1.035589e+06  -1.913051e+06
   2.645050e+06  -1.797960e+05
   9.584144e+05   1.356037e+06
  -1.850973e+06   1.403202e+06
  -2.785021e+06  -1.655561e+05
  -1.271149e+06  -2.103925e+06
   7.100544e+05  -2.627887e+06
   1.246320e+06  -1.113525e+06
   4.029312e+05   9.313482e+05
  -4.368527e+05   1.243099e+06
  -3.141891e+05  -5.295526e+05
   5.774751e+05  -2.162517e+06
   1.371605e+06  -1.465549e+06
   1.265813e+06   9.095352e+05
   9.919076e+04   2.153900e+06
  -1.300450e+06   7.334142e+05
  -1.514394e+06  -1.768143e+06
   1.253981e+05  -2.583973e+06
   2.463500e+06  -8.753319e+05
   3.281256e+06   1.636304e+06
   1.519630e+06   2.736629e+06
  -1.421823e+06   1.790144e+06
  -2.949633e+06  -9.603382e+04
  -1.864913e+06  -1.338808e+06
   5.088725e+05  -1.161970e+06
   1.812310e+06  -4.878091e+04
   1.066648e+06   7.966964e+05
  -5.248892e+05   5.788118e+05
  -1.077506e+06  -3.432291e+05
  -9.584639e+04  -8.873936e+05
   1.090438e+06  -4.331756e+05
   9.113660e+05   5.443287e+05
  -6.148929e+05   1.006415e+06
  -1.827220e+06   3.537716e+05
  -1.209691e+06  -1.066198e+06
   9.472057e+05  -2.200399e+06
   2.832270e+06  -2.018354e+06
   2.975699e+06  -3.517980e+05
   1.604579e+06   1.774254e+06
   1.220742e+05   2.893852e+06
  -4.799466e+05   2.469420e+06
  -4.383694e+05   1.378102e+06
  -5.793560e+05   7.892549e+05
  -1.221676e+06   7.517809e+05
  -1.864929e+06   3.297197e+05
  -1.785706e+06  -8.865247e+05
  -7.687197e+05  -1.956568e+06
   6.565390e+05  -1.625556e+06
   1.541566e+06   8.168700e+04
   1.182612e+06   1.718447e+06
  -2.560046e+05   1.877219e+06
  -1.707273e+06   5.360602e+05
  -2.026552e+06  -1.093277e+06
  -1.055768e+06  -1.830670e+06
   2.233203e+05  -1.510307e+06
   7.668374e+05  -8.505822e+05
   6.191430e+05  -5.651289e+05
   7.387238e+05  -6.638188e+05
   1.645315e+06  -5.532110e+05
   2.546278e+06   2.570474e+05
   2.116558e+06   1.561109e+06
   1.111094e+05   2.527798e+06
  -2.095123e+06   2.364348e+06
  -2.767109e+06   1.019089e+06
  -1.537935e+06  -6.549397e+05
   2.644126e+05  -1.491621e+06
   1.001746e+06  -9.923406e+05
   2.988213e+05   1.625651e+05
  -8.005786e+05   7.267110e+05
  -1.081131e+06   1.823930e+05
  -3.716169e+05  -6.783320e+05
   4.576325e+05  -6.922154e+05
   4.999808e+05   2.094134e+05
  -3.034049e+05   8.114270e+05
  -1.161599e+06   5.382394e+04
  -1.152032e+06  -1.593665e+06
  -3.423224e+03  -2.512856e+06
   1.616469e+06  -1.661502e+06
   2.535892e+06   3.352545e+05
   2.012749e+06   1.872231e+06
   4.434611e+05   1.946578e+06
  -9.078402e+05   9.490397e+05
  -1.072753e+06   4.257160e+04
  -3.118632e+05  -3.317391e+04
   2.299096e+05   4.660316e+05
  -1.715614e+05   7.419591e+05
  -1.012426e+06   3.452552e+05
  -1.186683e+06  -3.932785e+05
  -3.276954e+05  -7.575922e+05
   6.916708e+05  -4.073122e+05
   6.980309e+05   2.756828e+05
  -4.432413e+05   5.640405e+05
  -1.586553e+06   7.500571e+04
  -1.462448e+06  -8.696255e+05
  -1.312619e+04  -1.497200e+06
   1.511427e+06  -1.230696e+06
   1.797796e+06  -2.203569e+05
   7.464320e+05   7.158246e+05
  -5.160633e+05   8.032912e+05
  -8.163412e+05   8.266988e+04
  -3.475799e+04  -5.875914e+05
   9.227834e+05  -4.238819e+05
   1.096642e+06   4.202411e+05
   3.567048e+05   1.028993e+06
  -5.712441e+05   7.679837e+05
  -8.424249e+05  -1.669507e+04
  -2.908274e+05  -4.348886e+05
   4.133770e+05  -6.093161e+04
   4.185338e+05   6.427206e+05
  -4.129460e+05   8.652053e+05
  -1.283812e+06   2.731675e+05
  -1.247769e+06  -7.026152e+05
  -2.295213e+05  -1.285570e+06
   8.580222e+05  -1.029350e+06
   1.067313e+06  -1.872750e+05
   3.772839e+05   5.174124e+05
  -3.853836e+05   5.455025e+05
  -4.857074e+05   3.425254e+04
   1.013814e+04  -3.846350e+05
   4.437204e+05  -2.856902e+05
   3.285803e+05   9.461019e+04
  -1.628033e+05   1.736591e+05
  -4.099263e+05  -2.534847e+05
   6.689974e+03  -7.266477e+05
   8.342644e+05  -6.003739e+05
   1.318407e+06   2.466143e+05
   9.119391e+05   1.229592e+06
  -1.535520e+05   1.573467e+06
  -1.059662e+06   1.008721e+06
  -1.198112e+06  -2.076855e+02
  -7.187151e+05  -6.894772e+05
  -2.484086e+05  -6.867736e+05
  -1.590600e+05  -3.037510e+05
  -2.329618e+05  -1.357082e+05
  -3.476335e+04  -3.777684e+05
   5.090365e+05  -6.057524e+05
   9.641602e+05  -2.932752e+05
   7.942082e+05   5.012575e+05
  -8.779867e+04   1.078000e+06
  -1.125223e+06   7.817336e+05
  -1.494987e+06  -2.916126e+05
  -7.998290e+05  -1.321753e+06
   5.255432e+05  -1.500827e+06
   1.533145e+06  -7.445261e+05
   1.569305e+06   2.916505e+05
   8.024559e+05   8.588751e+05
  -3.426735e+04   7.749849e+05
  -3.749333e+05   4.760093e+05
  -2.701912e+05   4.547916e+05
  -1.757478e+05   6.969944e+05
  -3.950889e+05   7.194538e+05
  -7.585016e+05   1.648123e+05
  -8.150905e+05  -7.123133e+05
  -3.250806e+05  -1.223578e+06
   4.273903e+05  -9.145433e+05
   8.373873e+05  -1.761478e+04
   5.520777e+05   7.630013e+05
  -1.532652e+05   8.831310e+05
  -6.289092e+05   3.804169e+05
  -5.061405e+05  -2.596995e+05
  -5.020130e+04  -5.847664e+05
   1.820787e+05  -5.253248e+05
  -8.889082e+03  -3.350429e+05
  -2.432999e+05  -2.536613e+05
  -1.525791e+04  -2.608586e+05
   6.792153e+05  -1.514486e+05
   1.238147e+06   1.882653e+05
   1.028552e+06   6.160373e+05
   7.089092e+04   8.429413e+05
  -9.021003e+05   6.883227e+05
  -1.131795e+06   2.425756e+05
  -5.724823e+05  -1.855257e+05
   1.140082e+05  -3.001927e+05
   2.928368e+05  -7.576517e+04
  -2.196163e+04   1.866881e+05
  -3.285751e+05   1.366406e+05
  -2.893887e+05  -2.248131e+05
  -5.467194e+04  -4.908782e+05
   3.746566e+04  -3.113380e+05
  -1.028502e+05   1.294362e+05
  -2.628334e+05   2.690954e+05
  -1.954442e+05  -1.413134e+05
   1.497527e+05  -6.653437e+05
   5.805781e+05  -6.574322e+05
   7.549979e+05  -3.752422e+04
   4.203291e+05   5.939985e+05
  -2.733603e+05   6.329405e+05
  -7.384892e+05   1.106660e+05
  -4.489451e+05  -4.061913e+05
   4.307187e+05  -4.323154e+05
   1.067255e+06   1.875093e+04
   7.758528e+05   5.412231e+05
  -2.233236e+05   7.206226e+05
  -1.001665e+06   4.380983e+05
  -8.874451e+05  -6.154650e+04
  -1.337412e+05  -3.584978e+05
   4.108069e+05  -2.168030e+05
   2.138334e+05   1.604420e+05
  -4.273454e+05   2.807858e+05
  -7.497264e+05  -1.384422e+05
  -3.288091e+05  -8.042811e+05
   5.045251e+05  -1.050880e+06
   1.017988e+06  -4.860447e+05
   7.981346e+05   5.437035e+05
   9.481150e+04   1.188980e+06
  -5.015647e+05   8.857696e+05
  -6.218230e+05  -6.542064e+04
  -3.320115e+05  -7.764868e+05
   7.529458e+04  -6.795713e+05
   3.449925e+05  -8.406262e+04
   3.585101e+05   2.685463e+05
   1.696417e+05   1.158588e+05
   8.381827e+03  -8.316919e+04
   8.675300e+04   1.465755e+05
   2.863506e+05   6.153764e+05
   1.904033e+05   7.244331e+05
  -3.809393e+05   2.679832e+05
  -9.705345e+05  -3.244366e+05
  -9.005739e+05  -5.651611e+05
  -1.222913e+05  -4.430153e+05
   6.267109e+05  -2.525055e+05
   6.703439e+05  -1.302294e+05
   1.821321e+05  -1.969345e+03
  -1.227529e+05   1.370748e+05
   4.827348e+04   1.748508e+05
   2.499750e+05   1.131519e+05
  -1.008137e+03   9.136701e+04
  -5.196654e+05   1.078411e+05
  -6.693030e+05  -5.016844e+04
  -1.519608e+05  -4.392413e+05
   6.424828e+05  -6.982609e+05
   1.062175e+06  -4.033020e+05
   8.084237e+05   3.478237e+05
   1.196968e+05   9.313641e+05
  -5.028776e+05   8.535298e+05
  -6.885220e+05   2.755530e+05
  -4.305929e+05  -2.083967e+05
  -4.589926e+04  -2.327692e+05
   1.125163e+05   7.346917e+03
  -3.034392e+04   6.317256e+04
  -2.251773e+05  -2.230144e+05
  -1.754882e+05  -5.308112e+05
   1.452660e+05  -4.199215e+05
   4.523419e+05   1.449824e+05
   4.122610e+05   6.812968e+05
  -2.905803e+04   6.597804e+05
  -5.354209e+05   7.155577e+04
  -6.292355e+05  -5.548971e+05
  -1.548655e+05  -7.083760e+05
   4.868207e+05  -3.698371e+05
   6.873085e+05   9.217698e+04
   2.923394e+05   3.577057e+05
  -1.932191e+05   3.681456e+05
  -1.942339e+05   2.172905e+05
   2.242707e+05   3.915954e+04
   4.391402e+05  -7.038601e+01
   6.647946e+04   1.894213e+05
  -5.505946e+05   4.316897e+05
  -7.750331e+05   3.748495e+05
  -4.279659e+05  -7.743425e+04
   8.609862e+04  -5.355466e+05
   3.187960e+05  -5.191686e+05
   2.129127e+05  -5.155828e+04
  -1.125103e+04   3.372708e+05
  -1.756160e+05   2.414590e+05
  -2.263089e+05  -1.610713e+05
  -1.425358e+05  -3.820498e+05
   5.720082e+04  -2.223258e+05
   2.488855e+05   6.317930e+04
   2.834711e+05   1.514441e+05
   1.560534e+05   3.172287e+04
   8.506215e+03  -5.144435e+04
  -5.577495e+04   6.413287e+04
  -8.247485e+04   2.633093e+05
  -1.564687e+05   2.869649e+05
  -2.438742e+05   2.700265e+04
  -2.083346e+05  -3.222448e+05
   1.670248e+04  -4.284334e+05
   3.004145e+05  -1.643794e+05
   3.838511e+05   2.338848e+05
   1.201954e+05   4.000818e+05
  -3.200445e+05   2.171134e+05
  -5.349667e+05  -9.470891e+04
  -2.842001e+05  -2.570519e+05
   1.982116e+05  -2.089482e+05
   4.018168e+05  -7.986532e+04
   1.170116e+05   1.365446e+03
  -2.874817e+05  -1.348120e+04
  -2.847652e+05  -1.168486e+05
   1.696241e+05  -2.210120e+05
   5.735586e+05  -1.519100e+05
