
 $NMID
 id='ANONYMOUS ', fmtdat='(2E16.6)'
 volume=1.0
 tramp=1.0
 $END
   3.477883e+03  -1.104445e+01
   2.280883e+03   1.803971e+03
  -6.096334e+01   2.221781e+03
  -1.395250e+03   1.267995e+03
  -1.002957e+03   1.083699e+02
   3.712956e+01  -2.709209e+02
   4.538113e+02   1.302095e+02
   6.366405e+01   6.332997e+02
  -5.044217e+02   6.363818e+02
  -7.087228e+02   7.873733e+01
  -4.603091e+02  -5.681094e+02
   1.492983e+01  -7.085749e+02
   3.562616e+02  -1.950260e+02
   2.820200e+02   4.626363e+02
  -1.300861e+02   5.916323e+02
  -4.459373e+02   7.977380e+01
  -3.135376e+02  -5.262130e+02
   1.491408e+02  -6.519952e+02
   5.017296e+02  -2.684717e+02
   4.565732e+02   2.021161e+02
   1.265061e+02   3.853975e+02
  -1.389643e+02   2.609220e+02
  -9.342569e+01   7.834024e+01
   1.734998e+02   7.879557e+01
   2.969128e+02   2.611648e+02
   1.342087e+01   3.762435e+02
  -4.775447e+02   2.001167e+02
  -6.525905e+02  -1.722491e+02
  -2.606778e+02  -3.924472e+02
   3.344738e+02  -2.466068e+02
   5.462559e+02   1.176671e+02
   2.181039e+02   3.857409e+02
  -2.687295e+02   3.832192e+02
  -4.810760e+02   1.452200e+02
  -3.462751e+02  -1.704355e+02
  -8.950478e+01  -3.415542e+02
   5.132861e+01  -2.073200e+02
  -8.886597e+00   1.044848e+02
  -1.765053e+02   2.001141e+02
  -2.383816e+02  -1.234677e+02
  -5.045933e+01  -5.274838e+02
   2.598713e+02  -4.906358e+02
   3.739786e+02  -7.355489e+00
   1.494160e+02   3.528028e+02
  -1.695737e+02   1.720573e+02
  -2.090951e+02  -2.807126e+02
   1.064728e+02  -4.195760e+02
   4.696827e+02  -7.150981e+01
   5.141787e+02   3.843785e+02
   1.632711e+02   5.214082e+02
  -3.162965e+02   2.879678e+02
  -5.470775e+02  -6.367675e+01
  -3.581262e+02  -2.753001e+02
   5.799738e+01  -2.548817e+02
   3.175783e+02  -8.667508e+01
   2.312174e+02   5.045578e+01
  -5.606548e+00   3.833687e+01
  -6.583898e+01  -6.048203e+01
   1.067302e+02  -7.883319e+01
   2.502131e+02   4.875303e+01
   1.335800e+02   2.113551e+02
  -1.617720e+02   2.565128e+02
  -3.529805e+02   1.331061e+02
  -2.654182e+02  -1.001767e+02
   2.461991e+01  -3.193931e+02
   2.969227e+02  -3.709070e+02
   3.755145e+02  -1.713438e+02
   2.475535e+02   1.643831e+02
   5.434055e+01   3.788915e+02
  -4.609280e+01   3.364929e+02
  -3.584588e+01   1.716510e+02
  -3.578508e+01   9.485847e+01
  -1.317419e+02   1.139894e+02
  -2.504352e+02   6.345438e+01
  -2.508575e+02  -1.168329e+02
  -9.973547e+01  -2.659658e+02
   9.556326e+01  -2.045637e+02
   1.994435e+02   3.710501e+01
   1.443426e+02   2.504187e+02
  -4.587208e+01   2.607245e+02
  -2.550164e+02   6.894203e+01
  -3.209987e+02  -1.775566e+02
  -1.746953e+02  -3.130167e+02
   5.874438e+01  -2.780012e+02
   1.793430e+02  -1.550049e+02
   1.532589e+02  -7.330662e+01
   1.479500e+02  -6.561060e+01
   2.811854e+02  -3.959542e+01
   4.207300e+02   9.619138e+01
   3.288180e+02   3.065299e+02
  -2.541841e+01   4.500710e+02
  -3.920027e+02   4.069544e+02
  -4.939989e+02   1.789429e+02
  -2.993058e+02  -1.036148e+02
  -2.259286e+01  -2.623971e+02
   1.006146e+02  -2.085707e+02
   1.979490e+01  -3.818740e+01
  -1.194830e+02   4.781833e+01
  -1.402800e+02  -3.545182e+01
  -1.260750e+01  -1.510232e+02
   1.247564e+02  -1.144353e+02
   1.196039e+02   5.469971e+01
  -2.819080e+01   1.409351e+02
  -1.688331e+02   2.882536e+00
  -1.557399e+02  -2.434097e+02
   2.343784e+01  -3.522739e+02
   2.489696e+02  -2.111801e+02
   3.648409e+02   6.562074e+01
   2.855445e+02   2.699894e+02
   6.382266e+01   2.822356e+02
  -1.322904e+02   1.453587e+02
  -1.578774e+02   6.525650e+00
  -3.829713e+01  -1.621978e+01
   5.375224e+01   6.145101e+01
  -1.707628e+00   1.179683e+02
  -1.281604e+02   7.053886e+01
  -1.536958e+02  -2.743194e+01
  -3.423505e+01  -5.842123e+01
   8.447747e+01   1.120786e+01
   4.032920e+01   9.488756e+01
  -1.521644e+02   8.950535e+01
  -3.094205e+02  -2.324229e+01
  -2.641433e+02  -1.753914e+02
  -2.896146e+01  -2.705631e+02
   2.138682e+02  -2.413925e+02
   2.784134e+02  -9.976112e+01
   1.439777e+02   4.859433e+01
  -3.090836e+01   8.275495e+01
  -6.822149e+01  -4.388442e+00
   5.384049e+01  -8.378254e+01
   1.913463e+02  -3.468262e+01
   1.944039e+02   1.082428e+02
   5.715204e+01   1.950956e+02
  -9.259983e+01   1.403920e+02
  -1.300571e+02   1.723298e+01
  -4.885385e+01  -3.802571e+01
   4.258824e+01   2.074705e+01
   2.792660e+01   1.119326e+02
  -9.961890e+01   1.208706e+02
  -2.170116e+02   1.221843e+01
  -1.871785e+02  -1.396820e+02
  -9.849716e+00  -2.155378e+02
   1.624545e+02  -1.544795e+02
   1.808573e+02  -9.787169e+00
   5.679520e+01   9.893380e+01
  -6.430242e+01   9.833424e+01
  -7.287956e+01   2.525542e+01
  -1.907574e+00  -2.554811e+01
   3.758927e+01  -9.262887e+00
  -9.466050e+00   2.556965e+01
  -9.068595e+01   7.698591e-01
  -1.072209e+02  -9.501718e+01
  -1.025615e+01  -1.808225e+02
   1.477584e+02  -1.572105e+02
   2.459665e+02  -9.227901e+00
   1.973769e+02   1.648247e+02
   3.663777e+01   2.361029e+02
  -1.058827e+02   1.641051e+02
  -1.335544e+02   3.083959e+01
  -7.563724e+01  -4.647413e+01
  -3.451672e+01  -3.045172e+01
  -5.741553e+01   1.442104e+01
  -9.026954e+01   6.654462e+00
  -5.727454e+01  -5.939862e+01
   4.214059e+01  -1.088634e+02
   1.265708e+02  -6.882175e+01
   1.094872e+02   4.649069e+01
  -1.884914e+01   1.334521e+02
  -1.690967e+02   9.175059e+01
  -2.118064e+02  -6.906528e+01
  -8.636852e+01  -2.202439e+02
   1.300457e+02  -2.278318e+02
   2.764751e+02  -8.219540e+01
   2.513366e+02   9.495500e+01
   1.006298e+02   1.750456e+02
  -4.226417e+01   1.418912e+02
  -9.181312e+01   8.175655e+01
  -7.249148e+01   7.156164e+01
  -6.098942e+01   9.705855e+01
  -9.376993e+01   8.146072e+01
  -1.356043e+02  -1.963160e+01
  -1.219111e+02  -1.592711e+02
  -2.597839e+01  -2.325542e+02
   1.043774e+02  -1.709517e+02
   1.753528e+02  -1.082085e+01
   1.294432e+02   1.315906e+02
   8.703886e+00   1.608773e+02
  -7.789357e+01   8.284599e+01
  -6.424570e+01  -1.468217e+01
   4.182609e+00  -5.480043e+01
   2.725178e+01  -3.663561e+01
  -2.853986e+01  -1.255571e+01
  -8.695904e+01  -1.906415e+01
  -5.123627e+01  -4.173222e+01
   7.549144e+01  -4.056182e+01
   1.785739e+02   3.223820e+00
   1.482108e+02   6.611026e+01
  -9.351826e-01   1.004271e+02
  -1.387262e+02   7.462154e+01
  -1.498672e+02   4.797030e+00
  -4.527889e+01  -5.178992e+01
   6.218475e+01  -4.472239e+01
   8.044823e+01   1.908030e+01
   1.890249e+01   7.620327e+01
  -4.822474e+01   6.781868e+01
  -7.079130e+01   2.109734e+00
  -5.910003e+01  -5.276496e+01
  -4.921069e+01  -4.502977e+01
  -5.725930e+01  -2.022607e+00
  -6.698066e+01  -1.400596e+00
  -4.522158e+01  -7.505650e+01
   2.869360e+01  -1.574964e+02
   1.301062e+02  -1.497102e+02
   1.860810e+02  -3.344970e+01
   1.341735e+02   9.845925e+01
   1.553098e+00   1.371585e+02
  -9.590969e+01   7.086505e+01
  -6.429560e+01  -1.137112e+01
   5.995585e+01  -2.106038e+01
   1.375780e+02   4.320891e+01
   7.213891e+01   1.095516e+02
  -8.644376e+01   1.116774e+02
  -1.943441e+02   4.436243e+01
  -1.605089e+02  -4.258880e+01
  -3.108808e+01  -8.751214e+01
   6.609675e+01  -6.254060e+01
   4.978805e+01   1.292976e+00
  -4.150628e+01   3.176804e+01
  -9.551739e+01  -2.024550e+01
  -4.102580e+01  -1.192199e+02
   8.164548e+01  -1.607153e+02
   1.624563e+02  -7.283998e+01
   1.303942e+02   9.384171e+01
   1.687806e+01   1.976526e+02
  -8.431750e+01   1.443521e+02
  -1.065958e+02  -1.188759e+01
  -5.618749e+01  -1.234815e+02
   1.349071e+01  -1.053275e+02
   5.281328e+01  -1.490573e+01
   4.663676e+01   3.312257e+01
   1.754151e+01   7.481827e+00
   6.001041e+00  -1.801651e+01
   3.075506e+01   2.192007e+01
   5.908211e+01   9.258723e+01
   3.306250e+01   1.077813e+02
  -5.717511e+01   4.326303e+01
  -1.393391e+02  -3.835776e+01
  -1.260940e+02  -7.121161e+01
  -1.871287e+01  -5.459887e+01
   8.290412e+01  -2.660867e+01
   8.871552e+01  -5.854651e+00
   1.758233e+01   1.195381e+01
  -3.540262e+01   2.210110e+01
  -1.971960e+01   1.314111e+01
   1.544857e+01  -4.134886e+00
  -3.098725e+00  -5.752048e+00
  -6.867143e+01   1.251027e+00
  -9.561236e+01  -2.210201e+01
  -2.221550e+01  -8.347722e+01
   1.102545e+02  -1.219756e+02
   1.932455e+02  -6.885720e+01
   1.572497e+02   5.994209e+01
   3.383698e+01   1.636799e+02
  -8.208161e+01   1.596498e+02
  -1.197915e+02   6.781068e+01
  -8.293673e+01  -1.937019e+01
  -2.726443e+01  -3.893259e+01
  -2.344893e+00  -1.346679e+01
  -1.408790e+01  -8.639269e+00
  -3.117860e+01  -5.027399e+01
  -1.862935e+01  -9.343603e+01
   2.982629e+01  -7.387051e+01
   8.074917e+01   1.501045e+01
   8.279460e+01   1.041155e+02
   1.511338e+01   1.135406e+02
  -7.699870e+01   3.347491e+01
  -1.091690e+02  -6.619389e+01
  -4.178719e+01  -1.057773e+02
   6.549603e+01  -6.647408e+01
   1.068045e+02   7.382368e+00
   4.705862e+01   5.934183e+01
  -3.507618e+01   6.332478e+01
  -4.094009e+01   3.006135e+01
   2.709633e+01  -6.306535e+00
   7.020343e+01  -9.603615e+00
   1.892364e+01   2.792498e+01
  -8.023321e+01   6.777043e+01
  -1.237770e+02   5.528449e+01
  -7.300822e+01  -1.706468e+01
   1.348008e+01  -8.751253e+01
   5.908771e+01  -8.561271e+01
   4.614374e+01  -1.318710e+01
   7.749732e+00   5.382405e+01
  -2.407692e+01   4.966711e+01
  -3.806032e+01  -1.048313e+01
  -2.971149e+01  -5.509400e+01
   6.349917e-01  -4.078044e+01
   3.439111e+01   4.975311e+00
   4.318518e+01   2.574417e+01
   2.136821e+01   4.786437e+00
  -3.936516e+00  -2.033769e+01
  -6.694895e+00  -8.359826e+00
   4.038692e+00   3.301798e+01
  -1.351955e+00   5.421030e+01
  -2.786963e+01   2.247977e+01
  -4.223864e+01  -3.599989e+01
  -1.338184e+01  -6.158334e+01
   4.136556e+01  -2.678314e+01
   6.471133e+01   3.365458e+01
   2.065226e+01   6.199599e+01
  -5.818435e+01   3.747953e+01
  -9.599042e+01  -1.108708e+01
  -5.267272e+01  -4.408405e+01
   2.911208e+01  -4.700395e+01
   6.707337e+01  -2.937586e+01
   2.965185e+01  -7.262670e+00
  -2.946870e+01   3.730199e+00
  -3.476214e+01  -6.416671e+00
   2.366989e+01  -2.654545e+01
   8.058941e+01  -2.251764e+01
