
 $NMID
 id='ANONYMOUS ', fmtdat='(2E16.6)'
 volume=1.0
 tramp=1.0
 $END
   3.112100e+03   1.392490e+01
   2.130867e+03   1.475857e+03
   1.855693e+02   1.961685e+03
  -1.076913e+03   1.374979e+03
  -9.745734e+02   4.145284e+02
  -1.895301e+02  -1.167039e+02
   2.651460e+02   3.039378e+01
   7.274578e+01   4.546598e+02
  -3.765757e+02   5.611626e+02
  -6.031366e+02   1.391995e+02
  -4.488770e+02  -4.440300e+02
  -6.917301e+01  -6.197062e+02
   2.379068e+02  -2.121490e+02
   2.293948e+02   3.616175e+02
  -7.847148e+01   5.180477e+02
  -3.734684e+02   1.074544e+02
  -3.218935e+02  -4.559531e+02
   7.420867e+01  -6.442252e+02
   4.537590e+02  -3.337600e+02
   4.724995e+02   1.351196e+02
   1.678671e+02   3.550783e+02
  -9.614004e+01   2.529710e+02
  -4.263228e+01   9.561306e+01
   2.043409e+02   1.375209e+02
   2.613493e+02   3.200634e+02
  -5.883630e+01   3.614823e+02
  -4.901202e+02   1.204295e+02
  -5.769572e+02  -2.143504e+02
  -1.867724e+02  -3.355069e+02
   3.199425e+02  -1.515222e+02
   4.692176e+02   1.554825e+02
   1.634579e+02   3.502838e+02
  -2.657397e+02   3.283898e+02
  -4.456498e+02   1.204207e+02
  -3.137881e+02  -1.481103e+02
  -9.086691e+01  -2.850451e+02
  -3.551147e+00  -1.677300e+02
  -8.428742e+01   6.963568e+01
  -1.908276e+02   1.080329e+02
  -1.620431e+02  -1.727951e+02
   3.046250e+01  -4.729338e+02
   2.430007e+02  -4.020327e+02
   2.804478e+02   1.906026e+00
   9.609467e+01   2.762360e+02
  -1.276695e+02   1.072662e+02
  -1.378604e+02  -2.698983e+02
   1.251545e+02  -3.689241e+02
   4.355090e+02  -4.366849e+01
   4.794109e+02   3.736175e+02
   1.603676e+02   4.909391e+02
  -2.893217e+02   2.609028e+02
  -5.099722e+02  -6.035420e+01
  -3.440311e+02  -2.291455e+02
   2.483663e+01  -2.045364e+02
   2.633102e+02  -9.264475e+01
   2.168561e+02  -7.680016e+00
   3.484105e+01   4.537600e+00
  -2.958325e+01  -2.751523e+01
   8.887449e+01  -3.287333e+01
   2.085651e+02   4.261685e+01
   1.252792e+02   1.744084e+02
  -1.421382e+02   2.517029e+02
  -3.540918e+02   1.591783e+02
  -2.920718e+02  -9.927678e+01
   1.629580e+01  -3.549250e+02
   3.199810e+02  -3.926201e+02
   3.897936e+02  -1.559768e+02
   2.310174e+02   1.756590e+02
   4.253428e+01   3.547887e+02
  -1.977285e+01   3.109006e+02
   2.485800e+00   1.882461e+02
  -3.277853e+01   1.366708e+02
  -1.635919e+02   1.298891e+02
  -2.743861e+02   4.134222e+01
  -2.424521e+02  -1.420518e+02
  -7.619837e+01  -2.654964e+02
   1.067442e+02  -1.841199e+02
   1.898208e+02   5.669999e+01
   1.237407e+02   2.550090e+02
  -6.059588e+01   2.476294e+02
  -2.512799e+02   4.992505e+01
  -3.042605e+02  -1.813449e+02
  -1.676144e+02  -2.955790e+02
   4.286086e+01  -2.621926e+02
   1.563255e+02  -1.649741e+02
   1.484632e+02  -1.004803e+02
   1.639518e+02  -8.109477e+01
   2.996262e+02  -3.379017e+01
   4.290848e+02   1.077344e+02
   3.283849e+02   3.119173e+02
  -3.182361e+01   4.519470e+02
  -4.008623e+02   4.061000e+02
  -4.938610e+02   1.719764e+02
  -2.838924e+02  -1.079424e+02
  -9.016776e+00  -2.498863e+02
   8.995972e+01  -1.880985e+02
  -5.740533e+00  -3.753739e+01
  -1.258620e+02   2.474582e+01
  -1.187629e+02  -4.974780e+01
   4.676780e+00  -1.340690e+02
   1.121094e+02  -8.880146e+01
   9.465693e+01   5.502744e+01
  -3.487576e+01   1.197578e+02
  -1.591021e+02  -9.918957e+00
  -1.524292e+02  -2.396817e+02
   1.802724e+01  -3.508195e+02
   2.524874e+02  -2.198377e+02
   3.788203e+02   6.193803e+01
   2.906625e+02   2.790802e+02
   5.379944e+01   2.897212e+02
  -1.392274e+02   1.403390e+02
  -1.497533e+02   2.741541e-01
  -2.884150e+01  -1.072951e+01
   4.867348e+01   7.092548e+01
  -1.411342e+01   1.162154e+02
  -1.304145e+02   5.913761e+01
  -1.436100e+02  -3.397808e+01
  -2.368806e+01  -5.358287e+01
   8.750491e+01   2.163839e+01
   3.592849e+01   1.038480e+02
  -1.623445e+02   9.280680e+01
  -3.206496e+02  -2.889765e+01
  -2.664390e+02  -1.874117e+02
  -1.865166e+01  -2.773467e+02
   2.246840e+02  -2.351317e+02
   2.758316e+02  -8.941802e+01
   1.324405e+02   4.802811e+01
  -3.462433e+01   7.177197e+01
  -5.928044e+01  -1.067384e+01
   6.284615e+01  -7.760814e+01
   1.897707e+02  -2.500472e+01
   1.862949e+02   1.102167e+02
   5.189985e+01   1.890964e+02
  -9.172205e+01   1.325778e+02
  -1.241377e+02   1.202042e+01
  -3.959229e+01  -3.743341e+01
   4.999659e+01   2.924068e+01
   2.628171e+01   1.236879e+02
  -1.096083e+02   1.259091e+02
  -2.249173e+02   7.584029e+00
  -1.862132e+02  -1.451868e+02
  -5.898474e+00  -2.140755e+02
   1.605466e+02  -1.502079e+02
   1.739944e+02  -1.110926e+01
   5.234616e+01   9.211185e+01
  -6.327249e+01   9.232775e+01
  -6.829290e+01   2.252834e+01
   4.867445e+00  -2.621319e+01
   4.451507e+01  -6.534855e+00
  -8.138376e+00   3.268223e+01
  -9.794358e+01   6.257996e+00
  -1.159366e+02  -9.842622e+01
  -1.051568e+01  -1.897803e+02
   1.551193e+02  -1.607328e+02
   2.511990e+02  -4.281932e+00
   1.964659e+02   1.697047e+02
   3.526346e+01   2.347434e+02
  -1.037112e+02   1.611926e+02
  -1.315090e+02   3.261791e+01
  -7.696355e+01  -4.179722e+01
  -3.659561e+01  -2.754104e+01
  -5.862959e+01   1.582105e+01
  -9.419180e+01   7.820046e+00
  -6.425485e+01  -6.195081e+01
   4.015085e+01  -1.173049e+02
   1.349087e+02  -7.623152e+01
   1.198669e+02   4.891863e+01
  -1.900274e+01   1.429540e+02
  -1.791105e+02   9.631933e+01
  -2.186288e+02  -7.449737e+01
  -8.241999e+01  -2.278003e+02
   1.384517e+02  -2.287759e+02
   2.798941e+02  -7.791611e+01
   2.487388e+02   9.759227e+01
   9.713696e+01   1.737058e+02
  -4.320824e+01   1.394672e+02
  -9.004084e+01   8.067481e+01
  -6.889940e+01   7.205892e+01
  -5.753615e+01   9.917789e+01
  -9.317679e+01   8.474277e+01
  -1.381434e+02  -1.745774e+01
  -1.243944e+02  -1.600211e+02
  -2.593583e+01  -2.345190e+02
   1.055969e+02  -1.706771e+02
   1.751967e+02  -7.616595e+00
   1.273544e+02   1.349315e+02
   5.234530e+00   1.613803e+02
  -8.207801e+01   7.968170e+01
  -6.665790e+01  -2.030110e+01
   6.854665e+00  -6.009419e+01
   3.364893e+01  -3.848205e+01
  -2.511138e+01  -1.050098e+01
  -8.974739e+01  -1.661099e+01
  -5.417133e+01  -4.239612e+01
   7.963182e+01  -4.303130e+01
   1.868823e+02   3.564578e+00
   1.510776e+02   7.086653e+01
  -6.291829e+00   1.059256e+02
  -1.452914e+02   7.644593e+01
  -1.518676e+02   2.340874e+00
  -4.476572e+01  -5.598690e+01
   6.220744e+01  -4.797249e+01
   8.219756e+01   1.839286e+01
   2.418821e+01   7.843549e+01
  -4.418472e+01   7.147606e+01
  -7.338539e+01   4.581174e+00
  -6.541010e+01  -5.256455e+01
  -5.184049e+01  -4.560405e+01
  -5.549927e+01  -1.817388e+00
  -6.722356e+01  -1.286383e+00
  -4.997295e+01  -7.707194e+01
   2.546343e+01  -1.618892e+02
   1.341024e+02  -1.543599e+02
   1.943413e+02  -3.573065e+01
   1.392749e+02   9.991106e+01
   8.887307e-01   1.416113e+02
  -9.881512e+01   7.555975e+01
  -6.578687e+01  -9.316319e+00
   6.001826e+01  -2.178872e+01
   1.375757e+02   4.230251e+01
   7.118118e+01   1.100755e+02
  -8.806850e+01   1.119589e+02
  -1.955256e+02   4.242084e+01
  -1.600357e+02  -4.533032e+01
  -2.901754e+01  -8.785625e+01
   6.815093e+01  -5.995429e+01
   5.047039e+01   4.467135e+00
  -4.211483e+01   3.402987e+01
  -9.732468e+01  -1.854488e+01
  -4.482471e+01  -1.185906e+02
   7.644199e+01  -1.629176e+02
   1.592495e+02  -7.747929e+01
   1.317689e+02   9.014053e+01
   2.049942e+01   1.969170e+02
  -8.293454e+01   1.445412e+02
  -1.075496e+02  -1.329063e+01
  -5.522958e+01  -1.254425e+02
   1.769450e+01  -1.053734e+02
   5.573113e+01  -1.340410e+01
   4.466067e+01   3.388674e+01
   1.410576e+01   7.383829e+00
   6.866141e+00  -1.709544e+01
   3.528392e+01   2.391720e+01
   6.105649e+01   9.355762e+01
   2.986729e+01   1.072466e+02
  -6.110486e+01   4.327182e+01
  -1.396595e+02  -3.701946e+01
  -1.247131e+02  -7.068964e+01
  -1.970567e+01  -5.630508e+01
   8.033300e+01  -2.852697e+01
   8.876091e+01  -5.622429e+00
   2.058562e+01   1.331753e+01
  -3.395361e+01   2.198812e+01
  -2.213969e+01   1.149852e+01
   1.286353e+01  -4.951414e+00
  -1.885982e+00  -4.522392e+00
  -6.600961e+01   3.432165e+00
  -9.715212e+01  -2.056294e+01
  -2.841229e+01  -8.376358e+01
   1.055903e+02  -1.251539e+02
   1.950864e+02  -7.456362e+01
   1.632822e+02   5.503939e+01
   3.814548e+01   1.634893e+02
  -8.170001e+01   1.640576e+02
  -1.209685e+02   7.251546e+01
  -8.376510e+01  -1.782828e+01
  -2.861847e+01  -4.001067e+01
  -4.835214e+00  -1.506269e+01
  -1.594116e+01  -1.017912e+01
  -3.092413e+01  -5.198046e+01
  -1.771405e+01  -9.481785e+01
   2.946281e+01  -7.490432e+01
   8.039759e+01   1.309412e+01
   8.542638e+01   1.014655e+02
   2.024477e+01   1.132582e+02
  -7.401016e+01   3.752701e+01
  -1.114335e+02  -6.136648e+01
  -4.645993e+01  -1.057764e+02
   6.401467e+01  -7.113976e+01
   1.100975e+02   4.389664e+00
   5.105384e+01   6.206644e+01
  -3.493101e+01   6.827048e+01
  -4.449108e+01   3.158496e+01
   2.391059e+01  -8.441275e+00
   7.027130e+01  -1.125872e+01
   2.085592e+01   2.869848e+01
  -8.004197e+01   6.898709e+01
  -1.268055e+02   5.513097e+01
  -7.703909e+01  -1.813994e+01
   1.172886e+01  -8.920304e+01
   6.059709e+01  -8.876146e+01
   4.928220e+01  -1.701323e+01
   1.050021e+01   5.255374e+01
  -2.268846e+01   5.243075e+01
  -3.833218e+01  -6.987517e+00
  -3.138108e+01  -5.512188e+01
  -9.483048e-01  -4.382784e+01
   3.471256e+01   3.243048e+00
   4.499402e+01   2.713801e+01
   2.189891e+01   6.085236e+00
  -5.702957e+00  -2.260748e+01
  -7.323094e+00  -1.286613e+01
   8.308306e+00   3.095689e+01
   5.606146e+00   5.714460e+01
  -2.513319e+01   2.832930e+01
  -4.674750e+01  -3.142893e+01
  -1.999847e+01  -6.085407e+01
   3.950992e+01  -2.935383e+01
   6.787632e+01   3.049420e+01
   2.346372e+01   6.103120e+01
  -5.902757e+01   3.943115e+01
  -9.863627e+01  -8.286733e+00
  -5.438153e+01  -4.350746e+01
   2.854865e+01  -4.969797e+01
   6.729880e+01  -3.315092e+01
   3.162445e+01  -8.734821e+00
  -2.598092e+01   5.878979e+00
  -3.308395e+01  -2.613951e+00
   2.091079e+01  -2.441817e+01
   7.597491e+01  -2.358654e+01
