
 $NMID
 id='ANONYMOUS ', fmtdat='(2E16.6)'
 volume=1.0
 tramp=1.0
 $END
  -2.359529e+03  -1.256259e+01
  -1.685421e+03  -1.078565e+03
  -2.466439e+02  -1.526567e+03
   7.937237e+02  -1.176763e+03
   8.326595e+02  -4.286749e+02
   2.578412e+02   8.195949e+01
  -1.622748e+02   3.965128e+01
  -8.472171e+01  -3.036600e+02
   2.532689e+02  -4.386402e+02
   4.590169e+02  -1.407252e+02
   3.694888e+02   3.178737e+02
   8.977501e+01   4.811488e+02
  -1.553862e+02   1.926779e+02
  -1.762979e+02  -2.487583e+02
   4.100154e+01  -3.966811e+02
   2.803680e+02  -1.019495e+02
   2.650516e+02   3.477955e+02
  -4.317802e+01   5.254944e+02
  -3.642422e+02   2.909858e+02
  -3.937777e+02  -9.586922e+01
  -1.481636e+02  -2.841812e+02
   6.501824e+01  -2.057360e+02
   2.084880e+01  -9.098004e+01
  -1.619337e+02  -1.403663e+02
  -1.805692e+02  -2.760929e+02
   7.695758e+01  -2.706854e+02
   3.855271e+02  -5.691825e+01
   4.241639e+02   1.840742e+02
   1.272472e+02   2.390215e+02
  -2.372958e+02   8.424335e+01
  -3.391311e+02  -1.331361e+02
  -1.113713e+02  -2.614994e+02
   2.082985e+02  -2.393407e+02
   3.424302e+02  -8.576907e+01
   2.411688e+02   1.107792e+02
   7.806882e+01   2.102378e+02
   2.633390e+01   1.300691e+02
   8.959662e+01  -2.855242e+01
   1.438235e+02  -4.773078e+01
   9.080128e+01   1.456208e+02
  -5.233026e+01   3.448226e+02
  -1.805129e+02   2.891877e+02
  -1.897735e+02   6.521956e+00
  -6.644786e+01  -1.864763e+02
   7.793298e+01  -6.792043e+01
   8.206151e+01   2.024604e+02
  -1.048144e+02   2.720770e+02
  -3.328066e+02   2.312362e+01
  -3.669524e+02  -2.983030e+02
  -1.238993e+02  -3.850941e+02
   2.223041e+02  -1.989443e+02
   3.950404e+02   4.999018e+01
   2.746905e+02   1.710322e+02
  -2.948182e+00   1.513878e+02
  -1.944591e+02   8.114060e+01
  -1.790991e+02   2.545836e+01
  -4.823414e+01   6.525355e-01
   1.608751e+01   4.445409e+00
  -5.737191e+01   1.147560e+01
  -1.526305e+02  -2.844914e+01
  -1.007835e+02  -1.274562e+02
   1.106946e+02  -2.009097e+02
   2.917493e+02  -1.302213e+02
   2.419767e+02   8.930573e+01
  -2.285477e+01   2.983557e+02
  -2.757408e+02   3.125504e+02
  -3.177020e+02   1.098964e+02
  -1.740821e+02  -1.461465e+02
  -2.763748e+01  -2.744996e+02
   7.640440e+00  -2.443676e+02
  -9.295933e+00  -1.636227e+02
   3.507598e+01  -1.244031e+02
   1.476800e+02  -1.011827e+02
   2.253532e+02  -1.600594e+01
   1.843061e+02   1.258237e+02
   4.790624e+01   2.099019e+02
  -8.932256e+01   1.363730e+02
  -1.442363e+02  -5.422058e+01
  -8.636364e+01  -2.046882e+02
   5.605191e+01  -1.901247e+02
   1.976562e+02  -2.929417e+01
   2.339380e+02   1.493383e+02
   1.294974e+02   2.325375e+02
  -3.070424e+01   2.065509e+02
  -1.218777e+02   1.369968e+02
  -1.239281e+02   8.836757e+01
  -1.413480e+02   6.470774e+01
  -2.463566e+02   1.627905e+01
  -3.429307e+02  -9.980706e+01
  -2.564209e+02  -2.578927e+02
   3.639990e+01  -3.612413e+02
   3.317788e+02  -3.163271e+02
   3.977535e+02  -1.263551e+02
   2.193321e+02   9.055150e+01
   1.520277e-02   1.936191e+02
  -6.814573e+01   1.437088e+02
   1.313899e+01   3.446499e+01
   9.955331e+01  -8.176330e+00
   8.409378e+01   4.335946e+01
  -9.380911e+00   9.828945e+01
  -8.246261e+01   6.221581e+01
  -6.591243e+01  -4.156240e+01
   2.880075e+01  -8.662650e+01
   1.216274e+02   1.371546e+01
   1.172764e+02   1.930075e+02
  -1.868677e+01   2.813243e+02
  -2.092016e+02   1.740696e+02
  -3.081675e+02  -5.773581e+01
  -2.281111e+02  -2.331794e+02
  -3.292643e+01  -2.341310e+02
   1.157648e+02  -1.069341e+02
   1.160479e+02   3.319950e+00
   2.051760e+01   5.503265e+00
  -3.423641e+01  -6.023022e+01
   1.755789e+01  -9.008830e+01
   1.044181e+02  -4.055269e+01
   1.097445e+02   3.042360e+01
   1.509775e+01   3.980065e+01
  -6.898968e+01  -2.320236e+01
  -2.374971e+01  -8.632400e+01
   1.360493e+02  -7.080564e+01
   2.595150e+02   3.303202e+01
   2.088483e+02   1.598015e+02
   4.999784e+00   2.232671e+02
  -1.871678e+02   1.802295e+02
  -2.200011e+02   6.339344e+01
  -1.012698e+02  -3.868846e+01
   2.845861e+01  -5.232567e+01
   4.302637e+01   1.030768e+01
  -5.392309e+01   5.727030e+01
  -1.503110e+02   1.339480e+01
  -1.440766e+02  -9.103580e+01
  -3.732520e+01  -1.494649e+02
   7.426149e+01  -1.019630e+02
   9.669904e+01  -6.546866e+00
   2.785241e+01   2.888772e+01
  -4.068795e+01  -2.869102e+01
  -1.614404e+01  -1.035340e+02
   9.461984e+01  -9.895949e+01
   1.824376e+02   1.085329e+00
   1.452970e+02   1.215856e+02
  -3.428006e-01   1.704941e+02
  -1.300115e+02   1.162809e+02
  -1.374631e+02   7.401354e+00
  -3.989008e+01  -7.157773e+01
   5.098366e+01  -7.089089e+01
   5.303943e+01  -1.664426e+01
  -6.915964e+00   1.996648e+01
  -3.779314e+01   2.229244e+00
   7.902309e+00  -2.882082e+01
   8.218353e+01  -3.901848e+00
   9.364200e+01   8.377431e+01
   3.468462e+00   1.555633e+02
  -1.305343e+02   1.259637e+02
  -2.024360e+02  -3.853347e+00
  -1.531963e+02  -1.412136e+02
  -2.371922e+01  -1.880902e+02
   8.479848e+01  -1.266581e+02
   1.055995e+02  -2.473412e+01
   6.222695e+01   3.347925e+01
   3.008585e+01   2.207514e+01
   4.796746e+01  -1.189434e+01
   7.725273e+01  -4.268565e+00
   5.241333e+01   5.297760e+01
  -3.511104e+01   9.665967e+01
  -1.138202e+02   5.981148e+01
  -9.846558e+01  -4.410399e+01
   1.957973e+01  -1.176078e+02
   1.497174e+02  -7.379580e+01
   1.753668e+02   6.686080e+01
   5.915719e+01   1.861149e+02
  -1.183376e+02   1.797086e+02
  -2.262569e+02   5.520449e+01
  -1.962123e+02  -8.326735e+01
  -7.367563e+01  -1.399284e+02
   3.709881e+01  -1.099756e+02
   7.283135e+01  -6.294757e+01
   5.535562e+01  -5.731219e+01
   4.707871e+01  -7.981319e+01
   7.660957e+01  -6.750001e+01
   1.117061e+02   1.619538e+01
   9.753949e+01   1.312567e+02
   1.613532e+01   1.891603e+02
  -8.815857e+01   1.345697e+02
  -1.399578e+02   1.782448e+00
  -9.828370e+01  -1.113172e+02
   8.483667e-02  -1.290272e+02
   6.818809e+01  -6.050420e+01
   5.293180e+01   1.992368e+01
  -8.481427e+00   4.946396e+01
  -3.028546e+01   2.976245e+01
   1.907629e+01   7.539955e+00
   7.306525e+01   1.457491e+01
   4.357801e+01   3.573103e+01
  -6.653367e+01   3.318743e+01
  -1.526449e+02  -7.864996e+00
  -1.199917e+02  -6.177518e+01
   9.863153e+00  -8.581282e+01
   1.205299e+02  -5.811316e+01
   1.220617e+02   2.132774e+00
   3.393656e+01   4.710588e+01
  -5.132522e+01   3.847171e+01
  -6.629868e+01  -1.631181e+01
  -1.944569e+01  -6.504543e+01
   3.593077e+01  -5.850379e+01
   6.027125e+01  -2.753191e+00
   5.375735e+01   4.437450e+01
   4.155776e+01   3.817407e+01
   4.386359e+01   2.089405e+00
   5.397010e+01   2.263948e+00
   3.998745e+01   6.425291e+01
  -2.299746e+01   1.314419e+02
  -1.125687e+02   1.222352e+02
  -1.597886e+02   2.444155e+01
  -1.113787e+02  -8.405644e+01
   2.902140e+00  -1.150043e+02
   8.245835e+01  -5.992283e+01
   5.345891e+01   8.202252e+00
  -4.866061e+01   1.661604e+01
  -1.096661e+02  -3.610488e+01
  -5.461006e+01  -8.955853e+01
   7.327527e+01  -8.794868e+01
   1.575905e+02  -2.952427e+01
   1.268037e+02   4.016161e+01
   2.085288e+01   7.071517e+01
  -5.600478e+01   4.552729e+01
  -4.005950e+01  -5.757572e+00
   3.499837e+01  -2.720720e+01
   7.862119e+01   1.635938e+01
   3.522691e+01   9.632889e+01
  -6.279091e+01   1.308994e+02
  -1.287478e+02   6.141289e+01
  -1.051195e+02  -7.359156e+01
  -1.424903e+01  -1.586013e+02
   6.866707e+01  -1.146582e+02
   8.606211e+01   1.329152e+01
   4.128841e+01   1.020975e+02
  -1.762099e+01   8.341944e+01
  -4.569611e+01   8.674419e+00
  -3.434021e+01  -2.790574e+01
  -9.963635e+00  -5.536529e+00
  -5.963181e+00   1.309702e+01
  -2.910960e+01  -2.132903e+01
  -4.776379e+01  -7.680849e+01
  -2.093274e+01  -8.576240e+01
   5.117780e+01  -3.287868e+01
   1.116245e+02   3.181092e+01
   9.827609e+01   5.851885e+01
   1.481880e+01   4.627903e+01
  -6.433864e+01   2.253433e+01
  -7.122954e+01   2.791131e+00
  -1.708881e+01  -1.206825e+01
   2.708313e+01  -1.721935e+01
   1.853165e+01  -7.799329e+00
  -9.623860e+00   4.480598e+00
   1.213139e+00   3.007227e+00
   5.241148e+01  -2.790153e+00
   7.832199e+01   1.798438e+01
   2.340225e+01   6.886020e+01
  -8.582945e+01   1.003472e+02
  -1.594104e+02   5.791043e+01
  -1.328970e+02  -4.642364e+01
  -2.915526e+01  -1.324441e+02
   6.913568e+01  -1.316537e+02
   9.954603e+01  -5.738522e+01
   6.738764e+01   1.542075e+01
   2.250128e+01   3.322008e+01
   4.207286e+00   1.317123e+01
   1.298189e+01   9.327560e+00
   2.344575e+01   4.279797e+01
   1.189369e+01   7.666256e+01
  -2.504149e+01   5.993732e+01
  -6.441993e+01  -1.122258e+01
  -6.802684e+01  -8.241798e+01
  -1.603532e+01  -9.196304e+01
   5.966223e+01  -3.069943e+01
   8.986131e+01   4.990886e+01
   3.697327e+01   8.646514e+01
  -5.291101e+01   5.777983e+01
  -8.987694e+01  -5.047244e+00
  -4.073383e+01  -5.236389e+01
   3.007089e+01  -5.587660e+01
   3.777804e+01  -2.442176e+01
  -1.856122e+01   7.652031e+00
  -5.685207e+01   8.317078e+00
  -1.674584e+01  -2.400331e+01
   6.557143e+01  -5.430292e+01
   1.037109e+02  -4.128319e+01
   6.267146e+01   1.704571e+01
  -1.070829e+01   7.220287e+01
  -5.129362e+01   7.089966e+01
  -4.161059e+01   1.354742e+01
  -8.660098e+00  -4.235135e+01
   1.913896e+01  -4.284419e+01
   3.131264e+01   5.103848e+00
   2.473686e+01   4.506486e+01
  -1.457860e-02   3.651636e+01
  -2.818651e+01  -2.673823e+00
  -3.597028e+01  -2.339389e+01
  -1.740328e+01  -5.835797e+00
   4.387697e+00   1.934788e+01
   5.064406e+00   1.216605e+01
  -7.979812e+00  -2.498473e+01
  -5.412823e+00  -4.818360e+01
   2.072053e+01  -2.481810e+01
   3.931211e+01   2.521361e+01
   1.740592e+01   5.005342e+01
  -3.199998e+01   2.405114e+01
  -5.553811e+01  -2.511747e+01
  -1.886443e+01  -4.950402e+01
   4.868367e+01  -3.107524e+01
   8.035339e+01   7.915877e+00
   4.350737e+01   3.596701e+01
  -2.406855e+01   4.037602e+01
  -5.530002e+01   2.664896e+01
  -2.647355e+01   6.600384e+00
   2.006862e+01  -5.618429e+00
   2.654413e+01   1.048555e+00
  -1.584993e+01   1.891841e+01
  -5.987600e+01   1.871103e+01
