
 $NMID
 id='ANONYMOUS ', fmtdat='(2E16.6)'
 volume=1.0
 tramp=1.0
 $END
  -3.198369e+02  -2.752383e+01
  -1.868380e+02  -1.731784e+02
   1.871591e+01  -1.850808e+02
   1.161794e+02  -9.923722e+01
   7.233535e+01  -1.593908e+01
  -8.357941e+00   5.375077e+00
  -3.056094e+01  -2.312628e+01
   6.713884e+00  -5.426979e+01
   4.978304e+01  -4.866474e+01
   5.976326e+01  -1.203138e+00
   3.401990e+01   5.129346e+01
  -5.810915e+00   5.848235e+01
  -2.929510e+01   1.030901e+01
  -1.777139e+01  -4.476391e+01
   1.640847e+01  -5.008525e+01
   3.818778e+01  -2.901640e+00
   2.453013e+01   4.732324e+01
  -1.297442e+01   5.591614e+01
  -4.158456e+01   2.341320e+01
  -3.865544e+01  -1.639868e+01
  -1.068630e+01  -3.269027e+01
   1.266125e+01  -2.129291e+01
   6.261419e+00  -4.225462e+00
  -2.128965e+01  -6.964879e+00
  -3.102303e+01  -2.892120e+01
   1.970470e+00  -4.018030e+01
   5.111631e+01  -1.729860e+01
   6.235123e+01   2.311706e+01
   1.832579e+01   4.082847e+01
  -3.799712e+01   1.944370e+01
  -5.201547e+01  -1.788608e+01
  -1.635107e+01  -3.939848e+01
   2.935991e+01  -3.427702e+01
   4.624503e+01  -1.023274e+01
   3.009949e+01   1.796720e+01
   4.290929e+00   3.063585e+01
  -6.262293e+00   1.458128e+01
   5.407666e+00  -1.420965e+01
   2.364310e+01  -1.726869e+01
   2.380348e+01   1.850838e+01
  -1.606993e+00   5.399495e+01
  -3.059044e+01   4.251739e+01
  -3.338419e+01  -6.372734e+00
  -7.034468e+00  -3.503775e+01
   1.952068e+01  -1.141063e+01
   1.684937e+01   3.132546e+01
  -1.437414e+01   3.944510e+01
  -4.537350e+01   3.292948e+00
  -4.655670e+01  -3.872405e+01
  -1.285539e+01  -4.865345e+01
   3.118045e+01  -2.433081e+01
   5.031640e+01   8.863355e+00
   2.997570e+01   2.592170e+01
  -8.268709e+00   2.029956e+01
  -2.810935e+01   4.321896e+00
  -1.729305e+01  -4.329768e+00
   1.831296e+00   1.551021e-01
   2.865029e+00   7.400412e+00
  -1.286484e+01   4.862084e+00
  -2.200427e+01  -7.517002e+00
  -9.642193e+00  -1.959547e+01
   1.521964e+01  -2.258128e+01
   3.156855e+01  -1.312554e+01
   2.563416e+01   7.710144e+00
   2.102090e-01   3.049018e+01
  -2.733127e+01   3.701533e+01
  -3.699324e+01   1.651763e+01
  -2.359178e+01  -1.712714e+01
  -2.874666e+00  -3.594484e+01
   5.639340e+00  -2.915947e+01
   1.274676e+00  -1.392057e+01
   4.076879e-01  -9.851028e+00
   1.224278e+01  -1.334553e+01
   2.586798e+01  -6.915849e+00
   2.513549e+01   1.245131e+01
   8.570166e+00   2.679083e+01
  -1.088238e+01   1.946625e+01
  -1.990605e+01  -4.832687e+00
  -1.322306e+01  -2.528285e+01
   5.809079e+00  -2.524310e+01
   2.533207e+01  -5.565498e+00
   2.997821e+01   1.822514e+01
   1.486450e+01   2.965417e+01
  -6.391912e+00   2.463593e+01
  -1.568202e+01   1.316045e+01
  -1.245630e+01   7.221941e+00
  -1.333982e+01   7.645498e+00
  -2.745560e+01   4.702480e+00
  -4.066336e+01  -9.056450e+00
  -3.119290e+01  -2.928995e+01
   2.715632e+00  -4.293610e+01
   3.752361e+01  -3.874314e+01
   4.718932e+01  -1.637526e+01
   2.805156e+01   1.115922e+01
   7.197233e-01   2.537794e+01
  -1.076907e+01   1.830295e+01
  -1.241311e+00   1.774077e+00
   1.309672e+01  -4.258108e+00
   1.363014e+01   5.333722e+00
  -5.675283e-01   1.500745e+01
  -1.329754e+01   9.128793e+00
  -1.059143e+01  -6.997829e+00
   4.418243e+00  -1.316976e+01
   1.656222e+01   8.651445e-01
   1.418720e+01   2.318500e+01
  -2.381795e+00   3.279079e+01
  -2.309793e+01   2.024862e+01
  -3.449185e+01  -5.328486e+00
  -2.754566e+01  -2.552694e+01
  -6.100801e+00  -2.756836e+01
   1.310866e+01  -1.398058e+01
   1.511370e+01   2.234381e-01
   2.958294e+00   2.069627e+00
  -5.560957e+00  -6.444281e+00
   6.944129e-01  -1.195120e+01
   1.299511e+01  -6.422915e+00
   1.466584e+01   3.569810e+00
   2.565488e+00   6.142059e+00
  -8.777604e+00  -1.179596e+00
  -4.256685e+00  -9.527983e+00
   1.445127e+01  -9.155206e+00
   2.987333e+01   1.745215e+00
   2.571462e+01   1.686997e+01
   2.762709e+00   2.644712e+01
  -2.105472e+01   2.322756e+01
  -2.697845e+01   8.775272e+00
  -1.319603e+01  -5.468480e+00
   3.840343e+00  -7.749057e+00
   6.631026e+00   1.256288e+00
  -5.809273e+00   8.335192e+00
  -1.870712e+01   2.779552e+00
  -1.818767e+01  -1.095307e+01
  -4.705502e+00  -1.864255e+01
   9.346184e+00  -1.291023e+01
   1.248317e+01  -9.870144e-01
   4.290734e+00   4.252409e+00
  -4.803704e+00  -1.692472e+00
  -3.348209e+00  -1.101005e+01
   9.387044e+00  -1.217957e+01
   2.101696e+01  -1.449831e+00
   1.792990e+01   1.350703e+01
   5.863468e-01   2.057347e+01
  -1.566590e+01   1.421996e+01
  -1.678421e+01   3.649821e-01
  -4.694748e+00  -9.493637e+00
   6.520026e+00  -8.999264e+00
   6.956510e+00  -1.940203e+00
   2.671082e-02   2.905909e+00
  -3.931552e+00   1.263983e+00
   3.716005e-01  -2.505941e+00
   8.364865e+00  -6.773246e-01
   1.053176e+01   8.506695e+00
   1.494193e+00   1.728655e+01
  -1.398496e+01   1.535123e+01
  -2.369528e+01   9.533181e-01
  -1.883385e+01  -1.586387e+01
  -3.177683e+00  -2.235092e+01
   1.023322e+01  -1.518094e+01
   1.243460e+01  -2.731207e+00
   6.812243e+00   4.209069e+00
   3.088507e+00   2.667732e+00
   5.358614e+00  -1.448525e+00
   8.542769e+00  -8.801444e-01
   5.735219e+00   5.215462e+00
  -3.392891e+00   1.033153e+01
  -1.168528e+01   7.202169e+00
  -1.075147e+01  -3.787314e+00
   1.194837e+00  -1.284472e+01
   1.595592e+01  -9.379362e+00
   2.050285e+01   6.311459e+00
   8.435586e+00   2.130949e+01
  -1.256760e+01   2.202636e+01
  -2.652124e+01   7.707208e+00
  -2.376226e+01  -9.364741e+00
  -9.194446e+00  -1.678107e+01
   4.269631e+00  -1.335745e+01
   8.737674e+00  -7.500572e+00
   6.748356e+00  -6.465704e+00
   5.568718e+00  -8.931482e+00
   8.646906e+00  -7.673238e+00
   1.269389e+01   1.696842e+00
   1.152109e+01   1.494242e+01
   2.444782e+00   2.200638e+01
  -1.000200e+01   1.613815e+01
  -1.676686e+01   8.148819e-01
  -1.230647e+01  -1.272869e+01
  -6.632757e-01  -1.543687e+01
   7.734202e+00  -7.974579e+00
   6.511753e+00   1.407259e+00
  -1.281017e-01   5.498271e+00
  -2.636874e+00   3.939318e+00
   2.446153e+00   1.387199e+00
   8.093249e+00   1.588342e+00
   4.933509e+00   3.778930e+00
  -7.083859e+00   4.138112e+00
  -1.709079e+01   1.621166e-01
  -1.435125e+01  -6.253851e+00
  -9.156602e-02  -9.998253e+00
   1.318031e+01  -7.464936e+00
   1.436544e+01  -4.345437e-01
   4.520370e+00   5.062816e+00
  -5.664341e+00   4.270020e+00
  -7.575197e+00  -1.707075e+00
  -2.037108e+00  -6.887509e+00
   4.222598e+00  -6.182015e+00
   6.574756e+00  -4.054659e-01
   5.699426e+00   4.563194e+00
   4.725822e+00   4.107758e+00
   5.336983e+00   3.442140e-01
   6.315173e+00   1.529674e-01
   4.490364e+00   6.827211e+00
  -2.405720e+00   1.472922e+01
  -1.214450e+01   1.444842e+01
  -1.763544e+01   3.684436e+00
  -1.283560e+01  -9.049069e+00
  -3.577972e-01  -1.310538e+01
   8.837972e+00  -6.957328e+00
   5.953153e+00   9.510161e-01
  -5.618233e+00   1.973814e+00
  -1.288567e+01  -4.135235e+00
  -6.747621e+00  -1.045858e+01
   8.246060e+00  -1.060220e+01
   1.852615e+01  -4.095332e+00
   1.529286e+01   4.223228e+00
   2.846373e+00   8.428153e+00
  -6.510438e+00   5.932400e+00
  -4.937151e+00  -1.908190e-01
   3.791574e+00  -3.075231e+00
   8.926015e+00   1.794563e+00
   3.855423e+00   1.098512e+01
  -7.502519e+00   1.480181e+01
  -1.495328e+01   6.670944e+00
  -1.201776e+01  -8.733395e+00
  -1.517444e+00  -1.837751e+01
   7.990205e+00  -1.347103e+01
   1.017132e+01   1.157606e+00
   5.335755e+00   1.180175e+01
  -1.448168e+00   1.022320e+01
  -5.175494e+00   1.538058e+00
  -4.378388e+00  -3.312569e+00
  -1.549492e+00  -9.556566e-01
  -6.654435e-01   1.731440e+00
  -3.151156e+00  -1.821800e+00
  -5.637761e+00  -8.656248e+00
  -2.927689e+00  -1.039638e+01
   5.525476e+00  -4.322325e+00
   1.303312e+01   3.644291e+00
   1.177490e+01   6.876865e+00
   1.878617e+00   5.137648e+00
  -7.630620e+00   2.330008e+00
  -8.388621e+00   4.946689e-01
  -1.828735e+00  -9.638994e-01
   3.321172e+00  -1.957721e+00
   2.049471e+00  -1.353036e+00
  -1.331776e+00   2.207376e-01
   1.691605e-01   5.963427e-01
   6.251701e+00   5.217219e-02
   8.937928e+00   1.992955e+00
   2.232915e+00   7.458507e+00
  -1.012306e+01   1.119494e+01
  -1.791703e+01   6.660843e+00
  -1.461365e+01  -5.191893e+00
  -3.194882e+00  -1.515014e+01
   7.518939e+00  -1.510055e+01
   1.104083e+01  -6.533184e+00
   7.724507e+00   1.777532e+00
   2.660394e+00   3.622758e+00
   3.930346e-01   1.139690e+00
   1.482287e+00   7.348986e-01
   3.023085e+00   4.825202e+00
   1.772159e+00   8.926143e+00
  -2.775772e+00   6.951550e+00
  -7.462385e+00  -1.437876e+00
  -7.630196e+00  -9.613305e+00
  -1.475585e+00  -1.034920e+01
   6.916253e+00  -3.009915e+00
   9.977727e+00   6.019405e+00
   4.003504e+00   9.673285e+00
  -5.849399e+00   6.252187e+00
  -9.947941e+00  -4.485020e-01
  -4.702620e+00  -5.418702e+00
   2.994982e+00  -6.075504e+00
   3.869172e+00  -3.101684e+00
  -2.322542e+00   4.119975e-01
  -6.512635e+00   9.125571e-01
  -1.874751e+00  -2.530430e+00
   7.518110e+00  -6.362394e+00
   1.180149e+01  -5.347450e+00
   7.060899e+00   1.399737e+00
  -1.158400e+00   8.168423e+00
  -5.444904e+00   8.230515e+00
  -4.176282e+00   1.540564e+00
  -6.833395e-01  -4.853096e+00
   2.068979e+00  -4.647174e+00
   3.344620e+00   8.978207e-01
   2.815931e+00   5.097772e+00
   1.727407e-01   3.817383e+00
  -3.127426e+00  -4.205789e-01
  -4.204698e+00  -2.365192e+00
  -2.118351e+00  -4.625288e-01
   5.666869e-01   1.858017e+00
   9.606856e-01   8.709841e-01
  -3.317458e-01  -2.759965e+00
  -2.351815e-01  -4.702122e+00
   2.156079e+00  -2.069669e+00
   3.762651e+00   2.979493e+00
   1.353089e+00   5.330912e+00
  -3.686443e+00   2.440064e+00
  -5.946405e+00  -2.905072e+00
  -1.918436e+00  -5.635788e+00
   5.396340e+00  -3.611779e+00
   8.921638e+00   8.420868e-01
   4.946842e+00   4.054208e+00
  -2.569603e+00   4.449094e+00
  -6.084571e+00   2.848133e+00
  -2.751180e+00   8.457576e-01
   2.535511e+00  -1.466650e-01
   2.961350e+00   6.411966e-01
  -2.323461e+00   2.237046e+00
  -7.413990e+00   1.778591e+00
