
 $NMID
 id='ANONYMOUS ', fmtdat='(2E16.6)'
 volume=1.0
 tramp=1.0
 $END
  -1.229502e+03  -5.021218e+01
  -8.025999e+02  -6.181661e+02
  -2.441095e+01  -7.621608e+02
   4.414634e+02  -4.968883e+02
   3.630601e+02  -1.309746e+02
   4.791659e+01   4.269623e+01
  -1.085855e+02  -3.207229e+01
  -1.298455e+01  -1.876584e+02
   1.630645e+02  -2.112393e+02
   2.376008e+02  -3.870502e+01
   1.633139e+02   1.840953e+02
   1.096700e+01   2.409068e+02
  -1.003969e+02   7.178070e+01
  -8.318153e+01  -1.515729e+02
   4.228378e+01  -2.014601e+02
   1.483602e+02  -3.239481e+01
   1.161336e+02   1.829617e+02
  -3.905127e+01   2.445196e+02
  -1.772009e+02   1.183709e+02
  -1.765509e+02  -5.930979e+01
  -5.762036e+01  -1.380795e+02
   4.244159e+01  -9.499633e+01
   1.949968e+01  -3.237221e+01
  -7.961193e+01  -4.897649e+01
  -1.046604e+02  -1.241398e+02
   2.167489e+01  -1.448507e+02
   1.946436e+02  -4.887947e+01
   2.291629e+02   8.924855e+01
   7.103053e+01   1.395609e+02
  -1.317889e+02   6.154069e+01
  -1.877591e+02  -6.602175e+01
  -6.196176e+01  -1.424879e+02
   1.089119e+02  -1.284399e+02
   1.771980e+02  -4.261823e+01
   1.210167e+02   6.318258e+01
   2.937872e+01   1.146073e+02
  -5.982323e+00   6.411923e+01
   3.033108e+01  -3.327219e+01
   7.941887e+01  -4.729532e+01
   6.946194e+01   6.957064e+01
  -1.344757e+01   1.913443e+02
  -1.036887e+02   1.584682e+02
  -1.152201e+02  -8.073388e+00
  -3.382872e+01  -1.159553e+02
   5.699291e+01  -4.219261e+01
   5.529609e+01   1.105994e+02
  -5.314692e+01   1.462643e+02
  -1.727949e+02   1.328168e+01
  -1.842350e+02  -1.510663e+02
  -5.659025e+01  -1.933381e+02
   1.173776e+02  -9.883294e+01
   1.990664e+02   2.976566e+01
   1.294062e+02   9.519237e+01
  -1.648115e+01   8.019819e+01
  -1.057788e+02   3.006782e+01
  -8.129035e+01  -3.409250e+00
  -8.679801e+00  -1.739644e+00
   1.157869e+01   1.529387e+01
  -3.866240e+01   1.396034e+01
  -8.272468e+01  -2.106898e+01
  -4.538755e+01  -7.137930e+01
   5.850293e+01  -9.538650e+01
   1.365082e+02  -5.722504e+01
   1.104193e+02   3.904228e+01
  -7.358893e+00   1.343224e+02
  -1.239188e+02   1.494441e+02
  -1.519989e+02   5.926293e+01
  -8.981939e+01  -7.000271e+01
  -1.302733e+01  -1.398998e+02
   1.334747e+01  -1.201775e+02
   1.973407e+00  -6.937081e+01
   1.132797e+01  -4.967886e+01
   6.119266e+01  -4.992762e+01
   1.062578e+02  -1.684192e+01
   9.482897e+01   5.566501e+01
   2.897267e+01   1.047834e+02
  -4.323293e+01   7.245478e+01
  -7.485126e+01  -2.269017e+01
  -4.756546e+01  -1.005736e+02
   2.517552e+01  -9.711189e+01
   9.901776e+01  -1.841645e+01
   1.176594e+02   7.326796e+01
   6.197007e+01   1.172168e+02
  -2.061203e+01   1.011607e+02
  -6.263483e+01   6.054201e+01
  -5.683161e+01   3.564864e+01
  -6.202980e+01   3.009219e+01
  -1.153158e+02   1.231055e+01
  -1.653380e+02  -4.367603e+01
  -1.250191e+02  -1.228481e+02
   1.522466e+01  -1.748705e+02
   1.576481e+02  -1.546477e+02
   1.928096e+02  -6.320911e+01
   1.102866e+02   4.459820e+01
   1.698129e+00   9.840699e+01
  -3.821142e+01   7.276890e+01
   2.102618e-01   1.302367e+01
   4.989121e+01  -1.052874e+01
   4.787026e+01   2.054539e+01
  -2.745993e+00   5.402046e+01
  -4.647344e+01   3.440241e+01
  -3.786357e+01  -2.353747e+01
   1.528029e+01  -4.787400e+01
   6.291031e+01   4.812454e+00
   5.712479e+01   9.433857e+01
  -1.010062e+01   1.353401e+02
  -9.858703e+01   8.276521e+01
  -1.449268e+02  -2.623006e+01
  -1.105405e+02  -1.092679e+02
  -1.972517e+01  -1.126208e+02
   5.478752e+01  -5.398940e+01
   5.885907e+01   1.129840e+00
   1.135829e+01   5.319872e+00
  -1.921083e+01  -2.750052e+01
   5.638512e+00  -4.573663e+01
   5.146269e+01  -2.277331e+01
   5.636845e+01   1.443602e+01
   9.149718e+00   2.188347e+01
  -3.413451e+01  -8.163869e+00
  -1.395225e+01  -4.013137e+01
   6.263730e+01  -3.507724e+01
   1.234362e+02   1.255883e+01
   1.022375e+02   7.360215e+01
   6.197785e+00   1.076292e+02
  -8.839255e+01   9.033060e+01
  -1.082031e+02   3.300695e+01
  -5.159443e+01  -2.034505e+01
   1.437957e+01  -2.845585e+01
   2.383117e+01   4.722577e+00
  -2.469487e+01   3.050932e+01
  -7.430998e+01   8.764027e+00
  -7.188512e+01  -4.443442e+01
  -1.860750e+01  -7.427153e+01
   3.703899e+01  -5.104901e+01
   4.882936e+01  -3.678301e+00
   1.560453e+01   1.539769e+01
  -1.915699e+01  -1.067420e+01
  -1.006052e+01  -4.737763e+01
   4.239344e+01  -4.815963e+01
   8.683565e+01  -2.012122e+00
   7.133457e+01   5.728618e+01
   8.164488e-01   8.320371e+01
  -6.364711e+01   5.704620e+01
  -6.776656e+01   2.455633e+00
  -1.941695e+01  -3.675999e+01
   2.562342e+01  -3.556661e+01
   2.706343e+01  -8.088796e+00
  -1.595314e+00   1.048024e+01
  -1.698368e+01   2.797709e+00
   3.044168e+00  -1.202995e+01
   3.711911e+01  -1.761434e+00
   4.373629e+01   3.819700e+01
   3.157296e+00   7.289191e+01
  -6.053316e+01   6.122071e+01
  -9.717330e+01   3.885643e-01
  -7.507129e+01  -6.688728e+01
  -1.185518e+01  -9.125689e+01
   4.167676e+01  -6.162388e+01
   5.114910e+01  -1.136986e+01
   2.907711e+01   1.698353e+01
   1.362929e+01   1.099691e+01
   2.263531e+01  -5.655735e+00
   3.616777e+01  -2.472362e+00
   2.408258e+01   2.385558e+01
  -1.603604e+01   4.439379e+01
  -5.176341e+01   2.848933e+01
  -4.546432e+01  -1.903597e+01
   7.843498e+00  -5.454100e+01
   6.908253e+01  -3.621416e+01
   8.389683e+01   2.970843e+01
   3.087418e+01   8.850304e+01
  -5.469600e+01   8.790595e+01
  -1.089149e+02   2.849895e+01
  -9.581637e+01  -3.964175e+01
  -3.639862e+01  -6.824672e+01
   1.786899e+01  -5.384252e+01
   3.563331e+01  -3.048336e+01
   2.741072e+01  -2.709467e+01
   2.311207e+01  -3.757436e+01
   3.652900e+01  -3.181862e+01
   5.300637e+01   7.794603e+00
   4.678365e+01   6.265223e+01
   8.366926e+00   9.079703e+01
  -4.209146e+01   6.531519e+01
  -6.804378e+01   1.809907e+00
  -4.858259e+01  -5.308162e+01
  -1.052292e+00  -6.265355e+01
   3.228177e+01  -3.066695e+01
   2.582183e+01   7.842682e+00
  -2.606121e+00   2.301245e+01
  -1.277500e+01   1.490539e+01
   9.732867e+00   4.602439e+00
   3.425665e+01   7.100313e+00
   2.048054e+01   1.658919e+01
  -3.070877e+01   1.613295e+01
  -7.174331e+01  -2.268370e+00
  -5.801063e+01  -2.807786e+01
   2.548767e+00  -4.090017e+01
   5.624518e+01  -2.875119e+01
   5.878979e+01  -3.165056e-02
   1.718467e+01   2.175613e+01
  -2.422875e+01   1.787058e+01
  -3.150040e+01  -7.680051e+00
  -8.548381e+00  -3.005305e+01
   1.767859e+01  -2.682183e+01
   2.810041e+01  -1.209785e+00
   2.447455e+01   2.045631e+01
   1.956890e+01   1.783725e+01
   2.155981e+01   1.249748e+00
   2.597312e+01   1.003578e+00
   1.855563e+01   2.976995e+01
  -1.102765e+01   6.194374e+01
  -5.250576e+01   5.863268e+01
  -7.476951e+01   1.270055e+01
  -5.287041e+01  -3.930302e+01
   4.177169e-01  -5.453808e+01
   3.832178e+01  -2.834700e+01
   2.515326e+01   4.149519e+00
  -2.333572e+01   7.926585e+00
  -5.284320e+01  -1.747585e+01
  -2.679195e+01  -4.315232e+01
   3.480069e+01  -4.272189e+01
   7.600748e+01  -1.511873e+01
   6.176635e+01   1.860747e+01
   1.071249e+01   3.431545e+01
  -2.684784e+01   2.297129e+01
  -1.964281e+01  -1.862054e+00
   1.637195e+01  -1.273173e+01
   3.728460e+01   7.917607e+00
   1.614552e+01   4.602597e+01
  -3.102307e+01   6.197416e+01
  -6.212243e+01   2.825231e+01
  -4.996715e+01  -3.603687e+01
  -6.141882e+00  -7.615947e+01
   3.326746e+01  -5.518532e+01
   4.152921e+01   5.811405e+00
   2.059275e+01   4.888060e+01
  -7.370160e+00   4.088738e+01
  -2.156331e+01   5.039885e+00
  -1.719625e+01  -1.352278e+01
  -5.620965e+00  -3.183927e+00
  -2.786937e+00   6.675493e+00
  -1.329259e+01  -9.109376e+00
  -2.283570e+01  -3.647348e+01
  -1.091272e+01  -4.195101e+01
   2.370987e+01  -1.651666e+01
   5.364159e+01   1.545642e+01
   4.776510e+01   2.841964e+01
   7.233679e+00   2.175855e+01
  -3.134591e+01   1.013628e+01
  -3.439233e+01   1.515232e+00
  -7.748648e+00  -5.032959e+00
   1.340576e+01  -8.164479e+00
   8.595159e+00  -4.537677e+00
  -5.133944e+00   1.602988e+00
   6.987058e-01   1.920263e+00
   2.560276e+01  -5.145788e-01
   3.723009e+01   8.702944e+00
   9.960983e+00   3.221828e+01
  -4.191477e+01   4.711139e+01
  -7.556499e+01   2.709353e+01
  -6.204485e+01  -2.248853e+01
  -1.321228e+01  -6.328388e+01
   3.261113e+01  -6.252886e+01
   4.698207e+01  -2.689215e+01
   3.211881e+01   7.587098e+00
   1.074334e+01   1.554198e+01
   1.690356e+00   5.604311e+00
   6.062615e+00   3.843121e+00
   1.168892e+01   2.024861e+01
   6.274694e+00   3.678216e+01
  -1.192990e+01   2.866166e+01
  -3.090678e+01  -5.827836e+00
  -3.193499e+01  -3.991675e+01
  -6.610956e+00  -4.366978e+01
   2.886370e+01  -1.349975e+01
   4.219147e+01   2.476906e+01
   1.685739e+01   4.098552e+01
  -2.511616e+01   2.663258e+01
  -4.215588e+01  -2.532076e+00
  -1.918226e+01  -2.397337e+01
   1.373749e+01  -2.580919e+01
   1.712438e+01  -1.199902e+01
  -9.392049e+00   2.744507e+00
  -2.716390e+01   3.713884e+00
  -7.769709e+00  -1.109066e+01
   3.142901e+01  -2.598482e+01
   4.928686e+01  -2.055741e+01
   2.946571e+01   7.285007e+00
  -5.229315e+00   3.419929e+01
  -2.382560e+01   3.376141e+01
  -1.875086e+01   6.147821e+00
  -3.400517e+00  -2.032415e+01
   9.097746e+00  -1.984165e+01
   1.454092e+01   3.209558e+00
   1.161068e+01   2.145865e+01
   1.168295e-01   1.666328e+01
  -1.327540e+01  -1.614000e+00
  -1.716631e+01  -1.063812e+01
  -8.470929e+00  -2.402839e+00
   2.057965e+00   8.530207e+00
   2.972974e+00   4.697245e+00
  -2.568297e+00  -1.191033e+01
  -1.455681e+00  -2.152447e+01
   9.756775e+00  -1.021201e+01
   1.726371e+01   1.253717e+01
   6.790302e+00   2.333216e+01
  -1.547178e+01   1.076937e+01
  -2.562086e+01  -1.232735e+01
  -8.365756e+00  -2.367883e+01
   2.295983e+01  -1.472710e+01
   3.774682e+01   3.979627e+00
   2.055723e+01   1.717860e+01
  -1.129387e+01   1.879548e+01
  -2.603923e+01   1.207580e+01
  -1.207952e+01   3.162953e+00
   1.019244e+01  -1.717776e+00
   1.265351e+01   1.618782e+00
  -8.589959e+00   9.255684e+00
  -2.980963e+01   8.187509e+00
