
 $NMID
 id='ANONYMOUS ', fmtdat='(2E16.6)'
 volume=1.0
 tramp=1.0
 $END
   1.780123e+03   9.343724e+01
   1.253184e+03   8.419102e+02
   1.834737e+02   1.153715e+03
  -6.024923e+02   9.092697e+02
  -6.568473e+02   3.602762e+02
  -2.363925e+02  -4.397745e+01
   9.480867e+01  -4.128846e+01
   5.642770e+01   2.091890e+02
  -1.906951e+02   3.204672e+02
  -3.444701e+02   1.045871e+02
  -2.753466e+02  -2.390382e+02
  -6.827174e+01  -3.627841e+02
   1.071403e+02  -1.474357e+02
   1.197903e+02   1.831088e+02
  -3.660403e+01   2.954717e+02
  -2.096274e+02   7.472070e+01
  -1.966474e+02  -2.681116e+02
   3.791310e+01  -4.071296e+02
   2.851480e+02  -2.263371e+02
   3.066721e+02   7.597898e+01
   1.133994e+02   2.212234e+02
  -5.015204e+01   1.568839e+02
  -1.036011e+01   7.293541e+01
   1.277438e+02   1.247070e+02
   1.265118e+02   2.319173e+02
  -8.139668e+01   2.070268e+02
  -3.058188e+02   1.842029e+01
  -3.127476e+02  -1.653628e+02
  -7.850416e+01  -1.816646e+02
   1.863863e+02  -4.168588e+01
   2.476942e+02   1.220998e+02
   6.886322e+01   2.022378e+02
  -1.703937e+02   1.707859e+02
  -2.643843e+02   5.137353e+01
  -1.790410e+02  -9.076889e+01
  -5.394768e+01  -1.570346e+02
  -2.545844e+01  -9.519617e+01
  -8.415043e+01   1.405426e+01
  -1.171202e+02   1.694318e+01
  -5.352575e+01  -1.257957e+02
   6.637675e+01  -2.589748e+02
   1.481997e+02  -2.047059e+02
   1.324678e+02   3.413447e+00
   3.608001e+01   1.351113e+02
  -5.641916e+01   3.905967e+01
  -4.523424e+01  -1.595429e+02
   9.430242e+01  -2.006017e+02
   2.550823e+02  -2.237599e+00
   2.709395e+02   2.433230e+02
   8.358100e+01   2.996114e+02
  -1.756771e+02   1.433446e+02
  -3.005681e+02  -5.155969e+01
  -2.062373e+02  -1.346728e+02
   1.923856e+00  -1.092375e+02
   1.451547e+02  -5.766722e+01
   1.377724e+02  -2.395992e+01
   4.436159e+01  -5.093136e+00
  -5.921146e+00   1.364954e+00
   4.250530e+01   9.321902e-01
   1.111036e+02   2.645179e+01
   7.287157e+01   9.654460e+01
  -8.963185e+01   1.523709e+02
  -2.320804e+02   9.677698e+01
  -1.907013e+02  -7.720511e+01
   2.577060e+01  -2.383518e+02
   2.292746e+02  -2.391550e+02
   2.543042e+02  -7.305568e+01
   1.285137e+02   1.218636e+02
   1.048625e+01   2.112771e+02
  -9.562310e+00   1.860244e+02
   8.693443e+00   1.306422e+02
  -3.055451e+01   1.031977e+02
  -1.239663e+02   7.726132e+01
  -1.808487e+02   1.621633e+00
  -1.386701e+02  -1.086453e+02
  -2.659071e+01  -1.656288e+02
   7.627334e+01  -1.002226e+02
   1.094283e+02   5.046208e+01
   5.734641e+01   1.636435e+02
  -5.256858e+01   1.445775e+02
  -1.548626e+02   1.319669e+01
  -1.750693e+02  -1.250077e+02
  -9.227721e+01  -1.828963e+02
   2.806624e+01  -1.575059e+02
   9.559659e+01  -1.045936e+02
   9.861126e+01  -6.964784e+01
   1.151231e+02  -4.876978e+01
   1.961815e+02  -3.910101e+00
   2.661834e+02   9.096149e+01
   1.919359e+02   2.106692e+02
  -4.119523e+01   2.813807e+02
  -2.709212e+02   2.362995e+02
  -3.148221e+02   8.464637e+01
  -1.657923e+02  -7.869609e+01
   8.683060e+00  -1.492103e+02
   5.621891e+01  -1.064497e+02
  -1.352882e+01  -2.702146e+01
  -7.931839e+01  -7.398532e-01
  -6.071252e+01  -3.922344e+01
   1.361513e+01  -7.370834e+01
   6.446926e+01  -4.142613e+01
   4.586244e+01   3.486205e+01
  -2.662306e+01   6.315620e+01
  -9.300133e+01  -1.692520e+01
  -8.477094e+01  -1.539453e+02
   2.277420e+01  -2.188558e+02
   1.695752e+02  -1.307270e+02
   2.412266e+02   5.431237e+01
   1.716049e+02   1.910389e+02
   1.649328e+01   1.853238e+02
  -9.511900e+01   7.898488e+01
  -8.920008e+01  -7.486234e+00
  -1.417963e+01  -4.098473e+00
   2.400378e+01   4.982469e+01
  -1.877242e+01   6.960724e+01
  -8.335901e+01   2.636315e+01
  -8.306566e+01  -2.852135e+01
  -8.655296e+00  -3.083556e+01
   5.374806e+01   2.212033e+01
   1.508078e+01   6.977477e+01
  -1.102835e+02   5.156365e+01
  -2.036265e+02  -3.506896e+01
  -1.584698e+02  -1.336241e+02
   5.025362e+00  -1.758167e+02
   1.539409e+02  -1.337503e+02
   1.735451e+02  -4.060996e+01
   7.586976e+01   3.349427e+01
  -2.465182e+01   3.809907e+01
  -3.179387e+01  -1.059683e+01
   4.557117e+01  -4.200839e+01
   1.176581e+02  -3.929255e+00
   1.082258e+02   7.617636e+01
   2.337265e+01   1.169741e+02
  -6.121968e+01   7.589803e+01
  -7.477471e+01   1.043505e+00
  -1.922758e+01  -2.344166e+01
   3.219897e+01   2.512360e+01
   9.079948e+00   8.342925e+01
  -7.878389e+01   7.519182e+01
  -1.438714e+02  -7.474891e+00
  -1.094479e+02  -1.006261e+02
   6.469904e+00  -1.329514e+02
   1.050248e+02  -8.587991e+01
   1.064282e+02  -1.507475e+00
   2.802500e+01   5.606781e+01
  -4.199063e+01   5.268787e+01
  -4.120470e+01   1.078033e+01
   7.205635e+00  -1.554407e+01
   3.080609e+01  -1.091907e-01
  -6.816968e+00   2.346802e+01
  -6.552366e+01   1.394430e+00
  -7.196502e+01  -6.897932e+01
   2.199793e+00  -1.231655e+02
   1.072726e+02  -9.484263e+01
   1.589471e+02   1.035946e+01
   1.149880e+02   1.161061e+02
   1.220056e+01   1.474704e+02
  -6.998568e+01   9.567876e+01
  -8.292190e+01   1.619556e+01
  -4.771458e+01  -2.734945e+01
  -2.312041e+01  -1.769920e+01
  -3.805076e+01   7.991179e+00
  -6.114729e+01   1.070090e+00
  -4.044985e+01  -4.345728e+01
   3.013905e+01  -7.580306e+01
   9.221325e+01  -4.438426e+01
   7.729285e+01   3.796460e+01
  -1.904320e+01   9.286867e+01
  -1.210178e+02   5.367379e+01
  -1.360424e+02  -5.877250e+01
  -3.957919e+01  -1.486256e+02
   9.968355e+01  -1.367855e+02
   1.791468e+02  -3.510249e+01
   1.501544e+02   7.186118e+01
   5.241698e+01   1.114850e+02
  -3.271700e+01   8.429922e+01
  -5.863135e+01   4.661620e+01
  -4.447240e+01   4.303499e+01
  -3.874457e+01   6.115878e+01
  -6.189580e+01   5.080940e+01
  -8.715290e+01  -1.586738e+01
  -7.238212e+01  -1.057915e+02
  -6.498372e+00  -1.486208e+02
   7.342637e+01  -1.022316e+02
   1.093849e+02   3.683455e+00
   7.284460e+01   9.072310e+01
  -4.828738e+00   1.009015e+02
  -5.596564e+01   4.454993e+01
  -4.116459e+01  -1.821903e+01
   8.638711e+00  -3.929574e+01
   2.570247e+01  -2.264039e+01
  -1.405166e+01  -6.182320e+00
  -5.706163e+01  -1.330241e+01
  -3.339524e+01  -2.940922e+01
   5.373552e+01  -2.423213e+01
   1.204131e+02   1.106704e+01
   9.226604e+01   5.292691e+01
  -1.135233e+01   6.770240e+01
  -9.714194e+01   4.186677e+01
  -9.564290e+01  -6.016782e+00
  -2.493363e+01  -3.861852e+01
   4.131272e+01  -2.895112e+01
   5.155618e+01   1.475235e+01
   1.401358e+01   5.177753e+01
  -2.923394e+01   4.513262e+01
  -4.759431e+01   6.484284e-01
  -4.163969e+01  -3.631340e+01
  -3.168499e+01  -3.123945e+01
  -3.389231e+01  -3.029553e+00
  -4.212601e+01  -3.491458e+00
  -2.999171e+01  -5.178974e+01
   2.162186e+01  -1.026590e+02
   9.253108e+01  -9.267636e+01
   1.270074e+02  -1.438791e+01
   8.517379e+01   6.946723e+01
  -6.061416e+00   9.051134e+01
  -6.680855e+01   4.497333e+01
  -4.173286e+01  -7.769918e+00
   3.855271e+01  -1.153212e+01
   8.448995e+01   3.159256e+01
   3.960320e+01   7.182144e+01
  -6.035823e+01   6.639386e+01
  -1.242745e+02   1.764494e+01
  -9.769544e+01  -3.594579e+01
  -1.365050e+01  -5.598927e+01
   4.559392e+01  -3.332605e+01
   3.124987e+01   6.331807e+00
  -2.830384e+01   2.051489e+01
  -6.118177e+01  -1.501338e+01
  -2.505046e+01  -7.624564e+01
   5.236823e+01  -1.005562e+02
   1.019663e+02  -4.458025e+01
   7.993966e+01   6.023664e+01
   6.619313e+00   1.241945e+02
  -5.710626e+01   8.736579e+01
  -6.697280e+01  -1.339758e+01
  -2.880374e+01  -8.143232e+01
   1.718263e+01  -6.463609e+01
   3.648929e+01  -5.065375e+00
   2.558965e+01   2.305626e+01
   7.013257e+00   4.658848e+00
   5.237744e+00  -9.886972e+00
   2.284373e+01   1.790708e+01
   3.517467e+01   6.169263e+01
   1.302598e+01   6.760442e+01
  -4.171482e+01   2.406304e+01
  -8.621031e+01  -2.822479e+01
  -7.463463e+01  -4.881046e+01
  -1.026438e+01  -3.691431e+01
   5.052864e+01  -1.583064e+01
   5.574051e+01   1.617819e-01
   1.348585e+01   1.018849e+01
  -2.146459e+01   1.254378e+01
  -1.515734e+01   5.231545e+00
   7.211727e+00  -3.307465e+00
  -6.318787e-01  -2.187292e+00
  -4.055577e+01   8.375215e-01
  -6.085094e+01  -1.630305e+01
  -1.712107e+01  -5.454355e+01
   6.946145e+01  -7.611788e+01
   1.266629e+02  -4.107863e+01
   1.033059e+02   3.966718e+01
   1.923134e+01   1.043316e+02
  -5.815834e+01   1.013594e+02
  -7.977757e+01   4.242598e+01
  -5.227032e+01  -1.395248e+01
  -1.674442e+01  -2.685085e+01
  -3.301723e+00  -1.067784e+01
  -1.017034e+01  -7.954730e+00
  -1.690162e+01  -3.448446e+01
  -6.666891e+00  -6.051395e+01
   2.142747e+01  -4.618469e+01
   4.988207e+01   1.052276e+01
   5.090428e+01   6.610229e+01
   1.043190e+01   7.226331e+01
  -4.705008e+01   2.272285e+01
  -6.892975e+01  -4.104296e+01
  -2.688879e+01  -6.869769e+01
   4.290548e+01  -4.421277e+01
   7.058411e+01   6.306506e+00
   3.083515e+01   4.265494e+01
  -2.522963e+01   4.352367e+01
  -3.089658e+01   1.814707e+01
   1.418142e+01  -5.717237e+00
   4.467632e+01  -4.943825e+00
   1.264328e+01   1.940802e+01
  -5.293312e+01   4.050608e+01
  -8.286904e+01   2.889457e+01
  -4.910562e+01  -1.549197e+01
   1.038387e+01  -5.633034e+01
   4.259244e+01  -5.427809e+01
   3.344871e+01  -9.920686e+00
   5.857415e+00   3.312130e+01
  -1.607370e+01   3.331176e+01
  -2.431212e+01  -4.396510e+00
  -1.815323e+01  -3.599261e+01
   8.944170e-01  -2.903412e+01
   2.197200e+01   2.699642e+00
   2.766403e+01   1.966098e+01
   1.350783e+01   5.339763e+00
  -3.124322e+00  -1.563030e+01
  -3.708354e+00  -1.043571e+01
   6.141650e+00   1.938496e+01
   3.890025e+00   3.825894e+01
  -1.646912e+01   1.969827e+01
  -3.062937e+01  -2.014360e+01
  -1.310861e+01  -3.948099e+01
   2.543391e+01  -1.817888e+01
   4.308837e+01   2.084650e+01
   1.361028e+01   3.909039e+01
  -3.916197e+01   2.304269e+01
  -6.294261e+01  -8.277914e+00
  -3.311148e+01  -2.938852e+01
   1.998690e+01  -3.121936e+01
   4.406585e+01  -1.967920e+01
   2.121943e+01  -4.569382e+00
  -1.524120e+01   4.079854e+00
  -2.038089e+01  -1.038185e+00
   1.253666e+01  -1.387725e+01
   4.657530e+01  -1.282539e+01
