
 $NMID
 id='ANONYMOUS ', fmtdat='(2E16.6)'
 volume=1.0
 tramp=1.0
 $END
  -2.469254e+03  -9.031164e+01
  -1.633962e+03  -1.214460e+03
  -9.197702e+01  -1.530932e+03
   8.610914e+02  -1.039855e+03
   7.442480e+02  -3.105238e+02
   1.304042e+02   7.149890e+01
  -2.001049e+02  -4.848481e+01
  -3.244731e+01  -3.611965e+02
   3.143850e+02  -4.262416e+02
   4.735833e+02  -9.066959e+01
   3.364300e+02   3.594558e+02
   3.664559e+01   4.831409e+02
  -1.900808e+02   1.520574e+02
  -1.664670e+02  -2.956520e+02
   7.708432e+01  -4.041386e+02
   2.946210e+02  -7.228186e+01
   2.413883e+02   3.647608e+02
  -6.840569e+01   5.011397e+02
  -3.568915e+02   2.528216e+02
  -3.650711e+02  -1.118190e+02
  -1.247999e+02  -2.790738e+02
   8.053324e+01  -1.945129e+02
   3.347717e+01  -6.957062e+01
  -1.661435e+02  -1.077972e+02
  -2.094094e+02  -2.602226e+02
   5.233421e+01  -2.933554e+02
   3.981336e+02  -9.095143e+01
   4.591420e+02   1.850107e+02
   1.379473e+02   2.764169e+02
  -2.656282e+02   1.149487e+02
  -3.741374e+02  -1.371915e+02
  -1.214773e+02  -2.855956e+02
   2.205715e+02  -2.566602e+02
   3.573399e+02  -8.596985e+01
   2.443766e+02   1.249688e+02
   6.218565e+01   2.271166e+02
  -3.988544e+00   1.272199e+02
   7.087160e+01  -6.241399e+01
   1.623105e+02  -8.526190e+01
   1.319221e+02   1.467911e+02
  -3.552751e+01   3.831771e+02
  -2.072470e+02   3.140024e+02
  -2.236808e+02  -1.512880e+01
  -6.465447e+01  -2.262358e+02
   1.097383e+02  -7.922481e+01
   1.050115e+02   2.232321e+02
  -1.091760e+02   2.928712e+02
  -3.486410e+02   2.548218e+01
  -3.738783e+02  -3.058285e+02
  -1.174009e+02  -3.913229e+02
   2.355503e+02  -2.001449e+02
   4.029274e+02   5.837390e+01
   2.645876e+02   1.877067e+02
  -2.794936e+01   1.584116e+02
  -2.094177e+02   6.408284e+01
  -1.656480e+02   1.342992e+00
  -2.361126e+01   8.208340e-02
   1.976940e+01   2.629933e+01
  -7.586843e+01   2.327878e+01
  -1.642233e+02  -4.095746e+01
  -9.303155e+01  -1.408612e+02
   1.164415e+02  -1.953925e+02
   2.796112e+02  -1.214227e+02
   2.297105e+02   7.950523e+01
  -1.370316e+01   2.796866e+02
  -2.559253e+02   3.090997e+02
  -3.122117e+02   1.201312e+02
  -1.819913e+02  -1.437680e+02
  -2.659757e+01  -2.829141e+02
   2.259619e+01  -2.432647e+02
  -1.068492e+00  -1.448470e+02
   2.323186e+01  -1.071856e+02
   1.292763e+02  -1.040638e+02
   2.200137e+02  -3.193481e+01
   1.929239e+02   1.163327e+02
   5.702893e+01   2.137448e+02
  -8.901745e+01   1.457607e+02
  -1.517508e+02  -4.824152e+01
  -9.533370e+01  -2.057018e+02
   5.247804e+01  -1.969740e+02
   2.016853e+02  -3.602523e+01
   2.391086e+02   1.492863e+02
   1.270862e+02   2.370862e+02
  -3.912530e+01   2.054561e+02
  -1.249904e+02   1.260702e+02
  -1.159564e+02   7.694785e+01
  -1.290869e+02   6.371877e+01
  -2.381839e+02   2.492443e+01
  -3.395573e+02  -8.985114e+01
  -2.565899e+02  -2.512200e+02
   3.077073e+01  -3.581286e+02
   3.226705e+02  -3.173582e+02
   3.940150e+02  -1.298499e+02
   2.239746e+02   9.075607e+01
   2.668745e+00   1.995296e+02
  -7.593162e+01   1.467757e+02
   3.816609e+00   2.705122e+01
   1.024198e+02  -1.881965e+01
   9.508619e+01   4.313928e+01
  -7.136157e+00   1.080766e+02
  -9.276152e+01   6.768593e+01
  -7.444987e+01  -4.747492e+01
   3.139183e+01  -9.524340e+01
   1.272984e+02   1.086222e+01
   1.172325e+02   1.921296e+02
  -1.898453e+01   2.769817e+02
  -2.017985e+02   1.711412e+02
  -2.986680e+02  -5.244047e+01
  -2.275039e+02  -2.241099e+02
  -3.974490e+01  -2.311281e+02
   1.125428e+02  -1.101127e+02
   1.193105e+02   2.542728e+00
   2.217295e+01   9.923246e+00
  -3.868294e+01  -5.726873e+01
   1.277489e+01  -9.318826e+01
   1.052387e+02  -4.546870e+01
   1.140504e+02   2.979454e+01
   1.761838e+01   4.390217e+01
  -7.011222e+01  -1.786247e+01
  -2.810733e+01  -8.310397e+01
   1.293171e+02  -7.247012e+01
   2.540571e+02   2.576149e+01
   2.098383e+02   1.514968e+02
   1.199980e+01   2.209129e+02
  -1.815365e+02   1.844977e+02
  -2.206922e+02   6.704525e+01
  -1.042693e+02  -4.098109e+01
   2.949752e+01  -5.686058e+01
   4.754053e+01   1.013462e+01
  -5.136506e+01   6.165508e+01
  -1.516395e+02   1.725311e+01
  -1.463618e+02  -9.053001e+01
  -3.805109e+01  -1.510056e+02
   7.518186e+01  -1.037564e+02
   9.905177e+01  -7.318280e+00
   3.086803e+01   3.115179e+01
  -4.007572e+01  -2.294077e+01
  -2.049542e+01  -9.837337e+01
   8.779977e+01  -9.932766e+01
   1.786368e+02  -3.992984e+00
   1.461781e+02   1.174254e+02
   1.784299e+00   1.700211e+02
  -1.295311e+02   1.166949e+02
  -1.378203e+02   5.808415e+00
  -3.955891e+01  -7.413610e+01
   5.194307e+01  -7.222295e+01
   5.469106e+01  -1.648404e+01
  -4.073386e+00   2.141857e+01
  -3.557828e+01   5.366011e+00
   6.108017e+00  -2.558182e+01
   7.699344e+01  -4.438199e+00
   9.084118e+01   7.846645e+01
   6.846315e+00   1.503180e+02
  -1.244660e+02   1.260433e+02
  -1.994566e+02   7.542088e-01
  -1.539131e+02  -1.369696e+02
  -2.476340e+01  -1.864862e+02
   8.452449e+01  -1.260868e+02
   1.043742e+02  -2.390206e+01
   5.989051e+01   3.397608e+01
   2.829487e+01   2.207484e+01
   4.646873e+01  -1.189380e+01
   7.453127e+01  -5.393884e+00
   5.030770e+01   4.911188e+01
  -3.240703e+01   9.209532e+01
  -1.069497e+02   5.947200e+01
  -9.447352e+01  -3.914340e+01
   1.586274e+01  -1.129006e+02
   1.425026e+02  -7.500894e+01
   1.726940e+02   6.103108e+01
   6.317027e+01   1.818115e+02
  -1.124148e+02   1.802662e+02
  -2.230666e+02   5.849005e+01
  -1.960023e+02  -8.073948e+01
  -7.455865e+01  -1.391799e+02
   3.626324e+01  -1.099952e+02
   7.246355e+01  -6.253748e+01
   5.545484e+01  -5.578055e+01
   4.663065e+01  -7.740402e+01
   7.452096e+01  -6.581518e+01
   1.089086e+02   1.534332e+01
   9.650181e+01   1.280370e+02
   1.772933e+01   1.860222e+02
  -8.583235e+01   1.339196e+02
  -1.391688e+02   3.780798e+00
  -9.947905e+01  -1.086832e+02
  -2.145292e+00  -1.282219e+02
   6.632894e+01  -6.250946e+01
   5.310837e+01   1.663455e+01
  -5.612809e+00   4.774699e+01
  -2.689650e+01   3.071398e+01
   1.955084e+01   9.021546e+00
   7.056671e+01   1.402489e+01
   4.239955e+01   3.394689e+01
  -6.331374e+01   3.347688e+01
  -1.479111e+02  -4.331237e+00
  -1.192067e+02  -5.771711e+01
   5.716651e+00  -8.433226e+01
   1.157874e+02  -5.935561e+01
   1.205330e+02  -1.307968e-01
   3.518123e+01   4.493434e+01
  -4.952460e+01   3.716491e+01
  -6.476296e+01  -1.543837e+01
  -1.834705e+01  -6.183370e+01
   3.554048e+01  -5.556722e+01
   5.788311e+01  -2.945111e+00
   5.105145e+01   4.178562e+01
   4.050509e+01   3.649048e+01
   4.391213e+01   2.344485e+00
   5.319853e+01   1.858625e+00
   3.876184e+01   6.114500e+01
  -2.179572e+01   1.274815e+02
  -1.076441e+02   1.208975e+02
  -1.540412e+02   2.666434e+01
  -1.091160e+02  -8.034532e+01
   6.352182e-01  -1.121832e+02
   7.869110e+01  -5.883834e+01
   5.173998e+01   8.077307e+00
  -4.772538e+01   1.648184e+01
  -1.082932e+02  -3.527363e+01
  -5.500873e+01  -8.817608e+01
   7.113437e+01  -8.769073e+01
   1.555685e+02  -3.121321e+01
   1.264347e+02   3.798587e+01
   2.189698e+01   7.016066e+01
  -5.499961e+01   4.683477e+01
  -4.024319e+01  -4.091596e+00
   3.353774e+01  -2.645340e+01
   7.662947e+01   1.575422e+01
   3.387258e+01   9.407486e+01
  -6.242437e+01   1.274421e+02
  -1.266171e+02   5.892239e+01
  -1.027690e+02  -7.294897e+01
  -1.359271e+01  -1.558021e+02
   6.751927e+01  -1.132330e+02
   8.513353e+01   1.179599e+01
   4.233486e+01   1.001288e+02
  -1.533357e+01   8.366159e+01
  -4.444332e+01   1.022076e+01
  -3.502292e+01  -2.761476e+01
  -1.108726e+01  -6.398958e+00
  -5.750085e+00   1.354765e+01
  -2.781460e+01  -1.889092e+01
  -4.723235e+01  -7.464766e+01
  -2.223330e+01  -8.565248e+01
   4.891324e+01  -3.390008e+01
   1.099625e+02   3.108544e+01
   9.779378e+01   5.773141e+01
   1.505545e+01   4.471861e+01
  -6.378774e+01   2.126400e+01
  -7.037988e+01   3.315770e+00
  -1.625491e+01  -1.047730e+01
   2.719040e+01  -1.681828e+01
   1.783897e+01  -9.091689e+00
  -1.017921e+01   3.471023e+00
   1.311053e+00   3.744272e+00
   5.209543e+01  -1.566210e+00
   7.648609e+01   1.737764e+01
   2.140734e+01   6.602225e+01
  -8.490964e+01   9.721603e+01
  -1.548063e+02   5.668862e+01
  -1.280124e+02  -4.506745e+01
  -2.804956e+01  -1.294828e+02
   6.633177e+01  -1.287812e+02
   9.620420e+01  -5.595640e+01
   6.592575e+01   1.511657e+01
   2.225244e+01   3.189650e+01
   3.789460e+00   1.171003e+01
   1.264460e+01   8.055092e+00
   2.400275e+01   4.157302e+01
   1.296083e+01   7.539594e+01
  -2.418475e+01   5.888531e+01
  -6.328802e+01  -1.145426e+01
  -6.603273e+01  -8.117715e+01
  -1.450650e+01  -8.939024e+01
   5.867011e+01  -2.841220e+01
   8.691001e+01   4.981519e+01
   3.539403e+01   8.385095e+01
  -5.111174e+01   5.531427e+01
  -8.677614e+01  -4.559129e+00
  -3.989246e+01  -4.935379e+01
   2.800639e+01  -5.355871e+01
   3.544711e+01  -2.480884e+01
  -1.883360e+01   6.018394e+00
  -5.560856e+01   8.006178e+00
  -1.621472e+01  -2.277915e+01
   6.413736e+01  -5.356608e+01
   1.011128e+02  -4.234866e+01
   6.085577e+01   1.491387e+01
  -1.026552e+01   7.028168e+01
  -4.877528e+01   6.964403e+01
  -3.880809e+01   1.314869e+01
  -7.482009e+00  -4.146088e+01
   1.835211e+01  -4.105518e+01
   2.988396e+01   6.021104e+00
   2.413012e+01   4.387069e+01
   5.039675e-01   3.452457e+01
  -2.725564e+01  -2.992087e+00
  -3.541554e+01  -2.186331e+01
  -1.739792e+01  -5.034253e+00
   4.456982e+00   1.776866e+01
   6.113940e+00   1.018331e+01
  -5.928832e+00  -2.417365e+01
  -3.971566e+00  -4.455096e+01
   1.965455e+01  -2.177326e+01
   3.608780e+01   2.503377e+01
   1.492776e+01   4.773546e+01
  -3.139861e+01   2.251683e+01
  -5.299124e+01  -2.470066e+01
  -1.767014e+01  -4.833174e+01
   4.703095e+01  -3.053993e+01
   7.767586e+01   7.565735e+00
   4.242652e+01   3.497017e+01
  -2.295897e+01   3.890519e+01
  -5.330731e+01   2.538155e+01
  -2.498126e+01   6.711614e+00
   2.044051e+01  -3.930234e+00
   2.576494e+01   2.702581e+00
  -1.712005e+01   1.878312e+01
  -6.037884e+01   1.719395e+01
