
 $NMID
 id='ANONYMOUS ', fmtdat='(2E16.6)'
 volume=1.0
 tramp=1.0
 $END
   2.578725e+03   1.151992e+02
   1.675415e+03   1.337062e+03
   5.871053e+00   1.625378e+03
  -9.810344e+02   1.013843e+03
  -7.784193e+02   2.125001e+02
  -7.458801e+01  -1.298393e+02
   2.580193e+02   7.047750e+01
   3.223332e+01   4.137689e+02
  -3.561919e+02   4.494662e+02
  -5.102475e+02   7.007268e+01
  -3.403270e+02  -4.019977e+02
  -8.114164e+00  -5.153404e+02
   2.280142e+02  -1.504007e+02
   1.812035e+02   3.257200e+02
  -9.622622e+01   4.276090e+02
  -3.191143e+02   6.267639e+01
  -2.363264e+02  -3.914048e+02
   9.960031e+01  -5.081054e+02
   3.806055e+02  -2.308764e+02
   3.635065e+02   1.394438e+02
   1.096407e+02   2.935704e+02
  -9.644022e+01   1.982173e+02
  -5.017742e+01   6.710789e+01
   1.528288e+02   9.699646e+01
   2.116360e+02   2.473282e+02
  -3.768908e+01   2.937326e+02
  -3.939069e+02   1.046279e+02
  -4.760983e+02  -1.794959e+02
  -1.565096e+02  -2.923555e+02
   2.680596e+02  -1.372475e+02
   3.923457e+02   1.308250e+02
   1.332389e+02   2.962804e+02
  -2.247144e+02   2.686453e+02
  -3.692051e+02   8.775741e+01
  -2.531082e+02  -1.350522e+02
  -6.041839e+01  -2.452292e+02
   1.981726e+01  -1.417077e+02
  -4.954237e+01   6.684778e+01
  -1.557914e+02   1.071769e+02
  -1.480695e+02  -1.322594e+02
   1.810104e+01  -3.949239e+02
   2.145666e+02  -3.366885e+02
   2.499279e+02   1.218570e+01
   7.926361e+01   2.470287e+02
  -1.200378e+02   9.763846e+01
  -1.212911e+02  -2.255303e+02
   1.077706e+02  -3.049856e+02
   3.586978e+02  -2.797120e+01
   3.794195e+02   3.160297e+02
   1.122387e+02   4.037910e+02
  -2.467821e+02   2.051279e+02
  -4.139833e+02  -6.591120e+01
  -2.682621e+02  -2.061269e+02
   3.788513e+01  -1.743598e+02
   2.271179e+02  -6.128415e+01
   1.735480e+02   1.753741e+01
   1.425944e+01   1.203290e+01
  -3.121292e+01  -3.405752e+01
   7.916981e+01  -3.559651e+01
   1.760341e+02   4.399987e+01
   9.482496e+01   1.532604e+02
  -1.262199e+02   1.962210e+02
  -2.844401e+02   1.088005e+02
  -2.216580e+02  -8.631541e+01
   2.382154e+01  -2.711411e+02
   2.581901e+02  -2.978038e+02
   3.112329e+02  -1.176765e+02
   1.837911e+02   1.441242e+02
   2.543606e+01   2.907702e+02
  -3.370456e+01   2.524107e+02
  -1.353256e+01   1.429394e+02
  -2.866422e+01   9.565887e+01
  -1.239682e+02   9.566230e+01
  -2.137413e+02   3.237390e+01
  -1.923158e+02  -1.133478e+02
  -5.942774e+01  -2.147043e+02
   8.820007e+01  -1.496376e+02
   1.530246e+02   4.561169e+01
   9.697103e+01   2.061695e+02
  -5.197704e+01   1.995875e+02
  -2.033133e+02   3.749991e+01
  -2.415018e+02  -1.529314e+02
  -1.256291e+02  -2.452288e+02
   4.713730e+01  -2.108000e+02
   1.351110e+02  -1.224818e+02
   1.208653e+02  -6.754687e+01
   1.273400e+02  -5.612274e+01
   2.342657e+02  -2.070396e+01
   3.361946e+02   9.452346e+01
   2.523039e+02   2.561045e+02
  -3.665718e+01   3.581596e+02
  -3.281330e+02   3.117787e+02
  -3.980687e+02   1.241749e+02
  -2.271197e+02  -9.375618e+01
  -3.001985e+00  -2.031989e+02
   8.117104e+01  -1.521205e+02
   3.819683e+00  -2.881261e+01
  -1.002205e+02   2.286582e+01
  -9.982878e+01  -4.014429e+01
   3.669548e+00  -1.121876e+02
   9.670643e+01  -7.388921e+01
   8.072796e+01   4.778197e+01
  -3.049193e+01   1.005485e+02
  -1.296421e+02  -9.453512e+00
  -1.148716e+02  -1.962526e+02
   2.625131e+01  -2.784783e+02
   2.057098e+02  -1.650786e+02
   2.951622e+02   6.065622e+01
   2.219061e+02   2.275410e+02
   3.750574e+01   2.303159e+02
  -1.131066e+02   1.092733e+02
  -1.216993e+02  -2.847259e+00
  -2.499856e+01  -1.144609e+01
   3.856335e+01   5.539946e+01
  -1.120874e+01   9.314050e+01
  -1.053890e+02   4.653757e+01
  -1.163819e+02  -2.991849e+01
  -1.998772e+01  -4.523552e+01
   6.863253e+01   1.664920e+01
   2.724417e+01   8.130635e+01
  -1.287171e+02   6.862231e+01
  -2.511749e+02  -3.018069e+01
  -2.063017e+02  -1.532779e+02
  -9.971502e+00  -2.196608e+02
   1.827927e+02  -1.826811e+02
   2.231944e+02  -6.577539e+01
   1.071170e+02   4.285609e+01
  -2.917328e+01   5.935596e+01
  -4.968893e+01  -8.927112e+00
   5.001904e+01  -6.208815e+01
   1.525655e+02  -1.696333e+01
   1.472668e+02   9.296963e+01
   3.686873e+01   1.538353e+02
  -7.748214e+01   1.048692e+02
  -1.009993e+02   7.067587e+00
  -3.297037e+01  -3.159029e+01
   3.724374e+01   2.190338e+01
   1.836175e+01   9.585280e+01
  -8.772649e+01   9.598349e+01
  -1.770309e+02   1.163856e+00
  -1.443386e+02  -1.193788e+02
   5.581399e-01  -1.709836e+02
   1.328136e+02  -1.158016e+02
   1.405209e+02  -2.973414e+00
   3.980040e+01   7.693946e+01
  -5.362874e+01   7.318667e+01
  -5.640095e+01   1.642849e+01
   2.681264e+00  -2.087324e+01
   3.376222e+01  -5.035829e+00
  -7.421824e+00   2.365213e+01
  -7.568912e+01   9.328459e-01
  -8.698497e+01  -8.021237e+01
  -3.195013e+00  -1.486213e+02
   1.257568e+02  -1.226180e+02
   1.986022e+02   2.289497e+00
   1.517196e+02   1.393452e+02
   2.145309e+01   1.881080e+02
  -8.795564e+01   1.258039e+02
  -1.059870e+02   2.145125e+01
  -5.932581e+01  -3.674349e+01
  -2.753569e+01  -2.368259e+01
  -4.665286e+01   1.052312e+01
  -7.393265e+01   3.330872e+00
  -4.741761e+01  -5.003449e+01
   3.547255e+01  -8.957054e+01
   1.067202e+02  -5.498631e+01
   9.103864e+01   4.115958e+01
  -1.874865e+01   1.103969e+02
  -1.421272e+02   7.055351e+01
  -1.699709e+02  -6.373520e+01
  -6.035735e+01  -1.815833e+02
   1.143487e+02  -1.779873e+02
   2.240554e+02  -5.511656e+01
   1.957504e+02   8.428187e+01
   7.303548e+01   1.415122e+02
  -3.830946e+01   1.103405e+02
  -7.451045e+01   6.169916e+01
  -5.788162e+01   5.492450e+01
  -4.951787e+01   7.636414e+01
  -7.655232e+01   6.366653e+01
  -1.084677e+02  -1.841611e+01
  -9.352354e+01  -1.305180e+02
  -1.384654e+01  -1.866403e+02
   8.862853e+01  -1.327233e+02
   1.397160e+02  -1.808606e+00
   9.805110e+01   1.101718e+02
   4.317291e-01   1.284898e+02
  -6.657366e+01   6.205670e+01
  -5.201355e+01  -1.637214e+01
   6.170171e+00  -4.621369e+01
   2.596518e+01  -2.942532e+01
  -2.051570e+01  -9.854049e+00
  -6.993386e+01  -1.638695e+01
  -4.102172e+01  -3.494761e+01
   6.326007e+01  -3.139204e+01
   1.461206e+02   7.777913e+00
   1.174628e+02   5.926999e+01
  -6.296414e+00   8.275157e+01
  -1.157855e+02   5.634060e+01
  -1.203629e+02  -1.795628e+00
  -3.431483e+01  -4.465950e+01
   5.067962e+01  -3.538779e+01
   6.427000e+01   1.713687e+01
   1.554539e+01   6.214452e+01
  -3.817345e+01   5.426638e+01
  -5.760342e+01   9.249979e-01
  -4.865302e+01  -4.342397e+01
  -3.915631e+01  -3.747125e+01
  -4.455466e+01  -3.228663e+00
  -5.332724e+01  -3.016814e+00
  -3.622321e+01  -6.190848e+01
   2.567738e+01  -1.265265e+02
   1.097557e+02  -1.176673e+02
   1.530764e+02  -2.249467e+01
   1.064140e+02   8.282923e+01
  -3.024449e+00   1.113741e+02
  -7.969572e+01   5.598916e+01
  -5.149005e+01  -9.841175e+00
   4.829520e+01  -1.535467e+01
   1.080762e+02   3.792791e+01
   5.365252e+01   8.950012e+01
  -7.282400e+01   8.642367e+01
  -1.564513e+02   2.859350e+01
  -1.261730e+02  -3.998518e+01
  -2.109284e+01  -7.070917e+01
   5.549577e+01  -4.650411e+01
   3.996886e+01   4.096419e+00
  -3.418439e+01   2.520632e+01
  -7.621976e+01  -1.798647e+01
  -3.103799e+01  -9.556487e+01
   6.691196e+01  -1.263611e+02
   1.295323e+02  -5.542475e+01
   1.015127e+02   7.650518e+01
   9.443844e+00   1.571565e+02
  -7.055830e+01   1.123397e+02
  -8.491256e+01  -1.327549e+01
  -4.059794e+01  -1.008399e+02
   1.596691e+01  -8.346233e+01
   4.395122e+01  -9.602339e+00
   3.510998e+01   2.814078e+01
   1.196614e+01   6.497911e+00
   5.764918e+00  -1.369663e+01
   2.616974e+01   1.923821e+01
   4.528126e+01   7.578630e+01
   2.147027e+01   8.645891e+01
  -4.873178e+01   3.281433e+01
  -1.097730e+02  -3.389440e+01
  -9.742892e+01  -6.008220e+01
  -1.382169e+01  -4.480147e+01
   6.532545e+01  -1.963442e+01
   7.072634e+01  -1.930302e+00
   1.519516e+01   1.064231e+01
  -2.805503e+01   1.643588e+01
  -1.734019e+01   9.087411e+00
   1.106077e+01  -3.186770e+00
  -1.644003e+00  -4.065026e+00
  -5.321318e+01   2.634017e-02
  -7.610794e+01  -1.955431e+01
  -1.838309e+01  -6.700707e+01
   8.876849e+01  -9.523632e+01
   1.564457e+02  -5.202434e+01
   1.262093e+02   4.961591e+01
   2.428835e+01   1.309094e+02
  -6.963795e+01   1.267480e+02
  -9.770719e+01   5.282189e+01
  -6.574780e+01  -1.702636e+01
  -2.124926e+01  -3.226857e+01
  -2.781028e+00  -1.152879e+01
  -1.193102e+01  -8.023183e+00
  -2.322089e+01  -4.176053e+01
  -1.163083e+01  -7.555437e+01
   2.566958e+01  -5.836748e+01
   6.352438e+01   1.333402e+01
   6.403971e+01   8.378038e+01
   1.129524e+01   9.043323e+01
  -6.056646e+01   2.634685e+01
  -8.587887e+01  -5.330492e+01
  -3.250045e+01  -8.520057e+01
   5.314710e+01  -5.326877e+01
   8.629810e+01   7.395111e+00
   3.777621e+01   4.985113e+01
  -2.954815e+01   5.183506e+01
  -3.520666e+01   2.356152e+01
   2.004441e+01  -5.230016e+00
   5.608494e+01  -6.419852e+00
   1.523012e+01   2.310291e+01
  -6.564545e+01   5.213501e+01
  -1.015742e+02   4.030901e+01
  -5.962464e+01  -1.616072e+01
   1.235007e+01  -6.999401e+01
   5.018143e+01  -6.796992e+01
   3.857982e+01  -1.116119e+01
   5.954200e+00   4.229832e+01
  -1.982124e+01   4.015463e+01
  -3.000110e+01  -7.658059e+00
  -2.285514e+01  -4.464347e+01
   8.181232e-01  -3.391901e+01
   2.731496e+01   4.072010e+00
   3.453340e+01   2.240220e+01
   1.714969e+01   5.083665e+00
  -3.491036e+00  -1.740005e+01
  -5.509099e+00  -9.130649e+00
   4.372402e+00   2.520747e+01
   9.623299e-01   4.438352e+01
  -2.127219e+01   1.997460e+01
  -3.471256e+01  -2.741119e+01
  -1.219341e+01  -4.881317e+01
   3.265868e+01  -2.134466e+01
   5.199422e+01   2.696131e+01
   1.600986e+01   4.932843e+01
  -4.773824e+01   2.910397e+01
  -7.726638e+01  -1.013684e+01
  -4.143700e+01  -3.625555e+01
   2.416926e+01  -3.787439e+01
   5.420570e+01  -2.331765e+01
   2.475751e+01  -5.703771e+00
  -2.169991e+01   3.111945e+00
  -2.649413e+01  -4.219675e+00
   1.823855e+01  -1.925151e+01
   6.234151e+01  -1.596548e+01
