
 $NMID
 id='ANONYMOUS ', fmtdat='(2E16.6)'
 volume=1.0
 tramp=1.0
 $END
   2.759713e+03   8.378396e+01
   1.866384e+03   1.308337e+03
   1.818422e+02   1.711640e+03
  -9.155818e+02   1.240050e+03
  -8.604954e+02   4.354583e+02
  -2.098456e+02  -5.327298e+01
   1.898402e+02   2.449746e+01
   4.783819e+01   3.742727e+02
  -3.272214e+02   4.798180e+02
  -5.226415e+02   1.251312e+02
  -3.914844e+02  -3.828198e+02
  -6.790264e+01  -5.387464e+02
   1.909134e+02  -1.845757e+02
   1.846301e+02   3.141714e+02
  -7.186811e+01   4.507428e+02
  -3.230974e+02   9.403699e+01
  -2.847164e+02  -4.028873e+02
   5.815977e+01  -5.789304e+02
   4.010509e+02  -3.105393e+02
   4.276230e+02   1.116591e+02
   1.562409e+02   3.153540e+02
  -8.138045e+01   2.243162e+02
  -2.681162e+01   8.627639e+01
   1.973331e+02   1.383778e+02
   2.323069e+02   3.115534e+02
  -7.533781e+01   3.324181e+02
  -4.586498e+02   8.768313e+01
  -5.109209e+02  -2.181057e+02
  -1.450458e+02  -3.018269e+02
   2.987986e+02  -1.119552e+02
   4.124858e+02   1.623691e+02
   1.299034e+02   3.182658e+02
  -2.502549e+02   2.842047e+02
  -4.022342e+02   9.641705e+01
  -2.755049e+02  -1.363215e+02
  -7.523904e+01  -2.481719e+02
  -1.048011e+01  -1.392654e+02
  -9.797936e+01   6.140910e+01
  -1.867836e+02   7.686236e+01
  -1.330550e+02  -1.774860e+02
   5.611811e+01  -4.261539e+02
   2.301013e+02  -3.427391e+02
   2.354859e+02   1.511194e+01
   6.584935e+01   2.404541e+02
  -1.138682e+02   7.807595e+01
  -1.057846e+02  -2.517019e+02
   1.269155e+02  -3.255720e+02
   3.927188e+02  -2.587229e+01
   4.248223e+02   3.467877e+02
   1.378416e+02   4.431937e+02
  -2.631353e+02   2.265543e+02
  -4.561659e+02  -6.302985e+01
  -3.043415e+02  -2.035534e+02
   2.173473e+01  -1.720366e+02
   2.284513e+02  -7.834224e+01
   1.896260e+02  -1.670784e+01
   3.799370e+01  -6.785415e+00
  -1.552138e+01  -2.112289e+01
   8.148225e+01  -1.699985e+01
   1.799057e+02   4.340536e+01
   1.073552e+02   1.528534e+02
  -1.283734e+02   2.254431e+02
  -3.228884e+02   1.476156e+02
  -2.715906e+02  -9.115827e+01
   1.358762e+01  -3.312177e+02
   2.996143e+02  -3.620420e+02
   3.621244e+02  -1.360258e+02
   2.062672e+02   1.668486e+02
   3.024318e+01   3.198923e+02
  -1.760582e+01   2.754473e+02
   1.049309e+01   1.722709e+02
  -2.698049e+01   1.336977e+02
  -1.565816e+02   1.232971e+02
  -2.583566e+02   3.191311e+01
  -2.201530e+02  -1.387500e+02
  -6.133912e+01  -2.451640e+02
   1.037624e+02  -1.632830e+02
   1.722324e+02   5.909727e+01
   1.059709e+02   2.369878e+02
  -6.246232e+01   2.237420e+02
  -2.307611e+02   3.824603e+01
  -2.723628e+02  -1.711244e+02
  -1.467279e+02  -2.682651e+02
   3.968207e+01  -2.338934e+02
   1.383250e+02  -1.491886e+02
   1.330976e+02  -9.593440e+01
   1.528139e+02  -7.724841e+01
   2.786166e+02  -2.798410e+01
   3.935107e+02   1.047914e+02
   2.968660e+02   2.895028e+02
  -3.513439e+01   4.132525e+02
  -3.723556e+02   3.670837e+02
  -4.532654e+02   1.501694e+02
  -2.548957e+02  -1.039034e+02
  -1.378597e+00  -2.265713e+02
   8.350146e+01  -1.651514e+02
  -1.061240e+01  -3.191844e+01
  -1.186650e+02   1.655853e+01
  -1.042517e+02  -5.184276e+01
   1.113593e+01  -1.200084e+02
   1.026737e+02  -7.291170e+01
   8.016837e+01   5.352392e+01
  -3.650938e+01   1.047205e+02
  -1.440572e+02  -1.452376e+01
  -1.355323e+02  -2.198685e+02
   1.906723e+01  -3.192698e+02
   2.328659e+02  -2.003087e+02
   3.480422e+02   5.847765e+01
   2.643710e+02   2.594786e+02
   4.442267e+01   2.676599e+02
  -1.306182e+02   1.261138e+02
  -1.354166e+02  -3.482167e+00
  -2.357231e+01  -9.685808e+00
   4.336478e+01   6.787717e+01
  -1.710150e+01   1.066458e+02
  -1.212097e+02   5.020515e+01
  -1.290239e+02  -3.492791e+01
  -1.822249e+01  -4.899862e+01
   8.127142e+01   2.279282e+01
   3.149006e+01   9.762066e+01
  -1.512217e+02   8.466180e+01
  -2.954866e+02  -3.007273e+01
  -2.428432e+02  -1.764542e+02
  -1.233883e+01  -2.558559e+02
   2.106327e+02  -2.118079e+02
   2.530881e+02  -7.612174e+01
   1.177168e+02   4.614191e+01
  -3.419076e+01   6.297886e+01
  -5.252232e+01  -1.259882e+01
   6.079790e+01  -6.957397e+01
   1.740093e+02  -1.846962e+01
   1.672306e+02   1.037617e+02
   4.364789e+01   1.722770e+02
  -8.563165e+01   1.182013e+02
  -1.125670e+02   7.945030e+00
  -3.358249e+01  -3.527880e+01
   4.777664e+01   2.850570e+01
   2.334965e+01   1.160243e+02
  -1.032306e+02   1.158197e+02
  -2.076277e+02   4.184666e+00
  -1.687287e+02  -1.358585e+02
  -2.086430e+00  -1.955138e+02
   1.481010e+02  -1.342845e+02
   1.572783e+02  -7.992712e+00
   4.519284e+01   8.348320e+01
  -5.903813e+01   8.215636e+01
  -6.177996e+01   1.881468e+01
   6.208272e+00  -2.463127e+01
   4.253027e+01  -5.485620e+00
  -6.842610e+00   3.125559e+01
  -9.065122e+01   6.571254e+00
  -1.070899e+02  -9.108920e+01
  -8.443140e+00  -1.753877e+02
   1.446821e+02  -1.465503e+02
   2.310035e+02  -5.837592e-01
   1.777860e+02   1.582027e+02
   2.927271e+01   2.144882e+02
  -9.615029e+01   1.452013e+02
  -1.197791e+02   2.860947e+01
  -6.970750e+01  -3.778810e+01
  -3.333382e+01  -2.468209e+01
  -5.384496e+01   1.424956e+01
  -8.686461e+01   6.755100e+00
  -5.982276e+01  -5.720078e+01
   3.669499e+01  -1.084153e+02
   1.252149e+02  -7.059459e+01
   1.114951e+02   4.556275e+01
  -1.805510e+01   1.324869e+02
  -1.664147e+02   8.796535e+01
  -2.008409e+02  -7.096095e+01
  -7.259933e+01  -2.109117e+02
   1.306535e+02  -2.083494e+02
   2.575070e+02  -6.749379e+01
   2.256873e+02   9.256080e+01
   8.592336e+01   1.596129e+02
  -4.135320e+01   1.263961e+02
  -8.274642e+01   7.229258e+01
  -6.279943e+01   6.484987e+01
  -5.260078e+01   9.011024e+01
  -8.553475e+01   7.707337e+01
  -1.263164e+02  -1.667960e+01
  -1.125011e+02  -1.473558e+02
  -2.135814e+01  -2.148251e+02
   9.851233e+01  -1.547425e+02
   1.602706e+02  -4.352914e+00
   1.146554e+02   1.254786e+02
   2.322499e+00   1.478058e+02
  -7.701023e+01   7.152293e+01
  -6.168705e+01  -2.030776e+01
   7.034859e+00  -5.623367e+01
   3.242264e+01  -3.576310e+01
  -2.184918e+01  -9.687520e+00
  -8.217562e+01  -1.530821e+01
  -4.973395e+01  -3.916961e+01
   7.387959e+01  -3.937141e+01
   1.724979e+02   4.574917e+00
   1.382477e+02   6.712715e+01
  -7.600872e+00   9.836490e+01
  -1.347863e+02   6.924877e+01
  -1.393427e+02   1.454526e-01
  -4.052963e+01  -5.258914e+01
   5.701597e+01  -4.388012e+01
   7.518370e+01   1.734996e+01
   2.265529e+01   7.190288e+01
  -3.984835e+01   6.526091e+01
  -6.741683e+01   4.198892e+00
  -6.057996e+01  -4.807535e+01
  -4.749449e+01  -4.208012e+01
  -5.022763e+01  -2.356060e+00
  -6.140177e+01  -1.838736e+00
  -4.606812e+01  -7.092902e+01
   2.383438e+01  -1.482392e+02
   1.245601e+02  -1.409140e+02
   1.794803e+02  -3.181367e+01
   1.273822e+02   9.256557e+01
  -4.454388e-01   1.303649e+02
  -9.125802e+01   6.926262e+01
  -6.011803e+01  -8.600806e+00
   5.497264e+01  -1.942756e+01
   1.250675e+02   3.986944e+01
   6.364519e+01   1.014490e+02
  -8.193150e+01   1.014856e+02
  -1.793912e+02   3.631795e+01
  -1.457555e+02  -4.374561e+01
  -2.511840e+01  -8.077552e+01
   6.354960e+01  -5.360389e+01
   4.646537e+01   5.276520e+00
  -3.874652e+01   3.119075e+01
  -8.891546e+01  -1.741262e+01
  -4.047675e+01  -1.082589e+02
   7.012872e+01  -1.479635e+02
   1.450606e+02  -6.982069e+01
   1.193262e+02   8.272072e+01
   1.739009e+01   1.794988e+02
  -7.691151e+01   1.309976e+02
  -9.838596e+01  -1.350802e+01
  -4.904715e+01  -1.156370e+02
   1.822492e+01  -9.639368e+01
   5.181921e+01  -1.156262e+01
   4.002976e+01   3.175855e+01
   1.200662e+01   7.172377e+00
   6.728355e+00  -1.540063e+01
   3.316869e+01   2.226270e+01
   5.528568e+01   8.610423e+01
   2.535429e+01   9.838561e+01
  -5.713840e+01   3.920704e+01
  -1.270611e+02  -3.494133e+01
  -1.127437e+02  -6.585844e+01
  -1.777124e+01  -5.191239e+01
   7.288346e+01  -2.540209e+01
   8.112256e+01  -4.143842e+00
   1.945826e+01   1.242097e+01
  -3.090935e+01   1.955972e+01
  -2.103145e+01   1.010245e+01
   1.113366e+01  -4.341282e+00
  -1.288164e+00  -3.975456e+00
  -5.949752e+01   2.696045e+00
  -8.868982e+01  -1.931370e+01
  -2.649059e+01  -7.628701e+01
   9.637554e+01  -1.134498e+02
   1.788034e+02  -6.747017e+01
   1.494237e+02   5.032282e+01
   3.405875e+01   1.492323e+02
  -7.584582e+01   1.498790e+02
  -1.110548e+02   6.609792e+01
  -7.633485e+01  -1.673777e+01
  -2.610730e+01  -3.695586e+01
  -4.964347e+00  -1.394580e+01
  -1.500463e+01  -9.648756e+00
  -2.777406e+01  -4.819373e+01
  -1.508101e+01  -8.714564e+01
   2.751609e+01  -6.827370e+01
   7.300827e+01   1.239930e+01
   7.727901e+01   9.269728e+01
   1.842837e+01   1.030915e+02
  -6.692215e+01   3.413534e+01
  -1.011695e+02  -5.590096e+01
  -4.236038e+01  -9.664376e+01
   5.844256e+01  -6.520070e+01
   1.009505e+02   4.198744e+00
   4.710411e+01   5.747041e+01
  -3.214105e+01   6.307159e+01
  -4.162682e+01   2.902585e+01
   2.100186e+01  -7.657834e+00
   6.414051e+01  -9.917833e+00
   1.924542e+01   2.642572e+01
  -7.365151e+01   6.239304e+01
  -1.170526e+02   4.922083e+01
  -7.115390e+01  -1.726448e+01
   1.110289e+01  -8.154206e+01
   5.632606e+01  -8.124307e+01
   4.554825e+01  -1.616107e+01
   9.544373e+00   4.755524e+01
  -2.070642e+01   4.813265e+01
  -3.467268e+01  -5.963300e+00
  -2.844825e+01  -5.051292e+01
  -1.032898e+00  -4.057666e+01
   3.157548e+01   2.904527e+00
   4.132504e+01   2.540926e+01
   2.016382e+01   6.036634e+00
  -5.571163e+00  -2.106074e+01
  -7.091854e+00  -1.279598e+01
   8.048632e+00   2.750065e+01
   6.360567e+00   5.228110e+01
  -2.210197e+01   2.668865e+01
  -4.296793e+01  -2.774476e+01
  -1.905783e+01  -5.501427e+01
   3.572924e+01  -2.680157e+01
   6.208520e+01   2.755616e+01
   2.133030e+01   5.549613e+01
  -5.432484e+01   3.589261e+01
  -9.031537e+01  -7.736333e+00
  -4.952433e+01  -4.001200e+01
   2.622182e+01  -4.563299e+01
   6.150678e+01  -3.043296e+01
   2.928293e+01  -8.150043e+00
  -2.279461e+01   5.273160e+00
  -2.945557e+01  -2.017708e+00
   1.890752e+01  -2.134058e+01
   6.846153e+01  -2.056311e+01
