
 $NMID
 id='ANONYMOUS ', fmtdat='(2E16.6)'
 volume=1.0
 tramp=1.0
 $END
  -4.036103e+03   2.274334e+02
  -2.690005e+03  -2.055437e+03
   1.040225e+02  -2.599006e+03
   1.660552e+03  -1.390565e+03
   1.105378e+03   2.841000e+01
  -1.766032e+02   3.996349e+02
  -6.278499e+02  -1.831214e+02
  -9.916865e+01  -8.060677e+02
   5.990065e+02  -7.727157e+02
   8.385542e+02  -8.593429e+01
   5.418416e+02   6.758511e+02
  -3.192775e+01   8.325486e+02
  -4.561650e+02   2.213373e+02
  -3.688984e+02  -5.558486e+02
   1.425148e+02  -7.015631e+02
   5.299494e+02  -9.392870e+01
   3.663656e+02   6.026425e+02
  -1.751433e+02   7.245142e+02
  -5.634716e+02   2.779228e+02
  -4.986734e+02  -2.387782e+02
  -1.324336e+02  -4.330851e+02
   1.651248e+02  -2.976868e+02
   1.311906e+02  -7.910875e+01
  -1.733749e+02  -3.668010e+01
  -3.627325e+02  -2.285768e+02
  -8.440910e+01  -4.196271e+02
   5.011574e+02  -2.988817e+02
   7.721576e+02   1.224987e+02
   3.559327e+02   4.512121e+02
  -3.605920e+02   3.515259e+02
  -6.539801e+02  -7.195409e+01
  -2.963505e+02  -4.319531e+02
   2.732023e+02  -4.699190e+02
   5.399852e+02  -2.024474e+02
   4.090105e+02   1.809514e+02
   1.161445e+02   4.050059e+02
  -8.078853e+01   2.552499e+02
  -4.647968e+01  -1.379578e+02
   1.717448e+02  -2.898374e+02
   3.181426e+02   8.830606e+01
   1.391378e+02   6.089930e+02
  -2.667394e+02   6.090247e+02
  -4.698162e+02   3.537890e+01
  -2.185235e+02  -4.273943e+02
   2.032005e+02  -2.404468e+02
   2.916346e+02   3.015593e+02
  -7.969950e+01   4.975253e+02
  -5.309751e+02   1.234424e+02
  -6.059788e+02  -3.969014e+02
  -2.098675e+02  -5.795482e+02
   3.464516e+02  -3.501813e+02
   6.249969e+02   4.032374e+01
   4.156168e+02   3.104545e+02
  -7.087924e+01   3.147489e+02
  -3.775119e+02   1.086149e+02
  -2.644245e+02  -8.054570e+01
   3.100101e+01  -6.452870e+01
   9.934061e+01   8.428219e+01
  -1.239263e+02   1.226951e+02
  -3.034203e+02  -4.301401e+01
  -1.632341e+02  -2.474739e+02
   1.747744e+02  -2.921763e+02
   3.764469e+02  -1.480724e+02
   2.774284e+02   9.448797e+01
  -1.390744e+01   3.259975e+02
  -2.870177e+02   4.071598e+02
  -3.901851e+02   2.187483e+02
  -2.904839e+02  -1.575650e+02
  -8.883914e+01  -4.261803e+02
   4.855514e+01  -3.865798e+02
   5.472391e+01  -1.780505e+02
   3.542829e+01  -7.760916e+01
   1.158166e+02  -1.213928e+02
   2.535614e+02  -9.843094e+01
   2.859789e+02   9.619360e+01
   1.397546e+02   2.847017e+02
  -8.506460e+01   2.422502e+02
  -2.261175e+02  -1.595994e+01
  -1.855659e+02  -2.617973e+02
   2.525699e+01  -2.957489e+02
   2.766950e+02  -1.025181e+02
   3.714440e+02   1.727012e+02
   2.131725e+02   3.429593e+02
  -5.872186e+01   3.170327e+02
  -2.019787e+02   1.726221e+02
  -1.660202e+02   7.061829e+01
  -1.468445e+02   6.978838e+01
  -2.920850e+02   6.328661e+01
  -4.588171e+02  -7.297582e+01
  -3.765204e+02  -3.117769e+02
  -2.442355e+00  -4.910467e+02
   3.981793e+02  -4.669388e+02
   5.285433e+02  -2.281970e+02
   3.426534e+02   9.294908e+01
   4.873859e+01   2.932418e+02
  -1.049048e+02   2.468533e+02
  -3.642202e+01   4.312710e+01
   1.233755e+02  -7.442747e+01
   1.694169e+02   2.113491e+01
   3.390157e+01   1.753363e+02
  -1.379922e+02   1.490200e+02
  -1.502146e+02  -5.264145e+01
   1.825338e+01  -1.694606e+02
   1.904851e+02  -2.135623e+01
   1.860316e+02   2.589853e+02
  -8.913473e+00   3.864624e+02
  -2.569863e+02   2.388541e+02
  -3.923064e+02  -5.298610e+01
  -3.235392e+02  -2.719281e+02
  -9.254206e+01  -2.991575e+02
   1.312978e+02  -1.694970e+02
   1.772336e+02  -2.033661e+01
   4.898340e+01   1.917994e+01
  -6.557221e+01  -5.762192e+01
  -1.318925e+01  -1.299579e+02
   1.342420e+02  -9.190606e+01
   1.759356e+02   1.674582e+01
   4.771071e+01   6.500434e+01
  -9.078680e+01  -3.976359e-01
  -5.240302e+01  -9.519769e+01
   1.539911e+02  -1.041927e+02
   3.312987e+02   3.740802e+00
   2.966526e+02   1.680535e+02
   5.404243e+01   2.889023e+02
  -2.121551e+02   2.797571e+02
  -2.996372e+02   1.316922e+02
  -1.674980e+02  -4.513098e+01
   2.650729e+01  -9.936119e+01
   8.063417e+01  -3.298146e+00
  -4.791188e+01   9.861235e+01
  -2.077578e+02   5.527514e+01
  -2.236420e+02  -1.055731e+02
  -7.702737e+01  -2.134889e+02
   9.352108e+01  -1.636346e+02
   1.448051e+02  -2.972812e+01
   6.163751e+01   3.908570e+01
  -4.272585e+01  -1.448581e+01
  -3.802990e+01  -1.126256e+02
   9.500629e+01  -1.342162e+02
   2.306978e+02  -2.892308e+01
   2.128189e+02   1.378942e+02
   2.576690e+01   2.354718e+02
  -1.695637e+02   1.806485e+02
  -2.012386e+02   2.016867e+01
  -7.056946e+01  -1.091884e+02
   6.517596e+01  -1.149360e+02
   8.109279e+01  -3.353561e+01
   8.069989e+00   2.733127e+01
  -3.585016e+01   1.410662e+01
   9.713026e+00  -2.368086e+01
   9.399187e+01  -2.420314e+00
   1.165912e+02   9.514846e+01
   2.144192e+01   1.906269e+02
  -1.471718e+02   1.776163e+02
  -2.642298e+02   2.752549e+01
  -2.253481e+02  -1.651430e+02
  -5.444451e+01  -2.562805e+02
   1.074884e+02  -1.869847e+02
   1.452286e+02  -4.011902e+01
   8.425623e+01   4.944559e+01
   3.799610e+01   3.315712e+01
   6.096918e+01  -1.809907e+01
   9.543874e+01  -1.168466e+01
   6.122920e+01   5.975544e+01
  -4.099205e+01   1.155054e+02
  -1.284844e+02   7.741861e+01
  -1.151586e+02  -4.274724e+01
   1.274501e+01  -1.402807e+02
   1.724336e+02  -1.067692e+02
   2.304214e+02   5.948999e+01
   1.095129e+02   2.301889e+02
  -1.231062e+02   2.553349e+02
  -2.945107e+02   1.084020e+02
  -2.812914e+02  -8.734666e+01
  -1.221308e+02  -1.860101e+02
   3.730879e+01  -1.587864e+02
   9.660833e+01  -9.515295e+01
   7.733199e+01  -8.186459e+01
   6.322414e+01  -1.079269e+02
   9.795772e+01  -9.203687e+01
   1.473080e+02   1.505096e+01
   1.404534e+02   1.661691e+02
   4.173957e+01   2.508020e+02
  -1.031824e+02   1.926172e+02
  -1.907195e+02   2.402130e+01
  -1.501335e+02  -1.338378e+02
  -2.105930e+01  -1.746168e+02
   7.740089e+01  -9.695009e+01
   6.931687e+01   8.560906e+00
   3.907656e-01   5.648079e+01
  -2.333924e+01   4.031026e+01
   3.412472e+01   1.343319e+01
   9.405932e+01   1.741513e+01
   5.631944e+01   4.211043e+01
  -7.722280e+01   4.694280e+01
  -1.893851e+02   7.010416e+00
  -1.635344e+02  -6.038937e+01
  -8.347187e+00  -1.059239e+02
   1.426083e+02  -8.816109e+01
   1.618325e+02  -1.549513e+01
   5.271309e+01   5.107710e+01
  -6.521555e+01   5.017978e+01
  -8.765912e+01  -1.663327e+01
  -2.147894e+01  -8.050740e+01
   5.137146e+01  -7.427824e+01
   7.533977e+01  -4.732839e+00
   6.327581e+01   5.425426e+01
   5.450340e+01   4.588381e+01
   6.373203e+01  -9.442970e-01
   7.296225e+01  -2.249373e+00
   5.047021e+01   7.788963e+01
  -2.437223e+01   1.704632e+02
  -1.305929e+02   1.676582e+02
  -1.954855e+02   4.568701e+01
  -1.485850e+02  -9.866993e+01
  -1.004031e+01  -1.465182e+02
   9.856248e+01  -7.967522e+01
   6.976823e+01   1.006793e+01
  -6.412799e+01   2.592945e+01
  -1.525156e+02  -3.981271e+01
  -8.561015e+01  -1.149740e+02
   8.676198e+01  -1.265763e+02
   2.086046e+02  -6.085404e+01
   1.778133e+02   3.538662e+01
   4.031718e+01   9.342403e+01
  -6.712256e+01   7.373524e+01
  -5.392551e+01   3.572471e+00
   4.302293e+01  -3.552463e+01
   1.041172e+02   1.771279e+01
   4.906040e+01   1.280592e+02
  -8.325607e+01   1.784727e+02
  -1.750960e+02   8.567165e+01
  -1.466653e+02  -9.730117e+01
  -2.735541e+01  -2.150524e+02
   8.457021e+01  -1.621376e+02
   1.162978e+02   5.894373e+00
   6.902095e+01   1.301238e+02
  -5.850962e+00   1.156222e+02
  -5.479634e+01   2.030396e+01
  -5.408391e+01  -3.293618e+01
  -2.185063e+01  -7.227645e+00
  -4.934446e+00   2.060984e+01
  -3.178654e+01  -2.078799e+01
  -6.844194e+01  -9.691682e+01
  -4.438298e+01  -1.160045e+02
   5.724210e+01  -5.047542e+01
   1.539404e+02   3.470804e+01
   1.425232e+02   7.075923e+01
   2.289072e+01   5.732393e+01
  -9.058668e+01   3.249700e+01
  -9.638032e+01   1.164172e+01
  -1.786336e+01  -1.110485e+01
   3.830312e+01  -2.620810e+01
   1.914078e+01  -1.656865e+01
  -1.833030e+01   4.844099e+00
   4.514503e+00   6.918810e+00
   7.658347e+01  -3.849740e+00
   1.045065e+02   1.962510e+01
   2.489582e+01   8.954377e+01
  -1.163199e+02   1.372223e+02
  -2.055315e+02   8.240501e+01
  -1.708919e+02  -5.957334e+01
  -4.343943e+01  -1.766630e+02
   8.056964e+01  -1.758819e+02
   1.259344e+02  -7.770506e+01
   9.100074e+01   1.737935e+01
   3.107234e+01   4.016529e+01
   1.676463e+00   1.347805e+01
   1.462953e+01   7.577771e+00
   3.706797e+01   5.189482e+01
   2.630451e+01   9.990462e+01
  -2.851679e+01   8.158226e+01
  -8.915001e+01  -1.300455e+01
  -9.451295e+01  -1.105370e+02
  -1.958825e+01  -1.231201e+02
   8.402271e+01  -3.822073e+01
   1.213314e+02   6.911915e+01
   4.853707e+01   1.129338e+02
  -6.857372e+01   7.314171e+01
  -1.146911e+02  -3.892585e+00
  -5.207654e+01  -6.017645e+01
   3.468917e+01  -6.777579e+01
   4.054394e+01  -3.413346e+01
  -3.130360e+01   7.001015e+00
  -7.595524e+01   1.340688e+01
  -2.095677e+01  -2.884200e+01
   8.372211e+01  -7.770754e+01
   1.297834e+02  -6.752051e+01
   7.791431e+01   1.367959e+01
  -1.082944e+01   9.507635e+01
  -5.849545e+01   9.466637e+01
  -4.745616e+01   1.449397e+01
  -9.708038e+00  -5.908832e+01
   2.431641e+01  -5.370003e+01
   4.191511e+01   1.157347e+01
   3.445627e+01   5.834825e+01
   6.075836e-01   4.247083e+01
  -3.757008e+01  -4.601951e+00
  -4.737366e+01  -2.465523e+01
  -2.322845e+01  -3.122840e+00
   4.292409e+00   2.043252e+01
   7.378517e+00   5.724213e+00
  -3.448649e+00  -3.713427e+01
   2.986679e+00  -5.721432e+01
   3.090417e+01  -2.220705e+01
   4.510983e+01   3.986218e+01
   1.371985e+01   6.685182e+01
  -4.479840e+01   2.986581e+01
  -7.038311e+01  -3.507614e+01
  -2.420894e+01  -6.705403e+01
   6.072688e+01  -4.291999e+01
   1.035433e+02   8.428571e+00
   5.883461e+01   4.542408e+01
  -2.941058e+01   5.113466e+01
  -7.129225e+01   3.337579e+01
  -3.059778e+01   8.650542e+00
   3.424027e+01  -4.317475e+00
   3.938389e+01   7.540179e+00
  -2.613338e+01   3.171876e+01
  -8.966335e+01   2.846183e+01
