
 $NMID
 id='ANONYMOUS ', fmtdat='(2E16.6)'
 volume=1.0
 tramp=1.0
 $END
  -4.205899e+03   1.077791e+01
  -2.482133e+03  -2.453883e+03
   6.079693e+02  -2.630394e+03
   1.949261e+03  -9.447029e+02
   9.179422e+02   4.995452e+02
  -5.576049e+02   4.875826e+02
  -7.964709e+02  -4.000473e+02
   1.275530e+01  -9.869663e+02
   7.741791e+02  -7.451484e+02
   8.900713e+02   6.914764e+01
   4.438365e+02   8.076437e+02
  -2.031452e+02   8.484935e+02
  -5.817122e+02   1.184979e+02
  -3.578671e+02  -6.790323e+02
   2.479751e+02  -7.187444e+02
   5.758883e+02  -5.046495e+00
   2.796856e+02   6.521582e+02
  -2.844519e+02   6.347646e+02
  -5.593275e+02   1.275337e+02
  -3.976082e+02  -3.165497e+02
  -3.966952e+01  -4.224937e+02
   2.207372e+02  -2.608201e+02
   1.865928e+02  -2.346806e+01
  -1.366047e+02   6.029477e+01
  -4.002077e+02  -1.448906e+02
  -1.659800e+02  -4.337698e+02
   4.758990e+02  -3.810635e+02
   8.248161e+02   9.740715e+01
   3.969271e+02   5.291807e+02
  -3.945872e+02   4.426461e+02
  -7.187562e+02  -5.587083e+01
  -3.243824e+02  -4.716930e+02
   2.844265e+02  -4.988378e+02
   5.555800e+02  -1.940649e+02
   4.053039e+02   2.179998e+02
   7.211778e+01   4.507763e+02
  -1.736516e+02   2.644621e+02
  -1.334211e+02  -2.073609e+02
   1.791493e+02  -3.979823e+02
   4.171660e+02   4.715841e+01
   2.079410e+02   6.675834e+02
  -3.152062e+02   6.681063e+02
  -5.655857e+02  -2.521792e+00
  -2.349511e+02  -5.245122e+02
   2.762674e+02  -2.901186e+02
   3.567023e+02   3.246065e+02
  -7.638643e+01   5.307167e+02
  -5.452670e+02   1.273817e+02
  -5.878978e+02  -4.023949e+02
  -1.705934e+02  -5.755149e+02
   3.715703e+02  -3.388519e+02
   6.187430e+02   6.921603e+01
   3.724629e+02   3.624037e+02
  -1.390713e+02   3.430986e+02
  -4.205377e+02   6.013417e+01
  -2.352092e+02  -1.678980e+02
   1.014894e+02  -8.987823e+01
   1.270370e+02   1.408401e+02
  -1.595995e+02   1.676212e+02
  -3.320079e+02  -7.112544e+01
  -1.399863e+02  -2.845282e+02
   1.947763e+02  -2.606645e+02
   3.325103e+02  -8.992553e+01
   2.113934e+02   8.168546e+01
  -1.648677e+01   2.413034e+02
  -2.267509e+02   3.423220e+02
  -3.445595e+02   2.188010e+02
  -2.890564e+02  -1.395342e+02
  -7.916782e+01  -4.283241e+02
   1.002094e+02  -3.760354e+02
   1.015058e+02  -1.209665e+02
   2.082288e+01  -8.458357e+00
   5.530339e+01  -9.820279e+01
   2.069514e+02  -1.259475e+02
   2.802587e+02   6.032446e+01
   1.548375e+02   2.717348e+02
  -7.447038e+01   2.522808e+02
  -2.269344e+02   5.160342e+00
  -1.947693e+02  -2.433729e+02
   1.310889e+01  -2.929676e+02
   2.665482e+02  -1.133401e+02
   3.594843e+02   1.657454e+02
   1.897103e+02   3.437144e+02
  -8.902193e+01   3.029136e+02
  -2.158574e+02   1.289138e+02
  -1.478857e+02   1.978616e+01
  -1.053891e+02   4.478170e+01
  -2.424306e+02   6.755785e+01
  -4.079763e+02  -5.544781e+01
  -3.385377e+02  -2.831367e+02
  -2.347571e+00  -4.459505e+02
   3.586033e+02  -4.209572e+02
   4.876557e+02  -2.065976e+02
   3.332553e+02   9.141814e+01
   5.273427e+01   2.908621e+02
  -1.239663e+02   2.471072e+02
  -7.089919e+01   2.884911e+01
   1.138807e+02  -1.008981e+02
   1.902429e+02   1.091700e+01
   4.512083e+01   1.913976e+02
  -1.570427e+02   1.641890e+02
  -1.713444e+02  -6.062810e+01
   1.909632e+01  -1.867160e+02
   1.926786e+02  -2.995911e+01
   1.669773e+02   2.456554e+02
  -2.421741e+01   3.506581e+02
  -2.295571e+02   2.007792e+02
  -3.336186e+02  -5.551846e+01
  -2.847707e+02  -2.382764e+02
  -9.553153e+01  -2.669186e+02
   1.147418e+02  -1.613711e+02
   1.756159e+02  -2.055000e+01
   5.542455e+01   3.018541e+01
  -6.959672e+01  -4.212566e+01
  -2.647447e+01  -1.259196e+02
   1.252176e+02  -9.808514e+01
   1.766335e+02   1.348637e+01
   5.518653e+01   7.128962e+01
  -8.239057e+01   1.405228e+01
  -5.569729e+01  -7.644618e+01
   1.259537e+02  -9.098876e+01
   2.869996e+02  -2.711873e+00
   2.676979e+02   1.403543e+02
   6.089517e+01   2.579597e+02
  -1.853240e+02   2.632671e+02
  -2.827358e+02   1.273887e+02
  -1.675562e+02  -4.991290e+01
   2.525206e+01  -1.070174e+02
   8.873248e+01  -6.725151e+00
  -3.509477e+01   1.011788e+02
  -1.960408e+02   5.928958e+01
  -2.134540e+02  -1.008687e+02
  -7.074805e+01  -2.062141e+02
   9.269589e+01  -1.575997e+02
   1.427575e+02  -2.914514e+01
   6.825690e+01   4.139983e+01
  -3.136769e+01   1.243622e+00
  -3.948653e+01  -8.683462e+01
   7.254526e+01  -1.168639e+02
   2.006453e+02  -3.155749e+01
   1.941674e+02   1.219883e+02
   2.375384e+01   2.180960e+02
  -1.621176e+02   1.660121e+02
  -1.924806e+02   9.554191e+00
  -6.548160e+01  -1.122124e+02
   6.545072e+01  -1.112811e+02
   8.203281e+01  -3.085858e+01
   1.678922e+01   2.681947e+01
  -2.401435e+01   1.886574e+01
   8.272930e+00  -1.054538e+01
   7.272087e+01   4.581482e+00
   9.285980e+01   8.026037e+01
   1.896872e+01   1.605757e+02
  -1.251923e+02   1.563283e+02
  -2.350396e+02   2.896200e+01
  -2.046643e+02  -1.478617e+02
  -4.572080e+01  -2.363596e+02
   1.056881e+02  -1.709499e+02
   1.349038e+02  -3.012529e+01
   7.169548e+01   5.276809e+01
   2.965613e+01   3.419989e+01
   5.341257e+01  -1.370335e+01
   8.079394e+01  -8.639455e+00
   4.543118e+01   4.895321e+01
  -3.892478e+01   9.112908e+01
  -1.032061e+02   6.052281e+01
  -8.981426e+01  -3.336596e+01
   1.025179e+01  -1.135554e+02
   1.424712e+02  -9.106958e+01
   2.005068e+02   4.803207e+01
   1.036281e+02   2.020184e+02
  -1.044555e+02   2.315280e+02
  -2.664925e+02   1.001000e+02
  -2.585303e+02  -8.224792e+01
  -1.116531e+02  -1.747434e+02
   3.670933e+01  -1.473300e+02
   9.263763e+01  -8.530259e+01
   7.682888e+01  -7.060239e+01
   6.367124e+01  -9.228111e+01
   9.030842e+01  -7.666161e+01
   1.289361e+02   1.869991e+01
   1.209658e+02   1.516265e+02
   3.374861e+01   2.258044e+02
  -9.593123e+01   1.737588e+02
  -1.752333e+02   2.253086e+01
  -1.380420e+02  -1.206195e+02
  -2.081616e+01  -1.597122e+02
   6.752945e+01  -9.276644e+01
   6.162977e+01   9.764528e-02
   5.242741e+00   4.479743e+01
  -1.205235e+01   3.612382e+01
   3.480131e+01   1.724885e+01
   8.005631e+01   2.007786e+01
   4.636017e+01   3.720984e+01
  -6.410696e+01   3.924183e+01
  -1.603389e+02   6.482171e+00
  -1.451482e+02  -5.010850e+01
  -1.541868e+01  -9.067218e+01
   1.210970e+02  -7.729023e+01
   1.454212e+02  -1.518051e+01
   4.931531e+01   4.162537e+01
  -5.886174e+01   3.960412e+01
  -7.647987e+01  -1.713061e+01
  -1.121769e+01  -6.816058e+01
   5.244150e+01  -5.950825e+01
   6.377133e+01  -3.054950e-01
   4.722900e+01   4.822926e+01
   4.503689e+01   4.085485e+01
   6.034318e+01   1.440410e+00
   6.591175e+01  -5.157867e-01
   3.827783e+01   6.689615e+01
  -2.838348e+01   1.466797e+02
  -1.143058e+02   1.446108e+02
  -1.656435e+02   3.769845e+01
  -1.262315e+02  -8.840131e+01
  -8.969700e+00  -1.271420e+02
   8.500102e+01  -6.483478e+01
   6.017077e+01   1.288029e+01
  -5.836977e+01   2.124191e+01
  -1.373429e+02  -4.051851e+01
  -7.703573e+01  -1.057753e+02
   7.888301e+01  -1.134791e+02
   1.897727e+02  -5.435984e+01
   1.625860e+02   3.195882e+01
   3.785855e+01   8.601278e+01
  -6.055199e+01   7.018113e+01
  -4.937309e+01   7.004865e+00
   3.797850e+01  -2.840097e+01
   9.090436e+01   1.987284e+01
   3.627024e+01   1.166231e+02
  -8.575887e+01   1.551072e+02
  -1.634321e+02   6.630707e+01
  -1.277469e+02  -9.605903e+01
  -1.502516e+01  -1.954191e+02
   8.196500e+01  -1.447124e+02
   1.047086e+02   5.276256e+00
   6.225841e+01   1.171366e+02
  -1.573305e+00   1.065543e+02
  -4.659834e+01   2.070062e+01
  -5.161146e+01  -3.071267e+01
  -2.459539e+01  -8.558595e+00
  -4.031173e+00   2.029829e+01
  -2.276690e+01  -1.478105e+01
  -5.777718e+01  -8.718232e+01
  -4.235205e+01  -1.083274e+02
   4.734830e+01  -4.629941e+01
   1.380975e+02   3.639869e+01
   1.297865e+02   6.843876e+01
   1.891597e+01   4.965879e+01
  -8.582418e+01   2.388104e+01
  -8.779438e+01   8.992500e+00
  -1.224725e+01  -7.246541e+00
   3.744003e+01  -2.259885e+01
   1.491513e+01  -1.802069e+01
  -2.012200e+01   1.793441e+00
   5.197022e+00   8.640482e+00
   7.255435e+01   2.269987e+00
   9.167054e+01   2.149550e+01
   1.202885e+01   7.885611e+01
  -1.137826e+02   1.158014e+02
  -1.833153e+02   6.327674e+01
  -1.433181e+02  -6.208837e+01
  -2.963942e+01  -1.598109e+02
   7.543043e+01  -1.516262e+02
   1.122993e+02  -6.177002e+01
   8.047084e+01   1.948235e+01
   2.591256e+01   3.499338e+01
  -1.668221e+00   8.955021e+00
   1.110601e+01   4.199261e+00
   3.369246e+01   4.552602e+01
   2.377035e+01   8.965037e+01
  -2.763046e+01   7.188426e+01
  -8.041883e+01  -1.649628e+01
  -7.874492e+01  -1.050054e+02
  -7.831756e+00  -1.104992e+02
   7.969823e+01  -2.597302e+01
   1.035618e+02   7.120827e+01
   3.510169e+01   1.016130e+02
  -6.394972e+01   5.773670e+01
  -9.811745e+01  -8.777967e+00
  -4.147049e+01  -5.013428e+01
   3.103371e+01  -5.369116e+01
   3.177574e+01  -2.946032e+01
  -3.226725e+01   1.350661e+00
  -6.847021e+01   8.302718e+00
  -1.599659e+01  -2.470637e+01
   7.736620e+01  -6.706660e+01
   1.149322e+02  -6.018669e+01
   6.513729e+01   1.078002e+01
  -1.356107e+01   8.297860e+01
  -5.155644e+01   8.089880e+01
  -3.730346e+01   8.007355e+00
  -3.156540e+00  -5.454922e+01
   2.401660e+01  -4.373874e+01
   3.600337e+01   1.626168e+01
   2.773508e+01   5.295350e+01
  -1.319036e+00   3.355241e+01
  -3.285241e+01  -7.289176e+00
  -4.050473e+01  -2.059331e+01
  -2.080559e+01  -1.217103e+00
   1.885806e+00   1.465339e+01
   7.540407e+00  -1.386870e+00
   4.596387e+00  -3.499577e+01
   1.264794e+01  -4.481793e+01
   3.003322e+01  -1.001623e+01
   3.180676e+01   4.181614e+01
   1.312406e+00   5.930994e+01
  -4.289072e+01   2.176706e+01
  -5.736743e+01  -3.650336e+01
  -1.620448e+01  -6.161018e+01
   5.399574e+01  -3.530467e+01
   8.891138e+01   1.266418e+01
   4.982868e+01   4.255722e+01
  -2.743488e+01   4.174673e+01
  -6.353591e+01   2.355056e+01
  -2.452091e+01   5.940307e+00
   3.530865e+01   1.289981e+00
   3.646071e+01   1.379271e+01
  -2.921052e+01   3.020185e+01
  -8.819057e+01   2.061336e+01
