
 $NMID
 id='ANONYMOUS ', fmtdat='(2E16.6)'
 volume=1.0
 tramp=1.0
 $END
   4.222236e+03   1.853039e+01
   2.510681e+03   2.480980e+03
  -5.971902e+02   2.675283e+03
  -1.985006e+03   9.908786e+02
  -9.791794e+02  -4.857505e+02
   5.186922e+02  -5.089001e+02
   7.964003e+02   3.747445e+02
   8.339711e-01   9.819821e+02
  -7.731402e+02   7.550473e+02
  -9.016904e+02  -6.261359e+01
  -4.553055e+02  -8.133464e+02
   1.982027e+02  -8.631205e+02
   5.825667e+02  -1.326098e+02
   3.612725e+02   6.751287e+02
  -2.477612e+02   7.255386e+02
  -5.817596e+02   9.488388e+00
  -2.837980e+02  -6.621574e+02
   2.932908e+02  -6.522443e+02
   5.785452e+02  -1.339841e+02
   4.118940e+02   3.260141e+02
   4.145992e+01   4.347688e+02
  -2.235528e+02   2.673719e+02
  -1.873244e+02   3.183031e+01
   1.320906e+02  -4.443915e+01
   3.866884e+02   1.568271e+02
   1.522693e+02   4.280855e+02
  -4.779048e+02   3.632664e+02
  -8.175939e+02  -1.085398e+02
  -3.929466e+02  -5.249776e+02
   3.902990e+02  -4.313712e+02
   7.115503e+02   6.299151e+01
   3.186511e+02   4.714177e+02
  -2.893527e+02   4.937263e+02
  -5.595780e+02   1.879548e+02
  -4.070006e+02  -2.217837e+02
  -7.411400e+01  -4.529051e+02
   1.678889e+02  -2.707322e+02
   1.283107e+02   1.941952e+02
  -1.745707e+02   3.856694e+02
  -4.031524e+02  -4.848663e+01
  -1.963068e+02  -6.599109e+02
   3.160907e+02  -6.635712e+02
   5.609989e+02  -1.754216e+00
   2.350602e+02   5.181099e+02
  -2.692251e+02   2.885803e+02
  -3.479427e+02  -3.224614e+02
   8.232164e+01  -5.272039e+02
   5.470421e+02  -1.198343e+02
   5.854306e+02   4.144319e+02
   1.653384e+02   5.843288e+02
  -3.767147e+02   3.374374e+02
  -6.229407e+02  -7.717483e+01
  -3.773018e+02  -3.684696e+02
   1.351485e+02  -3.456940e+02
   4.231156e+02  -6.278022e+01
   2.449397e+02   1.660676e+02
  -9.336949e+01   9.290287e+01
  -1.278820e+02  -1.346584e+02
   1.545846e+02  -1.643860e+02
   3.316402e+02   7.097658e+01
   1.418643e+02   2.861142e+02
  -2.006871e+02   2.635118e+02
  -3.453515e+02   8.638498e+01
  -2.162586e+02  -9.334276e+01
   2.871558e+01  -2.508100e+02
   2.457967e+02  -3.403013e+02
   3.538864e+02  -2.092020e+02
   2.859424e+02   1.466958e+02
   7.359772e+01   4.316026e+02
  -1.023384e+02   3.817557e+02
  -1.046331e+02   1.302901e+02
  -2.947880e+01   1.388019e+01
  -6.570222e+01   9.392561e+01
  -2.117077e+02   1.153768e+02
  -2.770757e+02  -6.940239e+01
  -1.479578e+02  -2.748937e+02
   7.891770e+01  -2.496795e+02
   2.254695e+02   6.627428e-01
   1.885347e+02   2.482629e+02
  -1.949320e+01   2.926682e+02
  -2.691456e+02   1.071526e+02
  -3.583516e+02  -1.740395e+02
  -1.871429e+02  -3.500889e+02
   9.250321e+01  -3.068372e+02
   2.215305e+02  -1.316923e+02
   1.556237e+02  -2.089564e+01
   1.132535e+02  -4.163036e+01
   2.489808e+02  -5.835354e+01
   4.117812e+02   6.922003e+01
   3.359565e+02   2.962947e+02
  -9.468553e+00   4.519813e+02
  -3.752712e+02   4.171129e+02
  -4.988730e+02   1.973487e+02
  -3.335426e+02  -9.824610e+01
  -4.746373e+01  -2.924117e+02
   1.263627e+02  -2.476726e+02
   6.941682e+01  -3.271555e+01
  -1.141968e+02   9.561235e+01
  -1.874177e+02  -1.304237e+01
  -4.255581e+01  -1.898902e+02
   1.566804e+02  -1.624185e+02
   1.694442e+02   6.066002e+01
  -2.039331e+01   1.852280e+02
  -1.926335e+02   2.621103e+01
  -1.640799e+02  -2.523999e+02
   3.203176e+01  -3.565363e+02
   2.401858e+02  -1.988102e+02
   3.400376e+02   6.676936e+01
   2.823490e+02   2.510247e+02
   8.788673e+01   2.723121e+02
  -1.202572e+02   1.591413e+02
  -1.766058e+02   1.754618e+01
  -5.552233e+01  -2.938834e+01
   6.713325e+01   4.459845e+01
   2.269778e+01   1.258045e+02
  -1.275065e+02   9.476647e+01
  -1.765217e+02  -1.669001e+01
  -5.402865e+01  -7.099502e+01
   8.228365e+01  -1.039486e+01
   5.238079e+01   7.920239e+01
  -1.320531e+02   8.774977e+01
  -2.918386e+02  -7.099940e+00
  -2.664068e+02  -1.509362e+02
  -5.302498e+01  -2.622372e+02
   1.946222e+02  -2.600147e+02
   2.878308e+02  -1.218745e+02
   1.676944e+02   5.229917e+01
  -2.644180e+01   1.059884e+02
  -8.791103e+01   5.745354e+00
   3.793212e+01  -9.934217e+01
   1.983954e+02  -5.465368e+01
   2.130052e+02   1.061700e+02
   6.749630e+01   2.093556e+02
  -9.623748e+01   1.570804e+02
  -1.439183e+02   2.674452e+01
  -6.731752e+01  -4.173293e+01
   3.108402e+01   2.044754e+00
   3.543842e+01   9.027269e+01
  -7.875010e+01   1.155663e+02
  -2.046071e+02   2.507093e+01
  -1.930750e+02  -1.290502e+02
  -1.871437e+01  -2.211258e+02
   1.675496e+02  -1.646110e+02
   1.951688e+02  -6.654069e+00
   6.466431e+01   1.138043e+02
  -6.780130e+01   1.109372e+02
  -8.294557e+01   2.997605e+01
  -1.543835e+01  -2.635072e+01
   2.514842e+01  -1.684358e+01
  -9.937119e+00   1.166409e+01
  -7.577347e+01  -7.190727e+00
  -9.279072e+01  -8.594490e+01
  -1.363488e+01  -1.647279e+02
   1.325403e+02  -1.547398e+02
   2.390883e+02  -2.211548e+01
   2.032518e+02   1.555173e+02
   4.088907e+01   2.407403e+02
  -1.105905e+02   1.712000e+02
  -1.378642e+02   2.800638e+01
  -7.267888e+01  -5.500902e+01
  -3.015440e+01  -3.551239e+01
  -5.501918e+01   1.256734e+01
  -8.299938e+01   6.188409e+00
  -4.532196e+01  -5.254877e+01
   4.319094e+01  -9.308566e+01
   1.088235e+02  -5.823023e+01
   9.122542e+01   3.845356e+01
  -1.508289e+01   1.162485e+02
  -1.490704e+02   8.762699e+01
  -2.022643e+02  -5.565104e+01
  -9.840297e+01  -2.078239e+02
   1.128822e+02  -2.310924e+02
   2.726526e+02  -9.407497e+01
   2.597868e+02   8.953659e+01
   1.090720e+02   1.793016e+02
  -4.044154e+01   1.482861e+02
  -9.570439e+01   8.465783e+01
  -7.938952e+01   7.066928e+01
  -6.688998e+01   9.317809e+01
  -9.416419e+01   7.623672e+01
  -1.312810e+02  -2.232976e+01
  -1.194005e+02  -1.575157e+02
  -2.846986e+01  -2.304138e+02
   1.017026e+02  -1.739243e+02
   1.778703e+02  -1.832551e+01
   1.363965e+02   1.258195e+02
   1.678869e+01   1.620907e+02
  -7.069254e+01   9.137258e+01
  -6.175769e+01  -2.760768e+00
  -2.846285e+00  -4.574289e+01
   1.427488e+01  -3.533440e+01
  -3.493109e+01  -1.740363e+01
  -8.168370e+01  -2.257503e+01
  -4.642980e+01  -3.958637e+01
   6.707362e+01  -3.779084e+01
   1.639860e+02  -1.014421e+00
   1.456293e+02   5.554715e+01
   1.171048e+01   9.206574e+01
  -1.260440e+02   7.450290e+01
  -1.478303e+02   1.122737e+01
  -4.818107e+01  -4.387906e+01
   6.140313e+01  -3.921784e+01
   7.763391e+01   1.950302e+01
   9.963355e+00   7.085626e+01
  -5.493796e+01   6.046610e+01
  -6.560928e+01  -1.438005e+00
  -4.764190e+01  -5.137949e+01
  -4.497876e+01  -4.318415e+01
  -6.108566e+01  -2.525131e+00
  -6.701847e+01  -1.089663e+00
  -3.745911e+01  -7.008444e+01
   3.283711e+01  -1.495170e+02
   1.210139e+02  -1.439212e+02
   1.706487e+02  -3.293104e+01
   1.264450e+02   9.403686e+01
   5.079643e+00   1.297812e+02
  -8.920989e+01   6.381411e+01
  -6.141491e+01  -1.457331e+01
   5.995615e+01  -2.025714e+01
   1.387259e+02   4.433476e+01
   7.549453e+01   1.091611e+02
  -8.310478e+01   1.130872e+02
  -1.938237e+02   5.019358e+01
  -1.637731e+02  -3.660025e+01
  -3.607057e+01  -8.789982e+01
   6.291777e+01  -6.910206e+01
   4.976014e+01  -5.401597e+00
  -3.979345e+01   2.809644e+01
  -9.243364e+01  -2.252035e+01
  -3.464853e+01  -1.200278e+02
   9.063118e+01  -1.568335e+02
   1.681471e+02  -6.466668e+01
   1.283867e+02   1.004566e+02
   1.118059e+01   1.995105e+02
  -8.659231e+01   1.453398e+02
  -1.060691e+02  -8.234537e+00
  -5.991967e+01  -1.205258e+02
   4.679506e+00  -1.073511e+02
   4.788615e+01  -1.913289e+01
   5.129130e+01   3.212675e+01
   2.437353e+01   8.572455e+00
   4.500846e+00  -2.023256e+01
   2.292734e+01   1.672725e+01
   5.664926e+01   9.046431e+01
   4.014004e+01   1.103372e+02
  -4.969315e+01   4.509941e+01
  -1.397188e+02  -4.018005e+01
  -1.301328e+02  -7.228251e+01
  -1.780176e+01  -5.130910e+01
   8.782321e+01  -2.296298e+01
   8.935489e+01  -6.994175e+00
   1.236182e+01   8.433393e+00
  -3.837025e+01   2.233971e+01
  -1.554804e+01   1.725304e+01
   2.032871e+01  -1.966289e+00
  -5.171952e+00  -8.502755e+00
  -7.375973e+01  -3.232381e+00
  -9.310712e+01  -2.415262e+01
  -1.103940e+01  -8.168441e+01
   1.184214e+02  -1.162471e+02
   1.891135e+02  -6.021871e+01
   1.458380e+02   6.712005e+01
   2.685268e+01   1.638969e+02
  -8.110130e+01   1.528381e+02
  -1.166541e+02   6.039970e+01
  -8.169124e+01  -2.169456e+01
  -2.543242e+01  -3.657524e+01
   1.925040e+00  -9.760130e+00
  -1.109738e+01  -5.098759e+00
  -3.275617e+01  -4.721148e+01
  -2.160486e+01  -9.162071e+01
   2.995337e+01  -7.255987e+01
   8.163994e+01   1.837395e+01
   7.833845e+01   1.087565e+02
   6.001958e+00   1.134399e+02
  -8.203253e+01   2.558366e+01
  -1.047537e+02  -7.467559e+01
  -3.380143e+01  -1.050081e+02
   6.710717e+01  -5.799586e+01
   1.004728e+02   1.156492e+01
   4.086587e+01   5.306840e+01
  -3.379667e+01   5.443779e+01
  -3.373232e+01   2.863174e+01
   3.284871e+01  -1.510927e+00
   7.009528e+01  -6.985311e+00
   1.573963e+01   2.596809e+01
  -8.041782e+01   6.646274e+01
  -1.185326e+02   5.775066e+01
  -6.618849e+01  -1.346235e+01
   1.588910e+01  -8.452966e+01
   5.513476e+01  -8.102507e+01
   3.925044e+01  -7.076405e+00
   2.498735e+00   5.588811e+01
  -2.583308e+01   4.447875e+01
  -3.692663e+01  -1.700323e+01
  -2.710611e+01  -5.479682e+01
   2.566608e+00  -3.474977e+01
   3.358858e+01   8.041909e+00
   4.059205e+01   2.242866e+01
   2.090685e+01   2.003176e+00
  -1.322115e+00  -1.556994e+01
  -6.854764e+00   5.427212e-01
  -4.559662e+00   3.605095e+01
  -1.365590e+01   4.700015e+01
  -3.159740e+01   1.073542e+01
  -3.279480e+01  -4.358872e+01
  -8.801115e-01  -6.153247e+01
   4.438212e+01  -2.177909e+01
   5.843344e+01   3.870565e+01
   1.552914e+01   6.342326e+01
  -5.619503e+01   3.463954e+01
  -9.090908e+01  -1.518437e+01
  -4.992533e+01  -4.469853e+01
   2.934562e+01  -4.219714e+01
   6.589847e+01  -2.282256e+01
   2.559382e+01  -5.228326e+00
  -3.584037e+01  -1.181141e+00
  -3.727133e+01  -1.407193e+01
   2.962132e+01  -3.027674e+01
   8.972318e+01  -1.989709e+01
