
 $NMID
 id='ANONYMOUS ', fmtdat='(2E16.6)'
 volume=1.0
 tramp=1.0
 $END
  -1.216761e+03   1.701225e+01
  -9.231188e+02  -5.212469e+02
  -1.999980e+02  -8.152160e+02
   3.947121e+02  -6.929185e+02
   4.869821e+02  -2.871166e+02
   1.989345e+02   4.486218e+01
  -6.626927e+01   6.067234e+01
  -6.682254e+01  -1.348022e+02
   1.088195e+02  -2.388408e+02
   2.389901e+02  -9.713924e+01
   2.118400e+02   1.517334e+02
   7.155543e+01   2.565193e+02
  -6.648138e+01   1.209645e+02
  -9.685502e+01  -1.122471e+02
   6.844938e+00  -2.086595e+02
   1.435525e+02  -6.731042e+01
   1.520335e+02   1.794300e+02
  -1.229146e+01   2.934449e+02
  -1.992226e+02   1.737402e+02
  -2.246985e+02  -4.440334e+01
  -9.001790e+01  -1.551181e+02
   2.802283e+01  -1.152827e+02
   4.762606e+00  -5.850122e+01
  -8.609833e+01  -9.167810e+01
  -8.342020e+01  -1.580296e+02
   5.490323e+01  -1.359339e+02
   2.033964e+02  -1.281774e+01
   2.114510e+02   1.016554e+02
   6.119568e+01   1.121147e+02
  -1.160950e+02   2.899590e+01
  -1.656706e+02  -7.244257e+01
  -5.337539e+01  -1.303945e+02
   1.080215e+02  -1.196089e+02
   1.778319e+02  -4.431592e+01
   1.274896e+02   5.401007e+01
   4.810875e+01   1.049984e+02
   2.808946e+01   7.030149e+01
   5.853929e+01   8.256441e-02
   7.049617e+01  -6.840063e+00
   2.905344e+01   7.989524e+01
  -3.885133e+01   1.682890e+02
  -8.673343e+01   1.424654e+02
  -8.548768e+01   1.165084e+01
  -3.439164e+01  -8.197221e+01
   2.775015e+01  -2.973573e+01
   3.189013e+01   1.005551e+02
  -5.622884e+01   1.363007e+02
  -1.720774e+02   9.541491e+00
  -1.931303e+02  -1.587843e+02
  -6.820851e+01  -2.047647e+02
   1.143206e+02  -1.053235e+02
   2.086562e+02   2.471111e+01
   1.514933e+02   8.489402e+01
   9.338365e+00   7.726260e+01
  -9.736141e+01   5.044870e+01
  -1.019488e+02   2.495553e+01
  -3.753721e+01   1.439928e+00
   6.044736e+00  -7.665012e+00
  -2.274286e+01  -3.069301e-01
  -7.619862e+01  -1.045970e+01
  -5.696131e+01  -6.242905e+01
   5.743722e+01  -1.102336e+02
   1.630213e+02  -7.376395e+01
   1.362344e+02   5.308785e+01
  -1.691611e+01   1.698311e+02
  -1.588597e+02   1.698684e+02
  -1.745777e+02   5.351198e+01
  -8.967209e+01  -8.080330e+01
  -1.407443e+01  -1.440221e+02
  -2.090114e+00  -1.315713e+02
  -9.051931e+00  -9.669226e+01
   2.421113e+01  -7.547704e+01
   8.869756e+01  -5.339003e+01
   1.246409e+02  -5.625658e-01
   9.520653e+01   7.325748e+01
   2.063478e+01   1.118403e+02
  -4.913517e+01   6.877453e+01
  -7.424379e+01  -3.283744e+01
  -4.156214e+01  -1.104893e+02
   3.282965e+01  -9.918076e+01
   1.049921e+02  -1.176446e+01
   1.231081e+02   8.153146e+01
   6.991109e+01   1.235302e+02
  -1.327465e+01   1.113708e+02
  -6.425763e+01   7.840043e+01
  -7.037778e+01   5.286603e+01
  -8.211575e+01   3.532799e+01
  -1.369978e+02   4.170851e+00
  -1.864272e+02  -5.953361e+01
  -1.374561e+02  -1.430159e+02
   2.340824e+01  -1.962214e+02
   1.842209e+02  -1.691699e+02
   2.166791e+02  -6.519407e+01
   1.156826e+02   4.965981e+01
  -2.159151e+00   1.016655e+02
  -3.369471e+01   7.544581e+01
   1.163579e+01   2.172586e+01
   5.275661e+01   1.060056e+00
   4.000787e+01   2.420734e+01
  -6.849995e+00   4.842495e+01
  -4.003833e+01   3.025138e+01
  -3.112333e+01  -2.019537e+01
   1.495497e+01  -4.242679e+01
   6.294364e+01   9.388325e+00
   6.257146e+01   1.048299e+02
  -1.074772e+01   1.535585e+02
  -1.167058e+02   9.473572e+01
  -1.705330e+02  -3.430447e+01
  -1.227491e+02  -1.306934e+02
  -1.383490e+01  -1.279667e+02
   6.440054e+01  -5.585144e+01
   6.102144e+01   2.694791e+00
   1.008149e+01   1.028329e+00
  -1.626687e+01  -3.414688e+01
   1.215064e+01  -4.722001e+01
   5.622291e+01  -1.914193e+01
   5.703310e+01   1.725020e+01
   6.646263e+00   1.967536e+01
  -3.678198e+01  -1.529986e+01
  -1.057603e+01  -4.828885e+01
   7.679173e+01  -3.716383e+01
   1.425839e+02   2.191112e+01
   1.118468e+02   9.078949e+01
  -1.286912e+00   1.217165e+02
  -1.043115e+02   9.468109e+01
  -1.185974e+02   3.164131e+01
  -5.293331e+01  -2.024903e+01
   1.521447e+01  -2.592424e+01
   2.103570e+01   5.969169e+00
  -3.063745e+01   2.871412e+01
  -8.057623e+01   4.821897e+00
  -7.626391e+01  -4.989411e+01
  -1.918305e+01  -7.997903e+01
   4.001670e+01  -5.380314e+01
   5.105699e+01  -2.729719e+00
   1.339925e+01   1.472275e+01
  -2.234310e+01  -1.828064e+01
  -6.497850e+00  -5.844724e+01
   5.455512e+01  -5.309366e+01
   1.002955e+02   3.461056e+00
   7.762037e+01   6.802081e+01
  -1.766398e+00   9.218032e+01
  -7.071159e+01   6.202613e+01
  -7.386870e+01   4.237225e+00
  -2.129558e+01  -3.749662e+01
   2.732649e+01  -3.735664e+01
   2.785770e+01  -8.790736e+00
  -5.190887e+00   1.016715e+01
  -2.153993e+01  -3.164012e-01
   5.072516e+00  -1.709636e+01
   4.675932e+01  -1.769464e+00
   5.169423e+01   4.785424e+01
  -5.548586e-02   8.643999e+01
  -7.363880e+01   6.762390e+01
  -1.106575e+02  -4.835126e+00
  -8.188833e+01  -7.865836e+01
  -1.169194e+01  -1.022349e+02
   4.624777e+01  -6.823219e+01
   5.753355e+01  -1.339597e+01
   3.449148e+01   1.793308e+01
   1.697570e+01   1.192983e+01
   2.659406e+01  -6.300783e+00
   4.296768e+01  -1.608511e+00
   2.920151e+01   3.046398e+01
  -2.034778e+01   5.421567e+01
  -6.475873e+01   3.226475e+01
  -5.497905e+01  -2.628316e+01
   1.252244e+01  -6.566659e+01
   8.437608e+01  -3.895833e+01
   9.575356e+01   3.927872e+01
   2.950931e+01   1.026829e+02
  -6.720690e+01   9.639801e+01
  -1.237481e+02   2.753465e+01
  -1.056391e+02  -4.674133e+01
  -3.882305e+01  -7.604993e+01
   2.077266e+01  -5.915581e+01
   3.962483e+01  -3.387087e+01
   2.992335e+01  -3.140384e+01
   2.576435e+01  -4.399233e+01
   4.243389e+01  -3.697871e+01
   6.148606e+01   9.408996e+00
   5.271473e+01   7.254483e+01
   7.404890e+00   1.035275e+02
  -4.904714e+01   7.260321e+01
  -7.587608e+01  -4.402394e-01
  -5.211364e+01  -6.161740e+01
   1.516113e+00  -6.999626e+01
   3.791180e+01  -3.149604e+01
   2.850232e+01   1.247509e+01
  -6.023286e+00   2.754652e+01
  -1.805504e+01   1.562054e+01
   9.970484e+00   3.453492e+00
   4.051684e+01   8.269587e+00
   2.398204e+01   2.019871e+01
  -3.749408e+01   1.764246e+01
  -8.459344e+01  -6.246233e+00
  -6.497372e+01  -3.558661e+01
   7.505868e+00  -4.706923e+01
   6.743243e+01  -3.049721e+01
   6.657670e+01   2.581711e+00
   1.762382e+01   2.657368e+01
  -2.858648e+01   2.123635e+01
  -3.642517e+01  -9.372329e+00
  -1.089442e+01  -3.658393e+01
   1.963355e+01  -3.279412e+01
   3.361744e+01  -1.276874e+00
   3.018672e+01   2.520887e+01
   2.282164e+01   2.146589e+01
   2.359625e+01   1.162809e+00
   2.945349e+01   1.569742e+00
   2.202197e+01   3.617548e+01
  -1.326152e+01   7.265734e+01
  -6.335035e+01   6.629790e+01
  -8.898025e+01   1.179409e+01
  -6.093395e+01  -4.734047e+01
   2.920983e+00  -6.337819e+01
   4.637153e+01  -3.266051e+01
   2.959080e+01   4.598088e+00
  -2.671416e+01   8.882820e+00
  -5.964648e+01  -2.017792e+01
  -2.897996e+01  -4.911830e+01
   4.079125e+01  -4.734146e+01
   8.604237e+01  -1.464167e+01
   6.844962e+01   2.309635e+01
   1.051930e+01   3.848217e+01
  -3.086456e+01   2.376186e+01
  -2.154719e+01  -4.033853e+00
   1.961126e+01  -1.495044e+01
   4.326861e+01   9.297079e+00
   1.936961e+01   5.303712e+01
  -3.433093e+01   7.195469e+01
  -7.049536e+01   3.389474e+01
  -5.751582e+01  -4.023429e+01
  -7.539651e+00  -8.680384e+01
   3.788883e+01  -6.225898e+01
   4.682554e+01   8.131158e+00
   2.147642e+01   5.612955e+01
  -1.087391e+01   4.486815e+01
  -2.530544e+01   3.837175e+00
  -1.809739e+01  -1.532281e+01
  -4.787056e+00  -2.658706e+00
  -3.377800e+00   6.833418e+00
  -1.631735e+01  -1.268939e+01
  -2.580393e+01  -4.255176e+01
  -1.037090e+01  -4.639240e+01
   2.879888e+01  -1.714801e+01
   6.084846e+01   1.780964e+01
   5.300958e+01   3.223114e+01
   7.773700e+00   2.573305e+01
  -3.495720e+01   1.253490e+01
  -3.881336e+01   1.040478e+00
  -9.621735e+00  -7.277255e+00
   1.458846e+01  -9.367474e+00
   1.039099e+01  -3.558232e+00
  -4.900321e+00   2.832378e+00
   5.674685e-01   1.282507e+00
   2.835192e+01  -1.906236e+00
   4.302853e+01   1.017869e+01
   1.341899e+01   3.844193e+01
  -4.691087e+01   5.527888e+01
  -8.821897e+01   3.140276e+01
  -7.379909e+01  -2.592564e+01
  -1.588204e+01  -7.281925e+01
   3.892101e+01  -7.216215e+01
   5.535689e+01  -3.137741e+01
   3.695754e+01   8.631577e+00
   1.217814e+01   1.859234e+01
   2.475744e+00   7.781955e+00
   7.172238e+00   5.656269e+00
   1.227079e+01   2.374297e+01
   5.688325e+00   4.199085e+01
  -1.406564e+01   3.273856e+01
  -3.519660e+01  -6.120416e+00
  -3.735328e+01  -4.515505e+01
  -9.138073e+00  -5.075951e+01
   3.263238e+01  -1.744671e+01
   4.963735e+01   2.713661e+01
   2.046561e+01   4.788816e+01
  -2.946188e+01   3.217952e+01
  -4.989014e+01  -3.141448e+00
  -2.228170e+01  -2.974101e+01
   1.727789e+01  -3.117582e+01
   2.155401e+01  -1.293875e+01
  -9.835379e+00   4.814351e+00
  -3.123669e+01   4.477278e+00
  -9.237831e+00  -1.354735e+01
   3.616991e+01  -2.943455e+01
   5.729537e+01  -2.148430e+01
   3.465012e+01   1.033484e+01
  -6.155797e+00   3.979026e+01
  -2.902305e+01   3.871568e+01
  -2.377078e+01   7.453488e+00
  -5.106424e+00  -2.322322e+01
   1.076217e+01  -2.389183e+01
   1.748955e+01   2.372446e+00
   1.350394e+01   2.490781e+01
  -3.001444e-01   2.063390e+01
  -1.560382e+01  -1.353342e+00
  -1.962284e+01  -1.342976e+01
  -9.392243e+00  -3.582417e+00
   2.327109e+00   1.118602e+01
   2.272887e+00   7.547326e+00
  -5.207939e+00  -1.379010e+01
  -3.569923e+00  -2.763206e+01
   1.163142e+01  -1.477369e+01
   2.261685e+01   1.368027e+01
   1.046019e+01   2.802271e+01
  -1.754938e+01   1.359237e+01
  -3.105218e+01  -1.382428e+01
  -1.059892e+01  -2.724529e+01
   2.709850e+01  -1.689161e+01
   4.454372e+01   4.605878e+00
   2.386562e+01   1.995973e+01
  -1.357426e+01   2.240794e+01
  -3.077846e+01   1.484066e+01
  -1.499447e+01   3.471113e+00
   1.059155e+01  -3.734813e+00
   1.459955e+01  -1.495994e-01
  -8.005717e+00   1.015105e+01
  -3.203404e+01   1.056390e+01
