
 $NMID
 id='ANONYMOUS ', fmtdat='(2E16.6)'
 volume=1.0
 tramp=1.0
 $END
   2.470088e+03   2.138978e+01
   1.682315e+03   1.193868e+03
   1.206714e+02   1.566801e+03
  -8.809215e+02   1.072363e+03
  -7.776330e+02   2.972238e+02
  -1.351922e+02  -1.096829e+02
   2.242288e+02   2.841839e+01
   5.769044e+01   3.708377e+02
  -3.070791e+02   4.467302e+02
  -4.837872e+02   1.033518e+02
  -3.533348e+02  -3.605545e+02
  -4.611306e+01  -4.956722e+02
   1.973443e+02  -1.665958e+02
   1.839844e+02   2.916650e+02
  -6.713963e+01   4.129341e+02
  -2.999934e+02   8.157787e+01
  -2.507845e+02  -3.655975e+02
   6.794024e+01  -5.078023e+02
   3.636975e+02  -2.554166e+02
   3.706031e+02   1.146021e+02
   1.271294e+02   2.832074e+02
  -8.015776e+01   1.996284e+02
  -3.826069e+01   7.476031e+01
   1.558707e+02   1.058331e+02
   2.042565e+02   2.479620e+02
  -4.301566e+01   2.828215e+02
  -3.828816e+02   9.677934e+01
  -4.561660e+02  -1.673446e+02
  -1.511824e+02  -2.671331e+02
   2.510581e+02  -1.241313e+02
   3.721600e+02   1.206628e+02
   1.308457e+02   2.774728e+02
  -2.098167e+02   2.601756e+02
  -3.527924e+02   9.421666e+01
  -2.483380e+02  -1.192929e+02
  -7.069097e+01  -2.286372e+02
   1.408009e+00  -1.359670e+02
  -6.030994e+01   5.484630e+01
  -1.473271e+02   8.993773e+01
  -1.304802e+02  -1.313510e+02
   1.989519e+01  -3.732417e+02
   1.926593e+02  -3.209690e+02
   2.268496e+02   4.654206e-01
   7.933987e+01   2.219030e+02
  -1.024928e+02   8.912363e+01
  -1.119074e+02  -2.119674e+02
   9.820121e+01  -2.921334e+02
   3.441431e+02  -3.420187e+01
   3.767656e+02   2.966128e+02
   1.235600e+02   3.887958e+02
  -2.303028e+02   2.055635e+02
  -4.028820e+02  -5.020413e+01
  -2.707686e+02  -1.853240e+02
   2.210333e+01  -1.649427e+02
   2.115273e+02  -7.184348e+01
   1.728084e+02  -6.548348e-01
   2.518748e+01   7.247502e+00
  -2.649310e+01  -2.334624e+01
   7.021652e+01  -2.900626e+01
   1.666981e+02   3.432699e+01
   9.870121e+01   1.403202e+02
  -1.146524e+02   1.975316e+02
  -2.797061e+02   1.206728e+02
  -2.267720e+02  -8.065414e+01
   1.666995e+01  -2.762248e+02
   2.527901e+02  -3.040228e+02
   3.057596e+02  -1.206301e+02
   1.811717e+02   1.382933e+02
   3.244269e+01   2.803933e+02
  -1.894435e+01   2.465325e+02
  -2.528284e+00   1.475629e+02
  -2.789696e+01   1.041236e+02
  -1.274082e+02   9.896564e+01
  -2.134791e+02   3.164668e+01
  -1.894486e+02  -1.111543e+02
  -5.977372e+01  -2.084859e+02
   8.376708e+01  -1.450971e+02
   1.489190e+02   4.414998e+01
   9.684456e+01   2.002729e+02
  -4.787409e+01   1.946630e+02
  -1.974911e+02   3.898502e+01
  -2.388486e+02  -1.437981e+02
  -1.305670e+02  -2.343686e+02
   3.621836e+01  -2.071567e+02
   1.258100e+02  -1.283252e+02
   1.182802e+02  -7.603163e+01
   1.285093e+02  -6.105604e+01
   2.340460e+02  -2.448476e+01
   3.353536e+02   8.687375e+01
   2.556777e+02   2.467805e+02
  -2.763323e+01   3.544205e+02
  -3.168945e+02   3.160537e+02
  -3.888525e+02   1.322227e+02
  -2.232407e+02  -8.600722e+01
  -6.681546e+00  -1.968924e+02
   7.220924e+01  -1.488641e+02
  -2.401533e+00  -3.018156e+01
  -9.798814e+01   2.011409e+01
  -9.416002e+01  -3.830916e+01
   2.908724e+00  -1.060801e+02
   8.895205e+01  -7.115841e+01
   7.578080e+01   4.323099e+01
  -2.720135e+01   9.520085e+01
  -1.252836e+02  -7.697402e+00
  -1.184143e+02  -1.894559e+02
   1.689680e+01  -2.756241e+02
   1.997283e+02  -1.702153e+02
   2.961456e+02   5.181698e+01
   2.257804e+02   2.205997e+02
   4.083855e+01   2.271026e+02
  -1.096627e+02   1.094684e+02
  -1.180513e+02  -1.469089e-01
  -2.340142e+01  -8.795344e+00
   3.788689e+01   5.521451e+01
  -1.092199e+01   9.100089e+01
  -1.023797e+02   4.633793e+01
  -1.131308e+02  -2.693573e+01
  -1.912781e+01  -4.234047e+01
   6.810061e+01   1.689668e+01
   2.761742e+01   8.103715e+01
  -1.274584e+02   7.129629e+01
  -2.506624e+02  -2.472553e+01
  -2.075143e+02  -1.481630e+02
  -1.335771e+01  -2.171906e+02
   1.771035e+02  -1.833298e+02
   2.171648e+02  -6.917129e+01
   1.045416e+02   3.837917e+01
  -2.714154e+01   5.684374e+01
  -4.698483e+01  -8.109073e+00
   4.907362e+01  -6.075641e+01
   1.490842e+02  -1.909614e+01
   1.461014e+02   8.747985e+01
   4.000524e+01   1.491673e+02
  -7.280688e+01   1.040883e+02
  -9.787800e+01   9.122317e+00
  -3.153097e+01  -2.948605e+01
   3.831888e+01   2.285999e+01
   1.963800e+01   9.641460e+01
  -8.632332e+01   9.752768e+01
  -1.759959e+02   4.579249e+00
  -1.451924e+02  -1.148564e+02
  -3.504992e+00  -1.681718e+02
   1.271373e+02  -1.172328e+02
   1.372524e+02  -7.613471e+00
   4.097444e+01   7.308494e+01
  -5.024636e+01   7.254302e+01
  -5.405503e+01   1.753923e+01
   3.520763e+00  -2.034099e+01
   3.443098e+01  -4.862713e+00
  -6.881564e+00   2.512294e+01
  -7.656205e+01   3.674023e+00
  -8.966147e+01  -7.804410e+01
  -6.736467e+00  -1.484627e+02
   1.224564e+02  -1.247415e+02
   1.968014e+02  -1.895066e+00
   1.530891e+02   1.342276e+02
   2.623511e+01   1.846567e+02
  -8.262919e+01   1.261517e+02
  -1.036918e+02   2.464340e+01
  -6.017423e+01  -3.372060e+01
  -2.847105e+01  -2.214002e+01
  -4.609587e+01   1.189554e+01
  -7.376598e+01   5.322806e+00
  -4.946913e+01  -4.906923e+01
   3.267622e+01  -9.128145e+01
   1.060337e+02  -5.820915e+01
   9.298570e+01   3.930280e+01
  -1.611066e+01   1.114386e+02
  -1.406918e+02   7.385242e+01
  -1.705608e+02  -5.975471e+01
  -6.328896e+01  -1.788095e+02
   1.096896e+02  -1.784543e+02
   2.199846e+02  -5.952267e+01
   1.948070e+02   7.807327e+01
   7.539466e+01   1.370890e+02
  -3.475092e+01   1.093895e+02
  -7.136244e+01   6.286778e+01
  -5.487218e+01   5.617318e+01
  -4.616111e+01   7.742561e+01
  -7.387177e+01   6.569357e+01
  -1.082366e+02  -1.486704e+01
  -9.640601e+01  -1.265180e+02
  -1.873378e+01  -1.842062e+02
   8.399000e+01  -1.333127e+02
   1.375732e+02  -5.031763e+00
   9.917265e+01   1.065347e+02
   3.258236e+00   1.266520e+02
  -6.461631e+01   6.215053e+01
  -5.189892e+01  -1.604223e+01
   5.722864e+00  -4.669569e+01
   2.626308e+01  -2.970366e+01
  -1.994988e+01  -8.484634e+00
  -7.022398e+01  -1.390035e+01
  -4.202426e+01  -3.368452e+01
   6.258582e+01  -3.297338e+01
   1.461244e+02   4.241978e+00
   1.178410e+02   5.639930e+01
  -5.400180e+00   8.261263e+01
  -1.141840e+02   5.875844e+01
  -1.190767e+02   9.400339e-01
  -3.471261e+01  -4.395242e+01
   4.925543e+01  -3.701421e+01
   6.431620e+01   1.509430e+01
   1.802345e+01   6.172603e+01
  -3.556800e+01   5.566267e+01
  -5.753274e+01   2.856808e+00
  -5.055544e+01  -4.189092e+01
  -4.019652e+01  -3.618720e+01
  -4.370667e+01  -1.776133e+00
  -5.276901e+01  -1.480261e+00
  -3.832657e+01  -6.083299e+01
   2.143713e+01  -1.267205e+02
   1.061812e+02  -1.198779e+02
   1.523153e+02  -2.637660e+01
   1.082913e+02   7.942445e+01
  -3.210407e-01   1.108760e+02
  -7.801562e+01   5.825593e+01
  -5.154177e+01  -7.948731e+00
   4.729494e+01  -1.664962e+01
   1.077777e+02   3.422056e+01
   5.521184e+01   8.686696e+01
  -6.981001e+01   8.726785e+01
  -1.537067e+02   3.210216e+01
  -1.253421e+02  -3.647249e+01
  -2.233582e+01  -6.911789e+01
   5.371494e+01  -4.676151e+01
   3.947922e+01   3.634672e+00
  -3.331486e+01   2.625903e+01
  -7.621516e+01  -1.539177e+01
  -3.413542e+01  -9.357446e+01
   6.157067e+01  -1.273903e+02
   1.259354e+02  -5.950508e+01
   1.028597e+02   7.198751e+01
   1.451647e+01   1.549252e+02
  -6.621686e+01   1.129699e+02
  -8.426831e+01  -1.108716e+01
  -4.254571e+01  -9.872185e+01
   1.430414e+01  -8.252832e+01
   4.360863e+01  -1.018824e+01
   3.496975e+01   2.681158e+01
   1.128130e+01   5.818707e+00
   5.422619e+00  -1.342554e+01
   2.716795e+01   1.898530e+01
   4.714736e+01   7.386434e+01
   2.297513e+01   8.438868e+01
  -4.799371e+01   3.347297e+01
  -1.094367e+02  -3.012512e+01
  -9.757536e+01  -5.636527e+01
  -1.497993e+01  -4.425088e+01
   6.351576e+01  -2.178010e+01
   6.973590e+01  -3.829512e+00
   1.582366e+01   1.057093e+01
  -2.691718e+01   1.708093e+01
  -1.724831e+01   8.941813e+00
   1.034449e+01  -3.803891e+00
  -1.568819e+00  -3.625062e+00
  -5.210997e+01   2.152453e+00
  -7.608164e+01  -1.695717e+01
  -2.128491e+01  -6.610329e+01
   8.418976e+01  -9.745126e+01
   1.537160e+02  -5.677253e+01
   1.275344e+02   4.483538e+01
   2.853772e+01   1.287697e+02
  -6.540816e+01   1.279723e+02
  -9.551935e+01   5.575588e+01
  -6.563904e+01  -1.470184e+01
  -2.207864e+01  -3.156947e+01
  -3.474465e+00  -1.180530e+01
  -1.227737e+01  -8.034129e+00
  -2.391069e+01  -4.090059e+01
  -1.330211e+01  -7.446036e+01
   2.369747e+01  -5.855806e+01
   6.312187e+01   1.096006e+01
   6.627140e+01   8.052058e+01
   1.476236e+01   8.922687e+01
  -5.869325e+01   2.874497e+01
  -8.704690e+01  -4.935631e+01
  -3.542743e+01  -8.349729e+01
   5.097595e+01  -5.512865e+01
   8.626454e+01   4.492181e+00
   3.931538e+01   4.898593e+01
  -2.802521e+01   5.301982e+01
  -3.493139e+01   2.430589e+01
   1.911947e+01  -6.387746e+00
   5.529753e+01  -8.242643e+00
   1.602421e+01   2.266924e+01
  -6.337054e+01   5.355060e+01
  -9.973292e+01   4.237444e+01
  -6.005741e+01  -1.478678e+01
   9.984750e+00  -6.989297e+01
   4.815616e+01  -6.902953e+01
   3.868090e+01  -1.267130e+01
   7.719241e+00   4.150253e+01
  -1.834167e+01   4.085299e+01
  -3.012049e+01  -6.009677e+00
  -2.414798e+01  -4.353993e+01
  -2.582526e-01  -3.424107e+01
   2.725713e+01   2.916698e+00
   3.498527e+01   2.155907e+01
   1.708649e+01   4.845207e+00
  -4.141470e+00  -1.766960e+01
  -5.509189e+00  -9.839351e+00
   6.052262e+00   2.462147e+01
   3.435483e+00   4.486861e+01
  -2.027119e+01   2.171558e+01
  -3.627959e+01  -2.544218e+01
  -1.482640e+01  -4.813910e+01
   3.142513e+01  -2.264129e+01
   5.294332e+01   2.471578e+01
   1.783058e+01   4.822716e+01
  -4.660894e+01   3.040318e+01
  -7.727993e+01  -7.445280e+00
  -4.230141e+01  -3.461988e+01
   2.286330e+01  -3.865231e+01
   5.315117e+01  -2.529655e+01
   2.478610e+01  -6.490041e+00
  -2.075042e+01   4.367714e+00
  -2.617859e+01  -2.514830e+00
   1.673798e+01  -1.925670e+01
   6.018870e+01  -1.804119e+01
