
 $NMID
 id='ANONYMOUS ', fmtdat='(2E16.6)'
 volume=1.0
 tramp=1.0
 $END
  -4.748699e+03  -6.188180e+01
  -2.651301e+03  -2.982704e+03
   1.008609e+03  -2.991863e+03
   2.417095e+03  -7.650758e+02
   9.508999e+02   9.327314e+02
  -8.789262e+02   6.806301e+02
  -1.045410e+03  -5.596683e+02
   5.146844e+01  -1.236168e+03
   9.727495e+02  -8.343346e+02
   1.039218e+03   1.728176e+02
   4.438771e+02   9.934389e+02
  -3.386139e+02   9.714000e+02
  -7.485769e+02   8.168426e+01
  -4.145078e+02  -8.313261e+02
   3.378679e+02  -8.192008e+02
   6.792535e+02   4.630846e+01
   2.559568e+02   7.605065e+02
  -4.024270e+02   6.458928e+02
  -6.323111e+02   2.912754e+01
  -3.735105e+02  -4.184853e+02
   2.485485e+01  -4.686312e+02
   2.866494e+02  -2.690042e+02
   2.564850e+02   4.330444e+00
  -1.003490e+02   1.360020e+02
  -4.504787e+02  -7.929125e+01
  -2.531955e+02  -4.646259e+02
   4.764747e+02  -4.806396e+02
   9.347634e+02   6.403911e+01
   4.865478e+02   6.225077e+02
  -4.315208e+02   5.648177e+02
  -8.299569e+02  -2.510319e+01
  -3.893169e+02  -5.337930e+02
   3.051455e+02  -5.714885e+02
   6.152017e+02  -2.158004e+02
   4.483529e+02   2.606790e+02
   5.968079e+01   5.333827e+02
  -2.554829e+02   3.153316e+02
  -2.292767e+02  -2.608208e+02
   1.738584e+02  -5.211659e+02
   5.236041e+02  -6.031478e+00
   3.009407e+02   7.553957e+02
  -3.592888e+02   7.867324e+02
  -6.971097e+02  -5.384886e+00
  -2.948656e+02  -6.394783e+02
   3.434987e+02  -3.724339e+02
   4.479033e+02   3.531803e+02
  -6.624177e+01   6.036030e+02
  -6.015785e+02   1.524558e+02
  -6.324127e+02  -4.367557e+02
  -1.627272e+02  -6.279164e+02
   4.208894e+02  -3.701081e+02
   6.747545e+02   8.982533e+01
   3.869366e+02   4.374520e+02
  -1.938042e+02   4.104898e+02
  -4.993922e+02   4.220093e+01
  -2.524482e+02  -2.527863e+02
   1.590421e+02  -1.326075e+02
   1.727464e+02   1.899966e+02
  -1.902159e+02   2.265497e+02
  -3.898677e+02  -8.881402e+01
  -1.455347e+02  -3.407491e+02
   2.296573e+02  -2.657446e+02
   3.373685e+02  -4.898906e+01
   1.772679e+02   8.850237e+01
  -3.271813e+01   1.972797e+02
  -2.071731e+02   3.135990e+02
  -3.360160e+02   2.343297e+02
  -3.118871e+02  -1.337331e+02
  -8.533991e+01  -4.682613e+02
   1.456797e+02  -4.122691e+02
   1.560582e+02  -9.767311e+01
   2.450373e+01   4.714397e+01
   1.606860e+01  -7.790106e+01
   1.816432e+02  -1.524835e+02
   2.943593e+02   3.464688e+01
   1.816826e+02   2.802728e+02
  -6.708353e+01   2.812776e+02
  -2.433239e+02   2.557297e+01
  -2.190666e+02  -2.457181e+02
   1.000441e+00  -3.143512e+02
   2.782637e+02  -1.336955e+02
   3.828201e+02   1.718556e+02
   1.933224e+02   3.761738e+02
  -1.186597e+02   3.256620e+02
  -2.521263e+02   1.120716e+02
  -1.562614e+02  -1.936138e+01
  -8.652591e+01   2.280022e+01
  -2.232170e+02   7.081331e+01
  -4.016232e+02  -5.044016e+01
  -3.373296e+02  -2.879976e+02
  -3.773292e-01  -4.499469e+02
   3.618947e+02  -4.197584e+02
   4.997140e+02  -2.072335e+02
   3.562311e+02   9.512532e+01
   6.431840e+01   3.129724e+02
  -1.459719e+02   2.744970e+02
  -1.062879e+02   2.797027e+01
   1.098748e+02  -1.302095e+02
   2.213332e+02  -2.917354e+00
   6.374780e+01   2.178570e+02
  -1.802898e+02   1.964040e+02
  -2.052640e+02  -6.554771e+01
   1.533172e+01  -2.169738e+02
   2.091841e+02  -4.256101e+01
   1.678556e+02   2.580335e+02
  -3.997538e+01   3.568584e+02
  -2.327183e+02   1.868551e+02
  -3.185077e+02  -6.874969e+01
  -2.766024e+02  -2.362485e+02
  -1.039677e+02  -2.632440e+02
   1.110978e+02  -1.677040e+02
   1.894164e+02  -2.480697e+01
   6.787247e+01   3.933680e+01
  -7.646715e+01  -3.194986e+01
  -4.022422e+01  -1.308650e+02
   1.265313e+02  -1.116117e+02
   1.922419e+02   9.381739e+00
   6.811645e+01   8.017592e+01
  -8.008406e+01   2.613318e+01
  -6.065973e+01  -6.709368e+01
   1.163775e+02  -8.514385e+01
   2.764037e+02  -3.670898e+00
   2.653711e+02   1.327287e+02
   6.941810e+01   2.542755e+02
  -1.799784e+02   2.710886e+02
  -2.933249e+02   1.361371e+02
  -1.839621e+02  -5.552170e+01
   2.342733e+01  -1.224971e+02
   1.020596e+02  -1.286028e+01
  -2.620172e+01   1.100977e+02
  -2.024635e+02   6.825672e+01
  -2.248329e+02  -1.048608e+02
  -7.371499e+01  -2.188050e+02
   9.901634e+01  -1.679400e+02
   1.533674e+02  -3.296659e+01
   8.045744e+01   4.454443e+01
  -2.222215e+01   1.186967e+01
  -4.039119e+01  -7.350807e+01
   6.304287e+01  -1.103449e+02
   1.938749e+02  -3.354606e+01
   1.954160e+02   1.210324e+02
   2.414552e+01   2.237379e+02
  -1.709096e+02   1.701439e+02
  -2.044551e+02   3.288505e+00
  -6.951033e+01  -1.244226e+02
   7.046389e+01  -1.192198e+02
   9.002057e+01  -3.287771e+01
   2.534815e+01   2.684184e+01
  -1.570881e+01   2.229629e+01
   1.025721e+01  -1.089125e+00
   6.396044e+01   1.346375e+01
   8.084538e+01   7.891712e+01
   1.528368e+01   1.514638e+02
  -1.208585e+02   1.510800e+02
  -2.322274e+02   3.046611e+01
  -2.053692e+02  -1.483416e+02
  -4.259442e+01  -2.425926e+02
   1.141219e+02  -1.746806e+02
   1.401834e+02  -2.499234e+01
   6.962916e+01   6.134677e+01
   2.647279e+01   3.918266e+01
   5.286100e+01  -1.081553e+01
   7.694052e+01  -5.395847e+00
   3.575744e+01   4.721519e+01
  -4.408647e+01   8.032374e+01
  -9.494634e+01   4.932708e+01
  -7.664574e+01  -3.255248e+01
   1.268802e+01  -1.023818e+02
   1.333261e+02  -8.316181e+01
   1.933068e+02   4.613171e+01
   1.056905e+02   1.974110e+02
  -1.002668e+02   2.312511e+02
  -2.681785e+02   1.009552e+02
  -2.637236e+02  -8.605941e+01
  -1.137032e+02  -1.816708e+02
   3.949295e+01  -1.517632e+02
   9.831136e+01  -8.572234e+01
   8.430554e+01  -6.906884e+01
   7.125865e+01  -8.922532e+01
   9.410861e+01  -7.127764e+01
   1.269258e+02   2.481842e+01
   1.158442e+02   1.555773e+02
   2.900606e+01   2.271950e+02
  -9.976930e+01   1.743408e+02
  -1.785035e+02   2.295220e+01
  -1.399725e+02  -1.212005e+02
  -2.194054e+01  -1.618582e+02
   6.520250e+01  -9.674146e+01
   5.941938e+01  -5.910927e+00
   7.887713e+00   3.861749e+01
  -4.596182e+00   3.403310e+01
   3.937291e+01   2.108645e+01
   7.698921e+01   2.542988e+01
   4.227874e+01   3.789507e+01
  -6.042564e+01   3.510635e+01
  -1.517981e+02   3.406415e+00
  -1.423248e+02  -4.790076e+01
  -2.067460e+01  -8.515936e+01
   1.159277e+02  -7.324786e+01
   1.452379e+02  -1.525239e+01
   4.978793e+01   3.784448e+01
  -6.053406e+01   3.449025e+01
  -7.483563e+01  -2.004619e+01
  -2.839203e+00  -6.634277e+01
   5.984498e+01  -5.421329e+01
   6.120979e+01   4.403333e+00
   3.843081e+01   5.016814e+01
   4.125219e+01   4.168438e+01
   6.348014e+01   3.183912e+00
   6.653198e+01   1.173651e+00
   3.101231e+01   6.599308e+01
  -3.641549e+01   1.422263e+02
  -1.139617e+02   1.379026e+02
  -1.579264e+02   3.147820e+01
  -1.192297e+02  -9.060823e+01
  -7.065155e+00  -1.232848e+02
   8.380497e+01  -5.760975e+01
   5.871125e+01   1.716137e+01
  -5.959779e+01   1.920879e+01
  -1.383154e+02  -4.551772e+01
  -7.690887e+01  -1.084077e+02
   8.051720e+01  -1.128847e+02
   1.922084e+02  -5.324734e+01
   1.648056e+02   3.262595e+01
   3.910848e+01   8.770250e+01
  -6.039555e+01   7.319893e+01
  -4.939385e+01   1.014367e+01
   3.833770e+01  -2.493523e+01
   8.930391e+01   2.450238e+01
   2.901413e+01   1.198827e+02
  -9.744419e+01   1.522769e+02
  -1.714450e+02   5.721690e+01
  -1.254080e+02  -1.052791e+02
  -5.847730e+00  -1.994354e+02
   8.834815e+01  -1.445523e+02
   1.048306e+02   5.944728e+00
   6.168263e+01   1.176853e+02
   1.446045e+00   1.080398e+02
  -4.392091e+01   2.193270e+01
  -5.423969e+01  -3.138894e+01
  -2.927338e+01  -9.451427e+00
  -3.441186e+00   2.172168e+01
  -1.680160e+01  -1.280548e+01
  -5.395485e+01  -8.845526e+01
  -4.460823e+01  -1.116186e+02
   4.392019e+01  -4.590105e+01
   1.387436e+02   4.192140e+01
   1.318218e+02   7.317288e+01
   1.673659e+01   4.853497e+01
  -9.095501e+01   1.961997e+01
  -8.919012e+01   7.361463e+00
  -8.311984e+00  -5.781416e+00
   4.041458e+01  -2.215930e+01
   1.238673e+01  -2.013699e+01
  -2.384433e+01   2.197117e-01
   6.644564e+00   1.053003e+01
   7.699739e+01   6.936716e+00
   9.039880e+01   2.595779e+01
   2.171676e+00   7.975919e+01
  -1.242092e+02   1.104790e+02
  -1.848568e+02   5.236200e+01
  -1.358293e+02  -7.269376e+01
  -2.060944e+01  -1.629360e+02
   8.048390e+01  -1.461693e+02
   1.136973e+02  -5.381401e+01
   8.002700e+01   2.366977e+01
   2.368858e+01   3.464921e+01
  -5.158928e+00   6.889845e+00
   8.747199e+00   2.453264e+00
   3.346489e+01   4.471438e+01
   2.323063e+01   8.966913e+01
  -3.017204e+01   7.087837e+01
  -8.159460e+01  -2.115639e+01
  -7.386438e+01  -1.117884e+02
   1.433766e+00  -1.125208e+02
   8.530281e+01  -1.906203e+01
   1.002708e+02   8.097811e+01
   2.704078e+01   1.037876e+02
  -6.807881e+01   5.086315e+01
  -9.489526e+01  -1.509787e+01
  -3.565542e+01  -4.814790e+01
   3.283433e+01  -4.719020e+01
   2.820316e+01  -2.718448e+01
  -3.691881e+01  -2.265754e+00
  -6.951199e+01   4.626417e+00
  -1.310585e+01  -2.437482e+01
   8.026609e+01  -6.458459e+01
   1.139774e+02  -5.859195e+01
   6.050440e+01   1.097048e+01
  -1.798399e+01   8.156788e+01
  -5.213708e+01   7.670139e+01
  -3.380572e+01   2.252414e+00
   1.735355e+00  -5.701881e+01
   2.716537e+01  -4.011861e+01
   3.570530e+01   2.194604e+01
   2.467836e+01   5.428581e+01
  -4.159470e+00   2.994429e+01
  -3.268836e+01  -1.044485e+01
  -3.823130e+01  -1.996391e+01
  -2.039466e+01   7.080800e-05
  -7.209611e-01   1.187651e+01
   6.934561e+00  -7.187330e+00
   1.115719e+01  -3.802205e+01
   2.300810e+01  -4.115141e+01
   3.419491e+01  -1.681062e+00
   2.523705e+01   4.910267e+01
  -8.809241e+00   6.101731e+01
  -4.640923e+01   1.763856e+01
  -5.308335e+01  -4.247981e+01
  -1.125596e+01  -6.408210e+01
   5.443963e+01  -3.197335e+01
   8.632531e+01   1.858063e+01
   4.726548e+01   4.505938e+01
  -2.949764e+01   3.812530e+01
  -6.461925e+01   1.741109e+01
  -2.237642e+01   3.541472e+00
   4.033935e+01   5.039390e+00
   3.879475e+01   1.989458e+01
  -3.401407e+01   3.269692e+01
  -9.599024e+01   1.733324e+01
