
 $NMID
 id='ANONYMOUS ', fmtdat='(2E16.6)'
 volume=1.0
 tramp=1.0
 $END
  -4.045543e+03   1.456339e+01
  -2.390245e+03  -2.392496e+03
   6.190782e+02  -2.561565e+03
   1.928234e+03  -8.907639e+02
   9.056604e+02   5.379707e+02
  -5.575520e+02   5.126171e+02
  -7.976156e+02  -3.831454e+02
   2.596128e+00  -9.689222e+02
   7.557002e+02  -7.265730e+02
   8.688379e+02   7.373289e+01
   4.284613e+02   7.911775e+02
  -2.066251e+02   8.277344e+02
  -5.763888e+02   1.169734e+02
  -3.536747e+02  -6.591362e+02
   2.432230e+02  -6.976228e+02
   5.620898e+02  -2.096474e+00
   2.644876e+02   6.343833e+02
  -2.893586e+02   6.079397e+02
  -5.475990e+02   1.078647e+02
  -3.777539e+02  -3.185323e+02
  -2.869955e+01  -4.109131e+02
   2.188652e+02  -2.510724e+02
   1.886453e+02  -2.305820e+01
  -1.167183e+02   6.313876e+01
  -3.766316e+02  -1.256075e+02
  -1.680864e+02  -4.060586e+02
   4.420225e+02  -3.691530e+02
   7.885136e+02   8.360573e+01
   3.909535e+02   5.067180e+02
  -3.691368e+02   4.345509e+02
  -6.894450e+02  -4.384086e+01
  -3.166168e+02  -4.497710e+02
   2.682368e+02  -4.796925e+02
   5.313488e+02  -1.866978e+02
   3.899876e+02   2.108712e+02
   7.000770e+01   4.381864e+02
  -1.728386e+02   2.626046e+02
  -1.427801e+02  -1.950746e+02
   1.596960e+02  -3.905172e+02
   4.027624e+02   3.022865e+01
   2.117950e+02   6.342708e+02
  -2.977212e+02   6.476697e+02
  -5.518237e+02   4.755496e+00
  -2.362309e+02  -5.068692e+02
   2.645825e+02  -2.890533e+02
   3.489576e+02   3.042226e+02
  -6.814407e+01   5.086213e+02
  -5.202668e+02   1.241760e+02
  -5.597315e+02  -3.847129e+02
  -1.594510e+02  -5.516662e+02
   3.569612e+02  -3.250126e+02
   5.920203e+02   6.821021e+01
   3.567352e+02   3.539400e+02
  -1.354688e+02   3.367740e+02
  -4.095886e+02   5.783469e+01
  -2.305241e+02  -1.707917e+02
   1.006367e+02  -9.538165e+01
   1.296648e+02   1.365071e+02
  -1.505812e+02   1.678769e+02
  -3.220347e+02  -6.693027e+01
  -1.354572e+02  -2.767232e+02
   1.902145e+02  -2.477662e+02
   3.184111e+02  -7.631184e+01
   1.940157e+02   8.294992e+01
  -2.412526e+01   2.221942e+02
  -2.163221e+02   3.143186e+02
  -3.235873e+02   2.044663e+02
  -2.737029e+02  -1.308709e+02
  -7.550414e+01  -4.091604e+02
   1.007676e+02  -3.627252e+02
   1.067282e+02  -1.147917e+02
   2.546886e+01  -6.713022e-02
   4.914627e+01  -8.532565e+01
   1.897542e+02  -1.182460e+02
   2.629593e+02   5.416138e+01
   1.481307e+02   2.558773e+02
  -6.848225e+01   2.403856e+02
  -2.141505e+02   7.406435e+00
  -1.850167e+02  -2.288625e+02
   1.109723e+01  -2.776722e+02
   2.517097e+02  -1.084650e+02
   3.409836e+02   1.578374e+02
   1.792332e+02   3.296137e+02
  -8.858105e+01   2.905250e+02
  -2.111971e+02   1.204923e+02
  -1.443216e+02   1.246403e+01
  -9.895347e+01   3.627910e+01
  -2.257381e+02   6.016505e+01
  -3.822353e+02  -5.560610e+01
  -3.165695e+02  -2.703196e+02
   1.553614e+00  -4.206486e+02
   3.418555e+02  -3.933679e+02
   4.626030e+02  -1.915274e+02
   3.166523e+02   8.731705e+01
   5.090497e+01   2.764142e+02
  -1.194528e+02   2.376326e+02
  -7.221679e+01   2.976689e+01
   1.047388e+02  -9.788338e+01
   1.822205e+02   6.977272e+00
   4.602962e+01   1.826674e+02
  -1.496012e+02   1.600964e+02
  -1.661813e+02  -5.606937e+01
   1.618680e+01  -1.796606e+02
   1.828684e+02  -2.992880e+01
   1.563828e+02   2.344405e+02
  -2.753195e+01   3.323243e+02
  -2.196390e+02   1.853281e+02
  -3.126812e+02  -5.850303e+01
  -2.646749e+02  -2.272777e+02
  -8.851113e+01  -2.507993e+02
   1.082974e+02  -1.515127e+02
   1.671191e+02  -1.975159e+01
   5.459187e+01   2.904915e+01
  -6.519543e+01  -3.813762e+01
  -2.629874e+01  -1.181995e+02
   1.176521e+02  -9.335052e+01
   1.680595e+02   1.215362e+01
   5.405720e+01   6.766268e+01
  -7.621547e+01   1.405192e+01
  -5.161347e+01  -7.063002e+01
   1.185358e+02  -8.282370e+01
   2.686061e+02   7.910789e-01
   2.497655e+02   1.335722e+02
   5.599012e+01   2.420554e+02
  -1.752441e+02   2.468925e+02
  -2.680059e+02   1.197618e+02
  -1.602323e+02  -4.770411e+01
   2.297191e+01  -1.026111e+02
   8.495263e+01  -7.714372e+00
  -3.178349e+01   9.540911e+01
  -1.851688e+02   5.603387e+01
  -2.021226e+02  -9.631667e+01
  -6.644700e+01  -1.963079e+02
   8.857492e+01  -1.496760e+02
   1.358357e+02  -2.776319e+01
   6.597275e+01   3.887066e+01
  -2.721231e+01   1.576117e+00
  -3.529695e+01  -8.007784e+01
   6.855000e+01  -1.075561e+02
   1.880104e+02  -2.762477e+01
   1.818445e+02   1.162742e+02
   2.106870e+01   2.063240e+02
  -1.549537e+02   1.563292e+02
  -1.836323e+02   7.554385e+00
  -6.241944e+01  -1.076042e+02
   6.256055e+01  -1.058306e+02
   7.846832e+01  -2.939213e+01
   1.681863e+01   2.458971e+01
  -2.124367e+01   1.726673e+01
   9.062015e+00  -8.673050e+00
   6.799631e+01   7.058795e+00
   8.486398e+01   7.730918e+01
   1.507464e+01   1.503729e+02
  -1.190879e+02   1.449296e+02
  -2.209901e+02   2.518769e+01
  -1.915606e+02  -1.409844e+02
  -4.113830e+01  -2.241275e+02
   1.018539e+02  -1.613740e+02
   1.285234e+02  -2.695121e+01
   6.755644e+01   5.174067e+01
   2.763494e+01   3.347928e+01
   5.059946e+01  -1.196887e+01
   7.588999e+01  -6.600676e+00
   4.078280e+01   4.714483e+01
  -3.920590e+01   8.438232e+01
  -9.755245e+01   5.368509e+01
  -8.228479e+01  -3.331772e+01
   1.204371e+01  -1.054335e+02
   1.343454e+02  -8.249853e+01
   1.871379e+02   4.736102e+01
   9.568263e+01   1.902331e+02
  -9.976544e+01   2.166443e+02
  -2.519319e+02   9.222335e+01
  -2.438087e+02  -7.973362e+01
  -1.045627e+02  -1.662972e+02
   3.582031e+01  -1.392999e+02
   8.873911e+01  -8.010871e+01
   7.417425e+01  -6.629233e+01
   6.213376e+01  -8.660630e+01
   8.674845e+01  -7.097447e+01
   1.215186e+02   1.979831e+01
   1.122090e+02   1.448596e+02
   2.926551e+01   2.135367e+02
  -9.232330e+01   1.632117e+02
  -1.656115e+02   2.006793e+01
  -1.292585e+02  -1.146586e+02
  -1.858343e+01  -1.507540e+02
   6.366777e+01  -8.711221e+01
   5.713489e+01  -3.765344e-02
   4.348009e+00   4.107571e+01
  -1.077589e+01   3.289816e+01
   3.364218e+01   1.666506e+01
   7.526059e+01   2.066175e+01
   4.279919e+01   3.591919e+01
  -6.055308e+01   3.544401e+01
  -1.500672e+02   3.462955e+00
  -1.356055e+02  -4.837894e+01
  -1.397376e+01  -8.420468e+01
   1.143136e+02  -7.064664e+01
   1.370120e+02  -1.302814e+01
   4.578151e+01   3.902364e+01
  -5.648683e+01   3.619474e+01
  -7.189486e+01  -1.736809e+01
  -8.585036e+00  -6.479870e+01
   5.146262e+01  -5.550560e+01
   6.011704e+01   1.188926e+00
   4.295634e+01   4.692928e+01
   4.157848e+01   3.933241e+01
   5.742047e+01   1.834186e+00
   6.231006e+01   2.706877e-01
   3.432100e+01   6.386966e+01
  -2.957733e+01   1.379670e+02
  -1.094537e+02   1.341572e+02
  -1.557482e+02   3.242903e+01
  -1.172758e+02  -8.530341e+01
  -6.704709e+00  -1.194024e+02
   8.109870e+01  -5.914600e+01
   5.673250e+01   1.340598e+01
  -5.550914e+01   1.931579e+01
  -1.295717e+02  -3.996885e+01
  -7.184503e+01  -1.006473e+02
   7.554277e+01  -1.062268e+02
   1.795995e+02  -4.960784e+01
   1.531834e+02   3.138194e+01
   3.524115e+01   8.143527e+01
  -5.730851e+01   6.597487e+01
  -4.625157e+01   6.625377e+00
   3.638210e+01  -2.594243e+01
   8.562021e+01   2.031907e+01
   3.239583e+01   1.112731e+02
  -8.404553e+01   1.459862e+02
  -1.564662e+02   6.045417e+01
  -1.199756e+02  -9.310254e+01
  -1.150514e+01  -1.855672e+02
   7.936225e+01  -1.361183e+02
   9.861841e+01   5.958386e+00
   5.757183e+01   1.109564e+02
  -1.824234e+00   1.002373e+02
  -4.354651e+01   1.901226e+01
  -4.877176e+01  -2.921183e+01
  -2.384545e+01  -7.957779e+00
  -3.750711e+00   1.922664e+01
  -2.025525e+01  -1.439070e+01
  -5.320936e+01  -8.312775e+01
  -3.957620e+01  -1.026205e+02
   4.451922e+01  -4.279959e+01
   1.303199e+02   3.620335e+01
   1.223450e+02   6.605149e+01
   1.695766e+01   4.696037e+01
  -8.215699e+01   2.160902e+01
  -8.309281e+01   7.602722e+00
  -1.075884e+01  -7.088091e+00
   3.591817e+01  -2.117058e+01
   1.363160e+01  -1.690540e+01
  -1.964904e+01   1.638230e+00
   5.206886e+00   8.317141e+00
   6.937592e+01   3.021305e+00
   8.635940e+01   2.179809e+01
   9.299056e+00   7.540999e+01
  -1.101431e+02   1.082571e+02
  -1.743940e+02   5.655271e+01
  -1.343137e+02  -6.194164e+01
  -2.550948e+01  -1.520253e+02
   7.357768e+01  -1.417902e+02
   1.072189e+02  -5.616373e+01
   7.592638e+01   1.968773e+01
   2.373900e+01   3.333068e+01
  -2.349601e+00   8.447243e+00
   9.912803e+00   4.019422e+00
   3.121806e+01   4.305787e+01
   2.152811e+01   8.466510e+01
  -2.709936e+01   6.753453e+01
  -7.618283e+01  -1.679132e+01
  -7.316387e+01  -1.009887e+02
  -5.265456e+00  -1.052720e+02
   7.672675e+01  -2.329203e+01
   9.733414e+01   6.966619e+01
   3.120611e+01   9.704972e+01
  -6.195664e+01   5.319963e+01
  -9.243188e+01  -1.033411e+01
  -3.757977e+01  -4.782171e+01
   3.055829e+01  -4.950926e+01
   2.986861e+01  -2.679428e+01
  -3.140787e+01   9.079297e-01
  -6.503518e+01   6.790274e+00
  -1.439655e+01  -2.362459e+01
   7.407544e+01  -6.238844e+01
   1.087414e+02  -5.535042e+01
   6.057962e+01   1.117827e+01
  -1.426010e+01   7.822067e+01
  -4.972096e+01   7.516655e+01
  -3.522726e+01   6.050992e+00
  -2.024207e+00  -5.220609e+01
   2.378879e+01  -4.074502e+01
   3.425078e+01   1.647430e+01
   2.533734e+01   5.057778e+01
  -2.285097e+00   3.132344e+01
  -3.114209e+01  -7.620021e+00
  -3.756790e+01  -1.986249e+01
  -1.940326e+01  -1.188118e+00
   1.008157e+00   1.365619e+01
   6.474989e+00  -2.024538e+00
   5.295521e+00  -3.396801e+01
   1.414482e+01  -4.253448e+01
   2.975456e+01  -8.355174e+00
   2.932057e+01   4.132289e+01
  -5.837811e-01   5.705627e+01
  -4.147048e+01   1.985671e+01
  -5.363952e+01  -3.613581e+01
  -1.423979e+01  -5.897249e+01
   5.152161e+01  -3.233127e+01
   8.378488e+01   1.379472e+01
   4.641054e+01   4.110372e+01
  -2.683248e+01   3.873712e+01
  -6.076029e+01   2.083546e+01
  -2.305358e+01   4.830099e+00
   3.431608e+01   1.587973e+00
   3.512394e+01   1.396541e+01
  -2.822363e+01   2.899852e+01
  -8.465103e+01   1.890664e+01
