
 $NMID
 id='ANONYMOUS ', fmtdat='(2E16.6)'
 volume=1.0
 tramp=1.0
 $END
   2.785024e+03  -6.339994e+01
   1.924302e+03   1.280825e+03
   1.846146e+02   1.741817e+03
  -9.383346e+02   1.220778e+03
  -8.385365e+02   3.625684e+02
  -1.419567e+02  -1.031964e+02
   2.492466e+02   3.701330e+01
   6.876267e+01   4.164759e+02
  -3.321951e+02   5.081718e+02
  -5.363523e+02   1.297113e+02
  -4.048633e+02  -3.918932e+02
  -6.674396e+01  -5.503425e+02
   2.148829e+02  -1.874223e+02
   2.137381e+02   3.248596e+02
  -6.268328e+01   4.646646e+02
  -3.326150e+02   9.974733e+01
  -2.934165e+02  -3.999310e+02
   5.483513e+01  -5.685166e+02
   3.930720e+02  -2.991925e+02
   4.166446e+02   1.117309e+02
   1.529992e+02   3.099503e+02
  -8.220766e+01   2.250663e+02
  -3.916542e+01   8.179997e+01
   1.837883e+02   1.085443e+02
   2.458365e+02   2.708726e+02
  -3.519138e+01   3.253283e+02
  -4.314327e+02   1.286313e+02
  -5.246992e+02  -1.718793e+02
  -1.793050e+02  -2.995986e+02
   2.835984e+02  -1.516012e+02
   4.278535e+02   1.234524e+02
   1.581597e+02   3.103930e+02
  -2.278749e+02   3.027592e+02
  -3.945587e+02   1.199553e+02
  -2.835116e+02  -1.253863e+02
  -8.583401e+01  -2.545625e+02
  -8.683295e-01  -1.495568e+02
  -6.651634e+01   7.047686e+01
  -1.678857e+02   1.104470e+02
  -1.575530e+02  -1.463323e+02
   7.792423e+00  -4.271863e+02
   2.084836e+02  -3.698562e+02
   2.572218e+02  -3.272325e+00
   9.471110e+01   2.509060e+02
  -1.165026e+02   1.029267e+02
  -1.359330e+02  -2.384331e+02
   1.002951e+02  -3.350465e+02
   3.877973e+02  -5.225118e+01
   4.368792e+02   3.187355e+02
   1.545792e+02   4.319987e+02
  -2.517984e+02   2.401141e+02
  -4.554798e+02  -4.064801e+01
  -3.097161e+02  -1.976318e+02
   2.147252e+01  -1.848319e+02
   2.349078e+02  -8.642748e+01
   1.902045e+02  -6.657825e+00
   2.550347e+01   4.620396e+00
  -2.906629e+01  -2.820916e+01
   8.121923e+01  -3.530708e+01
   1.891825e+02   3.404182e+01
   1.148365e+02   1.543893e+02
  -1.204520e+02   2.259269e+02
  -3.068918e+02   1.481224e+02
  -2.580551e+02  -7.829682e+01
   3.593693e+00  -3.100025e+02
   2.681571e+02  -3.546132e+02
   3.389614e+02  -1.509281e+02
   2.110701e+02   1.481033e+02
   4.780338e+01   3.148974e+02
  -1.225759e+01   2.764618e+02
   4.501846e+00   1.628938e+02
  -2.357912e+01   1.173799e+02
  -1.369471e+02   1.191273e+02
  -2.396685e+02   4.749543e+01
  -2.199996e+02  -1.163962e+02
  -7.712762e+01  -2.332793e+02
   8.876710e+01  -1.680788e+02
   1.709808e+02   4.313914e+01
   1.187306e+02   2.220458e+02
  -4.555552e+01   2.222671e+02
  -2.216053e+02   5.294475e+01
  -2.756040e+02  -1.517788e+02
  -1.563701e+02  -2.582042e+02
   3.259525e+01  -2.335957e+02
   1.351577e+02  -1.481659e+02
   1.275428e+02  -9.008134e+01
   1.402254e+02  -7.542869e+01
   2.620212e+02  -3.971670e+01
   3.815850e+02   8.141279e+01
   2.990939e+02   2.655326e+02
  -1.451474e+01   4.000259e+02
  -3.415273e+02   3.704319e+02
  -4.314472e+02   1.665887e+02
  -2.554223e+02  -8.744190e+01
  -1.588337e+01  -2.221708e+02
   7.597506e+01  -1.701957e+02
  -3.608573e+00  -3.196631e+01
  -1.107686e+02   2.796399e+01
  -1.089863e+02  -4.004596e+01
  -6.693597e-01  -1.208952e+02
   9.877329e+01  -8.357718e+01
   8.760037e+01   4.690741e+01
  -2.761818e+01   1.090869e+02
  -1.422501e+02  -3.380605e+00
  -1.415788e+02  -2.077818e+02
   6.512926e+00  -3.101737e+02
   2.159533e+02  -2.005928e+02
   3.347078e+02   4.366504e+01
   2.644648e+02   2.370179e+02
   5.705258e+01   2.539570e+02
  -1.184602e+02   1.286591e+02
  -1.332719e+02   4.778716e+00
  -2.646546e+01  -9.588079e+00
   4.589249e+01   6.052057e+01
  -8.008345e+00   1.037057e+02
  -1.137204e+02   5.714149e+01
  -1.290283e+02  -2.569212e+01
  -2.327072e+01  -4.755313e+01
   7.801938e+01   1.546231e+01
   3.548957e+01   8.997346e+01
  -1.395565e+02   8.667195e+01
  -2.830695e+02  -1.535134e+01
  -2.408657e+02  -1.566040e+02
  -2.566583e+01  -2.441135e+02
   1.908831e+02  -2.150732e+02
   2.416786e+02  -8.771221e+01
   1.194093e+02   3.917344e+01
  -2.862454e+01   6.558812e+01
  -5.378497e+01  -7.496242e+00
   5.265491e+01  -7.129688e+01
   1.674022e+02  -2.836570e+01
   1.685014e+02   9.215328e+01
   5.147265e+01   1.662875e+02
  -7.762139e+01   1.203975e+02
  -1.100609e+02   1.441106e+01
  -3.690581e+01  -3.237112e+01
   4.460824e+01   2.324828e+01
   2.738527e+01   1.073753e+02
  -9.199698e+01   1.142179e+02
  -1.977887e+02   1.389147e+01
  -1.688745e+02  -1.223843e+02
  -1.163256e+01  -1.891533e+02
   1.378373e+02  -1.375338e+02
   1.539233e+02  -1.434701e+01
   4.899018e+01   8.069197e+01
  -5.358816e+01   8.386581e+01
  -6.021968e+01   2.191031e+01
   2.858891e+00  -2.350324e+01
   3.855348e+01  -7.597242e+00
  -6.084677e+00   2.833482e+01
  -8.535565e+01   8.083994e+00
  -1.044567e+02  -8.289799e+01
  -1.504365e+01  -1.663727e+02
   1.315089e+02  -1.462989e+02
   2.213624e+02  -1.164261e+01
   1.785937e+02   1.437985e+02
   3.790018e+01   2.064461e+02
  -8.731173e+01   1.454688e+02
  -1.153081e+02   3.228535e+01
  -6.881642e+01  -3.511320e+01
  -3.276929e+01  -2.347146e+01
  -5.113653e+01   1.555313e+01
  -8.250761e+01   9.639197e+00
  -5.792059e+01  -5.232267e+01
   3.194703e+01  -1.038038e+02
   1.158125e+02  -7.077545e+01
   1.063120e+02   3.910074e+01
  -1.228947e+01   1.258338e+02
  -1.542223e+02   9.011973e+01
  -1.947148e+02  -5.872653e+01
  -7.996586e+01  -1.982073e+02
   1.148604e+02  -2.061973e+02
   2.447497e+02  -7.733150e+01
   2.227627e+02   7.893053e+01
   9.099895e+01   1.508793e+02
  -3.418558e+01   1.246467e+02
  -7.741963e+01   7.382604e+01
  -5.911065e+01   6.538514e+01
  -4.822319e+01   8.885220e+01
  -7.977306e+01   7.712921e+01
  -1.221265e+02  -1.158395e+01
  -1.141777e+02  -1.375636e+02
  -2.966788e+01  -2.061319e+02
   8.826303e+01  -1.537811e+02
   1.546181e+02  -1.202371e+01
   1.166335e+02   1.152660e+02
   9.580643e+00   1.424337e+02
  -6.992153e+01   7.317746e+01
  -5.943250e+01  -1.537290e+01
   3.855051e+00  -5.284762e+01
   2.790832e+01  -3.502400e+01
  -2.271983e+01  -8.901921e+00
  -7.933644e+01  -1.223203e+01
  -4.877727e+01  -3.570024e+01
   6.857279e+01  -4.019454e+01
   1.643041e+02  -2.560779e+00
   1.353281e+02   5.767832e+01
  -1.780678e+00   9.339017e+01
  -1.253826e+02   7.173310e+01
  -1.339278e+02   6.718601e+00
  -4.134685e+01  -4.776697e+01
   5.341821e+01  -4.381074e+01
   7.289754e+01   1.389117e+01
   2.316715e+01   6.812163e+01
  -3.721685e+01   6.383788e+01
  -6.430458e+01   6.002812e+00
  -5.862280e+01  -4.430038e+01
  -4.683685e+01  -3.862064e+01
  -4.921700e+01  -1.176865e-01
  -5.936107e+01   7.785246e-01
  -4.593738e+01  -6.622686e+01
   1.800115e+01  -1.430941e+02
   1.134163e+02  -1.398210e+02
   1.696644e+02  -3.720894e+01
   1.253766e+02   8.388816e+01
   5.072076e+00   1.245979e+02
  -8.461056e+01   6.919103e+01
  -5.811726e+01  -6.489715e+00
   5.233374e+01  -2.087894e+01
   1.226356e+02   3.351901e+01
   6.609936e+01   9.514893e+01
  -7.439661e+01   1.014008e+02
  -1.713910e+02   4.326493e+01
  -1.427522e+02  -3.521485e+01
  -2.834064e+01  -7.679689e+01
   5.837144e+01  -5.521652e+01
   4.475554e+01   2.166423e+00
  -3.605953e+01   3.104958e+01
  -8.620952e+01  -1.369124e+01
  -4.255664e+01  -1.033305e+02
   6.326753e+01  -1.455860e+02
   1.385158e+02  -7.235544e+01
   1.186189e+02   7.613739e+01
   2.332384e+01   1.731974e+02
  -6.923402e+01   1.299044e+02
  -9.530205e+01  -8.492721e+00
  -5.251378e+01  -1.090304e+02
   1.220684e+01  -9.371316e+01
   4.860165e+01  -1.369269e+01
   4.062309e+01   2.865530e+01
   1.299713e+01   6.271870e+00
   5.529255e+00  -1.541624e+01
   3.147475e+01   1.972514e+01
   5.642099e+01   8.068607e+01
   2.971650e+01   9.402634e+01
  -5.233246e+01   4.011127e+01
  -1.242751e+02  -2.882385e+01
  -1.122390e+02  -5.896949e+01
  -1.897736e+01  -4.894244e+01
   7.028593e+01  -2.717946e+01
   7.821395e+01  -7.517688e+00
   1.831811e+01   1.091161e+01
  -2.949861e+01   2.033111e+01
  -1.905209e+01   1.104600e+01
   1.143527e+01  -4.549231e+00
  -1.861010e+00  -4.110777e+00
  -5.835230e+01   4.585089e+00
  -8.614769e+01  -1.547339e+01
  -2.687719e+01  -7.285781e+01
   8.998509e+01  -1.130012e+02
   1.697005e+02  -7.091038e+01
   1.449356e+02   4.416943e+01
   3.790718e+01   1.430983e+02
  -6.731206e+01   1.467295e+02
  -1.044258e+02   6.706049e+01
  -7.431968e+01  -1.347057e+01
  -2.632054e+01  -3.434817e+01
  -4.521526e+00  -1.290006e+01
  -1.424811e+01  -8.304188e+00
  -2.888137e+01  -4.485707e+01
  -1.848945e+01  -8.311510e+01
   2.387127e+01  -6.685734e+01
   7.131139e+01   9.473055e+00
   7.794595e+01   8.730081e+01
   2.058666e+01   9.923255e+01
  -6.439790e+01   3.471897e+01
  -9.970995e+01  -5.138441e+01
  -4.357620e+01  -9.187159e+01
   5.444150e+01  -6.411498e+01
   9.688360e+01   8.933795e-01
   4.656818e+01   5.290979e+01
  -2.870198e+01   6.078191e+01
  -3.797005e+01   2.915498e+01
   2.109280e+01  -7.790762e+00
   6.164677e+01  -1.178333e+01
   1.907503e+01   2.458703e+01
  -6.867263e+01   6.306329e+01
  -1.100982e+02   5.243173e+01
  -6.818657e+01  -1.354596e+01
   7.914513e+00  -7.885388e+01
   5.069290e+01  -7.985085e+01
   4.255875e+01  -1.618282e+01
   1.044511e+01   4.611012e+01
  -1.855786e+01   4.660927e+01
  -3.386935e+01  -5.408344e+00
  -2.911504e+01  -4.770104e+01
  -2.059288e+00  -3.830415e+01
   3.063631e+01   2.030541e+00
   4.038083e+01   2.246597e+01
   1.951111e+01   4.599237e+00
  -5.601960e+00  -1.950127e+01
  -6.960668e+00  -1.068312e+01
   7.712348e+00   2.711773e+01
   6.019811e+00   4.971361e+01
  -2.140503e+01   2.504010e+01
  -4.153531e+01  -2.667517e+01
  -1.871180e+01  -5.295207e+01
   3.412125e+01  -2.671266e+01
   6.035486e+01   2.516634e+01
   2.213928e+01   5.319320e+01
  -5.082833e+01   3.634063e+01
  -8.694677e+01  -4.669151e+00
  -4.906238e+01  -3.684871e+01
   2.373189e+01  -4.440501e+01
   5.829377e+01  -3.082663e+01
   2.741768e+01  -8.552062e+00
  -2.302273e+01   5.573337e+00
  -2.928910e+01  -1.808646e+00
   1.812687e+01  -2.224719e+01
   6.681485e+01  -2.269038e+01
