
 $NMID
 id='ANONYMOUS ', fmtdat='(2E16.6)'
 volume=1.0
 tramp=1.0
 $END
   3.763261e+03  -3.556654e+01
   2.327596e+03   2.136808e+03
  -4.003749e+02   2.417163e+03
  -1.724043e+03   1.025691e+03
  -9.518579e+02  -3.102819e+02
   3.548995e+02  -4.440561e+02
   6.744314e+02   2.715812e+02
   3.584844e+01   8.359731e+02
  -6.495414e+02   6.915645e+02
  -8.027483e+02  -1.286694e+01
  -4.403670e+02  -6.997213e+02
   1.314284e+02  -7.784168e+02
   4.924080e+02  -1.516519e+02
   3.303975e+02   5.742624e+02
  -1.947581e+02   6.515644e+02
  -5.140165e+02   3.382909e+01
  -2.802207e+02  -5.864665e+02
   2.380868e+02  -6.167762e+02
   5.284322e+02  -1.623279e+02
   4.022321e+02   2.762388e+02
   6.241291e+01   3.983561e+02
  -1.875639e+02   2.528120e+02
  -1.546711e+02   4.615485e+01
   1.266351e+02  -9.833610e+00
   3.340047e+02   1.661275e+02
   1.121052e+02   3.794764e+02
  -4.367540e+02   3.005288e+02
  -7.201686e+02  -1.066587e+02
  -3.427422e+02  -4.504946e+02
   3.404020e+02  -3.617083e+02
   6.215384e+02   6.211624e+01
   2.784642e+02   4.135686e+02
  -2.585029e+02   4.357476e+02
  -5.008376e+02   1.701370e+02
  -3.683090e+02  -1.908203e+02
  -7.945321e+01  -3.966307e+02
   1.248937e+02  -2.438629e+02
   9.180577e+01   1.521975e+02
  -1.529763e+02   3.154792e+02
  -3.327317e+02  -5.394575e+01
  -1.561427e+02  -5.760250e+02
   2.713320e+02  -5.811811e+02
   4.789045e+02  -1.374019e+01
   2.083274e+02   4.389097e+02
  -2.206940e+02   2.469992e+02
  -2.940391e+02  -2.830340e+02
   7.614916e+01  -4.650028e+02
   4.892164e+02  -1.051353e+02
   5.314636e+02   3.749216e+02
   1.580193e+02   5.298774e+02
  -3.339390e+02   3.068020e+02
  -5.639863e+02  -6.383504e+01
  -3.530205e+02  -3.199157e+02
   1.022498e+02  -3.050958e+02
   3.706940e+02  -7.056792e+01
   2.316883e+02   1.260976e+02
  -6.300180e+01   7.838048e+01
  -1.085687e+02  -1.043567e+02
   1.279831e+02  -1.356164e+02
   2.912261e+02   5.608660e+01
   1.348029e+02   2.484058e+02
  -1.771845e+02   2.466191e+02
  -3.265100e+02   9.196701e+01
  -2.134367e+02  -9.105195e+01
   2.908547e+01  -2.508404e+02
   2.428246e+02  -3.226199e+02
   3.331719e+02  -1.855215e+02
   2.569201e+02   1.387077e+02
   6.749408e+01   3.890140e+02
  -7.901998e+01   3.485499e+02
  -8.311473e+01   1.353557e+02
  -3.330758e+01   3.213972e+01
  -7.813061e+01   8.907982e+01
  -2.039786e+02   9.345245e+01
  -2.498790e+02  -7.438110e+01
  -1.273737e+02  -2.516378e+02
   7.489516e+01  -2.214126e+02
   2.022418e+02   7.668783e+00
   1.655865e+02   2.296025e+02
  -2.240983e+01   2.640983e+02
  -2.456137e+02   9.196499e+01
  -3.255427e+02  -1.607680e+02
  -1.741551e+02  -3.168908e+02
   7.623156e+01  -2.813699e+02
   1.976546e+02  -1.310844e+02
   1.474288e+02  -3.246323e+01
   1.152578e+02  -4.294759e+01
   2.390420e+02  -4.860935e+01
   3.851458e+02   7.095782e+01
   3.117319e+02   2.781236e+02
  -1.190409e+01   4.205503e+02
  -3.531160e+02   3.865222e+02
  -4.631664e+02   1.807581e+02
  -3.029272e+02  -9.067602e+01
  -4.034221e+01  -2.643040e+02
   1.093024e+02  -2.233063e+02
   5.309540e+01  -3.458652e+01
  -1.051752e+02   7.762984e+01
  -1.624130e+02  -1.478348e+01
  -3.485877e+01  -1.662275e+02
   1.357677e+02  -1.419736e+02
   1.465642e+02   5.228572e+01
  -1.828413e+01   1.618399e+02
  -1.727871e+02   2.040037e+01
  -1.519830e+02  -2.327220e+02
   2.707584e+01  -3.322402e+02
   2.266452e+02  -1.884169e+02
   3.234884e+02   6.285492e+01
   2.636543e+02   2.385996e+02
   7.611420e+01   2.551334e+02
  -1.141657e+02   1.447536e+02
  -1.597141e+02   1.498063e+01
  -4.841952e+01  -2.326513e+01
   5.860976e+01   4.486835e+01
   1.591627e+01   1.142020e+02
  -1.177354e+02   8.277391e+01
  -1.587155e+02  -1.668825e+01
  -4.643762e+01  -6.210633e+01
   7.616245e+01  -4.511125e+00
   4.527386e+01   7.697642e+01
  -1.280481e+02   8.144832e+01
  -2.757606e+02  -1.101097e+01
  -2.470229e+02  -1.462395e+02
  -4.364714e+01  -2.453976e+02
   1.849007e+02  -2.374635e+02
   2.650189e+02  -1.093543e+02
   1.510820e+02   4.641407e+01
  -2.436306e+01   9.313495e+01
  -7.676700e+01   4.099937e+00
   3.825622e+01  -8.818721e+01
   1.823299e+02  -4.687329e+01
   1.943746e+02   9.828687e+01
   6.157384e+01   1.913169e+02
  -8.782739e+01   1.429275e+02
  -1.304434e+02   2.362189e+01
  -5.864636e+01  -3.697897e+01
   3.078851e+01   6.971242e+00
   3.025233e+01   8.901153e+01
  -7.862889e+01   1.081445e+02
  -1.932277e+02   1.995187e+01
  -1.784086e+02  -1.224037e+02
  -1.595773e+01  -2.045386e+02
   1.543707e+02  -1.517157e+02
   1.788690e+02  -8.011926e+00
   5.941722e+01   1.021259e+02
  -6.160579e+01   1.007944e+02
  -7.469875e+01   2.749867e+01
  -1.123611e+01  -2.365956e+01
   2.603639e+01  -1.327398e+01
  -9.882057e+00   1.427046e+01
  -7.474055e+01  -5.476200e+00
  -8.971935e+01  -8.302477e+01
  -1.130216e+01  -1.574150e+02
   1.272649e+02  -1.444038e+02
   2.240830e+02  -1.752933e+01
   1.880214e+02   1.467735e+02
   3.774187e+01   2.232859e+02
  -1.014543e+02   1.584909e+02
  -1.277436e+02   2.725274e+01
  -6.907834e+01  -4.933781e+01
  -2.951392e+01  -3.211420e+01
  -5.200657e+01   1.212926e+01
  -7.922899e+01   5.624588e+00
  -4.488861e+01  -5.125966e+01
   4.075820e+01  -9.079285e+01
   1.063115e+02  -5.611350e+01
   8.916472e+01   3.865696e+01
  -1.572435e+01   1.124569e+02
  -1.440361e+02   8.193292e+01
  -1.904422e+02  -5.537405e+01
  -8.859467e+01  -1.961688e+02
   1.089685e+02  -2.141543e+02
   2.546214e+02  -8.514466e+01
   2.402761e+02   8.403695e+01
   1.002593e+02   1.657126e+02
  -3.762465e+01   1.368231e+02
  -8.810766e+01   7.866285e+01
  -7.237956e+01   6.665498e+01
  -6.107877e+01   8.831013e+01
  -8.795496e+01   7.256961e+01
  -1.237429e+02  -2.022733e+01
  -1.121821e+02  -1.473913e+02
  -2.619904e+01  -2.153899e+02
   9.514946e+01  -1.616200e+02
   1.649787e+02  -1.569501e+01
   1.255085e+02   1.182470e+02
   1.402859e+01   1.505364e+02
  -6.712298e+01   8.295116e+01
  -5.760927e+01  -5.484730e+00
  -5.527747e-01  -4.449382e+01
   1.646097e+01  -3.262348e+01
  -3.134769e+01  -1.468628e+01
  -7.772537e+01  -2.038460e+01
  -4.443438e+01  -3.764930e+01
   6.471686e+01  -3.558962e+01
   1.563332e+02   6.045885e-01
   1.360608e+02   5.430557e+01
   7.580385e+00   8.724912e+01
  -1.205856e+02   6.907652e+01
  -1.381047e+02   9.042438e+00
  -4.391519e+01  -4.263054e+01
   5.773088e+01  -3.797587e+01
   7.318527e+01   1.813553e+01
   1.126983e+01   6.787721e+01
  -4.996091e+01   5.864000e+01
  -6.267110e+01  -6.669587e-01
  -4.722325e+01  -4.882443e+01
  -4.296317e+01  -4.090661e+01
  -5.612247e+01  -1.942531e+00
  -6.252557e+01  -9.907559e-01
  -3.666787e+01  -6.696360e+01
   2.985353e+01  -1.417346e+02
   1.152259e+02  -1.354128e+02
   1.629601e+02  -3.029289e+01
   1.197764e+02   8.905334e+01
   3.692924e+00   1.227068e+02
  -8.515256e+01   6.103089e+01
  -5.820399e+01  -1.289353e+01
   5.597079e+01  -1.918815e+01
   1.293246e+02   4.084175e+01
   6.979391e+01   1.016863e+02
  -7.812434e+01   1.051528e+02
  -1.806407e+02   4.570288e+01
  -1.518035e+02  -3.518475e+01
  -3.261742e+01  -8.162749e+01
   5.903650e+01  -6.284032e+01
   4.608543e+01  -3.503323e+00
  -3.770528e+01   2.707386e+01
  -8.716569e+01  -2.049863e+01
  -3.409214e+01  -1.121171e+02
   8.240087e+01  -1.479201e+02
   1.559044e+02  -6.287088e+01
   1.208080e+02   9.208389e+01
   1.219876e+01   1.860458e+02
  -8.000388e+01   1.356594e+02
  -9.894116e+01  -8.435281e+00
  -5.504768e+01  -1.129131e+02
   6.220643e+00  -9.924529e+01
   4.562540e+01  -1.664961e+01
   4.674624e+01   2.990114e+01
   2.117563e+01   7.339868e+00
   4.414017e+00  -1.827745e+01
   2.303025e+01   1.724239e+01
   5.347790e+01   8.498800e+01
   3.605989e+01   1.019300e+02
  -4.801491e+01   4.132672e+01
  -1.304668e+02  -3.683590e+01
  -1.206476e+02  -6.679837e+01
  -1.673503e+01  -4.870100e+01
   8.094348e+01  -2.269946e+01
   8.317195e+01  -6.419683e+00
   1.261871e+01   8.976579e+00
  -3.505223e+01   2.100688e+01
  -1.527083e+01   1.491516e+01
   1.791162e+01  -2.645818e+00
  -4.487008e+00  -7.156510e+00
  -6.786025e+01  -1.559460e+00
  -8.764564e+01  -2.204429e+01
  -1.301679e+01  -7.724564e+01
   1.086929e+02  -1.104818e+02
   1.778664e+02  -5.834098e+01
   1.393381e+02   6.130821e+01
   2.699559e+01   1.532468e+02
  -7.606483e+01   1.443526e+02
  -1.099341e+02   5.816040e+01
  -7.669890e+01  -1.963430e+01
  -2.410608e+01  -3.476297e+01
   9.520293e-01  -1.023029e+01
  -1.089625e+01  -5.752638e+00
  -3.009971e+01  -4.466777e+01
  -1.948758e+01  -8.575802e+01
   2.788782e+01  -6.808767e+01
   7.618747e+01   1.617187e+01
   7.459349e+01   1.005089e+02
   7.955410e+00   1.063745e+02
  -7.573281e+01   2.616403e+01
  -9.939100e+01  -6.773572e+01
  -3.358248e+01  -9.856486e+01
   6.260917e+01  -5.635238e+01
   9.553506e+01   9.975422e+00
   3.937572e+01   5.130686e+01
  -3.224206e+01   5.292723e+01
  -3.325012e+01   2.673362e+01
   2.952709e+01  -2.917444e+00
   6.557587e+01  -7.247080e+00
   1.539038e+01   2.485289e+01
  -7.498222e+01   6.247402e+01
  -1.116737e+02   5.320336e+01
  -6.324383e+01  -1.369525e+01
   1.428361e+01  -7.976183e+01
   5.253280e+01  -7.659720e+01
   3.860496e+01  -7.766338e+00
   3.787179e+00   5.193998e+01
  -2.389778e+01   4.289207e+01
  -3.510817e+01  -1.430687e+01
  -2.599044e+01  -5.131258e+01
   2.199643e+00  -3.398936e+01
   3.171650e+01   6.761075e+00
   3.836613e+01   2.180816e+01
   1.947893e+01   2.532607e+00
  -1.632687e+00  -1.581523e+01
  -5.885884e+00  -1.616026e+00
  -1.973352e+00   3.338067e+01
  -1.009931e+01   4.627348e+01
  -2.920137e+01   1.308878e+01
  -3.334655e+01  -3.930975e+01
  -3.916460e+00  -5.810389e+01
   4.093055e+01  -2.175605e+01
   5.637220e+01   3.515673e+01
   1.589527e+01   5.909979e+01
  -5.302586e+01   3.299020e+01
  -8.630914e+01  -1.332179e+01
  -4.735566e+01  -4.164222e+01
   2.752543e+01  -4.059521e+01
   6.210094e+01  -2.291187e+01
   2.496344e+01  -5.191396e+00
  -3.218044e+01   4.700154e-01
  -3.460964e+01  -1.110415e+01
   2.597193e+01  -2.772007e+01
   8.165319e+01  -1.981798e+01
