
 $NMID
 id='ANONYMOUS ', fmtdat='(2E16.6)'
 volume=1.0
 tramp=1.0
 $END
  -4.181713e+03  -7.836118e+01
  -2.453613e+03  -2.480122e+03
   6.138145e+02  -2.632218e+03
   1.961306e+03  -9.641047e+02
   9.584645e+02   4.719149e+02
  -5.101378e+02   4.820844e+02
  -7.718713e+02  -3.807958e+02
   1.509114e+01  -9.648005e+02
   7.715385e+02  -7.342566e+02
   8.880363e+02   7.100304e+01
   4.400848e+02   8.065297e+02
  -2.033603e+02   8.486255e+02
  -5.724373e+02   1.232674e+02
  -3.453849e+02  -6.709006e+02
   2.533077e+02  -7.132092e+02
   5.735316e+02  -2.895150e+00
   2.740835e+02   6.574764e+02
  -2.938673e+02   6.439966e+02
  -5.723157e+02   1.308192e+02
  -4.061287e+02  -3.237179e+02
  -3.884978e+01  -4.301555e+02
   2.226959e+02  -2.620944e+02
   1.825584e+02  -2.934789e+01
  -1.365679e+02   3.933343e+01
  -3.830514e+02  -1.663364e+02
  -1.410497e+02  -4.297385e+02
   4.840740e+02  -3.512219e+02
   8.094961e+02   1.228859e+02
   3.784109e+02   5.257010e+02
  -3.958667e+02   4.179518e+02
  -7.040061e+02  -7.604101e+01
  -3.071450e+02  -4.725269e+02
   2.954379e+02  -4.847454e+02
   5.580082e+02  -1.782192e+02
   4.001007e+02   2.248693e+02
   6.720194e+01   4.478942e+02
  -1.673603e+02   2.631671e+02
  -1.187646e+02  -1.948238e+02
   1.824410e+02  -3.759241e+02
   3.971276e+02   5.912514e+01
   1.804330e+02   6.585322e+02
  -3.239855e+02   6.506882e+02
  -5.523506e+02  -8.188645e+00
  -2.220152e+02  -5.149209e+02
   2.704513e+02  -2.783369e+02
   3.374933e+02   3.268161e+02
  -9.093770e+01   5.214163e+02
  -5.449747e+02   1.102418e+02
  -5.761307e+02  -4.198501e+02
  -1.572808e+02  -5.820893e+02
   3.780410e+02  -3.293387e+02
   6.172389e+02   8.466374e+01
   3.695393e+02   3.683149e+02
  -1.375867e+02   3.381516e+02
  -4.180907e+02   5.665919e+01
  -2.393322e+02  -1.641601e+02
   9.207502e+01  -8.761209e+01
   1.221017e+02   1.342859e+02
  -1.560548e+02   1.580335e+02
  -3.264242e+02  -7.527210e+01
  -1.364564e+02  -2.841866e+02
   2.015624e+02  -2.595207e+02
   3.444614e+02  -8.447272e+01
   2.166577e+02   9.442968e+01
  -2.948866e+01   2.522470e+02
  -2.498068e+02   3.391070e+02
  -3.567242e+02   2.040384e+02
  -2.825945e+02  -1.507848e+02
  -6.698215e+01  -4.296258e+02
   1.049629e+02  -3.766247e+02
   1.021733e+02  -1.287746e+02
   2.789476e+01  -1.668553e+01
   6.847209e+01  -9.525314e+01
   2.149396e+02  -1.118276e+02
   2.756946e+02   7.444107e+01
   1.426938e+02   2.764293e+02
  -8.294179e+01   2.468631e+02
  -2.246995e+02  -4.950897e+00
  -1.838372e+02  -2.506122e+02
   2.418744e+01  -2.910589e+02
   2.698499e+02  -1.023152e+02
   3.542240e+02   1.782507e+02
   1.816630e+02   3.499424e+02
  -9.483318e+01   3.031523e+02
  -2.201572e+02   1.289096e+02
  -1.540936e+02   2.111399e+01
  -1.140928e+02   4.203307e+01
  -2.505050e+02   5.565995e+01
  -4.108481e+02  -7.407973e+01
  -3.319034e+02  -2.994742e+02
   1.475776e+01  -4.508940e+02
   3.793770e+02  -4.120493e+02
   4.997407e+02  -1.908246e+02
   3.304291e+02   1.024129e+02
   4.268198e+01   2.915331e+02
  -1.285187e+02   2.436107e+02
  -6.759011e+01   3.095587e+01
   1.161657e+02  -9.250697e+01
   1.855195e+02   1.687019e+01
   3.845604e+01   1.890423e+02
  -1.578441e+02   1.578130e+02
  -1.663461e+02  -6.317629e+01
   2.356951e+01  -1.830266e+02
   1.920139e+02  -2.272437e+01
   1.604808e+02   2.532394e+02
  -3.541242e+01   3.548311e+02
  -2.415989e+02   1.964190e+02
  -3.392705e+02  -6.948239e+01
  -2.795032e+02  -2.538624e+02
  -8.415390e+01  -2.733722e+02
   1.223283e+02  -1.572102e+02
   1.758450e+02  -1.482436e+01
   5.411544e+01   2.979042e+01
  -6.637450e+01  -4.610193e+01
  -2.024336e+01  -1.259562e+02
   1.287104e+02  -9.229248e+01
   1.752481e+02   1.939806e+01
   5.211370e+01   7.134467e+01
  -8.273907e+01   8.762697e+00
  -5.132801e+01  -8.038035e+01
   1.332907e+02  -8.666373e+01
   2.919598e+02   1.029280e+01
   2.645677e+02   1.542243e+02
   4.945881e+01   2.629057e+02
  -1.979057e+02   2.570138e+02
  -2.884359e+02   1.175080e+02
  -1.657092e+02  -5.429907e+01
   2.816836e+01  -1.046542e+02
   8.722455e+01  -3.986196e+00
  -3.980360e+01   9.845793e+01
  -1.985975e+02   5.153925e+01
  -2.106567e+02  -1.085813e+02
  -6.442168e+01  -2.091687e+02
   9.784176e+01  -1.549327e+02
   1.434915e+02  -2.450378e+01
   6.592264e+01   4.260166e+01
  -3.183467e+01  -2.787816e+00
  -3.462624e+01  -9.136003e+01
   8.037348e+01  -1.151021e+02
   2.050417e+02  -2.269164e+01
   1.912162e+02   1.312128e+02
   1.591288e+01   2.206876e+02
  -1.688225e+02   1.619129e+02
  -1.940779e+02   4.398519e+00
  -6.266485e+01  -1.137804e+02
   6.891924e+01  -1.093703e+02
   8.275562e+01  -2.862319e+01
   1.460095e+01   2.671945e+01
  -2.588843e+01   1.654243e+01
   9.689667e+00  -1.203286e+01
   7.585164e+01   7.313776e+00
   9.238196e+01   8.666272e+01
   1.213813e+01   1.650750e+02
  -1.342721e+02   1.533709e+02
  -2.391899e+02   1.925812e+01
  -2.010600e+02  -1.576602e+02
  -3.801444e+01  -2.404041e+02
   1.120379e+02  -1.691945e+02
   1.375357e+02  -2.650414e+01
   7.181395e+01   5.521962e+01
   2.974520e+01   3.543454e+01
   5.503841e+01  -1.208613e+01
   8.308579e+01  -5.497184e+00
   4.525087e+01   5.284525e+01
  -4.362692e+01   9.293404e+01
  -1.095291e+02   5.774182e+01
  -9.143102e+01  -3.916329e+01
   1.598445e+01  -1.164865e+02
   1.502002e+02  -8.645096e+01
   2.017766e+02   5.786321e+01
   9.581207e+01   2.089903e+02
  -1.156657e+02   2.295419e+02
  -2.732669e+02   9.063150e+01
  -2.579314e+02  -9.236841e+01
  -1.064926e+02  -1.799579e+02
   4.207766e+01  -1.472497e+02
   9.623117e+01  -8.322768e+01
   7.961844e+01  -6.951894e+01
   6.735532e+01  -9.222700e+01
   9.454947e+01  -7.522902e+01
   1.307734e+02   2.342519e+01
   1.175630e+02   1.583101e+02
   2.596000e+01   2.301891e+02
  -1.033819e+02   1.723272e+02
  -1.776337e+02   1.609468e+01
  -1.345807e+02  -1.272486e+02
  -1.473435e+01  -1.619450e+02
   7.190205e+01  -9.023081e+01
   6.192180e+01   3.776935e+00
   2.313790e+00   4.614096e+01
  -1.505129e+01   3.543505e+01
   3.430182e+01   1.768410e+01
   8.133141e+01   2.310396e+01
   4.611561e+01   3.992247e+01
  -6.752178e+01   3.728657e+01
  -1.641685e+02  -5.054957e-01
  -1.449797e+02  -5.722879e+01
  -1.044856e+01  -9.252799e+01
   1.269240e+02  -7.328385e+01
   1.477499e+02  -9.473289e+00
   4.766516e+01   4.461366e+01
  -6.153558e+01   3.869256e+01
  -7.730529e+01  -2.017039e+01
  -9.656832e+00  -7.074855e+01
   5.498799e+01  -5.984197e+01
   6.551736e+01   1.861522e+00
   4.743125e+01   5.151209e+01
   4.460318e+01   4.349715e+01
   6.073181e+01   3.220554e+00
   6.682198e+01   1.792940e+00
   3.702987e+01   7.027702e+01
  -3.395304e+01   1.489508e+02
  -1.223623e+02   1.426835e+02
  -1.710638e+02   3.144720e+01
  -1.255001e+02  -9.506302e+01
  -3.761531e+00  -1.298193e+02
   8.970146e+01  -6.312538e+01
   6.112157e+01   1.498214e+01
  -5.997639e+01   1.960835e+01
  -1.378027e+02  -4.562974e+01
  -7.403358e+01  -1.097240e+02
   8.419548e+01  -1.119295e+02
   1.939455e+02  -4.783925e+01
   1.629451e+02   3.848963e+01
   3.486375e+01   8.812395e+01
  -6.372406e+01   6.808391e+01
  -4.983052e+01   4.623248e+00
   3.994937e+01  -2.778022e+01
   9.199864e+01   2.325742e+01
   3.352473e+01   1.198666e+02
  -9.157353e+01   1.553837e+02
  -1.679369e+02   6.291246e+01
  -1.269016e+02  -1.012078e+02
  -9.251082e+00  -1.988566e+02
   8.778902e+01  -1.439395e+02
   1.057858e+02   9.432705e+00
   5.843094e+01   1.209989e+02
  -6.151561e+00   1.071260e+02
  -4.822858e+01   1.853994e+01
  -5.066287e+01  -3.271117e+01
  -2.393657e+01  -8.918369e+00
  -4.804560e+00   2.008087e+01
  -2.309956e+01  -1.692811e+01
  -5.569052e+01  -9.081541e+01
  -3.856129e+01  -1.105077e+02
   5.033865e+01  -4.456167e+01
   1.388481e+02   4.145352e+01
   1.288388e+02   7.347794e+01
   1.732980e+01   5.144811e+01
  -8.754367e+01   2.200930e+01
  -8.917535e+01   5.991880e+00
  -1.251455e+01  -8.546904e+00
   3.838766e+01  -2.180105e+01
   1.593248e+01  -1.698706e+01
  -2.005981e+01   1.717469e+00
   4.928476e+00   8.478110e+00
   7.322332e+01   3.938616e+00
   9.263704e+01   2.491374e+01
   1.061825e+01   8.137327e+01
  -1.188518e+02   1.147127e+02
  -1.891511e+02   5.850508e+01
  -1.449842e+02  -6.790802e+01
  -2.533306e+01  -1.635378e+02
   8.233119e+01  -1.518381e+02
   1.168916e+02  -5.936727e+01
   8.122607e+01   2.236353e+01
   2.510382e+01   3.677932e+01
  -1.776276e+00   9.750870e+00
   1.120598e+01   5.261133e+00
   3.218643e+01   4.756629e+01
   2.052628e+01   9.171963e+01
  -3.058425e+01   7.208857e+01
  -8.110595e+01  -1.906285e+01
  -7.704670e+01  -1.089822e+02
  -5.150517e+00  -1.129712e+02
   8.169393e+01  -2.483731e+01
   1.036490e+02   7.513046e+01
   3.293181e+01   1.049021e+02
  -6.726009e+01   5.741282e+01
  -1.002046e+02  -1.227037e+01
  -4.057507e+01  -5.342943e+01
   3.410544e+01  -5.429201e+01
   3.416688e+01  -2.842100e+01
  -3.244615e+01   1.210986e+00
  -6.991113e+01   6.339205e+00
  -1.558936e+01  -2.605582e+01
   8.083967e+01  -6.548482e+01
   1.190445e+02  -5.638879e+01
   6.619695e+01   1.408485e+01
  -1.656058e+01   8.417900e+01
  -5.585689e+01   8.048506e+01
  -3.932586e+01   7.036318e+00
  -2.059824e+00  -5.555637e+01
   2.603457e+01  -4.423622e+01
   3.653619e+01   1.706898e+01
   2.656498e+01   5.487193e+01
  -2.707634e+00   3.480307e+01
  -3.336823e+01  -8.234430e+00
  -4.041718e+01  -2.284792e+01
  -2.090817e+01  -2.306504e+00
   1.364656e+00   1.565549e+01
   7.041345e+00  -1.362425e-01
   4.671339e+00  -3.558911e+01
   1.348006e+01  -4.670695e+01
   3.120790e+01  -1.072686e+01
   3.242433e+01   4.330358e+01
   7.053759e-01   6.107821e+01
  -4.425321e+01   2.137312e+01
  -5.798186e+01  -3.886746e+01
  -1.498509e+01  -6.323156e+01
   5.640150e+01  -3.411039e+01
   9.058623e+01   1.581264e+01
   4.940785e+01   4.500161e+01
  -2.957881e+01   4.194590e+01
  -6.583861e+01   2.234548e+01
  -2.567838e+01   5.117963e+00
   3.537575e+01   1.514454e+00
   3.674880e+01   1.419197e+01
  -2.971615e+01   2.960731e+01
  -8.927391e+01   1.879673e+01
