
 $NMID
 id='ANONYMOUS ', fmtdat='(2E16.6)'
 volume=1.0
 tramp=1.0
 $END
  -2.038407e+03   4.259989e+01
  -1.183162e+03  -1.205836e+03
   3.493917e+02  -1.269555e+03
   9.720747e+02  -3.875421e+02
   4.030528e+02   3.252744e+02
  -3.420583e+02   2.624638e+02
  -4.249276e+02  -2.235903e+02
   1.155857e+01  -5.105861e+02
   3.925782e+02  -3.637451e+02
   4.361068e+02   4.986001e+01
   2.052064e+02   4.046821e+02
  -1.180346e+02   4.109704e+02
  -3.025290e+02   4.468601e+01
  -1.814616e+02  -3.435681e+02
   1.270894e+02  -3.506444e+02
   2.840344e+02   6.005891e+00
   1.267026e+02   3.154364e+02
  -1.467659e+02   2.871114e+02
  -2.620517e+02   3.805321e+01
  -1.724821e+02  -1.597451e+02
  -6.552122e+00  -1.974778e+02
   1.121408e+02  -1.200994e+02
   1.007237e+02  -2.220393e+00
  -5.562412e+01   5.368126e+01
  -2.021248e+02  -4.167636e+01
  -1.064712e+02  -2.063256e+02
   2.129391e+02  -2.098984e+02
   4.064050e+02   2.365834e+01
   2.088950e+02   2.613321e+02
  -1.864931e+02   2.393767e+02
  -3.578277e+02  -8.184009e+00
  -1.703505e+02  -2.267574e+02
   1.275769e+02  -2.497275e+02
   2.637685e+02  -1.018829e+02
   1.963646e+02   1.037079e+02
   3.351003e+01   2.232164e+02
  -9.827089e+01   1.312392e+02
  -8.735932e+01  -1.118967e+02
   7.893950e+01  -2.176099e+02
   2.220539e+02   4.685216e+00
   1.282534e+02   3.267510e+02
  -1.472639e+02   3.376427e+02
  -2.907694e+02   1.645858e+00
  -1.261098e+02  -2.667618e+02
   1.421547e+02  -1.548325e+02
   1.911463e+02   1.524262e+02
  -2.466260e+01   2.615879e+02
  -2.599833e+02   7.275790e+01
  -2.838572e+02  -1.804103e+02
  -8.415577e+01  -2.691867e+02
   1.753982e+02  -1.662391e+02
   2.942458e+02   2.664710e+01
   1.747213e+02   1.763596e+02
  -7.462942e+01   1.723485e+02
  -2.084449e+02   2.617661e+01
  -1.084759e+02  -9.478205e+01
   6.251984e+01  -5.043289e+01
   6.949617e+01   7.730307e+01
  -8.067886e+01   9.316735e+01
  -1.658273e+02  -3.342015e+01
  -6.709638e+01  -1.408041e+02
   9.170648e+01  -1.208026e+02
   1.461402e+02  -3.655899e+01
   8.725399e+01   3.137638e+01
  -3.192867e+00   9.584060e+01
  -8.686497e+01   1.529426e+02
  -1.489728e+02   1.113585e+02
  -1.401115e+02  -5.626846e+01
  -4.433470e+01  -2.025565e+02
   5.159171e+01  -1.784036e+02
   5.626325e+01  -4.652684e+01
   6.216905e+00   1.124088e+01
   1.043510e+01  -4.274638e+01
   8.529486e+01  -7.058976e+01
   1.333557e+02   1.470291e+01
   8.275419e+01   1.231325e+02
  -2.780642e+01   1.238563e+02
  -1.080804e+02   1.196554e+01
  -9.983684e+01  -1.075556e+02
  -2.613347e+00  -1.390255e+02
   1.221563e+02  -6.193060e+01
   1.717281e+02   6.976673e+01
   9.202603e+01   1.596645e+02
  -4.291782e+01   1.426351e+02
  -1.030400e+02   5.581246e+01
  -6.566775e+01   9.610768e-01
  -3.969880e+01   1.790949e+01
  -1.026259e+02   3.827059e+01
  -1.836871e+02  -1.378475e+01
  -1.583369e+02  -1.210342e+02
  -1.046802e+01  -2.018103e+02
   1.527108e+02  -1.973156e+02
   2.183104e+02  -1.035818e+02
   1.582784e+02   3.619767e+01
   3.203245e+01   1.367274e+02
  -5.817879e+01   1.201164e+02
  -4.093228e+01   1.184983e+01
   4.998742e+01  -5.640501e+01
   9.548463e+01  -1.021579e+00
   2.794143e+01   9.379007e+01
  -7.567003e+01   8.475559e+01
  -8.754596e+01  -2.715951e+01
   5.449424e+00  -9.313402e+01
   9.155100e+01  -2.019861e+01
   8.022040e+01   1.103000e+02
  -7.630813e+00   1.591074e+02
  -9.868117e+01   9.167485e+01
  -1.464791e+02  -1.990420e+01
  -1.316664e+02  -9.966856e+01
  -5.174532e+01  -1.176532e+02
   4.744144e+01  -7.733401e+01
   8.273987e+01  -1.347043e+01
   2.842514e+01   1.573040e+01
  -3.493633e+01  -1.507862e+01
  -1.823890e+01  -5.846324e+01
   5.548996e+01  -5.068330e+01
   8.446512e+01   2.011401e+00
   2.941283e+01   3.421571e+01
  -3.702732e+01   1.170420e+01
  -2.887950e+01  -3.094911e+01
   5.160776e+01  -4.296418e+01
   1.263952e+02  -8.832114e+00
   1.237314e+02   5.482626e+01
   3.595991e+01   1.144158e+02
  -7.654007e+01   1.253907e+02
  -1.279863e+02   6.552516e+01
  -8.073546e+01  -2.135452e+01
   9.526924e+00  -5.317349e+01
   4.391931e+01  -5.797133e+00
  -1.168491e+01   4.947375e+01
  -8.936387e+01   3.321352e+01
  -1.013185e+02  -4.245353e+01
  -3.652032e+01  -9.494803e+01
   4.061867e+01  -7.551576e+01
   6.683214e+01  -1.669721e+01
   3.482587e+01   1.882118e+01
  -1.235286e+01   4.852550e+00
  -2.098518e+01  -3.461982e+01
   2.692441e+01  -5.320492e+01
   8.795306e+01  -1.985394e+01
   9.068727e+01   5.032728e+01
   1.541184e+01   9.928760e+01
  -7.193530e+01   7.901783e+01
  -8.933547e+01   6.145453e+00
  -3.230852e+01  -5.269112e+01
   2.887674e+01  -5.345722e+01
   3.858637e+01  -1.576801e+01
   1.052781e+01   1.231607e+01
  -8.351016e+00   1.058709e+01
   3.352831e+00  -2.202447e+00
   2.982600e+01   2.206148e+00
   4.047488e+01   3.279797e+01
   1.187254e+01   6.914098e+01
  -5.124682e+01   7.217173e+01
  -1.045599e+02   1.905782e+01
  -9.575820e+01  -6.209799e+01
  -2.471937e+01  -1.069218e+02
   4.627245e+01  -7.986247e+01
   6.116688e+01  -1.488160e+01
   3.232989e+01   2.433443e+01
   1.291496e+01   1.586697e+01
   2.339048e+01  -6.646363e+00
   3.491047e+01  -5.132272e+00
   1.905972e+01   1.984156e+01
  -1.608788e+01   3.861251e+01
  -4.203738e+01   2.715322e+01
  -3.767149e+01  -1.180401e+01
   1.880738e+00  -4.815172e+01
   5.901800e+01  -4.278255e+01
   8.959348e+01   1.599910e+01
   5.221989e+01   8.751632e+01
  -4.057397e+01   1.069289e+02
  -1.182854e+02   5.132853e+01
  -1.195133e+02  -3.253735e+01
  -5.437998e+01  -7.821034e+01
   1.423762e+01  -6.823519e+01
   4.136434e+01  -4.026591e+01
   3.493487e+01  -3.261496e+01
   2.843090e+01  -4.165365e+01
   3.958348e+01  -3.486021e+01
   5.752716e+01   7.000659e+00
   5.628888e+01   6.625134e+01
   1.898632e+01   1.009961e+02
  -4.032515e+01   8.036846e+01
  -7.935628e+01   1.405483e+01
  -6.544763e+01  -5.146982e+01
  -1.319953e+01  -7.214480e+01
   2.793923e+01  -4.460100e+01
   2.759074e+01  -3.178751e+00
   4.558950e+00   1.855423e+01
  -2.403687e+00   1.651082e+01
   1.705497e+01   8.352896e+00
   3.530235e+01   8.457455e+00
   2.057058e+01   1.559532e+01
  -2.667359e+01   1.827888e+01
  -6.952137e+01   6.368110e+00
  -6.592482e+01  -1.843433e+01
  -1.086560e+01  -3.935804e+01
   5.107321e+01  -3.686069e+01
   6.512097e+01  -1.021029e+01
   2.357336e+01   1.661657e+01
  -2.570206e+01   1.766979e+01
  -3.418853e+01  -6.644694e+00
  -4.448244e+00  -2.935103e+01
   2.391327e+01  -2.602953e+01
   2.768262e+01  -4.921344e-01
   1.983020e+01   2.054633e+01
   2.012924e+01   1.732870e+01
   2.795512e+01  -3.307242e-02
   2.973183e+01  -1.237222e+00
   1.685034e+01   2.849101e+01
  -1.130640e+01   6.493547e+01
  -4.760217e+01   6.595644e+01
  -7.119561e+01   1.963101e+01
  -5.681835e+01  -3.703307e+01
  -6.712956e+00  -5.587827e+01
   3.596035e+01  -2.926240e+01
   2.669640e+01   5.492387e+00
  -2.600051e+01   1.026367e+01
  -6.271449e+01  -1.654353e+01
  -3.691081e+01  -4.659870e+01
   3.333914e+01  -5.265490e+01
   8.483690e+01  -2.836670e+01
   7.454297e+01   1.100764e+01
   1.925266e+01   3.843448e+01
  -2.584165e+01   3.384757e+01
  -2.231299e+01   5.149535e+00
   1.630846e+01  -1.268970e+01
   4.063927e+01   8.022694e+00
   1.679202e+01   5.208346e+01
  -3.808073e+01   7.023342e+01
  -7.365588e+01   3.055483e+01
  -5.845503e+01  -4.270756e+01
  -8.447965e+00  -8.814028e+01
   3.534557e+01  -6.657600e+01
   4.727970e+01   1.655671e-01
   3.054011e+01   5.145216e+01
   2.459953e+00   4.866459e+01
  -1.987120e+01   1.092565e+01
  -2.463005e+01  -1.302557e+01
  -1.249756e+01  -3.871196e+00
  -1.290048e+00   9.670293e+00
  -9.099799e+00  -5.166996e+00
  -2.689039e+01  -3.802656e+01
  -2.195095e+01  -4.889617e+01
   1.929858e+01  -2.208164e+01
   6.283280e+01   1.479053e+01
   6.026197e+01   2.929884e+01
   9.144036e+00   2.147328e+01
  -3.922063e+01   1.119180e+01
  -3.961282e+01   5.518985e+00
  -4.708375e+00  -2.299546e+00
   1.713378e+01  -1.070701e+01
   5.763135e+00  -9.223069e+00
  -9.933450e+00   5.713441e-01
   2.801859e+00   4.395792e+00
   3.362481e+01   9.564356e-01
   4.112392e+01   8.713753e+00
   4.458444e+00   3.479210e+01
  -5.108420e+01   5.257473e+01
  -8.077577e+01   2.960841e+01
  -6.317713e+01  -2.705742e+01
  -1.431877e+01  -7.152859e+01
   3.149865e+01  -6.818170e+01
   4.898892e+01  -2.812194e+01
   3.627904e+01   8.047703e+00
   1.189139e+01   1.491652e+01
  -1.356538e+00   3.255772e+00
   4.577208e+00   9.886376e-01
   1.621975e+01   1.949763e+01
   1.261746e+01   3.980979e+01
  -1.142356e+01   3.256121e+01
  -3.659790e+01  -6.949350e+00
  -3.606085e+01  -4.701189e+01
  -3.376364e+00  -4.949365e+01
   3.635313e+01  -1.123217e+01
   4.668800e+01   3.214986e+01
   1.577771e+01   4.499250e+01
  -2.812656e+01   2.529661e+01
  -4.306792e+01  -3.206685e+00
  -1.837968e+01  -2.067262e+01
   1.277761e+01  -2.298738e+01
   1.249538e+01  -1.363273e+01
  -1.552414e+01   2.331998e-02
  -3.067919e+01   4.228410e+00
  -7.003960e+00  -1.046542e+01
   3.393363e+01  -3.110160e+01
   5.002085e+01  -2.938403e+01
   2.830726e+01   3.081877e+00
  -5.317938e+00   3.699058e+01
  -2.122880e+01   3.643579e+01
  -1.524967e+01   3.134144e+00
  -1.154429e+00  -2.483069e+01
   1.042114e+01  -1.903701e+01
   1.610464e+01   8.038985e+00
   1.277611e+01   2.336669e+01
  -3.455583e-01   1.395221e+01
  -1.469693e+01  -3.384387e+00
  -1.814167e+01  -8.012217e+00
  -9.375516e+00   2.929008e-01
   6.690673e-01   5.609273e+00
   3.614155e+00  -2.433839e+00
   3.285335e+00  -1.623288e+01
   7.251212e+00  -1.873321e+01
   1.384643e+01  -2.615519e+00
   1.296401e+01   1.963893e+01
  -9.483936e-01   2.643414e+01
  -1.949375e+01   9.405639e+00
  -2.507888e+01  -1.646259e+01
  -7.179118e+00  -2.770882e+01
   2.339888e+01  -1.619847e+01
   3.921318e+01   5.103597e+00
   2.254273e+01   1.853232e+01
  -1.170859e+01   1.829543e+01
  -2.794125e+01   1.030528e+01
  -1.015019e+01   2.734027e+00
   1.704953e+01   1.160170e+00
   1.694678e+01   7.219240e+00
  -1.396396e+01   1.461815e+01
  -4.116472e+01   9.852244e+00
