
 $NMID
 id='ANONYMOUS ', fmtdat='(2E16.6)'
 volume=1.0
 tramp=1.0
 $END
   4.512467e+03  -1.124746e+01
   2.588137e+03   2.729463e+03
  -8.219229e+02   2.826968e+03
  -2.198200e+03   8.401590e+02
  -9.189848e+02  -7.460912e+02
   7.522469e+02  -5.949913e+02
   9.424787e+02   4.947397e+02
  -3.238640e+01   1.132024e+03
  -8.830291e+02   7.987964e+02
  -9.722218e+02  -1.242465e+02
  -4.459716e+02  -9.090366e+02
   2.762606e+02  -9.155192e+02
   6.763642e+02  -9.675907e+01
   3.943431e+02   7.652589e+02
  -2.942587e+02   7.759964e+02
  -6.331908e+02  -2.165108e+01
  -2.696023e+02  -7.087986e+02
   3.442437e+02  -6.372288e+02
   5.935128e+02  -7.305322e+01
   3.811869e+02   3.687158e+02
   5.225074e+00   4.443882e+02
  -2.556261e+02   2.649103e+02
  -2.262844e+02   5.951501e+00
   1.170182e+02  -1.104163e+02
   4.350749e+02   1.000437e+02
   2.242013e+02   4.523753e+02
  -4.727881e+02   4.482145e+02
  -8.914191e+02  -6.811828e+01
  -4.538369e+02  -5.813659e+02
   4.140845e+02  -5.198277e+02
   7.857274e+02   3.029264e+01
   3.673094e+02   5.050984e+02
  -2.908770e+02   5.446109e+02
  -5.870429e+02   2.129506e+02
  -4.311428e+02  -2.381336e+02
  -6.768722e+01  -4.969719e+02
   2.206927e+02  -2.927738e+02
   1.918084e+02   2.417776e+02
  -1.748116e+02   4.744805e+02
  -4.836835e+02  -1.306165e+01
  -2.705085e+02  -7.193108e+02
   3.352328e+02  -7.403165e+02
   6.428257e+02   1.436569e+00
   2.732825e+02   5.911081e+02
  -3.152327e+02   3.400313e+02
  -4.146749e+02  -3.391701e+02
   6.447761e+01  -5.744975e+02
   5.761252e+02  -1.485978e+02
   6.175083e+02   4.134906e+02
   1.723440e+02   6.012991e+02
  -3.955712e+02   3.601769e+02
  -6.500648e+02  -7.355238e+01
  -3.818713e+02  -4.005716e+02
   1.693153e+02  -3.819603e+02
   4.645026e+02  -5.208882e+01
   2.429495e+02   2.155046e+02
  -1.367447e+02   1.140871e+02
  -1.540411e+02  -1.703208e+02
   1.777332e+02  -2.038165e+02
   3.659493e+02   7.884365e+01
   1.446796e+02   3.152285e+02
  -2.107600e+02   2.641037e+02
  -3.301291e+02   7.024911e+01
  -1.907665e+02  -7.986082e+01
   1.961096e+01  -2.128605e+02
   2.062099e+02  -3.283853e+02
   3.347844e+02  -2.337947e+02
   3.043970e+02   1.315150e+02
   8.794483e+01   4.495840e+02
  -1.227198e+02   3.956331e+02
  -1.307865e+02   1.050785e+02
  -1.978178e+01  -2.520068e+01
  -2.836820e+01   8.853732e+01
  -1.898551e+02   1.465362e+02
  -2.900198e+02  -4.026614e+01
  -1.747802e+02  -2.744178e+02
   6.676932e+01  -2.704728e+02
   2.368848e+02  -2.065494e+01
   2.128192e+02   2.415773e+02
  -1.683560e+00   3.055222e+02
  -2.715644e+02   1.292629e+02
  -3.746247e+02  -1.636287e+02
  -1.953428e+02  -3.587228e+02
   1.025180e+02  -3.153154e+02
   2.337196e+02  -1.199271e+02
   1.498177e+02   1.937269e+00
   9.145724e+01  -3.411145e+01
   2.286376e+02  -7.455931e+01
   4.035139e+02   4.460020e+01
   3.410005e+02   2.787581e+02
   8.798293e+00   4.462030e+02
  -3.514727e+02   4.244696e+02
  -4.891521e+02   2.140003e+02
  -3.471145e+02  -8.862274e+01
  -6.346486e+01  -3.026763e+02
   1.339047e+02  -2.636167e+02
   9.152386e+01  -2.750533e+01
  -1.107460e+02   1.204810e+02
  -2.092183e+02  -7.968854e-01
  -5.817161e+01  -2.068254e+02
   1.693130e+02  -1.845240e+02
   1.919798e+02   6.216631e+01
  -1.507492e+01   2.047966e+02
  -2.019910e+02   3.998331e+01
  -1.704156e+02  -2.491592e+02
   2.782762e+01  -3.523998e+02
   2.261286e+02  -1.952875e+02
   3.231785e+02   5.658916e+01
   2.828319e+02   2.304856e+02
   1.051387e+02   2.622453e+02
  -1.095012e+02   1.667113e+02
  -1.830730e+02   2.539227e+01
  -6.277062e+01  -3.530941e+01
   7.475456e+01   3.489631e+01
   3.666361e+01   1.286350e+02
  -1.244523e+02   1.079989e+02
  -1.857774e+02  -8.662633e+00
  -6.356705e+01  -7.609621e+01
   8.102544e+01  -2.291063e+01
   6.032015e+01   6.970252e+01
  -1.176360e+02   8.977061e+01
  -2.792607e+02   8.929638e+00
  -2.679623e+02  -1.302273e+02
  -7.055474e+01  -2.539379e+02
   1.770100e+02  -2.703883e+02
   2.861125e+02  -1.365418e+02
   1.773394e+02   5.102994e+01
  -2.298284e+01   1.164830e+02
  -9.664351e+01   1.126278e+01
   2.823080e+01  -1.072437e+02
   1.984946e+02  -6.758127e+01
   2.209621e+02   9.968676e+01
   7.518469e+01   2.118401e+02
  -9.389581e+01   1.644592e+02
  -1.482496e+02   3.327740e+01
  -7.592013e+01  -4.258260e+01
   2.622551e+01  -8.748076e+00
   4.211764e+01   7.769377e+01
  -6.402143e+01   1.141711e+02
  -1.951703e+02   3.653578e+01
  -1.962503e+02  -1.174916e+02
  -2.742821e+01  -2.201349e+02
   1.640165e+02  -1.701520e+02
   1.983716e+02  -8.449706e+00
   6.894783e+01   1.181853e+02
  -6.666717e+01   1.164819e+02
  -8.607893e+01   3.295836e+01
  -2.238635e+01  -2.688161e+01
   1.871217e+01  -2.174194e+01
  -8.738892e+00   4.789075e+00
  -6.666321e+01  -8.195660e+00
  -8.662789e+01  -7.678362e+01
  -1.997660e+01  -1.537727e+02
   1.189422e+02  -1.548762e+02
   2.318329e+02  -3.404922e+01
   2.067478e+02   1.439048e+02
   4.744786e+01   2.380947e+02
  -1.075167e+02   1.738464e+02
  -1.366866e+02   2.896395e+01
  -7.057792e+01  -5.636212e+01
  -2.791912e+01  -3.637479e+01
  -5.243501e+01   1.285974e+01
  -7.775554e+01   8.266451e+00
  -4.030577e+01  -4.634431e+01
   3.968528e+01  -8.455473e+01
   9.603798e+01  -5.571803e+01
   8.203769e+01   3.041511e+01
  -9.070253e+00   1.062976e+02
  -1.342264e+02   8.886577e+01
  -1.961723e+02  -4.272462e+01
  -1.082299e+02  -1.965826e+02
   9.733083e+01  -2.323809e+02
   2.645843e+02  -1.047797e+02
   2.617557e+02   7.990718e+01
   1.150998e+02   1.762984e+02
  -3.587362e+01   1.498507e+02
  -9.418050e+01   8.649658e+01
  -7.969226e+01   7.029865e+01
  -6.619576e+01   9.071538e+01
  -9.055936e+01   7.442925e+01
  -1.271249e+02  -1.994586e+01
  -1.197663e+02  -1.509220e+02
  -3.462577e+01  -2.247682e+02
   9.479015e+01  -1.748076e+02
   1.760490e+02  -2.560115e+01
   1.406864e+02   1.180914e+02
   2.410865e+01   1.599840e+02
  -6.438688e+01   9.607997e+01
  -6.033602e+01   4.763146e+00
  -7.954599e+00  -4.089019e+01
   6.714601e+00  -3.530887e+01
  -3.751640e+01  -1.913717e+01
  -7.789127e+01  -2.165747e+01
  -4.428914e+01  -3.641556e+01
   6.065980e+01  -3.788364e+01
   1.541378e+02  -7.881705e+00
   1.437783e+02   4.582141e+01
   2.044474e+01   8.692453e+01
  -1.158197e+02   7.690346e+01
  -1.443846e+02   1.773373e+01
  -5.031986e+01  -3.829340e+01
   5.863186e+01  -3.726500e+01
   7.527658e+01   1.738388e+01
   7.378477e+00   6.609086e+01
  -5.536198e+01   5.654251e+01
  -6.166259e+01  -1.291143e+00
  -4.241405e+01  -4.787399e+01
  -4.320869e+01  -4.017125e+01
  -6.190542e+01  -1.598662e+00
  -6.588775e+01   6.171703e-01
  -3.491969e+01  -6.497080e+01
   3.030148e+01  -1.433699e+02
   1.106569e+02  -1.419148e+02
   1.591960e+02  -3.709404e+01
   1.228440e+02   8.672893e+01
   1.022773e+01   1.239578e+02
  -8.234849e+01   6.171629e+01
  -5.900429e+01  -1.428079e+01
   5.836456e+01  -2.087387e+01
   1.377524e+02   4.099939e+01
   7.833313e+01   1.055265e+02
  -7.748071e+01   1.139062e+02
  -1.893694e+02   5.665573e+01
  -1.637238e+02  -2.946834e+01
  -3.987303e+01  -8.604812e+01
   5.910676e+01  -7.277399e+01
   4.920881e+01  -9.751297e+00
  -3.733341e+01   2.681707e+01
  -8.961704e+01  -2.090278e+01
  -3.357813e+01  -1.170372e+02
   8.957577e+01  -1.535594e+02
   1.658912e+02  -6.293136e+01
   1.269386e+02   9.884116e+01
   1.261257e+01   1.962053e+02
  -8.290650e+01   1.450568e+02
  -1.043635e+02  -3.815699e+00
  -6.366455e+01  -1.158065e+02
  -2.069586e+00  -1.071652e+02
   4.446115e+01  -2.232435e+01
   5.347952e+01   3.021581e+01
   2.742869e+01   8.883055e+00
   3.373476e+00  -2.117436e+01
   1.940738e+01   1.278578e+01
   5.666228e+01   8.633050e+01
   4.526433e+01   1.092100e+02
  -4.421043e+01   4.687023e+01
  -1.382040e+02  -3.718527e+01
  -1.313839e+02  -6.882310e+01
  -1.844409e+01  -4.829715e+01
   8.789760e+01  -2.241913e+01
   8.799564e+01  -9.435034e+00
   1.000819e+01   5.892262e+00
  -3.865424e+01   2.272803e+01
  -1.310809e+01   1.962618e+01
   2.217492e+01  -9.813006e-01
  -6.102536e+00  -9.736604e+00
  -7.470990e+01  -4.056389e+00
  -9.061726e+01  -2.242083e+01
  -7.327859e+00  -7.829615e+01
   1.172655e+02  -1.134816e+02
   1.817056e+02  -5.951036e+01
   1.386340e+02   6.531068e+01
   2.666968e+01   1.599673e+02
  -7.518251e+01   1.486776e+02
  -1.111133e+02   5.856190e+01
  -7.995100e+01  -2.049279e+01
  -2.508020e+01  -3.404615e+01
   3.510966e+00  -7.498388e+00
  -9.791599e+00  -2.794330e+00
  -3.424943e+01  -4.421836e+01
  -2.491678e+01  -8.880497e+01
   2.772474e+01  -7.129563e+01
   8.080487e+01   1.789681e+01
   7.690584e+01   1.069928e+02
   4.007242e+00   1.105815e+02
  -8.190584e+01   2.275729e+01
  -1.018159e+02  -7.481263e+01
  -3.171992e+01  -1.014128e+02
   6.477332e+01  -5.420168e+01
   9.552367e+01   1.066962e+01
   3.874227e+01   4.764958e+01
  -3.068379e+01   4.994660e+01
  -2.881586e+01   2.869964e+01
   3.472600e+01   5.369157e-01
   6.844480e+01  -7.183550e+00
   1.462175e+01   2.395233e+01
  -7.745670e+01   6.646180e+01
  -1.126795e+02   6.102615e+01
  -6.220598e+01  -9.443476e+00
   1.464448e+01  -8.174238e+01
   5.001702e+01  -7.885941e+01
   3.455301e+01  -5.323610e+00
   9.983038e-01   5.547929e+01
  -2.485076e+01   4.159250e+01
  -3.563567e+01  -1.898976e+01
  -2.661416e+01  -5.286574e+01
   2.249578e+00  -3.107570e+01
   3.255996e+01   8.584423e+00
   3.933721e+01   1.927777e+01
   2.054922e+01   8.203320e-02
  -7.035257e-01  -1.272384e+01
  -7.429971e+00   5.071539e+00
  -8.109260e+00   3.639887e+01
  -1.789429e+01   4.204433e+01
  -3.179392e+01   5.209118e+00
  -2.801102e+01  -4.513358e+01
   3.889707e+00  -5.950242e+01
   4.422411e+01  -1.972497e+01
   5.482205e+01   3.872210e+01
   1.407711e+01   6.227602e+01
  -5.321471e+01   3.404936e+01
  -8.683665e+01  -1.449032e+01
  -4.865977e+01  -4.286429e+01
   2.762869e+01  -3.972839e+01
   6.315447e+01  -2.077588e+01
   2.287052e+01  -5.005733e+00
  -3.802334e+01  -3.213338e+00
  -3.762398e+01  -1.692126e+01
   3.159938e+01  -3.183458e+01
   9.198623e+01  -1.965857e+01
