
 $NMID
 id='ANONYMOUS ', fmtdat='(2E16.6)'
 volume=1.0
 tramp=1.0
 $END
   2.620539e+03   4.022838e+01
   1.750010e+03   1.296847e+03
   7.405924e+01   1.650940e+03
  -9.552268e+02   1.079587e+03
  -7.939576e+02   2.624217e+02
  -9.835896e+01  -1.231075e+02
   2.545392e+02   5.514476e+01
   4.809392e+01   4.106985e+02
  -3.420462e+02   4.674719e+02
  -5.143723e+02   9.231817e+01
  -3.613835e+02  -3.932954e+02
  -3.039809e+01  -5.228915e+02
   2.212381e+02  -1.635978e+02
   1.928297e+02   3.207818e+02
  -8.160760e+01   4.366189e+02
  -3.205550e+02   7.643239e+01
  -2.551347e+02  -3.895258e+02
   8.198131e+01  -5.242083e+02
   3.809656e+02  -2.529614e+02
   3.787035e+02   1.278947e+02
   1.242304e+02   2.961799e+02
  -8.998287e+01   2.060029e+02
  -4.613389e+01   7.215807e+01
   1.608554e+02   9.958217e+01
   2.207880e+02   2.510925e+02
  -3.504479e+01   3.001663e+02
  -4.005680e+02   1.128454e+02
  -4.873152e+02  -1.721680e+02
  -1.644443e+02  -2.901250e+02
   2.684905e+02  -1.419194e+02
   4.000110e+02   1.243779e+02
   1.417740e+02   2.966047e+02
  -2.216184e+02   2.780517e+02
  -3.730842e+02   9.937445e+01
  -2.613735e+02  -1.290917e+02
  -6.989894e+01  -2.456526e+02
   1.178934e+01  -1.437820e+02
  -5.371273e+01   6.646688e+01
  -1.563587e+02   1.076642e+02
  -1.495395e+02  -1.337442e+02
   1.210767e+01  -4.003956e+02
   2.078042e+02  -3.453071e+02
   2.498063e+02   4.639102e+00
   8.567178e+01   2.447881e+02
  -1.163759e+02   9.954800e+01
  -1.259690e+02  -2.259436e+02
   1.022788e+02  -3.119193e+02
   3.640913e+02  -3.755151e+01
   3.957747e+02   3.117412e+02
   1.269535e+02   4.084781e+02
  -2.447588e+02   2.158707e+02
  -4.236984e+02  -5.484066e+01
  -2.805912e+02  -2.000749e+02
   3.075618e+01  -1.767197e+02
   2.272831e+02  -7.055773e+01
   1.781852e+02   8.643396e+00
   1.828824e+01   1.008025e+01
  -3.086462e+01  -3.118192e+01
   7.823677e+01  -3.577172e+01
   1.788609e+02   3.900693e+01
   1.015564e+02   1.516332e+02
  -1.222517e+02   2.047254e+02
  -2.888613e+02   1.215950e+02
  -2.316174e+02  -8.236354e+01
   1.646439e+01  -2.812624e+02
   2.579752e+02  -3.139739e+02
   3.164376e+02  -1.283573e+02
   1.912513e+02   1.429931e+02
   3.398419e+01   2.954635e+02
  -2.503220e+01   2.582669e+02
  -7.247039e+00   1.486141e+02
  -2.697044e+01   1.018892e+02
  -1.267802e+02   1.023434e+02
  -2.195618e+02   3.748292e+01
  -1.994847e+02  -1.122952e+02
  -6.547493e+01  -2.180179e+02
   8.659456e+01  -1.543466e+02
   1.572372e+02   4.358224e+01
   1.038521e+02   2.085803e+02
  -4.836734e+01   2.049732e+02
  -2.068062e+02   4.303148e+01
  -2.507527e+02  -1.498180e+02
  -1.356168e+02  -2.464149e+02
   4.087838e+01  -2.165514e+02
   1.334621e+02  -1.304854e+02
   1.219731e+02  -7.472925e+01
   1.302539e+02  -6.209555e+01
   2.407709e+02  -2.734341e+01
   3.478012e+02   8.809350e+01
   2.659449e+02   2.556023e+02
  -2.768754e+01   3.682536e+02
  -3.279566e+02   3.289202e+02
  -4.043581e+02   1.383233e+02
  -2.343831e+02  -8.963047e+01
  -8.169082e+00  -2.071407e+02
   7.777144e+01  -1.569834e+02
   1.265290e+00  -2.994765e+01
  -1.022109e+02   2.462107e+01
  -1.017785e+02  -3.898070e+01
   1.506525e+00  -1.136738e+02
   9.575014e+01  -7.690067e+01
   8.236678e+01   4.632770e+01
  -2.853125e+01   1.023644e+02
  -1.323059e+02  -6.711354e+00
  -1.232517e+02  -1.975428e+02
   1.844565e+01  -2.861968e+02
   2.064595e+02  -1.757409e+02
   3.053641e+02   5.356320e+01
   2.343000e+02   2.275397e+02
   4.430300e+01   2.354029e+02
  -1.132041e+02   1.148399e+02
  -1.241755e+02   2.724532e-01
  -2.536267e+01  -1.049238e+01
   4.064639e+01   5.627468e+01
  -9.647859e+00   9.550926e+01
  -1.066907e+02   4.991862e+01
  -1.193654e+02  -2.762616e+01
  -2.111816e+01  -4.530603e+01
   7.090902e+01   1.585956e+01
   2.984814e+01   8.313218e+01
  -1.307259e+02   7.416560e+01
  -2.590691e+02  -2.421983e+01
  -2.159145e+02  -1.520338e+02
  -1.575866e+01  -2.252239e+02
   1.827714e+02  -1.919665e+02
   2.265674e+02  -7.319021e+01
   1.102366e+02   4.063348e+01
  -2.830058e+01   6.086200e+01
  -5.047585e+01  -8.035868e+00
   5.003014e+01  -6.453457e+01
   1.556595e+02  -2.114207e+01
   1.530528e+02   9.106865e+01
   4.195714e+01   1.561321e+02
  -7.622207e+01   1.092026e+02
  -1.028392e+02   9.880377e+00
  -3.406476e+01  -3.126058e+01
   3.922113e+01   2.207679e+01
   2.132096e+01   9.853608e+01
  -8.792474e+01   1.011523e+02
  -1.819359e+02   5.882334e+00
  -1.512731e+02  -1.185724e+02
  -4.117893e+00  -1.751330e+02
   1.326008e+02  -1.222759e+02
   1.434931e+02  -7.302915e+00
   4.280436e+01   7.717454e+01
  -5.270113e+01   7.616452e+01
  -5.697889e+01   1.834287e+01
   2.632846e+00  -2.142950e+01
   3.491669e+01  -5.852250e+00
  -6.926172e+00   2.498195e+01
  -7.814972e+01   3.437044e+00
  -9.206020e+01  -8.006688e+01
  -7.474088e+00  -1.528956e+02
   1.259317e+02  -1.294845e+02
   2.039550e+02  -2.981117e+00
   1.594297e+02   1.387826e+02
   2.735817e+01   1.920922e+02
  -8.632748e+01   1.313303e+02
  -1.079050e+02   2.521142e+01
  -6.203566e+01  -3.563511e+01
  -2.909896e+01  -2.330201e+01
  -4.762385e+01   1.222029e+01
  -7.598487e+01   5.583848e+00
  -5.051521e+01  -5.019293e+01
   3.374373e+01  -9.346954e+01
   1.084973e+02  -5.986649e+01
   9.521619e+01   3.987000e+01
  -1.616341e+01   1.143802e+02
  -1.444221e+02   7.662542e+01
  -1.764900e+02  -6.089132e+01
  -6.674625e+01  -1.848736e+02
   1.126733e+02  -1.857162e+02
   2.282658e+02  -6.263636e+01
   2.028824e+02   8.088128e+01
   7.873580e+01   1.428065e+02
  -3.611034e+01   1.140338e+02
  -7.445385e+01   6.535192e+01
  -5.749657e+01   5.806240e+01
  -4.833418e+01   7.991082e+01
  -7.663283e+01   6.772057e+01
  -1.119319e+02  -1.561889e+01
  -9.981422e+01  -1.311725e+02
  -1.956728e+01  -1.910613e+02
   8.709285e+01  -1.385834e+02
   1.431149e+02  -5.673957e+00
   1.035075e+02   1.103059e+02
   3.909813e+00   1.316898e+02
  -6.670081e+01   6.526022e+01
  -5.388694e+01  -1.570774e+01
   5.248314e+00  -4.789026e+01
   2.624278e+01  -3.095899e+01
  -2.110107e+01  -9.315329e+00
  -7.239381e+01  -1.463795e+01
  -4.326146e+01  -3.472394e+01
   6.426532e+01  -3.412951e+01
   1.505957e+02   3.880223e+00
   1.222642e+02   5.773246e+01
  -4.512783e+00   8.532658e+01
  -1.175493e+02   6.114600e+01
  -1.235433e+02   1.442634e+00
  -3.637530e+01  -4.507682e+01
   5.097271e+01  -3.797261e+01
   6.651197e+01   1.568148e+01
   1.807822e+01   6.348380e+01
  -3.732421e+01   5.704698e+01
  -5.923931e+01   2.755386e+00
  -5.158027e+01  -4.317683e+01
  -4.140192e+01  -3.735441e+01
  -4.564435e+01  -1.981395e+00
  -5.477145e+01  -1.543969e+00
  -3.923319e+01  -6.262062e+01
   2.249005e+01  -1.307996e+02
   1.094495e+02  -1.240719e+02
   1.568820e+02  -2.753956e+01
   1.118234e+02   8.199925e+01
   1.620818e-02   1.145625e+02
  -8.034420e+01   5.999393e+01
  -5.320048e+01  -8.472398e+00
   4.907689e+01  -1.718876e+01
   1.118983e+02   3.568676e+01
   5.751483e+01   9.021680e+01
  -7.226832e+01   9.069828e+01
  -1.596066e+02   3.368659e+01
  -1.304258e+02  -3.752354e+01
  -2.351784e+01  -7.186903e+01
   5.565227e+01  -4.906657e+01
   4.109548e+01   3.276093e+00
  -3.438633e+01   2.698023e+01
  -7.880407e+01  -1.613555e+01
  -3.486076e+01  -9.707151e+01
   6.459464e+01  -1.316956e+02
   1.310144e+02  -6.093733e+01
   1.064224e+02   7.524298e+01
   1.449665e+01   1.608238e+02
  -6.898138e+01   1.172334e+02
  -8.747599e+01  -1.126276e+01
  -4.444138e+01  -1.023208e+02
   1.424957e+01  -8.596491e+01
   4.496218e+01  -1.096965e+01
   3.665537e+01   2.785771e+01
   1.221268e+01   6.260867e+00
   5.561768e+00  -1.413025e+01
   2.767670e+01   1.916635e+01
   4.873797e+01   7.647270e+01
   2.429304e+01   8.792554e+01
  -4.928291e+01   3.499562e+01
  -1.135496e+02  -3.147674e+01
  -1.015224e+02  -5.871363e+01
  -1.551252e+01  -4.565981e+01
   6.624038e+01  -2.218896e+01
   7.244524e+01  -4.009138e+00
   1.607854e+01   1.060686e+01
  -2.817911e+01   1.767218e+01
  -1.766117e+01   9.668232e+00
   1.107421e+01  -3.679899e+00
  -1.733834e+00  -4.015904e+00
  -5.438898e+01   1.758059e+00
  -7.871370e+01  -1.775376e+01
  -2.121884e+01  -6.826089e+01
   8.795208e+01  -1.004842e+02
   1.590733e+02  -5.823754e+01
   1.313062e+02   4.694238e+01
   2.899504e+01   1.335363e+02
  -6.774911e+01   1.322615e+02
  -9.877713e+01   5.729283e+01
  -6.797011e+01  -1.545241e+01
  -2.279776e+01  -3.255787e+01
  -3.339098e+00  -1.188441e+01
  -1.257288e+01  -8.013321e+00
  -2.497126e+01  -4.225352e+01
  -1.402632e+01  -7.719889e+01
   2.461237e+01  -6.065330e+01
   6.550559e+01   1.168923e+01
   6.829432e+01   8.387705e+01
   1.456364e+01   9.242530e+01
  -6.116715e+01   2.908876e+01
  -8.980290e+01  -5.184554e+01
  -3.611317e+01  -8.646117e+01
   5.289728e+01  -5.649436e+01
   8.895143e+01   4.915434e+00
   4.041295e+01   5.025566e+01
  -2.884605e+01   5.434315e+01
  -3.568007e+01   2.523146e+01
   2.019955e+01  -6.135955e+00
   5.733375e+01  -8.320762e+00
   1.640732e+01   2.332277e+01
  -6.578645e+01   5.543231e+01
  -1.031683e+02   4.420887e+01
  -6.185929e+01  -1.497112e+01
   1.053278e+01  -7.225136e+01
   4.962264e+01  -7.133049e+01
   3.949898e+01  -1.278619e+01
   7.540053e+00   4.313485e+01
  -1.909552e+01   4.195052e+01
  -3.104241e+01  -6.738015e+00
  -2.483881e+01  -4.512676e+01
  -2.138591e-01  -3.503104e+01
   2.816457e+01   3.265220e+00
   3.615752e+01   2.208790e+01
   1.774708e+01   4.813909e+00
  -4.176485e+00  -1.792029e+01
  -5.894802e+00  -9.527767e+00
   5.542080e+00   2.562564e+01
   2.723872e+00   4.577173e+01
  -2.111365e+01   2.154287e+01
  -3.675845e+01  -2.683197e+01
  -1.439069e+01  -4.972347e+01
   3.276392e+01  -2.303288e+01
   5.434641e+01   2.595206e+01
   1.805171e+01   5.007273e+01
  -4.817984e+01   3.134290e+01
  -7.972403e+01  -7.992231e+00
  -4.365512e+01  -3.594819e+01
   2.367609e+01  -3.972278e+01
   5.495818e+01  -2.573607e+01
   2.537327e+01  -6.640949e+00
  -2.193672e+01   4.017765e+00
  -2.721407e+01  -3.266603e+00
   1.791467e+01  -2.014955e+01
   6.313160e+01  -1.830926e+01
