
 $NMID
 id='ANONYMOUS ', fmtdat='(2E16.6)'
 volume=1.0
 tramp=1.0
 $END
   2.783081e+03  -1.142885e+02
   2.046482e+03   1.216303e+03
   3.350308e+02   1.818959e+03
  -9.287878e+02   1.409565e+03
  -9.814032e+02   4.890720e+02
  -2.851861e+02  -1.279143e+02
   2.221160e+02  -5.625693e+01
   1.255345e+02   3.742339e+02
  -2.872062e+02   5.405886e+02
  -5.468714e+02   1.823634e+02
  -4.537471e+02  -3.702583e+02
  -1.193123e+02  -5.744043e+02
   1.906732e+02  -2.381084e+02
   2.307300e+02   2.904916e+02
  -3.243454e+01   4.763498e+02
  -3.336422e+02   1.319600e+02
  -3.260276e+02  -4.033717e+02
   3.947487e+01  -6.188053e+02
   4.237463e+02  -3.467164e+02
   4.641585e+02   1.067471e+02
   1.797700e+02   3.317455e+02
  -7.261290e+01   2.460764e+02
  -2.933432e+01   1.086577e+02
   1.832117e+02   1.512302e+02
   2.192032e+02   3.014782e+02
  -6.737098e+01   3.118313e+02
  -4.352783e+02   9.062085e+01
  -5.050946e+02  -1.840054e+02
  -1.722805e+02  -2.729723e+02
   2.647449e+02  -1.212907e+02
   4.051980e+02   1.287053e+02
   1.500429e+02   2.984825e+02
  -2.273987e+02   2.932405e+02
  -3.960785e+02   1.193493e+02
  -2.903500e+02  -1.191153e+02
  -1.037210e+02  -2.485848e+02
  -3.167187e+01  -1.604031e+02
  -8.898521e+01   3.420726e+01
  -1.541185e+02   7.223326e+01
  -1.167148e+02  -1.511914e+02
   3.100905e+01  -4.014857e+02
   1.920029e+02  -3.559299e+02
   2.317393e+02  -2.500477e+01
   9.881481e+01   2.190876e+02
  -8.735933e+01   9.464999e+01
  -1.137682e+02  -2.262071e+02
   1.036142e+02  -3.245650e+02
   3.868726e+02  -4.668577e+01
   4.425409e+02   3.297726e+02
   1.616742e+02   4.454433e+02
  -2.511359e+02   2.453959e+02
  -4.651633e+02  -3.968633e+01
  -3.312255e+02  -1.926940e+02
  -2.585448e+00  -1.856634e+02
   2.303084e+02  -1.058237e+02
   2.140700e+02  -2.969876e+01
   5.347496e+01   5.905374e+00
  -2.696021e+01  -5.659905e+00
   6.415790e+01  -2.356106e+01
   1.843167e+02   2.400101e+01
   1.263445e+02   1.481559e+02
  -1.228168e+02   2.396053e+02
  -3.354034e+02   1.584052e+02
  -2.802400e+02  -9.684136e+01
   1.953800e+01  -3.424943e+02
   3.063910e+02  -3.676024e+02
   3.605068e+02  -1.403389e+02
   2.085717e+02   1.595391e+02
   4.649987e+01   3.192566e+02
  -6.779450e-01   2.895163e+02
   1.018088e+01   1.905922e+02
  -4.024659e+01   1.400070e+02
  -1.643454e+02   1.177096e+02
  -2.551197e+02   2.800175e+01
  -2.171905e+02  -1.344356e+02
  -6.688817e+01  -2.392342e+02
   9.478140e+01  -1.632387e+02
   1.687054e+02   5.366261e+01
   1.103675e+02   2.312917e+02
  -5.436605e+01   2.228958e+02
  -2.266399e+02   4.453293e+01
  -2.787959e+02  -1.619546e+02
  -1.616397e+02  -2.662388e+02
   2.834156e+01  -2.442349e+02
   1.401030e+02  -1.642447e+02
   1.434568e+02  -1.038599e+02
   1.605649e+02  -7.675797e+01
   2.817581e+02  -2.739013e+01
   3.989870e+02   1.016718e+02
   3.066136e+02   2.882122e+02
  -2.758618e+01   4.191529e+02
  -3.710108e+02   3.786046e+02
  -4.554340e+02   1.626930e+02
  -2.593756e+02  -9.444250e+01
  -1.052676e+01  -2.248179e+02
   7.297973e+01  -1.730002e+02
  -1.307663e+01  -4.194583e+01
  -1.119808e+02   1.589189e+01
  -1.007418e+02  -4.299405e+01
   3.091563e+00  -1.149710e+02
   9.248973e+01  -8.001690e+01
   8.140295e+01   4.321938e+01
  -2.711159e+01   1.037919e+02
  -1.416074e+02  -8.523164e+00
  -1.441359e+02  -2.193589e+02
   1.145189e+01  -3.274426e+02
   2.360737e+02  -2.082283e+02
   3.577498e+02   5.689590e+01
   2.717372e+02   2.606753e+02
   4.783474e+01   2.680677e+02
  -1.286057e+02   1.284069e+02
  -1.351407e+02   2.249733e+00
  -2.581811e+01  -5.452257e+00
   4.179463e+01   6.668758e+01
  -1.499966e+01   1.041392e+02
  -1.180517e+02   5.237298e+01
  -1.291216e+02  -2.917454e+01
  -2.094509e+01  -4.521202e+01
   7.943161e+01   2.307858e+01
   3.060015e+01   9.746469e+01
  -1.538410e+02   8.585976e+01
  -2.999150e+02  -2.858456e+01
  -2.467069e+02  -1.757093e+02
  -1.516085e+01  -2.566217e+02
   2.078780e+02  -2.158933e+02
   2.518858e+02  -8.359693e+01
   1.204939e+02   3.992518e+01
  -2.941149e+01   6.289948e+01
  -5.089894e+01  -8.572780e+00
   5.845420e+01  -6.844095e+01
   1.729720e+02  -2.279003e+01
   1.713968e+02   9.891520e+01
   5.029567e+01   1.721038e+02
  -8.151817e+01   1.221787e+02
  -1.121324e+02   1.258707e+01
  -3.472556e+01  -3.160933e+01
   4.642247e+01   3.121063e+01
   2.180134e+01   1.175750e+02
  -1.049397e+02   1.166705e+02
  -2.099235e+02   5.647382e+00
  -1.726615e+02  -1.344591e+02
  -6.842495e+00  -1.974164e+02
   1.460517e+02  -1.405211e+02
   1.600889e+02  -1.432893e+01
   5.024071e+01   8.193646e+01
  -5.592982e+01   8.504044e+01
  -6.120090e+01   2.213948e+01
   6.371904e+00  -2.266926e+01
   4.249280e+01  -3.757127e+00
  -8.907926e+00   3.284353e+01
  -9.460304e+01   6.232665e+00
  -1.102063e+02  -9.383577e+01
  -9.113999e+00  -1.789238e+02
   1.457410e+02  -1.498038e+02
   2.335455e+02  -3.505098e+00
   1.826217e+02   1.569929e+02
   3.503636e+01   2.171126e+02
  -9.342352e+01   1.506454e+02
  -1.218740e+02   3.266995e+01
  -7.365790e+01  -3.717841e+01
  -3.570143e+01  -2.502520e+01
  -5.509403e+01   1.531857e+01
  -8.892689e+01   7.382914e+00
  -6.156659e+01  -5.968628e+01
   3.804839e+01  -1.123826e+02
   1.291484e+02  -7.187060e+01
   1.141337e+02   4.797245e+01
  -1.904860e+01   1.357110e+02
  -1.697084e+02   8.969059e+01
  -2.043324e+02  -7.063448e+01
  -7.553834e+01  -2.119826e+02
   1.291517e+02  -2.118747e+02
   2.591942e+02  -7.293902e+01
   2.306892e+02   8.833942e+01
   9.136794e+01   1.591767e+02
  -3.840343e+01   1.291164e+02
  -8.212295e+01   7.606371e+01
  -6.248972e+01   6.881535e+01
  -5.216775e+01   9.433447e+01
  -8.657684e+01   8.076844e+01
  -1.299267e+02  -1.501556e+01
  -1.176633e+02  -1.484877e+02
  -2.578933e+01  -2.183102e+02
   9.679379e+01  -1.592561e+02
   1.618380e+02  -7.904168e+00
   1.181467e+02   1.245600e+02
   5.294316e+00   1.491265e+02
  -7.581377e+01   7.277725e+01
  -6.123852e+01  -2.050431e+01
   8.059177e+00  -5.666044e+01
   3.324120e+01  -3.479181e+01
  -2.306579e+01  -7.963689e+00
  -8.507774e+01  -1.468539e+01
  -5.140410e+01  -3.991777e+01
   7.548699e+01  -4.028196e+01
   1.760106e+02   3.987147e+00
   1.405779e+02   6.658821e+01
  -7.910772e+00   9.855315e+01
  -1.367049e+02   7.110195e+01
  -1.410220e+02   2.371024e+00
  -4.081091e+01  -5.265381e+01
   5.830389e+01  -4.610336e+01
   7.727956e+01   1.661527e+01
   2.409126e+01   7.482187e+01
  -4.029531e+01   6.905442e+01
  -6.961406e+01   4.919181e+00
  -6.314722e+01  -4.998258e+01
  -4.920763e+01  -4.280998e+01
  -5.117438e+01  -5.966432e-01
  -6.260694e+01  -5.877407e-01
  -4.795996e+01  -7.309318e+01
   2.246147e+01  -1.529022e+02
   1.256379e+02  -1.449555e+02
   1.833023e+02  -3.336712e+01
   1.314572e+02   9.340920e+01
   7.274998e-01   1.327036e+02
  -9.329543e+01   7.168516e+01
  -6.225398e+01  -7.876028e+00
   5.581155e+01  -2.101912e+01
   1.285597e+02   3.774940e+01
   6.680997e+01   1.015214e+02
  -8.133521e+01   1.045422e+02
  -1.811395e+02   4.042865e+01
  -1.482946e+02  -4.124194e+01
  -2.713758e+01  -8.090197e+01
   6.262078e+01  -5.507505e+01
   4.624839e+01   4.757363e+00
  -3.964187e+01   3.250327e+01
  -9.164926e+01  -1.634250e+01
  -4.405896e+01  -1.107230e+02
   6.866208e+01  -1.542937e+02
   1.477213e+02  -7.577859e+01
   1.248062e+02   8.188281e+01
   2.217744e+01   1.836910e+02
  -7.537602e+01   1.356151e+02
  -9.997803e+01  -1.199061e+01
  -5.171806e+01  -1.163651e+02
   1.663545e+01  -9.694216e+01
   5.207459e+01  -1.174010e+01
   4.106870e+01   3.072502e+01
   1.224413e+01   5.720704e+00
   6.199778e+00  -1.545208e+01
   3.373679e+01   2.375086e+01
   5.793777e+01   8.722552e+01
   2.804762e+01   9.835127e+01
  -5.749968e+01   3.969458e+01
  -1.306603e+02  -3.278851e+01
  -1.163765e+02  -6.397748e+01
  -1.865236e+01  -5.291823e+01
   7.422988e+01  -2.856512e+01
   8.240804e+01  -6.000456e+00
   1.972193e+01   1.342423e+01
  -3.091302e+01   2.114862e+01
  -2.068454e+01   9.748504e+00
   1.141565e+01  -5.694316e+00
  -1.805968e+00  -3.493528e+00
  -6.120467e+01   5.198483e+00
  -9.138673e+01  -1.818937e+01
  -2.888130e+01  -7.944633e+01
   9.655240e+01  -1.195880e+02
   1.827912e+02  -7.227208e+01
   1.554205e+02   4.993982e+01
   3.829903e+01   1.527957e+02
  -7.552712e+01   1.546491e+02
  -1.134351e+02   6.956385e+01
  -7.871579e+01  -1.557180e+01
  -2.706267e+01  -3.761091e+01
  -4.885718e+00  -1.511679e+01
  -1.499986e+01  -1.027263e+01
  -2.868848e+01  -4.843430e+01
  -1.672556e+01  -8.810431e+01
   2.686339e+01  -7.031170e+01
   7.531421e+01   1.076083e+01
   8.188732e+01   9.351074e+01
   2.143376e+01   1.064797e+02
  -6.875694e+01   3.759150e+01
  -1.061976e+02  -5.526522e+01
  -4.552296e+01  -9.922120e+01
   5.974185e+01  -6.848595e+01
   1.041748e+02   3.120658e+00
   4.840532e+01   5.911711e+01
  -3.318849e+01   6.523693e+01
  -4.249269e+01   2.920542e+01
   2.185889e+01  -9.587494e+00
   6.571029e+01  -1.158799e+01
   1.998755e+01   2.724839e+01
  -7.404120e+01   6.529869e+01
  -1.181635e+02   5.156143e+01
  -7.262133e+01  -1.757745e+01
   1.003644e+01  -8.401519e+01
   5.680524e+01  -8.355401e+01
   4.762749e+01  -1.647143e+01
   1.140330e+01   4.918226e+01
  -2.098635e+01   5.013427e+01
  -3.677637e+01  -5.220671e+00
  -3.016457e+01  -5.142652e+01
  -8.786121e-01  -4.204535e+01
   3.288620e+01   2.285364e+00
   4.220044e+01   2.570556e+01
   2.019531e+01   5.964239e+00
  -5.368553e+00  -2.210565e+01
  -5.822199e+00  -1.333941e+01
   9.812003e+00   2.933683e+01
   6.883084e+00   5.588253e+01
  -2.399136e+01   2.900624e+01
  -4.633480e+01  -2.876785e+01
  -2.124773e+01  -5.806324e+01
   3.665903e+01  -2.892154e+01
   6.518677e+01   2.770994e+01
   2.346603e+01   5.704227e+01
  -5.529033e+01   3.753247e+01
  -9.332020e+01  -6.723037e+00
  -5.161874e+01  -4.024943e+01
   2.667300e+01  -4.739495e+01
   6.338623e+01  -3.246356e+01
   3.029134e+01  -8.275552e+00
  -2.372705e+01   7.315518e+00
  -3.139369e+01  -5.621444e-01
   1.782062e+01  -2.308890e+01
   6.940776e+01  -2.427436e+01
