
 $NMID
 id='ANONYMOUS ', fmtdat='(2E16.6)'
 volume=1.0
 tramp=1.0
 $END
   1.911942e+03  -3.335742e+01
   1.408299e+03   7.935318e+02
   3.009688e+02   1.213418e+03
  -5.579514e+02   1.032619e+03
  -6.744906e+02   4.602494e+02
  -2.700513e+02  -1.525499e+01
   8.613249e+01  -5.480555e+01
   7.509233e+01   2.109265e+02
  -1.743474e+02   3.551505e+02
  -3.568711e+02   1.424496e+02
  -3.141004e+02  -2.293263e+02
  -1.063496e+02  -3.801654e+02
   9.669500e+01  -1.669614e+02
   1.392731e+02   1.834138e+02
  -1.417811e+01   3.172519e+02
  -2.159608e+02   9.797260e+01
  -2.334536e+02  -2.699517e+02
   4.048563e+00  -4.416803e+02
   2.863016e+02  -2.707604e+02
   3.376099e+02   5.332410e+01
   1.423383e+02   2.276848e+02
  -3.926804e+01   1.724934e+02
  -2.004440e+00   7.984752e+01
   1.511200e+02   1.276442e+02
   1.543989e+02   2.449576e+02
  -7.607822e+01   2.309400e+02
  -3.316011e+02   3.988356e+01
  -3.478475e+02  -1.577551e+02
  -9.401874e+01  -1.881905e+02
   1.991780e+02  -5.406769e+01
   2.738369e+02   1.159293e+02
   8.678341e+01   2.121575e+02
  -1.714888e+02   1.950849e+02
  -2.802524e+02   7.463034e+01
  -1.986230e+02  -8.311353e+01
  -6.999790e+01  -1.621619e+02
  -3.773812e+01  -9.757810e+01
  -9.507386e+01   2.123513e+01
  -1.278959e+02   2.245568e+01
  -6.431278e+01  -1.361622e+02
   5.691198e+01  -2.837123e+02
   1.445438e+02  -2.277268e+02
   1.381531e+02  -4.657166e+00
   4.526550e+01   1.396705e+02
  -5.658171e+01   4.212969e+01
  -5.725373e+01  -1.696390e+02
   8.799922e+01  -2.218925e+02
   2.742559e+02  -2.056499e+01
   3.103458e+02   2.415351e+02
   1.137015e+02   3.156818e+02
  -1.774587e+02   1.670458e+02
  -3.270328e+02  -3.217957e+01
  -2.322320e+02  -1.266701e+02
  -7.739476e+00  -1.147152e+02
   1.490612e+02  -7.338743e+01
   1.452148e+02  -4.018399e+01
   4.939486e+01  -1.182954e+01
  -3.521146e+00   3.265568e+00
   4.583027e+01   6.844857e-01
   1.197143e+02   2.010936e+01
   8.540322e+01   9.655040e+01
  -8.367613e+01   1.713857e+02
  -2.429264e+02   1.248816e+02
  -2.140885e+02  -6.770910e+01
   7.636682e+00  -2.619178e+02
   2.298788e+02  -2.788361e+02
   2.704173e+02  -9.875396e+01
   1.480184e+02   1.225267e+02
   2.712483e+01   2.265128e+02
   5.669446e+00   2.000124e+02
   2.247375e+01   1.409413e+02
  -2.384516e+01   1.165504e+02
  -1.295491e+02   9.505672e+01
  -1.973715e+02   1.535581e+01
  -1.586896e+02  -1.080994e+02
  -4.061926e+01  -1.774663e+02
   7.553450e+01  -1.135212e+02
   1.222153e+02   4.717838e+01
   7.400342e+01   1.731040e+02
  -4.641262e+01   1.601151e+02
  -1.666130e+02   2.547691e+01
  -1.984902e+02  -1.217530e+02
  -1.137463e+02  -1.895676e+02
   1.708206e+01  -1.714177e+02
   9.348462e+01  -1.209973e+02
   1.003244e+02  -8.479491e+01
   1.213218e+02  -6.320866e+01
   2.131487e+02  -1.993722e+01
   2.959855e+02   7.762472e+01
   2.246083e+02   2.128776e+02
  -2.237486e+01   3.079581e+02
  -2.747262e+02   2.774713e+02
  -3.339456e+02   1.163831e+02
  -1.848322e+02  -7.239950e+01
  -1.518140e+00  -1.616253e+02
   5.202993e+01  -1.182512e+02
  -1.832097e+01  -2.764554e+01
  -8.667825e+01   4.287792e+00
  -6.779901e+01  -3.882185e+01
   1.017061e+01  -8.013566e+01
   6.614061e+01  -4.821680e+01
   5.092245e+01   3.451821e+01
  -2.453109e+01   6.931468e+01
  -1.016253e+02  -1.180539e+01
  -1.037820e+02  -1.595998e+02
   6.806947e+00  -2.384205e+02
   1.730437e+02  -1.556043e+02
   2.661075e+02   3.895774e+01
   2.014397e+02   1.933890e+02
   3.222821e+01   1.998137e+02
  -9.708927e+01   9.290109e+01
  -9.673318e+01  -1.475813e+00
  -1.500228e+01  -3.141600e+00
   2.983038e+01   5.264331e+01
  -1.550885e+01   7.693413e+01
  -8.841789e+01   3.455889e+01
  -9.166942e+01  -2.477886e+01
  -1.111412e+01  -3.257030e+01
   6.029472e+01   2.019590e+01
   2.180620e+01   7.489918e+01
  -1.157354e+02   6.500693e+01
  -2.238914e+02  -2.176075e+01
  -1.825129e+02  -1.325511e+02
  -8.155300e+00  -1.912151e+02
   1.565965e+02  -1.568615e+02
   1.845403e+02  -5.717351e+01
   8.406566e+01   3.033574e+01
  -2.404182e+01   4.260420e+01
  -3.482580e+01  -9.457557e+00
   4.659076e+01  -4.889468e+01
   1.270627e+02  -1.306892e+01
   1.227436e+02   7.401114e+01
   3.423464e+01   1.244188e+02
  -6.024316e+01   8.653513e+01
  -8.055607e+01   6.699361e+00
  -2.211456e+01  -2.395482e+01
   3.744849e+01   2.497557e+01
   1.662410e+01   9.027010e+01
  -7.971942e+01   8.814733e+01
  -1.568131e+02   3.306410e+00
  -1.265174e+02  -1.004469e+02
  -3.388693e+00  -1.443440e+02
   1.067100e+02  -1.010379e+02
   1.145892e+02  -1.011197e+01
   3.442134e+01   5.808709e+01
  -4.125657e+01   5.998883e+01
  -4.349079e+01   1.471741e+01
   6.944476e+00  -1.755816e+01
   3.378565e+01  -2.549247e+00
  -5.285587e+00   2.633860e+01
  -7.111376e+01   7.219989e+00
  -8.397097e+01  -6.890864e+01
  -7.667238e+00  -1.339623e+02
   1.088372e+02  -1.115513e+02
   1.732002e+02  -1.325946e+00
   1.337434e+02   1.167124e+02
   2.490806e+01   1.585155e+02
  -6.797524e+01   1.089087e+02
  -8.826119e+01   2.423512e+01
  -5.380815e+01  -2.546206e+01
  -2.650371e+01  -1.708402e+01
  -4.057439e+01   1.180047e+01
  -6.628388e+01   6.198391e+00
  -4.770993e+01  -4.380148e+01
   2.626087e+01  -8.489645e+01
   9.657475e+01  -5.600435e+01
   8.733214e+01   3.483749e+01
  -1.299801e+01   1.025736e+02
  -1.271467e+02   6.822287e+01
  -1.524025e+02  -5.288776e+01
  -5.463026e+01  -1.581532e+02
   9.737586e+01  -1.561861e+02
   1.912911e+02  -5.213687e+01
   1.681033e+02   6.592231e+01
   6.540872e+01   1.164003e+02
  -2.874356e+01   9.369723e+01
  -5.961233e+01   5.503480e+01
  -4.444263e+01   5.008727e+01
  -3.677226e+01   6.933641e+01
  -6.279921e+01   6.011616e+01
  -9.567526e+01  -1.000763e+01
  -8.694945e+01  -1.086570e+02
  -1.897154e+01  -1.603920e+02
   7.132787e+01  -1.164940e+02
   1.186887e+02  -4.583855e+00
   8.601572e+01   9.255615e+01
   2.661212e+00   1.096466e+02
  -5.728897e+01   5.256963e+01
  -4.624324e+01  -1.670601e+01
   6.261430e+00  -4.357268e+01
   2.634357e+01  -2.678163e+01
  -1.545487e+01  -5.502296e+00
  -6.292362e+01  -9.622188e+00
  -3.867495e+01  -2.912864e+01
   5.639855e+01  -3.074591e+01
   1.316669e+02   2.194686e+00
   1.043226e+02   5.010247e+01
  -7.078574e+00   7.458480e+01
  -1.021046e+02   5.330831e+01
  -1.041237e+02   1.042622e+00
  -3.011590e+01  -4.004499e+01
   4.231900e+01  -3.482772e+01
   5.705334e+01   1.175683e+01
   1.966751e+01   5.493306e+01
  -2.770339e+01   5.131709e+01
  -5.155111e+01   4.710357e+00
  -4.833441e+01  -3.582433e+01
  -3.695132e+01  -3.124601e+01
  -3.680182e+01  -5.820668e-01
  -4.586869e+01  -3.909989e-01
  -3.691936e+01  -5.366286e+01
   1.489391e+01  -1.130043e+02
   9.283954e+01  -1.080327e+02
   1.367111e+02  -2.602987e+01
   9.804832e+01   6.832688e+01
   7.353940e-01   9.868969e+01
  -6.876589e+01   5.434426e+01
  -4.582553e+01  -4.912259e+00
   4.077697e+01  -1.561036e+01
   9.392488e+01   2.735657e+01
   4.855354e+01   7.458008e+01
  -6.007482e+01   7.671453e+01
  -1.331461e+02   2.895231e+01
  -1.085992e+02  -3.123565e+01
  -1.913662e+01  -5.954000e+01
   4.682872e+01  -3.959119e+01
   3.441567e+01   4.524520e+00
  -2.897368e+01   2.460966e+01
  -6.747323e+01  -1.120623e+01
  -3.342739e+01  -8.037663e+01
   4.824883e+01  -1.130253e+02
   1.064694e+02  -5.662090e+01
   9.132839e+01   5.851871e+01
   1.731568e+01   1.337264e+02
  -5.469757e+01   9.908322e+01
  -7.361464e+01  -9.195755e+00
  -3.766577e+01  -8.592958e+01
   1.366255e+01  -7.138650e+01
   3.927457e+01  -8.367063e+00
   2.942841e+01   2.297640e+01
   7.753196e+00   4.535404e+00
   4.943293e+00  -1.107702e+01
   2.645753e+01   1.758060e+01
   4.313469e+01   6.394967e+01
   1.930809e+01   7.212441e+01
  -4.343910e+01   2.944849e+01
  -9.552779e+01  -2.354333e+01
  -8.456621e+01  -4.682260e+01
  -1.415338e+01  -3.919967e+01
   5.320981e+01  -2.124374e+01
   6.032604e+01  -4.277829e+00
   1.561172e+01   9.969435e+00
  -2.213289e+01   1.525773e+01
  -1.615479e+01   6.820178e+00
   7.367540e+00  -4.157929e+00
  -7.637198e-01  -2.264246e+00
  -4.361111e+01   4.237628e+00
  -6.720554e+01  -1.264261e+01
  -2.327023e+01  -5.754337e+01
   6.871464e+01  -8.802322e+01
   1.337525e+02  -5.496733e+01
   1.152178e+02   3.423525e+01
   2.942047e+01   1.112463e+02
  -5.469765e+01   1.145785e+02
  -8.289747e+01   5.259638e+01
  -5.769107e+01  -1.079982e+01
  -2.036809e+01  -2.774849e+01
  -4.606118e+00  -1.133811e+01
  -1.177994e+01  -7.849912e+00
  -2.106481e+01  -3.606181e+01
  -1.203173e+01  -6.503594e+01
   1.944155e+01  -5.173971e+01
   5.475483e+01   7.279619e+00
   6.047930e+01   6.723120e+01
   1.737861e+01   7.723582e+01
  -4.883014e+01   2.854207e+01
  -7.791165e+01  -3.855126e+01
  -3.487542e+01  -7.208487e+01
   4.270343e+01  -5.152444e+01
   7.701358e+01   9.282759e-01
   3.706761e+01   4.376859e+01
  -2.370999e+01   4.940389e+01
  -3.215838e+01   2.226510e+01
   1.465495e+01  -7.391558e+00
   4.791342e+01  -9.028719e+00
   1.536381e+01   1.999580e+01
  -5.398972e+01   4.813434e+01
  -8.752602e+01   3.794688e+01
  -5.463029e+01  -1.281738e+01
   6.585323e+00  -6.184558e+01
   4.176532e+01  -6.235278e+01
   3.551188e+01  -1.369989e+01
   9.132581e+00   3.523852e+01
  -1.458761e+01   3.746843e+01
  -2.660820e+01  -2.594185e+00
  -2.262448e+01  -3.745744e+01
  -1.509120e+00  -3.163770e+01
   2.397562e+01   1.050634e+00
   3.163909e+01   1.910545e+01
   1.509759e+01   4.763055e+00
  -4.779887e+00  -1.676406e+01
  -4.968162e+00  -1.125206e+01
   8.416172e+00   2.027914e+01
   7.744714e+00   4.112985e+01
  -1.596896e+01   2.293196e+01
  -3.493893e+01  -1.898311e+01
  -1.772891e+01  -4.149999e+01
   2.590246e+01  -2.182589e+01
   4.841993e+01   1.885447e+01
   1.800795e+01   4.109256e+01
  -4.053838e+01   2.820016e+01
  -6.886884e+01  -3.696749e+00
  -3.827012e+01  -2.907700e+01
   1.903970e+01  -3.552906e+01
   4.604308e+01  -2.505210e+01
   2.268276e+01  -6.768043e+00
  -1.591435e+01   5.700296e+00
  -2.196338e+01   7.070450e-01
   1.232509e+01  -1.584043e+01
   4.906645e+01  -1.758734e+01
