
 $NMID
 id='ANONYMOUS ', fmtdat='(2E16.6)'
 volume=1.0
 tramp=1.0
 $END
  -3.898510e+03  -9.901548e+00
  -2.439961e+03  -2.124707e+03
   2.696682e+02  -2.454746e+03
   1.647676e+03  -1.196639e+03
   1.002272e+03   9.964979e+01
  -2.295570e+02   3.453907e+02
  -5.886786e+02  -2.418256e+02
  -2.931318e+01  -7.860491e+02
   6.268075e+02  -6.968663e+02
   8.018869e+02  -2.471493e+01
   4.690423e+02   6.791410e+02
  -8.643237e+01   7.858802e+02
  -4.506342e+02   1.705025e+02
  -3.158055e+02  -5.631691e+02
   1.816724e+02  -6.609385e+02
   5.107023e+02  -5.323338e+01
   3.125198e+02   5.945177e+02
  -2.036477e+02   6.724746e+02
  -5.415855e+02   2.293699e+02
  -4.537180e+02  -2.504786e+02
  -1.005387e+02  -4.140861e+02
   1.744688e+02  -2.707207e+02
   1.292398e+02  -5.986976e+01
  -1.725319e+02  -3.215582e+01
  -3.507135e+02  -2.351867e+02
  -6.640562e+01  -4.186144e+02
   5.045262e+02  -2.735818e+02
   7.462713e+02   1.588199e+02
   3.171679e+02   4.632039e+02
  -3.770872e+02   3.258357e+02
  -6.346921e+02  -1.063024e+02
  -2.634442e+02  -4.373227e+02
   2.902332e+02  -4.416269e+02
   5.313994e+02  -1.671177e+02
   3.819984e+02   1.970016e+02
   8.434662e+01   3.957423e+02
  -9.874251e+01   2.337401e+02
  -3.815155e+01  -1.499168e+02
   1.914132e+02  -2.794888e+02
   3.150614e+02   1.073744e+02
   1.045271e+02   6.063339e+02
  -2.967983e+02   5.748454e+02
  -4.590815e+02  -1.357413e+00
  -1.817310e+02  -4.326263e+02
   2.187278e+02  -2.188492e+02
   2.698811e+02   3.136666e+02
  -1.040402e+02   4.794342e+02
  -5.200491e+02   9.242029e+01
  -5.637839e+02  -4.109243e+02
  -1.718816e+02  -5.651984e+02
   3.521752e+02  -3.178381e+02
   5.978922e+02   7.074660e+01
   3.774173e+02   3.194975e+02
  -9.200657e+01   2.957230e+02
  -3.681622e+02   7.832405e+01
  -2.400624e+02  -9.457372e+01
   4.133117e+01  -5.563483e+01
   8.828476e+01   9.355333e+01
  -1.330193e+02   1.124479e+02
  -2.902499e+02  -6.134418e+01
  -1.399672e+02  -2.473696e+02
   1.811843e+02  -2.690123e+02
   3.610111e+02  -1.245762e+02
   2.592085e+02   9.678891e+01
  -2.068306e+01   3.068922e+02
  -2.851692e+02   3.801077e+02
  -3.834955e+02   1.970178e+02
  -2.745326e+02  -1.644909e+02
  -6.421095e+01  -4.148497e+02
   6.860328e+01  -3.646807e+02
   5.935199e+01  -1.598270e+02
   2.968386e+01  -6.910594e+01
   1.103784e+02  -1.159092e+02
   2.485456e+02  -8.978585e+01
   2.746194e+02   1.031507e+02
   1.237265e+02   2.820468e+02
  -9.395651e+01   2.316345e+02
  -2.197240e+02  -2.467942e+01
  -1.691338e+02  -2.611028e+02
   3.736781e+01  -2.852808e+02
   2.723156e+02  -8.753550e+01
   3.499672e+02   1.828226e+02
   1.872650e+02   3.389880e+02
  -7.297141e+01   2.989533e+02
  -1.999385e+02   1.519372e+02
  -1.569930e+02   5.790639e+01
  -1.391978e+02   6.250460e+01
  -2.814137e+02   5.243550e+01
  -4.370491e+02  -8.593848e+01
  -3.482765e+02  -3.128979e+02
   1.670574e+01  -4.704570e+02
   3.989556e+02  -4.318624e+02
   5.156740e+02  -1.972330e+02
   3.256726e+02   1.051527e+02
   3.347882e+01   2.856259e+02
  -1.147292e+02   2.312970e+02
  -3.856525e+01   3.519231e+01
   1.246188e+02  -6.900962e+01
   1.652463e+02   2.987058e+01
   2.353813e+01   1.733298e+02
  -1.434770e+02   1.364735e+02
  -1.433545e+02  -6.086168e+01
   2.762090e+01  -1.640070e+02
   1.859583e+02  -1.190503e+01
   1.669114e+02   2.559326e+02
  -2.480736e+01   3.681525e+02
  -2.534627e+02   2.178994e+02
  -3.711243e+02  -6.425739e+01
  -2.995045e+02  -2.713931e+02
  -7.844919e+01  -2.909287e+02
   1.327382e+02  -1.583196e+02
   1.719513e+02  -1.127060e+01
   4.575365e+01   2.242434e+01
  -6.242891e+01  -5.793976e+01
  -7.955326e+00  -1.271137e+02
   1.339129e+02  -8.366769e+01
   1.694099e+02   2.445219e+01
   4.288294e+01   6.632032e+01
  -8.841428e+01  -2.731773e+00
  -4.817969e+01  -9.323807e+01
   1.500476e+02  -9.495236e+01
   3.166917e+02   1.452613e+01
   2.787434e+02   1.713145e+02
   4.196053e+01   2.796740e+02
  -2.144158e+02   2.612285e+02
  -2.937738e+02   1.140580e+02
  -1.590227e+02  -5.203033e+01
   3.105777e+01  -9.538161e+01
   7.899933e+01   1.254035e+00
  -5.022701e+01   9.439791e+01
  -2.026714e+02   4.486539e+01
  -2.104455e+02  -1.112645e+02
  -6.429889e+01  -2.085584e+02
   9.747719e+01  -1.530416e+02
   1.409851e+02  -2.187863e+01
   5.791240e+01   4.156392e+01
  -4.123417e+01  -1.360777e+01
  -3.403695e+01  -1.086106e+02
   9.458465e+01  -1.258705e+02
   2.219201e+02  -2.008644e+01
   1.989013e+02   1.401697e+02
   1.513700e+01   2.269265e+02
  -1.702842e+02   1.657809e+02
  -1.934294e+02   9.805734e+00
  -6.213544e+01  -1.085231e+02
   6.810137e+01  -1.074801e+02
   7.969592e+01  -2.814984e+01
   7.230257e+00   2.762179e+01
  -3.481457e+01   1.348460e+01
   9.057071e+00  -2.147502e+01
   8.840791e+01   5.848492e-01
   1.075598e+02   9.383257e+01
   1.438305e+01   1.823575e+02
  -1.466672e+02   1.648817e+02
  -2.541677e+02   1.693599e+01
  -2.096583e+02  -1.667572e+02
  -4.153333e+01  -2.475026e+02
   1.109832e+02  -1.741985e+02
   1.402624e+02  -3.197360e+01
   7.759145e+01   5.077400e+01
   3.429726e+01   3.306861e+01
   5.866369e+01  -1.494926e+01
   9.119193e+01  -7.930442e+00
   5.604986e+01   5.814202e+01
  -4.247548e+01   1.077584e+02
  -1.239815e+02   6.975636e+01
  -1.080089e+02  -4.346223e+01
   1.612860e+01  -1.328886e+02
   1.675629e+02  -9.654550e+01
   2.183055e+02   6.454384e+01
   9.702091e+01   2.245941e+02
  -1.271949e+02   2.405176e+02
  -2.863942e+02   9.263713e+01
  -2.659949e+02  -9.513153e+01
  -1.092295e+02  -1.834552e+02
   4.244659e+01  -1.506095e+02
   9.651164e+01  -8.680191e+01
   7.740022e+01  -7.443511e+01
   6.466688e+01  -9.982065e+01
   9.680121e+01  -8.365824e+01
   1.396083e+02   2.004465e+01
   1.274784e+02   1.639996e+02
   3.011215e+01   2.412662e+02
  -1.063684e+02   1.801721e+02
  -1.838502e+02   1.545807e+01
  -1.388437e+02  -1.341211e+02
  -1.341649e+01  -1.683384e+02
   7.815992e+01  -9.052453e+01
   6.674131e+01   1.013368e+01
  -7.575214e-01   5.408963e+01
  -2.313042e+01   3.860156e+01
   3.195688e+01   1.498955e+01
   8.854884e+01   2.012723e+01
   5.202979e+01   4.194774e+01
  -7.495537e+01   4.230934e+01
  -1.807435e+02   5.670203e-01
  -1.545098e+02  -6.346250e+01
  -5.084083e+00  -1.021380e+02
   1.390539e+02  -7.954725e+01
   1.556006e+02  -8.810046e+00
   4.911288e+01   5.073219e+01
  -6.377409e+01   4.508841e+01
  -8.285851e+01  -1.917767e+01
  -1.728545e+01  -7.669889e+01
   5.174384e+01  -6.791872e+01
   7.156325e+01  -1.762247e+00
   5.778178e+01   5.329157e+01
   5.014793e+01   4.554259e+01
   6.104667e+01   2.006682e+00
   6.978966e+01   7.645838e-01
   4.510165e+01   7.548136e+01
  -2.963413e+01   1.610354e+02
  -1.304646e+02   1.553438e+02
  -1.876688e+02   3.708452e+01
  -1.379120e+02  -9.928859e+01
  -4.524885e+00  -1.402379e+02
   9.636550e+01  -7.234466e+01
   6.579642e+01   1.232704e+01
  -6.220591e+01   2.214794e+01
  -1.440015e+02  -4.428679e+01
  -7.734321e+01  -1.134872e+02
   8.787343e+01  -1.177459e+02
   2.021071e+02  -5.008730e+01
   1.690526e+02   4.089369e+01
   3.497350e+01   9.127253e+01
  -6.745096e+01   6.832440e+01
  -5.220819e+01   1.592601e+00
   4.210465e+01  -3.215713e+01
   9.835854e+01   2.093950e+01
   4.131952e+01   1.237441e+02
  -8.678030e+01   1.661167e+02
  -1.702216e+02   7.388382e+01
  -1.354796e+02  -9.895653e+01
  -1.705073e+01  -2.060546e+02
   8.745580e+01  -1.512886e+02
   1.111014e+02   1.005982e+01
   6.113389e+01   1.271902e+02
  -9.947167e+00   1.110297e+02
  -5.324975e+01   1.782849e+01
  -5.064601e+01  -3.396669e+01
  -2.082955e+01  -8.418353e+00
  -5.651568e+00   1.972362e+01
  -2.956561e+01  -2.018972e+01
  -6.152711e+01  -9.497230e+01
  -3.787155e+01  -1.132872e+02
   5.645993e+01  -4.663800e+01
   1.454679e+02   3.943916e+01
   1.333710e+02   7.368155e+01
   1.979541e+01   5.541024e+01
  -8.774124e+01   2.679247e+01
  -9.262949e+01   7.255885e+00
  -1.664816e+01  -1.069367e+01
   3.779746e+01  -2.324821e+01
   1.908146e+01  -1.562053e+01
  -1.776028e+01   3.362290e+00
   3.903387e+00   7.105306e+00
   7.315809e+01   5.826275e-02
   9.870230e+01   2.281929e+01
   1.976760e+01   8.545392e+01
  -1.164990e+02   1.253778e+02
  -1.986133e+02   7.036212e+01
  -1.595989e+02  -6.312496e+01
  -3.402328e+01  -1.698480e+02
   8.335289e+01  -1.644550e+02
   1.225742e+02  -6.904254e+01
   8.593645e+01   2.025524e+01
   2.816910e+01   3.932220e+01
   1.160654e+00   1.238282e+01
   1.381684e+01   7.386044e+00
   3.365799e+01   5.101915e+01
   2.141968e+01   9.661495e+01
  -3.039525e+01   7.668123e+01
  -8.436432e+01  -1.623949e+01
  -8.519363e+01  -1.091943e+02
  -1.331352e+01  -1.175659e+02
   8.134500e+01  -3.229521e+01
   1.121358e+02   7.091893e+01
   4.147940e+01   1.090620e+02
  -6.776840e+01   6.652356e+01
  -1.086807e+02  -7.985523e+00
  -4.753702e+01  -5.869984e+01
   3.501509e+01  -6.298494e+01
   3.959405e+01  -3.151292e+01
  -3.005420e+01   4.693363e+00
  -7.283660e+01   9.633006e+00
  -1.886068e+01  -2.800875e+01
   8.295810e+01  -7.076333e+01
   1.265800e+02  -5.984639e+01
   7.381260e+01   1.541856e+01
  -1.401968e+01   8.999510e+01
  -5.905772e+01   8.815595e+01
  -4.502214e+01   1.221704e+01
  -6.457136e+00  -5.646731e+01
   2.501730e+01  -4.988823e+01
   3.894412e+01   1.296657e+01
   3.045559e+01   5.685921e+01
  -7.042312e-01   4.010688e+01
  -3.538726e+01  -5.987910e+00
  -4.440020e+01  -2.505135e+01
  -2.227035e+01  -3.732004e+00
   3.554955e+00   1.921625e+01
   7.586919e+00   5.322317e+00
  -1.106860e+00  -3.501526e+01
   5.154388e+00  -5.309266e+01
   2.958411e+01  -1.904917e+01
   4.034604e+01   3.944980e+01
   9.788809e+00   6.331268e+01
  -4.369978e+01   2.620946e+01
  -6.504966e+01  -3.603489e+01
  -2.004561e+01  -6.463358e+01
   5.936362e+01  -3.857515e+01
   9.792495e+01   1.197274e+01
   5.416703e+01   4.552963e+01
  -2.973401e+01   4.738420e+01
  -6.879314e+01   2.877913e+01
  -2.918349e+01   7.277698e+00
   3.277242e+01  -1.954206e+00
   3.677697e+01   9.383575e+00
  -2.684869e+01   2.892037e+01
  -8.700015e+01   2.266749e+01
