
 $NMID
 id='ANONYMOUS ', fmtdat='(2E16.6)'
 volume=1.0
 tramp=1.0
 $END
   2.140709e+03  -5.269619e+01
   1.372362e+03   1.138915e+03
  -1.199275e+02   1.360542e+03
  -9.009642e+02   6.780239e+02
  -5.588829e+02  -5.384324e+01
   1.252244e+02  -2.044298e+02
   3.346148e+02   1.229850e+02
   3.050010e+01   4.358455e+02
  -3.364923e+02   3.945526e+02
  -4.433023e+02   2.381888e+01
  -2.682311e+02  -3.695883e+02
   3.847351e+01  -4.359608e+02
   2.490834e+02  -1.013804e+02
   1.841620e+02   3.058774e+02
  -9.109940e+01   3.672645e+02
  -2.817516e+02   3.621876e+01
  -1.793499e+02  -3.237544e+02
   1.059746e+02  -3.719660e+02
   2.967839e+02  -1.304126e+02
   2.519739e+02   1.345184e+02
   5.901706e+01   2.272638e+02
  -9.346634e+01   1.514159e+02
  -7.236673e+01   3.511173e+01
   9.141574e+01   1.420403e+01
   1.936065e+02   1.207714e+02
   4.442710e+01   2.258914e+02
  -2.690349e+02   1.578810e+02
  -4.106431e+02  -7.387902e+01
  -1.831713e+02  -2.489056e+02
   1.994731e+02  -1.863770e+02
   3.493470e+02   4.665050e+01
   1.521139e+02   2.351797e+02
  -1.515678e+02   2.465845e+02
  -2.885813e+02   9.947880e+01
  -2.127024e+02  -1.028720e+02
  -5.238132e+01  -2.171991e+02
   5.204674e+01  -1.319887e+02
   2.664579e+01   8.031364e+01
  -9.767091e+01   1.578872e+02
  -1.745777e+02  -5.052926e+01
  -6.902535e+01  -3.291555e+02
   1.530656e+02  -3.211172e+02
   2.538745e+02  -7.961138e+00
   1.087379e+02   2.352318e+02
  -1.163669e+02   1.258414e+02
  -1.540514e+02  -1.661389e+02
   4.882211e+01  -2.641851e+02
   2.831127e+02  -5.867239e+01
   3.140961e+02   2.169385e+02
   1.014509e+02   3.074699e+02
  -1.886368e+02   1.794407e+02
  -3.285952e+02  -3.057649e+01
  -2.116669e+02  -1.712837e+02
   4.645016e+01  -1.654576e+02
   2.022807e+02  -4.852096e+01
   1.344994e+02   5.063248e+01
  -2.241581e+01   3.345859e+01
  -5.173852e+01  -5.015388e+01
   7.049920e+01  -6.528142e+01
   1.609086e+02   2.899786e+01
   8.075410e+01   1.345212e+02
  -9.633672e+01   1.496978e+02
  -1.963001e+02   7.111189e+01
  -1.415276e+02  -5.067242e+01
   9.170287e+00  -1.665435e+02
   1.509397e+02  -2.091138e+02
   2.058810e+02  -1.121094e+02
   1.519901e+02   8.557241e+01
   4.110233e+01   2.261612e+02
  -3.339880e+01   2.016136e+02
  -3.255919e+01   8.846143e+01
  -1.684331e+01   3.649787e+01
  -5.812304e+01   6.288161e+01
  -1.329073e+02   5.198918e+01
  -1.505571e+02  -5.181520e+01
  -7.173309e+01  -1.517063e+02
   4.746864e+01  -1.279204e+02
   1.199198e+02   9.824723e+00
   9.598546e+01   1.396446e+02
  -1.606437e+01   1.561270e+02
  -1.470919e+02   5.180056e+01
  -1.936070e+02  -9.498336e+01
  -1.069560e+02  -1.832262e+02
   3.644921e+01  -1.650857e+02
   1.085385e+02  -8.556742e+01
   8.603518e+01  -3.250515e+01
   7.508011e+01  -3.460298e+01
   1.520128e+02  -3.152779e+01
   2.387524e+02   4.160539e+01
   1.935070e+02   1.664282e+02
  -3.439067e+00   2.565918e+02
  -2.122558e+02   2.400192e+02
  -2.788297e+02   1.138967e+02
  -1.793776e+02  -5.291180e+01
  -2.252882e+01  -1.555033e+02
   5.966530e+01  -1.286767e+02
   2.161593e+01  -2.049092e+01
  -6.619818e+01   3.980854e+01
  -9.089580e+01  -1.312085e+01
  -1.608454e+01  -9.440841e+01
   7.636854e+01  -7.754420e+01
   7.989423e+01   3.072519e+01
  -1.221862e+01   9.042307e+01
  -1.012925e+02   9.477579e+00
  -9.429702e+01  -1.377296e+02
   9.410720e+00  -2.013787e+02
   1.358844e+02  -1.213838e+02
   2.027965e+02   3.132427e+01
   1.660770e+02   1.443834e+02
   4.634742e+01   1.571979e+02
  -7.014159e+01   8.790050e+01
  -9.380362e+01   8.658812e+00
  -2.577183e+01  -1.161561e+01
   3.463328e+01   3.034818e+01
   6.366532e+00   6.893191e+01
  -7.163328e+01   4.758598e+01
  -9.290129e+01  -1.078647e+01
  -2.473938e+01  -3.553763e+01
   4.781725e+01   1.457038e-01
   2.726016e+01   4.981447e+01
  -8.046182e+01   5.309843e+01
  -1.723294e+02  -4.370140e+00
  -1.536013e+02  -8.981819e+01
  -2.634220e+01  -1.515012e+02
   1.133121e+02  -1.449233e+02
   1.587216e+02  -6.614237e+01
   8.783988e+01   2.618771e+01
  -1.533602e+01   5.271508e+01
  -4.326726e+01   7.696461e-01
   2.575111e+01  -5.204342e+01
   1.098052e+02  -2.727165e+01
   1.163697e+02   5.791520e+01
   3.790981e+01   1.131062e+02
  -5.118381e+01   8.496959e+01
  -7.673155e+01   1.397420e+01
  -3.246452e+01  -2.172944e+01
   2.209235e+01   6.845569e+00
   1.952540e+01   5.834423e+01
  -4.990457e+01   6.925826e+01
  -1.203833e+02   1.347543e+01
  -1.100139e+02  -7.390906e+01
  -1.110564e+01  -1.235633e+02
   9.091166e+01  -9.266179e+01
   1.057311e+02  -7.771244e+00
   3.555823e+01   5.861145e+01
  -3.575144e+01   5.970307e+01
  -4.324668e+01   1.654092e+01
  -4.512358e+00  -1.474331e+01
   1.847726e+01  -7.649118e+00
  -4.970566e+00   1.158422e+01
  -4.813037e+01   2.632833e-01
  -5.932462e+01  -5.008433e+01
  -9.676234e+00  -9.897971e+01
   7.792069e+01  -9.129293e+01
   1.381093e+02  -1.223005e+01
   1.162105e+02   8.831584e+01
   2.564214e+01   1.345600e+02
  -5.851346e+01   9.651810e+01
  -7.629017e+01   1.907432e+01
  -4.302176e+01  -2.702401e+01
  -1.910859e+01  -1.782317e+01
  -3.182883e+01   8.745900e+00
  -4.954345e+01   5.218378e+00
  -3.090121e+01  -3.119067e+01
   2.226617e+01  -5.901765e+01
   6.673789e+01  -3.894496e+01
   5.894836e+01   2.268944e+01
  -7.548170e+00   7.231106e+01
  -9.004642e+01   5.412714e+01
  -1.194148e+02  -3.267391e+01
  -5.546522e+01  -1.209813e+02
   6.629184e+01  -1.324002e+02
   1.549022e+02  -5.393888e+01
   1.462504e+02   4.861571e+01
   6.191274e+01   9.875917e+01
  -2.128847e+01   8.273072e+01
  -5.167922e+01   4.858205e+01
  -4.151852e+01   4.160804e+01
  -3.432183e+01   5.524133e+01
  -5.196673e+01   4.666069e+01
  -7.637155e+01  -9.475783e+00
  -7.134016e+01  -8.804020e+01
  -1.917958e+01  -1.312021e+02
   5.587665e+01  -9.951123e+01
   1.000301e+02  -1.070763e+01
   7.729013e+01   7.135836e+01
   9.402398e+00   9.155641e+01
  -4.132217e+01   5.029104e+01
  -3.625688e+01  -4.606614e+00
  -1.533376e-01  -2.922557e+01
   1.197670e+01  -2.105309e+01
  -1.781067e+01  -7.777156e+00
  -4.851420e+01  -1.013487e+01
  -2.873885e+01  -2.234735e+01
   4.031735e+01  -2.372752e+01
   9.826658e+01  -2.163957e+00
   8.477343e+01   3.272778e+01
   3.999659e+00   5.527828e+01
  -7.473860e+01   4.473908e+01
  -8.463385e+01   6.652989e+00
  -2.727285e+01  -2.692473e+01
   3.437176e+01  -2.521415e+01
   4.538311e+01   9.580373e+00
   1.004508e+01   4.172535e+01
  -2.771521e+01   3.764356e+01
  -3.900020e+01   1.615283e+00
  -3.190389e+01  -2.861119e+01
  -2.776891e+01  -2.432437e+01
  -3.340560e+01  -3.352432e-01
  -3.807937e+01   3.839559e-01
  -2.523504e+01  -4.072837e+01
   1.455877e+01  -8.813434e+01
   6.936044e+01  -8.596337e+01
   1.017050e+02  -2.206640e+01
   7.615288e+01   5.266904e+01
   3.987111e+00   7.626267e+01
  -5.176812e+01   4.031570e+01
  -3.604823e+01  -6.087237e+00
   3.370145e+01  -1.277793e+01
   7.911064e+01   2.251971e+01
   4.354114e+01   6.096460e+01
  -4.651537e+01   6.520189e+01
  -1.095749e+02   2.972123e+01
  -9.264073e+01  -2.021775e+01
  -2.021543e+01  -4.930990e+01
   3.584061e+01  -3.809937e+01
   2.833735e+01  -1.580636e+00
  -2.264525e+01   1.792669e+01
  -5.389034e+01  -1.040273e+01
  -2.385600e+01  -6.717782e+01
   4.568561e+01  -9.172198e+01
   9.228420e+01  -4.221354e+01
   7.513327e+01   5.260025e+01
   1.158493e+01   1.123667e+02
  -4.601215e+01   8.359714e+01
  -6.065043e+01  -4.168864e+00
  -3.481135e+01  -6.857308e+01
   3.968899e+00  -6.055632e+01
   2.868172e+01  -1.031359e+01
   2.808116e+01   1.784835e+01
   1.160095e+01   4.244349e+00
   2.790062e+00  -1.083550e+01
   1.612372e+01   1.073661e+01
   3.456651e+01   5.112346e+01
   2.212551e+01   6.128578e+01
  -3.010575e+01   2.597730e+01
  -7.985524e+01  -1.988513e+01
  -7.369539e+01  -3.862186e+01
  -1.135231e+01  -2.996491e+01
   4.772085e+01  -1.564673e+01
   5.044374e+01  -5.045966e+00
   9.045783e+00   5.682473e+00
  -2.040437e+01   1.317517e+01
  -1.008076e+01   8.732195e+00
   9.778530e+00  -2.091780e+00
  -2.299494e+00  -3.840801e+00
  -4.008935e+01   8.198844e-01
  -5.410518e+01  -1.140941e+01
  -1.152758e+01  -4.657881e+01
   6.238446e+01  -6.978599e+01
   1.076506e+02  -4.041982e+01
   8.772972e+01   3.296595e+01
   2.037849e+01   9.241554e+01
  -4.371546e+01   9.053458e+01
  -6.617417e+01   3.887434e+01
  -4.713853e+01  -1.013667e+01
  -1.573922e+01  -2.112617e+01
  -6.284758e-01  -6.759026e+00
  -7.502192e+00  -3.867211e+00
  -1.891352e+01  -2.736779e+01
  -1.280425e+01  -5.237863e+01
   1.573693e+01  -4.216145e+01
   4.629244e+01   7.941122e+00
   4.773411e+01   5.877060e+01
   8.440698e+00   6.416231e+01
  -4.425159e+01   1.850367e+01
  -6.207136e+01  -3.764812e+01
  -2.371762e+01  -5.916869e+01
   3.640566e+01  -3.694771e+01
   5.935376e+01   3.313250e+00
   2.637532e+01   3.149211e+01
  -1.853339e+01   3.458166e+01
  -2.114350e+01   1.748109e+01
   1.653618e+01  -2.928519e+00
   3.967666e+01  -6.037140e+00
   1.051575e+01   1.509264e+01
  -4.448260e+01   3.953260e+01
  -6.823880e+01   3.403602e+01
  -4.025779e+01  -7.638273e+00
   6.723100e+00  -4.925292e+01
   3.123483e+01  -4.861283e+01
   2.441966e+01  -6.939210e+00
   4.113220e+00   3.087049e+01
  -1.321066e+01   2.744541e+01
  -2.149945e+01  -6.766938e+00
  -1.721218e+01  -3.071896e+01
   7.648418e-02  -2.182051e+01
   1.941928e+01   2.933027e+00
   2.440039e+01   1.315309e+01
   1.213154e+01   1.742359e+00
  -2.021420e+00  -1.040969e+01
  -4.032718e+00  -2.657878e+00
   9.095593e-01   1.930853e+01
  -2.561251e+00   2.913334e+01
  -1.621331e+01   1.059468e+01
  -2.244037e+01  -2.137718e+01
  -5.841115e+00  -3.466854e+01
   2.369180e+01  -1.476682e+01
   3.588647e+01   1.912765e+01
   1.160994e+01   3.515745e+01
  -3.196758e+01   2.163416e+01
  -5.355135e+01  -5.585738e+00
  -3.003457e+01  -2.428640e+01
   1.577850e+01  -2.611062e+01
   3.730894e+01  -1.634735e+01
   1.580662e+01  -4.189750e+00
  -1.806349e+01   1.474839e+00
  -2.036197e+01  -4.787191e+00
   1.435205e+01  -1.626342e+01
   4.741798e+01  -1.348627e+01
