
 $NMID
 id='ANONYMOUS ', fmtdat='(2E16.6)'
 volume=1.0
 tramp=1.0
 $END
  -4.320689e+03  -1.081009e+02
  -2.501571e+03  -2.609648e+03
   7.001844e+02  -2.724161e+03
   2.070733e+03  -9.376513e+02
   9.766507e+02   5.572465e+02
  -5.719701e+02   5.217549e+02
  -8.231917e+02  -4.139597e+02
   2.434554e+01  -1.018773e+03
   8.172084e+02  -7.556416e+02
   9.241750e+02   9.290891e+01
   4.424920e+02   8.497725e+02
  -2.322912e+02   8.794223e+02
  -6.086445e+02   1.169604e+02
  -3.570278e+02  -7.057237e+02
   2.743345e+02  -7.378829e+02
   5.981845e+02   7.938479e+00
   2.705208e+02   6.850174e+02
  -3.208655e+02   6.524513e+02
  -5.928712e+02   1.127725e+02
  -4.055997e+02  -3.473546e+02
  -2.621160e+01  -4.436574e+02
   2.378470e+02  -2.658245e+02
   1.971459e+02  -2.461798e+01
  -1.310196e+02   5.181977e+01
  -3.942047e+02  -1.581067e+02
  -1.558027e+02  -4.393923e+02
   4.899956e+02  -3.696996e+02
   8.361340e+02   1.214346e+02
   3.962657e+02   5.485106e+02
  -4.073128e+02   4.419588e+02
  -7.300384e+02  -7.397380e+01
  -3.198735e+02  -4.892263e+02
   3.039213e+02  -5.011600e+02
   5.749705e+02  -1.815692e+02
   4.110880e+02   2.363302e+02
   6.427371e+01   4.675092e+02
  -1.842320e+02   2.748379e+02
  -1.363075e+02  -2.057456e+02
   1.840430e+02  -4.003311e+02
   4.189496e+02   5.137649e+01
   1.960297e+02   6.806717e+02
  -3.372136e+02   6.769803e+02
  -5.810877e+02  -1.023907e+01
  -2.333489e+02  -5.408953e+02
   2.855780e+02  -2.949387e+02
   3.555252e+02   3.360002e+02
  -9.208420e+01   5.390011e+02
  -5.608205e+02   1.134948e+02
  -5.880790e+02  -4.328274e+02
  -1.550324e+02  -5.982672e+02
   3.920206e+02  -3.367809e+02
   6.332641e+02   9.181865e+01
   3.748168e+02   3.870905e+02
  -1.496295e+02   3.533442e+02
  -4.367445e+02   5.277797e+01
  -2.449338e+02  -1.817863e+02
   1.030715e+02  -9.615028e+01
   1.312000e+02   1.444095e+02
  -1.632120e+02   1.694890e+02
  -3.397428e+02  -8.024008e+01
  -1.379709e+02  -2.976469e+02
   2.110960e+02  -2.624427e+02
   3.498352e+02  -7.642079e+01
   2.125411e+02   9.815701e+01
  -3.448238e+01   2.472298e+02
  -2.511481e+02   3.360843e+02
  -3.598859e+02   2.068792e+02
  -2.886672e+02  -1.526059e+02
  -6.691380e+01  -4.413874e+02
   1.156067e+02  -3.868501e+02
   1.137220e+02  -1.261291e+02
   2.955042e+01  -7.045249e+00
   6.308021e+01  -9.189420e+01
   2.130703e+02  -1.161933e+02
   2.803540e+02   7.205441e+01
   1.474917e+02   2.812750e+02
  -8.351391e+01   2.539834e+02
  -2.296564e+02  -2.456363e+00
  -1.886893e+02  -2.543556e+02
   2.364293e+01  -2.975741e+02
   2.750389e+02  -1.056284e+02
   3.611234e+02   1.828170e+02
   1.826909e+02   3.602072e+02
  -1.023663e+02   3.101281e+02
  -2.296773e+02   1.265523e+02
  -1.577277e+02   1.377027e+01
  -1.124695e+02   3.781037e+01
  -2.500358e+02   5.525143e+01
  -4.135891e+02  -7.625417e+01
  -3.336204e+02  -3.052514e+02
   1.762600e+01  -4.562583e+02
   3.861463e+02  -4.141617e+02
   5.080957e+02  -1.903949e+02
   3.373953e+02   1.056418e+02
   4.384114e+01   2.985442e+02
  -1.347007e+02   2.505061e+02
  -7.465234e+01   3.116658e+01
   1.168458e+02  -9.792572e+01
   1.926434e+02   1.527219e+01
   4.139887e+01   1.956365e+02
  -1.640356e+02   1.645090e+02
  -1.737281e+02  -6.520274e+01
   2.379584e+01  -1.900575e+02
   1.968856e+02  -2.432154e+01
   1.610994e+02   2.589029e+02
  -4.036462e+01   3.596198e+02
  -2.458918e+02   1.947875e+02
  -3.399644e+02  -7.450904e+01
  -2.796222e+02  -2.577575e+02
  -8.500234e+01  -2.759492e+02
   1.237437e+02  -1.592661e+02
   1.801275e+02  -1.493774e+01
   5.679993e+01   3.184869e+01
  -6.790679e+01  -4.508578e+01
  -2.223747e+01  -1.280913e+02
   1.306288e+02  -9.494637e+01
   1.796584e+02   1.964604e+01
   5.463580e+01   7.377575e+01
  -8.311283e+01   1.049431e+01
  -5.219532e+01  -7.980809e+01
   1.335456e+02  -8.572843e+01
   2.931023e+02   1.191730e+01
   2.660202e+02   1.559520e+02
   5.001491e+01   2.651846e+02
  -2.003333e+02   2.599509e+02
  -2.938361e+02   1.188416e+02
  -1.700822e+02  -5.654834e+01
   2.852960e+01  -1.082815e+02
   9.041667e+01  -4.783234e+00
  -3.909401e+01   1.007322e+02
  -2.019734e+02   5.265391e+01
  -2.143138e+02  -1.114148e+02
  -6.463716e+01  -2.138694e+02
   1.006826e+02  -1.579087e+02
   1.469348e+02  -2.477958e+01
   6.855079e+01   4.381147e+01
  -3.043584e+01  -1.236218e+00
  -3.450622e+01  -9.016560e+01
   8.024696e+01  -1.146313e+02
   2.061066e+02  -2.210140e+01
   1.927236e+02   1.334304e+02
   1.502999e+01   2.240652e+02
  -1.729463e+02   1.635260e+02
  -1.982962e+02   2.447168e+00
  -6.355389e+01  -1.173939e+02
   7.101207e+01  -1.115898e+02
   8.514745e+01  -2.892301e+01
   1.610532e+01   2.698426e+01
  -2.475922e+01   1.708166e+01
   1.030944e+01  -1.047860e+01
   7.517845e+01   9.446882e+00
   9.077269e+01   8.796728e+01
   1.063428e+01   1.653202e+02
  -1.358030e+02   1.532928e+02
  -2.412906e+02   1.840938e+01
  -2.024503e+02  -1.604644e+02
  -3.664998e+01  -2.442497e+02
   1.155479e+02  -1.711139e+02
   1.400985e+02  -2.520893e+01
   7.200714e+01   5.770391e+01
   2.936782e+01   3.687113e+01
   5.561618e+01  -1.140750e+01
   8.334966e+01  -4.499695e+00
   4.373319e+01   5.344762e+01
  -4.560557e+01   9.184603e+01
  -1.096708e+02   5.571160e+01
  -8.987072e+01  -4.007078e+01
   1.732804e+01  -1.156981e+02
   1.507298e+02  -8.506761e+01
   2.023017e+02   5.930007e+01
   9.600410e+01   2.108649e+02
  -1.173786e+02   2.312310e+02
  -2.768995e+02   9.028569e+01
  -2.610886e+02  -9.532398e+01
  -1.070809e+02  -1.835996e+02
   4.374276e+01  -1.493725e+02
   9.867079e+01  -8.372181e+01
   8.214757e+01  -6.963789e+01
   6.991424e+01  -9.238501e+01
   9.666746e+01  -7.461383e+01
   1.317363e+02   2.546206e+01
   1.170973e+02   1.613460e+02
   2.418682e+01   2.330361e+02
  -1.060513e+02   1.737239e+02
  -1.801468e+02   1.542255e+01
  -1.356526e+02  -1.293819e+02
  -1.424197e+01  -1.640822e+02
   7.268714e+01  -9.145845e+01
   6.209608e+01   3.124243e+00
   2.482486e+00   4.552772e+01
  -1.412074e+01   3.527594e+01
   3.540815e+01   1.867115e+01
   8.158494e+01   2.475083e+01
   4.568007e+01   4.075366e+01
  -6.783306e+01   3.655169e+01
  -1.644294e+02  -2.024083e+00
  -1.456739e+02  -5.825144e+01
  -1.091743e+01  -9.253106e+01
   1.277895e+02  -7.260725e+01
   1.493155e+02  -8.791624e+00
   4.796509e+01   4.467084e+01
  -6.273747e+01   3.789446e+01
  -7.775310e+01  -2.132344e+01
  -7.895629e+00  -7.131917e+01
   5.723721e+01  -5.933396e+01
   6.579996e+01   3.083135e+00
   4.613817e+01   5.274417e+01
   4.418609e+01   4.437951e+01
   6.191822e+01   3.848346e+00
   6.763983e+01   2.457540e+00
   3.576263e+01   7.113638e+01
  -3.655937e+01   1.496429e+02
  -1.244244e+02   1.423477e+02
  -1.717475e+02   2.968677e+01
  -1.251082e+02  -9.719584e+01
  -2.729291e+00  -1.305476e+02
   9.085245e+01  -6.203120e+01
   6.147539e+01   1.623046e+01
  -6.094717e+01   1.915150e+01
  -1.392284e+02  -4.770758e+01
  -7.422916e+01  -1.117309e+02
   8.596902e+01  -1.125658e+02
   1.966713e+02  -4.713501e+01
   1.648409e+02   3.985684e+01
   3.499436e+01   8.951462e+01
  -6.469467e+01   6.898089e+01
  -5.034525e+01   4.953011e+00
   4.061872e+01  -2.725626e+01
   9.261094e+01   2.482024e+01
   3.200408e+01   1.219533e+02
  -9.543730e+01   1.561595e+02
  -1.715352e+02   6.117596e+01
  -1.273852e+02  -1.045840e+02
  -6.726234e+00  -2.017946e+02
   9.059583e+01  -1.450217e+02
   1.068723e+02   1.021344e+01
   5.830065e+01   1.226817e+02
  -6.245771e+00   1.084402e+02
  -4.835165e+01   1.866053e+01
  -5.148491e+01  -3.341341e+01
  -2.496640e+01  -9.242750e+00
  -4.843276e+00   2.050729e+01
  -2.218697e+01  -1.695200e+01
  -5.513461e+01  -9.233066e+01
  -3.880461e+01  -1.124208e+02
   5.051066e+01  -4.465037e+01
   1.402561e+02   4.358830e+01
   1.302039e+02   7.574112e+01
   1.684252e+01   5.190841e+01
  -8.952277e+01   2.108530e+01
  -9.040378e+01   5.308104e+00
  -1.189618e+01  -8.492364e+00
   3.943086e+01  -2.178085e+01
   1.572490e+01  -1.742044e+01
  -2.094689e+01   1.395537e+00
   5.208875e+00   8.906770e+00
   7.479796e+01   5.136362e+00
   9.330264e+01   2.646440e+01
   8.582954e+00   8.255216e+01
  -1.225920e+02   1.144669e+02
  -1.918389e+02   5.621675e+01
  -1.449523e+02  -7.133254e+01
  -2.318147e+01  -1.660348e+02
   8.495115e+01  -1.520923e+02
   1.187684e+02  -5.798994e+01
   8.192722e+01   2.376897e+01
   2.477761e+01   3.726422e+01
  -2.479997e+00   9.522588e+00
   1.086354e+01   5.098225e+00
   3.221988e+01   4.809784e+01
   2.015602e+01   9.279976e+01
  -3.174590e+01   7.253315e+01
  -8.211166e+01  -2.049719e+01
  -7.649502e+01  -1.117761e+02
  -3.004697e+00  -1.146404e+02
   8.373971e+01  -2.351700e+01
   1.038687e+02   7.821570e+01
   3.133227e+01   1.066486e+02
  -6.907112e+01   5.650084e+01
  -1.006978e+02  -1.407559e+01
  -3.967613e+01  -5.392569e+01
   3.514170e+01  -5.356353e+01
   3.407913e+01  -2.809781e+01
  -3.364569e+01   4.713314e-01
  -7.090106e+01   5.401152e+00
  -1.510465e+01  -2.638720e+01
   8.257170e+01  -6.533741e+01
   1.204449e+02  -5.605260e+01
   6.600826e+01   1.467282e+01
  -1.797314e+01   8.477604e+01
  -5.702214e+01   8.030277e+01
  -3.923020e+01   5.854928e+00
  -9.578166e-01  -5.663608e+01
   2.713507e+01  -4.396389e+01
   3.684001e+01   1.843928e+01
   2.603082e+01   5.585633e+01
  -3.459287e+00   3.455547e+01
  -3.368087e+01  -9.052218e+00
  -4.031412e+01  -2.321967e+01
  -2.102927e+01  -2.234816e+00
   8.084537e-01   1.537160e+01
   6.944188e+00  -1.105762e+00
   6.021958e+00  -3.653975e+01
   1.572183e+01  -4.660155e+01
   3.241351e+01  -9.264120e+00
   3.146781e+01   4.527761e+01
  -1.362100e+00   6.213483e+01
  -4.549243e+01   2.067916e+01
  -5.770099e+01  -4.067723e+01
  -1.396751e+01  -6.446196e+01
   5.729035e+01  -3.358905e+01
   9.106615e+01   1.752578e+01
   4.926529e+01   4.620361e+01
  -3.051459e+01   4.161804e+01
  -6.690683e+01   2.116735e+01
  -2.562762e+01   4.590878e+00
   3.665909e+01   2.317263e+00
   3.753453e+01   1.557627e+01
  -3.099632e+01   3.024845e+01
  -9.170873e+01   1.803138e+01
