
 $NMID
 id='ANONYMOUS ', fmtdat='(2E16.6)'
 volume=1.0
 tramp=1.0
 $END
  -3.601764e+03  -2.111419e+02
  -2.130815e+03  -2.034612e+03
   3.293135e+02  -2.191062e+03
   1.490533e+03  -1.031341e+03
   8.633357e+02   5.946578e+01
  -2.118543e+02   2.303943e+02
  -4.821895e+02  -2.671589e+02
   3.493137e+01  -6.999743e+02
   5.999721e+02  -5.925213e+02
   7.190290e+02   1.060256e+01
   3.914130e+02   6.285978e+02
  -1.056907e+02   6.989536e+02
  -3.991111e+02   1.238933e+02
  -2.462376e+02  -5.299671e+02
   1.957782e+02  -5.896317e+02
   4.603853e+02  -2.492790e+01
   2.634246e+02   5.518263e+02
  -1.958106e+02   6.092201e+02
  -4.909804e+02   2.046526e+02
  -4.087464e+02  -2.300333e+02
  -8.544177e+01  -3.767961e+02
   1.643920e+02  -2.385587e+02
   1.079975e+02  -4.464984e+01
  -1.829468e+02  -4.106068e+01
  -3.304456e+02  -2.535455e+02
  -3.111624e+01  -4.108276e+02
   5.056351e+02  -2.290853e+02
   6.927552e+02   1.982896e+02
   2.560404e+02   4.507401e+02
  -3.843828e+02   2.719744e+02
  -5.875827e+02  -1.449888e+02
  -2.155643e+02  -4.250735e+02
   2.986278e+02  -3.955330e+02
   5.040304e+02  -1.288062e+02
   3.422912e+02   1.992660e+02
   5.535403e+01   3.626794e+02
  -9.674511e+01   1.957267e+02
  -6.421997e+00  -1.526891e+02
   2.136907e+02  -2.409964e+02
   2.888452e+02   1.395329e+02
   5.037744e+01   5.821008e+02
  -3.134752e+02   5.100973e+02
  -4.142258e+02  -3.854900e+01
  -1.290485e+02  -4.087448e+02
   2.185218e+02  -1.757337e+02
   2.272265e+02   3.181108e+02
  -1.278842e+02   4.425289e+02
  -4.922498e+02   5.824524e+01
  -5.101248e+02  -4.093625e+02
  -1.385014e+02  -5.319400e+02
   3.415588e+02  -2.775372e+02
   5.530400e+02   9.154553e+01
   3.330153e+02   3.049381e+02
  -9.960450e+01   2.571680e+02
  -3.358901e+02   5.201816e+01
  -2.067391e+02  -8.621335e+01
   3.948684e+01  -3.402052e+01
   6.460999e+01   9.195693e+01
  -1.356143e+02   8.773195e+01
  -2.612927e+02  -7.455194e+01
  -1.144688e+02  -2.309560e+02
   1.751780e+02  -2.430197e+02
   3.381529e+02  -1.136649e+02
   2.477230e+02   9.197534e+01
  -1.768159e+01   2.950729e+02
  -2.797137e+02   3.611765e+02
  -3.742849e+02   1.751712e+02
  -2.534369e+02  -1.693801e+02
  -4.059515e+01  -3.906341e+02
   7.506595e+01  -3.301310e+02
   4.781484e+01  -1.437507e+02
   1.925073e+01  -7.312803e+01
   1.107915e+02  -1.175227e+02
   2.477542e+02  -7.852920e+01
   2.604044e+02   1.127084e+02
   1.034578e+02   2.751278e+02
  -1.025385e+02   2.140140e+02
  -2.091672e+02  -3.614775e+01
  -1.487652e+02  -2.570717e+02
   4.967624e+01  -2.687250e+02
   2.631156e+02  -6.981836e+01
   3.222728e+02   1.871344e+02
   1.614935e+02   3.228529e+02
  -7.737735e+01   2.726969e+02
  -1.853113e+02   1.345538e+02
  -1.421725e+02   5.527156e+01
  -1.330121e+02   6.243784e+01
  -2.725805e+02   4.473948e+01
  -4.146817e+02  -9.388588e+01
  -3.211259e+02  -3.062935e+02
   2.987256e+01  -4.454404e+02
   3.907177e+02  -3.983399e+02
   4.937487e+02  -1.701428e+02
   3.019400e+02   1.129691e+02
   1.756840e+01   2.708822e+02
  -1.171965e+02   2.078851e+02
  -3.174945e+01   2.587725e+01
   1.264845e+02  -5.795418e+01
   1.536546e+02   4.117569e+01
   9.414040e+00   1.645184e+02
  -1.424669e+02   1.159588e+02
  -1.280141e+02  -6.747026e+01
   3.721451e+01  -1.508034e+02
   1.766731e+02  -8.275390e-01
   1.487347e+02   2.461107e+02
  -3.279030e+01   3.450935e+02
  -2.439763e+02   2.013610e+02
  -3.507049e+02  -6.679806e+01
  -2.784009e+02  -2.652783e+02
  -6.544621e+01  -2.808143e+02
   1.324409e+02  -1.462247e+02
   1.622339e+02  -2.485943e+00
   3.909716e+01   2.345578e+01
  -5.841486e+01  -5.977389e+01
  -7.385432e-01  -1.227450e+02
   1.319369e+02  -7.318157e+01
   1.584670e+02   3.168930e+01
   3.507423e+01   6.520710e+01
  -8.653749e+01  -6.677223e+00
  -4.401552e+01  -9.240770e+01
   1.457523e+02  -8.860485e+01
   3.023371e+02   2.112382e+01
   2.616602e+02   1.715987e+02
   3.109428e+01   2.690868e+02
  -2.135583e+02   2.417067e+02
  -2.822894e+02   9.648786e+01
  -1.458663e+02  -5.616186e+01
   3.543437e+01  -8.754562e+01
   7.399373e+01   6.946380e+00
  -5.354250e+01   8.843728e+01
  -1.944609e+02   3.412352e+01
  -1.941250e+02  -1.132456e+02
  -5.224101e+01  -1.984976e+02
   9.791993e+01  -1.397240e+02
   1.335585e+02  -1.412172e+01
   5.125355e+01   4.291768e+01
  -4.224071e+01  -1.413923e+01
  -3.153382e+01  -1.064930e+02
   9.381704e+01  -1.196736e+02
   2.128735e+02  -1.361470e+01
   1.848875e+02   1.392901e+02
   6.717528e+00   2.151764e+02
  -1.658986e+02   1.502722e+02
  -1.809341e+02   2.520975e+00
  -5.297145e+01  -1.036602e+02
   6.846289e+01  -9.792090e+01
   7.560424e+01  -2.262855e+01
   4.679200e+00   2.803860e+01
  -3.544876e+01   1.279477e+01
   7.142586e+00  -2.130456e+01
   8.373934e+01   3.631787e-02
   1.016731e+02   9.022809e+01
   1.069422e+01   1.744482e+02
  -1.438199e+02   1.540635e+02
  -2.426859e+02   9.033088e+00
  -1.941605e+02  -1.645247e+02
  -3.166101e+01  -2.347352e+02
   1.097887e+02  -1.601122e+02
   1.323616e+02  -2.617713e+01
   7.098583e+01   4.869908e+01
   3.121736e+01   3.100471e+01
   5.571445e+01  -1.307984e+01
   8.688329e+01  -6.145235e+00
   5.346219e+01   5.533477e+01
  -4.061414e+01   1.019375e+02
  -1.190529e+02   6.604370e+01
  -1.036421e+02  -4.208818e+01
   1.668324e+01  -1.271386e+02
   1.619842e+02  -8.986722e+01
   2.070504e+02   6.658606e+01
   8.621133e+01   2.172972e+02
  -1.284055e+02   2.256468e+02
  -2.746358e+02   7.928783e+01
  -2.483998e+02  -9.840067e+01
  -9.685249e+01  -1.766941e+02
   4.504476e+01  -1.406179e+02
   9.334977e+01  -7.855312e+01
   7.418096e+01  -6.733748e+01
   6.251562e+01  -9.204771e+01
   9.275804e+01  -7.684824e+01
   1.312379e+02   2.170530e+01
   1.164677e+02   1.578860e+02
   2.215401e+01   2.289655e+02
  -1.057364e+02   1.672862e+02
  -1.746531e+02   8.702296e+00
  -1.276103e+02  -1.316882e+02
  -7.305636e+00  -1.601710e+02
   7.798220e+01  -8.353142e+01
   6.458885e+01   1.211655e+01
  -1.559769e+00   5.285821e+01
  -2.390846e+01   3.773075e+01
   2.847103e+01   1.539072e+01
   8.304268e+01   2.023781e+01
   4.875249e+01   4.048165e+01
  -7.225677e+01   3.938667e+01
  -1.725369e+02  -2.589600e+00
  -1.458225e+02  -6.458183e+01
  -2.055444e+00  -9.905070e+01
   1.344842e+02  -7.317476e+01
   1.481190e+02  -3.901265e+00
   4.582029e+01   5.031458e+01
  -6.066428e+01   4.151198e+01
  -7.788682e+01  -1.983144e+01
  -1.590492e+01  -7.209912e+01
   4.893109e+01  -6.251105e+01
   6.757569e+01  -8.491724e-01
   5.442129e+01   5.034333e+01
   4.678598e+01   4.387428e+01
   5.710360e+01   3.969174e+00
   6.586362e+01   2.581956e+00
   4.201490e+01   7.180399e+01
  -3.066881e+01   1.513572e+02
  -1.272332e+02   1.449644e+02
  -1.794512e+02   3.225915e+01
  -1.288768e+02  -9.664426e+01
  -1.277917e+00  -1.336288e+02
   9.248538e+01  -6.734116e+01
   6.159138e+01   1.264375e+01
  -5.915775e+01   1.934663e+01
  -1.344363e+02  -4.559889e+01
  -6.973195e+01  -1.095953e+02
   8.650298e+01  -1.091157e+02
   1.928466e+02  -4.147747e+01
   1.589368e+02   4.403315e+01
   3.007368e+01   8.767743e+01
  -6.663773e+01   6.250158e+01
  -5.022481e+01  -5.067723e-01
   4.022463e+01  -2.982961e+01
   9.223508e+01   2.168269e+01
   3.625280e+01   1.168714e+02
  -8.481419e+01   1.535921e+02
  -1.608528e+02   6.526071e+01
  -1.245142e+02  -9.598877e+01
  -1.099257e+01  -1.938862e+02
   8.638484e+01  -1.400393e+02
   1.051126e+02   1.267768e+01
   5.439805e+01   1.223998e+02
  -1.342046e+01   1.055128e+02
  -5.176572e+01   1.569872e+01
  -4.658161e+01  -3.410966e+01
  -1.862035e+01  -9.324333e+00
  -6.298834e+00   1.845338e+01
  -2.884001e+01  -1.924406e+01
  -5.609328e+01  -9.108234e+01
  -3.173027e+01  -1.086027e+02
   5.546524e+01  -4.337946e+01
   1.359248e+02   4.089029e+01
   1.233658e+02   7.345809e+01
   1.776918e+01   5.298816e+01
  -8.250293e+01   2.265710e+01
  -8.767817e+01   4.224582e+00
  -1.641816e+01  -1.014490e+01
   3.601455e+01  -2.051287e+01
   1.938225e+01  -1.441613e+01
  -1.607284e+01   2.244213e+00
   2.916780e+00   6.825628e+00
   6.790997e+01   2.236609e+00
   9.248520e+01   2.356672e+01
   1.774382e+01   7.977161e+01
  -1.116118e+02   1.146705e+02
  -1.884336e+02   6.259580e+01
  -1.490394e+02  -6.146164e+01
  -2.830348e+01  -1.601515e+02
   8.209708e+01  -1.537725e+02
   1.167318e+02  -6.308357e+01
   8.034842e+01   2.096106e+01
   2.605073e+01   3.781133e+01
   1.695724e+00   1.148267e+01
   1.362042e+01   7.259825e+00
   3.069080e+01   4.952925e+01
   1.764448e+01   9.229960e+01
  -3.048938e+01   7.166067e+01
  -7.862013e+01  -1.732540e+01
  -7.731248e+01  -1.041857e+02
  -1.038152e+01  -1.100206e+02
   7.601533e+01  -2.841100e+01
   1.031988e+02   6.841280e+01
   3.716088e+01   1.029541e+02
  -6.435162e+01   6.158850e+01
  -1.023636e+02  -9.098280e+00
  -4.477918e+01  -5.637733e+01
   3.358063e+01  -5.954493e+01
   3.868009e+01  -2.982870e+01
  -2.725973e+01   3.312334e+00
  -6.862022e+01   7.451712e+00
  -1.763998e+01  -2.666871e+01
   7.992086e+01  -6.469435e+01
   1.218372e+02  -5.363758e+01
   7.039349e+01   1.588506e+01
  -1.493625e+01   8.449714e+01
  -5.777427e+01   8.261705e+01
  -4.262038e+01   1.189119e+01
  -4.838524e+00  -5.251984e+01
   2.402208e+01  -4.667339e+01
   3.561354e+01   1.246485e+01
   2.753988e+01   5.411073e+01
  -6.944347e-01   3.813816e+01
  -3.288472e+01  -6.167500e+00
  -4.194336e+01  -2.475944e+01
  -2.134242e+01  -4.309131e+00
   3.762169e+00   1.832350e+01
   8.231645e+00   6.103287e+00
  -5.419570e-01  -3.158498e+01
   4.066351e+00  -4.895649e+01
   2.642885e+01  -1.782055e+01
   3.690016e+01   3.623765e+01
   8.796158e+00   5.826961e+01
  -4.093259e+01   2.365284e+01
  -6.034038e+01  -3.434424e+01
  -1.752073e+01  -6.065911e+01
   5.681727e+01  -3.539110e+01
   9.200234e+01   1.275955e+01
   5.009515e+01   4.393398e+01
  -2.860662e+01   4.436071e+01
  -6.486639e+01   2.614915e+01
  -2.783601e+01   6.859732e+00
   2.967676e+01  -5.826840e-01
   3.315353e+01   9.420500e+00
  -2.602628e+01   2.540112e+01
  -8.142950e+01   1.810401e+01
