
 $NMID
 id='ANONYMOUS ', fmtdat='(2E16.6)'
 volume=1.0
 tramp=1.0
 $END
   4.121320e+03  -1.345884e+02
   2.528364e+03   2.322487e+03
  -4.877261e+02   2.612975e+03
  -1.882089e+03   1.025383e+03
  -9.485097e+02  -4.323891e+02
   4.970924e+02  -4.980894e+02
   7.837876e+02   3.475065e+02
   2.775994e+01   9.566389e+02
  -7.274990e+02   7.587865e+02
  -8.765969e+02  -3.081528e+01
  -4.686629e+02  -7.741015e+02
   1.631938e+02  -8.428281e+02
   5.605842e+02  -1.442592e+02
   3.728203e+02   6.472607e+02
  -2.163076e+02   7.138209e+02
  -5.643964e+02   2.835481e+01
  -2.996709e+02  -6.325090e+02
   2.578415e+02  -6.423739e+02
   5.523792e+02  -1.520370e+02
   4.101282e+02   2.982208e+02
   5.697469e+01   4.184450e+02
  -2.069043e+02   2.667593e+02
  -1.796134e+02   3.470337e+01
   1.323995e+02  -5.184868e+01
   3.894934e+02   1.393785e+02
   1.658820e+02   4.175270e+02
  -4.575819e+02   3.764253e+02
  -8.060978e+02  -7.688270e+01
  -4.010845e+02  -5.014596e+02
   3.704416e+02  -4.364644e+02
   7.002310e+02   3.724249e+01
   3.282688e+02   4.507777e+02
  -2.655367e+02   4.940235e+02
  -5.398131e+02   2.047418e+02
  -4.047178e+02  -2.013317e+02
  -8.710662e+01  -4.382983e+02
   1.553230e+02  -2.663785e+02
   1.303268e+02   1.906268e+02
  -1.617998e+02   3.850164e+02
  -3.997730e+02  -3.667413e+01
  -2.153945e+02  -6.424352e+02
   2.871901e+02  -6.595312e+02
   5.478180e+02  -1.784684e+01
   2.450008e+02   4.997779e+02
  -2.557563e+02   2.893832e+02
  -3.524879e+02  -3.057586e+02
   6.175573e+01  -5.195512e+02
   5.308733e+02  -1.378350e+02
   5.883577e+02   3.816504e+02
   1.842899e+02   5.629600e+02
  -3.550435e+02   3.432781e+02
  -6.107432e+02  -5.119770e+01
  -3.800813e+02  -3.439904e+02
   1.211252e+02  -3.400327e+02
   4.093184e+02  -7.495391e+01
   2.409097e+02   1.523552e+02
  -8.998046e+01   9.093987e+01
  -1.275693e+02  -1.289666e+02
   1.477326e+02  -1.654237e+02
   3.259996e+02   5.841846e+01
   1.476128e+02   2.735300e+02
  -1.845462e+02   2.641258e+02
  -3.307236e+02   9.970233e+01
  -2.151020e+02  -7.906725e+01
   1.365234e+01  -2.453018e+02
   2.228536e+02  -3.450383e+02
   3.374785e+02  -2.209898e+02
   2.864338e+02   1.320509e+02
   8.860358e+01   4.188447e+02
  -8.526738e+01   3.744690e+02
  -9.469140e+01   1.282562e+02
  -2.429360e+01   1.469014e+01
  -5.858631e+01   9.751143e+01
  -2.035570e+02   1.240457e+02
  -2.756776e+02  -5.632709e+01
  -1.563717e+02  -2.638230e+02
   6.788520e+01  -2.480430e+02
   2.217746e+02  -8.363220e+00
   1.952576e+02   2.357954e+02
  -7.346748e+00   2.877079e+02
  -2.595909e+02   1.160206e+02
  -3.575953e+02  -1.555281e+02
  -1.964090e+02  -3.338917e+02
   7.811020e+01  -3.019316e+02
   2.093312e+02  -1.361730e+02
   1.483939e+02  -2.689498e+01
   1.072779e+02  -4.713172e+01
   2.409225e+02  -6.959970e+01
   4.058825e+02   4.862145e+01
   3.413380e+02   2.742964e+02
   1.086706e+01   4.419733e+02
  -3.478139e+02   4.243198e+02
  -4.786381e+02   2.145246e+02
  -3.300991e+02  -8.255764e+01
  -5.802340e+01  -2.843983e+02
   1.142000e+02  -2.461713e+02
   6.626442e+01  -3.263200e+01
  -1.093324e+02   9.884029e+01
  -1.846747e+02  -6.472311e+00
  -4.829013e+01  -1.849210e+02
   1.480105e+02  -1.641357e+02
   1.679468e+02   5.399639e+01
  -1.368693e+01   1.821640e+02
  -1.879280e+02   3.314243e+01
  -1.708679e+02  -2.392964e+02
   1.563041e+01  -3.487552e+02
   2.247680e+02  -2.049140e+02
   3.343966e+02   4.883519e+01
   2.873963e+02   2.319970e+02
   9.842282e+01   2.627368e+02
  -1.107824e+02   1.611924e+02
  -1.720761e+02   2.414849e+01
  -5.493299e+01  -2.707419e+01
   6.832123e+01   4.104269e+01
   2.749970e+01   1.228708e+02
  -1.212695e+02   9.825773e+01
  -1.735265e+02  -9.437908e+00
  -5.536904e+01  -6.783462e+01
   8.078661e+01  -1.402109e+01
   5.541069e+01   7.539022e+01
  -1.246864e+02   9.238511e+01
  -2.855895e+02   6.971244e+00
  -2.676858e+02  -1.353208e+02
  -6.390097e+01  -2.544707e+02
   1.790071e+02  -2.632418e+02
   2.763765e+02  -1.313402e+02
   1.658280e+02   4.468092e+01
  -2.213951e+01   1.048805e+02
  -8.606547e+01   8.645046e+00
   3.321650e+01  -9.940420e+01
   1.920308e+02  -6.190508e+01
   2.126556e+02   9.493044e+01
   7.452467e+01   2.017368e+02
  -8.767315e+01   1.573946e+02
  -1.396905e+02   3.188548e+01
  -6.743646e+01  -3.859377e+01
   3.121931e+01  -3.332407e-02
   3.963522e+01   8.669332e+01
  -7.129491e+01   1.171581e+02
  -1.989611e+02   3.420459e+01
  -1.945671e+02  -1.174860e+02
  -2.787276e+01  -2.152671e+02
   1.565853e+02  -1.678053e+02
   1.899745e+02  -1.447972e+01
   6.747067e+01   1.085640e+02
  -6.180047e+01   1.111127e+02
  -7.983716e+01   3.247668e+01
  -1.626621e+01  -2.565171e+01
   2.406307e+01  -1.817178e+01
  -8.521995e+00   1.171728e+01
  -7.376012e+01  -2.987038e+00
  -9.466124e+01  -7.896205e+01
  -2.139826e+01  -1.601122e+02
   1.221760e+02  -1.575047e+02
   2.327528e+02  -3.259651e+01
   2.056069e+02   1.428517e+02
   5.038967e+01   2.331879e+02
  -1.005984e+02   1.716990e+02
  -1.330969e+02   3.322624e+01
  -7.290882e+01  -5.032382e+01
  -3.072522e+01  -3.311568e+01
  -5.299778e+01   1.480532e+01
  -8.060690e+01   1.006536e+01
  -4.679181e+01  -4.863259e+01
   3.724677e+01  -9.256450e+01
   1.029430e+02  -6.240269e+01
   9.095246e+01   3.254184e+01
  -8.710447e+00   1.141221e+02
  -1.411772e+02   9.300495e+01
  -2.003088e+02  -4.475457e+01
  -1.058605e+02  -1.987984e+02
   9.986709e+01  -2.312164e+02
   2.622556e+02  -1.041183e+02
   2.576397e+02   7.613274e+01
   1.141937e+02   1.704324e+02
  -3.313558e+01   1.465353e+02
  -8.972817e+01   8.665204e+01
  -7.427800e+01   7.212172e+01
  -6.094091e+01   9.354752e+01
  -8.819946e+01   7.848959e+01
  -1.288733e+02  -1.575044e+01
  -1.235186e+02  -1.481785e+02
  -3.812707e+01  -2.235487e+02
   9.157442e+01  -1.742842e+02
   1.730186e+02  -2.570635e+01
   1.389257e+02   1.169329e+02
   2.357027e+01   1.577179e+02
  -6.523889e+01   9.264059e+01
  -6.089756e+01   2.378313e-01
  -5.274936e+00  -4.476328e+01
   1.221623e+01  -3.569668e+01
  -3.464853e+01  -1.574656e+01
  -8.047121e+01  -1.815529e+01
  -4.711486e+01  -3.630374e+01
   6.355521e+01  -4.021817e+01
   1.599987e+02  -8.991284e+00
   1.449763e+02   4.751490e+01
   1.597866e+01   8.981285e+01
  -1.195337e+02   7.885921e+01
  -1.439620e+02   1.765577e+01
  -4.932760e+01  -4.074198e+01
   5.787604e+01  -4.098374e+01
   7.654386e+01   1.543771e+01
   1.306902e+01   6.820936e+01
  -5.058111e+01   6.105615e+01
  -6.385344e+01   1.739001e+00
  -4.874847e+01  -4.744291e+01
  -4.584886e+01  -3.990565e+01
  -5.968362e+01   7.161985e-02
  -6.542271e+01   1.917881e+00
  -3.983877e+01  -6.629114e+01
   2.502305e+01  -1.470369e+02
   1.112946e+02  -1.461350e+02
   1.648489e+02  -4.042713e+01
   1.276614e+02   8.569771e+01
   1.109203e+01   1.264668e+02
  -8.379476e+01   6.647707e+01
  -6.037621e+01  -1.136382e+01
   5.753329e+01  -2.241767e+01
   1.372170e+02   3.712772e+01
   7.851767e+01   1.032566e+02
  -7.606555e+01   1.141485e+02
  -1.870642e+02   5.762833e+01
  -1.616462e+02  -2.853026e+01
  -3.909664e+01  -8.435580e+01
   5.857730e+01  -7.037571e+01
   4.860233e+01  -7.519745e+00
  -3.737677e+01   2.923057e+01
  -9.102292e+01  -1.771986e+01
  -3.905529e+01  -1.152206e+02
   8.128059e+01  -1.565382e+02
   1.607567e+02  -7.023106e+01
   1.293543e+02   9.220270e+01
   1.965775e+01   1.938172e+02
  -7.804396e+01   1.454918e+02
  -1.039782e+02  -3.268139e+00
  -6.395638e+01  -1.150360e+02
  -1.650377e-01  -1.053269e+02
   4.602071e+01  -2.104402e+01
   5.152325e+01   2.926331e+01
   2.413848e+01   7.603195e+00
   3.585261e+00  -2.001474e+01
   2.330371e+01   1.489680e+01
   5.935632e+01   8.557929e+01
   4.397317e+01   1.061673e+02
  -4.650156e+01   4.655470e+01
  -1.379636e+02  -3.299954e+01
  -1.300984e+02  -6.490125e+01
  -1.979241e+01  -4.918601e+01
   8.448424e+01  -2.604898e+01
   8.688895e+01  -1.077139e+01
   1.256695e+01   7.409960e+00
  -3.645468e+01   2.335515e+01
  -1.456557e+01   1.773637e+01
   1.966352e+01  -2.580396e+00
  -5.304513e+00  -8.175020e+00
  -7.189553e+01  -1.360147e-01
  -9.176609e+01  -1.930768e+01
  -1.442056e+01  -7.863646e+01
   1.100966e+02  -1.182205e+02
   1.813250e+02  -6.728434e+01
   1.448119e+02   5.847676e+01
   3.342784e+01   1.583186e+02
  -7.197089e+01   1.526694e+02
  -1.107145e+02   6.419844e+01
  -8.051770e+01  -1.747888e+01
  -2.652994e+01  -3.443950e+01
   1.293163e+00  -9.382849e+00
  -1.119894e+01  -4.318719e+00
  -3.419765e+01  -4.464288e+01
  -2.524673e+01  -8.852134e+01
   2.592399e+01  -7.208250e+01
   8.028315e+01   1.434890e+01
   8.099315e+01   1.023969e+02
   1.085223e+01   1.099363e+02
  -7.852162e+01   2.831808e+01
  -1.050586e+02  -6.800832e+01
  -3.762623e+01  -1.005260e+02
   6.247748e+01  -5.942157e+01
   9.826808e+01   6.536252e+00
   4.247434e+01   4.961125e+01
  -3.011444e+01   5.460357e+01
  -3.151638e+01   2.975366e+01
   3.177536e+01  -2.637447e+00
   6.792584e+01  -9.920242e+00
   1.657897e+01   2.446475e+01
  -7.541082e+01   6.837799e+01
  -1.131163e+02   6.185281e+01
  -6.527969e+01  -9.844955e+00
   1.160978e+01  -8.301395e+01
   4.992878e+01  -8.163131e+01
   3.763850e+01  -8.936349e+00
   4.796120e+00   5.415844e+01
  -2.298160e+01   4.441505e+01
  -3.645618e+01  -1.492331e+01
  -2.887151e+01  -5.211078e+01
   6.852139e-01  -3.387920e+01
   3.296625e+01   6.328493e+00
   4.072586e+01   1.992778e+01
   2.060651e+01   9.865109e-01
  -2.191101e+00  -1.497622e+01
  -7.079904e+00   8.765123e-01
  -3.034044e+00   3.497451e+01
  -1.095788e+01   4.582580e+01
  -2.980712e+01   1.163409e+01
  -3.351226e+01  -4.065017e+01
  -3.527295e+00  -5.938272e+01
   4.209673e+01  -2.304412e+01
   5.843596e+01   3.488218e+01
   1.786970e+01   6.092998e+01
  -5.311884e+01   3.635878e+01
  -8.911307e+01  -1.054969e+01
  -5.063312e+01  -4.124605e+01
   2.651806e+01  -4.241979e+01
   6.293781e+01  -2.520684e+01
   2.460945e+01  -6.416340e+00
  -3.481073e+01   1.153431e-01
  -3.662908e+01  -1.222668e+01
   2.775007e+01  -3.058605e+01
   8.654528e+01  -2.295131e+01
