
 $NMID
 id='ANONYMOUS ', fmtdat='(2E16.6)'
 volume=1.0
 tramp=1.0
 $END
  -2.763511e+03  -1.302109e+02
  -1.872554e+03  -1.309810e+03
  -2.097979e+02  -1.715842e+03
   9.021437e+02  -1.284346e+03
   8.907447e+02  -4.918528e+02
   2.603354e+02   3.258118e+01
  -1.603683e+02  -6.195530e+00
  -4.765182e+01  -3.514259e+02
   3.184751e+02  -4.752998e+02
   5.198490e+02  -1.331763e+02
   3.957155e+02   3.759014e+02
   7.834506e+01   5.390198e+02
  -1.769222e+02   1.916673e+02
  -1.761428e+02  -3.056858e+02
   7.021483e+01  -4.486905e+02
   3.201173e+02  -9.773901e+01
   2.885862e+02   4.053204e+02
  -5.489269e+01   5.934969e+02
  -4.090366e+02   3.256037e+02
  -4.415644e+02  -1.092585e+02
  -1.636718e+02  -3.214291e+02
   7.901283e+01  -2.282793e+02
   1.958572e+01  -9.230706e+01
  -2.053279e+02  -1.570721e+02
  -2.257709e+02  -3.344784e+02
   9.636098e+01  -3.362330e+02
   4.736627e+02  -6.715836e+01
   5.061666e+02   2.392164e+02
   1.309098e+02   3.003865e+02
  -3.044482e+02   9.224065e+01
  -4.057714e+02  -1.795034e+02
  -1.183935e+02  -3.214273e+02
   2.602762e+02  -2.774465e+02
   4.076291e+02  -8.828931e+01
   2.749533e+02   1.397873e+02
   7.439362e+01   2.454437e+02
   1.956371e+01   1.366051e+02
   1.154254e+02  -5.359806e+01
   1.943424e+02  -5.813160e+01
   1.184250e+02   1.926337e+02
  -7.915302e+01   4.251275e+02
  -2.373405e+02   3.317120e+02
  -2.237085e+02  -1.961972e+01
  -5.480508e+01  -2.326450e+02
   1.092167e+02  -6.669549e+01
   9.115217e+01   2.570673e+02
  -1.384492e+02   3.224081e+02
  -3.968815e+02   1.538070e+01
  -4.242487e+02  -3.606050e+02
  -1.342507e+02  -4.516897e+02
   2.684541e+02  -2.236901e+02
   4.605493e+02   7.101133e+01
   3.073593e+02   2.050957e+02
  -1.802156e+01   1.673351e+02
  -2.257393e+02   7.874534e+01
  -1.932919e+02   2.533568e+01
  -4.739016e+01   1.210686e+01
   9.243920e+00   1.508596e+01
  -7.982768e+01   7.674443e+00
  -1.762706e+02  -4.569524e+01
  -1.067931e+02  -1.516194e+02
   1.317667e+02  -2.288787e+02
   3.347528e+02  -1.512617e+02
   2.825710e+02   9.837925e+01
  -1.841168e+01   3.469098e+02
  -3.184767e+02   3.707203e+02
  -3.766882e+02   1.306119e+02
  -2.058075e+02  -1.766599e+02
  -2.395321e+01  -3.243233e+02
   1.719131e+01  -2.782253e+02
  -1.496050e+01  -1.809234e+02
   3.003309e+01  -1.448970e+02
   1.691952e+02  -1.265770e+02
   2.701091e+02  -2.392942e+01
   2.218507e+02   1.508105e+02
   5.450539e+01   2.523734e+02
  -1.110656e+02   1.619494e+02
  -1.737972e+02  -6.710998e+01
  -1.009622e+02  -2.457199e+02
   7.043079e+01  -2.260741e+02
   2.366512e+02  -3.193399e+01
   2.737178e+02   1.807125e+02
   1.452490e+02   2.745530e+02
  -4.133105e+01   2.368652e+02
  -1.403342e+02   1.532503e+02
  -1.378371e+02   1.016038e+02
  -1.615459e+02   7.951833e+01
  -2.900769e+02   2.275228e+01
  -4.039018e+02  -1.164555e+02
  -3.000148e+02  -3.032910e+02
   4.414240e+01  -4.241801e+02
   3.902096e+02  -3.706437e+02
   4.679405e+02  -1.454759e+02
   2.571245e+02   1.114977e+02
  -4.689108e+00   2.301613e+02
  -8.612999e+01   1.645566e+02
   1.524356e+01   3.325957e+01
   1.230023e+02  -1.056284e+01
   1.019095e+02   5.733509e+01
  -1.642254e+01   1.195839e+02
  -1.038422e+02   6.854034e+01
  -7.672047e+01  -5.595238e+01
   4.014983e+01  -1.028335e+02
   1.456797e+02   1.956488e+01
   1.350362e+02   2.273237e+02
  -2.378851e+01   3.274636e+02
  -2.433166e+02   2.035198e+02
  -3.592780e+02  -6.532881e+01
  -2.681237e+02  -2.727102e+02
  -3.919717e+01  -2.769393e+02
   1.374880e+02  -1.263295e+02
   1.373991e+02   6.861048e+00
   2.234690e+01   9.137528e+00
  -4.230646e+01  -7.215787e+01
   2.165327e+01  -1.087310e+02
   1.255779e+02  -4.737176e+01
   1.299367e+02   3.908169e+01
   1.598598e+01   4.953896e+01
  -8.351357e+01  -2.678502e+01
  -2.975621e+01  -1.024294e+02
   1.587243e+02  -8.493864e+01
   3.050816e+02   3.701602e+01
   2.467911e+02   1.875810e+02
   6.390894e+00   2.641474e+02
  -2.218094e+02   2.127404e+02
  -2.605722e+02   7.210446e+01
  -1.179783e+02  -4.903831e+01
   3.668431e+01  -6.198111e+01
   5.194122e+01   1.485457e+01
  -6.520997e+01   6.914530e+01
  -1.785932e+02   1.429375e+01
  -1.685023e+02  -1.095819e+02
  -4.110091e+01  -1.764597e+02
   8.961360e+01  -1.185392e+02
   1.145517e+02  -5.414728e+00
   3.216464e+01   3.652707e+01
  -4.987770e+01  -3.180598e+01
  -2.156928e+01  -1.217772e+02
   1.099313e+02  -1.180686e+02
   2.147785e+02   1.305691e-01
   1.708134e+02   1.433669e+02
  -1.802246e+00   2.005296e+02
  -1.539115e+02   1.347230e+02
  -1.604097e+02   5.986207e+00
  -4.431577e+01  -8.512983e+01
   6.170339e+01  -8.229665e+01
   6.285487e+01  -1.786712e+01
  -8.082327e+00   2.521475e+01
  -4.505117e+01   4.301990e+00
   7.408107e+00  -3.336887e+01
   9.469904e+01  -6.182370e+00
   1.101087e+02   9.612463e+01
   5.688020e+00   1.820113e+02
  -1.524927e+02   1.487087e+02
  -2.382181e+02  -4.229505e+00
  -1.797703e+02  -1.663507e+02
  -2.630056e+01  -2.205302e+02
   1.006978e+02  -1.470551e+02
   1.231524e+02  -2.778906e+01
   7.131330e+01   3.909692e+01
   3.427875e+01   2.538360e+01
   5.579993e+01  -1.399764e+01
   9.010672e+01  -5.666372e+00
   6.179608e+01   6.034372e+01
  -3.923950e+01   1.124023e+02
  -1.314950e+02   7.172813e+01
  -1.157159e+02  -4.927163e+01
   2.091330e+01  -1.376026e+02
   1.743747e+02  -8.832586e+01
   2.063507e+02   7.734489e+01
   7.022949e+01   2.192229e+02
  -1.392555e+02   2.119142e+02
  -2.662108e+02   6.422323e+01
  -2.297727e+02  -9.925516e+01
  -8.499402e+01  -1.650618e+02
   4.469947e+01  -1.286811e+02
   8.583497e+01  -7.272292e+01
   6.490213e+01  -6.573614e+01
   5.489463e+01  -9.215856e+01
   8.907411e+01  -7.839856e+01
   1.300008e+02   1.884135e+01
   1.135996e+02   1.534043e+02
   1.836341e+01   2.214003e+02
  -1.039697e+02   1.572630e+02
  -1.646246e+02   1.226604e+00
  -1.152603e+02  -1.313841e+02
   7.152247e-01  -1.519079e+02
   8.102853e+01  -7.153246e+01
   6.339900e+01   2.298463e+01
  -8.747489e+00   5.861220e+01
  -3.514145e+01   3.644919e+01
   2.166655e+01   9.863681e+00
   8.473243e+01   1.665706e+01
   5.099101e+01   4.122961e+01
  -7.736789e+01   3.962910e+01
  -1.786952e+02  -7.740486e+00
  -1.413748e+02  -7.218270e+01
   1.053636e+01  -1.018762e+02
   1.408756e+02  -6.915500e+01
   1.434800e+02   2.644232e+00
   4.060107e+01   5.547828e+01
  -5.934890e+01   4.475450e+01
  -7.728976e+01  -1.895804e+01
  -2.305735e+01  -7.474568e+01
   4.129963e+01  -6.714457e+01
   6.985612e+01  -3.630908e+00
   6.264199e+01   5.044764e+01
   4.858607e+01   4.416046e+01
   5.122540e+01   3.178916e+00
   6.309182e+01   2.881740e+00
   4.702579e+01   7.408063e+01
  -2.638147e+01   1.527728e+02
  -1.311085e+02   1.435200e+02
  -1.865007e+02   3.002364e+01
  -1.302742e+02  -9.754340e+01
   2.803062e+00  -1.347439e+02
   9.551339e+01  -7.049192e+01
   6.193125e+01   9.458319e+00
  -5.681343e+01   1.918934e+01
  -1.278319e+02  -4.284139e+01
  -6.351793e+01  -1.053434e+02
   8.614693e+01  -1.029277e+02
   1.850673e+02  -3.396559e+01
   1.488699e+02   4.784971e+01
   2.407347e+01   8.342016e+01
  -6.651071e+01   5.349200e+01
  -4.772145e+01  -6.799987e+00
   4.046816e+01  -3.182263e+01
   9.142219e+01   1.905669e+01
   4.053013e+01   1.118164e+02
  -7.352065e+01   1.513435e+02
  -1.496270e+02   7.026981e+01
  -1.215369e+02  -8.625633e+01
  -1.561012e+01  -1.845934e+02
   8.090240e+01  -1.333581e+02
   1.010014e+02   1.577787e+01
   4.826507e+01   1.199508e+02
  -2.110818e+01   9.865839e+01
  -5.395102e+01   1.069091e+01
  -4.020878e+01  -3.339512e+01
  -1.156370e+01  -7.490079e+00
  -7.314448e+00   1.551987e+01
  -3.453405e+01  -2.386944e+01
  -5.573365e+01  -8.957631e+01
  -2.382650e+01  -1.013281e+02
   6.008744e+01  -3.927126e+01
   1.300294e+02   3.773505e+01
   1.144762e+02   6.938574e+01
   1.756148e+01   5.395958e+01
  -7.482909e+01   2.530150e+01
  -8.340490e+01   2.876537e+00
  -2.033249e+01  -1.338839e+01
   3.179563e+01  -1.958606e+01
   2.220374e+01  -9.679120e+00
  -1.103012e+01   4.474160e+00
   1.047414e+00   3.851065e+00
   6.069194e+01  -2.248878e+00
   9.110557e+01   2.103214e+01
   2.713029e+01   7.895725e+01
  -1.000329e+02   1.156346e+02
  -1.852277e+02   6.741966e+01
  -1.538930e+02  -5.331971e+01
  -3.335263e+01  -1.538919e+02
   8.037844e+01  -1.535572e+02
   1.154687e+02  -6.694558e+01
   7.832125e+01   1.817043e+01
   2.644981e+01   3.861942e+01
   5.317362e+00   1.475189e+01
   1.558157e+01   1.048192e+01
   2.766070e+01   5.028378e+01
   1.386049e+01   9.001497e+01
  -2.933714e+01   6.988281e+01
  -7.475723e+01  -1.356840e+01
  -7.840213e+01  -9.603318e+01
  -1.821404e+01  -1.062333e+02
   6.880495e+01  -3.478344e+01
   1.035150e+02   5.820775e+01
   4.281209e+01   1.000499e+02
  -6.090252e+01   6.692628e+01
  -1.043064e+02  -5.459758e+00
  -4.815601e+01  -6.039495e+01
   3.410842e+01  -6.520334e+01
   4.393876e+01  -2.936247e+01
  -2.112913e+01   7.979231e+00
  -6.609076e+01   9.445893e+00
  -1.968937e+01  -2.764114e+01
   7.666801e+01  -6.311456e+01
   1.216241e+02  -4.855558e+01
   7.355652e+01   1.917677e+01
  -1.244220e+01   8.393046e+01
  -5.953626e+01   8.310259e+01
  -4.771472e+01   1.652751e+01
  -9.565638e+00  -4.881119e+01
   2.184405e+01  -4.965122e+01
   3.562813e+01   6.036026e+00
   2.870869e+01   5.238967e+01
   6.440750e-01   4.230445e+01
  -3.247730e+01  -3.179173e+00
  -4.235334e+01  -2.707638e+01
  -2.069314e+01  -6.788701e+00
   5.674809e+00   2.218684e+01
   7.119602e+00   1.412865e+01
  -8.661220e+00  -2.806043e+01
  -6.948331e+00  -5.448240e+01
   2.271911e+01  -2.820938e+01
   4.461437e+01   2.841253e+01
   1.994183e+01   5.679657e+01
  -3.683287e+01   2.746292e+01
  -6.397655e+01  -2.877960e+01
  -2.154840e+01  -5.722146e+01
   5.658766e+01  -3.633326e+01
   9.319711e+01   8.944562e+00
   5.054903e+01   4.183535e+01
  -2.762429e+01   4.696587e+01
  -6.378789e+01   3.096370e+01
  -3.061402e+01   8.137513e+00
   2.287424e+01  -5.507751e+00
   2.996804e+01   1.806560e+00
  -1.921388e+01   2.125143e+01
  -6.980445e+01   2.027563e+01
