
 $NMID
 id='ANONYMOUS ', fmtdat='(2E16.6)'
 volume=1.0
 tramp=1.0
 $END
  -3.798960e+03  -2.618910e+01
  -2.359588e+03  -2.075774e+03
   2.757802e+02  -2.376751e+03
   1.597486e+03  -1.147902e+03
   9.577492e+02   9.850859e+01
  -2.331844e+02   3.235668e+02
  -5.682440e+02  -2.463917e+02
  -1.883926e+01  -7.654784e+02
   6.143842e+02  -6.720059e+02
   7.775387e+02  -1.858819e+01
   4.502276e+02   6.618028e+02
  -8.874307e+01   7.606199e+02
  -4.379719e+02   1.594546e+02
  -3.024006e+02  -5.514827e+02
   1.806106e+02  -6.409910e+02
   4.958152e+02  -4.807245e+01
   3.008668e+02   5.782254e+02
  -1.981183e+02   6.506032e+02
  -5.232878e+02   2.209565e+02
  -4.380481e+02  -2.425640e+02
  -9.648729e+01  -4.006905e+02
   1.701504e+02  -2.612995e+02
   1.249124e+02  -5.535220e+01
  -1.714617e+02  -2.899544e+01
  -3.455015e+02  -2.304422e+02
  -6.462124e+01  -4.119281e+02
   4.956409e+02  -2.681455e+02
   7.296993e+02   1.580118e+02
   3.063227e+02   4.552577e+02
  -3.725075e+02   3.172766e+02
  -6.207268e+02  -1.071289e+02
  -2.551959e+02  -4.288905e+02
   2.853093e+02  -4.304487e+02
   5.188313e+02  -1.614200e+02
   3.710105e+02   1.933376e+02
   7.926927e+01   3.853574e+02
  -9.841501e+01   2.245795e+02
  -3.554151e+01  -1.505949e+02
   1.914871e+02  -2.736171e+02
   3.101870e+02   1.085283e+02
   9.963731e+01   5.953333e+02
  -2.936034e+02   5.594670e+02
  -4.479292e+02  -6.284026e+00
  -1.731437e+02  -4.245052e+02
   2.167362e+02  -2.111213e+02
   2.628389e+02   3.093809e+02
  -1.036239e+02   4.682946e+02
  -5.080606e+02   8.875661e+01
  -5.490190e+02  -4.014821e+02
  -1.663214e+02  -5.503988e+02
   3.442132e+02  -3.084499e+02
   5.822183e+02   7.030896e+01
   3.652151e+02   3.116033e+02
  -9.233635e+01   2.862722e+02
  -3.582246e+02   7.348447e+01
  -2.304390e+02  -9.284056e+01
   4.235511e+01  -5.192213e+01
   8.424572e+01   9.327972e+01
  -1.322027e+02   1.087745e+02
  -2.824947e+02  -6.186205e+01
  -1.344375e+02  -2.413150e+02
   1.764155e+02  -2.610295e+02
   3.497792e+02  -1.217695e+02
   2.523763e+02   9.228687e+01
  -1.760856e+01   2.982217e+02
  -2.757576e+02   3.718193e+02
  -3.740178e+02   1.932871e+02
  -2.682865e+02  -1.607429e+02
  -6.168938e+01  -4.046614e+02
   6.793709e+01  -3.537043e+02
   5.671705e+01  -1.533391e+02
   2.630280e+01  -6.699275e+01
   1.062412e+02  -1.148732e+02
   2.431317e+02  -8.929433e+01
   2.690952e+02   1.004725e+02
   1.209246e+02   2.758834e+02
  -9.235669e+01   2.264273e+02
  -2.152001e+02  -2.423339e+01
  -1.654034e+02  -2.552313e+02
   3.672528e+01  -2.787715e+02
   2.661980e+02  -8.545753e+01
   3.413142e+02   1.785291e+02
   1.817887e+02   3.303138e+02
  -7.165290e+01   2.903015e+02
  -1.939615e+02   1.467975e+02
  -1.511700e+02   5.621045e+01
  -1.344616e+02   6.195922e+01
  -2.742267e+02   5.257777e+01
  -4.263466e+02  -8.253100e+01
  -3.398823e+02  -3.042012e+02
   1.548076e+01  -4.584963e+02
   3.878945e+02  -4.216011e+02
   5.022713e+02  -1.927795e+02
   3.175784e+02   1.028519e+02
   3.229102e+01   2.789386e+02
  -1.126678e+02   2.248130e+02
  -3.763847e+01   3.278600e+01
   1.226139e+02  -6.783891e+01
   1.618868e+02   3.009924e+01
   2.220310e+01   1.698470e+02
  -1.411092e+02   1.324203e+02
  -1.397851e+02  -6.056518e+01
   2.791856e+01  -1.602175e+02
   1.818627e+02  -1.131107e+01
   1.626665e+02   2.491904e+02
  -2.375553e+01   3.581925e+02
  -2.459674e+02   2.127025e+02
  -3.611865e+02  -6.122924e+01
  -2.925367e+02  -2.635062e+02
  -7.727739e+01  -2.837509e+02
   1.293079e+02  -1.547790e+02
   1.678242e+02  -1.074608e+01
   4.428735e+01   2.236183e+01
  -6.145782e+01  -5.660124e+01
  -7.862756e+00  -1.245159e+02
   1.309565e+02  -8.183242e+01
   1.654240e+02   2.415849e+01
   4.159598e+01   6.517155e+01
  -8.671128e+01  -2.316556e+00
  -4.759823e+01  -9.095278e+01
   1.457367e+02  -9.326466e+01
   3.086881e+02   1.301032e+01
   2.723700e+02   1.662449e+02
   4.169085e+01   2.728621e+02
  -2.087574e+02   2.553345e+02
  -2.865292e+02   1.113496e+02
  -1.549251e+02  -5.114040e+01
   3.075727e+01  -9.318308e+01
   7.733716e+01   1.626706e+00
  -4.911478e+01   9.255202e+01
  -1.978723e+02   4.390757e+01
  -2.052184e+02  -1.085312e+02
  -6.255559e+01  -2.033281e+02
   9.517835e+01  -1.491311e+02
   1.375863e+02  -2.116147e+01
   5.644713e+01   4.095160e+01
  -4.065286e+01  -1.271540e+01
  -3.400621e+01  -1.057644e+02
   9.158471e+01  -1.232759e+02
   2.163102e+02  -2.035809e+01
   1.942030e+02   1.362494e+02
   1.497911e+01   2.211859e+02
  -1.658452e+02   1.615607e+02
  -1.882793e+02   9.396788e+00
  -6.025845e+01  -1.058792e+02
   6.652904e+01  -1.047104e+02
   7.774431e+01  -2.725422e+01
   7.143881e+00   2.729133e+01
  -3.401931e+01   1.360547e+01
   8.366279e+00  -2.081654e+01
   8.572793e+01   3.126537e-02
   1.050353e+02   9.068105e+01
   1.479492e+01   1.774965e+02
  -1.423461e+02   1.611813e+02
  -2.477436e+02   1.717516e+01
  -2.046763e+02  -1.621225e+02
  -4.070669e+01  -2.410295e+02
   1.080101e+02  -1.696544e+02
   1.364332e+02  -3.119709e+01
   7.533607e+01   4.927051e+01
   3.325860e+01   3.203814e+01
   5.701270e+01  -1.470518e+01
   8.869980e+01  -8.079577e+00
   5.478462e+01   5.610708e+01
  -4.071002e+01   1.048339e+02
  -1.201500e+02   6.856845e+01
  -1.053378e+02  -4.153719e+01
   1.494889e+01  -1.293924e+02
   1.627140e+02  -9.482533e+01
   2.129594e+02   6.211554e+01
   9.525101e+01   2.187678e+02
  -1.234324e+02   2.348754e+02
  -2.789855e+02   9.081986e+01
  -2.593050e+02  -9.241127e+01
  -1.065448e+02  -1.786991e+02
   4.126582e+01  -1.467764e+02
   9.392762e+01  -8.455150e+01
   7.524725e+01  -7.236782e+01
   6.271531e+01  -9.707099e+01
   9.394679e+01  -8.154541e+01
   1.358270e+02   1.918067e+01
   1.243906e+02   1.593620e+02
   2.977214e+01   2.348800e+02
  -1.033367e+02   1.756589e+02
  -1.791912e+02   1.530814e+01
  -1.355892e+02  -1.305184e+02
  -1.333949e+01  -1.641034e+02
   7.615596e+01  -8.851741e+01
   6.533069e+01   9.608989e+00
  -3.342779e-01   5.281030e+01
  -2.233415e+01   3.799728e+01
   3.102702e+01   1.476569e+01
   8.609162e+01   1.931757e+01
   5.074938e+01   4.059451e+01
  -7.276315e+01   4.154092e+01
  -1.759825e+02   1.302885e+00
  -1.508128e+02  -6.139128e+01
  -5.442524e+00  -9.974882e+01
   1.351557e+02  -7.803714e+01
   1.516400e+02  -8.922846e+00
   4.814689e+01   4.934645e+01
  -6.184034e+01   4.398073e+01
  -8.065971e+01  -1.845671e+01
  -1.705154e+01  -7.433303e+01
   5.008549e+01  -6.594842e+01
   6.952180e+01  -1.961525e+00
   5.630115e+01   5.143240e+01
   4.891768e+01   4.411621e+01
   5.943956e+01   1.976463e+00
   6.794904e+01   6.340280e-01
   4.412408e+01   7.314209e+01
  -2.838099e+01   1.566337e+02
  -1.265271e+02   1.516649e+02
  -1.825179e+02   3.685761e+01
  -1.344932e+02  -9.617676e+01
  -4.869986e+00  -1.365698e+02
   9.343994e+01  -7.073382e+01
   6.395517e+01   1.183031e+01
  -6.049667e+01   2.165279e+01
  -1.402241e+02  -4.292796e+01
  -7.550253e+01  -1.104540e+02
   8.537887e+01  -1.148699e+02
   1.968396e+02  -4.912837e+01
   1.648336e+02   3.960408e+01
   3.420890e+01   8.894924e+01
  -6.573225e+01   6.675545e+01
  -5.102261e+01   1.675783e+00
   4.081545e+01  -3.139834e+01
   9.569366e+01   2.015118e+01
   4.035229e+01   1.202092e+02
  -8.415779e+01   1.615498e+02
  -1.653795e+02   7.196668e+01
  -1.318280e+02  -9.610049e+01
  -1.682903e+01  -2.004013e+02
   8.494281e+01  -1.473498e+02
   1.082767e+02   9.579520e+00
   5.982456e+01   1.238140e+02
  -9.514049e+00   1.083787e+02
  -5.190532e+01   1.761475e+01
  -4.941546e+01  -3.312036e+01
  -2.030084e+01  -8.375603e+00
  -5.528045e+00   1.926868e+01
  -2.891975e+01  -1.933826e+01
  -6.009235e+01  -9.226930e+01
  -3.701249e+01  -1.104525e+02
   5.489667e+01  -4.572690e+01
   1.416180e+02   3.818788e+01
   1.299418e+02   7.164651e+01
   1.945065e+01   5.386072e+01
  -8.529287e+01   2.604748e+01
  -9.019923e+01   7.196604e+00
  -1.629624e+01  -1.020378e+01
   3.678442e+01  -2.260265e+01
   1.864828e+01  -1.538825e+01
  -1.724952e+01   3.139753e+00
   3.741155e+00   6.990842e+00
   7.111448e+01   1.242518e-01
   9.604171e+01   2.199660e+01
   1.935998e+01   8.280704e+01
  -1.130910e+02   1.219511e+02
  -1.929468e+02   6.887653e+01
  -1.551743e+02  -6.090133e+01
  -3.333587e+01  -1.650793e+02
   8.067184e+01  -1.602090e+02
   1.189704e+02  -6.745054e+01
   8.361028e+01   1.956038e+01
   2.754294e+01   3.816450e+01
   1.233942e+00   1.189992e+01
   1.354969e+01   7.055545e+00
   3.294762e+01   4.964098e+01
   2.107673e+01   9.409653e+01
  -2.942990e+01   7.468242e+01
  -8.205582e+01  -1.572475e+01
  -8.293618e+01  -1.060589e+02
  -1.308956e+01  -1.141504e+02
   7.893024e+01  -3.136365e+01
   1.089879e+02   6.878252e+01
   4.052226e+01   1.058576e+02
  -6.562057e+01   6.476227e+01
  -1.056434e+02  -7.438786e+00
  -4.651785e+01  -5.684104e+01
   3.371093e+01  -6.135083e+01
   3.840509e+01  -3.094750e+01
  -2.914145e+01   4.411689e+00
  -7.080947e+01   9.478214e+00
  -1.844300e+01  -2.712751e+01
   8.060805e+01  -6.900221e+01
   1.231692e+02  -5.863129e+01
   7.194384e+01   1.466488e+01
  -1.343195e+01   8.753784e+01
  -5.718901e+01   8.599994e+01
  -4.358010e+01   1.213266e+01
  -6.278541e+00  -5.481380e+01
   2.412995e+01  -4.851784e+01
   3.772721e+01   1.256890e+01
   2.972913e+01   5.522248e+01
  -4.529055e-01   3.894718e+01
  -3.436015e+01  -5.768911e+00
  -4.334515e+01  -2.421769e+01
  -2.176648e+01  -3.566384e+00
   3.618044e+00   1.859152e+01
   7.663806e+00   5.117233e+00
  -9.859472e-01  -3.384435e+01
   4.795231e+00  -5.127474e+01
   2.843860e+01  -1.840270e+01
   3.904816e+01   3.810328e+01
   9.550141e+00   6.123992e+01
  -4.236754e+01   2.545965e+01
  -6.318789e+01  -3.481961e+01
  -1.953937e+01  -6.274191e+01
   5.762984e+01  -3.768681e+01
   9.518974e+01   1.137430e+01
   5.276533e+01   4.415782e+01
  -2.872726e+01   4.613604e+01
  -6.671764e+01   2.811717e+01
  -2.831055e+01   7.239928e+00
   3.179232e+01  -1.730024e+00
   3.560091e+01   9.201591e+00
  -2.624172e+01   2.803936e+01
  -8.463576e+01   2.191006e+01
