
 $NMID
 id='ANONYMOUS ', fmtdat='(2E16.6)'
 volume=1.0
 tramp=1.0
 $END
   4.400945e+03  -1.776280e+01
   2.521944e+03   2.687670e+03
  -8.346565e+02   2.777582e+03
  -2.185003e+03   7.954653e+02
  -9.051947e+02  -7.802107e+02
   7.594318e+02  -6.139566e+02
   9.465839e+02   4.862912e+02
  -2.621176e+01   1.122416e+03
  -8.717605e+02   7.858576e+02
  -9.575940e+02  -1.290222e+02
  -4.341376e+02  -8.986158e+02
   2.805012e+02  -9.007075e+02
   6.744143e+02  -9.420851e+01
   3.920113e+02   7.528308e+02
  -2.915814e+02   7.613680e+02
  -6.238910e+02  -2.455404e+01
  -2.581893e+02  -6.961625e+02
   3.481734e+02  -6.164040e+02
   5.840884e+02  -5.720861e+01
   3.653045e+02   3.703767e+02
  -3.515481e+00   4.354055e+02
  -2.546984e+02   2.574326e+02
  -2.285645e+02   4.649392e+00
   1.024680e+02  -1.149101e+02
   4.198133e+02   8.393060e+01
   2.282508e+02   4.330106e+02
  -4.477671e+02   4.425983e+02
  -8.670405e+02  -5.626161e+01
  -4.512060e+02  -5.663494e+02
   3.961822e+02  -5.166437e+02
   7.664330e+02   2.016893e+01
   3.631985e+02   4.897726e+02
  -2.786631e+02   5.321642e+02
  -5.696845e+02   2.086711e+02
  -4.204755e+02  -2.329355e+02
  -6.603540e+01  -4.885994e+02
   2.215006e+02  -2.915703e+02
   2.003641e+02   2.346094e+02
  -1.608021e+02   4.717572e+02
  -4.757908e+02   2.411297e-01
  -2.758281e+02  -6.967291e+02
   3.226454e+02  -7.274603e+02
   6.348422e+02  -3.715181e+00
   2.751968e+02   5.801432e+02
  -3.080474e+02   3.405429e+02
  -4.111044e+02  -3.247025e+02
   5.756307e+01  -5.596621e+02
   5.583977e+02  -1.475133e+02
   5.979659e+02   3.996776e+02
   1.648832e+02   5.837092e+02
  -3.849186e+02   3.507927e+02
  -6.309568e+02  -7.206218e+01
  -3.703393e+02  -3.946120e+02
   1.675549e+02  -3.780214e+02
   4.572439e+02  -5.015839e+01
   2.389588e+02   2.187102e+02
  -1.375197e+02   1.183989e+02
  -1.565105e+02  -1.682664e+02
   1.719144e+02  -2.050973e+02
   3.594695e+02   7.586104e+01
   1.414191e+02   3.100301e+02
  -2.072132e+02   2.546139e+02
  -3.187282e+02   6.030996e+01
  -1.772958e+02  -7.971761e+01
   2.415902e+01  -1.975591e+02
   1.965013e+02  -3.079328e+02
   3.184673e+02  -2.245771e+02
   2.938470e+02   1.243539e+02
   8.605979e+01   4.357921e+02
  -1.233153e+02   3.859245e+02
  -1.349231e+02   9.950745e+01
  -2.242895e+01  -3.247297e+01
  -2.242057e+01   7.932171e+01
  -1.765344e+02   1.423048e+02
  -2.779133e+02  -3.451236e+01
  -1.709769e+02  -2.626197e+02
   6.179772e+01  -2.624395e+02
   2.279085e+02  -2.317411e+01
   2.066953e+02   2.305091e+02
   6.445883e-01   2.946832e+02
  -2.606179e+02   1.266484e+02
  -3.616244e+02  -1.570291e+02
  -1.881553e+02  -3.481937e+02
   1.021045e+02  -3.062671e+02
   2.302031e+02  -1.134424e+02
   1.466222e+02   7.779861e+00
   8.581149e+01  -2.798319e+01
   2.156267e+02  -7.015979e+01
   3.843795e+02   4.322118e+01
   3.253592e+02   2.681425e+02
   7.208837e+00   4.272884e+02
  -3.376212e+02   4.048855e+02
  -4.699546e+02   2.041009e+02
  -3.353282e+02  -8.490933e+01
  -6.288908e+01  -2.922656e+02
   1.305561e+02  -2.570656e+02
   9.303913e+01  -2.784986e+01
  -1.039635e+02   1.191771e+02
  -2.040200e+02   2.524661e+00
  -5.938557e+01  -2.009094e+02
   1.641354e+02  -1.821765e+02
   1.888390e+02   5.882255e+01
  -1.270378e+01   2.001759e+02
  -1.950418e+02   4.054597e+01
  -1.630912e+02  -2.404611e+02
   2.956517e+01  -3.386122e+02
   2.178960e+02  -1.841534e+02
   3.071987e+02   5.775508e+01
   2.684320e+02   2.211715e+02
   1.009461e+02   2.499339e+02
  -1.041916e+02   1.598673e+02
  -1.769584e+02   2.521767e+01
  -6.232378e+01  -3.463993e+01
   7.187627e+01   3.161169e+01
   3.710497e+01   1.230728e+02
  -1.187077e+02   1.050769e+02
  -1.797441e+02  -7.269045e+00
  -6.304267e+01  -7.356508e+01
   7.650387e+01  -2.342739e+01
   5.774254e+01   6.507831e+01
  -1.115259e+02   8.410506e+01
  -2.653026e+02   7.409847e+00
  -2.550610e+02  -1.241167e+02
  -6.791926e+01  -2.418997e+02
   1.686439e+02  -2.589441e+02
   2.750002e+02  -1.317279e+02
   1.722213e+02   4.919615e+01
  -2.114189e+01   1.135705e+02
  -9.412648e+01   1.218941e+01
   2.540681e+01  -1.033347e+02
   1.904184e+02  -6.583203e+01
   2.129413e+02   9.584327e+01
   7.248099e+01   2.044671e+02
  -9.057972e+01   1.589090e+02
  -1.432228e+02   3.260261e+01
  -7.451195e+01  -4.071723e+01
   2.311206e+01  -9.431534e+00
   3.948360e+01   7.228230e+01
  -6.038217e+01   1.074654e+02
  -1.855169e+02   3.437578e+01
  -1.874506e+02  -1.125922e+02
  -2.603537e+01  -2.113503e+02
   1.583417e+02  -1.633569e+02
   1.918313e+02  -7.269339e+00
   6.689549e+01   1.148065e+02
  -6.436025e+01   1.126739e+02
  -8.348555e+01   3.203432e+01
  -2.264756e+01  -2.529243e+01
   1.648154e+01  -2.081313e+01
  -9.183470e+00   3.212748e+00
  -6.284352e+01  -9.839775e+00
  -8.070291e+01  -7.406349e+01
  -1.765195e+01  -1.458501e+02
   1.137095e+02  -1.467152e+02
   2.211919e+02  -3.204745e+01
   1.974140e+02   1.381179e+02
   4.462034e+01   2.288506e+02
  -1.043070e+02   1.669490e+02
  -1.318263e+02   2.684477e+01
  -6.747606e+01  -5.548433e+01
  -2.638002e+01  -3.577957e+01
  -5.022928e+01   1.168895e+01
  -7.393546e+01   7.000913e+00
  -3.683538e+01  -4.466167e+01
   3.952692e+01  -7.935238e+01
   9.128647e+01  -5.085694e+01
   7.628258e+01   2.987011e+01
  -9.916724e+00   1.000096e+02
  -1.275613e+02   8.290539e+01
  -1.862153e+02  -4.143227e+01
  -1.030367e+02  -1.873742e+02
   9.299668e+01  -2.216304e+02
   2.534029e+02  -9.972452e+01
   2.510283e+02   7.734500e+01
   1.102786e+02   1.697716e+02
  -3.485481e+01   1.439909e+02
  -9.109583e+01   8.282273e+01
  -7.758798e+01   6.717269e+01
  -6.483672e+01   8.649617e+01
  -8.763140e+01   7.030377e+01
  -1.214982e+02  -2.043325e+01
  -1.135410e+02  -1.454572e+02
  -3.188570e+01  -2.154237e+02
   9.160906e+01  -1.671672e+02
   1.688365e+02  -2.427496e+01
   1.345210e+02   1.132254e+02
   2.293530e+01   1.532647e+02
  -6.121802e+01   9.216997e+01
  -5.702471e+01   5.204500e+00
  -7.572459e+00  -3.801686e+01
   5.476356e+00  -3.301120e+01
  -3.672556e+01  -1.872885e+01
  -7.422540e+01  -2.188598e+01
  -4.165779e+01  -3.524873e+01
   5.774175e+01  -3.522860e+01
   1.462234e+02  -6.213450e+00
   1.367766e+02   4.397692e+01
   1.983406e+01   8.201519e+01
  -1.103358e+02   7.232501e+01
  -1.380363e+02   1.659234e+01
  -4.787467e+01  -3.612648e+01
   5.667625e+01  -3.478262e+01
   7.182276e+01   1.734303e+01
   5.503693e+00   6.337341e+01
  -5.448797e+01   5.350223e+01
  -5.880529e+01  -2.250130e+00
  -3.918082e+01  -4.664598e+01
  -4.066891e+01  -3.884231e+01
  -5.975026e+01  -1.780469e+00
  -6.317355e+01   1.995311e-01
  -3.205484e+01  -6.245159e+01
   3.079950e+01  -1.367305e+02
   1.064483e+02  -1.343380e+02
   1.514288e+02  -3.368837e+01
   1.162605e+02   8.393413e+01
   8.965487e+00   1.180341e+02
  -7.908361e+01   5.761780e+01
  -5.637751e+01  -1.453545e+01
   5.614438e+01  -1.956291e+01
   1.320019e+02   4.025227e+01
   7.474162e+01   1.014845e+02
  -7.463542e+01   1.086919e+02
  -1.816028e+02   5.364749e+01
  -1.568143e+02  -2.856172e+01
  -3.818469e+01  -8.254863e+01
   5.649723e+01  -6.987478e+01
   4.689827e+01  -9.681409e+00
  -3.599900e+01   2.502992e+01
  -8.562238e+01  -2.100343e+01
  -3.086942e+01  -1.128592e+02
   8.796061e+01  -1.467702e+02
   1.604634e+02  -5.878376e+01
   1.212405e+02   9.634625e+01
   1.037560e+01   1.887076e+02
  -8.060533e+01   1.387808e+02
  -9.981136e+01  -4.004672e+00
  -6.051158e+01  -1.109796e+02
  -2.254243e+00  -1.025135e+02
   4.208061e+01  -2.127345e+01
   5.148798e+01   2.897968e+01
   2.696446e+01   8.443547e+00
   3.110070e+00  -2.041953e+01
   1.749781e+01   1.229156e+01
   5.343261e+01   8.307183e+01
   4.352184e+01   1.048948e+02
  -4.187561e+01   4.444769e+01
  -1.324214e+02  -3.670536e+01
  -1.259930e+02  -6.673597e+01
  -1.711530e+01  -4.616142e+01
   8.510006e+01  -2.083606e+01
   8.444541e+01  -8.624665e+00
   8.869159e+00   5.646406e+00
  -3.748857e+01   2.172400e+01
  -1.207691e+01   1.891636e+01
   2.185711e+01  -8.430518e-01
  -6.133998e+00  -9.534369e+00
  -7.234354e+01  -4.539692e+00
  -8.661611e+01  -2.241361e+01
  -5.345479e+00  -7.553867e+01
   1.142723e+02  -1.079379e+02
   1.746784e+02  -5.484278e+01
   1.317894e+02   6.481417e+01
   2.387839e+01   1.539564e+02
  -7.331400e+01   1.413765e+02
  -1.070110e+02   5.455897e+01
  -7.653669e+01  -2.045672e+01
  -2.353019e+01  -3.267689e+01
   4.022787e+00  -7.031749e+00
  -8.896539e+00  -2.555770e+00
  -3.255103e+01  -4.224387e+01
  -2.351512e+01  -8.498730e+01
   2.712635e+01  -6.806897e+01
   7.763363e+01   1.796190e+01
   7.286925e+01   1.037775e+02
   2.241856e+00   1.065330e+02
  -7.958957e+01   2.079336e+01
  -9.716846e+01  -7.344943e+01
  -2.894979e+01  -9.779561e+01
   6.306202e+01  -5.082107e+01
   9.113724e+01   1.158325e+01
   3.591617e+01   4.565806e+01
  -3.008606e+01   4.676958e+01
  -2.719345e+01   2.682014e+01
   3.410489e+01   9.027350e-01
   6.580687e+01  -6.188210e+00
   1.345609e+01   2.303969e+01
  -7.479041e+01   6.311658e+01
  -1.078083e+02   5.775929e+01
  -5.874134e+01  -9.463683e+00
   1.495913e+01  -7.812819e+01
   4.832773e+01  -7.464761e+01
   3.281963e+01  -3.929713e+00
   1.988089e-01   5.368213e+01
  -2.453968e+01   3.931333e+01
  -3.428096e+01  -1.913084e+01
  -2.491265e+01  -5.097371e+01
   2.859880e+00  -2.930149e+01
   3.125015e+01   8.780878e+00
   3.717301e+01   1.855370e+01
   1.951465e+01  -3.465950e-02
  -9.000195e-02  -1.188037e+01
  -6.707654e+00   5.686793e+00
  -8.685703e+00   3.559546e+01
  -1.899997e+01   4.014681e+01
  -3.149721e+01   3.846785e+00
  -2.605128e+01  -4.469000e+01
   5.327841e+00  -5.768258e+01
   4.308918e+01  -1.830272e+01
   5.197690e+01   3.830299e+01
   1.267588e+01   6.021559e+01
  -5.120446e+01   3.192909e+01
  -8.289909e+01  -1.511747e+01
  -4.615131e+01  -4.162076e+01
   2.702398e+01  -3.746527e+01
   6.092363e+01  -1.881925e+01
   2.167658e+01  -4.243517e+00
  -3.731568e+01  -3.469339e+00
  -3.661343e+01  -1.707970e+01
   3.088874e+01  -3.099661e+01
   8.935799e+01  -1.848223e+01
