
 $NMID
 id='ANONYMOUS ', fmtdat='(2E16.6)'
 volume=1.0
 tramp=1.0
 $END
  -4.854605e+03   2.122242e+01
  -2.799946e+03  -2.964005e+03
   9.048832e+02  -3.082681e+03
   2.420275e+03  -9.047315e+02
   1.027730e+03   8.499823e+02
  -8.165390e+02   6.886358e+02
  -1.044241e+03  -5.207650e+02
   1.878679e+01  -1.234059e+03
   9.570010e+02  -8.730744e+02
   1.060472e+03   1.358416e+02
   4.864908e+02   9.908766e+02
  -3.036094e+02   9.997121e+02
  -7.428894e+02   1.125389e+02
  -4.359116e+02  -8.260423e+02
   3.184470e+02  -8.426872e+02
   6.899357e+02   2.287586e+01
   2.886307e+02   7.704558e+02
  -3.854356e+02   6.880999e+02
  -6.519321e+02   6.794386e+01
  -4.101502e+02  -4.110345e+02
   1.573596e+00  -4.851944e+02
   2.809407e+02  -2.874089e+02
   2.520720e+02  -9.734538e+00
  -1.103761e+02   1.196577e+02
  -4.564644e+02  -9.645048e+01
  -2.466099e+02  -4.735150e+02
   4.925493e+02  -4.808622e+02
   9.518328e+02   6.408086e+01
   4.970863e+02   6.203010e+02
  -4.326049e+02   5.652347e+02
  -8.409122e+02  -2.283591e+01
  -3.990847e+02  -5.380578e+02
   3.073441e+02  -5.847367e+02
   6.285602e+02  -2.289826e+02
   4.646853e+02   2.568485e+02
   7.532012e+01   5.388966e+02
  -2.403298e+02   3.247765e+02
  -2.191636e+02  -2.516751e+02
   1.733759e+02  -5.145136e+02
   5.176169e+02  -1.308369e+00
   3.008706e+02   7.629045e+02
  -3.532657e+02   8.002570e+02
  -6.971100e+02   8.235215e+00
  -3.051523e+02  -6.350955e+02
   3.348884e+02  -3.754372e+02
   4.498972e+02   3.552240e+02
  -6.419344e+01   6.149953e+02
  -6.153187e+02   1.609289e+02
  -6.588283e+02  -4.436646e+02
  -1.811880e+02  -6.463643e+02
   4.251017e+02  -3.870311e+02
   6.970983e+02   8.085506e+01
   4.114562e+02   4.361411e+02
  -1.814549e+02   4.181235e+02
  -5.046225e+02   5.802255e+01
  -2.684002e+02  -2.392426e+02
   1.473432e+02  -1.322730e+02
   1.733539e+02   1.819619e+02
  -1.863422e+02   2.250098e+02
  -3.960134e+02  -8.225134e+01
  -1.576817e+02  -3.417121e+02
   2.300628e+02  -2.824405e+02
   3.567188e+02  -6.588110e+01
   1.977612e+02   9.253866e+01
  -3.154445e+01   2.220138e+02
  -2.240916e+02   3.388826e+02
  -3.542501e+02   2.440344e+02
  -3.226356e+02  -1.392317e+02
  -9.372669e+01  -4.811825e+02
   1.354781e+02  -4.280996e+02
   1.497080e+02  -1.143275e+02
   2.878657e+01   3.321679e+01
   2.917934e+01  -8.546959e+01
   1.961122e+02  -1.524931e+02
   3.047437e+02   4.121214e+01
   1.860607e+02   2.901017e+02
  -6.919725e+01   2.880669e+02
  -2.502613e+02   2.364098e+01
  -2.255842e+02  -2.554060e+02
   1.202553e+00  -3.244177e+02
   2.877927e+02  -1.375481e+02
   3.983040e+02   1.755090e+02
   2.072458e+02   3.857728e+02
  -1.130069e+02   3.394670e+02
  -2.557595e+02   1.270013e+02
  -1.650627e+02  -7.567469e+00
  -9.801520e+01   2.966165e+01
  -2.402396e+02   7.378991e+01
  -4.252304e+02  -5.259795e+01
  -3.580729e+02  -3.002402e+02
  -3.986228e+00  -4.733395e+02
   3.780974e+02  -4.453189e+02
   5.220355e+02  -2.221596e+02
   3.697460e+02   9.549650e+01
   6.785325e+01   3.223898e+02
  -1.440113e+02   2.838372e+02
  -1.017042e+02   3.276617e+01
   1.142348e+02  -1.291975e+02
   2.234031e+02  -2.511054e+00
   6.492415e+01   2.203849e+02
  -1.799860e+02   2.004028e+02
  -2.073197e+02  -6.415148e+01
   1.389714e+01  -2.198350e+02
   2.146553e+02  -4.361020e+01
   1.791187e+02   2.673707e+02
  -3.498801e+01   3.757328e+02
  -2.442254e+02   2.026595e+02
  -3.414737e+02  -6.771909e+01
  -2.952855e+02  -2.485140e+02
  -1.085316e+02  -2.773924e+02
   1.167317e+02  -1.754076e+02
   1.952657e+02  -2.700503e+01
   6.880840e+01   3.757372e+01
  -7.814176e+01  -3.570000e+01
  -3.956026e+01  -1.353680e+02
   1.314286e+02  -1.146165e+02
   1.979406e+02   8.856517e+00
   6.915799e+01   8.067211e+01
  -8.412757e+01   2.439051e+01
  -6.229858e+01  -7.273750e+01
   1.253360e+02  -9.152492e+01
   2.943837e+02  -4.571289e+00
   2.807461e+02   1.406726e+02
   7.202637e+01   2.681453e+02
  -1.891111e+02   2.842792e+02
  -3.047609e+02   1.434972e+02
  -1.899144e+02  -5.468698e+01
   2.343961e+01  -1.246868e+02
   1.032520e+02  -1.330080e+01
  -2.892575e+01   1.130556e+02
  -2.105742e+02   7.103473e+01
  -2.346510e+02  -1.072590e+02
  -7.903910e+01  -2.263869e+02
   1.008410e+02  -1.750915e+02
   1.581629e+02  -3.529912e+01
   8.177684e+01   4.474177e+01
  -2.528915e+01   8.961432e+00
  -4.187683e+01  -8.104603e+01
   6.897672e+01  -1.179677e+02
   2.060174e+02  -3.552209e+01
   2.063358e+02   1.265994e+02
   2.708862e+01   2.340741e+02
  -1.763239e+02   1.798167e+02
  -2.124864e+02   7.332982e+00
  -7.369658e+01  -1.269469e+02
   7.157618e+01  -1.241599e+02
   9.225835e+01  -3.516384e+01
   2.441279e+01   2.756301e+01
  -1.859822e+01   2.205254e+01
   1.086740e+01  -4.080293e+00
   7.064470e+01   1.182100e+01
   8.910169e+01   8.390052e+01
   1.749400e+01   1.624743e+02
  -1.281002e+02   1.612459e+02
  -2.453573e+02   3.291511e+01
  -2.172498e+02  -1.549509e+02
  -4.771164e+01  -2.539042e+02
   1.165571e+02  -1.843445e+02
   1.464552e+02  -2.904498e+01
   7.495637e+01   6.190683e+01
   2.940438e+01   3.991907e+01
   5.601704e+01  -1.252422e+01
   8.241580e+01  -6.839043e+00
   4.066923e+01   5.071090e+01
  -4.521940e+01   8.842536e+01
  -1.029388e+02   5.526996e+01
  -8.476022e+01  -3.496942e+01
   1.279542e+01  -1.114124e+02
   1.432302e+02  -9.016473e+01
   2.060356e+02   4.848666e+01
   1.117273e+02   2.086736e+02
  -1.055255e+02   2.442134e+02
  -2.815706e+02   1.079390e+02
  -2.773152e+02  -8.766672e+01
  -1.208559e+02  -1.886932e+02
   3.960579e+01  -1.591449e+02
   1.014530e+02  -9.123465e+01
   8.639817e+01  -7.427789e+01
   7.259007e+01  -9.589644e+01
   9.804187e+01  -7.753401e+01
   1.349581e+02   2.375395e+01
   1.248291e+02   1.625129e+02
   3.343453e+01   2.392636e+02
  -1.029686e+02   1.845014e+02
  -1.870763e+02   2.538637e+01
  -1.477902e+02  -1.266250e+02
  -2.393922e+01  -1.698119e+02
   6.855647e+01  -1.010840e+02
   6.284453e+01  -4.707997e+00
   7.371920e+00   4.227589e+01
  -6.935360e+00   3.601300e+01
   4.057322e+01   2.057306e+01
   8.256946e+01   2.499650e+01
   4.603185e+01   3.976877e+01
  -6.483306e+01   3.833064e+01
  -1.626932e+02   4.836184e+00
  -1.510106e+02  -5.045869e+01
  -2.042649e+01  -9.089730e+01
   1.235385e+02  -7.875463e+01
   1.530751e+02  -1.693480e+01
   5.233091e+01   4.065635e+01
  -6.346765e+01   3.832401e+01
  -7.969093e+01  -1.994335e+01
  -5.701247e+00  -7.101396e+01
   6.097440e+01  -5.955008e+01
   6.561571e+01   3.077465e+00
   4.349904e+01   5.268509e+01
   4.489656e+01   4.370834e+01
   6.615399e+01   2.253763e+00
   7.008378e+01   3.002202e-01
   3.514052e+01   7.013374e+01
  -3.549707e+01   1.519951e+02
  -1.198532e+02   1.480013e+02
  -1.689552e+02   3.543406e+01
  -1.284283e+02  -9.462798e+01
  -8.494496e+00  -1.311763e+02
   8.883179e+01  -6.325893e+01
   6.271198e+01   1.659302e+01
  -6.249587e+01   2.128624e+01
  -1.461541e+02  -4.563079e+01
  -8.195872e+01  -1.130678e+02
   8.376397e+01  -1.197849e+02
   2.016841e+02  -5.779728e+01
   1.733517e+02   3.304731e+01
   4.151868e+01   9.165039e+01
  -6.306870e+01   7.665696e+01
  -5.179594e+01   1.008924e+01
   4.039447e+01  -2.754977e+01
   9.507397e+01   2.405406e+01
   3.363981e+01   1.257551e+02
  -9.861045e+01   1.627396e+02
  -1.786909e+02   6.453790e+01
  -1.341528e+02  -1.077152e+02
  -1.030910e+01  -2.096767e+02
   9.042307e+01  -1.534118e+02
   1.105657e+02   5.424984e+00
   6.595297e+01   1.235751e+02
   1.410869e+00   1.132620e+02
  -4.686258e+01   2.285535e+01
  -5.666006e+01  -3.238893e+01
  -2.962612e+01  -9.213279e+00
  -3.570407e+00   2.247012e+01
  -1.938530e+01  -1.436957e+01
  -5.861512e+01  -9.281411e+01
  -4.727935e+01  -1.162999e+02
   4.704191e+01  -4.854591e+01
   1.467131e+02   4.170709e+01
   1.391518e+02   7.483192e+01
   1.849680e+01   5.153811e+01
  -9.457251e+01   2.281788e+01
  -9.369112e+01   8.871722e+00
  -9.838843e+00  -6.732308e+00
   4.164126e+01  -2.393567e+01
   1.352554e+01  -2.052358e+01
  -2.416553e+01   1.082455e+00
   6.777431e+00   1.041703e+01
   8.024594e+01   5.194137e+00
   9.613084e+01   2.560811e+01
   5.689894e+00   8.447446e+01
  -1.276149e+02   1.194735e+02
  -1.948553e+02   5.959534e+01
  -1.465236e+02  -7.324230e+01
  -2.554640e+01  -1.713542e+02
   8.286221e+01  -1.565120e+02
   1.196680e+02  -5.982543e+01
   8.492416e+01   2.328331e+01
   2.580642e+01   3.663364e+01
  -4.525264e+00   8.127040e+00
   9.802333e+00   3.196394e+00
   3.556578e+01   4.718665e+01
   2.519690e+01   9.442436e+01
  -3.070833e+01   7.537100e+01
  -8.612454e+01  -2.037852e+01
  -8.042362e+01  -1.157685e+02
  -1.992865e+00  -1.186728e+02
   8.865764e+01  -2.299367e+01
   1.078153e+02   8.215377e+01
   3.162108e+01   1.091665e+02
  -7.072893e+01   5.630558e+01
  -1.014939e+02  -1.372465e+01
  -3.943417e+01  -5.150787e+01
   3.424292e+01  -5.195386e+01
   3.075405e+01  -2.925108e+01
  -3.783291e+01  -8.045796e-01
  -7.320137e+01   6.436034e+00
  -1.478033e+01  -2.590741e+01
   8.355485e+01  -6.949300e+01
   1.201882e+02  -6.286587e+01
   6.520844e+01   1.145171e+01
  -1.727625e+01   8.680949e+01
  -5.461136e+01   8.243625e+01
  -3.702478e+01   4.011895e+00
  -1.001624e-01  -5.973745e+01
   2.772617e+01  -4.372068e+01
   3.824478e+01   2.129400e+01
   2.732336e+01   5.690065e+01
  -3.622315e+00   3.282941e+01
  -3.478540e+01  -9.909787e+00
  -4.104380e+01  -2.114832e+01
  -2.153876e+01  -2.550332e-01
  -1.194827e-01   1.350386e+01
   7.053176e+00  -5.900724e+00
   9.428863e+00  -3.971817e+01
   2.125339e+01  -4.528130e+01
   3.539535e+01  -4.672339e+00
   2.929663e+01   4.994556e+01
  -5.871045e+00   6.456757e+01
  -4.807894e+01   2.031015e+01
  -5.786445e+01  -4.301882e+01
  -1.385624e+01  -6.710780e+01
   5.729373e+01  -3.503506e+01
   9.226905e+01   1.752288e+01
   5.101558e+01   4.666382e+01
  -3.051153e+01   4.156097e+01
  -6.811816e+01   2.060017e+01
  -2.435062e+01   4.420712e+00
   4.135525e+01   3.643920e+00
   4.075574e+01   1.881495e+01
  -3.410287e+01   3.427958e+01
  -9.905692e+01   2.033301e+01
