
 $NMID
 id='ANONYMOUS ', fmtdat='(2E16.6)'
 volume=1.0
 tramp=1.0
 $END
  -4.706624e+03   2.054859e+01
  -2.695639e+03  -2.888471e+03
   9.098910e+02  -2.981429e+03
   2.358486e+03  -8.388990e+02
   9.736535e+02   8.609776e+02
  -8.245204e+02   6.739018e+02
  -1.026025e+03  -5.216559e+02
   2.531963e+01  -1.209494e+03
   9.377980e+02  -8.438017e+02
   1.029020e+03   1.420847e+02
   4.638415e+02   9.673223e+02
  -3.057275e+02   9.674051e+02
  -7.287449e+02   1.007836e+02
  -4.228332e+02  -8.083759e+02
   3.143543e+02  -8.165652e+02
   6.705198e+02   2.808216e+01
   2.735824e+02   7.472311e+02
  -3.790133e+02   6.568764e+02
  -6.277126e+02   5.402537e+01
  -3.875766e+02  -4.018545e+02
   8.216062e+00  -4.668972e+02
   2.752401e+02  -2.748918e+02
   2.484360e+02  -4.505269e+00
  -1.035898e+02   1.261702e+02
  -4.463256e+02  -8.320955e+01
  -2.485298e+02  -4.588337e+02
   4.722287e+02  -4.755562e+02
   9.258232e+02   5.549088e+01
   4.866190e+02   6.053456e+02
  -4.198252e+02   5.570309e+02
  -8.195020e+02  -1.718242e+01
  -3.906518e+02  -5.224039e+02
   2.957033e+02  -5.694052e+02
   6.079064e+02  -2.233503e+02
   4.496111e+02   2.496470e+02
   7.053270e+01   5.245467e+02
  -2.400024e+02   3.149364e+02
  -2.208364e+02  -2.500456e+02
   1.670705e+02  -5.087391e+02
   5.105513e+02  -6.684475e+00
   3.006048e+02   7.425335e+02
  -3.430700e+02   7.804981e+02
  -6.827970e+02   6.485141e+00
  -2.985277e+02  -6.221773e+02
   3.296665e+02  -3.685734e+02
   4.427299e+02   3.442079e+02
  -5.914446e+01   5.980710e+02
  -5.954456e+02   1.587359e+02
  -6.371076e+02  -4.260155e+02
  -1.744147e+02  -6.230593e+02
   4.113902e+02  -3.747431e+02
   6.732566e+02   7.758259e+01
   3.949629e+02   4.242278e+02
  -1.804304e+02   4.070495e+02
  -4.911795e+02   5.324024e+01
  -2.567117e+02  -2.382427e+02
   1.490238e+02  -1.302617e+02
   1.705263e+02   1.809419e+02
  -1.830641e+02   2.224137e+02
  -3.856800e+02  -8.069750e+01
  -1.513435e+02  -3.329297e+02
   2.226352e+02  -2.707772e+02
   3.394942e+02  -6.016000e+01
   1.852342e+02   8.648521e+01
  -2.871667e+01   2.063692e+02
  -2.082994e+02   3.229308e+02
  -3.367463e+02   2.381082e+02
  -3.125914e+02  -1.312366e+02
  -9.192994e+01  -4.647606e+02
   1.338691e+02  -4.128243e+02
   1.481224e+02  -1.050682e+02
   2.575932e+01   3.862135e+01
   2.156406e+01  -8.115539e+01
   1.845454e+02  -1.515839e+02
   2.946055e+02   3.476963e+01
   1.828739e+02   2.784100e+02
  -6.457103e+01   2.798862e+02
  -2.421085e+02   2.612692e+01
  -2.203927e+02  -2.440785e+02
  -1.625754e+00  -3.134505e+02
   2.766410e+02  -1.355185e+02
   3.847423e+02   1.669110e+02
   1.998547e+02   3.716990e+02
  -1.104283e+02   3.269344e+02
  -2.474782e+02   1.195207e+02
  -1.572202e+02  -1.132774e+01
  -9.022718e+01   2.714684e+01
  -2.270128e+02   7.346432e+01
  -4.064651e+02  -4.649231e+01
  -3.441347e+02  -2.852355e+02
  -6.630075e+00  -4.530616e+02
   3.589037e+02  -4.281759e+02
   4.992535e+02  -2.155816e+02
   3.569448e+02   9.027238e+01
   6.755673e+01   3.111055e+02
  -1.397194e+02   2.748566e+02
  -1.013868e+02   3.036104e+01
   1.091626e+02  -1.281486e+02
   2.180980e+02  -4.271591e+00
   6.473821e+01   2.144224e+02
  -1.750616e+02   1.958528e+02
  -2.026954e+02  -6.203988e+01
   1.265571e+01  -2.142504e+02
   2.075895e+02  -4.400817e+01
   1.726928e+02   2.560482e+02
  -3.311640e+01   3.596461e+02
  -2.319569e+02   1.936207e+02
  -3.245773e+02  -6.339964e+01
  -2.831755e+02  -2.350358e+02
  -1.068999e+02  -2.644602e+02
   1.102650e+02  -1.694960e+02
   1.884564e+02  -2.708058e+01
   6.720063e+01   3.714630e+01
  -7.627586e+01  -3.264981e+01
  -4.024500e+01  -1.304088e+02
   1.256681e+02  -1.121311e+02
   1.914771e+02   7.296160e+00
   6.790124e+01   7.834971e+01
  -8.053644e+01   2.550010e+01
  -6.110482e+01  -6.819699e+01
   1.177952e+02  -8.808634e+01
   2.802336e+02  -6.972279e+00
   2.695037e+02   1.315648e+02
   7.193585e+01   2.558692e+02
  -1.785955e+02   2.743706e+02
  -2.921760e+02   1.399358e+02
  -1.837848e+02  -5.241991e+01
   2.202072e+01  -1.214036e+02
   1.005765e+02  -1.359856e+01
  -2.618170e+01   1.098167e+02
  -2.020893e+02   7.020256e+01
  -2.263771e+02  -1.019692e+02
  -7.695013e+01  -2.176564e+02
   9.648143e+01  -1.691417e+02
   1.525016e+02  -3.484571e+01
   7.988658e+01   4.315765e+01
  -2.346003e+01   1.046349e+01
  -4.130388e+01  -7.561115e+01
   6.369416e+01  -1.129026e+02
   1.960317e+02  -3.592639e+01
   1.983933e+02   1.195990e+02
   2.730725e+01   2.243889e+02
  -1.686697e+02   1.732988e+02
  -2.043693e+02   7.161841e+00
  -7.130882e+01  -1.225927e+02
   6.857432e+01  -1.199929e+02
   8.906994e+01  -3.415790e+01
   2.459528e+01   2.657356e+01
  -1.675804e+01   2.200891e+01
   1.019365e+01  -2.717406e+00
   6.616489e+01   1.153556e+01
   8.435765e+01   7.893241e+01
   1.778765e+01   1.539719e+02
  -1.206376e+02   1.546258e+02
  -2.341415e+02   3.346761e+01
  -2.088942e+02  -1.467924e+02
  -4.670390e+01  -2.431304e+02
   1.114183e+02  -1.771862e+02
   1.402920e+02  -2.791031e+01
   7.147380e+01   5.966375e+01
   2.777981e+01   3.845248e+01
   5.329071e+01  -1.202740e+01
   7.815141e+01  -6.872615e+00
   3.811936e+01   4.757709e+01
  -4.280343e+01   8.330888e+01
  -9.655041e+01   5.253945e+01
  -7.970453e+01  -3.218129e+01
   1.128341e+01  -1.051455e+02
   1.348800e+02  -8.663334e+01
   1.965668e+02   4.440765e+01
   1.087375e+02   1.983219e+02
  -9.871791e+01   2.344272e+02
  -2.687896e+02   1.051859e+02
  -2.662867e+02  -8.264473e+01
  -1.168203e+02  -1.805797e+02
   3.732898e+01  -1.528964e+02
   9.712236e+01  -8.774840e+01
   8.297779e+01  -7.110713e+01
   6.957098e+01  -9.149420e+01
   9.346559e+01  -7.398603e+01
   1.287112e+02   2.246322e+01
   1.196839e+02   1.548295e+02
   3.296324e+01   2.285552e+02
  -9.771355e+01   1.770560e+02
  -1.791615e+02   2.546612e+01
  -1.424197e+02  -1.202445e+02
  -2.410074e+01  -1.625523e+02
   6.475994e+01  -9.773638e+01
   6.006084e+01  -5.774450e+00
   7.939865e+00   3.973142e+01
  -5.370236e+00   3.455874e+01
   3.934016e+01   2.007481e+01
   7.852052e+01   2.386834e+01
   4.375897e+01   3.762290e+01
  -6.110258e+01   3.675138e+01
  -1.543655e+02   5.734070e+00
  -1.445126e+02  -4.682515e+01
  -2.105135e+01  -8.633934e+01
   1.167890e+02  -7.588991e+01
   1.462588e+02  -1.725994e+01
   5.055052e+01   3.807633e+01
  -6.041690e+01   3.637819e+01
  -7.601688e+01  -1.881638e+01
  -4.980446e+00  -6.728054e+01
   5.858931e+01  -5.638540e+01
   6.224779e+01   2.964578e+00
   4.078536e+01   4.993995e+01
   4.273057e+01   4.142927e+01
   6.359383e+01   2.057277e+00
   6.702932e+01   4.433008e-02
   3.322634e+01   6.639979e+01
  -3.370650e+01   1.446979e+02
  -1.132710e+02   1.415458e+02
  -1.601081e+02   3.461341e+01
  -1.225056e+02  -8.958371e+01
  -8.955474e+00  -1.248311e+02
   8.405489e+01  -6.026340e+01
   5.971867e+01   1.590576e+01
  -5.968503e+01   2.047867e+01
  -1.399872e+02  -4.330163e+01
  -7.902329e+01  -1.078928e+02
   7.946484e+01  -1.149842e+02
   1.927389e+02  -5.640920e+01
   1.662574e+02   3.059962e+01
   4.041390e+01   8.763080e+01
  -5.990545e+01   7.412355e+01
  -4.960740e+01   1.039122e+01
   3.833452e+01  -2.617848e+01
   9.068643e+01   2.285672e+01
   3.198909e+01   1.201200e+02
  -9.451606e+01   1.554451e+02
  -1.710420e+02   6.146378e+01
  -1.283380e+02  -1.031353e+02
  -9.979355e+00  -2.005474e+02
   8.621079e+01  -1.470332e+02
   1.057628e+02   4.519988e+00
   6.382434e+01   1.177730e+02
   2.432680e+00   1.086264e+02
  -4.438357e+01   2.244926e+01
  -5.470450e+01  -3.078747e+01
  -2.893630e+01  -8.925574e+00
  -3.250579e+00   2.171624e+01
  -1.798568e+01  -1.310173e+01
  -5.616211e+01  -8.835125e+01
  -4.614578e+01  -1.114079e+02
   4.421435e+01  -4.685092e+01
   1.404315e+02   3.959581e+01
   1.336338e+02   7.129026e+01
   1.782170e+01   4.892677e+01
  -9.073641e+01   2.171463e+01
  -8.964223e+01   8.861819e+00
  -9.032600e+00  -6.015953e+00
   4.000921e+01  -2.299014e+01
   1.257496e+01  -2.009416e+01
  -2.349514e+01   8.412684e-01
   6.648840e+00   1.021401e+01
   7.712365e+01   5.192727e+00
   9.175591e+01   2.432950e+01
   4.758384e+00   8.042548e+01
  -1.222847e+02   1.140126e+02
  -1.856524e+02   5.690709e+01
  -1.392338e+02  -7.002663e+01
  -2.434705e+01  -1.636894e+02
   7.856018e+01  -1.493488e+02
   1.138579e+02  -5.698566e+01
   8.113715e+01   2.218532e+01
   2.467038e+01   3.471742e+01
  -4.613484e+00   7.393363e+00
   9.181202e+00   2.669396e+00
   3.434397e+01   4.477328e+01
   2.467549e+01   9.010935e+01
  -2.912291e+01   7.205473e+01
  -8.244505e+01  -1.952914e+01
  -7.680152e+01  -1.107906e+02
  -1.480609e+00  -1.133212e+02
   8.502023e+01  -2.149306e+01
   1.028328e+02   7.889574e+01
   2.989316e+01   1.040993e+02
  -6.746496e+01   5.329818e+01
  -9.648000e+01  -1.307205e+01
  -3.743269e+01  -4.848727e+01
   3.232910e+01  -4.903572e+01
   2.866860e+01  -2.806055e+01
  -3.660389e+01  -1.163992e+00
  -6.992929e+01   6.154484e+00
  -1.396898e+01  -2.450690e+01
   7.968241e+01  -6.659613e+01
   1.143239e+02  -6.078892e+01
   6.185839e+01   1.032490e+01
  -1.641404e+01   8.276890e+01
  -5.155055e+01   7.866629e+01
  -3.469404e+01   3.531480e+00
   2.105961e-01  -5.721959e+01
   2.644728e+01  -4.141470e+01
   3.643345e+01   2.079408e+01
   2.608260e+01   5.426045e+01
  -3.432278e+00   3.084897e+01
  -3.317538e+01  -9.623022e+00
  -3.914325e+01  -1.976619e+01
  -2.060326e+01   7.239143e-02
  -2.222793e-01   1.245621e+01
   6.885930e+00  -6.436823e+00
   9.692029e+00  -3.813455e+01
   2.113773e+01  -4.253888e+01
   3.396628e+01  -3.494208e+00
   2.722413e+01   4.817805e+01
  -6.502438e+00   6.155449e+01
  -4.609529e+01   1.908585e+01
  -5.483872e+01  -4.129675e+01
  -1.298841e+01  -6.417193e+01
   5.446143e+01  -3.346561e+01
   8.778033e+01   1.674571e+01
   4.868026e+01   4.447504e+01
  -2.899125e+01   3.941608e+01
  -6.486746e+01   1.935865e+01
  -2.288603e+01   4.191816e+00
   4.003302e+01   3.888524e+00
   3.912554e+01   1.857395e+01
  -3.308519e+01   3.311388e+01
  -9.541605e+01   1.937263e+01
