
 $NMID
 id='ANONYMOUS ', fmtdat='(2E16.6)'
 volume=1.0
 tramp=1.0
 $END
  -3.111729e+03   9.699378e+01
  -2.084657e+03  -1.558749e+03
   1.997982e+00  -1.989496e+03
   1.218487e+03  -1.166280e+03
   8.933219e+02  -1.183213e+02
  -2.931868e+01   2.445104e+02
  -4.108725e+02  -1.064263e+02
  -7.241681e+01  -5.663974e+02
   4.363715e+02  -5.820053e+02
   6.324583e+02  -8.727610e+01
   4.255213e+02   4.975600e+02
   3.320424e+00   6.344433e+02
  -3.148212e+02   1.828272e+02
  -2.640933e+02  -4.075828e+02
   1.021008e+02  -5.327115e+02
   3.972791e+02  -8.204266e+01
   2.931690e+02   4.631373e+02
  -1.177892e+02   5.863025e+02
  -4.420394e+02   2.516383e+02
  -4.127467e+02  -1.699031e+02
  -1.221785e+02  -3.414853e+02
   1.181378e+02  -2.366628e+02
   8.209222e+01  -7.206241e+01
  -1.567268e+02  -6.529658e+01
  -2.723775e+02  -2.252469e+02
  -2.228809e+01  -3.361338e+02
   4.216425e+02  -1.917820e+02
   5.884059e+02   1.371239e+02
   2.435818e+02   3.449076e+02
  -2.929846e+02   2.298706e+02
  -4.920318e+02  -9.107844e+01
  -2.051744e+02  -3.396983e+02
   2.306082e+02  -3.498213e+02
   4.266684e+02  -1.420885e+02
   3.140440e+02   1.439055e+02
   8.845441e+01   3.036143e+02
  -4.137212e+01   1.869266e+02
   4.465227e+00  -9.411561e+01
   1.526532e+02  -1.843670e+02
   2.170923e+02   1.038579e+02
   5.922618e+01   4.708305e+02
  -2.202120e+02   4.459619e+02
  -3.351100e+02   1.593722e+01
  -1.428938e+02  -3.124834e+02
   1.477964e+02  -1.587109e+02
   1.947221e+02   2.458091e+02
  -8.444782e+01   3.782133e+02
  -4.183298e+02   7.597841e+01
  -4.694910e+02  -3.307160e+02
  -1.589764e+02  -4.621601e+02
   2.757490e+02  -2.655376e+02
   4.908686e+02   4.324776e+01
   3.270115e+02   2.375647e+02
  -4.589211e+01   2.297538e+02
  -2.822284e+02   8.527182e+01
  -2.079506e+02  -3.999238e+01
   4.582255e+00  -3.473918e+01
   6.073267e+01   5.283821e+01
  -9.366961e+01   7.364459e+01
  -2.252869e+02  -3.741242e+01
  -1.247111e+02  -1.859507e+02
   1.383454e+02  -2.332938e+02
   3.120008e+02  -1.274923e+02
   2.393551e+02   8.281218e+01
  -1.401933e+01   2.855672e+02
  -2.556805e+02   3.386513e+02
  -3.310802e+02   1.627413e+02
  -2.255415e+02  -1.405513e+02
  -5.817932e+01  -3.374916e+02
   3.308491e+01  -3.020905e+02
   2.815034e+01  -1.540186e+02
   2.956400e+01  -8.515252e+01
   1.144455e+02  -1.050209e+02
   2.219235e+02  -6.329186e+01
   2.272229e+02   9.780141e+01
   9.608015e+01   2.351836e+02
  -8.014598e+01   1.854464e+02
  -1.792858e+02  -2.792326e+01
  -1.355198e+02  -2.201060e+02
   3.428082e+01  -2.342965e+02
   2.262059e+02  -6.823112e+01
   2.914889e+02   1.505668e+02
   1.640181e+02   2.755197e+02
  -4.571919e+01   2.500431e+02
  -1.566140e+02   1.428529e+02
  -1.351154e+02   6.901949e+01
  -1.303338e+02   6.218115e+01
  -2.500403e+02   4.254212e+01
  -3.782686e+02  -7.522779e+01
  -3.015233e+02  -2.655677e+02
   1.132431e+01  -4.027772e+02
   3.399359e+02  -3.734983e+02
   4.369184e+02  -1.723857e+02
   2.702328e+02   8.503422e+01
   2.692374e+01   2.340622e+02
  -8.482042e+01   1.891209e+02
  -1.703464e+01   3.458780e+01
   1.055187e+02  -4.601513e+01
   1.265144e+02   2.801417e+01
   1.524086e+01   1.348561e+02
  -1.087887e+02   1.056735e+02
  -1.085431e+02  -4.590472e+01
   2.160042e+01  -1.269016e+02
   1.509208e+02  -6.956123e+00
   1.453078e+02   2.136301e+02
  -1.215838e+01   3.153648e+02
  -2.171001e+02   1.948525e+02
  -3.274714e+02  -4.949007e+01
  -2.618783e+02  -2.339522e+02
  -6.425007e+01  -2.505076e+02
   1.144776e+02  -1.332767e+02
   1.410108e+02  -9.860083e+00
   3.473199e+01   1.361075e+01
  -4.964838e+01  -5.345194e+01
  -1.584090e+00  -1.054908e+02
   1.127330e+02  -6.638853e+01
   1.381516e+02   2.058651e+01
   3.217680e+01   5.141486e+01
  -7.574425e+01  -7.762485e+00
  -3.848572e+01  -8.367084e+01
   1.335874e+02  -8.377472e+01
   2.769342e+02   1.290853e+01
   2.404172e+02   1.499330e+02
   3.280968e+01   2.409626e+02
  -1.849123e+02   2.211560e+02
  -2.463104e+02   9.625458e+01
  -1.300065e+02  -3.982727e+01
   2.551047e+01  -7.485769e+01
   6.118476e+01   2.145443e+00
  -4.590449e+01   7.630251e+01
  -1.701355e+02   3.591106e+01
  -1.765252e+02  -9.182225e+01
  -5.602259e+01  -1.729674e+02
   7.923560e+01  -1.278631e+02
   1.158556e+02  -1.871931e+01
   4.471774e+01   3.277078e+01
  -3.849928e+01  -1.735503e+01
  -2.780316e+01  -9.917503e+01
   8.584811e+01  -1.104591e+02
   1.935114e+02  -1.643755e+01
   1.707788e+02   1.200424e+02
   1.426156e+01   1.923652e+02
  -1.413057e+02   1.421618e+02
  -1.614354e+02   1.326294e+01
  -5.327677e+01  -8.706164e+01
   5.500684e+01  -8.955043e+01
   6.454449e+01  -2.442324e+01
   2.428530e+00   2.278239e+01
  -3.327556e+01   9.264313e+00
   7.820812e+00  -2.299785e+01
   8.091586e+01  -2.911727e+00
   9.809312e+01   8.215250e+01
   1.371792e+01   1.612047e+02
  -1.279828e+02   1.441536e+02
  -2.194911e+02   1.449259e+01
  -1.805215e+02  -1.422593e+02
  -3.868345e+01  -2.100625e+02
   9.051649e+01  -1.493245e+02
   1.185816e+02  -3.088724e+01
   6.872871e+01   3.967954e+01
   3.157745e+01   2.637393e+01
   5.092341e+01  -1.431327e+01
   8.044247e+01  -8.206017e+00
   5.258913e+01   5.159413e+01
  -3.492956e+01   9.822725e+01
  -1.112543e+02   6.459828e+01
  -9.887737e+01  -3.874497e+01
   1.347291e+01  -1.196033e+02
   1.486606e+02  -8.619091e+01
   1.909169e+02   5.631464e+01
   8.276523e+01   1.945396e+02
  -1.103730e+02   2.068431e+02
  -2.449388e+02   8.044693e+01
  -2.269974e+02  -7.850245e+01
  -9.435347e+01  -1.539013e+02
   3.419155e+01  -1.278762e+02
   8.000635e+01  -7.536890e+01
   6.301746e+01  -6.575232e+01
   5.209528e+01  -8.822632e+01
   8.174149e+01  -7.510327e+01
   1.216258e+02   1.415646e+01
   1.129042e+02   1.392374e+02
   2.905894e+01   2.071177e+02
  -8.895478e+01   1.553779e+02
  -1.564176e+02   1.411267e+01
  -1.189975e+02  -1.142908e+02
  -1.186159e+01  -1.435290e+02
   6.747329e+01  -7.602662e+01
   5.775393e+01   1.143377e+01
  -2.320340e+00   4.901150e+01
  -2.335034e+01   3.340730e+01
   2.585457e+01   1.053163e+01
   7.814225e+01   1.487462e+01
   4.679546e+01   3.598918e+01
  -6.638127e+01   3.811662e+01
  -1.595429e+02   1.622887e+00
  -1.340646e+02  -5.528623e+01
  -1.760179e+00  -8.970032e+01
   1.219995e+02  -7.015016e+01
   1.337699e+02  -8.084210e+00
   4.177176e+01   4.508864e+01
  -5.443496e+01   4.148425e+01
  -7.234019e+01  -1.503307e+01
  -1.874464e+01  -6.758008e+01
   4.142903e+01  -6.175964e+01
   6.316621e+01  -3.638114e+00
   5.405742e+01   4.565488e+01
   4.507192e+01   3.898806e+01
   5.123440e+01   3.737337e-01
   5.988124e+01  -4.304426e-01
   4.223875e+01   6.589754e+01
  -2.171339e+01   1.413909e+02
  -1.124371e+02   1.369897e+02
  -1.653258e+02   3.454887e+01
  -1.223028e+02  -8.457984e+01
  -4.848628e+00  -1.224637e+02
   8.387559e+01  -6.567790e+01
   5.771466e+01   8.567306e+00
  -5.304125e+01   2.031583e+01
  -1.240142e+02  -3.516256e+01
  -6.722297e+01  -9.607015e+01
   7.441414e+01  -1.019580e+02
   1.725262e+02  -4.454711e+01
   1.444991e+02   3.398935e+01
   3.000218e+01   7.741252e+01
  -5.746732e+01   5.757661e+01
  -4.451619e+01   1.346854e-01
   3.627813e+01  -2.940235e+01
   8.583195e+01   1.570764e+01
   3.960670e+01   1.054973e+02
  -6.897350e+01   1.456208e+02
  -1.433606e+02   6.910592e+01
  -1.188466e+02  -8.061628e+01
  -2.000263e+01  -1.761875e+02
   7.172947e+01  -1.310968e+02
   9.553576e+01   7.925389e+00
   5.332209e+01   1.089004e+02
  -9.357531e+00   9.445795e+01
  -4.678300e+01   1.466807e+01
  -4.252832e+01  -2.841806e+01
  -1.590282e+01  -6.250894e+00
  -4.900472e+00   1.626140e+01
  -2.798007e+01  -1.878266e+01
  -5.509567e+01  -8.123024e+01
  -3.228779e+01  -9.548623e+01
   4.995351e+01  -4.009917e+01
   1.254613e+02   3.078835e+01
   1.144736e+02   6.046980e+01
   1.808300e+01   4.829353e+01
  -7.343652e+01   2.583171e+01
  -7.912256e+01   7.463156e+00
  -1.597676e+01  -1.021841e+01
   3.109548e+01  -2.063661e+01
   1.726336e+01  -1.226078e+01
  -1.372956e+01   4.069075e+00
   2.925974e+00   5.078336e+00
   6.135701e+01  -2.813048e+00
   8.596691e+01   1.736257e+01
   2.187379e+01   7.401824e+01
  -9.550190e+01   1.117137e+02
  -1.709096e+02   6.631570e+01
  -1.419334e+02  -4.965855e+01
  -3.429493e+01  -1.453982e+02
   6.932886e+01  -1.446606e+02
   1.053121e+02  -6.354603e+01
   7.458075e+01   1.524121e+01
   2.532517e+01   3.408737e+01
   2.406190e+00   1.195114e+01
   1.278515e+01   7.344206e+00
   2.912777e+01   4.411782e+01
   1.900653e+01   8.300453e+01
  -2.479740e+01   6.674187e+01
  -7.253012e+01  -1.140690e+01
  -7.655972e+01  -9.097764e+01
  -1.629510e+01  -1.010676e+02
   6.798909e+01  -3.179233e+01
   9.917432e+01   5.645759e+01
   3.993977e+01   9.345797e+01
  -5.686303e+01   6.098397e+01
  -9.557440e+01  -3.943684e+00
  -4.349551e+01  -5.180254e+01
   2.974472e+01  -5.740435e+01
   3.578099e+01  -2.787647e+01
  -2.408780e+01   6.285457e+00
  -6.248414e+01   1.032527e+01
  -1.758847e+01  -2.446410e+01
   6.998835e+01  -6.255584e+01
   1.091732e+02  -5.251466e+01
   6.561704e+01   1.339440e+01
  -9.864450e+00   7.851072e+01
  -5.062264e+01   7.794658e+01
  -4.085600e+01   1.290138e+01
  -8.242080e+00  -4.790963e+01
   2.027793e+01  -4.494871e+01
   3.426279e+01   8.452151e+00
   2.791237e+01   4.847868e+01
   4.429167e-01   3.641554e+01
  -3.084796e+01  -3.601751e+00
  -3.921448e+01  -2.189866e+01
  -1.920899e+01  -3.723571e+00
   4.010681e+00   1.804353e+01
   6.191460e+00   7.246605e+00
  -4.384002e+00  -2.941922e+01
  -7.517652e-02  -4.842668e+01
   2.436136e+01  -2.071233e+01
   3.858498e+01   3.115355e+01
   1.342401e+01   5.468891e+01
  -3.630669e+01   2.493721e+01
  -5.862429e+01  -2.847846e+01
  -1.997591e+01  -5.488356e+01
   5.103462e+01  -3.492884e+01
   8.601280e+01   7.524341e+00
   4.815086e+01   3.807124e+01
  -2.483413e+01   4.269770e+01
  -5.918544e+01   2.788854e+01
  -2.628643e+01   7.219788e+00
   2.627591e+01  -4.042406e+00
   3.123650e+01   4.908165e+00
  -2.051904e+01   2.433511e+01
  -7.149681e+01   2.212516e+01
