
 $NMID
 id='ANONYMOUS ', fmtdat='(2E16.6)'
 volume=1.0
 tramp=1.0
 $END
  -2.754239e+03   4.665129e+01
  -1.872883e+03  -1.376465e+03
  -4.657255e+01  -1.786386e+03
   1.075962e+03  -1.108562e+03
   8.551712e+02  -1.723805e+02
   4.894755e+01   2.109227e+02
  -3.354475e+02  -5.656913e+01
  -7.715229e+01  -4.738213e+02
   3.710703e+02  -5.184440e+02
   5.616147e+02  -9.355486e+01
   3.902301e+02   4.324082e+02
   2.076435e+01   5.688700e+02
  -2.635343e+02   1.795203e+02
  -2.301902e+02  -3.464562e+02
   8.416169e+01  -4.726380e+02
   3.504732e+02  -8.172137e+01
   2.680917e+02   4.146382e+02
  -1.022100e+02   5.425095e+02
  -4.077375e+02   2.432569e+02
  -3.873241e+02  -1.506592e+02
  -1.182814e+02  -3.137126e+02
   1.019495e+02  -2.174192e+02
   6.557853e+01  -7.531522e+01
  -1.428384e+02  -8.427196e+01
  -2.264237e+02  -2.254943e+02
   6.456037e+00  -2.955202e+02
   3.850549e+02  -1.411609e+02
   5.099724e+02   1.432453e+02
   2.014367e+02   2.977082e+02
  -2.585638e+02   1.788813e+02
  -4.229494e+02  -9.705134e+01
  -1.688074e+02  -3.003171e+02
   2.129801e+02  -3.001569e+02
   3.823460e+02  -1.167775e+02
   2.783150e+02   1.300816e+02
   8.080151e+01   2.656334e+02
  -2.272574e+01   1.667330e+02
   2.275215e+01  -6.680345e+01
   1.368898e+02  -1.379347e+02
   1.690087e+02   1.046615e+02
   2.665977e+01   4.080517e+02
  -1.977852e+02   3.812010e+02
  -2.810382e+02   1.534725e+01
  -1.181341e+02  -2.625659e+02
   1.198860e+02  -1.293747e+02
   1.539529e+02   2.184766e+02
  -8.612007e+01   3.284352e+02
  -3.728685e+02   5.533978e+01
  -4.138063e+02  -3.085389e+02
  -1.366834e+02  -4.195929e+02
   2.491942e+02  -2.323696e+02
   4.395102e+02   4.706797e+01
   2.958720e+02   2.122376e+02
  -3.257404e+01   2.001142e+02
  -2.471429e+02   7.942552e+01
  -1.934123e+02  -2.443244e+01
  -1.039130e+01  -2.777230e+01
   4.867702e+01   3.631633e+01
  -7.700608e+01   5.478885e+01
  -1.950917e+02  -3.322960e+01
  -1.120101e+02  -1.627417e+02
   1.271780e+02  -2.116123e+02
   2.934253e+02  -1.156361e+02
   2.248454e+02   8.564471e+01
  -2.288374e+01   2.725017e+02
  -2.528577e+02   3.068339e+02
  -3.100659e+02   1.343712e+02
  -1.971743e+02  -1.359430e+02
  -4.425632e+01  -3.030784e+02
   2.787902e+01  -2.727317e+02
   2.160961e+01  -1.501458e+02
   3.405865e+01  -8.921323e+01
   1.186524e+02  -9.349394e+01
   2.090108e+02  -4.292442e+01
   2.002689e+02   1.016525e+02
   7.546154e+01   2.151675e+02
  -7.890328e+01   1.609419e+02
  -1.585568e+02  -3.454506e+01
  -1.121984e+02  -2.041623e+02
   4.006123e+01  -2.085487e+02
   2.058784e+02  -5.181638e+01
   2.583438e+02   1.448188e+02
   1.434585e+02   2.514975e+02
  -4.222287e+01   2.259537e+02
  -1.425238e+02   1.326341e+02
  -1.280722e+02   6.779750e+01
  -1.276793e+02   5.571946e+01
  -2.348772e+02   2.832830e+01
  -3.458633e+02  -8.342730e+01
  -2.687355e+02  -2.531856e+02
   2.318814e+01  -3.689591e+02
   3.242521e+02  -3.322163e+02
   4.045836e+02  -1.445779e+02
   2.408884e+02   8.443831e+01
   1.634455e+01   2.102844e+02
  -7.729392e+01   1.670393e+02
  -9.463899e+00   3.444589e+01
   9.678665e+01  -3.222770e+01
   1.075607e+02   3.020265e+01
   7.846816e+00   1.172353e+02
  -9.582836e+01   8.867026e+01
  -9.147832e+01  -4.185440e+01
   2.228327e+01  -1.091776e+02
   1.343237e+02  -9.900261e-02
   1.271884e+02   1.984631e+02
  -1.793193e+01   2.893606e+02
  -2.065305e+02   1.748937e+02
  -3.034790e+02  -5.500664e+01
  -2.342434e+02  -2.248562e+02
  -4.851147e+01  -2.323285e+02
   1.098624e+02  -1.169403e+02
   1.266067e+02  -4.616631e+00
   2.962867e+01   1.067499e+01
  -4.149032e+01  -5.231322e+01
   4.548861e+00  -9.473495e+01
   1.043483e+02  -5.447240e+01
   1.225902e+02   2.306842e+01
   2.588609e+01   4.533142e+01
  -6.875986e+01  -1.241181e+01
  -3.069113e+01  -7.969049e+01
   1.280505e+02  -7.286481e+01
   2.561091e+02   2.228828e+01
   2.156441e+02   1.476201e+02
   1.993095e+01   2.224974e+02
  -1.777499e+02   1.948420e+02
  -2.265297e+02   7.922138e+01
  -1.151335e+02  -3.836321e+01
   2.499625e+01  -6.450438e+01
   5.280835e+01   4.162804e+00
  -4.582985e+01   6.591092e+01
  -1.553783e+02   2.594260e+01
  -1.570339e+02  -8.846615e+01
  -4.611484e+01  -1.578810e+02
   7.486857e+01  -1.131734e+02
   1.045030e+02  -1.341640e+01
   3.769010e+01   2.989349e+01
  -3.578304e+01  -2.025776e+01
  -2.086389e+01  -9.475868e+01
   8.513526e+01  -9.913133e+01
   1.795687e+02  -7.590357e+00
   1.525033e+02   1.161113e+02
   7.038408e+00   1.759768e+02
  -1.323880e+02   1.257377e+02
  -1.467771e+02   9.105361e+00
  -4.622549e+01  -7.886007e+01
   5.180462e+01  -7.918321e+01
   5.826423e+01  -2.053302e+01
  -3.287278e-01   2.026561e+01
  -3.232551e+01   5.953669e+00
   8.359415e+00  -2.301916e+01
   7.703655e+01  -1.059599e+00
   8.975415e+01   8.008812e+01
   7.166079e+00   1.507809e+02
  -1.237808e+02   1.288480e+02
  -2.025809e+02   5.373971e+00
  -1.609445e+02  -1.365941e+02
  -2.966741e+01  -1.932358e+02
   8.608161e+01  -1.340787e+02
   1.093090e+02  -2.592019e+01
   6.297816e+01   3.714145e+01
   2.922023e+01   2.452005e+01
   4.762714e+01  -1.199449e+01
   7.526265e+01  -5.180560e+00
   4.845469e+01   5.036615e+01
  -3.524248e+01   9.177425e+01
  -1.070761e+02   5.723587e+01
  -9.222218e+01  -4.022719e+01
   1.685391e+01  -1.119742e+02
   1.420665e+02  -7.504758e+01
   1.748367e+02   5.917425e+01
   6.865873e+01   1.822835e+02
  -1.092514e+02   1.859991e+02
  -2.272885e+02   6.563180e+01
  -2.051296e+02  -7.850010e+01
  -8.167085e+01  -1.429224e+02
   3.474249e+01  -1.156334e+02
   7.480504e+01  -6.694929e+01
   5.866566e+01  -5.925207e+01
   4.949624e+01  -8.059382e+01
   7.728504e+01  -6.770241e+01
   1.122054e+02   1.598491e+01
   1.004525e+02   1.313201e+02
   2.084522e+01   1.913625e+02
  -8.608694e+01   1.399552e+02
  -1.434438e+02   7.899094e+00
  -1.051181e+02  -1.087050e+02
  -6.019844e+00  -1.317032e+02
   6.468469e+01  -6.653718e+01
   5.261474e+01   1.389728e+01
  -4.868994e+00   4.601368e+01
  -2.431896e+01   2.969790e+01
   2.276980e+01   9.343774e+00
   7.239083e+01   1.543462e+01
   4.269354e+01   3.484397e+01
  -6.339228e+01   3.333250e+01
  -1.486750e+02  -3.967472e+00
  -1.216996e+02  -5.600372e+01
   2.978728e+00  -8.316358e+01
   1.158668e+02  -6.074137e+01
   1.231907e+02  -2.897305e+00
   3.643096e+01   4.357724e+01
  -5.149265e+01   3.749612e+01
  -6.654629e+01  -1.577314e+01
  -1.654755e+01  -6.381815e+01
   3.904003e+01  -5.709292e+01
   5.909406e+01  -1.984342e+00
   5.013756e+01   4.411241e+01
   4.095961e+01   3.748498e+01
   4.654620e+01   1.429124e+00
   5.503987e+01   1.210138e+00
   3.803244e+01   6.277438e+01
  -2.340153e+01   1.307863e+02
  -1.085483e+02   1.234410e+02
  -1.551938e+02   2.681615e+01
  -1.111680e+02  -8.195380e+01
  -4.020486e-01  -1.136372e+02
   8.013592e+01  -5.892624e+01
   5.340743e+01   9.039174e+00
  -4.932728e+01   1.741208e+01
  -1.129706e+02  -3.533914e+01
  -5.877756e+01  -8.997328e+01
   7.149704e+01  -9.142655e+01
   1.595730e+02  -3.556536e+01
   1.311920e+02   3.575117e+01
   2.484204e+01   7.166068e+01
  -5.449982e+01   5.031323e+01
  -4.062315e+01  -2.029881e+00
   3.453969e+01  -2.654842e+01
   7.905674e+01   1.648316e+01
   3.464094e+01   9.818980e+01
  -6.605210e+01   1.330583e+02
  -1.331260e+02   6.126277e+01
  -1.077546e+02  -7.632197e+01
  -1.472323e+01  -1.624770e+02
   6.897682e+01  -1.186046e+02
   8.752884e+01   1.034237e+01
   4.549017e+01   1.017682e+02
  -1.227747e+01   8.588561e+01
  -4.392517e+01   1.141151e+01
  -3.761981e+01  -2.716693e+01
  -1.349465e+01  -5.685221e+00
  -5.049265e+00   1.442398e+01
  -2.615262e+01  -1.912576e+01
  -4.879361e+01  -7.653771e+01
  -2.626134e+01  -8.791782e+01
   4.799140e+01  -3.494409e+01
   1.145608e+02   3.128788e+01
   1.031092e+02   5.823030e+01
   1.534785e+01   4.539676e+01
  -6.762264e+01   2.259829e+01
  -7.278450e+01   4.658201e+00
  -1.503215e+01  -1.057200e+01
   2.867356e+01  -1.826147e+01
   1.661852e+01  -1.002012e+01
  -1.210460e+01   3.928403e+00
   2.376900e+00   4.241980e+00
   5.593123e+01  -1.884192e+00
   7.904165e+01   1.801465e+01
   1.975115e+01   6.939483e+01
  -8.976160e+01   1.014317e+02
  -1.598552e+02   5.759626e+01
  -1.312043e+02  -4.881402e+01
  -2.878008e+01  -1.348474e+02
   6.796467e+01  -1.321418e+02
   9.927569e+01  -5.662466e+01
   6.845573e+01   1.566906e+01
   2.255529e+01   3.243023e+01
   2.362232e+00   1.179486e+01
   1.184185e+01   7.746897e+00
   2.525199e+01   4.169789e+01
   1.478386e+01   7.693330e+01
  -2.457806e+01   6.090883e+01
  -6.640199e+01  -1.183852e+01
  -6.888214e+01  -8.514944e+01
  -1.368936e+01  -9.377012e+01
   6.294864e+01  -2.885401e+01
   9.074251e+01   5.343429e+01
   3.542675e+01   8.743839e+01
  -5.401569e+01   5.590934e+01
  -8.888854e+01  -5.789558e+00
  -3.926294e+01  -4.997021e+01
   2.943955e+01  -5.325332e+01
   3.475359e+01  -2.457375e+01
  -2.167636e+01   6.125032e+00
  -5.784714e+01   8.245402e+00
  -1.591261e+01  -2.338474e+01
   6.600408e+01  -5.588440e+01
   1.023952e+02  -4.482299e+01
   6.081651e+01   1.487187e+01
  -1.089612e+01   7.246997e+01
  -4.936636e+01   7.083346e+01
  -3.919733e+01   1.138268e+01
  -7.200283e+00  -4.419394e+01
   1.979217e+01  -4.164164e+01
   3.174515e+01   7.749946e+00
   2.476775e+01   4.545800e+01
  -5.338276e-01   3.447030e+01
  -2.852443e+01  -3.698219e+00
  -3.571017e+01  -2.176433e+01
  -1.750191e+01  -4.357445e+00
   3.384331e+00   1.751839e+01
   5.069502e+00   8.134463e+00
  -4.676118e+00  -2.710569e+01
  -2.969102e-01  -4.615446e+01
   2.292366e+01  -2.031651e+01
   3.640656e+01   2.895603e+01
   1.276384e+01   5.120810e+01
  -3.381032e+01   2.285787e+01
  -5.431267e+01  -2.724960e+01
  -1.775704e+01  -5.099945e+01
   4.825206e+01  -3.110820e+01
   7.981611e+01   8.786997e+00
   4.370729e+01   3.628975e+01
  -2.412992e+01   3.932690e+01
  -5.561172e+01   2.501101e+01
  -2.504793e+01   6.066239e+00
   2.354299e+01  -4.051582e+00
   2.856817e+01   4.077306e+00
  -1.844447e+01   2.155727e+01
  -6.507140e+01   1.928354e+01
