
 $NMID
 id='ANONYMOUS ', fmtdat='(2E16.6)'
 volume=1.0
 tramp=1.0
 $END
   4.444683e+03   7.421808e+01
   2.470613e+03   2.764251e+03
  -9.156749e+02   2.763730e+03
  -2.207282e+03   7.280837e+02
  -8.624271e+02  -8.147473e+02
   8.026805e+02  -5.880766e+02
   9.436333e+02   5.288272e+02
  -6.192546e+01   1.136286e+03
  -9.010263e+02   7.678343e+02
  -9.586249e+02  -1.569191e+02
  -4.110633e+02  -9.157583e+02
   3.076561e+02  -8.958360e+02
   6.830062e+02  -7.107519e+01
   3.757377e+02   7.729644e+02
  -3.134087e+02   7.591539e+02
  -6.269340e+02  -4.226653e+01
  -2.423597e+02  -7.048407e+02
   3.614804e+02  -6.060275e+02
   5.814170e+02  -4.123993e+01
   3.532750e+02   3.775989e+02
  -1.446635e+01   4.335739e+02
  -2.620192e+02   2.507340e+02
  -2.303215e+02  -5.388884e+00
   1.099719e+02  -1.218688e+02
   4.305623e+02   8.980287e+01
   2.270844e+02   4.475636e+02
  -4.639531e+02   4.462151e+02
  -8.801343e+02  -7.289913e+01
  -4.441610e+02  -5.864883e+02
   4.165455e+02  -5.184598e+02
   7.789956e+02   3.605259e+01
   3.582528e+02   5.048749e+02
  -2.927195e+02   5.343892e+02
  -5.796051e+02   2.004808e+02
  -4.188375e+02  -2.438566e+02
  -5.376089e+01  -4.945175e+02
   2.339041e+02  -2.856521e+02
   1.986795e+02   2.496403e+02
  -1.776018e+02   4.794284e+02
  -4.888075e+02  -1.177691e+01
  -2.674246e+02  -7.163850e+02
   3.441652e+02  -7.302352e+02
   6.443243e+02   1.456639e+01
   2.634678e+02   5.969813e+02
  -3.238628e+02   3.371352e+02
  -4.122876e+02  -3.403203e+02
   6.913633e+01  -5.668875e+02
   5.679636e+02  -1.395263e+02
   5.970074e+02   4.127515e+02
   1.557155e+02   5.900669e+02
  -3.953247e+02   3.463569e+02
  -6.346402e+02  -8.395963e+01
  -3.625979e+02  -4.046952e+02
   1.807488e+02  -3.765161e+02
   4.621275e+02  -3.816204e+01
   2.309235e+02   2.274379e+02
  -1.461618e+02   1.141696e+02
  -1.532524e+02  -1.773114e+02
   1.818554e+02  -2.045666e+02
   3.618671e+02   8.573118e+01
   1.344511e+02   3.160825e+02
  -2.125166e+02   2.512535e+02
  -3.172077e+02   5.586924e+01
  -1.755215e+02  -7.844024e+01
   2.213086e+01  -1.949432e+02
   1.962957e+02  -3.089421e+02
   3.233052e+02  -2.250195e+02
   2.962637e+02   1.294199e+02
   7.945251e+01   4.415019e+02
  -1.327477e+02   3.843404e+02
  -1.366154e+02   9.251460e+01
  -1.687514e+01  -3.571640e+01
  -1.935846e+01   8.266474e+01
  -1.802347e+02   1.455373e+02
  -2.825404e+02  -3.713962e+01
  -1.703179e+02  -2.686152e+02
   6.679368e+01  -2.655895e+02
   2.322544e+02  -2.081404e+01
   2.070095e+02   2.360527e+02
  -3.245868e+00   2.986444e+02
  -2.657468e+02   1.251258e+02
  -3.630181e+02  -1.634044e+02
  -1.834798e+02  -3.535733e+02
   1.087201e+02  -3.053563e+02
   2.324037e+02  -1.079275e+02
   1.438766e+02   1.156986e+01
   8.348071e+01  -2.839741e+01
   2.169314e+02  -7.099283e+01
   3.865762e+02   4.559587e+01
   3.246940e+02   2.723759e+02
   3.447942e+00   4.298971e+02
  -3.428196e+02   4.043189e+02
  -4.749722e+02   2.004991e+02
  -3.373487e+02  -9.050225e+01
  -5.929513e+01  -2.966748e+02
   1.370856e+02  -2.566161e+02
   9.531961e+01  -2.369063e+01
  -1.082864e+02   1.208115e+02
  -2.080611e+02  -1.551944e+00
  -5.635768e+01  -2.056470e+02
   1.708283e+02  -1.811081e+02
   1.905508e+02   6.428004e+01
  -1.721168e+01   2.030237e+02
  -1.985429e+02   3.818194e+01
  -1.610006e+02  -2.438185e+02
   3.370264e+01  -3.391121e+02
   2.193744e+02  -1.826268e+02
   3.065861e+02   5.955747e+01
   2.681693e+02   2.236694e+02
   1.003658e+02   2.529053e+02
  -1.065322e+02   1.606738e+02
  -1.792691e+02   2.279847e+01
  -6.206855e+01  -3.699791e+01
   7.339840e+01   3.259339e+01
   3.649475e+01   1.257093e+02
  -1.216589e+02   1.052655e+02
  -1.818858e+02  -1.009438e+01
  -6.253838e+01  -7.619953e+01
   7.825941e+01  -2.375152e+01
   5.875128e+01   6.599664e+01
  -1.118291e+02   8.444832e+01
  -2.665762e+02   6.508349e+00
  -2.562973e+02  -1.262635e+02
  -6.720743e+01  -2.445750e+02
   1.722139e+02  -2.600857e+02
   2.790348e+02  -1.297154e+02
   1.730497e+02   5.273314e+01
  -2.362732e+01   1.149708e+02
  -9.600564e+01   1.046629e+01
   2.685924e+01  -1.050573e+02
   1.932675e+02  -6.450837e+01
   2.135898e+02   9.939736e+01
   7.019676e+01   2.071253e+02
  -9.368338e+01   1.589917e+02
  -1.452002e+02   3.079131e+01
  -7.487708e+01  -4.291093e+01
   2.398328e+01  -1.070903e+01
   4.054436e+01   7.251462e+01
  -6.049408e+01   1.083080e+02
  -1.867954e+02   3.391603e+01
  -1.878583e+02  -1.148059e+02
  -2.400253e+01  -2.131176e+02
   1.613734e+02  -1.624125e+02
   1.929498e+02  -4.337085e+00
   6.535896e+01   1.169717e+02
  -6.664680e+01   1.127052e+02
  -8.479941e+01   3.086584e+01
  -2.297082e+01  -2.648368e+01
   1.671386e+01  -2.180195e+01
  -8.400124e+00   2.535215e+00
  -6.185601e+01  -9.903373e+00
  -8.020882e+01  -7.386383e+01
  -1.737962e+01  -1.460832e+02
   1.148074e+02  -1.469170e+02
   2.227965e+02  -3.087644e+01
   1.975146e+02   1.405724e+02
   4.234573e+01   2.305394e+02
  -1.069847e+02   1.664631e+02
  -1.325482e+02   2.522116e+01
  -6.649451e+01  -5.651940e+01
  -2.561597e+01  -3.610299e+01
  -5.030637e+01   1.129542e+01
  -7.393437e+01   6.712065e+00
  -3.645041e+01  -4.416303e+01
   3.952363e+01  -7.851690e+01
   9.073017e+01  -5.078350e+01
   7.599919e+01   2.927777e+01
  -9.735589e+00   9.978609e+01
  -1.277632e+02   8.298081e+01
  -1.868821e+02  -4.231433e+01
  -1.027611e+02  -1.893011e+02
   9.505821e+01  -2.226528e+02
   2.558632e+02  -9.822860e+01
   2.517891e+02   8.045165e+01
   1.090203e+02   1.721668e+02
  -3.675300e+01   1.445063e+02
  -9.258393e+01   8.206206e+01
  -7.875779e+01   6.615296e+01
  -6.593121e+01   8.561190e+01
  -8.833243e+01   6.942213e+01
  -1.213639e+02  -2.157111e+01
  -1.124678e+02  -1.468746e+02
  -3.005372e+01  -2.165521e+02
   9.368791e+01  -1.671024e+02
   1.702304e+02  -2.280147e+01
   1.344811e+02   1.151705e+02
   2.171941e+01   1.545748e+02
  -6.259684e+01   9.266345e+01
  -5.791418e+01   5.286929e+00
  -8.065070e+00  -3.829266e+01
   5.218913e+00  -3.382460e+01
  -3.662049e+01  -1.975972e+01
  -7.382504e+01  -2.252508e+01
  -4.138241e+01  -3.540343e+01
   5.777994e+01  -3.517769e+01
   1.464572e+02  -5.839278e+00
   1.373541e+02   4.491815e+01
   2.010965e+01   8.294396e+01
  -1.109206e+02   7.224370e+01
  -1.389946e+02   1.564368e+01
  -4.828495e+01  -3.659249e+01
   5.684700e+01  -3.415378e+01
   7.175272e+01   1.796984e+01
   4.851437e+00   6.287138e+01
  -5.503046e+01   5.241737e+01
  -5.855194e+01  -2.673483e+00
  -3.846349e+01  -4.643123e+01
  -4.035853e+01  -3.904736e+01
  -6.006159e+01  -2.649030e+00
  -6.341297e+01  -4.276247e-01
  -3.152745e+01  -6.230320e+01
   3.195782e+01  -1.363047e+02
   1.074390e+02  -1.340538e+02
   1.516272e+02  -3.321462e+01
   1.157718e+02   8.473446e+01
   8.407216e+00   1.184484e+02
  -7.922440e+01   5.714665e+01
  -5.610701e+01  -1.510570e+01
   5.648436e+01  -1.903007e+01
   1.320242e+02   4.184102e+01
   7.413363e+01   1.027805e+02
  -7.594098e+01   1.085759e+02
  -1.831092e+02   5.226682e+01
  -1.575693e+02  -3.020312e+01
  -3.766047e+01  -8.354350e+01
   5.767603e+01  -7.000888e+01
   4.757279e+01  -9.515275e+00
  -3.607665e+01   2.470922e+01
  -8.543627e+01  -2.184083e+01
  -2.952505e+01  -1.131933e+02
   8.986879e+01  -1.456666e+02
   1.613296e+02  -5.667675e+01
   1.201888e+02   9.804550e+01
   8.157086e+00   1.891797e+02
  -8.243766e+01   1.383407e+02
  -1.003191e+02  -4.845024e+00
  -5.993408e+01  -1.120833e+02
  -1.459245e+00  -1.035190e+02
   4.250240e+01  -2.140048e+01
   5.162333e+01   2.984856e+01
   2.718191e+01   9.214994e+00
   3.403970e+00  -2.064184e+01
   1.743832e+01   1.181117e+01
   5.280975e+01   8.365820e+01
   4.274043e+01   1.062390e+02
  -4.227776e+01   4.471801e+01
  -1.324063e+02  -3.826669e+01
  -1.258484e+02  -6.853267e+01
  -1.687553e+01  -4.630172e+01
   8.557537e+01  -1.959281e+01
   8.491896e+01  -7.807771e+00
   8.849224e+00   5.286657e+00
  -3.797223e+01   2.124457e+01
  -1.239567e+01   1.928661e+01
   2.200418e+01  -2.327335e-01
  -5.971759e+00  -9.870234e+00
  -7.247350e+01  -5.785706e+00
  -8.645670e+01  -2.329280e+01
  -4.257210e+00  -7.508212e+01
   1.157300e+02  -1.064112e+02
   1.751245e+02  -5.317179e+01
   1.306743e+02   6.594888e+01
   2.210701e+01   1.542989e+02
  -7.452899e+01   1.409040e+02
  -1.073393e+02   5.355858e+01
  -7.639676e+01  -2.131703e+01
  -2.335300e+01  -3.281639e+01
   4.050571e+00  -6.598164e+00
  -9.000005e+00  -2.323839e+00
  -3.249094e+01  -4.269100e+01
  -2.297152e+01  -8.562754e+01
   2.783042e+01  -6.796692e+01
   7.754493e+01   1.900019e+01
   7.159996e+01   1.047806e+02
   8.085288e-01   1.063489e+02
  -7.978571e+01   1.942555e+01
  -9.605115e+01  -7.475306e+01
  -2.778376e+01  -9.789426e+01
   6.332884e+01  -4.991247e+01
   9.081403e+01   1.231940e+01
   3.571668e+01   4.553592e+01
  -3.005574e+01   4.634367e+01
  -2.717489e+01   2.702824e+01
   3.414814e+01   1.804114e+00
   6.592735e+01  -5.444753e+00
   1.326170e+01   2.297646e+01
  -7.561033e+01   6.251261e+01
  -1.087012e+02   5.729544e+01
  -5.879371e+01  -9.517817e+00
   1.571187e+01  -7.797321e+01
   4.880053e+01  -7.447467e+01
   3.231025e+01  -3.792264e+00
  -6.852846e-01   5.362498e+01
  -2.476915e+01   3.887940e+01
  -3.375274e+01  -1.973764e+01
  -2.439551e+01  -5.122560e+01
   2.868580e+00  -2.900700e+01
   3.104477e+01   9.201551e+00
   3.721394e+01   1.869615e+01
   1.973651e+01   2.022965e-02
  -1.608863e-01  -1.156488e+01
  -7.349318e+00   5.991195e+00
  -9.614263e+00   3.521749e+01
  -1.952254e+01   3.903210e+01
  -3.106406e+01   2.831131e+00
  -2.483158e+01  -4.482698e+01
   6.434851e+00  -5.704538e+01
   4.323280e+01  -1.753838e+01
   5.119765e+01   3.877387e+01
   1.181343e+01   6.028890e+01
  -5.144448e+01   3.152954e+01
  -8.256818e+01  -1.585696e+01
  -4.573883e+01  -4.208342e+01
   2.720504e+01  -3.711032e+01
   6.086632e+01  -1.807459e+01
   2.150167e+01  -4.209083e+00
  -3.736202e+01  -4.455249e+00
  -3.619157e+01  -1.797626e+01
   3.178262e+01  -3.057196e+01
   9.005968e+01  -1.696704e+01
