
 $NMID
 id='ANONYMOUS ', fmtdat='(2E16.6)'
 volume=1.0
 tramp=1.0
 $END
   3.721444e+03   1.499894e+02
   2.186858e+03   2.161846e+03
  -4.528358e+02   2.303128e+03
  -1.648441e+03   9.534579e+02
  -8.703319e+02  -2.495003e+02
   3.421504e+02  -3.358054e+02
   5.952642e+02   3.105092e+02
  -2.653397e+01   7.934841e+02
  -6.561325e+02   6.318928e+02
  -7.672931e+02  -4.000060e+01
  -3.959999e+02  -6.858337e+02
   1.482895e+02  -7.388099e+02
   4.629837e+02  -1.171800e+02
   2.804197e+02   5.740491e+02
  -2.158355e+02   6.218849e+02
  -4.936811e+02   1.247006e+01
  -2.560989e+02  -5.784664e+02
   2.343419e+02  -5.995250e+02
   5.085118e+02  -1.609164e+02
   3.899754e+02   2.646280e+02
   5.950336e+01   3.859579e+02
  -1.850969e+02   2.391089e+02
  -1.380300e+02   3.529885e+01
   1.541732e+02   2.450313e+00
   3.409282e+02   2.036462e+02
   7.974917e+01   4.030678e+02
  -4.757069e+02   2.751525e+02
  -7.180236e+02  -1.570259e+02
  -3.009084e+02  -4.677039e+02
   3.748647e+02  -3.274203e+02
   6.171151e+02   1.086936e+02
   2.480139e+02   4.302122e+02
  -2.859220e+02   4.198913e+02
  -5.086313e+02   1.451749e+02
  -3.544389e+02  -2.037436e+02
  -5.757165e+01  -3.872610e+02
   1.259746e+02  -2.184102e+02
   5.761375e+01   1.662355e+02
  -1.913627e+02   2.930815e+02
  -3.269554e+02  -9.756064e+01
  -1.069955e+02  -5.939623e+02
   3.068722e+02  -5.533998e+02
   4.609993e+02   2.418563e+01
   1.655439e+02   4.415128e+02
  -2.341830e+02   2.153018e+02
  -2.681580e+02  -3.098356e+02
   1.066713e+02  -4.606248e+02
   4.966273e+02  -7.873714e+01
   5.187909e+02   3.985681e+02
   1.402802e+02   5.335464e+02
  -3.450613e+02   2.892621e+02
  -5.597808e+02  -8.588266e+01
  -3.353879e+02  -3.224289e+02
   1.138071e+02  -2.836765e+02
   3.601525e+02  -5.110622e+01
   2.128722e+02   1.191736e+02
  -6.238678e+01   5.712953e+01
  -8.819188e+01  -1.080317e+02
   1.398690e+02  -1.162631e+02
   2.804766e+02   7.253307e+01
   1.192956e+02   2.463321e+02
  -1.806831e+02   2.402172e+02
  -3.272835e+02   9.482588e+01
  -2.229959e+02  -8.970984e+01
   2.284761e+01  -2.630812e+02
   2.550274e+02  -3.356725e+02
   3.512082e+02  -1.806223e+02
   2.562051e+02   1.544095e+02
   5.022675e+01   3.927339e+02
  -8.657702e+01   3.377813e+02
  -7.118698e+01   1.306542e+02
  -2.241521e+01   4.398562e+01
  -8.684623e+01   1.023197e+02
  -2.226635e+02   9.029812e+01
  -2.566538e+02  -9.095334e+01
  -1.167821e+02  -2.647354e+02
   8.979018e+01  -2.202427e+02
   2.077635e+02   2.070900e+01
   1.583620e+02   2.439129e+02
  -3.645495e+01   2.679679e+02
  -2.556397e+02   8.142036e+01
  -3.234338e+02  -1.760620e+02
  -1.634492e+02  -3.224604e+02
   8.288443e+01  -2.753375e+02
   1.940259e+02  -1.259393e+02
   1.418288e+02  -3.690627e+01
   1.188587e+02  -5.024507e+01
   2.512917e+02  -4.748060e+01
   3.957295e+02   8.167229e+01
   3.123157e+02   2.912028e+02
  -2.254881e+01   4.296222e+02
  -3.702251e+02   3.875566e+02
  -4.765994e+02   1.717127e+02
  -3.024885e+02  -1.041249e+02
  -2.785088e+01  -2.693890e+02
   1.181226e+02  -2.155681e+02
   4.706330e+01  -2.698292e+01
  -1.167371e+02   7.131440e+01
  -1.620467e+02  -2.865631e+01
  -2.204167e+01  -1.691866e+02
   1.440662e+02  -1.301923e+02
   1.403335e+02   6.308212e+01
  -2.977739e+01   1.594523e+02
  -1.765606e+02   1.051367e+01
  -1.475378e+02  -2.396049e+02
   3.335635e+01  -3.353206e+02
   2.332177e+02  -1.903255e+02
   3.308560e+02   6.593765e+01
   2.669744e+02   2.496381e+02
   7.086969e+01   2.660104e+02
  -1.226413e+02   1.450561e+02
  -1.618895e+02   7.722785e+00
  -4.435922e+01  -2.554028e+01
   5.961443e+01   5.113917e+01
   9.467125e+00   1.192412e+02
  -1.252217e+02   7.875015e+01
  -1.596749e+02  -2.507087e+01
  -4.135449e+01  -6.548136e+01
   8.125856e+01  -5.718421e-01
   4.543975e+01   8.315979e+01
  -1.341668e+02   8.381794e+01
  -2.850983e+02  -1.580928e+01
  -2.519578e+02  -1.570337e+02
  -3.779149e+01  -2.552798e+02
   1.980625e+02  -2.384649e+02
   2.737688e+02  -1.016564e+02
   1.489261e+02   5.333820e+01
  -3.084550e+01   9.179948e+01
  -7.708132e+01  -1.797419e+00
   4.519834e+01  -8.936592e+01
   1.884925e+02  -4.037084e+01
   1.935674e+02   1.068631e+02
   5.529649e+01   1.953999e+02
  -9.417584e+01   1.408090e+02
  -1.327116e+02   1.804384e+01
  -5.583725e+01  -4.115237e+01
   3.570495e+01   8.364177e+00
   3.150482e+01   9.519351e+01
  -8.396706e+01   1.124980e+02
  -2.005534e+02   1.685635e+01
  -1.799575e+02  -1.302094e+02
  -1.025093e+01  -2.089111e+02
   1.607536e+02  -1.491331e+02
   1.795715e+02  -2.889860e+00
   5.503486e+01   1.042035e+02
  -6.608417e+01   9.904525e+01
  -7.585976e+01   2.429615e+01
  -9.018665e+00  -2.631626e+01
   2.961154e+01  -1.396035e+01
  -8.037367e+00   1.612377e+01
  -7.662794e+01  -3.534450e+00
  -9.303400e+01  -8.503812e+01
  -1.061044e+01  -1.629672e+02
   1.337913e+02  -1.471546e+02
   2.311364e+02  -1.292162e+01
   1.890596e+02   1.549859e+02
   3.281694e+01   2.277777e+02
  -1.066516e+02   1.574983e+02
  -1.293577e+02   2.497657e+01
  -6.833213e+01  -4.984819e+01
  -2.917856e+01  -3.183133e+01
  -5.313235e+01   1.197618e+01
  -8.156468e+01   5.435599e+00
  -4.737001e+01  -5.198666e+01
   4.050506e+01  -9.349636e+01
   1.098586e+02  -5.929000e+01
   9.366525e+01   3.916923e+01
  -1.588845e+01   1.169576e+02
  -1.500416e+02   8.431324e+01
  -1.959937e+02  -6.020501e+01
  -8.670096e+01  -2.047189e+02
   1.176910e+02  -2.179519e+02
   2.628949e+02  -8.073350e+01
   2.424094e+02   9.208088e+01
   9.696512e+01   1.711513e+02
  -4.211641e+01   1.378170e+02
  -9.100797e+01   7.728902e+01
  -7.377861e+01   6.541265e+01
  -6.235900e+01   8.820616e+01
  -8.991394e+01   7.275200e+01
  -1.255761e+02  -2.186121e+01
  -1.118724e+02  -1.518167e+02
  -2.254982e+01  -2.201657e+02
   1.006410e+02  -1.625330e+02
   1.688844e+02  -1.140838e+01
   1.253366e+02   1.244907e+02
   1.011803e+01   1.544382e+02
  -7.214975e+01   8.305602e+01
  -6.070242e+01  -7.883840e+00
  -2.115898e-01  -4.759023e+01
   1.890034e+01  -3.509947e+01
  -2.995542e+01  -1.589073e+01
  -7.878716e+01  -2.088555e+01
  -4.545159e+01  -3.864464e+01
   6.716721e+01  -3.667024e+01
   1.615748e+02   1.830622e+00
   1.393310e+02   5.881048e+01
   5.674753e+00   9.199344e+01
  -1.256025e+02   6.997608e+01
  -1.418797e+02   6.026476e+00
  -4.470707e+01  -4.570668e+01
   5.864288e+01  -3.838077e+01
   7.437400e+01   1.932219e+01
   1.222838e+01   6.852025e+01
  -4.982892e+01   5.859180e+01
  -6.383786e+01  -5.630664e-01
  -4.885189e+01  -4.889595e+01
  -4.376852e+01  -4.197937e+01
  -5.642458e+01  -3.582992e+00
  -6.359391e+01  -2.242836e+00
  -3.784862e+01  -6.821073e+01
   3.121156e+01  -1.439483e+02
   1.200244e+02  -1.377139e+02
   1.682546e+02  -3.023334e+01
   1.218313e+02   9.217849e+01
   2.123782e+00   1.263818e+02
  -8.751253e+01   6.245181e+01
  -5.880829e+01  -1.332225e+01
   5.714052e+01  -1.855353e+01
   1.303710e+02   4.401001e+01
   6.863555e+01   1.052953e+02
  -8.210005e+01   1.057645e+02
  -1.855210e+02   4.232955e+01
  -1.541806e+02  -3.998391e+01
  -3.087627e+01  -8.435020e+01
   6.268995e+01  -6.238759e+01
   4.799156e+01  -1.786717e+00
  -3.849426e+01   2.757819e+01
  -8.828379e+01  -2.169711e+01
  -3.326378e+01  -1.135085e+02
   8.475193e+01  -1.479135e+02
   1.576267e+02  -6.115491e+01
   1.202902e+02   9.470051e+01
   9.341988e+00   1.882208e+02
  -8.376483e+01   1.359061e+02
  -1.010844e+02  -1.086454e+01
  -5.378826e+01  -1.168358e+02
   9.722008e+00  -1.019136e+02
   4.804187e+01  -1.627529e+01
   4.648799e+01   3.216417e+01
   2.029273e+01   8.806348e+00
   5.390680e+00  -1.843828e+01
   2.497192e+01   1.742076e+01
   5.342258e+01   8.731985e+01
   3.336191e+01   1.050978e+02
  -5.090383e+01   4.204874e+01
  -1.316011e+02  -3.974252e+01
  -1.206746e+02  -7.070299e+01
  -1.673667e+01  -5.013007e+01
   8.147884e+01  -2.124883e+01
   8.477618e+01  -4.691234e+00
   1.392499e+01   9.009135e+00
  -3.567297e+01   2.018611e+01
  -1.702774e+01   1.498353e+01
   1.725571e+01  -1.864627e+00
  -3.707365e+00  -7.320081e+00
  -6.756028e+01  -3.079982e+00
  -8.870000e+01  -2.340018e+01
  -1.356205e+01  -7.724142e+01
   1.105875e+02  -1.097315e+02
   1.811215e+02  -5.776119e+01
   1.408943e+02   6.218825e+01
   2.544391e+01   1.551723e+02
  -7.912140e+01   1.463915e+02
  -1.121142e+02   5.854347e+01
  -7.740270e+01  -2.090595e+01
  -2.447109e+01  -3.582685e+01
  -5.437122e-03  -1.020271e+01
  -1.193705e+01  -6.056946e+00
  -3.002846e+01  -4.664947e+01
  -1.807130e+01  -8.827782e+01
   2.941995e+01  -6.885021e+01
   7.649431e+01   1.757630e+01
   7.379045e+01   1.022645e+02
   7.314401e+00   1.068605e+02
  -7.555473e+01   2.542527e+01
  -9.900613e+01  -6.890353e+01
  -3.347170e+01  -9.967714e+01
   6.315429e+01  -5.699124e+01
   9.712714e+01   1.038191e+01
   4.089445e+01   5.277035e+01
  -3.254098e+01   5.460178e+01
  -3.505794e+01   2.789011e+01
   2.853343e+01  -2.135929e+00
   6.640425e+01  -6.493342e+00
   1.591702e+01   2.531634e+01
  -7.718579e+01   6.223892e+01
  -1.156480e+02   5.247261e+01
  -6.553378e+01  -1.452411e+01
   1.523580e+01  -8.083949e+01
   5.466615e+01  -7.812662e+01
   3.935308e+01  -9.086928e+00
   3.244001e+00   5.176215e+01
  -2.404659e+01   4.357425e+01
  -3.453556e+01  -1.415090e+01
  -2.584857e+01  -5.228669e+01
   1.659547e+00  -3.502097e+01
   3.173650e+01   6.934082e+00
   3.947055e+01   2.293491e+01
   2.026170e+01   3.247162e+00
  -2.472746e+00  -1.633712e+01
  -7.351044e+00  -2.982655e+00
  -1.962466e+00   3.211942e+01
  -8.335309e+00   4.586560e+01
  -2.756110e+01   1.374436e+01
  -3.322171e+01  -3.806808e+01
  -4.574845e+00  -5.716101e+01
   4.082113e+01  -2.153642e+01
   5.668719e+01   3.513061e+01
   1.550228e+01   5.937772e+01
  -5.435262e+01   3.323397e+01
  -8.752852e+01  -1.381972e+01
  -4.762757e+01  -4.271508e+01
   2.795759e+01  -4.136139e+01
   6.268563e+01  -2.318689e+01
   2.570210e+01  -5.725560e+00
  -3.108245e+01  -4.858082e-01
  -3.341657e+01  -1.131274e+01
   2.672257e+01  -2.623629e+01
   8.173984e+01  -1.749543e+01
