
 $NMID
 id='ANONYMOUS ', fmtdat='(2E16.6)'
 volume=1.0
 tramp=1.0
 $END
   3.817426e+03   7.640365e+01
   2.293925e+03   2.166560e+03
  -4.055354e+02   2.374795e+03
  -1.668292e+03   1.025547e+03
  -9.076623e+02  -2.264823e+02
   3.319220e+02  -3.514230e+02
   6.130354e+02   2.991508e+02
  -7.346560e+00   8.098231e+02
  -6.561190e+02   6.629062e+02
  -7.876927e+02  -2.140958e+01
  -4.232952e+02  -6.929683e+02
   1.328396e+02  -7.617526e+02
   4.697463e+02  -1.331910e+02
   2.997953e+02   5.799380e+02
  -2.063918e+02   6.424290e+02
  -5.055948e+02   2.518986e+01
  -2.766850e+02  -5.879259e+02
   2.266078e+02  -6.232651e+02
   5.201847e+02  -1.792861e+02
   4.089166e+02   2.626739e+02
   7.107353e+01   3.960303e+02
  -1.840206e+02   2.504181e+02
  -1.396866e+02   4.103318e+01
   1.585452e+02   3.055822e+00
   3.516450e+02   2.049393e+02
   8.683694e+01   4.108968e+02
  -4.830419e+02   2.883024e+02
  -7.377033e+02  -1.481090e+02
  -3.167918e+02  -4.714312e+02
   3.766467e+02  -3.402900e+02
   6.329688e+02   1.000023e+02
   2.619042e+02   4.352764e+02
  -2.849440e+02   4.352904e+02
  -5.187294e+02   1.587957e+02
  -3.678744e+02  -2.013102e+02
  -6.805953e+01  -3.951847e+02
   1.221590e+02  -2.269447e+02
   6.004109e+01   1.665177e+02
  -1.897107e+02   3.008773e+02
  -3.337545e+02  -9.446561e+01
  -1.191311e+02  -6.049442e+02
   3.025112e+02  -5.720240e+02
   4.707141e+02   1.421002e+01
   1.783722e+02   4.466796e+02
  -2.335121e+02   2.243053e+02
  -2.790127e+02  -3.116045e+02
   1.007039e+02  -4.734905e+02
   5.075807e+02  -9.000552e+01
   5.402959e+02   3.992740e+02
   1.550469e+02   5.452771e+02
  -3.479563e+02   3.037664e+02
  -5.763729e+02  -7.685500e+01
  -3.519170e+02  -3.233047e+02
   1.090801e+02  -2.928565e+02
   3.676180e+02  -6.104027e+01
   2.223099e+02   1.157956e+02
  -6.048405e+01   5.958346e+01
  -9.210408e+01  -1.071606e+02
   1.398171e+02  -1.207653e+02
   2.884487e+02   6.806528e+01
   1.280333e+02   2.495428e+02
  -1.805569e+02   2.509914e+02
  -3.359325e+02   1.048319e+02
  -2.324436e+02  -8.888465e+01
   1.921489e+01  -2.730567e+02
   2.579040e+02  -3.506648e+02
   3.584300e+02  -1.914368e+02
   2.656174e+02   1.542496e+02
   5.915137e+01   4.020226e+02
  -8.100391e+01   3.489534e+02
  -6.962261e+01   1.375954e+02
  -2.325032e+01   4.761553e+01
  -8.932959e+01   1.067989e+02
  -2.280135e+02   9.549671e+01
  -2.648798e+02  -8.974095e+01
  -1.241399e+02  -2.697259e+02
   8.828234e+01  -2.272214e+02
   2.133359e+02   1.805317e+01
   1.665527e+02   2.478151e+02
  -3.283647e+01   2.755900e+02
  -2.609982e+02   8.785051e+01
  -3.354269e+02  -1.749563e+02
  -1.744372e+02  -3.279853e+02
   7.908519e+01  -2.847452e+02
   1.966700e+02  -1.343260e+02
   1.458502e+02  -4.195651e+01
   1.225509e+02  -5.419018e+01
   2.584809e+02  -5.281065e+01
   4.089919e+02   7.744777e+01
   3.267957e+02   2.942126e+02
  -1.554804e+01   4.426389e+02
  -3.743087e+02   4.056179e+02
  -4.872837e+02   1.853541e+02
  -3.125675e+02  -1.013441e+02
  -3.342940e+01  -2.759124e+02
   1.165805e+02  -2.235219e+02
   4.681393e+01  -2.931369e+01
  -1.185163e+02   7.441065e+01
  -1.660380e+02  -2.653425e+01
  -2.554015e+01  -1.725647e+02
   1.446535e+02  -1.359351e+02
   1.445495e+02   6.167637e+01
  -2.741222e+01   1.636073e+02
  -1.808081e+02   1.381137e+01
  -1.563102e+02  -2.436816e+02
   2.782278e+01  -3.459254e+02
   2.369485e+02  -2.005724e+02
   3.425656e+02   6.193989e+01
   2.794855e+02   2.525761e+02
   7.727398e+01   2.726053e+02
  -1.237318e+02   1.512162e+02
  -1.660023e+02   1.090889e+01
  -4.587769e+01  -2.497389e+01
   6.184959e+01   5.181837e+01
   1.146977e+01   1.221759e+02
  -1.272459e+02   8.284643e+01
  -1.642388e+02  -2.285459e+01
  -4.346241e+01  -6.614963e+01
   8.349988e+01  -1.562830e+00
   4.789596e+01   8.504414e+01
  -1.371034e+02   8.866187e+01
  -2.941519e+02  -1.151846e+01
  -2.620991e+02  -1.575692e+02
  -4.302551e+01  -2.621350e+02
   1.997780e+02  -2.486288e+02
   2.795697e+02  -1.093708e+02
   1.538263e+02   5.180598e+01
  -2.991515e+01   9.450324e+01
  -7.883014e+01  -4.507708e-01
   4.509825e+01  -9.233363e+01
   1.929780e+02  -4.469009e+01
   2.008644e+02   1.062839e+02
   6.049799e+01   1.997366e+02
  -9.408709e+01   1.464014e+02
  -1.358952e+02   2.097784e+01
  -5.786217e+01  -4.105326e+01
   3.701151e+01   8.517940e+00
   3.381923e+01   9.788922e+01
  -8.492570e+01   1.173357e+02
  -2.063840e+02   2.067198e+01
  -1.875055e+02  -1.309198e+02
  -1.430883e+01  -2.147192e+02
   1.625260e+02  -1.563937e+02
   1.845552e+02  -6.560512e+00
   5.858824e+01   1.058375e+02
  -6.598525e+01   1.029647e+02
  -7.737327e+01   2.642956e+01
  -9.460025e+00  -2.677256e+01
   3.045637e+01  -1.461812e+01
  -8.107520e+00   1.709701e+01
  -7.942224e+01  -2.166804e+00
  -9.765483e+01  -8.620110e+01
  -1.372818e+01  -1.679818e+02
   1.354201e+02  -1.539474e+02
   2.378179e+02  -1.724859e+01
   1.973567e+02   1.562326e+02
   3.800264e+01   2.337966e+02
  -1.066956e+02   1.640654e+02
  -1.326709e+02   2.825519e+01
  -7.146182e+01  -4.987878e+01
  -3.080215e+01  -3.215641e+01
  -5.456927e+01   1.334770e+01
  -8.407540e+01   7.060197e+00
  -4.997404e+01  -5.293950e+01
   4.010032e+01  -9.743491e+01
   1.125637e+02  -6.318670e+01
   9.755016e+01   3.896766e+01
  -1.444248e+01   1.211196e+02
  -1.534646e+02   8.952736e+01
  -2.030553e+02  -5.875577e+01
  -9.269613e+01  -2.093754e+02
   1.175030e+02  -2.263945e+02
   2.691902e+02  -8.773215e+01
   2.510973e+02   9.033316e+01
   1.028976e+02   1.742478e+02
  -4.077076e+01   1.425392e+02
  -9.214989e+01   8.126581e+01
  -7.459551e+01   6.883612e+01
  -6.246403e+01   9.215752e+01
  -9.127699e+01   7.673405e+01
  -1.298611e+02  -2.014201e+01
  -1.180910e+02  -1.543169e+02
  -2.725966e+01  -2.263324e+02
   1.006333e+02  -1.691614e+02
   1.735663e+02  -1.475296e+01
   1.311740e+02   1.259240e+02
   1.312624e+01   1.587393e+02
  -7.283258e+01   8.660066e+01
  -6.259647e+01  -7.297765e+00
  -8.443616e-01  -4.915189e+01
   1.913511e+01  -3.639682e+01
  -3.104077e+01  -1.562012e+01
  -8.169075e+01  -2.000301e+01
  -4.762403e+01  -3.904769e+01
   6.871590e+01  -3.900048e+01
   1.667353e+02  -8.849463e-01
   1.445382e+02   5.823894e+01
   7.172279e+00   9.470146e+01
  -1.283457e+02   7.428424e+01
  -1.459790e+02   8.684236e+00
  -4.674287e+01  -4.639434e+01
   5.974849e+01  -4.074773e+01
   7.702516e+01   1.852512e+01
   1.403678e+01   7.055596e+01
  -5.013084e+01   6.151857e+01
  -6.591364e+01   6.473278e-01
  -5.148675e+01  -4.959125e+01
  -4.594235e+01  -4.250010e+01
  -5.808588e+01  -2.582099e+00
  -6.552733e+01  -1.126726e+00
  -4.039023e+01  -6.973648e+01
   2.942998e+01  -1.490595e+02
   1.213052e+02  -1.441115e+02
   1.730838e+02  -3.413634e+01
   1.273297e+02   9.283330e+01
   4.390418e+00   1.302517e+02
  -8.918775e+01   6.605288e+01
  -6.091353e+01  -1.257090e+01
   5.850482e+01  -2.019540e+01
   1.350645e+02   4.284286e+01
   7.256649e+01   1.071242e+02
  -8.263437e+01   1.103848e+02
  -1.902111e+02   4.691635e+01
  -1.593836e+02  -3.840188e+01
  -3.325830e+01  -8.622574e+01
   6.340034e+01  -6.522837e+01
   4.932010e+01  -2.575406e+00
  -3.920508e+01   2.919199e+01
  -9.141970e+01  -2.066837e+01
  -3.654259e+01  -1.163157e+02
   8.433222e+01  -1.540956e+02
   1.611271e+02  -6.618478e+01
   1.257651e+02   9.513243e+01
   1.330030e+01   1.936702e+02
  -8.365287e+01   1.415243e+02
  -1.042759e+02  -9.390732e+00
  -5.745696e+01  -1.193449e+02
   8.297393e+00  -1.049932e+02
   4.924514e+01  -1.750600e+01
   4.835240e+01   3.222896e+01
   2.090794e+01   8.591994e+00
   5.219789e+00  -1.901949e+01
   2.617851e+01   1.767960e+01
   5.668619e+01   8.899953e+01
   3.617790e+01   1.074710e+02
  -5.179677e+01   4.413285e+01
  -1.362772e+02  -3.841619e+01
  -1.255079e+02  -7.048440e+01
  -1.816180e+01  -5.140034e+01
   8.342822e+01  -2.354632e+01
   8.718807e+01  -6.396560e+00
   1.459892e+01   9.156452e+00
  -3.628407e+01   2.148030e+01
  -1.731358e+01   1.560594e+01
   1.763920e+01  -2.346195e+00
  -3.933003e+00  -7.380731e+00
  -6.955463e+01  -1.746078e+00
  -9.186383e+01  -2.241387e+01
  -1.566441e+01  -7.944903e+01
   1.116914e+02  -1.152953e+02
   1.856289e+02  -6.303933e+01
   1.466088e+02   6.134902e+01
   2.927795e+01   1.593884e+02
  -7.883440e+01   1.523909e+02
  -1.145132e+02   6.253401e+01
  -8.015537e+01  -2.003706e+01
  -2.589106e+01  -3.651293e+01
  -2.618048e-01  -1.064079e+01
  -1.244217e+01  -6.130902e+00
  -3.172662e+01  -4.753601e+01
  -2.017107e+01  -9.058425e+01
   2.901887e+01  -7.148615e+01
   7.911651e+01   1.657786e+01
   7.805986e+01   1.038653e+02
   9.752246e+00   1.100056e+02
  -7.729048e+01   2.784056e+01
  -1.034415e+02  -6.894443e+01
  -3.652058e+01  -1.021231e+02
   6.401878e+01  -6.009423e+01
   1.004134e+02   8.837690e+00
   4.318636e+01   5.379420e+01
  -3.261202e+01   5.704068e+01
  -3.577062e+01   2.933771e+01
   2.925400e+01  -2.909386e+00
   6.829177e+01  -7.992004e+00
   1.692226e+01   2.585347e+01
  -7.833079e+01   6.557222e+01
  -1.182149e+02   5.608692e+01
  -6.788720e+01  -1.388851e+01
   1.414948e+01  -8.363151e+01
   5.497686e+01  -8.154886e+01
   4.058645e+01  -1.017124e+01
   4.458115e+00   5.324856e+01
  -2.395894e+01   4.546713e+01
  -3.592471e+01  -1.377994e+01
  -2.765769e+01  -5.339564e+01
   1.069104e+00  -3.626219e+01
   3.286343e+01   6.480745e+00
   4.110492e+01   2.298712e+01
   2.090884e+01   3.037060e+00
  -2.866328e+00  -1.692050e+01
  -7.530069e+00  -3.148311e+00
  -1.179923e+00   3.312886e+01
  -7.501468e+00   4.769084e+01
  -2.815639e+01   1.499328e+01
  -3.523194e+01  -3.849460e+01
  -6.083702e+00  -5.890970e+01
   4.161342e+01  -2.309489e+01
   5.923886e+01   3.505927e+01
   1.721461e+01   6.087585e+01
  -5.542841e+01   3.529010e+01
  -9.056179e+01  -1.254674e+01
  -4.991962e+01  -4.311049e+01
   2.806092e+01  -4.323651e+01
   6.421646e+01  -2.519799e+01
   2.648054e+01  -6.384624e+00
  -3.191423e+01   2.664136e-01
  -3.464261e+01  -1.081293e+01
   2.684516e+01  -2.748943e+01
   8.365440e+01  -1.970462e+01
