
 $NMID
 id='ANONYMOUS ', fmtdat='(2E16.6)'
 volume=1.0
 tramp=1.0
 $END
   4.692496e+03  -7.488743e+01
   2.758337e+03   2.840094e+03
  -8.305693e+02   3.015470e+03
  -2.350126e+03   9.269412e+02
  -1.038289e+03  -8.091134e+02
   7.626305e+02  -6.944048e+02
   1.020578e+03   4.749322e+02
   7.726650e+00   1.192118e+03
  -9.126624e+02   8.626552e+02
  -1.033310e+03  -1.141960e+02
  -4.893911e+02  -9.547367e+02
   2.784509e+02  -9.783402e+02
   7.187229e+02  -1.266188e+02
   4.356487e+02   7.901108e+02
  -2.961758e+02   8.221700e+02
  -6.704827e+02  -1.064617e+01
  -2.906067e+02  -7.456713e+02
   3.694743e+02  -6.776824e+02
   6.394450e+02  -7.531772e+01
   4.078623e+02   3.980959e+02
   4.516239e+00   4.751580e+02
  -2.696311e+02   2.846010e+02
  -2.451058e+02   1.719624e+01
   9.996607e+01  -1.100274e+02
   4.336175e+02   9.015955e+01
   2.392981e+02   4.486459e+02
  -4.667437e+02   4.625440e+02
  -9.149446e+02  -5.220801e+01
  -4.880521e+02  -5.890896e+02
   4.055194e+02  -5.474691e+02
   8.078597e+02   1.199949e+01
   3.906407e+02   5.127695e+02
  -2.898659e+02   5.660160e+02
  -6.047855e+02   2.267648e+02
  -4.528998e+02  -2.434182e+02
  -8.137215e+01  -5.208500e+02
   2.255069e+02  -3.213770e+02
   2.150515e+02   2.324355e+02
  -1.555402e+02   4.941691e+02
  -4.927543e+02   1.057226e+01
  -2.973606e+02  -7.267385e+02
   3.291109e+02  -7.758427e+02
   6.716886e+02  -2.116198e+01
   3.052773e+02   6.057946e+02
  -3.141662e+02   3.680144e+02
  -4.358152e+02  -3.339655e+02
   5.530830e+01  -5.922841e+02
   5.916493e+02  -1.604785e+02
   6.397491e+02   4.244531e+02
   1.804895e+02   6.252438e+02
  -4.072626e+02   3.785910e+02
  -6.753668e+02  -7.247988e+01
  -4.053274e+02  -4.190627e+02
   1.675672e+02  -4.085337e+02
   4.883300e+02  -6.440725e+01
   2.679837e+02   2.278324e+02
  -1.368110e+02   1.328118e+02
  -1.715947e+02  -1.702544e+02
   1.736305e+02  -2.193219e+02
   3.836002e+02   7.346370e+01
   1.580479e+02   3.288635e+02
  -2.214935e+02   2.766817e+02
  -3.494554e+02   6.501397e+01
  -1.929081e+02  -9.311074e+01
   3.488759e+01  -2.176636e+02
   2.206621e+02  -3.265025e+02
   3.416737e+02  -2.346195e+02
   3.109745e+02   1.327965e+02
   9.432013e+01   4.641494e+02
  -1.265547e+02   4.180532e+02
  -1.460361e+02   1.168029e+02
  -3.353105e+01  -3.038015e+01
  -3.142207e+01   7.912962e+01
  -1.878182e+02   1.441244e+02
  -2.918900e+02  -3.932369e+01
  -1.800527e+02  -2.779260e+02
   6.438106e+01  -2.772525e+02
   2.397015e+02  -2.386340e+01
   2.177552e+02   2.447998e+02
   4.870936e-01   3.121936e+02
  -2.762462e+02   1.335956e+02
  -3.854101e+02  -1.676166e+02
  -2.035584e+02  -3.723544e+02
   1.065378e+02  -3.309794e+02
   2.484838e+02  -1.269144e+02
   1.636189e+02   5.595953e+00
   9.765901e+01  -2.722111e+01
   2.327328e+02  -6.913768e+01
   4.111687e+02   5.204913e+01
   3.468602e+02   2.908958e+02
   3.932494e+00   4.582435e+02
  -3.663633e+02   4.310759e+02
  -5.050801e+02   2.158315e+02
  -3.575944e+02  -9.024882e+01
  -6.741556e+01  -3.103241e+02
   1.362105e+02  -2.761982e+02
   9.765861e+01  -3.533692e+01
  -1.077220e+02   1.237927e+02
  -2.140005e+02   5.132045e+00
  -6.493921e+01  -2.107494e+02
   1.704267e+02  -1.954208e+02
   2.002596e+02   5.860576e+01
  -1.057746e+01   2.116032e+02
  -2.060660e+02   4.343089e+01
  -1.744110e+02  -2.585259e+02
   3.312994e+01  -3.651193e+02
   2.379187e+02  -1.966305e+02
   3.322110e+02   6.706462e+01
   2.855915e+02   2.416785e+02
   1.042195e+02   2.677874e+02
  -1.125606e+02   1.691370e+02
  -1.882231e+02   2.730511e+01
  -6.720446e+01  -3.489553e+01
   7.436851e+01   3.416072e+01
   3.834380e+01   1.294957e+02
  -1.258603e+02   1.106201e+02
  -1.907523e+02  -7.214699e+00
  -6.746732e+01  -7.656646e+01
   8.024619e+01  -2.299087e+01
   5.913766e+01   7.017330e+01
  -1.222377e+02   8.763256e+01
  -2.851011e+02   3.053085e+00
  -2.708773e+02  -1.368225e+02
  -6.889118e+01  -2.587984e+02
   1.825935e+02  -2.742368e+02
   2.939116e+02  -1.395167e+02
   1.839372e+02   5.123708e+01
  -2.122434e+01   1.200799e+02
  -9.896976e+01   1.402027e+01
   2.738710e+01  -1.082482e+02
   2.027729e+02  -6.902023e+01
   2.271526e+02   1.027221e+02
   7.754890e+01   2.185527e+02
  -9.651002e+01   1.697801e+02
  -1.524451e+02   3.504232e+01
  -7.913122e+01  -4.202219e+01
   2.360977e+01  -7.430815e+00
   3.905405e+01   7.872139e+01
  -6.777876e+01   1.132974e+02
  -1.993944e+02   3.345518e+01
  -1.994725e+02  -1.225982e+02
  -2.660236e+01  -2.263944e+02
   1.701562e+02  -1.747059e+02
   2.060164e+02  -8.327397e+00
   7.239373e+01   1.222013e+02
  -6.842619e+01   1.204334e+02
  -8.891137e+01   3.473861e+01
  -2.339110e+01  -2.580611e+01
   1.787255e+01  -2.037697e+01
  -1.145609e+01   4.386716e+00
  -6.951300e+01  -1.218674e+01
  -8.633525e+01  -8.256463e+01
  -1.594225e+01  -1.578851e+02
   1.247757e+02  -1.556426e+02
   2.374186e+02  -3.132383e+01
   2.101758e+02   1.500683e+02
   4.669736e+01   2.459560e+02
  -1.123636e+02   1.791107e+02
  -1.421758e+02   2.867081e+01
  -7.344333e+01  -5.997808e+01
  -2.902650e+01  -3.886636e+01
  -5.454290e+01   1.209139e+01
  -8.020986e+01   6.232167e+00
  -3.938538e+01  -5.016721e+01
   4.483445e+01  -8.635936e+01
   1.010536e+02  -5.283341e+01
   8.225817e+01   3.530829e+01
  -1.357839e+01   1.083604e+02
  -1.397599e+02   8.639845e+01
  -1.993626e+02  -4.789782e+01
  -1.074339e+02  -2.019658e+02
   1.024734e+02  -2.358530e+02
   2.724844e+02  -1.043929e+02
   2.686007e+02   8.444307e+01
   1.174873e+02   1.823435e+02
  -3.793319e+01   1.541780e+02
  -9.808231e+01   8.880048e+01
  -8.365469e+01   7.263809e+01
  -7.046369e+01   9.362385e+01
  -9.542131e+01   7.549482e+01
  -1.312918e+02  -2.315686e+01
  -1.212265e+02  -1.578297e+02
  -3.242768e+01  -2.320650e+02
   9.965617e+01  -1.788751e+02
   1.809618e+02  -2.474596e+01
   1.429500e+02   1.224645e+02
   2.322469e+01   1.642061e+02
  -6.608329e+01   9.743738e+01
  -6.026032e+01   4.122187e+00
  -6.389537e+00  -4.080546e+01
   7.149240e+00  -3.412718e+01
  -3.953668e+01  -1.937248e+01
  -8.053183e+01  -2.444562e+01
  -4.469531e+01  -3.893717e+01
   6.330643e+01  -3.676739e+01
   1.580086e+02  -3.734820e+00
   1.459602e+02   4.931302e+01
   1.898781e+01   8.758721e+01
  -1.201878e+02   7.568710e+01
  -1.481697e+02   1.624324e+01
  -5.021075e+01  -3.944052e+01
   6.195096e+01  -3.734439e+01
   7.746015e+01   1.946603e+01
   5.482564e+00   6.965635e+01
  -5.942885e+01   5.849216e+01
  -6.406097e+01  -3.180239e+00
  -4.248334e+01  -5.189590e+01
  -4.360073e+01  -4.271471e+01
  -6.412932e+01  -1.865260e+00
  -6.799271e+01  -2.411566e-01
  -3.404404e+01  -6.868968e+01
   3.474278e+01  -1.480331e+02
   1.168334e+02  -1.432827e+02
   1.644013e+02  -3.351028e+01
   1.246324e+02   9.236809e+01
   7.759732e+00   1.272662e+02
  -8.681366e+01   6.121230e+01
  -6.116682e+01  -1.615538e+01
   6.068675e+01  -2.073025e+01
   1.419179e+02   4.405810e+01
   7.951003e+01   1.094505e+02
  -8.119317e+01   1.160534e+02
  -1.953082e+02   5.605578e+01
  -1.677696e+02  -3.188132e+01
  -4.025352e+01  -8.856804e+01
   6.079618e+01  -7.404978e+01
   4.981329e+01  -9.644862e+00
  -3.947163e+01   2.675677e+01
  -9.252306e+01  -2.340941e+01
  -3.297871e+01  -1.224167e+02
   9.557624e+01  -1.587195e+02
   1.737483e+02  -6.338205e+01
   1.307742e+02   1.043762e+02
   1.045540e+01   2.038045e+02
  -8.750055e+01   1.490783e+02
  -1.070765e+02  -5.312607e+00
  -6.380408e+01  -1.197066e+02
  -1.349895e+00  -1.092732e+02
   4.531594e+01  -2.177241e+01
   5.481715e+01   3.110470e+01
   2.864126e+01   8.432113e+00
   3.341076e+00  -2.164791e+01
   1.869636e+01   1.459536e+01
   5.688514e+01   9.024728e+01
   4.595001e+01   1.122852e+02
  -4.569959e+01   4.660086e+01
  -1.425250e+02  -4.028159e+01
  -1.350618e+02  -7.221158e+01
  -1.779830e+01  -5.015351e+01
   9.186741e+01  -2.264907e+01
   9.082365e+01  -8.695925e+00
   9.464506e+00   6.971162e+00
  -4.029393e+01   2.345330e+01
  -1.295186e+01   1.953623e+01
   2.345971e+01  -1.455210e+00
  -6.711169e+00  -9.889396e+00
  -7.803749e+01  -4.512710e+00
  -9.351894e+01  -2.488443e+01
  -5.781268e+00  -8.276948e+01
   1.239047e+02  -1.167513e+02
   1.897435e+02  -5.795726e+01
   1.430511e+02   7.152195e+01
   2.513848e+01   1.667327e+02
  -8.077039e+01   1.520810e+02
  -1.166670e+02   5.815222e+01
  -8.262452e+01  -2.254579e+01
  -2.496779e+01  -3.571869e+01
   4.513156e+00  -8.278134e+00
  -9.362863e+00  -3.391754e+00
  -3.430564e+01  -4.574480e+01
  -2.432509e+01  -9.146814e+01
   2.982468e+01  -7.321492e+01
   8.379688e+01   1.955464e+01
   7.857479e+01   1.124529e+02
   2.276142e+00   1.157764e+02
  -8.640659e+01   2.294065e+01
  -1.053852e+02  -7.969922e+01
  -3.094597e+01  -1.064706e+02
   6.911483e+01  -5.504286e+01
   9.896253e+01   1.354308e+01
   3.806560e+01   5.054205e+01
  -3.381736e+01   5.060921e+01
  -3.011808e+01   2.797182e+01
   3.687569e+01   2.339581e-01
   7.121195e+01  -6.370446e+00
   1.432295e+01   2.539695e+01
  -8.111359e+01   6.755672e+01
  -1.165702e+02   6.068822e+01
  -6.324188e+01  -1.161547e+01
   1.682794e+01  -8.450331e+01
   5.334789e+01  -7.991020e+01
   3.652689e+01  -3.634133e+00
   4.287321e-01   5.826559e+01
  -2.716893e+01   4.271318e+01
  -3.759825e+01  -2.052858e+01
  -2.661492e+01  -5.538019e+01
   3.836819e+00  -3.215926e+01
   3.399269e+01   9.557333e+00
   3.970014e+01   2.075573e+01
   2.073043e+01   3.383345e-01
   3.498650e-01  -1.341191e+01
  -6.242879e+00   5.495151e+00
  -8.677361e+00   3.904109e+01
  -2.072727e+01   4.498114e+01
  -3.502475e+01   5.137742e+00
  -2.923969e+01  -4.886491e+01
   5.301408e+00  -6.349955e+01
   4.689217e+01  -2.008911e+01
   5.670129e+01   4.197952e+01
   1.373856e+01   6.541643e+01
  -5.581816e+01   3.399306e+01
  -8.997264e+01  -1.715567e+01
  -4.966395e+01  -4.541071e+01
   2.989072e+01  -4.050747e+01
   6.655917e+01  -2.015065e+01
   2.387635e+01  -4.096102e+00
  -4.028678e+01  -2.942164e+00
  -4.000733e+01  -1.784656e+01
   3.265425e+01  -3.358724e+01
   9.603589e+01  -2.049332e+01
