
 $NMID
 id='ANONYMOUS ', fmtdat='(2E16.6)'
 volume=1.0
 tramp=1.0
 $END
  -2.863752e+03  -2.033802e+02
  -1.756290e+03  -1.538849e+03
   1.039625e+02  -1.737889e+03
   1.085982e+03  -9.913629e+02
   7.597260e+02  -1.656011e+02
  -6.480914e+00   1.077251e+02
  -2.889683e+02  -1.464225e+02
   1.366959e+01  -4.794697e+02
   4.277391e+02  -4.671107e+02
   5.545696e+02  -3.776026e+01
   3.379442e+02   4.595124e+02
  -2.916842e+01   5.506068e+02
  -2.639607e+02   1.276967e+02
  -1.802927e+02  -3.850340e+02
   1.316564e+02  -4.625475e+02
   3.507936e+02  -4.420420e+01
   2.365633e+02   4.325651e+02
  -1.212176e+02   5.298744e+02
  -4.007597e+02   2.254179e+02
  -3.715459e+02  -1.570442e+02
  -1.036472e+02  -3.107249e+02
   1.135091e+02  -2.043146e+02
   5.906408e+01  -5.527179e+01
  -1.756724e+02  -8.343249e+01
  -2.534296e+02  -2.636159e+02
   2.839896e+01  -3.401879e+02
   4.439613e+02  -1.349035e+02
   5.417523e+02   2.030813e+02
   1.698510e+02   3.462813e+02
  -3.175852e+02   1.648502e+02
  -4.501333e+02  -1.523511e+02
  -1.468605e+02  -3.410622e+02
   2.565009e+02  -3.015390e+02
   4.118109e+02  -9.231365e+01
   2.743737e+02   1.575133e+02
   5.093863e+01   2.751604e+02
  -4.233920e+01   1.457942e+02
   4.762376e+01  -1.002726e+02
   1.900324e+02  -1.390300e+02
   1.895467e+02   1.530300e+02
  -1.586003e+01   4.596014e+02
  -2.572036e+02   3.778063e+02
  -2.910339e+02  -3.550667e+01
  -7.664975e+01  -2.960970e+02
   1.551762e+02  -1.075100e+02
   1.436182e+02   2.644551e+02
  -1.245691e+02   3.451429e+02
  -4.014586e+02   2.867158e+01
  -4.155500e+02  -3.503229e+02
  -1.159687e+02  -4.419335e+02
   2.778461e+02  -2.209643e+02
   4.537174e+02   7.931166e+01
   2.809438e+02   2.337887e+02
  -6.026484e+01   1.893043e+02
  -2.538869e+02   5.145355e+01
  -1.742116e+02  -3.334146e+01
   1.942084e+00  -8.449772e+00
   3.202885e+01   5.314903e+01
  -1.014776e+02   4.317245e+01
  -1.968893e+02  -5.905885e+01
  -9.479833e+01  -1.744436e+02
   1.401692e+02  -2.081430e+02
   2.988352e+02  -1.144190e+02
   2.342363e+02   8.449740e+01
  -1.574753e+01   2.834040e+02
  -2.660790e+02   3.251674e+02
  -3.365241e+02   1.360814e+02
  -2.057312e+02  -1.566527e+02
  -2.507144e+01  -3.217214e+02
   4.702707e+01  -2.704692e+02
   1.671359e+01  -1.404519e+02
   1.934104e+01  -9.426152e+01
   1.224124e+02  -1.097025e+02
   2.318064e+02  -4.738977e+01
   2.169610e+02   1.183515e+02
   7.012684e+01   2.379304e+02
  -9.762148e+01   1.692525e+02
  -1.727938e+02  -4.696484e+01
  -1.114031e+02  -2.266496e+02
   5.545747e+01  -2.224356e+02
   2.251838e+02  -4.458053e+01
   2.660450e+02   1.673244e+02
   1.338049e+02   2.692697e+02
  -5.701417e+01   2.265836e+02
  -1.468426e+02   1.247346e+02
  -1.234413e+02   6.695747e+01
  -1.295892e+02   6.275224e+01
  -2.506254e+02   3.015529e+01
  -3.649961e+02  -9.517417e+01
  -2.755780e+02  -2.737771e+02
   3.539124e+01  -3.881900e+02
   3.505447e+02  -3.412891e+02
   4.307527e+02  -1.380094e+02
   2.500153e+02   1.030801e+02
   3.836222e+00   2.255348e+02
  -9.438153e+01   1.658540e+02
  -9.203737e+00   2.419134e+01
   1.131201e+02  -3.170825e+01
   1.162521e+02   4.576232e+01
  -4.456801e+00   1.292649e+02
  -1.134917e+02   8.200326e+01
  -9.250991e+01  -5.786617e+01
   3.676403e+01  -1.147928e+02
   1.454613e+02   9.480404e+00
   1.249084e+02   2.127060e+02
  -2.796630e+01   2.995209e+02
  -2.178257e+02   1.787744e+02
  -3.151551e+02  -6.037593e+01
  -2.424980e+02  -2.408777e+02
  -4.607498e+01  -2.496022e+02
   1.213519e+02  -1.216044e+02
   1.347137e+02   3.265184e+00
   2.742386e+01   1.589688e+01
  -4.562005e+01  -5.904971e+01
   9.489962e+00  -1.043775e+02
   1.161370e+02  -5.382253e+01
   1.296270e+02   3.300117e+01
   2.263785e+01   5.256968e+01
  -7.646339e+01  -1.459646e+01
  -3.329812e+01  -8.700030e+01
   1.355220e+02  -7.707179e+01
   2.706093e+02   2.667453e+01
   2.265370e+02   1.610275e+02
   1.615057e+01   2.385042e+02
  -1.956446e+02   2.026133e+02
  -2.438248e+02   7.381859e+01
  -1.180365e+02  -4.884550e+01
   3.338762e+01  -6.747226e+01
   5.720784e+01   1.052370e+01
  -5.348320e+01   7.106281e+01
  -1.675365e+02   2.081438e+01
  -1.617199e+02  -1.012107e+02
  -4.020035e+01  -1.684335e+02
   8.526398e+01  -1.150116e+02
   1.115801e+02  -7.700676e+00
   3.747670e+01   3.655450e+01
  -4.121212e+01  -1.965036e+01
  -2.403120e+01  -1.014394e+02
   9.065842e+01  -1.059308e+02
   1.907607e+02  -5.540387e+00
   1.582863e+02   1.270534e+02
   9.154136e-01   1.859249e+02
  -1.441348e+02   1.261863e+02
  -1.526431e+02   1.979986e+00
  -4.246673e+01  -8.536491e+01
   5.926044e+01  -8.025685e+01
   6.243149e+01  -1.738056e+01
  -1.220296e+00   2.428614e+01
  -3.577809e+01   8.117883e+00
   6.151526e+00  -2.379062e+01
   7.871781e+01  -2.420911e+00
   9.361643e+01   8.290406e+01
   6.858973e+00   1.585227e+02
  -1.324701e+02   1.345044e+02
  -2.146840e+02   1.279376e+00
  -1.662012e+02  -1.486630e+02
  -2.429949e+01  -2.035277e+02
   9.533160e+01  -1.363399e+02
   1.141623e+02  -2.293445e+01
   6.271453e+01   3.982861e+01
   2.865610e+01   2.538293e+01
   4.965191e+01  -1.172315e+01
   7.866653e+01  -4.937260e+00
   5.082168e+01   5.124715e+01
  -3.575317e+01   9.467221e+01
  -1.111034e+02   6.088033e+01
  -9.712926e+01  -4.046432e+01
   1.684483e+01  -1.174196e+02
   1.496651e+02  -7.894628e+01
   1.840081e+02   6.469036e+01
   6.922283e+01   1.951614e+02
  -1.202948e+02   1.949903e+02
  -2.419515e+02   6.277037e+01
  -2.130733e+02  -8.985664e+01
  -8.008959e+01  -1.534780e+02
   4.109623e+01  -1.200855e+02
   8.066002e+01  -6.680984e+01
   6.268436e+01  -5.856982e+01
   5.303927e+01  -8.136834e+01
   8.140901e+01  -6.840242e+01
   1.160804e+02   1.888800e+01
   1.015148e+02   1.394073e+02
   1.673376e+01   2.009629e+02
  -9.460630e+01   1.442237e+02
  -1.516960e+02   3.474565e+00
  -1.078944e+02  -1.181658e+02
  -2.149162e+00  -1.395309e+02
   7.147954e+01  -6.920535e+01
   5.731760e+01   1.553738e+01
  -4.356200e+00   4.960089e+01
  -2.604188e+01   3.333048e+01
   2.232295e+01   1.185679e+01
   7.435168e+01   1.694036e+01
   4.410341e+01   3.650184e+01
  -6.655782e+01   3.495225e+01
  -1.561920e+02  -5.060162e+00
  -1.279102e+02  -6.144790e+01
   3.658104e+00  -8.973729e+01
   1.227761e+02  -6.302589e+01
   1.301958e+02   9.669812e-02
   3.859384e+01   4.727681e+01
  -5.355903e+01   3.788712e+01
  -6.893925e+01  -1.772242e+01
  -1.675284e+01  -6.506086e+01
   4.063395e+01  -5.697472e+01
   6.096271e+01  -1.604721e+00
   5.148379e+01   4.483872e+01
   4.214298e+01   3.934017e+01
   4.840209e+01   3.716623e+00
   5.749435e+01   2.857866e+00
   3.911480e+01   6.485993e+01
  -2.630322e+01   1.349570e+02
  -1.155927e+02   1.279001e+02
  -1.627832e+02   2.712205e+01
  -1.147826e+02  -8.698908e+01
   1.161848e+00  -1.195182e+02
   8.376419e+01  -6.082290e+01
   5.477128e+01   1.027723e+01
  -5.180778e+01   1.676413e+01
  -1.166446e+02  -4.039895e+01
  -5.883491e+01  -9.639903e+01
   7.762151e+01  -9.415037e+01
   1.689644e+02  -3.261162e+01
   1.372920e+02   4.190191e+01
   2.374189e+01   7.667806e+01
  -5.989174e+01   5.164221e+01
  -4.390579e+01  -3.334335e+00
   3.598020e+01  -2.714827e+01
   8.155018e+01   1.874614e+01
   3.320054e+01   1.020094e+02
  -7.180665e+01   1.349434e+02
  -1.387893e+02   5.886542e+01
  -1.087694e+02  -8.225432e+01
  -1.030919e+01  -1.686967e+02
   7.562967e+01  -1.212925e+02
   9.192913e+01   1.322108e+01
   4.521813e+01   1.084377e+02
  -1.582791e+01   9.133721e+01
  -4.720469e+01   1.176123e+01
  -3.868509e+01  -3.053251e+01
  -1.361588e+01  -7.903094e+00
  -6.213174e+00   1.524345e+01
  -2.802072e+01  -1.893915e+01
  -4.924781e+01  -8.075395e+01
  -2.423503e+01  -9.415995e+01
   5.159082e+01  -3.682343e+01
   1.182653e+02   3.603136e+01
   1.056815e+02   6.468445e+01
   1.548820e+01   4.764633e+01
  -7.035581e+01   2.053063e+01
  -7.637501e+01   2.611282e+00
  -1.624831e+01  -1.028278e+01
   3.049009e+01  -1.754669e+01
   1.862593e+01  -1.091947e+01
  -1.220618e+01   2.635175e+00
   1.703165e+00   4.956888e+00
   5.735890e+01   7.895717e-01
   8.153792e+01   2.048076e+01
   1.912802e+01   7.042621e+01
  -9.522474e+01   1.014508e+02
  -1.665569e+02   5.655676e+01
  -1.339840e+02  -5.202160e+01
  -2.616998e+01  -1.399719e+02
   7.317473e+01  -1.362723e+02
   1.035663e+02  -5.704414e+01
   7.048089e+01   1.801839e+01
   2.317569e+01   3.409610e+01
   3.022523e+00   1.141739e+01
   1.298612e+01   7.760529e+00
   2.586110e+01   4.464680e+01
   1.361850e+01   8.144373e+01
  -2.710387e+01   6.285771e+01
  -6.818854e+01  -1.444902e+01
  -6.841414e+01  -8.979755e+01
  -1.168894e+01  -9.616431e+01
   6.466834e+01  -2.720261e+01
   9.125352e+01   5.729732e+01
   3.470966e+01   9.044687e+01
  -5.601208e+01   5.650370e+01
  -9.170363e+01  -7.095307e+00
  -4.105782e+01  -5.190416e+01
   3.020810e+01  -5.511341e+01
   3.671168e+01  -2.634064e+01
  -2.164372e+01   4.470984e+00
  -6.001694e+01   6.989412e+00
  -1.641911e+01  -2.414469e+01
   7.020496e+01  -5.640752e+01
   1.087968e+02  -4.504589e+01
   6.395153e+01   1.571735e+01
  -1.274663e+01   7.480285e+01
  -5.253677e+01   7.347992e+01
  -3.988013e+01   1.240647e+01
  -5.806966e+00  -4.510459e+01
   2.063890e+01  -4.253400e+01
   3.140931e+01   8.688090e+00
   2.463765e+01   4.756348e+01
  -1.312056e-01   3.556760e+01
  -2.896411e+01  -4.470213e+00
  -3.744400e+01  -2.317083e+01
  -1.879608e+01  -4.967129e+00
   4.158443e+00   1.781509e+01
   7.126991e+00   8.745472e+00
  -3.464815e+00  -2.640717e+01
  -7.565931e-01  -4.538630e+01
   2.175434e+01  -1.977585e+01
   3.548293e+01   2.901876e+01
   1.196250e+01   5.091765e+01
  -3.476521e+01   2.222747e+01
  -5.478950e+01  -2.850883e+01
  -1.677865e+01  -5.254748e+01
   5.062154e+01  -3.157153e+01
   8.215641e+01   1.025483e+01
   4.446187e+01   3.849714e+01
  -2.520140e+01   4.034384e+01
  -5.725910e+01   2.483497e+01
  -2.588171e+01   6.571897e+00
   2.350085e+01  -2.109690e+00
   2.790554e+01   5.600819e+00
  -2.069501e+01   2.055991e+01
  -6.780204e+01   1.615551e+01
