
 $NMID
 id='ANONYMOUS ', fmtdat='(2E16.6)'
 volume=1.0
 tramp=1.0
 $END
   5.645679e+02  -1.417880e+02
   3.781037e+02   3.103919e+02
  -9.490798e+01   3.897784e+02
  -3.077578e+02   9.660442e+01
  -1.170050e+02  -1.673285e+02
   1.451367e+02  -1.391758e+02
   1.781031e+02   5.945526e+01
   2.579262e+01   1.782071e+02
  -1.105064e+02   1.296523e+02
  -1.361109e+02  -8.153315e+00
  -7.184244e+01  -1.214582e+02
   3.342294e+01  -1.284116e+02
   1.078168e+02  -2.126189e+01
   7.984607e+01   1.004137e+02
  -2.579163e+01   1.099384e+02
  -8.846919e+01   4.921844e+00
  -4.183372e+01  -8.607999e+01
   4.379689e+01  -7.160286e+01
   7.191261e+01   2.863178e+00
   3.908575e+01   5.019356e+01
  -3.594772e+00   5.301482e+01
  -3.335052e+01   3.494821e+01
  -4.139540e+01  -7.838561e-02
  -4.924172e+00  -3.771561e+01
   5.766778e+01  -2.751489e+01
   6.336997e+01   4.131956e+01
  -2.548599e+01   8.768867e+01
  -1.150697e+02   3.675960e+01
  -8.880119e+01  -6.377086e+01
   2.914988e+01  -9.879198e+01
   1.048106e+02  -3.539594e+01
   7.079198e+01   5.042287e+01
  -1.225169e+01   8.101898e+01
  -6.236022e+01   4.675865e+01
  -5.983670e+01  -1.856719e+01
  -1.999422e+01  -6.687515e+01
   3.435662e+01  -4.941946e+01
   5.547966e+01   3.113713e+01
   3.361196e+00   8.649786e+01
  -7.627925e+01   3.289131e+01
  -7.884670e+01  -8.084311e+01
   1.640885e+01  -1.141062e+02
   9.750219e+01  -2.213590e+01
   6.399139e+01   7.791308e+01
  -3.642941e+01   6.688472e+01
  -7.717711e+01  -2.373503e+01
  -1.833027e+01  -7.551679e+01
   6.272853e+01  -4.177244e+01
   8.305613e+01   2.452701e+01
   3.448384e+01   6.276082e+01
  -3.700358e+01   5.566679e+01
  -7.711650e+01   1.072342e+01
  -5.243806e+01  -4.465118e+01
   1.816417e+01  -6.059232e+01
   6.341269e+01  -1.573176e+01
   3.434060e+01   3.659319e+01
  -2.591774e+01   2.820911e+01
  -3.389046e+01  -2.478249e+01
   1.784976e+01  -4.270360e+01
   5.299690e+01  -7.859434e-01
   2.579037e+01   3.993043e+01
  -1.973783e+01   3.234616e+01
  -2.777872e+01   5.408111e+00
  -8.948723e+00  -2.072342e+00
  -1.096471e+00  -5.564527e+00
  -1.232136e-01  -2.738206e+01
   1.816320e+01  -3.759931e+01
   3.863465e+01  -1.354184e+00
   2.596448e+01   4.868797e+01
  -1.060601e+01   5.036935e+01
  -2.461929e+01   6.566293e+00
  -3.664355e+00  -1.888001e+01
   1.306833e+01   2.547311e+00
  -3.437207e+00   2.814055e+01
  -3.136100e+01   1.506220e+01
  -3.371662e+01  -2.039911e+01
  -6.268605e+00  -3.522772e+01
   2.518066e+01  -1.680729e+01
   3.506914e+01   1.418837e+01
   1.474874e+01   3.355239e+01
  -2.278943e+01   2.758630e+01
  -4.609022e+01  -2.619372e+00
  -3.127445e+01  -3.445627e+01
   6.786122e+00  -3.841623e+01
   2.739683e+01  -1.369244e+01
   1.571948e+01   6.956502e+00
   8.146014e-01   4.936820e-01
   1.131262e+01  -1.595555e+01
   3.501770e+01  -1.241877e+01
   3.967976e+01   1.348452e+01
   1.645027e+01   4.002570e+01
  -1.631589e+01   4.965857e+01
  -3.881819e+01   3.679689e+01
  -4.083201e+01   3.700697e+00
  -2.018819e+01  -3.114820e+01
   9.051332e+00  -3.650322e+01
   1.807821e+01  -5.390403e+00
  -4.124235e+00   2.378012e+01
  -2.811986e+01   1.182228e+01
  -1.841273e+01  -2.431950e+01
   1.544494e+01  -3.237143e+01
   2.968884e+01   5.668049e-02
   7.263064e+00   2.796828e+01
  -2.143293e+01   1.478355e+01
  -2.428238e+01  -1.947993e+01
  -5.496194e+00  -3.379786e+01
   1.363341e+01  -2.101553e+01
   2.563112e+01  -2.751950e+00
   3.065946e+01   9.208255e+00
   2.144391e+01   1.801207e+01
  -2.380680e+00   2.060039e+01
  -1.944135e+01   1.021122e+01
  -1.066002e+01  -3.693429e+00
   1.000023e+01  -2.837845e+00
   1.220022e+01   1.151419e+01
  -7.404778e+00   1.823822e+01
  -2.148768e+01   7.273453e+00
  -1.237165e+01  -7.156983e+00
   5.572843e+00  -8.751800e+00
   9.408531e+00   9.924195e-01
  -4.019489e+00   1.036246e+01
  -2.083589e+01   1.131417e+01
  -2.753329e+01   7.698496e-01
  -1.813674e+01  -1.854505e+01
   3.979876e+00  -3.262276e+01
   2.341672e+01  -2.512951e+01
   2.252117e+01  -2.131748e-01
   2.773787e+00   1.589239e+01
  -1.224022e+01   6.403077e+00
  -4.202938e+00  -1.324105e+01
   1.695624e+01  -1.596339e+01
   2.655434e+01   1.938516e+00
   1.522567e+01   1.976128e+01
  -4.221148e+00   2.106049e+01
  -1.510278e+01   9.501603e+00
  -1.201603e+01  -1.971533e+00
  -8.540057e-01  -5.070602e+00
   6.846727e+00   1.105043e+00
   1.549274e+00   1.033062e+01
  -1.365665e+01   1.097274e+01
  -2.188450e+01  -2.829060e+00
  -1.055610e+01  -2.005409e+01
   1.091511e+01  -2.217431e+01
   2.080352e+01  -6.000040e+00
   1.158968e+01   1.166552e+01
  -3.173368e+00   1.511346e+01
  -8.841717e+00   6.644889e+00
  -5.620187e+00  -1.566391e+00
  -1.742866e+00  -3.682815e+00
  -1.187266e+00  -2.222680e+00
  -3.379831e+00  -1.037170e+00
  -6.644308e+00  -3.112807e+00
  -6.240791e+00  -9.887406e+00
   3.395472e+00  -1.628890e+01
   1.819678e+01  -1.193306e+01
   2.359601e+01   5.207724e+00
   1.186532e+01   2.107229e+01
  -5.715807e+00   2.030890e+01
  -1.255775e+01   5.914814e+00
  -7.576830e+00  -5.037198e+00
  -2.767932e+00  -3.717326e+00
  -3.945388e+00   2.141529e+00
  -5.298897e+00   2.561407e+00
  -2.205434e+00  -2.020515e+00
   1.974441e+00  -5.468507e+00
   3.769163e+00  -4.912669e+00
   4.185428e+00  -6.202052e-01
   2.356122e+00   6.146960e+00
  -5.635980e+00   1.024334e+01
  -1.650626e+01   4.036940e+00
  -1.732480e+01  -1.183701e+01
  -1.272673e+00  -2.384525e+01
   1.988703e+01  -1.911399e+01
   2.747286e+01  -1.357724e+00
   1.715252e+01   1.341489e+01
   1.450582e+00   1.582205e+01
  -6.867687e+00   1.113851e+01
  -6.748703e+00   8.574272e+00
  -4.850637e+00   9.394041e+00
  -6.390811e+00   8.138781e+00
  -1.122528e+01   9.895601e-01
  -1.439930e+01  -1.007164e+01
  -9.761635e+00  -1.885485e+01
   3.120459e+00  -1.895527e+01
   1.551593e+01  -8.800268e+00
   1.724645e+01   5.394338e+00
   8.305083e+00   1.381291e+01
  -1.413998e+00   1.202152e+01
  -4.437554e+00   4.506546e+00
  -3.033998e+00  -1.367132e+00
  -3.038459e+00  -2.704839e+00
  -5.406706e+00  -1.517617e+00
  -6.644799e+00  -7.172206e-01
  -3.934089e+00  -1.776711e+00
   2.769986e+00  -4.252865e+00
   1.054147e+01  -5.383263e+00
   1.339712e+01  -1.935954e+00
   6.625442e+00   5.160099e+00
  -5.712995e+00   9.720904e+00
  -1.194785e+01   6.853205e+00
  -5.966442e+00  -3.360283e-01
   4.286312e+00  -3.805059e+00
   6.710557e+00  -3.199352e-01
   4.466542e-01   4.932571e+00
  -5.086804e+00   5.303784e+00
  -4.638077e+00   6.743522e-01
  -2.710524e+00  -3.229399e+00
  -4.069057e+00  -2.191188e+00
  -6.459859e+00   1.568992e+00
  -5.941110e+00   1.931986e+00
  -3.164945e+00  -4.116824e+00
  -8.359172e-02  -1.225859e+01
   4.386788e+00  -1.438371e+01
   1.016684e+01  -7.142827e+00
   1.173976e+01   3.783667e+00
   4.840325e+00   9.278355e+00
  -4.568984e+00   6.161672e+00
  -5.225444e+00  -4.301783e-01
   4.730753e+00  -3.323250e+00
   1.386143e+01   1.246857e-01
   1.067453e+01   7.207981e+00
  -3.136985e+00   1.262344e+01
  -1.528362e+01   1.153100e+01
  -1.611697e+01   3.186235e+00
  -7.025187e+00  -6.615186e+00
   2.479162e+00  -9.481369e+00
   3.970488e+00  -3.634119e+00
  -2.395243e+00   2.629811e+00
  -8.105208e+00  -4.160988e-04
  -4.942405e+00  -1.003021e+01
   5.884902e+00  -1.581580e+01
   1.472041e+01  -8.714498e+00
   1.398140e+01   6.900113e+00
   5.395455e+00   1.796587e+01
  -3.960103e+00   1.567530e+01
  -9.321695e+00   3.270004e+00
  -9.629639e+00  -7.992254e+00
  -5.037747e+00  -9.787817e+00
   2.246504e+00  -3.973123e+00
   6.610848e+00   9.117725e-01
   4.188700e+00   6.716716e-02
  -6.589949e-01  -2.425418e+00
   3.078232e-01  -2.215512e-01
   6.921939e+00   5.883234e+00
   8.654608e+00   8.951224e+00
  -1.088714e+00   5.607133e+00
  -1.365825e+01   6.320870e-02
  -1.465306e+01  -2.715526e+00
  -2.702661e+00  -3.201579e+00
   8.477030e+00  -3.831371e+00
   7.798916e+00  -3.528904e+00
  -1.343406e-01  -3.174390e-01
  -3.485829e+00   3.259299e+00
   3.536574e-01   2.867041e+00
   3.067290e+00  -3.948294e-01
  -1.338401e+00  -1.224730e+00
  -8.072740e+00   9.042062e-01
  -8.351535e+00  -4.543937e-02
  -4.189927e-01  -6.851012e+00
   9.376141e+00  -1.253943e+01
   1.420327e+01  -8.438521e+00
   1.216729e+01   3.954395e+00
   5.351474e+00   1.399824e+01
  -2.721722e+00   1.405758e+01
  -8.014254e+00   6.701246e+00
  -7.605906e+00  -1.824050e-01
  -2.747519e+00  -1.953860e+00
   1.119869e+00  -1.308474e-01
  -2.270912e-01   6.648315e-01
  -4.548175e+00  -2.369125e+00
  -5.259925e+00  -6.876326e+00
   6.164324e-01  -6.940113e+00
   8.091072e+00   7.560686e-02
   9.106180e+00   8.674358e+00
   1.489938e+00   1.015289e+01
  -8.080996e+00   2.812303e+00
  -1.060264e+01  -5.881906e+00
  -3.959723e+00  -8.387587e+00
   4.969297e+00  -4.957289e+00
   7.737529e+00  -5.877907e-01
   3.323230e+00   2.124164e+00
  -1.410287e+00   3.461082e+00
  -3.536908e-01   2.865551e+00
   4.508031e+00  -7.938985e-02
   6.052008e+00  -1.978567e+00
   1.253643e+00   1.453731e+00
  -5.259581e+00   7.871391e+00
  -7.341955e+00   8.969372e+00
  -4.347415e+00   1.397794e+00
  -3.243897e-01  -7.246269e+00
   1.672380e+00  -7.424658e+00
   1.725260e+00   6.133558e-02
   5.790360e-01   5.585158e+00
  -1.633220e+00   3.413150e+00
  -3.709228e+00  -2.138501e+00
  -3.305040e+00  -4.069114e+00
  -5.947965e-02  -1.670150e+00
   3.107767e+00   5.487305e-01
   3.442510e+00   4.935228e-02
   1.678413e+00  -1.125347e+00
   2.813988e-01  -2.144809e-01
  -2.910717e-01   2.531110e+00
  -1.439573e+00   4.415704e+00
  -3.261747e+00   3.165748e+00
  -3.875974e+00  -9.983733e-01
  -2.031401e+00  -5.193262e+00
   1.335553e+00  -5.864763e+00
   4.244405e+00  -2.044871e+00
   4.864636e+00   3.247826e+00
   1.955845e+00   5.703441e+00
  -3.549520e+00   3.885762e+00
  -7.315786e+00   6.005600e-02
  -5.022853e+00  -2.754071e+00
   1.605219e+00  -3.353649e+00
   5.098446e+00  -2.206137e+00
   1.144719e+00  -5.298175e-01
  -5.013003e+00  -7.720742e-02
  -4.629805e+00  -2.021788e+00
   3.114117e+00  -4.712468e+00
   9.773157e+00  -4.038808e+00
