
 $NMID
 id='ANONYMOUS ', fmtdat='(2E16.6)'
 volume=1.0
 tramp=1.0
 $END
   3.595011e+03  -2.045758e+02
   2.199439e+03   2.086013e+03
  -5.407872e+02   2.329043e+03
  -1.762687e+03   7.805069e+02
  -8.112215e+02  -5.823363e+02
   5.650774e+02  -5.476888e+02
   7.930942e+02   3.359634e+02
   3.974455e+01   9.120042e+02
  -6.720777e+02   6.872756e+02
  -7.930119e+02  -5.554429e+01
  -4.032321e+02  -7.146205e+02
   1.824914e+02  -7.557152e+02
   5.449624e+02  -1.172243e+02
   3.567766e+02   5.922348e+02
  -2.012496e+02   6.380918e+02
  -5.128086e+02   1.234009e+01
  -2.459967e+02  -5.608875e+02
   2.593771e+02  -5.295338e+02
   4.846484e+02  -7.874242e+01
   3.241067e+02   2.897946e+02
   1.917740e+01   3.622988e+02
  -1.968357e+02   2.258179e+02
  -1.861298e+02   1.971800e+01
   7.581047e+01  -8.855933e+01
   3.380315e+02   5.634231e+01
   1.977459e+02   3.389243e+02
  -3.456892e+02   3.707929e+02
  -7.048563e+02  -1.201077e+01
  -3.916613e+02  -4.376061e+02
   2.961002e+02  -4.324640e+02
   6.210789e+02  -1.510553e+01
   3.154204e+02   3.818468e+02
  -2.050859e+02   4.436526e+02
  -4.568603e+02   1.932271e+02
  -3.546555e+02  -1.721762e+02
  -7.812603e+01  -3.961198e+02
   1.629332e+02  -2.515998e+02
   1.706981e+02   1.737532e+02
  -1.063416e+02   3.841551e+02
  -3.790013e+02   2.134942e+01
  -2.501435e+02  -5.502074e+02
   2.292049e+02  -6.050260e+02
   5.139882e+02  -3.543179e+01
   2.513754e+02   4.556564e+02
  -2.305983e+02   2.907411e+02
  -3.447390e+02  -2.440824e+02
   2.425437e+01  -4.566393e+02
   4.492354e+02  -1.419221e+02
   5.048185e+02   3.048289e+02
   1.589060e+02   4.732738e+02
  -3.002006e+02   3.031991e+02
  -5.201932e+02  -3.368565e+01
  -3.234438e+02  -3.075305e+02
   1.161655e+02  -3.172840e+02
   3.715812e+02  -6.412811e+01
   2.108665e+02   1.654367e+02
  -1.013546e+02   1.045114e+02
  -1.357338e+02  -1.258641e+02
   1.273966e+02  -1.730199e+02
   2.961576e+02   4.476337e+01
   1.310194e+02   2.467801e+02
  -1.603110e+02   2.191145e+02
  -2.647735e+02   6.241502e+01
  -1.515516e+02  -6.356021e+01
   1.754377e+01  -1.683028e+02
   1.572889e+02  -2.594955e+02
   2.548625e+02  -1.923759e+02
   2.435513e+02   9.193331e+01
   8.734554e+01   3.531191e+02
  -8.336339e+01   3.237543e+02
  -1.068167e+02   9.323985e+01
  -2.492772e+01  -2.177904e+01
  -2.104252e+01   6.339502e+01
  -1.403585e+02   1.179180e+02
  -2.263575e+02  -2.068054e+01
  -1.475426e+02  -2.080252e+02
   4.077678e+01  -2.152415e+02
   1.838497e+02  -2.600419e+01
   1.755768e+02   1.812247e+02
   1.049617e+01   2.400379e+02
  -2.081175e+02   1.117455e+02
  -3.015540e+02  -1.159814e+02
  -1.683230e+02  -2.787482e+02
   7.073166e+01  -2.568115e+02
   1.855514e+02  -1.051554e+02
   1.245080e+02  -1.516375e+00
   7.350752e+01  -2.517139e+01
   1.766580e+02  -6.189266e+01
   3.179339e+02   2.539866e+01
   2.765279e+02   2.112317e+02
   1.897728e+01   3.518074e+02
  -2.662710e+02   3.439264e+02
  -3.803716e+02   1.831183e+02
  -2.775548e+02  -5.752868e+01
  -6.182915e+01  -2.362300e+02
   9.567461e+01  -2.159798e+02
   7.343452e+01  -2.939428e+01
  -7.943572e+01   9.874903e+01
  -1.644068e+02   1.027944e+01
  -5.622408e+01  -1.600145e+02
   1.249450e+02  -1.550365e+02
   1.554311e+02   3.909291e+01
  -1.753624e+00   1.627860e+02
  -1.570597e+02   3.992478e+01
  -1.426364e+02  -1.924130e+02
   1.271022e+01  -2.810817e+02
   1.753899e+02  -1.594282e+02
   2.572693e+02   3.924336e+01
   2.280263e+02   1.753987e+02
   8.950548e+01   2.023902e+02
  -8.078875e+01   1.339526e+02
  -1.436623e+02   2.707721e+01
  -5.243345e+01  -2.478539e+01
   5.861058e+01   2.395916e+01
   3.370819e+01   9.855675e+01
  -9.325457e+01   8.923113e+01
  -1.467945e+02   5.866739e-01
  -5.410142e+01  -5.680867e+01
   6.126937e+01  -2.044432e+01
   4.816230e+01   5.208870e+01
  -9.072764e+01   7.198598e+01
  -2.190522e+02   1.269156e+01
  -2.131787e+02  -9.560563e+01
  -6.204860e+01  -1.967264e+02
   1.309711e+02  -2.171958e+02
   2.211024e+02  -1.170578e+02
   1.427697e+02   3.341076e+01
  -1.262987e+01   9.291616e+01
  -7.562625e+01   1.373937e+01
   1.762400e+01  -8.433951e+01
   1.536026e+02  -5.983975e+01
   1.778761e+02   7.129485e+01
   6.679338e+01   1.651688e+02
  -6.847856e+01   1.335129e+02
  -1.159189e+02   3.187749e+01
  -6.204989e+01  -2.988877e+01
   1.831761e+01  -6.746430e+00
   3.320312e+01   5.926046e+01
  -4.796588e+01   8.979677e+01
  -1.521409e+02   3.290441e+01
  -1.575663e+02  -8.724111e+01
  -2.818503e+01  -1.729572e+02
   1.246540e+02  -1.398541e+02
   1.576615e+02  -1.327895e+01
   5.945659e+01   9.136621e+01
  -4.856518e+01   9.468286e+01
  -6.708294e+01   2.952022e+01
  -1.879648e+01  -1.929208e+01
   1.320692e+01  -1.652873e+01
  -8.312107e+00   3.791783e+00
  -5.361333e+01  -6.549542e+00
  -6.937814e+01  -6.001201e+01
  -1.812450e+01  -1.206966e+02
   9.026428e+01  -1.241428e+02
   1.813756e+02  -3.247232e+01
   1.667095e+02   1.079384e+02
   4.432153e+01   1.871573e+02
  -8.008993e+01   1.412267e+02
  -1.080013e+02   2.688293e+01
  -5.825804e+01  -4.335488e+01
  -2.352492e+01  -2.868894e+01
  -4.138698e+01   1.124716e+01
  -6.132949e+01   7.759981e+00
  -3.216422e+01  -3.685132e+01
   3.100587e+01  -6.784415e+01
   7.548190e+01  -4.451310e+01
   6.458124e+01   2.380654e+01
  -6.234151e+00   8.374508e+01
  -1.041593e+02   7.165683e+01
  -1.549708e+02  -2.958135e+01
  -8.975592e+01  -1.515044e+02
   7.048252e+01  -1.849323e+02
   2.056894e+02  -8.969297e+01
   2.091403e+02   5.559242e+01
   9.640457e+01   1.359711e+02
  -2.385806e+01   1.196446e+02
  -7.219994e+01   7.146739e+01
  -6.160074e+01   5.850192e+01
  -5.067859e+01   7.417188e+01
  -7.044478e+01   6.126778e+01
  -1.014910e+02  -1.306221e+01
  -9.858282e+01  -1.167938e+02
  -3.304873e+01  -1.769760e+02
   7.027206e+01  -1.407829e+02
   1.381412e+02  -2.524464e+01
   1.140802e+02   8.912967e+01
   2.351951e+01   1.253557e+02
  -4.750593e+01   7.721623e+01
  -4.637241e+01   5.299644e+00
  -6.523049e+00  -3.127006e+01
   4.293505e+00  -2.673826e+01
  -3.088325e+01  -1.361456e+01
  -6.257493e+01  -1.580420e+01
  -3.571737e+01  -2.820294e+01
   4.724089e+01  -3.062834e+01
   1.212348e+02  -8.725699e+00
   1.139641e+02   3.269116e+01
   1.779630e+01   6.684998e+01
  -8.959196e+01   6.257267e+01
  -1.132665e+02   1.768125e+01
  -4.008045e+01  -2.858972e+01
   4.609758e+01  -3.085349e+01
   6.010914e+01   1.215631e+01
   6.792605e+00   5.305720e+01
  -4.335979e+01   4.682138e+01
  -4.919220e+01  -6.747707e-02
  -3.447358e+01  -3.806650e+01
  -3.500139e+01  -3.115207e+01
  -4.924597e+01   7.269698e-01
  -5.218188e+01   2.194100e+00
  -2.866035e+01  -5.134177e+01
   2.127657e+01  -1.147171e+02
   8.451066e+01  -1.142483e+02
   1.249887e+02  -3.182617e+01
   9.897912e+01   6.633601e+01
   1.057186e+01   9.747215e+01
  -6.431676e+01   5.017763e+01
  -4.742812e+01  -1.017806e+01
   4.581643e+01  -1.803201e+01
   1.103979e+02   2.885726e+01
   6.483566e+01   8.126891e+01
  -5.827182e+01   9.195699e+01
  -1.480209e+02   4.984374e+01
  -1.299654e+02  -1.867708e+01
  -3.396327e+01  -6.665750e+01
   4.421243e+01  -5.899912e+01
   3.803610e+01  -9.127457e+00
  -2.926633e+01   2.196005e+01
  -7.176173e+01  -1.464333e+01
  -2.958662e+01  -9.261748e+01
   6.765843e+01  -1.249233e+02
   1.308820e+02  -5.460187e+01
   1.038410e+02   7.543821e+01
   1.512970e+01   1.558626e+02
  -6.193037e+01   1.173865e+02
  -8.242487e+01  -3.238889e-01
  -5.320318e+01  -8.970305e+01
  -4.792240e+00  -8.399006e+01
   3.411635e+01  -1.839467e+01
   4.315781e+01   2.205568e+01
   2.222685e+01   5.622184e+00
   1.860657e+00  -1.675508e+01
   1.499624e+01   1.037523e+01
   4.685981e+01   6.719797e+01
   3.910856e+01   8.469767e+01
  -3.349246e+01   3.752278e+01
  -1.107173e+02  -2.591891e+01
  -1.061173e+02  -5.076484e+01
  -1.549028e+01  -3.784363e+01
   6.959345e+01  -2.048924e+01
   6.940329e+01  -9.834276e+00
   7.600746e+00   4.905100e+00
  -3.009151e+01   1.933563e+01
  -9.359202e+00   1.552852e+01
   1.788522e+01  -1.830338e+00
  -5.426153e+00  -7.393472e+00
  -5.991388e+01  -8.362285e-01
  -7.258117e+01  -1.575415e+01
  -7.404275e+00  -6.304650e+01
   9.082184e+01  -9.373950e+01
   1.433586e+02  -5.122894e+01
   1.121210e+02   4.958179e+01
   2.513835e+01   1.268802e+02
  -5.648910e+01   1.195503e+02
  -8.731083e+01   4.879345e+01
  -6.413110e+01  -1.436985e+01
  -2.046627e+01  -2.649393e+01
   3.075764e+00  -6.419823e+00
  -7.392131e+00  -2.214199e+00
  -2.798920e+01  -3.394024e+01
  -2.190027e+01  -6.939943e+01
   2.028812e+01  -5.721775e+01
   6.489621e+01   1.208077e+01
   6.412671e+01   8.341099e+01
   5.826191e+00   8.853677e+01
  -6.529473e+01   2.053004e+01
  -8.346045e+01  -5.733349e+01
  -2.750941e+01  -8.042104e+01
   5.089905e+01  -4.463539e+01
   7.632098e+01   6.767791e+00
   3.113651e+01   3.731724e+01
  -2.397087e+01   4.006589e+01
  -2.211362e+01   2.268643e+01
   2.817437e+01  -9.906728e-01
   5.435271e+01  -7.390425e+00
   1.193197e+01   1.891508e+01
  -5.983676e+01   5.467115e+01
  -8.738237e+01   5.075913e+01
  -4.902924e+01  -6.548441e+00
   9.876614e+00  -6.537488e+01
   3.803601e+01  -6.328139e+01
   2.777348e+01  -4.242940e+00
   2.334828e+00   4.456119e+01
  -1.922440e+01   3.369501e+01
  -2.941716e+01  -1.439056e+01
  -2.237267e+01  -4.149796e+01
   1.672774e+00  -2.477881e+01
   2.634594e+01   6.115897e+00
   3.126968e+01   1.448280e+01
   1.598269e+01  -4.698168e-01
  -3.185538e-01  -1.025399e+01
  -4.803440e+00   4.407953e+00
  -5.338661e+00   3.005020e+01
  -1.412857e+01   3.497004e+01
  -2.641021e+01   5.112134e+00
  -2.399308e+01  -3.622829e+01
   1.810463e+00  -4.861477e+01
   3.514996e+01  -1.699796e+01
   4.487215e+01   3.006401e+01
   1.281141e+01   4.958612e+01
  -4.157457e+01   2.808862e+01
  -6.954887e+01  -9.883505e+00
  -3.968680e+01  -3.303631e+01
   2.140268e+01  -3.213236e+01
   5.021189e+01  -1.783507e+01
   1.813861e+01  -4.078107e+00
  -3.088202e+01  -9.817806e-01
  -3.113583e+01  -1.233004e+01
   2.394856e+01  -2.676498e+01
   7.288003e+01  -1.888081e+01
