
 $NMID
 id='ANONYMOUS ', fmtdat='(2E16.6)'
 volume=1.0
 tramp=1.0
 $END
  -2.708821e+03   4.416363e+01
  -1.905923e+03  -1.272680e+03
  -1.900449e+02  -1.753987e+03
   9.685862e+02  -1.238974e+03
   8.991664e+02  -3.486796e+02
   1.805794e+02   1.469293e+02
  -2.548998e+02   9.530552e-01
  -9.209569e+01  -4.034778e+02
   3.203655e+02  -5.105632e+02
   5.379541e+02  -1.346626e+02
   4.096955e+02   3.892964e+02
   7.005770e+01   5.554686e+02
  -2.147155e+02   2.027913e+02
  -2.174895e+02  -3.093266e+02
   5.888534e+01  -4.608067e+02
   3.317954e+02  -1.034420e+02
   2.895658e+02   4.003963e+02
  -6.772633e+01   5.713296e+02
  -4.072839e+02   2.936013e+02
  -4.199711e+02  -1.238223e+02
  -1.480622e+02  -3.165200e+02
   8.440601e+01  -2.266884e+02
   4.230936e+01  -9.070093e+01
  -1.654348e+02  -1.224131e+02
  -2.172456e+02  -2.694185e+02
   4.621422e+01  -3.014713e+02
   4.109425e+02  -1.045134e+02
   4.956349e+02   1.724137e+02
   1.739979e+02   2.810661e+02
  -2.620528e+02   1.371520e+02
  -4.031829e+02  -1.210825e+02
  -1.492591e+02  -2.961833e+02
   2.218641e+02  -2.868749e+02
   3.838345e+02  -1.104443e+02
   2.768348e+02   1.245222e+02
   8.767946e+01   2.499365e+02
   7.083380e+00   1.564597e+02
   6.402476e+01  -4.878404e+01
   1.493134e+02  -9.470512e+01
   1.349063e+02   1.349924e+02
  -1.471657e+01   3.983696e+02
  -1.971586e+02   3.545804e+02
  -2.455132e+02   1.405821e+01
  -9.800825e+01  -2.338399e+02
   1.016481e+02  -1.026145e+02
   1.237674e+02   2.225576e+02
  -9.988924e+01   3.184572e+02
  -3.742919e+02   4.386096e+01
  -4.179819e+02  -3.194795e+02
  -1.431735e+02  -4.267073e+02
   2.479176e+02  -2.312266e+02
   4.440353e+02   4.731429e+01
   3.061350e+02   1.989948e+02
  -1.483704e+01   1.850492e+02
  -2.317923e+02   8.869052e+01
  -1.985195e+02   6.099375e+00
  -3.421822e+01  -1.237446e+01
   3.276481e+01   1.914593e+01
  -7.002924e+01   3.331012e+01
  -1.835111e+02  -3.057967e+01
  -1.148409e+02  -1.516325e+02
   1.238102e+02  -2.213869e+02
   3.116822e+02  -1.358249e+02
   2.519246e+02   9.132107e+01
  -2.138068e+01   3.074821e+02
  -2.809756e+02   3.346786e+02
  -3.349772e+02   1.325009e+02
  -1.986065e+02  -1.494837e+02
  -4.065779e+01  -3.066303e+02
   1.462928e+01  -2.750183e+02
   2.769013e+00  -1.689969e+02
   3.599897e+01  -1.170958e+02
   1.434405e+02  -1.060748e+02
   2.331125e+02  -3.205188e+01
   2.058658e+02   1.211702e+02
   6.651464e+01   2.262964e+02
  -8.897945e+01   1.583044e+02
  -1.614608e+02  -4.710311e+01
  -1.067559e+02  -2.176015e+02
   5.023199e+01  -2.125377e+02
   2.148251e+02  -4.413918e+01
   2.633629e+02   1.548711e+02
   1.478672e+02   2.561241e+02
  -3.574788e+01   2.305442e+02
  -1.385725e+02   1.461243e+02
  -1.337603e+02   8.639217e+01
  -1.442489e+02   6.650562e+01
  -2.579927e+02   2.568632e+01
  -3.693222e+02  -9.531319e+01
  -2.829921e+02  -2.708151e+02
   2.868672e+01  -3.904715e+02
   3.478680e+02  -3.495677e+02
   4.272685e+02  -1.482247e+02
   2.457320e+02   9.140552e+01
   9.949638e+00   2.148279e+02
  -7.537551e+01   1.655215e+02
   3.900040e+00   3.693638e+01
   1.049339e+02  -2.105664e+01
   1.013047e+02   3.910798e+01
  -7.295028e-01   1.139703e+02
  -9.354527e+01   7.996706e+01
  -8.293121e+01  -4.364287e+01
   2.660556e+01  -1.034868e+02
   1.361098e+02   6.757876e+00
   1.323337e+02   2.076940e+02
  -1.643156e+01   3.050134e+02
  -2.206829e+02   1.889773e+02
  -3.282209e+02  -5.711718e+01
  -2.495025e+02  -2.430539e+02
  -4.510426e+01  -2.492056e+02
   1.198473e+02  -1.203427e+02
   1.290799e+02  -1.542675e+00
   2.631709e+01   7.989058e+00
  -4.062187e+01  -6.031329e+01
   1.167205e+01  -9.865271e+01
   1.111304e+02  -5.105690e+01
   1.237091e+02   2.778309e+01
   2.168561e+01   4.490532e+01
  -7.388217e+01  -1.902811e+01
  -2.955672e+01  -8.895660e+01
   1.410537e+02  -7.817875e+01
   2.764034e+02   2.747213e+01
   2.283430e+02   1.629365e+02
   1.480146e+01   2.383791e+02
  -1.937594e+02   2.016941e+02
  -2.376289e+02   7.774148e+01
  -1.152719e+02  -3.999280e+01
   2.814344e+01  -6.196451e+01
   5.066720e+01   7.593419e+00
  -5.321153e+01   6.584681e+01
  -1.629558e+02   2.191319e+01
  -1.612227e+02  -9.449640e+01
  -4.579073e+01  -1.633803e+02
   7.851345e+01  -1.151815e+02
   1.069880e+02  -1.136253e+01
   3.472804e+01   3.098202e+01
  -4.149663e+01  -2.636071e+01
  -2.055324e+01  -1.064802e+02
   9.572745e+01  -1.069513e+02
   1.938312e+02  -4.895837e+00
   1.601598e+02   1.258740e+02
   5.030384e+00   1.849498e+02
  -1.388569e+02   1.303244e+02
  -1.513548e+02   1.033594e+01
  -4.651077e+01  -7.949355e+01
   5.407594e+01  -8.031009e+01
   5.897668e+01  -2.026659e+01
  -4.102337e+00   2.152326e+01
  -3.783458e+01   4.494569e+00
   8.401936e+00  -2.822862e+01
   8.553107e+01  -3.719278e+00
   9.929919e+01   8.692305e+01
   7.129004e+00   1.641738e+02
  -1.351095e+02   1.375417e+02
  -2.166646e+02   2.442021e+00
  -1.690931e+02  -1.471848e+02
  -3.030535e+01  -2.033679e+02
   8.986453e+01  -1.399650e+02
   1.144522e+02  -2.823575e+01
   6.735087e+01   3.683534e+01
   3.206185e+01   2.443684e+01
   5.104048e+01  -1.330782e+01
   8.168838e+01  -5.837385e+00
   5.481101e+01   5.492782e+01
  -3.660211e+01   1.015553e+02
  -1.180158e+02   6.401437e+01
  -1.029177e+02  -4.434839e+01
   1.842116e+01  -1.234244e+02
   1.558172e+02  -8.115779e+01
   1.880987e+02   6.601334e+01
   6.978253e+01   1.966375e+02
  -1.203374e+02   1.964889e+02
  -2.419003e+02   6.647737e+01
  -2.150246e+02  -8.461305e+01
  -8.416440e+01  -1.502467e+02
   3.732268e+01  -1.207236e+02
   7.812260e+01  -7.006218e+01
   6.012616e+01  -6.288677e+01
   5.061171e+01  -8.632501e+01
   8.154452e+01  -7.319164e+01
   1.199554e+02   1.598210e+01
   1.072077e+02   1.393799e+02
   2.159638e+01   2.032359e+02
  -9.182571e+01   1.474887e+02
  -1.513275e+02   6.355500e+00
  -1.095863e+02  -1.167486e+02
  -4.222140e+00  -1.392730e+02
   7.060675e+01  -6.829263e+01
   5.666436e+01   1.792212e+01
  -6.870933e+00   5.138601e+01
  -2.929511e+01   3.210341e+01
   2.223873e+01   8.663500e+00
   7.804760e+01   1.518934e+01
   4.661347e+01   3.734592e+01
  -6.936443e+01   3.629717e+01
  -1.615544e+02  -4.931428e+00
  -1.298435e+02  -6.206176e+01
   6.409972e+00  -9.064409e+01
   1.261381e+02  -6.471883e+01
   1.311298e+02  -1.437128e+00
   3.797452e+01   4.836282e+01
  -5.458403e+01   4.129019e+01
  -7.124291e+01  -1.646271e+01
  -2.017256e+01  -6.884628e+01
   3.926241e+01  -6.238003e+01
   6.392715e+01  -3.249476e+00
   5.633311e+01   4.679906e+01
   4.461416e+01   4.007263e+01
   4.820992e+01   1.413598e+00
   5.827137e+01   1.318889e+00
   4.258441e+01   6.764296e+01
  -2.333854e+01   1.406187e+02
  -1.172156e+02   1.325933e+02
  -1.685612e+02   2.900525e+01
  -1.200137e+02  -8.773184e+01
   2.932545e-01  -1.224372e+02
   8.650065e+01  -6.456103e+01
   5.728494e+01   8.572013e+00
  -5.219295e+01   1.870251e+01
  -1.192981e+02  -3.702628e+01
  -6.138934e+01  -9.538760e+01
   7.657303e+01  -9.654330e+01
   1.691869e+02  -3.619140e+01
   1.381553e+02   3.946592e+01
   2.497508e+01   7.584820e+01
  -5.867969e+01   5.156559e+01
  -4.316293e+01  -3.970076e+00
   3.694235e+01  -2.919514e+01
   8.452432e+01   1.668341e+01
   3.851744e+01   1.035679e+02
  -6.723699e+01   1.418217e+02
  -1.391395e+02   6.712910e+01
  -1.145709e+02  -7.883114e+01
  -1.727598e+01  -1.713738e+02
   7.231321e+01  -1.253133e+02
   9.290578e+01   1.187406e+01
   4.728207e+01   1.086076e+02
  -1.541047e+01   9.057018e+01
  -4.795390e+01   1.105367e+01
  -3.858430e+01  -2.910539e+01
  -1.237325e+01  -5.850526e+00
  -5.796747e+00   1.469313e+01
  -2.999011e+01  -2.150001e+01
  -5.245021e+01  -8.152856e+01
  -2.586457e+01  -9.250238e+01
   5.289587e+01  -3.669088e+01
   1.211764e+02   3.252582e+01
   1.080767e+02   6.134849e+01
   1.661371e+01   4.894415e+01
  -7.013279e+01   2.489365e+01
  -7.690419e+01   4.667404e+00
  -1.744913e+01  -1.204518e+01
   2.952352e+01  -1.923066e+01
   1.883173e+01  -9.571805e+00
  -1.141156e+01   4.667672e+00
   1.886175e+00   3.769997e+00
   5.770811e+01  -3.180731e+00
   8.435396e+01   1.837950e+01
   2.411428e+01   7.371352e+01
  -9.255591e+01   1.088880e+02
  -1.701590e+02   6.361026e+01
  -1.419718e+02  -4.932838e+01
  -3.252623e+01  -1.425359e+02
   7.196611e+01  -1.418793e+02
   1.057708e+02  -6.216518e+01
   7.278839e+01   1.585655e+01
   2.446868e+01   3.493072e+01
   3.775963e+00   1.342330e+01
   1.345035e+01   9.110185e+00
   2.640095e+01   4.500915e+01
   1.493471e+01   8.200820e+01
  -2.590428e+01   6.487109e+01
  -6.999541e+01  -1.156003e+01
  -7.414387e+01  -8.870776e+01
  -1.710899e+01  -9.910111e+01
   6.505590e+01  -3.268864e+01
   9.716687e+01   5.404424e+01
   3.981990e+01   9.258737e+01
  -5.651111e+01   6.156184e+01
  -9.578492e+01  -4.753694e+00
  -4.346787e+01  -5.448002e+01
   3.128675e+01  -5.890291e+01
   3.874359e+01  -2.659984e+01
  -2.124557e+01   7.712439e+00
  -6.121299e+01   9.510905e+00
  -1.779421e+01  -2.521962e+01
   6.975319e+01  -5.958659e+01
   1.098801e+02  -4.697655e+01
   6.637334e+01   1.654512e+01
  -1.073890e+01   7.751461e+01
  -5.320260e+01   7.639791e+01
  -4.327296e+01   1.393010e+01
  -9.076346e+00  -4.609928e+01
   2.031945e+01  -4.550881e+01
   3.379278e+01   6.342990e+00
   2.699346e+01   4.813373e+01
   1.308059e-01   3.812879e+01
  -3.036109e+01  -3.021636e+00
  -3.861871e+01  -2.387591e+01
  -1.872182e+01  -5.360375e+00
   4.426471e+00   1.981212e+01
   5.520651e+00   1.108214e+01
  -7.296815e+00  -2.766869e+01
  -3.924823e+00  -5.060441e+01
   2.296677e+01  -2.471080e+01
   4.103073e+01   2.831673e+01
   1.703072e+01   5.395259e+01
  -3.483235e+01   2.555577e+01
  -5.916307e+01  -2.726595e+01
  -2.023768e+01  -5.347468e+01
   5.155089e+01  -3.381029e+01
   8.583686e+01   7.985815e+00
   4.705761e+01   3.815365e+01
  -2.534492e+01   4.298861e+01
  -5.904308e+01   2.837461e+01
  -2.759713e+01   7.096579e+00
   2.304939e+01  -5.537708e+00
   2.939051e+01   2.220214e+00
  -1.793693e+01   2.167778e+01
  -6.628677e+01   2.100722e+01
