
 $NMID
 id='ANONYMOUS ', fmtdat='(2E16.6)'
 volume=1.0
 tramp=1.0
 $END
   4.534172e+03   7.105658e+01
   2.544581e+03   2.805377e+03
  -8.996015e+02   2.832735e+03
  -2.244902e+03   7.853731e+02
  -9.093086e+02  -7.967234e+02
   7.841830e+02  -5.996318e+02
   9.521208e+02   5.194830e+02
  -5.278820e+01   1.147207e+03
  -9.087491e+02   7.884621e+02
  -9.788296e+02  -1.485010e+02
  -4.291948e+02  -9.282984e+02
   3.017680e+02  -9.178119e+02
   6.894376e+02  -8.292451e+01
   3.850744e+02   7.805357e+02
  -3.133471e+02   7.760729e+02
  -6.388960e+02  -3.627468e+01
  -2.542930e+02  -7.194895e+02
   3.643810e+02  -6.297365e+02
   5.993066e+02  -5.389981e+01
   3.714267e+02   3.830468e+02
  -8.132863e+00   4.468908e+02
  -2.647424e+02   2.602777e+02
  -2.316683e+02   3.390475e-01
   1.138959e+02  -1.136817e+02
   4.338981e+02   1.009214e+02
   2.225923e+02   4.550915e+02
  -4.766819e+02   4.454363e+02
  -8.938481e+02  -7.964743e+01
  -4.496192e+02  -5.931112e+02
   4.225530e+02  -5.203130e+02
   7.896765e+02   4.028487e+01
   3.623507e+02   5.133182e+02
  -2.999427e+02   5.425796e+02
  -5.923448e+02   2.035268e+02
  -4.285297e+02  -2.478379e+02
  -5.818915e+01  -5.027137e+02
   2.312669e+02  -2.926843e+02
   1.954905e+02   2.470645e+02
  -1.801395e+02   4.791348e+02
  -4.890401e+02  -1.557646e+01
  -2.650518e+02  -7.262141e+02
   3.490218e+02  -7.407134e+02
   6.505632e+02   1.158842e+01
   2.677129e+02   6.018185e+02
  -3.242919e+02   3.404352e+02
  -4.143244e+02  -3.458940e+02
   7.275823e+01  -5.760434e+02
   5.799383e+02  -1.400214e+02
   6.104427e+02   4.248377e+02
   1.601513e+02   6.055926e+02
  -4.037508e+02   3.541098e+02
  -6.499726e+02  -8.620842e+01
  -3.745028e+02  -4.116925e+02
   1.791988e+02  -3.833080e+02
   4.699093e+02  -4.274599e+01
   2.403227e+02   2.259991e+02
  -1.424599e+02   1.155597e+02
  -1.547635e+02  -1.757808e+02
   1.822140e+02  -2.049641e+02
   3.676386e+02   8.584664e+01
   1.392821e+02   3.208996e+02
  -2.174280e+02   2.595335e+02
  -3.304999e+02   6.005498e+01
  -1.851575e+02  -8.410927e+01
   2.564815e+01  -2.075175e+02
   2.098173e+02  -3.196003e+02
   3.360768e+02  -2.273052e+02
   3.019774e+02   1.355186e+02
   8.016805e+01   4.518967e+02
  -1.328345e+02   3.948446e+02
  -1.371835e+02   1.007920e+02
  -2.042421e+01  -3.030504e+01
  -2.669251e+01   8.500569e+01
  -1.887378e+02   1.440128e+02
  -2.882986e+02  -4.294001e+01
  -1.710767e+02  -2.763133e+02
   7.029638e+01  -2.700013e+02
   2.369264e+02  -1.816837e+01
   2.091674e+02   2.438808e+02
  -5.976562e+00   3.052991e+02
  -2.730129e+02   1.253698e+02
  -3.714065e+02  -1.698025e+02
  -1.882534e+02  -3.629906e+02
   1.100627e+02  -3.139448e+02
   2.380228e+02  -1.138924e+02
   1.502377e+02   8.083754e+00
   9.020989e+01  -2.991821e+01
   2.268529e+02  -6.978245e+01
   3.995242e+02   5.155129e+01
   3.336259e+02   2.838769e+02
   2.630622e-01   4.439856e+02
  -3.575659e+02   4.151877e+02
  -4.911926e+02   2.037493e+02
  -3.454029e+02  -9.453811e+01
  -5.878596e+01  -3.037663e+02
   1.395293e+02  -2.622666e+02
   9.463645e+01  -2.611874e+01
  -1.114820e+02   1.201993e+02
  -2.104456e+02  -2.976190e+00
  -5.602190e+01  -2.086831e+02
   1.732655e+02  -1.834506e+02
   1.927218e+02   6.526443e+01
  -1.799272e+01   2.058743e+02
  -2.027500e+02   3.733788e+01
  -1.649642e+02  -2.518967e+02
   3.556709e+01  -3.504997e+02
   2.288975e+02  -1.886450e+02
   3.189816e+02   6.372583e+01
   2.759916e+02   2.343135e+02
   1.002571e+02   2.621242e+02
  -1.115207e+02   1.641261e+02
  -1.835716e+02   2.240513e+01
  -6.297648e+01  -3.687864e+01
   7.408080e+01   3.506363e+01
   3.532785e+01   1.287393e+02
  -1.256011e+02   1.062194e+02
  -1.857838e+02  -1.147302e+01
  -6.304139e+01  -7.739564e+01
   8.054902e+01  -2.228610e+01
   5.892669e+01   6.948747e+01
  -1.178329e+02   8.632928e+01
  -2.767353e+02   3.547246e+00
  -2.635235e+02  -1.338048e+02
  -6.605130e+01  -2.532172e+02
   1.803794e+02  -2.659976e+02
   2.876970e+02  -1.312789e+02
   1.768334e+02   5.427065e+01
  -2.460945e+01   1.166768e+02
  -9.734073e+01   1.014422e+01
   2.912965e+01  -1.066966e+02
   1.989549e+02  -6.434141e+01
   2.187984e+02   1.033821e+02
   7.121408e+01   2.130075e+02
  -9.679140e+01   1.627006e+02
  -1.488354e+02   3.080358e+01
  -7.578754e+01  -4.382264e+01
   2.523863e+01  -8.998028e+00
   4.026097e+01   7.680028e+01
  -6.502651e+01   1.115253e+02
  -1.940086e+02   3.271378e+01
  -1.929232e+02  -1.203381e+02
  -2.325548e+01  -2.197785e+02
   1.669052e+02  -1.665304e+02
   1.984670e+02  -4.314097e+00
   6.686118e+01   1.197660e+02
  -6.875472e+01   1.152968e+02
  -8.684081e+01   3.144944e+01
  -2.250539e+01  -2.699652e+01
   1.820830e+01  -2.142533e+01
  -9.105944e+00   3.786045e+00
  -6.546108e+01  -1.032952e+01
  -8.355800e+01  -7.800910e+01
  -1.649059e+01  -1.524419e+02
   1.208092e+02  -1.511451e+02
   2.307572e+02  -2.957656e+01
   2.028351e+02   1.469210e+02
   4.251040e+01   2.381125e+02
  -1.108002e+02   1.712202e+02
  -1.369354e+02   2.584939e+01
  -6.903887e+01  -5.813373e+01
  -2.686157e+01  -3.716840e+01
  -5.234886e+01   1.153011e+01
  -7.713789e+01   6.404603e+00
  -3.829644e+01  -4.681633e+01
   4.166152e+01  -8.240781e+01
   9.593490e+01  -5.243851e+01
   7.977210e+01   3.190844e+01
  -1.140787e+01   1.045126e+02
  -1.343754e+02   8.494224e+01
  -1.934806e+02  -4.608818e+01
  -1.039783e+02  -1.969484e+02
   1.007175e+02  -2.290189e+02
   2.650433e+02  -9.926932e+01
   2.591562e+02   8.457579e+01
   1.113738e+02   1.779461e+02
  -3.863727e+01   1.486876e+02
  -9.571661e+01   8.432299e+01
  -8.120695e+01   6.835305e+01
  -6.821204e+01   8.876250e+01
  -9.181980e+01   7.185116e+01
  -1.258826e+02  -2.278446e+01
  -1.158002e+02  -1.526673e+02
  -2.979476e+01  -2.242236e+02
   9.781309e+01  -1.720587e+02
   1.757204e+02  -2.223061e+01
   1.377789e+02   1.200175e+02
   2.109294e+01   1.596155e+02
  -6.551729e+01   9.459131e+01
  -5.975560e+01   4.100410e+00
  -7.272411e+00  -4.019206e+01
   6.705738e+00  -3.465547e+01
  -3.739427e+01  -1.998894e+01
  -7.681593e+01  -2.351089e+01
  -4.297888e+01  -3.714813e+01
   6.073383e+01  -3.608203e+01
   1.526187e+02  -4.527538e+00
   1.417384e+02   4.808382e+01
   1.906477e+01   8.619153e+01
  -1.161492e+02   7.380872e+01
  -1.438033e+02   1.491840e+01
  -4.926922e+01  -3.865529e+01
   5.919950e+01  -3.550582e+01
   7.438443e+01   1.897459e+01
   5.317164e+00   6.579426e+01
  -5.682474e+01   5.480269e+01
  -6.110455e+01  -2.901039e+00
  -4.050109e+01  -4.868906e+01
  -4.186346e+01  -4.086822e+01
  -6.179888e+01  -2.853919e+00
  -6.557311e+01  -7.629434e-01
  -3.282244e+01  -6.526104e+01
   3.359088e+01  -1.416463e+02
   1.127113e+02  -1.383550e+02
   1.583182e+02  -3.319716e+01
   1.198670e+02   8.880605e+01
   7.606113e+00   1.230679e+02
  -8.300677e+01   5.912547e+01
  -5.831018e+01  -1.570404e+01
   5.853637e+01  -1.948847e+01
   1.362964e+02   4.375815e+01
   7.589892e+01   1.065773e+02
  -7.929170e+01   1.117193e+02
  -1.894915e+02   5.269228e+01
  -1.623630e+02  -3.237983e+01
  -3.815016e+01  -8.639181e+01
   6.004165e+01  -7.147941e+01
   4.903667e+01  -9.047381e+00
  -3.769340e+01   2.564755e+01
  -8.860179e+01  -2.289253e+01
  -3.058145e+01  -1.173494e+02
   9.298695e+01  -1.508649e+02
   1.669039e+02  -5.875049e+01
   1.242389e+02   1.014679e+02
   8.102237e+00   1.957314e+02
  -8.568383e+01   1.426910e+02
  -1.036657e+02  -5.807348e+00
  -6.105449e+01  -1.163401e+02
  -3.394678e-01  -1.066214e+02
   4.434536e+01  -2.141751e+01
   5.282567e+01   3.104864e+01
   2.752282e+01   9.345349e+00
   3.673927e+00  -2.109666e+01
   1.848362e+01   1.299226e+01
   5.437149e+01   8.703335e+01
   4.318927e+01   1.096371e+02
  -4.451654e+01   4.565825e+01
  -1.367962e+02  -4.002814e+01
  -1.295357e+02  -7.124863e+01
  -1.721111e+01  -4.827891e+01
   8.829895e+01  -2.033566e+01
   8.777723e+01  -7.603329e+00
   9.461191e+00   5.977424e+00
  -3.911261e+01   2.187133e+01
  -1.313515e+01   1.940542e+01
   2.241279e+01  -4.800545e-01
  -6.041793e+00  -9.935149e+00
  -7.464188e+01  -5.775451e+00
  -8.959385e+01  -2.439965e+01
  -4.950800e+00  -7.818926e+01
   1.196817e+02  -1.102740e+02
   1.820097e+02  -5.478567e+01
   1.360549e+02   6.857265e+01
   2.275042e+01   1.599004e+02
  -7.804407e+01   1.459410e+02
  -1.117767e+02   5.542844e+01
  -7.909919e+01  -2.224546e+01
  -2.408216e+01  -3.431102e+01
   3.974405e+00  -7.259265e+00
  -9.439803e+00  -2.843848e+00
  -3.317370e+01  -4.451779e+01
  -2.304838e+01  -8.873152e+01
   2.913281e+01  -7.028491e+01
   8.014838e+01   1.969718e+01
   7.409775e+01   1.084550e+02
   1.116121e+00   1.103018e+02
  -8.243630e+01   2.055597e+01
  -9.964727e+01  -7.718180e+01
  -2.893848e+01  -1.017037e+02
   6.586808e+01  -5.210570e+01
   9.454702e+01   1.301075e+01
   3.705762e+01   4.799889e+01
  -3.169699e+01   4.851160e+01
  -2.889455e+01   2.771977e+01
   3.497362e+01   1.430826e+00
   6.830752e+01  -5.544717e+00
   1.381885e+01   2.409572e+01
  -7.852137e+01   6.442259e+01
  -1.130658e+02   5.837581e+01
  -6.123327e+01  -1.064461e+01
   1.650386e+01  -8.090694e+01
   5.130626e+01  -7.706730e+01
   3.422118e+01  -4.072753e+00
  -4.437375e-01   5.545349e+01
  -2.581632e+01   4.059733e+01
  -3.512470e+01  -2.005130e+01
  -2.520686e+01  -5.320543e+01
   3.130523e+00  -3.056584e+01
   3.223382e+01   9.425557e+00
   3.851863e+01   1.987722e+01
   2.036358e+01   3.653900e-01
  -1.829314e-01  -1.245350e+01
  -7.330077e+00   5.407133e+00
  -9.276270e+00   3.639757e+01
  -1.955426e+01   4.129079e+01
  -3.220119e+01   3.906427e+00
  -2.652484e+01  -4.613507e+01
   5.854928e+00  -5.937771e+01
   4.470039e+01  -1.846293e+01
   5.347170e+01   4.011231e+01
   1.242135e+01   6.245451e+01
  -5.361711e+01   3.255035e+01
  -8.589229e+01  -1.659843e+01
  -4.736630e+01  -4.377571e+01
   2.844536e+01  -3.867478e+01
   6.334906e+01  -1.893330e+01
   2.267078e+01  -4.296942e+00
  -3.823622e+01  -4.158120e+00
  -3.738062e+01  -1.802702e+01
   3.238717e+01  -3.134489e+01
   9.253194e+01  -1.764656e+01
