
 $NMID
 id='ANONYMOUS ', fmtdat='(2E16.6)'
 volume=1.0
 tramp=1.0
 $END
   2.778309e+03   1.475018e+02
   1.703048e+03   1.521035e+03
  -1.577582e+02   1.711759e+03
  -1.114467e+03   9.044295e+02
  -7.283219e+02   5.563857e+01
   7.419213e+01  -1.631211e+02
   3.371963e+02   1.585760e+02
  -4.445111e+00   5.052776e+02
  -4.335795e+02   4.669579e+02
  -5.525805e+02   2.268495e+01
  -3.256754e+02  -4.655884e+02
   4.818627e+01  -5.447846e+02
   2.848266e+02  -1.198374e+02
   1.918611e+02   3.875182e+02
  -1.334696e+02   4.568947e+02
  -3.508225e+02   3.703065e+01
  -2.222020e+02  -4.239628e+02
   1.345705e+02  -4.982459e+02
   3.898420e+02  -1.914172e+02
   3.432477e+02   1.670924e+02
   8.524280e+01   2.998450e+02
  -1.182454e+02   1.948180e+02
  -7.245600e+01   4.824568e+01
   1.500011e+02   5.820856e+01
   2.453782e+02   2.215283e+02
   4.735519e-01   3.169556e+02
  -4.027659e+02   1.535611e+02
  -5.267382e+02  -1.676122e+02
  -1.869681e+02  -3.357315e+02
   2.938093e+02  -1.872195e+02
   4.422182e+02   1.224144e+02
   1.580698e+02   3.247249e+02
  -2.345863e+02   2.995100e+02
  -3.920689e+02   9.779394e+01
  -2.672509e+02  -1.505665e+02
  -5.096836e+01  -2.739786e+02
   5.504698e+01  -1.514564e+02
  -1.651246e+01   1.012176e+02
  -1.661000e+02   1.601895e+02
  -1.998001e+02  -1.205205e+02
  -1.759782e+01  -4.405896e+02
   2.378537e+02  -3.822973e+02
   3.010829e+02   2.368716e+01
   9.433494e+01   2.973076e+02
  -1.542411e+02   1.243800e+02
  -1.590429e+02  -2.445851e+02
   1.049432e+02  -3.367882e+02
   3.822201e+02  -3.969575e+01
   3.993215e+02   3.246131e+02
   1.122556e+02   4.192941e+02
  -2.642450e+02   2.167435e+02
  -4.337550e+02  -7.051673e+01
  -2.687136e+02  -2.301972e+02
   6.359503e+01  -1.944368e+02
   2.537246e+02  -4.967423e+01
   1.694195e+02   4.890850e+01
  -1.371126e+01   2.123946e+01
  -4.381826e+01  -5.842798e+01
   9.760836e+01  -5.691619e+01
   1.971926e+02   5.376331e+01
   9.341028e+01   1.733009e+02
  -1.352864e+02   1.962943e+02
  -2.774170e+02   9.876333e+01
  -2.086746e+02  -7.878307e+01
   1.773121e+01  -2.512906e+02
   2.383657e+02  -2.943827e+02
   3.057602e+02  -1.323503e+02
   1.965602e+02   1.395850e+02
   3.005077e+01   3.057080e+02
  -4.983191e+01   2.609453e+02
  -2.852415e+01   1.266200e+02
  -2.054161e+01   7.355666e+01
  -1.030001e+02   9.539922e+01
  -2.055225e+02   5.137815e+01
  -2.033471e+02  -9.972025e+01
  -7.418207e+01  -2.192436e+02
   8.487476e+01  -1.637596e+02
   1.627226e+02   3.558953e+01
   1.111561e+02   2.070153e+02
  -4.468142e+01   2.102049e+02
  -2.088795e+02   4.906989e+01
  -2.529764e+02  -1.516871e+02
  -1.286793e+02  -2.545121e+02
   5.628283e+01  -2.164910e+02
   1.437700e+02  -1.141800e+02
   1.170783e+02  -5.378969e+01
   1.152122e+02  -5.282943e+01
   2.257241e+02  -3.027218e+01
   3.355176e+02   8.291933e+01
   2.567815e+02   2.506110e+02
  -2.878125e+01   3.591578e+02
  -3.202656e+02   3.180675e+02
  -3.983934e+02   1.324999e+02
  -2.373149e+02  -9.208527e+01
  -9.895440e+00  -2.126379e+02
   8.924446e+01  -1.616845e+02
   1.698338e+01  -2.396210e+01
  -1.014300e+02   3.743159e+01
  -1.145621e+02  -3.595696e+01
  -3.188001e+00  -1.247324e+02
   1.078037e+02  -8.587339e+01
   9.445821e+01   5.183672e+01
  -3.020269e+01   1.134263e+02
  -1.375634e+02  -3.256494e+00
  -1.181934e+02  -1.976789e+02
   2.616279e+01  -2.786147e+02
   2.003046e+02  -1.637714e+02
   2.879886e+02   5.631673e+01
   2.238889e+02   2.193019e+02
   4.699224e+01   2.281770e+02
  -1.093140e+02   1.147137e+02
  -1.273501e+02   1.649254e-01
  -2.896638e+01  -1.598162e+01
   4.383962e+01   5.107493e+01
  -4.002612e+00   9.680195e+01
  -1.060839e+02   5.422288e+01
  -1.234309e+02  -2.723538e+01
  -2.505016e+01  -4.973496e+01
   6.943314e+01   9.781514e+00
   3.235350e+01   7.725989e+01
  -1.219980e+02   7.053040e+01
  -2.469787e+02  -2.201176e+01
  -2.094908e+02  -1.442189e+02
  -1.932157e+01  -2.182611e+02
   1.764186e+02  -1.904274e+02
   2.260562e+02  -7.329374e+01
   1.136063e+02   4.430959e+01
  -2.881799e+01   6.624589e+01
  -5.579736e+01  -6.906146e+00
   4.588833e+01  -6.779427e+01
   1.552846e+02  -2.348765e+01
   1.530937e+02   9.195494e+01
   4.019483e+01   1.577281e+02
  -7.838159e+01   1.097472e+02
  -1.051537e+02   9.755724e+00
  -3.808378e+01  -3.344349e+01
   3.539376e+01   1.551610e+01
   2.276724e+01   8.988966e+01
  -8.040484e+01   9.648501e+01
  -1.739506e+02   7.273737e+00
  -1.474588e+02  -1.150981e+02
  -3.195322e+00  -1.726809e+02
   1.334326e+02  -1.192641e+02
   1.438981e+02  -2.504531e+00
   4.164524e+01   8.101283e+01
  -5.458834e+01   7.678931e+01
  -5.920842e+01   1.757808e+01
  -1.241648e+00  -2.196411e+01
   3.066309e+01  -8.284063e+00
  -6.383148e+00   1.975889e+01
  -7.080112e+01   4.345177e-01
  -8.411514e+01  -7.567715e+01
  -6.631619e+00  -1.439412e+02
   1.198381e+02  -1.238316e+02
   1.970392e+02  -3.681789e+00
   1.549197e+02   1.353076e+02
   2.409275e+01   1.889768e+02
  -8.828715e+01   1.279862e+02
  -1.065119e+02   2.134570e+01
  -5.813558e+01  -3.825270e+01
  -2.614232e+01  -2.447356e+01
  -4.563794e+01   1.058942e+01
  -7.165037e+01   4.389364e+00
  -4.490276e+01  -4.674464e+01
   3.375930e+01  -8.521511e+01
   1.002638e+02  -5.410093e+01
   8.664496e+01   3.672251e+01
  -1.544260e+01   1.057469e+02
  -1.352209e+02   7.192134e+01
  -1.683712e+02  -5.755563e+01
  -6.612835e+01  -1.778598e+02
   1.077625e+02  -1.806690e+02
   2.226538e+02  -6.069950e+01
   1.987608e+02   8.121695e+01
   7.628024e+01   1.421764e+02
  -3.705711e+01   1.123211e+02
  -7.499247e+01   6.280712e+01
  -5.905881e+01   5.463405e+01
  -5.003400e+01   7.517038e+01
  -7.549793e+01   6.275864e+01
  -1.069772e+02  -1.778280e+01
  -9.395685e+01  -1.286136e+02
  -1.645122e+01  -1.855830e+02
   8.656282e+01  -1.342353e+02
   1.405279e+02  -5.078134e+00
   1.011765e+02   1.077865e+02
   3.844203e+00   1.290201e+02
  -6.435774e+01   6.538805e+01
  -5.213194e+01  -1.234183e+01
   3.149705e+00  -4.409549e+01
   2.191288e+01  -3.009649e+01
  -2.201503e+01  -1.140275e+01
  -6.820652e+01  -1.629499e+01
  -4.005561e+01  -3.354259e+01
   6.026221e+01  -3.170756e+01
   1.420297e+02   4.197088e+00
   1.177075e+02   5.486521e+01
  -1.404484e+00   8.110415e+01
  -1.113961e+02   5.811946e+01
  -1.199216e+02   1.298850e+00
  -3.598853e+01  -4.219951e+01
   4.962115e+01  -3.430401e+01
   6.345465e+01   1.640104e+01
   1.397120e+01   5.974916e+01
  -3.892950e+01   5.200066e+01
  -5.576466e+01   8.355251e-01
  -4.584653e+01  -4.169370e+01
  -3.835961e+01  -3.619928e+01
  -4.550030e+01  -3.182520e+00
  -5.324683e+01  -2.408848e+00
  -3.489491e+01  -5.949603e+01
   2.501033e+01  -1.239449e+02
   1.054126e+02  -1.174095e+02
   1.481240e+02  -2.479450e+01
   1.050759e+02   7.983776e+01
  -4.682718e-01   1.092893e+02
  -7.661122e+01   5.509337e+01
  -5.043519e+01  -1.001767e+01
   4.796606e+01  -1.555776e+01
   1.084029e+02   3.717168e+01
   5.533695e+01   8.885846e+01
  -7.095949e+01   8.751393e+01
  -1.560033e+02   3.168963e+01
  -1.275325e+02  -3.720796e+01
  -2.308276e+01  -7.075657e+01
   5.444911e+01  -4.895571e+01
   4.033884e+01   1.833239e+00
  -3.313015e+01   2.456183e+01
  -7.518336e+01  -1.763058e+01
  -3.005166e+01  -9.481475e+01
   6.775730e+01  -1.249989e+02
   1.296971e+02  -5.387913e+01
   1.009878e+02   7.702977e+01
   9.230099e+00   1.567901e+02
  -6.998398e+01   1.128502e+02
  -8.491235e+01  -1.136699e+01
  -4.270135e+01  -9.960542e+01
   1.279825e+01  -8.454379e+01
   4.265068e+01  -1.150558e+01
   3.665143e+01   2.775800e+01
   1.382725e+01   7.121330e+00
   5.346362e+00  -1.443263e+01
   2.445160e+01   1.696985e+01
   4.535835e+01   7.439596e+01
   2.405118e+01   8.720357e+01
  -4.632435e+01   3.420624e+01
  -1.097962e+02  -3.327540e+01
  -9.880656e+01  -5.954677e+01
  -1.418300e+01  -4.357325e+01
   6.609103e+01  -1.887370e+01
   7.077454e+01  -2.884376e+00
   1.403786e+01   9.141181e+00
  -2.866399e+01   1.653373e+01
  -1.631758e+01   1.065240e+01
   1.221572e+01  -2.358254e+00
  -2.073930e+00  -4.941585e+00
  -5.419204e+01  -1.044262e+00
  -7.526293e+01  -1.917126e+01
  -1.599016e+01  -6.541271e+01
   8.950695e+01  -9.370784e+01
   1.538067e+02  -5.126944e+01
   1.227035e+02   4.950613e+01
   2.353195e+01   1.299265e+02
  -6.750360e+01   1.252557e+02
  -9.557375e+01   5.177243e+01
  -6.523826e+01  -1.690991e+01
  -2.115154e+01  -3.120013e+01
  -1.942059e+00  -1.015657e+01
  -1.137917e+01  -6.702716e+00
  -2.420578e+01  -4.067757e+01
  -1.327982e+01  -7.493422e+01
   2.498566e+01  -5.808849e+01
   6.351088e+01   1.367967e+01
   6.313314e+01   8.393651e+01
   9.610368e+00   8.945351e+01
  -6.103029e+01   2.433277e+01
  -8.437669e+01  -5.440217e+01
  -3.106667e+01  -8.391799e+01
   5.237824e+01  -5.117524e+01
   8.410197e+01   7.285560e+00
   3.685042e+01   4.719718e+01
  -2.802358e+01   4.959473e+01
  -3.278436e+01   2.391955e+01
   2.122465e+01  -3.693851e+00
   5.567122e+01  -6.223745e+00
   1.465666e+01   2.213879e+01
  -6.493255e+01   5.225625e+01
  -9.961944e+01   4.221948e+01
  -5.796368e+01  -1.408640e+01
   1.211332e+01  -6.893871e+01
   4.798688e+01  -6.726075e+01
   3.604597e+01  -1.026050e+01
   4.749041e+00   4.235580e+01
  -1.952558e+01   3.867959e+01
  -2.924836e+01  -9.087710e+00
  -2.252109e+01  -4.404915e+01
   6.259708e-01  -3.203044e+01
   2.685565e+01   4.597577e+00
   3.415675e+01   2.091408e+01
   1.720959e+01   4.098873e+00
  -3.238219e+00  -1.581975e+01
  -6.217305e+00  -6.585310e+00
   2.009931e+00   2.537330e+01
  -1.558551e+00   4.143444e+01
  -2.128244e+01   1.661098e+01
  -3.175408e+01  -2.849003e+01
  -9.156301e+00  -4.772384e+01
   3.287424e+01  -2.001125e+01
   5.003535e+01   2.737739e+01
   1.492398e+01   4.910126e+01
  -4.658866e+01   2.883018e+01
  -7.547437e+01  -1.016655e+01
  -4.087281e+01  -3.574800e+01
   2.348555e+01  -3.665455e+01
   5.307572e+01  -2.203392e+01
   2.337240e+01  -5.630764e+00
  -2.306102e+01   1.524131e+00
  -2.665637e+01  -6.249750e+00
   1.990832e+01  -2.002163e+01
   6.439180e+01  -1.519171e+01
