
 $NMID
 id='ANONYMOUS ', fmtdat='(2E16.6)'
 volume=1.0
 tramp=1.0
 $END
  -3.204842e+03   6.953845e+01
  -2.217275e+03  -1.595103e+03
  -8.673695e+01  -2.114190e+03
   1.269417e+03  -1.340929e+03
   1.047551e+03  -2.180291e+02
   9.314532e+01   2.689573e+02
  -3.934659e+02  -3.679699e+01
  -1.104272e+02  -5.456212e+02
   4.223967e+02  -6.166494e+02
   6.615263e+02  -1.220503e+02
   4.694411e+02   5.020673e+02
   3.585064e+01   6.736789e+02
  -3.055105e+02   2.254129e+02
  -2.763132e+02  -3.949813e+02
   9.068757e+01  -5.558760e+02
   4.112207e+02  -1.037642e+02
   3.200957e+02   4.863804e+02
  -1.203331e+02   6.458126e+02
  -4.876153e+02   2.920498e+02
  -4.635669e+02  -1.791824e+02
  -1.422315e+02  -3.735295e+02
   1.182296e+02  -2.594935e+02
   7.668177e+01  -9.603960e+01
  -1.606672e+02  -1.094303e+02
  -2.521465e+02  -2.670001e+02
   1.454817e+01  -3.357155e+02
   4.436949e+02  -1.532812e+02
   5.856192e+02   1.671289e+02
   2.353945e+02   3.375996e+02
  -2.914666e+02   2.018754e+02
  -4.845064e+02  -1.112625e+02
  -1.954265e+02  -3.445372e+02
   2.459891e+02  -3.462041e+02
   4.444186e+02  -1.354649e+02
   3.259664e+02   1.500864e+02
   9.958323e+01   3.090353e+02
  -1.920528e+01   2.003525e+02
   2.818447e+01  -6.498876e+01
   1.505910e+02  -1.514869e+02
   1.846116e+02   1.179197e+02
   2.788540e+01   4.641557e+02
  -2.233972e+02   4.410553e+02
  -3.220861e+02   2.695527e+01
  -1.422835e+02  -2.967327e+02
   1.302369e+02  -1.515710e+02
   1.743325e+02   2.477043e+02
  -9.954042e+01   3.782771e+02
  -4.321718e+02   6.303336e+01
  -4.810265e+02  -3.619121e+02
  -1.592762e+02  -4.918618e+02
   2.898122e+02  -2.715491e+02
   5.133118e+02   5.538286e+01
   3.502478e+02   2.476378e+02
  -3.127132e+01   2.355824e+02
  -2.881159e+02   9.822390e+01
  -2.339707e+02  -2.486372e+01
  -1.957713e+01  -3.596865e+01
   5.869253e+01   3.574375e+01
  -8.334772e+01   6.251389e+01
  -2.265060e+02  -3.518339e+01
  -1.340761e+02  -1.886678e+02
   1.499264e+02  -2.493169e+02
   3.498202e+02  -1.338338e+02
   2.650516e+02   1.071232e+02
  -3.472810e+01   3.235122e+02
  -3.055982e+02   3.554799e+02
  -3.647278e+02   1.507330e+02
  -2.270359e+02  -1.606502e+02
  -5.065898e+01  -3.530668e+02
   3.066749e+01  -3.217743e+02
   2.681210e+01  -1.826732e+02
   4.680061e+01  -1.078278e+02
   1.451059e+02  -1.049719e+02
   2.446470e+02  -4.276342e+01
   2.297369e+02   1.225860e+02
   8.423272e+01   2.502999e+02
  -9.264557e+01   1.849353e+02
  -1.823049e+02  -4.266219e+01
  -1.270184e+02  -2.386258e+02
   4.892853e+01  -2.413771e+02
   2.394881e+02  -5.737327e+01
   2.998006e+02   1.712729e+02
   1.672238e+02   2.949033e+02
  -4.906250e+01   2.659030e+02
  -1.687804e+02   1.579301e+02
  -1.547448e+02   8.066337e+01
  -1.540076e+02   6.269725e+01
  -2.767327e+02   2.726491e+01
  -4.041091e+02  -1.043887e+02
  -3.115993e+02  -3.010848e+02
   3.264772e+01  -4.322462e+02
   3.855459e+02  -3.847293e+02
   4.759857e+02  -1.641672e+02
   2.800884e+02   1.003668e+02
   1.729414e+01   2.443358e+02
  -8.922854e+01   1.951906e+02
  -9.588413e+00   4.388288e+01
   1.112922e+02  -3.403035e+01
   1.223450e+02   3.485130e+01
   8.849358e+00   1.341031e+02
  -1.091278e+02   1.028212e+02
  -1.050264e+02  -4.682411e+01
   2.506137e+01  -1.254415e+02
   1.552342e+02   1.155551e+00
   1.471341e+02   2.339492e+02
  -2.412962e+01   3.402529e+02
  -2.462461e+02   2.029132e+02
  -3.572509e+02  -7.015020e+01
  -2.713364e+02  -2.684306e+02
  -5.223456e+01  -2.725986e+02
   1.303074e+02  -1.345954e+02
   1.472693e+02  -4.501545e+00
   3.474087e+01   1.117819e+01
  -4.635541e+01  -6.194199e+01
   7.206582e+00  -1.093227e+02
   1.217967e+02  -6.149507e+01
   1.420157e+02   2.770603e+01
   2.973399e+01   5.172521e+01
  -7.934647e+01  -1.663990e+01
  -3.344755e+01  -9.401466e+01
   1.525182e+02  -8.275531e+01
   3.005178e+02   3.142162e+01
   2.498539e+02   1.773058e+02
   1.887227e+01   2.605984e+02
  -2.111324e+02   2.245842e+02
  -2.653953e+02   8.976867e+01
  -1.339601e+02  -4.484786e+01
   2.889918e+01  -7.410826e+01
   6.042449e+01   4.759959e+00
  -5.444910e+01   7.510295e+01
  -1.813264e+02   2.800798e+01
  -1.824255e+02  -1.048895e+02
  -5.261405e+01  -1.848208e+02
   8.819649e+01  -1.315117e+02
   1.217303e+02  -1.488201e+01
   4.328855e+01   3.423699e+01
  -4.111291e+01  -2.591094e+01
  -2.152349e+01  -1.121791e+02
   1.026826e+02  -1.143014e+02
   2.109082e+02  -5.182090e+00
   1.767801e+02   1.385636e+02
   5.949285e+00   2.060925e+02
  -1.563303e+02   1.459420e+02
  -1.721737e+02   9.894550e+00
  -5.392149e+01  -9.207302e+01
   6.092243e+01  -9.204021e+01
   6.796567e+01  -2.382091e+01
  -1.233454e+00   2.289004e+01
  -3.816188e+01   5.406160e+00
   1.101409e+01  -2.763593e+01
   9.179018e+01   3.533674e-01
   1.045494e+02   9.667203e+01
   5.259584e+00   1.778609e+02
  -1.480388e+02   1.489695e+02
  -2.376657e+02   2.640936e+00
  -1.865255e+02  -1.626876e+02
  -3.248015e+01  -2.270192e+02
   1.022261e+02  -1.564620e+02
   1.288019e+02  -2.947206e+01
   7.424627e+01   4.426212e+01
   3.456749e+01   2.924666e+01
   5.637168e+01  -1.341353e+01
   8.890580e+01  -4.661876e+00
   5.641807e+01   6.093525e+01
  -4.359668e+01   1.082314e+02
  -1.281313e+02   6.522747e+01
  -1.082139e+02  -5.005325e+01
   2.256396e+01  -1.319633e+02
   1.691727e+02  -8.525721e+01
   2.043119e+02   7.307199e+01
   7.696577e+01   2.149424e+02
  -1.314141e+02   2.159358e+02
  -2.674079e+02   7.339848e+01
  -2.393460e+02  -9.462073e+01
  -9.403335e+01  -1.682940e+02
   4.199657e+01  -1.350483e+02
   8.841823e+01  -7.784636e+01
   6.945557e+01  -6.938364e+01
   5.919651e+01  -9.466306e+01
   9.204148e+01  -7.885306e+01
   1.320634e+02   2.039486e+01
   1.163813e+02   1.559016e+02
   2.177243e+01   2.251385e+02
  -1.029271e+02   1.630789e+02
  -1.680977e+02   7.243619e+00
  -1.214475e+02  -1.289475e+02
  -5.073341e+00  -1.542966e+02
   7.667086e+01  -7.649899e+01
   6.099957e+01   1.774024e+01
  -7.243639e+00   5.398819e+01
  -2.966598e+01   3.380270e+01
   2.666045e+01   1.062866e+01
   8.536983e+01   1.925802e+01
   4.981869e+01   4.192463e+01
  -7.552215e+01   3.793895e+01
  -1.751144e+02  -7.741440e+00
  -1.417533e+02  -6.806747e+01
   5.720715e+00  -9.727779e+01
   1.375828e+02  -6.907316e+01
   1.445124e+02  -1.377551e+00
   4.160264e+01   5.187466e+01
  -6.140826e+01   4.361701e+01
  -7.817681e+01  -1.956445e+01
  -1.869654e+01  -7.606621e+01
   4.679220e+01  -6.739169e+01
   6.996349e+01  -1.396226e+00
   5.881245e+01   5.331606e+01
   4.773911e+01   4.495466e+01
   5.454560e+01   2.006013e+00
   6.465732e+01   2.145454e+00
   4.393299e+01   7.502187e+01
  -2.952444e+01   1.540754e+02
  -1.299933e+02   1.433694e+02
  -1.835265e+02   2.852702e+01
  -1.296850e+02  -9.848221e+01
   1.645813e+00  -1.336932e+02
   9.573361e+01  -6.812082e+01
   6.300572e+01   1.135280e+01
  -5.825804e+01   1.986739e+01
  -1.323516e+02  -4.286902e+01
  -6.774261e+01  -1.063139e+02
   8.528494e+01  -1.062557e+02
   1.876667e+02  -3.943430e+01
   1.531973e+02   4.378515e+01
   2.806491e+01   8.420700e+01
  -6.442918e+01   5.791730e+01
  -4.728487e+01  -3.228134e+00
   4.126351e+01  -3.082020e+01
   9.300704e+01   2.049096e+01
   3.980340e+01   1.162427e+02
  -7.918885e+01   1.563199e+02
  -1.575390e+02   7.104945e+01
  -1.262007e+02  -9.092220e+01
  -1.559826e+01  -1.914559e+02
   8.243663e+01  -1.386226e+02
   1.025348e+02   1.349396e+01
   5.178577e+01   1.201025e+02
  -1.582306e+01   1.001193e+02
  -5.173280e+01   1.232317e+01
  -4.358346e+01  -3.215981e+01
  -1.553796e+01  -6.356752e+00
  -6.046529e+00   1.668606e+01
  -3.052149e+01  -2.357752e+01
  -5.633996e+01  -9.085425e+01
  -2.956682e+01  -1.030945e+02
   5.709373e+01  -3.987636e+01
   1.343551e+02   3.814522e+01
   1.203248e+02   6.946121e+01
   1.728084e+01   5.377359e+01
  -7.978454e+01   2.618413e+01
  -8.550778e+01   4.523584e+00
  -1.754759e+01  -1.312954e+01
   3.378381e+01  -2.127826e+01
   1.958989e+01  -1.109542e+01
  -1.419105e+01   4.883932e+00
   2.821951e+00   4.750968e+00
   6.582168e+01  -2.037911e+00
   9.292752e+01   2.226349e+01
   2.272898e+01   8.264183e+01
  -1.068090e+02   1.188723e+02
  -1.894035e+02   6.577142e+01
  -1.545996e+02  -5.948257e+01
  -3.243079e+01  -1.593229e+02
   8.208743e+01  -1.547016e+02
   1.180569e+02  -6.541921e+01
   8.047345e+01   1.927409e+01
   2.602475e+01   3.864201e+01
   2.582225e+00   1.434964e+01
   1.372765e+01   9.622155e+00
   2.886774e+01   4.937962e+01
   1.612417e+01   9.051032e+01
  -2.975634e+01   7.134638e+01
  -7.807642e+01  -1.455577e+01
  -8.038084e+01  -1.010500e+02
  -1.530275e+01  -1.109995e+02
   7.464478e+01  -3.380535e+01
   1.067359e+02   6.386987e+01
   4.083819e+01   1.037953e+02
  -6.469415e+01   6.552510e+01
  -1.049801e+02  -8.171763e+00
  -4.538525e+01  -5.994572e+01
   3.593564e+01  -6.255001e+01
   4.160131e+01  -2.802979e+01
  -2.560168e+01   7.523432e+00
  -6.827840e+01   9.061092e+00
  -1.842366e+01  -2.799384e+01
   7.838165e+01  -6.490915e+01
   1.210219e+02  -5.090284e+01
   7.137809e+01   1.888390e+01
  -1.382580e+01   8.534101e+01
  -5.942886e+01   8.257847e+01
  -4.694679e+01   1.270869e+01
  -8.275756e+00  -5.228707e+01
   2.405988e+01  -4.905090e+01
   3.769551e+01   9.286460e+00
   2.862883e+01   5.393738e+01
  -1.377604e+00   4.092151e+01
  -3.371974e+01  -4.623470e+00
  -4.159803e+01  -2.637013e+01
  -2.035485e+01  -5.509422e+00
   3.561957e+00   2.103173e+01
   5.261599e+00   1.003620e+01
  -5.750960e+00  -3.234267e+01
   1.403959e-01  -5.540282e+01
   2.780285e+01  -2.438302e+01
   4.336280e+01   3.476810e+01
   1.492772e+01   6.117941e+01
  -4.022302e+01   2.686505e+01
  -6.411616e+01  -3.290535e+01
  -2.054868e+01  -6.044441e+01
   5.739866e+01  -3.594540e+01
   9.421290e+01   1.149976e+01
   5.107577e+01   4.337175e+01
  -2.917543e+01   4.615611e+01
  -6.617607e+01   2.891214e+01
  -2.984521e+01   6.636343e+00
   2.774737e+01  -5.108268e+00
   3.391143e+01   4.635774e+00
  -2.143282e+01   2.531558e+01
  -7.647687e+01   2.254929e+01
