
 $NMID
 id='ANONYMOUS ', fmtdat='(2E16.6)'
 volume=1.0
 tramp=1.0
 $END
   2.788596e+03   7.391598e+01
   1.854769e+03   1.361016e+03
   1.088522e+02   1.730894e+03
  -9.715067e+02   1.173015e+03
  -8.359033e+02   3.422789e+02
  -1.381013e+02  -8.751332e+01
   2.341929e+02   5.556903e+01
   4.078166e+01   4.131295e+02
  -3.539358e+02   4.857314e+02
  -5.358459e+02   1.043947e+02
  -3.824891e+02  -4.056842e+02
  -4.267337e+01  -5.465207e+02
   2.172887e+02  -1.726017e+02
   1.927644e+02   3.343713e+02
  -8.440814e+01   4.580180e+02
  -3.334323e+02   8.325574e+01
  -2.745873e+02  -4.103007e+02
   7.525265e+01  -5.640574e+02
   4.007813e+02  -2.846509e+02
   4.106302e+02   1.251070e+02
   1.411408e+02   3.137024e+02
  -9.037676e+01   2.197711e+02
  -3.929447e+01   7.801302e+01
   1.857244e+02   1.170176e+02
   2.387027e+02   2.872031e+02
  -5.260851e+01   3.299126e+02
  -4.448781e+02   1.093605e+02
  -5.202011e+02  -2.008408e+02
  -1.611932e+02  -3.109389e+02
   2.970092e+02  -1.359079e+02
   4.244218e+02   1.481613e+02
   1.417813e+02   3.205843e+02
  -2.448553e+02   2.926671e+02
  -4.016709e+02   1.012859e+02
  -2.771093e+02  -1.386854e+02
  -7.233006e+01  -2.568566e+02
   5.409462e+00  -1.449981e+02
  -7.534483e+01   7.173802e+01
  -1.800622e+02   1.012510e+02
  -1.525215e+02  -1.607525e+02
   3.220712e+01  -4.322795e+02
   2.297207e+02  -3.585069e+02
   2.553108e+02   1.374339e+01
   7.767090e+01   2.563382e+02
  -1.238092e+02   9.316603e+01
  -1.232594e+02  -2.495248e+02
   1.185374e+02  -3.319006e+02
   3.924091e+02  -3.343354e+01
   4.242220e+02   3.399206e+02
   1.358821e+02   4.394531e+02
  -2.634794e+02   2.283142e+02
  -4.545050e+02  -6.153577e+01
  -2.997526e+02  -2.101062e+02
   3.096114e+01  -1.805596e+02
   2.369059e+02  -7.406860e+01
   1.869827e+02  -6.150372e-01
   2.494908e+01   1.479158e+00
  -2.429516e+01  -3.053266e+01
   8.539571e+01  -2.903128e+01
   1.866242e+02   4.436787e+01
   1.064135e+02   1.588019e+02
  -1.296654e+02   2.207943e+02
  -3.128289e+02   1.378063e+02
  -2.574249e+02  -8.727260e+01
   1.332782e+01  -3.125493e+02
   2.834345e+02  -3.482736e+02
   3.485467e+02  -1.384166e+02
   2.063105e+02   1.590068e+02
   3.326867e+01   3.182913e+02
  -2.401458e+01   2.746019e+02
   7.628542e-01   1.621160e+02
  -2.548704e+01   1.186968e+02
  -1.428089e+02   1.171084e+02
  -2.454245e+02   3.876476e+01
  -2.178556e+02  -1.275460e+02
  -6.711301e+01  -2.392230e+02
   9.787463e+01  -1.652924e+02
   1.710824e+02   5.175231e+01
   1.098641e+02   2.296240e+02
  -5.626530e+01   2.220743e+02
  -2.260663e+02   4.324425e+01
  -2.705389e+02  -1.649846e+02
  -1.453651e+02  -2.656254e+02
   4.253754e+01  -2.318106e+02
   1.401842e+02  -1.424319e+02
   1.298298e+02  -8.630947e+01
   1.436851e+02  -7.195474e+01
   2.662509e+02  -3.038500e+01
   3.815463e+02   9.714536e+01
   2.904018e+02   2.792812e+02
  -3.083307e+01   4.021508e+02
  -3.587414e+02   3.592907e+02
  -4.409769e+02   1.498413e+02
  -2.529274e+02  -9.941748e+01
  -5.604079e+00  -2.243964e+02
   8.414752e+01  -1.664664e+02
  -3.412455e+00  -3.054219e+01
  -1.143301e+02   2.308635e+01
  -1.079973e+02  -4.671778e+01
   6.081367e+00  -1.220085e+02
   1.038480e+02  -7.809669e+01
   8.512961e+01   5.237857e+01
  -3.387119e+01   1.081014e+02
  -1.433314e+02  -1.033134e+01
  -1.336060e+02  -2.146756e+02
   1.888303e+01  -3.111876e+02
   2.247764e+02  -1.936241e+02
   3.351514e+02   5.626358e+01
   2.572201e+02   2.490059e+02
   4.722010e+01   2.586454e+02
  -1.249239e+02   1.248494e+02
  -1.342617e+02  -1.372660e+00
  -2.544398e+01  -1.110116e+01
   4.412627e+01   6.345261e+01
  -1.288107e+01   1.047104e+02
  -1.175071e+02   5.253686e+01
  -1.287039e+02  -3.198484e+01
  -2.070132e+01  -4.924795e+01
   7.865902e+01   1.893566e+01
   3.247691e+01   9.258091e+01
  -1.440297e+02   8.236423e+01
  -2.848759e+02  -2.630995e+01
  -2.367988e+02  -1.675190e+02
  -1.599717e+01  -2.474745e+02
   2.014717e+02  -2.090324e+02
   2.471151e+02  -7.785114e+01
   1.179486e+02   4.494089e+01
  -3.231928e+01   6.456817e+01
  -5.381153e+01  -1.057513e+01
   5.661852e+01  -6.990715e+01
   1.700437e+02  -2.126219e+01
   1.655001e+02   1.000660e+02
   4.443642e+01   1.693617e+02
  -8.337583e+01   1.175376e+02
  -1.113370e+02   9.439392e+00
  -3.536319e+01  -3.462957e+01
   4.481216e+01   2.504197e+01
   2.393636e+01   1.096890e+02
  -9.719168e+01   1.120368e+02
  -2.000893e+02   6.343775e+00
  -1.652084e+02  -1.301517e+02
  -3.819802e+00  -1.908614e+02
   1.443283e+02  -1.324318e+02
   1.549572e+02  -7.832675e+00
   4.536192e+01   8.310658e+01
  -5.761353e+01   8.184032e+01
  -6.141468e+01   1.918192e+01
   4.070319e+00  -2.400169e+01
   3.955591e+01  -6.435270e+00
  -6.721504e+00   2.846653e+01
  -8.609681e+01   5.423196e+00
  -1.023059e+02  -8.711621e+01
  -9.049614e+00  -1.682640e+02
   1.381978e+02  -1.424623e+02
   2.236064e+02  -2.941370e+00
   1.740802e+02   1.520434e+02
   2.965552e+01   2.091366e+02
  -9.374165e+01   1.424836e+02
  -1.170307e+02   2.776597e+01
  -6.752573e+01  -3.778013e+01
  -3.190036e+01  -2.465140e+01
  -5.200150e+01   1.372489e+01
  -8.344082e+01   6.688836e+00
  -5.661046e+01  -5.458104e+01
   3.564235e+01  -1.033233e+02
   1.191597e+02  -6.739051e+01
   1.059390e+02   4.299850e+01
  -1.678489e+01   1.264550e+02
  -1.588223e+02   8.528527e+01
  -1.940848e+02  -6.665689e+01
  -7.277051e+01  -2.031058e+02
   1.240854e+02  -2.033168e+02
   2.496396e+02  -6.795764e+01
   2.208758e+02   8.861100e+01
   8.518917e+01   1.555432e+02
  -3.958954e+01   1.239142e+02
  -8.080875e+01   7.095193e+01
  -6.187436e+01   6.314743e+01
  -5.176780e+01   8.726116e+01
  -8.306601e+01   7.444809e+01
  -1.222958e+02  -1.629296e+01
  -1.094317e+02  -1.427759e+02
  -2.167216e+01  -2.085451e+02
   9.500294e+01  -1.511462e+02
   1.561590e+02  -5.722169e+00
   1.127724e+02   1.208748e+02
   3.788381e+00   1.438560e+02
  -7.364306e+01   7.091090e+01
  -5.962346e+01  -1.792996e+01
   5.761940e+00  -5.339311e+01
   2.962466e+01  -3.460454e+01
  -2.219904e+01  -1.000526e+01
  -7.923680e+01  -1.519504e+01
  -4.778208e+01  -3.768929e+01
   7.058003e+01  -3.804377e+01
   1.656942e+02   3.488421e+00
   1.341964e+02   6.345133e+01
  -5.409712e+00   9.443103e+01
  -1.291190e+02   6.760595e+01
  -1.351855e+02   1.397479e+00
  -3.991281e+01  -4.990927e+01
   5.525569e+01  -4.204645e+01
   7.276922e+01   1.675118e+01
   2.093555e+01   6.916922e+01
  -3.956622e+01   6.257970e+01
  -6.484596e+01   3.732105e+00
  -5.742488e+01  -4.646801e+01
  -4.569425e+01  -4.056431e+01
  -4.939195e+01  -2.206762e+00
  -5.972118e+01  -1.582875e+00
  -4.386912e+01  -6.820613e+01
   2.341789e+01  -1.431303e+02
   1.195230e+02  -1.364993e+02
   1.722989e+02  -3.124547e+01
   1.230116e+02   8.911064e+01
   3.600307e-01   1.257246e+02
  -8.766842e+01   6.656855e+01
  -5.810226e+01  -8.672496e+00
   5.341438e+01  -1.892511e+01
   1.219000e+02   3.859500e+01
   6.262966e+01   9.841645e+01
  -7.893440e+01   9.908739e+01
  -1.742536e+02   3.660540e+01
  -1.422835e+02  -4.129973e+01
  -2.534100e+01  -7.851229e+01
   6.117561e+01  -5.319780e+01
   4.515723e+01   4.070497e+00
  -3.738054e+01   2.990955e+01
  -8.609675e+01  -1.703738e+01
  -3.875855e+01  -1.053262e+02
   6.909419e+01  -1.435875e+02
   1.417341e+02  -6.716949e+01
   1.160197e+02   8.107145e+01
   1.659584e+01   1.748106e+02
  -7.476472e+01   1.277489e+02
  -9.561964e+01  -1.236861e+01
  -4.850790e+01  -1.118905e+02
   1.622234e+01  -9.402136e+01
   4.964721e+01  -1.194420e+01
   3.965907e+01   3.061225e+01
   1.265992e+01   7.055597e+00
   6.279139e+00  -1.529654e+01
   3.118604e+01   2.088172e+01
   5.363755e+01   8.330739e+01
   2.592350e+01   9.592894e+01
  -5.440341e+01   3.849166e+01
  -1.237223e+02  -3.389946e+01
  -1.103887e+02  -6.387656e+01
  -1.727147e+01  -4.998189e+01
   7.152369e+01  -2.441319e+01
   7.896323e+01  -4.406812e+00
   1.820250e+01   1.156568e+01
  -3.042252e+01   1.915423e+01
  -1.981677e+01   1.043160e+01
   1.151340e+01  -3.976221e+00
  -1.570408e+00  -4.236089e+00
  -5.859438e+01   2.180012e+00
  -8.596211e+01  -1.885185e+01
  -2.438443e+01  -7.393453e+01
   9.460606e+01  -1.098282e+02
   1.731802e+02  -6.484831e+01
   1.438886e+02   4.962075e+01
   3.253615e+01   1.451103e+02
  -7.326886e+01   1.449949e+02
  -1.074308e+02   6.351377e+01
  -7.411850e+01  -1.641011e+01
  -2.521535e+01  -3.555110e+01
  -4.243452e+00  -1.305488e+01
  -1.417670e+01  -8.865270e+00
  -2.733978e+01  -4.635619e+01
  -1.530178e+01  -8.443665e+01
   2.660540e+01  -6.628513e+01
   7.117783e+01   1.233267e+01
   7.480001e+01   9.062198e+01
   1.691413e+01   1.002479e+02
  -6.574489e+01   3.229583e+01
  -9.796537e+01  -5.531332e+01
  -4.032481e+01  -9.381410e+01
   5.694034e+01  -6.238163e+01
   9.732196e+01   4.442288e+00
   4.505358e+01   5.492307e+01
  -3.096491e+01   6.016730e+01
  -3.940325e+01   2.809332e+01
   2.123951e+01  -6.864294e+00
   6.235074e+01  -9.445845e+00
   1.832731e+01   2.539288e+01
  -7.149538e+01   6.068828e+01
  -1.129533e+02   4.848927e+01
  -6.826421e+01  -1.613813e+01
   1.093880e+01  -7.892452e+01
   5.403626e+01  -7.848953e+01
   4.332277e+01  -1.493808e+01
   8.682825e+00   4.654303e+01
  -2.028767e+01   4.614608e+01
  -3.361471e+01  -6.629305e+00
  -2.743143e+01  -4.902267e+01
  -8.041916e-01  -3.862367e+01
   3.062043e+01   3.176489e+00
   3.987168e+01   2.415225e+01
   1.954372e+01   5.429999e+00
  -5.078116e+00  -1.981381e+01
  -6.899581e+00  -1.117589e+01
   6.711840e+00   2.719989e+01
   4.554372e+00   4.988882e+01
  -2.201696e+01   2.438792e+01
  -4.058001e+01  -2.798947e+01
  -1.692469e+01  -5.351867e+01
   3.512904e+01  -2.547460e+01
   5.959978e+01   2.738094e+01
   2.017958e+01   5.414445e+01
  -5.247426e+01   3.463803e+01
  -8.716347e+01  -7.891100e+00
  -4.788574e+01  -3.888387e+01
   2.544212e+01  -4.377407e+01
   5.960946e+01  -2.883153e+01
   2.789913e+01  -7.693280e+00
  -2.307677e+01   4.537400e+00
  -2.904841e+01  -2.943354e+00
   1.914368e+01  -2.136223e+01
   6.782107e+01  -1.986468e+01
