
 $NMID
 id='ANONYMOUS ', fmtdat='(2E16.6)'
 volume=1.0
 tramp=1.0
 $END
  -4.304004e+03   9.737185e+01
  -2.597199e+03  -2.500150e+03
   6.050744e+02  -2.746644e+03
   2.041540e+03  -9.938184e+02
   9.859121e+02   5.555856e+02
  -5.777563e+02   5.640040e+02
  -8.589872e+02  -3.863820e+02
  -2.079058e+01  -1.031261e+03
   7.888967e+02  -7.910503e+02
   9.283309e+02   5.952805e+01
   4.743414e+02   8.342908e+02
  -2.023030e+02   8.878217e+02
  -6.119908e+02   1.390889e+02
  -3.914396e+02  -6.932716e+02
   2.441585e+02  -7.485770e+02
   5.992589e+02  -1.463833e+01
   2.949831e+02   6.710969e+02
  -2.974777e+02   6.550844e+02
  -5.837920e+02   1.260719e+02
  -4.102665e+02  -3.333468e+02
  -3.872287e+01  -4.386209e+02
   2.283858e+02  -2.726633e+02
   2.010054e+02  -2.986942e+01
  -1.208053e+02   6.760671e+01
  -4.003486e+02  -1.262164e+02
  -1.859727e+02  -4.263597e+02
   4.611232e+02  -3.994060e+02
   8.386989e+02   7.298307e+01
   4.266674e+02   5.296475e+02
  -3.817128e+02   4.689365e+02
  -7.327655e+02  -3.220169e+01
  -3.457474e+02  -4.711416e+02
   2.753247e+02  -5.149792e+02
   5.613891e+02  -2.088831e+02
   4.194497e+02   2.166189e+02
   8.412836e+01   4.651765e+02
  -1.778060e+02   2.845940e+02
  -1.564249e+02  -2.019758e+02
   1.597074e+02  -4.174049e+02
   4.268738e+02   2.247854e+01
   2.379146e+02   6.680737e+02
  -3.024663e+02   6.947567e+02
  -5.866349e+02   1.807687e+01
  -2.628746e+02  -5.331586e+02
   2.740011e+02  -3.136121e+02
   3.766787e+02   3.150464e+02
  -6.210067e+01   5.415820e+02
  -5.504908e+02   1.420821e+02
  -6.024914e+02  -3.988359e+02
  -1.800734e+02  -5.844175e+02
   3.734153e+02  -3.528942e+02
   6.313502e+02   6.130945e+01
   3.874785e+02   3.701693e+02
  -1.364230e+02   3.619704e+02
  -4.351379e+02   7.062101e+01
  -2.506349e+02  -1.772214e+02
   1.039831e+02  -1.048011e+02
   1.415555e+02   1.415262e+02
  -1.555178e+02   1.817841e+02
  -3.440299e+02  -6.416777e+01
  -1.502845e+02  -2.918763e+02
   1.981537e+02  -2.676926e+02
   3.388228e+02  -8.649430e+01
   2.080211e+02   8.625938e+01
  -2.353250e+01   2.374013e+02
  -2.261344e+02   3.372296e+02
  -3.405040e+02   2.222981e+02
  -2.929678e+02  -1.341592e+02
  -8.807249e+01  -4.337341e+02
   1.001401e+02  -3.888183e+02
   1.123130e+02  -1.256433e+02
   2.888991e+01  -7.590258e-01
   5.170680e+01  -9.032700e+01
   1.991935e+02  -1.278850e+02
   2.797047e+02   5.307181e+01
   1.618216e+02   2.689493e+02
  -6.812395e+01   2.564693e+02
  -2.269744e+02   1.173938e+01
  -2.004380e+02  -2.397298e+02
   6.751977e+00  -2.950943e+02
   2.653453e+02  -1.196835e+02
   3.653508e+02   1.617289e+02
   1.969209e+02   3.475800e+02
  -8.880448e+01   3.113467e+02
  -2.231969e+02   1.327460e+02
  -1.545751e+02   1.593060e+01
  -1.054598e+02   3.960913e+01
  -2.391300e+02   6.693756e+01
  -4.073417e+02  -5.332584e+01
  -3.411918e+02  -2.825713e+02
  -5.138119e+00  -4.475453e+02
   3.574576e+02  -4.239674e+02
   4.890112e+02  -2.114480e+02
   3.382754e+02   8.711605e+01
   5.920868e+01   2.927901e+02
  -1.223530e+02   2.553083e+02
  -7.627392e+01   3.396137e+01
   1.089263e+02  -1.055640e+02
   1.934066e+02   3.568717e+00
   5.265999e+01   1.929012e+02
  -1.554895e+02   1.733315e+02
  -1.777232e+02  -5.589692e+01
   1.340316e+01  -1.911593e+02
   1.935953e+02  -3.522977e+01
   1.704626e+02   2.468487e+02
  -2.378129e+01   3.544427e+02
  -2.311545e+02   2.007633e+02
  -3.340182e+02  -5.773872e+01
  -2.851040e+02  -2.378530e+02
  -9.797766e+01  -2.651259e+02
   1.126100e+02  -1.627489e+02
   1.772824e+02  -2.409125e+01
   5.879298e+01   2.960544e+01
  -6.960406e+01  -3.934442e+01
  -2.996562e+01  -1.248575e+02
   1.232325e+02  -1.011663e+02
   1.787871e+02   9.774024e+00
   5.882506e+01   7.067446e+01
  -8.046629e+01   1.604274e+01
  -5.570264e+01  -7.418299e+01
   1.250018e+02  -8.968546e+01
   2.857447e+02  -3.060377e+00
   2.675622e+02   1.382355e+02
   6.324427e+01   2.563363e+02
  -1.822727e+02   2.652093e+02
  -2.828827e+02   1.319562e+02
  -1.713370e+02  -4.766022e+01
   2.231493e+01  -1.094116e+02
   9.000787e+01  -9.965666e+00
  -3.203670e+01   1.016793e+02
  -1.957775e+02   6.271837e+01
  -2.166295e+02  -9.887789e+01
  -7.419014e+01  -2.076391e+02
   9.149916e+01  -1.607953e+02
   1.439013e+02  -3.201622e+01
   7.086015e+01   3.989896e+01
  -2.860377e+01   1.778030e+00
  -3.837800e+01  -8.463515e+01
   7.145933e+01  -1.152084e+02
   1.995160e+02  -3.213433e+01
   1.952434e+02   1.207730e+02
   2.585858e+01   2.191161e+02
  -1.621996e+02   1.690217e+02
  -1.953892e+02   1.134942e+01
  -6.848691e+01  -1.133100e+02
   6.460183e+01  -1.137075e+02
   8.291695e+01  -3.276146e+01
   1.825532e+01   2.561287e+01
  -2.223798e+01   1.842330e+01
   9.804383e+00  -9.462008e+00
   7.275831e+01   6.691812e+00
   9.148978e+01   8.129060e+01
   1.812921e+01   1.598688e+02
  -1.245715e+02   1.559287e+02
  -2.346410e+02   3.019385e+01
  -2.060181e+02  -1.469184e+02
  -4.751913e+01  -2.378499e+02
   1.056485e+02  -1.735377e+02
   1.364429e+02  -3.088990e+01
   7.296756e+01   5.401258e+01
   3.009814e+01   3.526547e+01
   5.373185e+01  -1.352312e+01
   8.074115e+01  -8.106387e+00
   4.410104e+01   4.982542e+01
  -4.070690e+01   9.058266e+01
  -1.033117e+02   5.841576e+01
  -8.807083e+01  -3.457109e+01
   1.149991e+01  -1.124587e+02
   1.418903e+02  -8.960982e+01
   1.997783e+02   4.765996e+01
   1.046368e+02   2.007948e+02
  -1.027203e+02   2.319000e+02
  -2.665028e+02   1.021414e+02
  -2.607236e+02  -8.077982e+01
  -1.140797e+02  -1.751586e+02
   3.574784e+01  -1.488256e+02
   9.309912e+01  -8.680358e+01
   7.788242e+01  -7.194032e+01
   6.480207e+01  -9.336712e+01
   9.132044e+01  -7.701172e+01
   1.297847e+02   1.918538e+01
   1.217987e+02   1.524753e+02
   3.456903e+01   2.268387e+02
  -9.559726e+01   1.752016e+02
  -1.758297e+02   2.407265e+01
  -1.393270e+02  -1.198596e+02
  -2.221978e+01  -1.600289e+02
   6.622652e+01  -9.358611e+01
   6.058818e+01  -8.542189e-01
   5.066147e+00   4.355811e+01
  -1.103261e+01   3.492977e+01
   3.616211e+01   1.703522e+01
   8.056921e+01   2.087236e+01
   4.613066e+01   3.766300e+01
  -6.399858e+01   3.855434e+01
  -1.597059e+02   5.789121e+00
  -1.449534e+02  -4.941656e+01
  -1.600190e+01  -8.919769e+01
   1.206312e+02  -7.680325e+01
   1.455397e+02  -1.602023e+01
   4.919342e+01   4.078327e+01
  -5.967715e+01   3.946569e+01
  -7.685328e+01  -1.738288e+01
  -1.012326e+01  -6.907235e+01
   5.401599e+01  -6.011531e+01
   6.412963e+01   3.830234e-01
   4.652680e+01   4.952234e+01
   4.488994e+01   4.130307e+01
   6.115795e+01   9.354642e-01
   6.634026e+01  -7.230273e-01
   3.751188e+01   6.763799e+01
  -2.940149e+01   1.475061e+02
  -1.145291e+02   1.444512e+02
  -1.653907e+02   3.672803e+01
  -1.261952e+02  -8.910813e+01
  -8.901351e+00  -1.269826e+02
   8.557233e+01  -6.418259e+01
   6.070539e+01   1.339797e+01
  -5.880524e+01   2.147150e+01
  -1.386251e+02  -4.042083e+01
  -7.810408e+01  -1.059241e+02
   7.869318e+01  -1.142497e+02
   1.902946e+02  -5.569468e+01
   1.634617e+02   3.088515e+01
   3.882770e+01   8.602424e+01
  -5.982092e+01   7.107393e+01
  -4.899348e+01   7.770893e+00
   3.840305e+01  -2.819403e+01
   9.155606e+01   2.029836e+01
   3.634932e+01   1.180815e+02
  -8.715199e+01   1.570123e+02
  -1.657579e+02   6.707171e+01
  -1.294050e+02  -9.718928e+01
  -1.533237e+01  -1.975034e+02
   8.225506e+01  -1.462607e+02
   1.050218e+02   4.772130e+00
   6.301748e+01   1.171371e+02
  -3.153534e-01   1.065544e+02
  -4.599003e+01   2.082261e+01
  -5.235772e+01  -3.021521e+01
  -2.550687e+01  -7.933045e+00
  -3.641110e+00   2.048842e+01
  -2.172777e+01  -1.518773e+01
  -5.796979e+01  -8.770663e+01
  -4.382342e+01  -1.084541e+02
   4.670371e+01  -4.612239e+01
   1.393795e+02   3.641247e+01
   1.313385e+02   6.824699e+01
   1.875169e+01   4.976045e+01
  -8.717675e+01   2.446613e+01
  -8.831932e+01   9.452288e+00
  -1.152094e+01  -7.502196e+00
   3.787880e+01  -2.318672e+01
   1.417192e+01  -1.811037e+01
  -2.091608e+01   2.179325e+00
   5.727639e+00   8.712348e+00
   7.398569e+01   1.957963e+00
   9.235937e+01   2.184979e+01
   1.114360e+01   8.038895e+01
  -1.155952e+02   1.172570e+02
  -1.849689e+02   6.299996e+01
  -1.442245e+02  -6.397823e+01
  -2.966952e+01  -1.615992e+02
   7.618824e+01  -1.521752e+02
   1.134212e+02  -6.150999e+01
   8.121636e+01   1.974381e+01
   2.577527e+01   3.515361e+01
  -2.422610e+00   9.142703e+00
   1.055860e+01   4.200796e+00
   3.386394e+01   4.531910e+01
   2.424237e+01   8.974013e+01
  -2.778393e+01   7.235483e+01
  -8.145391e+01  -1.660457e+01
  -7.966156e+01  -1.064088e+02
  -7.359898e+00  -1.121961e+02
   8.145848e+01  -2.619382e+01
   1.049698e+02   7.264621e+01
   3.482581e+01   1.029996e+02
  -6.527665e+01   5.772648e+01
  -9.870387e+01  -9.616769e+00
  -4.068498e+01  -5.047131e+01
   3.192956e+01  -5.322721e+01
   3.143373e+01  -2.886568e+01
  -3.349990e+01   1.624787e+00
  -6.919082e+01   8.296906e+00
  -1.568599e+01  -2.499813e+01
   7.788350e+01  -6.763987e+01
   1.148536e+02  -6.057349e+01
   6.463886e+01   1.108275e+01
  -1.396459e+01   8.358159e+01
  -5.183677e+01   8.077700e+01
  -3.757519e+01   6.897369e+00
  -3.074063e+00  -5.565449e+01
   2.476936e+01  -4.383240e+01
   3.688103e+01   1.697564e+01
   2.780540e+01   5.349719e+01
  -2.044211e+00   3.345985e+01
  -3.335138e+01  -7.609153e+00
  -4.026367e+01  -2.061038e+01
  -2.062079e+01  -9.738804e-01
   1.205862e+00   1.460399e+01
   6.668857e+00  -2.219141e+00
   4.977833e+00  -3.642203e+01
   1.446233e+01  -4.581816e+01
   3.177835e+01  -9.518756e+00
   3.210033e+01   4.368585e+01
   3.672367e-01   6.102760e+01
  -4.392432e+01   2.190556e+01
  -5.783835e+01  -3.771283e+01
  -1.617579e+01  -6.266088e+01
   5.440212e+01  -3.523209e+01
   8.954529e+01   1.341532e+01
   5.010890e+01   4.306617e+01
  -2.804215e+01   4.170930e+01
  -6.450119e+01   2.317862e+01
  -2.453144e+01   5.440117e+00
   3.663621e+01   9.715109e-01
   3.777595e+01   1.420610e+01
  -2.946892e+01   3.144283e+01
  -8.983272e+01   2.171484e+01
