
 $NMID
 id='ANONYMOUS ', fmtdat='(2E16.6)'
 volume=1.0
 tramp=1.0
 $END
  -1.389989e+03   3.188886e+01
  -9.188557e+02  -7.425118e+02
   5.540452e+01  -9.157635e+02
   6.051588e+02  -4.836622e+02
   4.128761e+02   1.996239e+01
  -4.656476e+01   1.529888e+02
  -2.180124e+02  -5.410797e+01
  -3.617308e+01  -2.767506e+02
   2.119245e+02  -2.661471e+02
   2.953005e+02  -2.514773e+01
   1.861670e+02   2.404008e+02
  -1.653652e+01   2.937210e+02
  -1.606893e+02   7.989757e+01
  -1.250119e+02  -1.917786e+02
   5.477386e+01  -2.432113e+02
   1.861888e+02  -2.987630e+01
   1.220025e+02   2.151282e+02
  -7.249311e+01   2.549741e+02
  -2.062129e+02   9.170665e+01
  -1.753028e+02  -9.255774e+01
  -4.138863e+01  -1.561352e+02
   6.122184e+01  -1.039094e+02
   4.724798e+01  -3.043328e+01
  -5.439221e+01  -2.131118e+01
  -1.139459e+02  -8.502785e+01
  -1.978962e+01  -1.394457e+02
   1.722664e+02  -8.946511e+01
   2.585271e+02   5.208841e+01
   1.175194e+02   1.544816e+02
  -1.221781e+02   1.128781e+02
  -2.189808e+02  -3.184247e+01
  -9.569357e+01  -1.492174e+02
   9.877379e+01  -1.558558e+02
   1.877708e+02  -6.185638e+01
   1.393180e+02   6.717491e+01
   3.769448e+01   1.411628e+02
  -2.750382e+01   9.114297e+01
  -1.438809e+01  -4.002752e+01
   5.665052e+01  -9.255245e+01
   1.010421e+02   3.102200e+01
   3.861934e+01   2.040842e+02
  -9.553071e+01   2.045509e+02
  -1.597038e+02   1.176696e+01
  -7.301488e+01  -1.448460e+02
   6.750470e+01  -8.135820e+01
   9.371630e+01   1.030115e+02
  -3.336344e+01   1.673568e+02
  -1.827473e+02   3.442180e+01
  -2.019154e+02  -1.462625e+02
  -6.381224e+01  -2.040239e+02
   1.237509e+02  -1.161486e+02
   2.150393e+02   2.300914e+01
   1.419445e+02   1.133200e+02
  -2.490081e+01   1.094302e+02
  -1.320130e+02   3.557132e+01
  -9.546912e+01  -3.006489e+01
   7.353988e+00  -2.475688e+01
   3.489068e+01   2.653896e+01
  -4.026790e+01   4.032606e+01
  -1.036133e+02  -1.675402e+01
  -5.497919e+01  -8.715550e+01
   6.551694e+01  -9.954665e+01
   1.362747e+02  -4.430022e+01
   9.519769e+01   4.116644e+01
  -1.488948e+01   1.147409e+02
  -1.108728e+02   1.336201e+02
  -1.387141e+02   6.585867e+01
  -9.580187e+01  -5.931598e+01
  -2.407781e+01  -1.476449e+02
   2.137368e+01  -1.348989e+02
   2.310526e+01  -6.503410e+01
   1.803380e+01  -2.782710e+01
   4.530134e+01  -3.698177e+01
   8.848088e+01  -2.575898e+01
   9.435208e+01   3.921421e+01
   4.187837e+01   9.920398e+01
  -3.278057e+01   8.045685e+01
  -7.578207e+01  -9.852928e+00
  -5.781732e+01  -9.266727e+01
   1.400517e+01  -1.001186e+02
   9.601300e+01  -2.960800e+01
   1.243167e+02   6.597476e+01
   6.838447e+01   1.220464e+02
  -2.479149e+01   1.098276e+02
  -7.387430e+01   5.834596e+01
  -6.163069e+01   2.241977e+01
  -5.444503e+01   2.004206e+01
  -1.025922e+02   1.385955e+01
  -1.566904e+02  -3.599245e+01
  -1.235675e+02  -1.160116e+02
   9.683184e+00  -1.697365e+02
   1.479073e+02  -1.527720e+02
   1.872764e+02  -6.801226e+01
   1.159669e+02   3.787739e+01
   1.168288e+01   1.009116e+02
  -3.905202e+01   8.385871e+01
  -1.263467e+01   1.677378e+01
   4.218096e+01  -2.187479e+01
   5.616992e+01   9.100103e+00
   9.303310e+00   5.920146e+01
  -4.791862e+01   4.928763e+01
  -5.016862e+01  -1.883287e+01
   7.892128e+00  -5.702784e+01
   6.488222e+01  -4.051183e+00
   5.943573e+01   9.318978e+01
  -1.074550e+01   1.343286e+02
  -9.503383e+01   7.744233e+01
  -1.357653e+02  -2.777054e+01
  -1.058203e+02  -1.017824e+02
  -2.483474e+01  -1.048690e+02
   4.874015e+01  -5.520022e+01
   6.098236e+01  -4.018141e+00
   1.684356e+01   6.526035e+00
  -2.042423e+01  -2.112283e+01
  -1.671377e+00  -4.402129e+01
   4.736190e+01  -2.850446e+01
   5.967413e+01   8.624182e+00
   1.535535e+01   2.230004e+01
  -3.051169e+01  -2.653394e+00
  -1.515610e+01  -3.393318e+01
   5.621010e+01  -3.202466e+01
   1.145906e+02   9.455539e+00
   9.825304e+01   6.501534e+01
   1.175826e+01   1.004667e+02
  -7.905234e+01   9.133193e+01
  -1.054879e+02   3.941204e+01
  -5.683772e+01  -1.791746e+01
   1.024690e+01  -3.317809e+01
   2.710416e+01  -1.853043e-01
  -1.831142e+01   3.209410e+01
  -7.215036e+01   1.472900e+01
  -7.491108e+01  -4.046456e+01
  -2.274446e+01  -7.489386e+01
   3.498537e+01  -5.465043e+01
   5.010742e+01  -7.753583e+00
   2.032985e+01   1.386655e+01
  -1.389237e+01  -6.929212e+00
  -9.617151e+00  -4.004921e+01
   3.654624e+01  -4.372808e+01
   8.037723e+01  -4.317257e+00
   7.036181e+01   5.228716e+01
   4.096937e+00   8.173634e+01
  -6.203163e+01   5.919901e+01
  -7.011199e+01   3.579447e+00
  -2.276693e+01  -3.864835e+01
   2.432992e+01  -3.842207e+01
   2.838804e+01  -1.033325e+01
   1.949461e+00   8.977731e+00
  -1.266789e+01   3.361362e+00
   4.536066e+00  -8.374053e+00
   3.343247e+01   1.661034e+00
   3.839923e+01   3.639388e+01
   2.600287e+00   6.685822e+01
  -5.529270e+01   5.791906e+01
  -9.185859e+01   3.401904e+00
  -7.420925e+01  -6.198002e+01
  -1.368400e+01  -8.980866e+01
   4.076654e+01  -6.274764e+01
   5.130246e+01  -1.117911e+01
   2.871351e+01   1.886926e+01
   1.285336e+01   1.239937e+01
   2.169630e+01  -4.939472e+00
   3.357971e+01  -1.721454e+00
   1.996358e+01   2.277479e+01
  -1.739112e+01   3.967952e+01
  -4.717062e+01   2.358561e+01
  -3.913687e+01  -1.833102e+01
   8.283833e+00  -4.867009e+01
   6.278169e+01  -3.259503e+01
   7.834101e+01   2.625089e+01
   3.233062e+01   8.192237e+01
  -4.832353e+01   8.517673e+01
  -1.040375e+02   3.102721e+01
  -9.538728e+01  -3.591468e+01
  -3.853528e+01  -6.662414e+01
   1.599856e+01  -5.411739e+01
   3.529715e+01  -3.114670e+01
   2.844049e+01  -2.717198e+01
   2.425538e+01  -3.653847e+01
   3.618145e+01  -3.005864e+01
   5.107212e+01   8.447185e+00
   4.527793e+01   6.079573e+01
   9.096839e+00   8.788853e+01
  -3.976613e+01   6.453012e+01
  -6.629967e+01   4.306622e+00
  -4.889225e+01  -4.940339e+01
  -3.536462e+00  -6.064898e+01
   2.865358e+01  -3.149495e+01
   2.336685e+01   4.824211e+00
  -1.653113e+00   1.949205e+01
  -9.317671e+00   1.290636e+01
   1.165444e+01   4.948518e+00
   3.259511e+01   8.184375e+00
   1.868709e+01   1.608375e+01
  -2.813011e+01   1.434324e+01
  -6.604803e+01  -2.331723e+00
  -5.507033e+01  -2.475923e+01
   2.143984e-02  -3.653534e+01
   5.166624e+01  -2.701993e+01
   5.625192e+01  -1.751395e+00
   1.678232e+01   1.888200e+01
  -2.398040e+01   1.615644e+01
  -3.017938e+01  -7.732365e+00
  -5.729570e+00  -2.896816e+01
   1.958816e+01  -2.522393e+01
   2.655661e+01   9.768319e-02
   2.104465e+01   2.075312e+01
   1.797879e+01   1.732088e+01
   2.208365e+01   8.026550e-01
   2.536628e+01   7.467886e-01
   1.584150e+01   2.859756e+01
  -1.231155e+01   5.907574e+01
  -4.934475e+01   5.518577e+01
  -6.922615e+01   1.104289e+01
  -4.950344e+01  -3.784570e+01
   1.547245e-02  -5.108946e+01
   3.639163e+01  -2.544987e+01
   2.424150e+01   5.016473e+00
  -2.284815e+01   7.684879e+00
  -5.215675e+01  -1.692381e+01
  -2.722954e+01  -4.155494e+01
   3.277866e+01  -4.194530e+01
   7.343273e+01  -1.661443e+01
   6.063503e+01   1.598035e+01
   1.195100e+01   3.302879e+01
  -2.460067e+01   2.389180e+01
  -1.847275e+01  -4.519521e-02
   1.590090e+01  -1.144145e+01
   3.596881e+01   8.419742e+00
   1.455508e+01   4.578381e+01
  -3.260987e+01   6.076787e+01
  -6.285253e+01   2.656824e+01
  -4.926943e+01  -3.678793e+01
  -5.238363e+00  -7.548029e+01
   3.264670e+01  -5.462409e+01
   4.009412e+01   4.585905e+00
   2.101853e+01   4.651202e+01
  -4.554615e+00   3.954737e+01
  -1.936148e+01   5.565441e+00
  -1.793352e+01  -1.236114e+01
  -7.327514e+00  -2.605394e+00
  -2.070696e+00   6.927511e+00
  -1.053591e+01  -8.388164e+00
  -2.169769e+01  -3.525099e+01
  -1.294795e+01  -4.080040e+01
   2.101800e+01  -1.592301e+01
   5.281032e+01   1.520201e+01
   4.796983e+01   2.732106e+01
   6.613248e+00   2.050562e+01
  -3.219481e+01   9.721640e+00
  -3.363910e+01   2.035740e+00
  -5.923080e+00  -4.567936e+00
   1.376497e+01  -8.440881e+00
   6.890156e+00  -5.052035e+00
  -6.456151e+00   1.589983e+00
   1.508553e+00   2.329821e+00
   2.677159e+01  -9.451678e-02
   3.603937e+01   9.068924e+00
   6.954622e+00   3.220218e+01
  -4.334013e+01   4.575807e+01
  -7.360918e+01   2.432932e+01
  -5.872026e+01  -2.463954e+01
  -1.157468e+01  -6.258751e+01
   3.200336e+01  -5.950632e+01
   4.578807e+01  -2.437753e+01
   3.137990e+01   7.939164e+00
   9.879772e+00   1.474103e+01
   2.210973e-01   5.012193e+00
   4.819737e+00   3.167079e+00
   1.160138e+01   1.878903e+01
   6.889950e+00   3.513735e+01
  -1.166547e+01   2.777108e+01
  -3.082857e+01  -6.252199e+00
  -3.084551e+01  -4.046258e+01
  -4.444761e+00  -4.360925e+01
   3.023997e+01  -1.195269e+01
   4.120908e+01   2.654683e+01
   1.465002e+01   4.063695e+01
  -2.571419e+01   2.424749e+01
  -4.009944e+01  -3.954985e+00
  -1.666785e+01  -2.243447e+01
   1.392488e+01  -2.295948e+01
   1.503205e+01  -1.068791e+01
  -1.111381e+01   2.173427e+00
  -2.678517e+01   3.127623e+00
  -6.655238e+00  -1.065471e+01
   3.075264e+01  -2.527653e+01
   4.647889e+01  -2.042274e+01
   2.675552e+01   6.795122e+00
  -5.832805e+00   3.297724e+01
  -2.260565e+01   3.156721e+01
  -1.724406e+01   3.850772e+00
  -2.364056e+00  -2.092827e+01
   9.776179e+00  -1.834881e+01
   1.465916e+01   4.793729e+00
   1.079463e+01   2.111435e+01
  -9.243070e-01   1.499821e+01
  -1.311898e+01  -2.348204e+00
  -1.583508e+01  -9.755460e+00
  -7.875489e+00  -1.657793e+00
   8.930666e-01   7.425874e+00
   2.003269e+00   2.345525e+00
  -7.756186e-01  -1.331508e+01
   2.291036e+00  -2.057835e+01
   1.168054e+01  -7.528101e+00
   1.542819e+01   1.506459e+01
   3.664089e+00   2.411287e+01
  -1.635208e+01   9.702540e+00
  -2.410449e+01  -1.383543e+01
  -7.198957e+00  -2.400573e+01
   2.216862e+01  -1.360673e+01
   3.609993e+01   5.238316e+00
   1.957743e+01   1.712046e+01
  -1.150910e+01   1.726814e+01
  -2.580054e+01   1.020032e+01
  -1.100133e+01   2.215227e+00
   1.206849e+01  -1.213376e+00
   1.383328e+01   3.135145e+00
  -9.412251e+00   1.067126e+01
  -3.163961e+01   8.521580e+00
