
 $NMID
 id='ANONYMOUS ', fmtdat='(2E16.6)'
 volume=1.0
 tramp=1.0
 $END
  -7.606191e+02  -8.210597e+00
  -4.336071e+02  -4.865164e+02
   1.639685e+02  -4.965962e+02
   4.066750e+02  -1.299983e+02
   1.720632e+02   1.605602e+02
  -1.369712e+02   1.263896e+02
  -1.762459e+02  -8.202215e+01
   9.391484e-01  -2.015919e+02
   1.567966e+02  -1.391965e+02
   1.719094e+02   2.675725e+01
   7.498481e+01   1.629680e+02
  -5.473722e+01   1.616463e+02
  -1.241250e+02   1.785416e+01
  -7.059873e+01  -1.328244e+02
   5.399673e+01  -1.342573e+02
   1.118698e+02   6.278697e+00
   4.146115e+01   1.249684e+02
  -6.951215e+01   1.064624e+02
  -1.074741e+02   2.736575e+00
  -6.181028e+01  -7.210752e+01
   5.578217e+00  -7.858417e+01
   4.774512e+01  -4.471360e+01
   4.361342e+01  -1.551371e+00
  -1.076431e+01   1.994393e+01
  -6.678122e+01  -1.066680e+01
  -4.050459e+01  -6.941473e+01
   7.132175e+01  -7.430399e+01
   1.462572e+02   8.418264e+00
   8.016722e+01   9.705464e+01
  -6.420888e+01   9.074878e+01
  -1.303201e+02  -1.569731e+00
  -6.290179e+01  -8.340594e+01
   4.739218e+01  -9.043655e+01
   9.776936e+01  -3.399412e+01
   7.223984e+01   4.205930e+01
   1.085436e+01   8.668712e+01
  -4.071155e+01   5.424099e+01
  -3.988583e+01  -3.728722e+01
   2.250878e+01  -8.291340e+01
   8.096149e+01  -5.641117e+00
   4.989155e+01   1.162174e+02
  -5.484538e+01   1.263927e+02
  -1.123727e+02   3.013246e+00
  -5.078633e+01  -1.008643e+02
   5.245267e+01  -6.232916e+01
   7.170776e+01   5.299982e+01
  -9.472878e+00   9.507378e+01
  -9.489584e+01   2.402743e+01
  -9.931465e+01  -7.061790e+01
  -2.442394e+01  -1.011970e+02
   6.754209e+01  -5.904193e+01
   1.077084e+02   1.550276e+01
   6.288649e+01   7.197153e+01
  -2.998221e+01   6.814768e+01
  -8.152242e+01   7.975437e+00
  -4.383342e+01  -4.216611e+01
   2.431691e+01  -2.449186e+01
   3.007101e+01   2.904849e+01
  -2.814325e+01   3.756565e+01
  -6.295614e+01  -1.317160e+01
  -2.429668e+01  -5.530716e+01
   3.828231e+01  -4.245768e+01
   5.600930e+01  -4.694006e+00
   2.680023e+01   1.752548e+01
  -9.809556e+00   3.071884e+01
  -3.607959e+01   4.568714e+01
  -5.300840e+01   3.414644e+01
  -4.805040e+01  -2.145131e+01
  -1.291304e+01  -7.443318e+01
   2.432133e+01  -6.741699e+01
   2.794004e+01  -1.730353e+01
   7.302984e+00   8.602815e+00
   3.497281e+00  -8.996068e+00
   2.714256e+01  -2.154316e+01
   4.446595e+01   5.933411e+00
   2.769366e+01   4.355740e+01
  -1.035423e+01   4.375910e+01
  -3.729817e+01   3.880705e+00
  -3.331517e+01  -3.843241e+01
   6.346694e-01  -4.890503e+01
   4.341593e+01  -2.025446e+01
   5.969810e+01   2.815785e+01
   2.990304e+01   6.076161e+01
  -2.001848e+01   5.267372e+01
  -4.222608e+01   1.782085e+01
  -2.713884e+01  -4.472364e+00
  -1.473312e+01   1.197822e+00
  -3.477885e+01   8.329873e+00
  -6.205325e+01  -1.099830e+01
  -5.111198e+01  -4.763476e+01
   2.849813e+00  -7.067986e+01
   5.974166e+01  -6.340024e+01
   7.992522e+01  -2.979200e+01
   5.589983e+01   1.592649e+01
   9.638789e+00   4.919537e+01
  -2.345171e+01   4.407153e+01
  -1.772060e+01   5.980018e+00
   1.606158e+01  -2.004007e+01
   3.447869e+01  -1.313351e+00
   1.066522e+01   3.392989e+01
  -2.798917e+01   3.180031e+01
  -3.280309e+01  -9.543596e+00
   1.804014e+00  -3.432134e+01
   3.259434e+01  -6.603815e+00
   2.533414e+01   4.180032e+01
  -8.695187e+00   5.679431e+01
  -3.874098e+01   2.752541e+01
  -4.992394e+01  -1.429635e+01
  -4.134157e+01  -3.941313e+01
  -1.439990e+01  -4.129356e+01
   1.805482e+01  -2.539095e+01
   2.986913e+01  -3.586461e+00
   1.125436e+01   6.014552e+00
  -1.123250e+01  -4.839154e+00
  -6.038434e+00  -1.996888e+01
   1.971705e+01  -1.699902e+01
   3.012605e+01   1.669437e+00
   1.100207e+01   1.237251e+01
  -1.186185e+01   3.662698e+00
  -8.523368e+00  -1.037847e+01
   1.898118e+01  -1.174747e+01
   4.299386e+01   2.031996e+00
   4.006581e+01   2.260582e+01
   9.053879e+00   3.964297e+01
  -2.942026e+01   4.102105e+01
  -4.653904e+01   2.018632e+01
  -2.917510e+01  -9.009667e+00
   3.445331e+00  -1.925678e+01
   1.597141e+01  -2.335642e+00
  -4.066302e+00   1.667164e+01
  -3.172814e+01   9.916815e+00
  -3.500647e+01  -1.731704e+01
  -1.092932e+01  -3.486879e+01
   1.612975e+01  -2.626991e+01
   2.423601e+01  -4.891880e+00
   1.278232e+01   6.793977e+00
  -2.640237e+00   1.341737e+00
  -4.945482e+00  -1.141985e+01
   1.085200e+01  -1.605362e+01
   3.029981e+01  -3.499006e+00
   2.972176e+01   2.020487e+01
   2.609951e+00   3.530621e+01
  -2.787379e+01   2.613508e+01
  -3.273344e+01  -2.545627e-01
  -1.092678e+01  -1.998148e+01
   1.144984e+01  -1.869673e+01
   1.437562e+01  -5.101667e+00
   3.983319e+00   3.808897e+00
  -2.192368e+00   2.907936e+00
   2.290569e+00  -1.110925e-02
   1.030946e+01   3.344319e+00
   1.174024e+01   1.368911e+01
   6.460491e-01   2.385587e+01
  -2.022383e+01   2.240412e+01
  -3.640820e+01   3.002684e+00
  -3.117338e+01  -2.461990e+01
  -5.324954e+00  -3.863519e+01
   1.903194e+01  -2.720717e+01
   2.258913e+01  -3.170749e+00
   1.099982e+01   1.042774e+01
   4.130696e+00   6.647799e+00
   8.531938e+00  -1.221731e+00
   1.221138e+01   2.286487e-02
   4.929098e+00   8.246314e+00
  -8.302690e+00   1.236284e+01
  -1.576392e+01   6.251415e+00
  -1.141357e+01  -6.489446e+00
   3.500769e+00  -1.584472e+01
   2.176883e+01  -1.129991e+01
   2.965254e+01   9.003698e+00
   1.491677e+01   3.140077e+01
  -1.722901e+01   3.522609e+01
  -4.267581e+01   1.407469e+01
  -4.107051e+01  -1.505194e+01
  -1.704986e+01  -2.926158e+01
   7.008576e+00  -2.377738e+01
   1.609407e+01  -1.312680e+01
   1.395751e+01  -1.069132e+01
   1.215892e+01  -1.391007e+01
   1.567893e+01  -1.063405e+01
   2.006262e+01   5.045568e+00
   1.720089e+01   2.559968e+01
   2.943762e+00   3.612465e+01
  -1.688511e+01   2.687390e+01
  -2.815784e+01   2.580233e+00
  -2.115765e+01  -1.983590e+01
  -2.479012e+00  -2.547139e+01
   1.056292e+01  -1.463174e+01
   8.892742e+00  -5.048941e-01
   6.159570e-01   5.781134e+00
  -9.220151e-01   4.750926e+00
   6.380851e+00   3.360125e+00
   1.216355e+01   4.846599e+00
   6.306997e+00   6.515844e+00
  -9.895616e+00   4.734758e+00
  -2.379828e+01  -1.163731e+00
  -2.173899e+01  -8.627050e+00
  -2.399767e+00  -1.299901e+01
   1.881052e+01  -1.022386e+01
   2.283836e+01  -1.367497e+00
   7.291432e+00   6.152324e+00
  -1.009835e+01   4.971781e+00
  -1.173446e+01  -3.836955e+00
   3.334053e-01  -1.092411e+01
   1.027330e+01  -8.442813e+00
   9.807937e+00   1.395803e+00
   5.592789e+00   8.754595e+00
   6.136443e+00   7.085608e+00
   1.010697e+01   7.714858e-01
   1.053654e+01   6.445335e-01
   4.167321e+00   1.101240e+01
  -7.175393e+00   2.244838e+01
  -1.924264e+01   2.062083e+01
  -2.518202e+01   3.170767e+00
  -1.802274e+01  -1.553513e+01
   5.285827e-02  -1.939018e+01
   1.397685e+01  -8.189464e+00
   9.325140e+00   3.292611e+00
  -9.629641e+00   2.627702e+00
  -2.169691e+01  -8.140858e+00
  -1.146099e+01  -1.757922e+01
   1.347026e+01  -1.721060e+01
   3.059730e+01  -7.137114e+00
   2.567456e+01   6.122356e+00
   5.655436e+00   1.396049e+01
  -9.760939e+00   1.110133e+01
  -7.595786e+00   1.319298e+00
   6.415861e+00  -3.580879e+00
   1.408423e+01   4.672367e+00
   3.757471e+00   1.953294e+01
  -1.677808e+01   2.387911e+01
  -2.803584e+01   8.089090e+00
  -1.946454e+01  -1.772775e+01
   4.175588e-01  -3.197394e+01
   1.499842e+01  -2.244148e+01
   1.642045e+01   1.667397e+00
   8.862905e+00   1.890737e+01
  -3.555752e-01   1.676018e+01
  -6.885102e+00   2.978892e+00
  -8.380895e+00  -5.132609e+00
  -4.686476e+00  -1.392330e+00
  -5.812186e-01   3.371076e+00
  -2.270922e+00  -2.473735e+00
  -7.828816e+00  -1.451019e+01
  -6.480506e+00  -1.771374e+01
   7.142937e+00  -6.643790e+00
   2.181628e+01   7.614693e+00
   2.049489e+01   1.234887e+01
   2.157290e+00   7.835165e+00
  -1.478198e+01   2.682344e+00
  -1.415790e+01   5.873832e-01
  -1.071835e+00  -1.191369e+00
   6.580889e+00  -3.376744e+00
   1.879494e+00  -2.947600e+00
  -3.926796e+00   8.012943e-02
   1.126928e+00   1.642510e+00
   1.242281e+01   1.434149e+00
   1.424206e+01   4.882050e+00
  -3.842443e-01   1.318225e+01
  -2.081510e+01   1.700620e+01
  -3.007293e+01   6.761500e+00
  -2.129529e+01  -1.307377e+01
  -2.091694e+00  -2.633094e+01
   1.410055e+01  -2.253722e+01
   1.874021e+01  -7.543184e+00
   1.263492e+01   4.390030e+00
   3.393368e+00   5.730434e+00
  -1.074806e+00   1.227597e+00
   1.181144e+00   5.615889e-01
   4.869494e+00   7.230392e+00
   3.002449e+00   1.423840e+01
  -5.343645e+00   1.103434e+01
  -1.296713e+01  -3.910389e+00
  -1.112678e+01  -1.850119e+01
   1.088260e+00  -1.827361e+01
   1.408085e+01  -2.604121e+00
   1.571205e+01   1.382418e+01
   3.469307e+00   1.702744e+01
  -1.156821e+01   7.605804e+00
  -1.510007e+01  -3.386260e+00
  -4.980017e+00  -8.128512e+00
   5.944960e+00  -7.129223e+00
   4.673633e+00  -3.769069e+00
  -6.114603e+00  -3.856230e-01
  -1.118583e+01   2.247149e-01
  -1.793086e+00  -4.092826e+00
   1.325039e+01  -9.689927e+00
   1.833820e+01  -8.280731e+00
   9.302184e+00   2.452004e+00
  -3.580441e+00   1.290891e+01
  -8.990575e+00   1.158816e+01
  -5.611248e+00  -2.498661e-01
   6.176278e-01  -9.299753e+00
   4.847423e+00  -6.218445e+00
   5.810254e+00   3.837030e+00
   3.504168e+00   8.906632e+00
  -1.166407e+00   4.765079e+00
  -5.252333e+00  -1.947310e+00
  -5.752432e+00  -3.528809e+00
  -3.102640e+00  -1.408739e-01
  -4.414540e-01   1.963735e+00
   7.348306e-01  -1.171961e+00
   1.962545e+00  -6.383991e+00
   4.374850e+00  -6.888945e+00
   6.018836e+00  -1.086513e-01
   3.942917e+00   8.472025e+00
  -1.925805e+00   1.020766e+01
  -7.746795e+00   2.577484e+00
  -8.315057e+00  -7.445724e+00
  -1.366260e+00  -1.049991e+01
   8.979063e+00  -4.579695e+00
   1.372189e+01   3.820154e+00
   7.194555e+00   7.613412e+00
  -5.173518e+00   5.817652e+00
  -1.067389e+01   2.205926e+00
  -3.638330e+00   1.999507e-01
   6.648607e+00   8.215234e-01
   6.397467e+00   3.371489e+00
  -5.498904e+00   5.261627e+00
  -1.555127e+01   2.490125e+00
