
 $NMID
 id='ANONYMOUS ', fmtdat='(2E16.6)'
 volume=1.0
 tramp=1.0
 $END
   4.572431e+03  -1.578827e+01
   2.656821e+03   2.801900e+03
  -8.437197e+02   2.933367e+03
  -2.305512e+03   8.801285e+02
  -1.009652e+03  -8.006751e+02
   7.471381e+02  -6.716438e+02
   9.896856e+02   4.713268e+02
  -4.266070e+00   1.161251e+03
  -8.990436e+02   8.311005e+02
  -1.006790e+03  -1.226558e+02
  -4.669579e+02  -9.366167e+02
   2.823234e+02  -9.516627e+02
   7.021586e+02  -1.167504e+02
   4.159275e+02   7.742555e+02
  -2.980556e+02   7.982739e+02
  -6.538133e+02  -1.769424e+01
  -2.747020e+02  -7.309240e+02
   3.692458e+02  -6.575670e+02
   6.261425e+02  -6.611394e+01
   3.940319e+02   3.940148e+02
  -1.252930e+00   4.643487e+02
  -2.664362e+02   2.747998e+02
  -2.393467e+02   1.488965e+01
   9.750946e+01  -1.044173e+02
   4.193698e+02   9.357841e+01
   2.266694e+02   4.385649e+02
  -4.594410e+02   4.431679e+02
  -8.893926e+02  -6.221762e+01
  -4.684272e+02  -5.787258e+02
   4.003020e+02  -5.275631e+02
   7.856940e+02   2.138338e+01
   3.740594e+02   5.036578e+02
  -2.891344e+02   5.472890e+02
  -5.918992e+02   2.131833e+02
  -4.384463e+02  -2.427370e+02
  -7.350069e+01  -5.085868e+02
   2.228910e+02  -3.114165e+02
   2.067613e+02   2.271640e+02
  -1.561266e+02   4.783735e+02
  -4.784625e+02   5.091148e+00
  -2.803833e+02  -7.099602e+02
   3.293059e+02  -7.514496e+02
   6.541582e+02  -1.365375e+01
   2.907479e+02   5.928311e+02
  -3.093395e+02   3.550038e+02
  -4.198188e+02  -3.296749e+02
   6.113044e+01  -5.756790e+02
   5.780455e+02  -1.486861e+02
   6.176137e+02   4.219741e+02
   1.677897e+02   6.118800e+02
  -4.015269e+02   3.638019e+02
  -6.572093e+02  -7.932087e+01
  -3.903843e+02  -4.136660e+02
   1.675107e+02  -3.964849e+02
   4.767929e+02  -5.740095e+01
   2.596236e+02   2.251272e+02
  -1.339658e+02   1.284677e+02
  -1.655456e+02  -1.671189e+02
   1.709260e+02  -2.114909e+02
   3.727863e+02   7.587890e+01
   1.503732e+02   3.223811e+02
  -2.196666e+02   2.670948e+02
  -3.424528e+02   5.847697e+01
  -1.869595e+02  -9.438926e+01
   3.819715e+01  -2.122374e+02
   2.207242e+02  -3.145837e+02
   3.361685e+02  -2.232212e+02
   3.007821e+02   1.335734e+02
   8.585572e+01   4.533460e+02
  -1.284733e+02   4.063469e+02
  -1.442828e+02   1.130555e+02
  -3.350306e+01  -2.968747e+01
  -3.251998e+01   7.584289e+01
  -1.847210e+02   1.368805e+02
  -2.831719e+02  -4.252171e+01
  -1.713340e+02  -2.728594e+02
   6.626124e+01  -2.688713e+02
   2.333710e+02  -1.992249e+01
   2.084420e+02   2.412401e+02
  -3.777731e+00   3.038293e+02
  -2.706590e+02   1.262000e+02
  -3.730744e+02  -1.685384e+02
  -1.935255e+02  -3.656341e+02
   1.080726e+02  -3.215027e+02
   2.442291e+02  -1.209053e+02
   1.602319e+02   7.474593e+00
   9.620680e+01  -2.475254e+01
   2.278757e+02  -6.341504e+01
   3.998270e+02   5.706675e+01
   3.337772e+02   2.886801e+02
  -2.933321e+00   4.466426e+02
  -3.634958e+02   4.146774e+02
  -4.953530e+02   2.030349e+02
  -3.470737e+02  -9.274874e+01
  -6.149277e+01  -3.030190e+02
   1.361045e+02  -2.674661e+02
   9.550650e+01  -3.380727e+01
  -1.061685e+02   1.187512e+02
  -2.081103e+02   2.438520e+00
  -6.063228e+01  -2.057542e+02
   1.681166e+02  -1.882349e+02
   1.941869e+02   5.928913e+01
  -1.279349e+01   2.057798e+02
  -2.010690e+02   3.954523e+01
  -1.663734e+02  -2.544554e+02
   3.751988e+01  -3.556470e+02
   2.351095e+02  -1.882082e+02
   3.231377e+02   7.061121e+01
   2.746887e+02   2.400036e+02
   9.741025e+01   2.623476e+02
  -1.121006e+02   1.630138e+02
  -1.836512e+02   2.408485e+01
  -6.510776e+01  -3.466652e+01
   7.168032e+01   3.430504e+01
   3.545784e+01   1.264170e+02
  -1.239852e+02   1.058622e+02
  -1.855911e+02  -9.549541e+00
  -6.472996e+01  -7.526937e+01
   7.827566e+01  -2.107469e+01
   5.632855e+01   6.921097e+01
  -1.206302e+02   8.337615e+01
  -2.779200e+02  -1.554094e+00
  -2.617554e+02  -1.374966e+02
  -6.311662e+01  -2.530560e+02
   1.818994e+02  -2.643353e+02
   2.882419e+02  -1.317487e+02
   1.785126e+02   5.227030e+01
  -2.213163e+01   1.165645e+02
  -9.643281e+01   1.245459e+01
   2.815634e+01  -1.048156e+02
   1.983896e+02  -6.431691e+01
   2.198467e+02   1.032185e+02
   7.257237e+01   2.139986e+02
  -9.631484e+01   1.640909e+02
  -1.489308e+02   3.208906e+01
  -7.648417e+01  -4.183230e+01
   2.292505e+01  -6.608845e+00
   3.655995e+01   7.735913e+01
  -6.795986e+01   1.092091e+02
  -1.948070e+02   2.944166e+01
  -1.925191e+02  -1.224403e+02
  -2.265950e+01  -2.209787e+02
   1.682882e+02  -1.678821e+02
   2.009642e+02  -5.344617e+00
   6.897805e+01   1.200035e+02
  -6.827123e+01   1.164070e+02
  -8.707020e+01   3.269508e+01
  -2.235686e+01  -2.529804e+01
   1.769197e+01  -1.937400e+01
  -1.143973e+01   4.206570e+00
  -6.781928e+01  -1.307046e+01
  -8.293708e+01  -8.204433e+01
  -1.297681e+01  -1.542405e+02
   1.240778e+02  -1.497338e+02
   2.318174e+02  -2.689026e+01
   2.025746e+02   1.493747e+02
   4.198393e+01   2.404219e+02
  -1.120465e+02   1.730352e+02
  -1.390699e+02   2.596279e+01
  -7.088539e+01  -5.954716e+01
  -2.783980e+01  -3.835548e+01
  -5.340482e+01   1.096974e+01
  -7.835781e+01   4.799690e+00
  -3.764653e+01  -4.971628e+01
   4.520885e+01  -8.367165e+01
   9.958200e+01  -4.984486e+01
   7.969189e+01   3.595545e+01
  -1.510454e+01   1.055188e+02
  -1.377330e+02   8.193329e+01
  -1.935608e+02  -4.984648e+01
  -1.015462e+02  -1.984073e+02
   1.034293e+02  -2.282072e+02
   2.670730e+02  -9.768023e+01
   2.605453e+02   8.617315e+01
   1.119082e+02   1.793669e+02
  -3.915724e+01   1.497174e+02
  -9.686943e+01   8.519657e+01
  -8.260225e+01   6.971660e+01
  -7.009725e+01   9.037693e+01
  -9.422419e+01   7.226098e+01
  -1.277532e+02  -2.454554e+01
  -1.158930e+02  -1.557202e+02
  -2.818245e+01  -2.267381e+02
   9.976104e+01  -1.729072e+02
   1.766900e+02  -2.147585e+01
   1.374715e+02   1.214372e+02
   2.021400e+01   1.603289e+02
  -6.578041e+01   9.388400e+01
  -5.865825e+01   3.025500e+00
  -5.453879e+00  -3.983615e+01
   7.572633e+00  -3.298762e+01
  -3.830081e+01  -1.934110e+01
  -7.825630e+01  -2.506972e+01
  -4.301269e+01  -3.870636e+01
   6.236305e+01  -3.481934e+01
   1.541601e+02  -1.088462e+00
   1.414650e+02   5.032403e+01
   1.702945e+01   8.554893e+01
  -1.183847e+02   7.185849e+01
  -1.446354e+02   1.360267e+01
  -4.824778e+01  -3.919962e+01
   6.104152e+01  -3.553345e+01
   7.527187e+01   2.015229e+01
   4.306103e+00   6.817032e+01
  -5.887057e+01   5.631547e+01
  -6.250606e+01  -4.091493e+00
  -4.072059e+01  -5.140468e+01
  -4.189096e+01  -4.236336e+01
  -6.248853e+01  -2.695213e+00
  -6.629166e+01  -1.229814e+00
  -3.216871e+01  -6.762495e+01
   3.613293e+01  -1.439536e+02
   1.161629e+02  -1.379104e+02
   1.609051e+02  -3.004726e+01
   1.201641e+02   9.203316e+01
   5.574574e+00   1.242061e+02
  -8.569509e+01   5.836550e+01
  -5.947447e+01  -1.666918e+01
   5.949082e+01  -1.933285e+01
   1.377508e+02   4.501003e+01
   7.590444e+01   1.078396e+02
  -8.086760e+01   1.119193e+02
  -1.911812e+02   5.176202e+01
  -1.630169e+02  -3.352812e+01
  -3.793142e+01  -8.687426e+01
   6.028679e+01  -7.122858e+01
   4.861426e+01  -8.633651e+00
  -3.894574e+01   2.551208e+01
  -8.993160e+01  -2.420966e+01
  -3.042253e+01  -1.199411e+02
   9.551573e+01  -1.535313e+02
   1.704344e+02  -5.940366e+01
   1.261057e+02   1.036757e+02
   7.282351e+00   1.989568e+02
  -8.747061e+01   1.441165e+02
  -1.042821e+02  -6.775858e+00
  -6.039891e+01  -1.176218e+02
   3.063480e-01  -1.064280e+02
   4.447438e+01  -2.046764e+01
   5.295334e+01   3.106798e+01
   2.777746e+01   8.531493e+00
   3.550660e+00  -2.102354e+01
   1.799043e+01   1.465547e+01
   5.413461e+01   8.888160e+01
   4.315857e+01   1.100390e+02
  -4.526331e+01   4.464959e+01
  -1.384133e+02  -4.134341e+01
  -1.306348e+02  -7.231965e+01
  -1.657928e+01  -4.919972e+01
   8.993414e+01  -2.084018e+01
   8.866854e+01  -7.154936e+00
   9.108007e+00   7.036507e+00
  -3.961080e+01   2.232365e+01
  -1.288018e+01   1.877193e+01
   2.289800e+01  -1.163145e+00
  -6.427413e+00  -9.692584e+00
  -7.606316e+01  -5.435484e+00
  -9.087408e+01  -2.565531e+01
  -4.473300e+00  -8.097195e+01
   1.225588e+02  -1.121937e+02
   1.860222e+02  -5.373648e+01
   1.386257e+02   7.195551e+01
   2.212519e+01   1.630522e+02
  -8.108932e+01   1.471443e+02
  -1.147430e+02   5.500105e+01
  -8.028102e+01  -2.319516e+01
  -2.380101e+01  -3.523675e+01
   4.549674e+00  -8.093752e+00
  -9.046550e+00  -3.511530e+00
  -3.272749e+01  -4.510325e+01
  -2.233713e+01  -8.951363e+01
   3.017049e+01  -7.096692e+01
   8.146969e+01   2.025701e+01
   7.507400e+01   1.108380e+02
   5.852873e-01   1.130642e+02
  -8.467622e+01   2.123327e+01
  -1.017525e+02  -7.926607e+01
  -2.866011e+01  -1.043964e+02
   6.831464e+01  -5.274155e+01
   9.640427e+01   1.471929e+01
   3.632573e+01   4.997274e+01
  -3.385581e+01   4.889332e+01
  -2.984460e+01   2.673700e+01
   3.598897e+01   6.500344e-01
   6.957204e+01  -5.186815e+00
   1.358662e+01   2.503409e+01
  -8.009953e+01   6.470120e+01
  -1.145517e+02   5.738037e+01
  -6.148784e+01  -1.237519e+01
   1.767252e+01  -8.220899e+01
   5.328110e+01  -7.711201e+01
   3.580627e+01  -2.946355e+00
  -3.684872e-01   5.688657e+01
  -2.718276e+01   4.131256e+01
  -3.646710e+01  -2.054180e+01
  -2.515568e+01  -5.443116e+01
   4.288779e+00  -3.137025e+01
   3.305783e+01   9.808253e+00
   3.837575e+01   2.087902e+01
   2.017079e+01   6.575204e-01
   5.915133e-01  -1.314262e+01
  -6.033687e+00   5.212331e+00
  -8.931070e+00   3.805141e+01
  -2.089701e+01   4.378876e+01
  -3.437942e+01   4.629385e+00
  -2.797207e+01  -4.816791e+01
   6.017438e+00  -6.202845e+01
   4.607366e+01  -1.898124e+01
   5.479233e+01   4.182409e+01
   1.249521e+01   6.405600e+01
  -5.498039e+01   3.231997e+01
  -8.757610e+01  -1.809249e+01
  -4.779108e+01  -4.504282e+01
   2.980866e+01  -3.909681e+01
   6.530205e+01  -1.870129e+01
   2.339827e+01  -3.597788e+00
  -3.927333e+01  -3.330652e+00
  -3.884893e+01  -1.790001e+01
   3.223798e+01  -3.233905e+01
   9.392495e+01  -1.873360e+01
