
 $NMID
 id='ANONYMOUS ', fmtdat='(2E16.6)'
 volume=1.0
 tramp=1.0
 $END
  -3.004282e+03  -6.335003e+01
  -1.996699e+03  -1.492357e+03
  -7.944774e+01  -1.886718e+03
   1.092168e+03  -1.233129e+03
   9.061691e+02  -3.050842e+02
   1.142823e+02   1.335464e+02
  -2.860800e+02  -6.610525e+01
  -5.026151e+01  -4.680798e+02
   3.934956e+02  -5.317453e+02
   5.878758e+02  -1.034499e+02
   4.111235e+02   4.507535e+02
   3.313340e+01   5.973187e+02
  -2.518555e+02   1.851192e+02
  -2.172320e+02  -3.682471e+02
   9.569639e+01  -4.988274e+02
   3.664942e+02  -8.582913e+01
   2.906150e+02   4.468223e+02
  -9.448450e+01   6.004361e+02
  -4.362366e+02   2.898746e+02
  -4.337402e+02  -1.464357e+02
  -1.420555e+02  -3.392661e+02
   1.033356e+02  -2.353717e+02
   5.177616e+01  -8.206432e+01
  -1.864916e+02  -1.156084e+02
  -2.534210e+02  -2.913806e+02
   4.317466e+01  -3.461133e+02
   4.627583e+02  -1.268964e+02
   5.587723e+02   2.020480e+02
   1.851935e+02   3.343436e+02
  -3.107903e+02   1.598271e+02
  -4.584648e+02  -1.467682e+02
  -1.600020e+02  -3.417713e+02
   2.567533e+02  -3.175764e+02
   4.288888e+02  -1.116723e+02
   2.987863e+02   1.494472e+02
   7.833525e+01   2.813020e+02
  -1.367696e+01   1.631635e+02
   6.435935e+01  -7.707832e+01
   1.823669e+02  -1.215158e+02
   1.708201e+02   1.569414e+02
  -1.819232e+01   4.607016e+02
  -2.415230e+02   3.938816e+02
  -2.852468e+02  -8.379963e+00
  -9.483482e+01  -2.811008e+02
   1.345645e+02  -1.117048e+02
   1.422385e+02   2.614034e+02
  -1.200883e+02   3.574561e+02
  -4.184413e+02   4.060665e+01
  -4.528542e+02  -3.601216e+02
  -1.438399e+02  -4.692960e+02
   2.820188e+02  -2.461238e+02
   4.859078e+02   6.516088e+01
   3.205282e+02   2.301754e+02
  -3.629361e+01   2.011903e+02
  -2.601410e+02   7.930260e+01
  -2.031978e+02  -9.559301e+00
  -2.114356e+01  -1.003242e+01
   3.386459e+01   3.600040e+01
  -9.063944e+01   3.946208e+01
  -2.043978e+02  -4.618845e+01
  -1.152419e+02  -1.739836e+02
   1.408600e+02  -2.343658e+02
   3.318647e+02  -1.393938e+02
   2.665000e+02   9.483568e+01
  -1.890499e+01   3.238117e+02
  -2.975780e+02   3.609831e+02
  -3.647645e+02   1.464502e+02
  -2.192207e+02  -1.655851e+02
  -3.730258e+01  -3.394275e+02
   2.960058e+01  -2.956252e+02
   7.622758e+00  -1.703212e+02
   3.036738e+01  -1.178682e+02
   1.464078e+02  -1.182438e+02
   2.534779e+02  -4.238598e+01
   2.292644e+02   1.304602e+02
   7.400532e+01   2.512915e+02
  -1.007239e+02   1.769035e+02
  -1.807869e+02  -5.124858e+01
  -1.183186e+02  -2.406190e+02
   5.687444e+01  -2.354549e+02
   2.381619e+02  -4.827583e+01
   2.874196e+02   1.734663e+02
   1.545230e+02   2.834344e+02
  -4.769290e+01   2.480671e+02
  -1.531058e+02   1.492525e+02
  -1.397446e+02   8.597803e+01
  -1.499285e+02   7.162266e+01
  -2.773482e+02   3.090064e+01
  -3.998833e+02  -1.024736e+02
  -3.049225e+02  -2.947822e+02
   3.314129e+01  -4.233371e+02
   3.782357e+02  -3.771288e+02
   4.653509e+02  -1.574867e+02
   2.688451e+02   1.042193e+02
   8.135859e+00   2.381212e+02
  -9.011373e+01   1.794915e+02
  -1.007560e+00   3.385066e+01
   1.181945e+02  -2.759153e+01
   1.166860e+02   4.591676e+01
  -2.852535e+00   1.306464e+02
  -1.105800e+02   8.723337e+01
  -9.397441e+01  -5.406448e+01
   3.373451e+01  -1.172373e+02
   1.521054e+02   8.642196e+00
   1.408516e+02   2.274420e+02
  -2.206041e+01   3.287283e+02
  -2.377647e+02   2.015688e+02
  -3.510176e+02  -6.219080e+01
  -2.688461e+02  -2.623854e+02
  -5.008192e+01  -2.710855e+02
   1.307507e+02  -1.316553e+02
   1.426778e+02   4.102246e-01
   2.878988e+01   1.222694e+01
  -4.662343e+01  -6.513070e+01
   1.171463e+01  -1.099701e+02
   1.230847e+02  -5.681911e+01
   1.370204e+02   3.250815e+01
   2.378639e+01   5.226353e+01
  -8.173768e+01  -1.862612e+01
  -3.412743e+01  -9.593752e+01
   1.506462e+02  -8.510101e+01
   2.980471e+02   2.857606e+01
   2.479662e+02   1.756676e+02
   1.728697e+01   2.592826e+02
  -2.110745e+02   2.201263e+02
  -2.608123e+02   8.308821e+01
  -1.262999e+02  -4.730318e+01
   3.304696e+01  -6.969699e+01
   5.792702e+01   9.733760e+00
  -5.804602e+01   7.406566e+01
  -1.791503e+02   2.353808e+01
  -1.754734e+02  -1.053939e+02
  -4.746174e+01  -1.795699e+02
   8.811606e+01  -1.250686e+02
   1.182128e+02  -1.077354e+01
   3.883276e+01   3.622871e+01
  -4.535112e+01  -2.552997e+01
  -2.439651e+01  -1.136155e+02
   1.015007e+02  -1.162935e+02
   2.093994e+02  -6.227605e+00
   1.735697e+02   1.369225e+02
   4.035013e+00   2.013545e+02
  -1.528587e+02   1.399631e+02
  -1.647679e+02   7.799500e+00
  -4.869668e+01  -8.878807e+01
   6.093076e+01  -8.721075e+01
   6.550724e+01  -2.073489e+01
  -3.231157e+00   2.478189e+01
  -4.036130e+01   6.700299e+00
   7.860650e+00  -2.881717e+01
   8.987284e+01  -3.968595e+00
   1.058083e+02   9.221564e+01
   8.283191e+00   1.759449e+02
  -1.452525e+02   1.486412e+02
  -2.346453e+02   2.755718e+00
  -1.828652e+02  -1.601630e+02
  -3.074862e+01  -2.208700e+02
   9.966974e+01  -1.505470e+02
   1.240200e+02  -2.861425e+01
   7.111041e+01   4.103111e+01
   3.335031e+01   2.676962e+01
   5.477296e+01  -1.394456e+01
   8.741194e+01  -6.276436e+00
   5.810123e+01   5.776139e+01
  -3.886670e+01   1.074589e+02
  -1.249216e+02   6.879033e+01
  -1.095840e+02  -4.596869e+01
   1.875421e+01  -1.316202e+02
   1.663650e+02  -8.790705e+01
   2.029126e+02   7.054101e+01
   7.617884e+01   2.129548e+02
  -1.302788e+02   2.132807e+02
  -2.627301e+02   7.121502e+01
  -2.329135e+02  -9.374567e+01
  -8.991621e+01  -1.644401e+02
   4.195359e+01  -1.309116e+02
   8.577374e+01  -7.480332e+01
   6.618593e+01  -6.647665e+01
   5.569557e+01  -9.165684e+01
   8.821767e+01  -7.763962e+01
   1.286051e+02   1.821949e+01
   1.143572e+02   1.510553e+02
   2.189856e+01   2.197035e+02
  -1.005908e+02   1.590117e+02
  -1.645724e+02   5.974003e+00
  -1.186268e+02  -1.272402e+02
  -3.992621e+00  -1.514555e+02
   7.703807e+01  -7.480646e+01
   6.205667e+01   1.830306e+01
  -6.134977e+00   5.519864e+01
  -3.036482e+01   3.567412e+01
   2.410201e+01   1.080527e+01
   8.316501e+01   1.694968e+01
   4.968596e+01   4.000410e+01
  -7.401330e+01   3.915726e+01
  -1.732627e+02  -4.786358e+00
  -1.404978e+02  -6.680145e+01
   5.467951e+00  -9.829064e+01
   1.354114e+02  -7.007026e+01
   1.420952e+02  -1.238478e+00
   4.173777e+01   5.203218e+01
  -5.864114e+01   4.354655e+01
  -7.641663e+01  -1.819072e+01
  -2.073198e+01  -7.295933e+01
   4.291962e+01  -6.543598e+01
   6.809890e+01  -3.080963e+00
   5.927449e+01   4.965513e+01
   4.753138e+01   4.302588e+01
   5.241140e+01   2.461858e+00
   6.294889e+01   1.948092e+00
   4.503275e+01   7.204404e+01
  -2.611609e+01   1.502856e+02
  -1.261929e+02   1.424270e+02
  -1.805342e+02   3.136136e+01
  -1.283951e+02  -9.453708e+01
   2.790481e-01  -1.317835e+02
   9.250395e+01  -6.885324e+01
   6.110587e+01   9.836545e+00
  -5.644869e+01   1.961064e+01
  -1.284717e+02  -4.136685e+01
  -6.579592e+01  -1.039125e+02
   8.339077e+01  -1.040454e+02
   1.836219e+02  -3.817206e+01
   1.498284e+02   4.362940e+01
   2.675420e+01   8.273217e+01
  -6.422674e+01   5.619770e+01
  -4.730538e+01  -3.956242e+00
   3.957550e+01  -3.095842e+01
   9.052236e+01   1.872982e+01
   3.981535e+01   1.115880e+02
  -7.451564e+01   1.510855e+02
  -1.506116e+02   6.963672e+01
  -1.220170e+02  -8.672137e+01
  -1.619282e+01  -1.847953e+02
   7.963684e+01  -1.344873e+02
   1.005537e+02   1.324448e+01
   5.076100e+01   1.178123e+02
  -1.675334e+01   9.884764e+01
  -5.180961e+01   1.248909e+01
  -4.201052e+01  -3.219876e+01
  -1.393838e+01  -7.308288e+00
  -6.477985e+00   1.622055e+01
  -3.188894e+01  -2.206636e+01
  -5.582771e+01  -8.803329e+01
  -2.754840e+01  -1.011942e+02
   5.684473e+01  -4.014380e+01
   1.303813e+02   3.651713e+01
   1.164481e+02   6.783644e+01
   1.773665e+01   5.254608e+01
  -7.610855e+01   2.527004e+01
  -8.328365e+01   4.363972e+00
  -1.853990e+01  -1.220922e+01
   3.241661e+01  -2.018437e+01
   2.041923e+01  -1.106986e+01
  -1.266595e+01   4.154931e+00
   1.926355e+00   4.620595e+00
   6.241194e+01  -1.830973e+00
   9.041076e+01   2.059872e+01
   2.430381e+01   7.839792e+01
  -1.012488e+02   1.151687e+02
  -1.829396e+02   6.657318e+01
  -1.507869e+02  -5.414981e+01
  -3.297357e+01  -1.534777e+02
   7.820121e+01  -1.518779e+02
   1.136426e+02  -6.565066e+01
   7.805466e+01   1.793340e+01
   2.614762e+01   3.749001e+01
   3.887463e+00   1.365156e+01
   1.449787e+01   9.245434e+00
   2.859191e+01   4.868931e+01
   1.587527e+01   8.882441e+01
  -2.845851e+01   6.964476e+01
  -7.520059e+01  -1.361731e+01
  -7.821644e+01  -9.651459e+01
  -1.653910e+01  -1.061596e+02
   7.024531e+01  -3.325484e+01
   1.029881e+02   5.973081e+01
   4.132264e+01   9.939215e+01
  -6.085091e+01   6.482660e+01
  -1.022270e+02  -5.807271e+00
  -4.642835e+01  -5.786824e+01
   3.322396e+01  -6.246870e+01
   4.113710e+01  -2.899150e+01
  -2.312060e+01   6.963515e+00
  -6.588942e+01   9.411384e+00
  -1.883949e+01  -2.683541e+01
   7.576417e+01  -6.351549e+01
   1.187917e+02  -5.053162e+01
   7.115951e+01   1.734828e+01
  -1.227004e+01   8.300595e+01
  -5.723464e+01   8.192050e+01
  -4.542642e+01   1.471658e+01
  -8.556220e+00  -4.951447e+01
   2.199606e+01  -4.818293e+01
   3.558659e+01   7.764528e+00
   2.843613e+01   5.191289e+01
   2.303153e-01   4.029601e+01
  -3.232960e+01  -3.801163e+00
  -4.155398e+01  -2.549776e+01
  -2.042119e+01  -5.608593e+00
   4.828599e+00   2.062202e+01
   6.854616e+00   1.105542e+01
  -6.334062e+00  -2.933366e+01
  -3.195026e+00  -5.253059e+01
   2.415190e+01  -2.475945e+01
   4.215944e+01   3.076327e+01
   1.650458e+01   5.703815e+01
  -3.763704e+01   2.638054e+01
  -6.237792e+01  -2.987010e+01
  -2.062268e+01  -5.752863e+01
   5.545524e+01  -3.592523e+01
   9.160132e+01   9.331202e+00
   5.008070e+01   4.141176e+01
  -2.727293e+01   4.562361e+01
  -6.317443e+01   2.948527e+01
  -2.919603e+01   7.623579e+00
   2.510326e+01  -4.517030e+00
   3.114862e+01   3.797361e+00
  -2.064219e+01   2.299326e+01
  -7.249619e+01   2.075851e+01
