
 $NMID
 id='ANONYMOUS ', fmtdat='(2E16.6)'
 volume=1.0
 tramp=1.0
 $END
  -4.023731e+03   1.008266e+02
  -2.502384e+03  -2.276314e+03
   4.398107e+02  -2.594098e+03
   1.860411e+03  -1.073091e+03
   1.004183e+03   3.808374e+02
  -4.189269e+02   5.038348e+02
  -7.531769e+02  -2.987142e+02
  -4.702706e+01  -9.159355e+02
   6.991433e+02  -7.505219e+02
   8.642719e+02   1.560509e+01
   4.736011e+02   7.541508e+02
  -1.454075e+02   8.365727e+02
  -5.402685e+02   1.614055e+02
  -3.663377e+02  -6.197906e+02
   2.060105e+02  -7.016908e+02
   5.539865e+02  -3.655276e+01
   3.001630e+02   6.254561e+02
  -2.565662e+02   6.503395e+02
  -5.607601e+02   1.627958e+02
  -4.209956e+02  -2.979005e+02
  -6.187952e+01  -4.224513e+02
   2.022174e+02  -2.690221e+02
   1.727624e+02  -4.620329e+01
  -1.258946e+02   2.648481e+01
  -3.613489e+02  -1.550215e+02
  -1.403029e+02  -3.996400e+02
   4.501743e+02  -3.405260e+02
   7.736696e+02   9.080864e+01
   3.827238e+02   4.800207e+02
  -3.548421e+02   4.062219e+02
  -6.699824e+02  -4.684202e+01
  -3.106075e+02  -4.371828e+02
   2.647089e+02  -4.730955e+02
   5.299344e+02  -1.917076e+02
   3.959377e+02   1.992292e+02
   8.870344e+01   4.269746e+02
  -1.399824e+02   2.658592e+02
  -1.157817e+02  -1.668396e+02
   1.526740e+02  -3.543918e+02
   3.675647e+02   4.037407e+01
   1.911774e+02   6.140164e+02
  -2.793878e+02   6.332332e+02
  -5.229470e+02   2.331454e+01
  -2.368051e+02  -4.744506e+02
   2.374748e+02  -2.767738e+02
   3.289262e+02   2.947587e+02
  -6.826243e+01   4.999874e+02
  -5.185928e+02   1.242113e+02
  -5.704161e+02  -3.865339e+02
  -1.744534e+02  -5.590993e+02
   3.510525e+02  -3.326103e+02
   5.999425e+02   5.870801e+01
   3.774836e+02   3.399301e+02
  -1.103303e+02   3.323505e+02
  -3.993963e+02   7.792646e+01
  -2.472048e+02  -1.418925e+02
   7.450404e+01  -9.046896e+01
   1.234143e+02   1.155690e+02
  -1.364390e+02   1.545664e+02
  -3.153732e+02  -5.582683e+01
  -1.466768e+02  -2.664786e+02
   1.860018e+02  -2.619220e+02
   3.396169e+02  -9.558053e+01
   2.186510e+02   9.164153e+01
  -2.779333e+01   2.546062e+02
  -2.431430e+02   3.368830e+02
  -3.424774e+02   2.034449e+02
  -2.751868e+02  -1.384878e+02
  -7.953721e+01  -4.117950e+02
   8.339534e+01  -3.717478e+02
   9.349379e+01  -1.386876e+02
   3.451267e+01  -2.438561e+01
   7.266064e+01  -9.120324e+01
   2.066139e+02  -1.066430e+02
   2.650261e+02   6.792392e+01
   1.429644e+02   2.616530e+02
  -7.236061e+01   2.378802e+02
  -2.142802e+02  -2.207690e-01
  -1.819697e+02  -2.367406e+02
   1.580527e+01  -2.800132e+02
   2.566415e+02  -1.047103e+02
   3.473260e+02   1.621911e+02
   1.889521e+02   3.329313e+02
  -7.903060e+01   2.992358e+02
  -2.099456e+02   1.378501e+02
  -1.545439e+02   3.001006e+01
  -1.159877e+02   4.343758e+01
  -2.451384e+02   5.641452e+01
  -4.024545e+02  -6.508906e+01
  -3.310260e+02  -2.846676e+02
   3.978211e+00  -4.399805e+02
   3.611099e+02  -4.106832e+02
   4.818702e+02  -1.984711e+02
   3.221940e+02   8.906580e+01
   4.961276e+01   2.790392e+02
  -1.134397e+02   2.401684e+02
  -6.096846e+01   3.691287e+01
   1.075853e+02  -8.845492e+01
   1.754262e+02   9.710836e+00
   4.306158e+01   1.775679e+02
  -1.430133e+02   1.566657e+02
  -1.600882e+02  -5.252732e+01
   1.515746e+01  -1.747109e+02
   1.829300e+02  -2.708047e+01
   1.636427e+02   2.419597e+02
  -2.411937e+01   3.484392e+02
  -2.331565e+02   1.989677e+02
  -3.362886e+02  -6.111583e+01
  -2.788036e+02  -2.431646e+02
  -8.631681e+01  -2.641350e+02
   1.155301e+02  -1.546451e+02
   1.688815e+02  -1.968191e+01
   5.320091e+01   2.494667e+01
  -6.338620e+01  -4.383841e+01
  -2.142392e+01  -1.198216e+02
   1.214646e+02  -9.126965e+01
   1.688223e+02   1.343429e+01
   5.203256e+01   6.549140e+01
  -7.905780e+01   8.455532e+00
  -4.979577e+01  -7.777472e+01
   1.302468e+02  -8.671705e+01
   2.862370e+02   5.499678e+00
   2.605640e+02   1.461276e+02
   5.223432e+01   2.546505e+02
  -1.871353e+02   2.531828e+02
  -2.762860e+02   1.212194e+02
  -1.615763e+02  -4.635038e+01
   2.322428e+01  -1.004882e+02
   8.244141e+01  -6.919135e+00
  -3.655169e+01   9.448222e+01
  -1.905358e+02   5.431591e+01
  -2.069752e+02  -9.928751e+01
  -6.876174e+01  -2.006766e+02
   8.985475e+01  -1.528541e+02
   1.375763e+02  -2.802583e+01
   6.414641e+01   3.798376e+01
  -3.071295e+01  -4.711056e+00
  -3.366456e+01  -8.993235e+01
   7.810651e+01  -1.134309e+02
   2.001102e+02  -2.525994e+01
   1.890397e+02   1.238792e+02
   2.099161e+01   2.141936e+02
  -1.595494e+02   1.623130e+02
  -1.886558e+02   1.095235e+01
  -6.483054e+01  -1.075484e+02
   6.312217e+01  -1.079000e+02
   7.882850e+01  -3.059646e+01
   1.374177e+01   2.450420e+01
  -2.544577e+01   1.504610e+01
   1.032839e+01  -1.342124e+01
   7.655022e+01   5.686241e+00
   9.327993e+01   8.450360e+01
   1.448446e+01   1.624660e+02
  -1.290407e+02   1.525060e+02
  -2.330713e+02   2.327501e+01
  -1.994833e+02  -1.493705e+02
  -4.350033e+01  -2.333979e+02
   1.041004e+02  -1.682073e+02
   1.336994e+02  -3.019626e+01
   7.274559e+01   5.156880e+01
   3.089895e+01   3.377588e+01
   5.392777e+01  -1.324320e+01
   8.189644e+01  -6.974331e+00
   4.622957e+01   5.222230e+01
  -4.151450e+01   9.370112e+01
  -1.082965e+02   5.885987e+01
  -9.156426e+01  -3.828658e+01
   1.444211e+01  -1.157389e+02
   1.469948e+02  -8.719083e+01
   1.987046e+02   5.344837e+01
   9.698477e+01   2.021252e+02
  -1.085252e+02   2.258182e+02
  -2.643284e+02   9.436770e+01
  -2.535002e+02  -8.339088e+01
  -1.084722e+02  -1.721292e+02
   3.692213e+01  -1.443979e+02
   9.133753e+01  -8.401668e+01
   7.548099e+01  -7.079778e+01
   6.324280e+01  -9.289758e+01
   9.094925e+01  -7.663243e+01
   1.292227e+02   1.959771e+01
   1.192773e+02   1.521950e+02
   3.101910e+01   2.245322e+02
  -9.662548e+01   1.708036e+02
  -1.724808e+02   1.990350e+01
  -1.338421e+02  -1.209238e+02
  -1.799045e+01  -1.572426e+02
   6.793876e+01  -8.871744e+01
   5.988996e+01   3.444495e+00
   2.004535e+00   4.535414e+01
  -1.517090e+01   3.406361e+01
   3.382653e+01   1.537385e+01
   8.100222e+01   2.058617e+01
   4.645035e+01   3.847642e+01
  -6.614517e+01   3.779329e+01
  -1.616900e+02   2.137280e+00
  -1.426875e+02  -5.343702e+01
  -1.069679e+01  -8.997032e+01
   1.235040e+02  -7.394566e+01
   1.439520e+02  -1.234810e+01
   4.683845e+01   4.291576e+01
  -5.974630e+01   3.994186e+01
  -7.647788e+01  -1.790792e+01
  -1.171149e+01  -7.026617e+01
   5.221615e+01  -6.129471e+01
   6.496538e+01   2.058066e-01
   4.875517e+01   5.028614e+01
   4.503470e+01   4.193453e+01
   5.917773e+01   1.173728e+00
   6.539670e+01   2.561163e-02
   3.839975e+01   6.894682e+01
  -2.959834e+01   1.477658e+02
  -1.173616e+02   1.425920e+02
  -1.680930e+02   3.397096e+01
  -1.256570e+02  -9.081730e+01
  -6.106312e+00  -1.273304e+02
   8.737271e+01  -6.422308e+01
   6.075526e+01   1.299224e+01
  -5.823710e+01   2.083920e+01
  -1.360148e+02  -4.081549e+01
  -7.495875e+01  -1.051577e+02
   7.964039e+01  -1.112991e+02
   1.880477e+02  -5.129022e+01
   1.596024e+02   3.367668e+01
   3.597597e+01   8.483558e+01
  -6.029885e+01   6.737451e+01
  -4.805429e+01   5.179157e+00
   3.884361e+01  -2.843853e+01
   9.112266e+01   2.038561e+01
   3.664120e+01   1.168760e+02
  -8.497927e+01   1.555965e+02
  -1.628184e+02   6.725731e+01
  -1.275935e+02  -9.522153e+01
  -1.499175e+01  -1.946382e+02
   8.180614e+01  -1.432424e+02
   1.034847e+02   6.851022e+00
   5.972917e+01   1.168160e+02
  -3.885266e+00   1.040130e+02
  -4.681243e+01   1.856728e+01
  -4.988993e+01  -3.036631e+01
  -2.308487e+01  -7.396649e+00
  -4.126444e+00   1.942782e+01
  -2.335550e+01  -1.714203e+01
  -5.692692e+01  -8.781108e+01
  -4.016669e+01  -1.062461e+02
   4.864978e+01  -4.409330e+01
   1.370632e+02   3.670099e+01
   1.276899e+02   6.805222e+01
   1.811002e+01   5.028205e+01
  -8.491544e+01   2.461699e+01
  -8.693268e+01   8.150284e+00
  -1.267058e+01  -8.830268e+00
   3.667730e+01  -2.257421e+01
   1.519044e+01  -1.627634e+01
  -1.929593e+01   2.842908e+00
   5.082550e+00   7.717822e+00
   7.164219e+01   1.051154e+00
   9.171503e+01   2.196091e+01
   1.345807e+01   8.048534e+01
  -1.129779e+02   1.166280e+02
  -1.846865e+02   6.269307e+01
  -1.453747e+02  -6.292844e+01
  -2.978126e+01  -1.599305e+02
   7.725366e+01  -1.513025e+02
   1.137598e+02  -6.160535e+01
   8.038454e+01   1.962930e+01
   2.550161e+01   3.571492e+01
  -1.388948e+00   1.031914e+01
   1.108528e+01   5.457721e+00
   3.232186e+01   4.585505e+01
   2.204584e+01   8.911922e+01
  -2.813210e+01   7.147534e+01
  -8.006293e+01  -1.611607e+01
  -7.908485e+01  -1.045430e+02
  -8.884860e+00  -1.112010e+02
   7.947579e+01  -2.765319e+01
   1.045540e+02   7.034560e+01
   3.568715e+01   1.025432e+02
  -6.488146e+01   5.890600e+01
  -9.934478e+01  -9.517039e+00
  -4.115995e+01  -5.235958e+01
   3.284080e+01  -5.476974e+01
   3.350843e+01  -2.821748e+01
  -3.157205e+01   3.004154e+00
  -6.847457e+01   8.284440e+00
  -1.607701e+01  -2.555142e+01
   7.747092e+01  -6.633913e+01
   1.152901e+02  -5.760375e+01
   6.548871e+01   1.298544e+01
  -1.401688e+01   8.329764e+01
  -5.332079e+01   8.031843e+01
  -3.949459e+01   7.912339e+00
  -4.165270e+00  -5.455971e+01
   2.459124e+01  -4.462323e+01
   3.687386e+01   1.520531e+01
   2.766102e+01   5.324571e+01
  -2.071622e+00   3.487792e+01
  -3.320950e+01  -6.951664e+00
  -4.010924e+01  -2.184117e+01
  -2.032042e+01  -2.018259e+00
   1.586025e+00   1.597302e+01
   6.095818e+00   5.336403e-01
   2.535415e+00  -3.539705e+01
   1.139270e+01  -4.782506e+01
   3.091193e+01  -1.278189e+01
   3.444118e+01   4.160094e+01
   3.506322e+00   6.083448e+01
  -4.287888e+01   2.282377e+01
  -5.880208e+01  -3.656046e+01
  -1.694549e+01  -6.178054e+01
   5.472903e+01  -3.495944e+01
   8.989796e+01   1.313509e+01
   4.984487e+01   4.291188e+01
  -2.823408e+01   4.230587e+01
  -6.451546e+01   2.412830e+01
  -2.556157e+01   5.527012e+00
   3.445989e+01  -4.796154e-01
   3.675076e+01   1.195747e+01
  -2.739374e+01   2.990411e+01
  -8.619365e+01   2.178614e+01
