
 $NMID
 id='ANONYMOUS ', fmtdat='(2E16.6)'
 volume=1.0
 tramp=1.0
 $END
  -2.310793e+03   1.191862e+02
  -1.717717e+03  -9.646073e+02
  -3.304112e+02  -1.491147e+03
   7.199164e+02  -1.206546e+03
   8.056180e+02  -4.664699e+02
   2.646646e+02   7.382028e+01
  -1.588366e+02   5.464697e+01
  -1.047528e+02  -2.921825e+02
   2.224546e+02  -4.467937e+02
   4.442658e+02  -1.654693e+02
   3.827064e+02   2.915825e+02
   1.162512e+02   4.695346e+02
  -1.421579e+02   2.011481e+02
  -1.885018e+02  -2.323082e+02
   1.714489e+01  -3.922820e+02
   2.701505e+02  -1.169474e+02
   2.800777e+02   3.274165e+02
  -1.485910e+01   5.202089e+02
  -3.444502e+02   3.061229e+02
  -3.936105e+02  -7.409376e+01
  -1.611334e+02  -2.724502e+02
   5.271184e+01  -2.065162e+02
   1.597354e+01  -9.224296e+01
  -1.641746e+02  -1.311796e+02
  -1.886451e+02  -2.610621e+02
   6.203272e+01  -2.667409e+02
   3.726526e+02  -7.405582e+01
   4.231586e+02   1.569493e+02
   1.381458e+02   2.249155e+02
  -2.250637e+02   9.418461e+01
  -3.373129e+02  -1.111775e+02
  -1.231421e+02  -2.486486e+02
   1.903187e+02  -2.448554e+02
   3.303729e+02  -1.023976e+02
   2.426256e+02   9.515693e+01
   8.917109e+01   2.017951e+02
   3.430940e+01   1.277974e+02
   8.596742e+01  -2.955021e+01
   1.355984e+02  -5.267505e+01
   9.394559e+01   1.360816e+02
  -3.282979e+01   3.375340e+02
  -1.592329e+02   2.925084e+02
  -1.845956e+02   1.914568e+01
  -7.674169e+01  -1.769646e+02
   7.035083e+01  -7.138993e+01
   9.039046e+01   1.918717e+02
  -8.751195e+01   2.710338e+02
  -3.239969e+02   4.038640e+01
  -3.750422e+02  -2.728010e+02
  -1.419929e+02  -3.711158e+02
   2.068312e+02  -2.070436e+02
   3.897929e+02   2.779117e+01
   2.795593e+02   1.529832e+02
   6.824126e+00   1.493224e+02
  -1.863450e+02   9.135541e+01
  -1.762977e+02   3.507224e+01
  -4.885869e+01   1.987292e+00
   1.680453e+01   1.960747e+00
  -5.391994e+01   1.432603e+01
  -1.509670e+02  -1.869606e+01
  -1.065014e+02  -1.192974e+02
   9.809764e+01  -2.033046e+02
   2.805505e+02  -1.426665e+02
   2.421629e+02   7.632811e+01
  -8.538015e+00   2.944640e+02
  -2.557157e+02   3.199067e+02
  -3.057133e+02   1.231728e+02
  -1.775803e+02  -1.341184e+02
  -4.167873e+01  -2.672314e+02
  -5.977038e+00  -2.407703e+02
  -1.716195e+01  -1.615402e+02
   2.956838e+01  -1.243153e+02
   1.406326e+02  -1.057432e+02
   2.197153e+02  -2.601027e+01
   1.861768e+02   1.140872e+02
   5.736399e+01   2.026621e+02
  -8.014013e+01   1.376896e+02
  -1.434446e+02  -4.577046e+01
  -9.467791e+01  -1.957606e+02
   4.508440e+01  -1.886879e+02
   1.917141e+02  -3.864719e+01
   2.367172e+02   1.341515e+02
   1.392963e+02   2.211628e+02
  -1.899803e+01   2.045670e+02
  -1.127739e+02   1.414349e+02
  -1.180162e+02   9.336567e+01
  -1.360913e+02   7.019360e+01
  -2.408214e+02   2.768872e+01
  -3.411106e+02  -8.102102e+01
  -2.643481e+02  -2.400908e+02
   1.762148e+01  -3.559920e+02
   3.095687e+02  -3.267133e+02
   3.835639e+02  -1.439401e+02
   2.194195e+02   7.727206e+01
   1.008201e+01   1.893348e+02
  -5.878287e+01   1.445811e+02
   1.489808e+01   3.403270e+01
   9.650087e+01  -1.259207e+01
   8.396904e+01   3.768095e+01
  -3.822358e+00   9.612123e+01
  -7.673602e+01   6.538107e+01
  -6.649823e+01  -3.657874e+01
   2.320947e+01  -8.598891e+01
   1.194604e+02   7.106546e+00
   1.248725e+02   1.832672e+02
  -4.043353e+00   2.770844e+02
  -1.967786e+02   1.812640e+02
  -3.054753e+02  -4.155186e+01
  -2.352560e+02  -2.175056e+02
  -4.374460e+01  -2.277351e+02
   1.080610e+02  -1.104431e+02
   1.137077e+02  -2.817356e+00
   2.050416e+01   3.979897e+00
  -3.624045e+01  -5.727193e+01
   1.274104e+01  -8.880725e+01
   1.000085e+02  -4.485517e+01
   1.088614e+02   2.402227e+01
   1.688331e+01   3.786565e+01
  -6.851063e+01  -1.948968e+01
  -2.729364e+01  -8.341625e+01
   1.301034e+02  -7.599303e+01
   2.561504e+02   1.976633e+01
   2.125305e+02   1.464261e+02
   1.582375e+01   2.184692e+02
  -1.744033e+02   1.857951e+02
  -2.122288e+02   7.326791e+01
  -1.011993e+02  -3.243698e+01
   2.493074e+01  -5.252715e+01
   4.241986e+01   7.690727e+00
  -4.988069e+01   5.852344e+01
  -1.464197e+02   2.067898e+01
  -1.457749e+02  -8.177386e+01
  -4.430883e+01  -1.444948e+02
   6.742480e+01  -1.037201e+02
   9.428766e+01  -1.145379e+01
   2.870896e+01   2.660377e+01
  -4.113498e+01  -2.643504e+01
  -2.062964e+01  -1.008056e+02
   8.810219e+01  -1.015456e+02
   1.789333e+02  -7.812023e+00
   1.484585e+02   1.119646e+02
   8.272427e+00   1.671124e+02
  -1.215051e+02   1.206467e+02
  -1.344517e+02   1.444395e+01
  -4.293449e+01  -6.798149e+01
   4.621855e+01  -7.208897e+01
   5.105021e+01  -1.913527e+01
  -5.866871e+00   1.970458e+01
  -3.693320e+01   3.823542e+00
   6.534457e+00  -2.878618e+01
   8.068446e+01  -7.770878e+00
   9.604841e+01   7.779570e+01
   1.093505e+01   1.525225e+02
  -1.218926e+02   1.299234e+02
  -1.986535e+02   6.195437e+00
  -1.572194e+02  -1.308164e+02
  -3.278495e+01  -1.832514e+02
   7.667481e+01  -1.285692e+02
   1.023838e+02  -2.967616e+01
   6.290643e+01   2.970512e+01
   3.074798e+01   2.018221e+01
   4.651514e+01  -1.405750e+01
   7.564544e+01  -7.956491e+00
   5.406513e+01   4.959511e+01
  -2.984474e+01   9.674115e+01
  -1.089776e+02   6.419191e+01
  -9.883052e+01  -3.868621e+01
   1.361097e+01  -1.164427e+02
   1.434031e+02  -7.963354e+01
   1.752750e+02   5.703733e+01
   6.711170e+01   1.795239e+02
  -1.071384e+02   1.819683e+02
  -2.190489e+02   6.539960e+01
  -1.965567e+02  -7.172387e+01
  -7.934048e+01  -1.334140e+02
   3.077200e+01  -1.096953e+02
   6.821566e+01  -6.547239e+01
   5.139430e+01  -5.914223e+01
   4.219860e+01  -8.080841e+01
   7.185647e+01  -7.012994e+01
   1.104963e+02   1.032250e+01
   1.022979e+02   1.239336e+02
   2.529617e+01   1.847624e+02
  -7.969730e+01   1.364068e+02
  -1.370893e+02   8.779218e+00
  -1.018875e+02  -1.042017e+02
  -6.370758e+00  -1.264581e+02
   6.376925e+01  -6.261288e+01
   5.275545e+01   1.701465e+01
  -6.037141e+00   4.890786e+01
  -2.833509e+01   3.051699e+01
   1.913161e+01   6.294683e+00
   7.252172e+01   1.068710e+01
   4.455510e+01   3.296258e+01
  -6.372015e+01   3.578932e+01
  -1.502039e+02  -3.128795e-01
  -1.206831e+02  -5.469561e+01
   5.593218e+00  -8.454236e+01
   1.154326e+02  -6.287176e+01
   1.197785e+02  -3.968145e+00
   3.551362e+01   4.452081e+01
  -4.852203e+01   4.035776e+01
  -6.589971e+01  -1.271297e+01
  -2.232838e+01  -6.303295e+01
   3.238538e+01  -5.937823e+01
   5.909643e+01  -5.672953e+00
   5.503951e+01   4.103780e+01
   4.269665e+01   3.544941e+01
   4.312370e+01  -2.254611e-01
   5.306290e+01  -4.928834e-01
   4.244139e+01   6.119905e+01
  -1.605452e+01   1.302542e+02
  -1.044637e+02   1.254888e+02
  -1.556738e+02   3.176589e+01
  -1.134948e+02  -7.703277e+01
  -2.789330e+00  -1.129809e+02
   7.805939e+01  -6.288338e+01
   5.294086e+01   5.382848e+00
  -4.692232e+01   1.875795e+01
  -1.094299e+02  -2.987923e+01
  -5.805794e+01  -8.507140e+01
   6.747138e+01  -8.991432e+01
   1.530447e+02  -3.684734e+01
   1.263135e+02   3.301375e+01
   2.398895e+01   6.824819e+01
  -5.257250e+01   4.738701e+01
  -3.948264e+01  -3.682982e+00
   3.304519e+01  -2.845446e+01
   7.802596e+01   1.213050e+01
   3.947191e+01   9.284517e+01
  -5.502174e+01   1.317760e+02
  -1.233307e+02   6.689208e+01
  -1.069710e+02  -6.690222e+01
  -2.203517e+01  -1.549822e+02
   6.157172e+01  -1.159872e+02
   8.505368e+01   8.746308e+00
   4.557191e+01   9.805723e+01
  -1.312213e+01   8.257285e+01
  -4.436454e+01   1.069652e+01
  -3.504729e+01  -2.558133e+01
  -1.002299e+01  -4.807671e+00
  -5.165524e+00   1.310905e+01
  -2.960499e+01  -1.963302e+01
  -5.071216e+01  -7.301619e+01
  -2.484571e+01  -8.295697e+01
   4.858417e+01  -3.469561e+01
   1.111527e+02   2.557537e+01
   9.935993e+01   5.239621e+01
   1.681997e+01   4.470197e+01
  -6.201935e+01   2.545769e+01
  -6.972477e+01   6.325429e+00
  -1.735346e+01  -1.109515e+01
   2.568116e+01  -1.830651e+01
   1.775170e+01  -8.484532e+00
  -9.218048e+00   4.978837e+00
   1.372830e+00   2.834413e+00
   5.132309e+01  -5.493861e+00
   7.780614e+01   1.373186e+01
   2.647885e+01   6.658849e+01
  -7.920136e+01   1.029579e+02
  -1.536726e+02   6.483621e+01
  -1.329371e+02  -3.900227e+01
  -3.532639e+01  -1.286009e+02
   6.133176e+01  -1.326888e+02
   9.493313e+01  -6.131616e+01
   6.694391e+01   1.174344e+01
   2.372322e+01   3.151087e+01
   4.759722e+00   1.281092e+01
   1.316920e+01   8.575216e+00
   2.509496e+01   4.080864e+01
   1.547519e+01   7.458455e+01
  -2.157528e+01   6.008132e+01
  -6.382264e+01  -7.729943e+00
  -7.100517e+01  -7.748493e+01
  -2.042651e+01  -8.958004e+01
   5.709085e+01  -3.326691e+01
   9.085735e+01   4.445993e+01
   4.067425e+01   8.311788e+01
  -4.913897e+01   5.944454e+01
  -8.855669e+01  -5.056205e-01
  -4.254197e+01  -4.947926e+01
   2.685255e+01  -5.638200e+01
   3.591523e+01  -2.575213e+01
  -1.786555e+01   8.574339e+00
  -5.540867e+01   1.103887e+01
  -1.762897e+01  -2.277702e+01
   6.162560e+01  -5.659344e+01
   9.967873e+01  -4.561866e+01
   6.233917e+01   1.371272e+01
  -6.906043e+00   7.144557e+01
  -4.686701e+01   7.211365e+01
  -4.029955e+01   1.531496e+01
  -1.070171e+01  -4.119204e+01
   1.669745e+01  -4.306879e+01
   3.109857e+01   3.403353e+00
   2.655323e+01   4.301818e+01
   1.735692e+00   3.590680e+01
  -2.784829e+01  -1.196136e+00
  -3.643372e+01  -2.121167e+01
  -1.732588e+01  -4.878434e+00
   5.217500e+00   1.884212e+01
   5.429936e+00   1.174492e+01
  -9.201230e+00  -2.423582e+01
  -7.704332e+00  -4.726504e+01
   1.925251e+01  -2.554290e+01
   4.003851e+01   2.286451e+01
   1.968808e+01   4.844694e+01
  -3.024980e+01   2.529648e+01
  -5.588828e+01  -2.191888e+01
  -2.106227e+01  -4.769913e+01
   4.626631e+01  -3.292760e+01
   7.934609e+01   3.779042e+00
   4.452912e+01   3.314266e+01
  -2.166323e+01   4.086663e+01
  -5.303756e+01   2.895857e+01
  -2.570735e+01   7.754841e+00
   1.944433e+01  -6.666159e+00
   2.620814e+01  -4.054687e-01
  -1.449301e+01   1.943303e+01
  -5.778484e+01   2.154535e+01
