
 $NMID
 id='ANONYMOUS ', fmtdat='(2E16.6)'
 volume=1.0
 tramp=1.0
 $END
   2.863339e+03   8.045715e+00
   1.947070e+03   1.379693e+03
   1.329784e+02   1.809826e+03
  -1.018635e+03   1.227473e+03
  -8.851865e+02   3.306262e+02
  -1.391385e+02  -1.281246e+02
   2.667927e+02   4.124382e+01
   6.488618e+01   4.362895e+02
  -3.582602e+02   5.179887e+02
  -5.600756e+02   1.173492e+02
  -4.074173e+02  -4.188206e+02
  -5.066532e+01  -5.727104e+02
   2.318943e+02  -1.894890e+02
   2.150099e+02   3.409631e+02
  -7.808040e+01   4.786077e+02
  -3.477939e+02   9.328476e+01
  -2.897383e+02  -4.219319e+02
   7.775096e+01  -5.832120e+02
   4.169117e+02  -2.922398e+02
   4.246837e+02   1.316941e+02
   1.457783e+02   3.251825e+02
  -9.295518e+01   2.297502e+02
  -4.583256e+01   8.402538e+01
   1.799912e+02   1.158888e+02
   2.409946e+02   2.805658e+02
  -4.275650e+01   3.284265e+02
  -4.406843e+02   1.201538e+02
  -5.318548e+02  -1.873821e+02
  -1.794405e+02  -3.110055e+02
   2.908133e+02  -1.505200e+02
   4.347527e+02   1.348185e+02
   1.555640e+02   3.213270e+02
  -2.403128e+02   3.044778e+02
  -4.075425e+02   1.124134e+02
  -2.881420e+02  -1.368947e+02
  -8.203032e+01  -2.655675e+02
   4.549225e+00  -1.573230e+02
  -6.523660e+01   6.768509e+01
  -1.700643e+02   1.107312e+02
  -1.571657e+02  -1.488049e+02
   1.577983e+01  -4.347720e+02
   2.216715e+02  -3.758723e+02
   2.666888e+02   1.441786e-01
   9.464104e+01   2.603356e+02
  -1.211460e+02   1.062826e+02
  -1.347537e+02  -2.451430e+02
   1.102364e+02  -3.404348e+02
   3.981941e+02  -4.351957e+01
   4.380333e+02   3.389231e+02
   1.453445e+02   4.477998e+02
  -2.651240e+02   2.396074e+02
  -4.659563e+02  -5.489651e+01
  -3.128878e+02  -2.135539e+02
   2.705018e+01  -1.920498e+02
   2.456268e+02  -8.297025e+01
   1.980907e+02   1.355462e+00
   2.576729e+01   9.051118e+00
  -3.200441e+01  -2.947792e+01
   8.270946e+01  -3.632459e+01
   1.943691e+02   3.926221e+01
   1.144458e+02   1.628065e+02
  -1.311892e+02   2.280912e+02
  -3.197469e+02   1.400351e+02
  -2.599964e+02  -8.987672e+01
   1.601272e+01  -3.155179e+02
   2.857832e+02  -3.514566e+02
   3.499955e+02  -1.430438e+02
   2.110026e+02   1.570065e+02
   4.017151e+01   3.238842e+02
  -2.156487e+01   2.845585e+02
  -3.293682e+00   1.677599e+02
  -3.015325e+01   1.174654e+02
  -1.432462e+02   1.149559e+02
  -2.443483e+02   4.044169e+01
  -2.201286e+02  -1.246755e+02
  -7.219609e+01  -2.398138e+02
   9.476159e+01  -1.692034e+02
   1.727802e+02   4.838325e+01
   1.147046e+02   2.296248e+02
  -5.259136e+01   2.255064e+02
  -2.274527e+02   4.782622e+01
  -2.772086e+02  -1.632153e+02
  -1.524557e+02  -2.694627e+02
   4.094993e+01  -2.391328e+02
   1.445277e+02  -1.476452e+02
   1.348615e+02  -8.687698e+01
   1.458400e+02  -7.098497e+01
   2.679800e+02  -3.129878e+01
   3.863410e+02   9.568546e+01
   2.966571e+02   2.809703e+02
  -2.783781e+01   4.079344e+02
  -3.608123e+02   3.669030e+02
  -4.460828e+02   1.563299e+02
  -2.586208e+02  -9.684065e+01
  -1.012021e+01  -2.274653e+02
   8.272929e+01  -1.728606e+02
  -1.528138e+00  -3.406821e+01
  -1.127086e+02   2.563818e+01
  -1.103157e+02  -4.282963e+01
   1.703716e+00  -1.234797e+02
   1.030061e+02  -8.391524e+01
   8.907124e+01   4.958997e+01
  -3.048777e+01   1.111865e+02
  -1.450681e+02  -7.100869e+00
  -1.381631e+02  -2.170194e+02
   1.705870e+01  -3.171005e+02
   2.275815e+02  -1.973153e+02
   3.401758e+02   5.651585e+01
   2.617794e+02   2.507943e+02
   5.000631e+01   2.605916e+02
  -1.247514e+02   1.274597e+02
  -1.364115e+02   1.163432e+00
  -2.742050e+01  -1.045265e+01
   4.466527e+01   6.269288e+01
  -1.096735e+01   1.051887e+02
  -1.174437e+02   5.504165e+01
  -1.311424e+02  -2.972727e+01
  -2.291970e+01  -4.906351e+01
   7.857645e+01   1.805988e+01
   3.305721e+01   9.250550e+01
  -1.451893e+02   8.332504e+01
  -2.880022e+02  -2.532613e+01
  -2.402971e+02  -1.675671e+02
  -1.830221e+01  -2.495137e+02
   2.013822e+02  -2.132473e+02
   2.494877e+02  -8.225213e+01
   1.212806e+02   4.343281e+01
  -3.071311e+01   6.639093e+01
  -5.480875e+01  -8.717127e+00
   5.545978e+01  -7.095883e+01
   1.716100e+02  -2.397389e+01
   1.694258e+02   9.925073e+01
   4.764489e+01   1.716471e+02
  -8.295410e+01   1.208716e+02
  -1.129614e+02   1.161873e+01
  -3.708970e+01  -3.387191e+01
   4.407461e+01   2.521556e+01
   2.394110e+01   1.100328e+02
  -9.758779e+01   1.129770e+02
  -2.020114e+02   7.489906e+00
  -1.683185e+02  -1.303510e+02
  -5.895147e+00  -1.935624e+02
   1.452773e+02  -1.362904e+02
   1.581473e+02  -9.861492e+00
   4.793641e+01   8.416590e+01
  -5.728324e+01   8.425752e+01
  -6.233552e+01   2.075101e+01
   3.428043e+00  -2.356330e+01
   3.920868e+01  -6.274056e+00
  -7.560928e+00   2.850475e+01
  -8.744275e+01   4.845334e+00
  -1.034605e+02  -8.844020e+01
  -9.434381e+00  -1.701365e+02
   1.390685e+02  -1.446553e+02
   2.261324e+02  -4.558858e+00
   1.775729e+02   1.525866e+02
   3.204934e+01   2.122234e+02
  -9.398231e+01   1.460190e+02
  -1.190838e+02   2.921125e+01
  -6.933947e+01  -3.842793e+01
  -3.276470e+01  -2.529954e+01
  -5.278723e+01   1.408575e+01
  -8.452006e+01   6.884628e+00
  -5.703044e+01  -5.561119e+01
   3.657571e+01  -1.047512e+02
   1.206828e+02  -6.777020e+01
   1.067755e+02   4.386761e+01
  -1.716983e+01   1.277612e+02
  -1.603605e+02   8.631641e+01
  -1.964833e+02  -6.653279e+01
  -7.498812e+01  -2.046683e+02
   1.238576e+02  -2.064820e+02
   2.523138e+02  -7.097796e+01
   2.250370e+02   8.776843e+01
   8.824079e+01   1.570834e+02
  -3.888774e+01   1.263179e+02
  -8.158134e+01   7.302816e+01
  -6.275023e+01   6.502485e+01
  -5.247124e+01   8.928743e+01
  -8.425687e+01   7.607413e+01
  -1.244199e+02  -1.608877e+01
  -1.119994e+02  -1.444399e+02
  -2.342434e+01  -2.115479e+02
   9.520708e+01  -1.541987e+02
   1.582602e+02  -7.336962e+00
   1.153213e+02   1.213941e+02
   5.221726e+00   1.456852e+02
  -7.352986e+01   7.241340e+01
  -5.984763e+01  -1.753936e+01
   5.823805e+00  -5.351431e+01
   2.948241e+01  -3.447657e+01
  -2.317847e+01  -9.770377e+00
  -8.067129e+01  -1.536402e+01
  -4.850741e+01  -3.820783e+01
   7.134150e+01  -3.850197e+01
   1.676102e+02   3.195807e+00
   1.360363e+02   6.333846e+01
  -4.931951e+00   9.487491e+01
  -1.302998e+02   6.876873e+01
  -1.368811e+02   2.458928e+00
  -4.049603e+01  -4.996804e+01
   5.619503e+01  -4.286468e+01
   7.399594e+01   1.671761e+01
   2.108370e+01   7.054170e+01
  -4.049946e+01   6.404718e+01
  -6.592047e+01   3.775907e+00
  -5.817754e+01  -4.752559e+01
  -4.644602e+01  -4.111737e+01
  -5.038238e+01  -1.666871e+00
  -6.068515e+01  -1.179792e+00
  -4.445091e+01  -6.934000e+01
   2.347657e+01  -1.456055e+02
   1.205700e+02  -1.387469e+02
   1.743620e+02  -3.192204e+01
   1.250640e+02   9.005225e+01
   8.840480e-01   1.272706e+02
  -8.885219e+01   6.756760e+01
  -5.921379e+01  -8.714217e+00
   5.420478e+01  -1.957539e+01
   1.242675e+02   3.834130e+01
   6.442878e+01   9.934892e+01
  -7.931725e+01   1.010810e+02
  -1.764344e+02   3.858910e+01
  -1.446119e+02  -4.055256e+01
  -2.650468e+01  -7.930157e+01
   6.125674e+01  -5.451778e+01
   4.548093e+01   3.582686e+00
  -3.795959e+01   3.041125e+01
  -8.765396e+01  -1.700043e+01
  -3.994388e+01  -1.072180e+02
   6.979970e+01  -1.468530e+02
   1.443151e+02  -6.932521e+01
   1.188322e+02   8.195504e+01
   1.799681e+01   1.779807e+02
  -7.511105e+01   1.305324e+02
  -9.700350e+01  -1.180769e+01
  -5.001643e+01  -1.130231e+02
   1.538175e+01  -9.516030e+01
   4.991719e+01  -1.231375e+01
   4.062033e+01   3.049391e+01
   1.323341e+01   6.674323e+00
   6.075615e+00  -1.557097e+01
   3.121564e+01   2.132984e+01
   5.486259e+01   8.437300e+01
   2.743548e+01   9.693877e+01
  -5.463052e+01   3.907256e+01
  -1.261046e+02  -3.363217e+01
  -1.128454e+02  -6.392299e+01
  -1.765157e+01  -5.061605e+01
   7.293467e+01  -2.549813e+01
   8.016620e+01  -5.110487e+00
   1.815982e+01   1.184210e+01
  -3.087615e+01   1.988045e+01
  -1.964664e+01   1.061450e+01
   1.199160e+01  -4.362246e+00
  -1.880538e+00  -4.257742e+00
  -6.001047e+01   2.794028e+00
  -8.753596e+01  -1.879936e+01
  -2.477379e+01  -7.563560e+01
   9.605281e+01  -1.126012e+02
   1.759644e+02  -6.652459e+01
   1.466330e+02   5.043513e+01
   3.383611e+01   1.477112e+02
  -7.386421e+01   1.475535e+02
  -1.091098e+02   6.482082e+01
  -7.554609e+01  -1.632759e+01
  -2.565221e+01  -3.598922e+01
  -4.006109e+00  -1.338356e+01
  -1.412903e+01  -8.978921e+00
  -2.796338e+01  -4.670655e+01
  -1.612640e+01  -8.544396e+01
   2.666810e+01  -6.750981e+01
   7.267451e+01   1.210186e+01
   7.679024e+01   9.203658e+01
   1.755029e+01   1.023551e+02
  -6.728928e+01   3.332293e+01
  -1.003402e+02  -5.612840e+01
  -4.129416e+01  -9.555593e+01
   5.804703e+01  -6.359177e+01
   9.898186e+01   4.404037e+00
   4.553381e+01   5.568265e+01
  -3.158652e+01   6.095671e+01
  -3.968236e+01   2.830062e+01
   2.205954e+01  -7.327104e+00
   6.346745e+01  -9.931253e+00
   1.855881e+01   2.581659e+01
  -7.232945e+01   6.213778e+01
  -1.141035e+02   4.980920e+01
  -6.900491e+01  -1.624277e+01
   1.085069e+01  -8.033504e+01
   5.452773e+01  -7.971779e+01
   4.407511e+01  -1.480991e+01
   9.093057e+00   4.765874e+01
  -2.070043e+01   4.696562e+01
  -3.459399e+01  -6.813486e+00
  -2.810499e+01  -4.978976e+01
  -6.208972e-01  -3.915522e+01
   3.131273e+01   3.178762e+00
   4.037756e+01   2.431819e+01
   1.970055e+01   5.312134e+00
  -4.891676e+00  -2.009989e+01
  -6.512179e+00  -1.097754e+01
   6.898006e+00   2.826879e+01
   4.058219e+00   5.121444e+01
  -2.310982e+01   2.475753e+01
  -4.159074e+01  -2.905586e+01
  -1.711691e+01  -5.508913e+01
   3.596052e+01  -2.615009e+01
   6.086404e+01   2.800610e+01
   2.079267e+01   5.527256e+01
  -5.320163e+01   3.533355e+01
  -8.872163e+01  -7.894604e+00
  -4.887631e+01  -3.938603e+01
   2.587522e+01  -4.450489e+01
   6.076600e+01  -2.940127e+01
   2.828628e+01  -7.673062e+00
  -2.397284e+01   5.011494e+00
  -3.013379e+01  -2.901697e+00
   1.927747e+01  -2.236770e+01
   6.928860e+01  -2.116298e+01
