
 $NMID
 id='ANONYMOUS ', fmtdat='(2E16.6)'
 volume=1.0
 tramp=1.0
 $END
  -2.333775e+03  -6.991762e+01
  -1.636648e+03  -1.118280e+03
  -1.919532e+02  -1.520543e+03
   8.273462e+02  -1.131964e+03
   8.332721e+02  -3.836750e+02
   2.411751e+02   9.733585e+01
  -1.707990e+02   3.156860e+01
  -7.649089e+01  -3.093407e+02
   2.658598e+02  -4.289204e+02
   4.601994e+02  -1.240200e+02
   3.561006e+02   3.279089e+02
   7.206674e+01   4.799796e+02
  -1.637304e+02   1.853700e+02
  -1.701230e+02  -2.533633e+02
   5.259369e+01  -3.924990e+02
   2.818182e+02  -9.199601e+01
   2.512490e+02   3.520219e+02
  -5.999136e+01   5.158322e+02
  -3.683259e+02   2.731934e+02
  -3.838766e+02  -1.080649e+02
  -1.361398e+02  -2.848209e+02
   7.133858e+01  -2.010610e+02
   2.559606e+01  -8.841111e+01
  -1.530808e+02  -1.394595e+02
  -1.710902e+02  -2.724886e+02
   7.895761e+01  -2.636527e+02
   3.784883e+02  -4.949589e+01
   4.148169e+02   1.890544e+02
   1.228438e+02   2.400815e+02
  -2.349083e+02   8.129962e+01
  -3.328158e+02  -1.369981e+02
  -1.054797e+02  -2.608487e+02
   2.103975e+02  -2.321788e+02
   3.399158e+02  -7.670914e+01
   2.356427e+02   1.159194e+02
   7.156717e+01   2.112768e+02
   2.006206e+01   1.309171e+02
   8.457564e+01  -2.661516e+01
   1.407769e+02  -4.749205e+01
   8.857412e+01   1.420960e+02
  -5.590776e+01   3.389781e+02
  -1.847923e+02   2.836765e+02
  -1.910326e+02   2.793232e+00
  -6.373115e+01  -1.880841e+02
   7.972757e+01  -6.827285e+01
   7.885153e+01   2.007163e+02
  -1.086472e+02   2.666258e+02
  -3.287133e+02   1.561181e+01
  -3.541296e+02  -3.027256e+02
  -1.118595e+02  -3.827833e+02
   2.245586e+02  -1.910137e+02
   3.883288e+02   5.933463e+01
   2.662744e+02   1.773330e+02
  -8.049790e+00   1.513804e+02
  -1.958056e+02   7.474759e+01
  -1.777932e+02   1.747916e+01
  -4.568917e+01  -2.745617e+00
   1.782548e+01   6.065129e+00
  -5.703921e+01   1.222379e+01
  -1.512104e+02  -3.185261e+01
  -9.634150e+01  -1.295447e+02
   1.149187e+02  -1.947158e+02
   2.900447e+02  -1.187678e+02
   2.338281e+02   9.440074e+01
  -3.113191e+01   2.905644e+02
  -2.780265e+02   2.981559e+02
  -3.138951e+02   1.000647e+02
  -1.677095e+02  -1.473399e+02
  -2.068413e+01  -2.712614e+02
   1.503550e+01  -2.412155e+02
  -2.696242e+00  -1.604214e+02
   3.831166e+01  -1.191221e+02
   1.462164e+02  -9.427826e+01
   2.202029e+02  -1.059102e+01
   1.777343e+02   1.270493e+02
   4.263659e+01   2.070887e+02
  -9.052635e+01   1.323988e+02
  -1.404209e+02  -5.597018e+01
  -8.032528e+01  -2.027685e+02
   5.919305e+01  -1.856395e+02
   1.947846e+02  -2.449982e+01
   2.264657e+02   1.524333e+02
   1.214767e+02   2.324900e+02
  -3.625024e+01   2.028866e+02
  -1.245215e+02   1.309790e+02
  -1.245102e+02   8.214313e+01
  -1.398214e+02   5.882701e+01
  -2.412701e+02   9.543328e+00
  -3.334311e+02  -1.065766e+02
  -2.448228e+02  -2.596731e+02
   4.501303e+01  -3.534636e+02
   3.336101e+02  -3.016508e+02
   3.937165e+02  -1.138249e+02
   2.136167e+02   9.432814e+01
  -4.314515e+00   1.905397e+02
  -7.102551e+01   1.403877e+02
   1.071267e+01   3.447444e+01
   9.738043e+01  -6.472262e+00
   8.232332e+01   4.385580e+01
  -1.077719e+01   9.690018e+01
  -8.296303e+01   6.029408e+01
  -6.483980e+01  -4.227247e+01
   3.001639e+01  -8.525707e+01
   1.193784e+02   1.594963e+01
   1.101999e+02   1.927171e+02
  -2.606218e+01   2.757764e+02
  -2.098808e+02   1.648446e+02
  -3.002999e+02  -6.517691e+01
  -2.173744e+02  -2.345358e+02
  -2.653222e+01  -2.302157e+02
   1.160716e+02  -1.020730e+02
   1.141646e+02   5.941534e+00
   2.052305e+01   6.123385e+00
  -3.216427e+01  -5.950345e+01
   1.898647e+01  -8.792336e+01
   1.033410e+02  -3.758233e+01
   1.073532e+02   3.234390e+01
   1.434088e+01   3.960156e+01
  -6.684487e+01  -2.411521e+01
  -2.114977e+01  -8.487118e+01
   1.349477e+02  -6.562224e+01
   2.532400e+02   3.914202e+01
   2.005240e+02   1.618225e+02
  -5.703631e-01   2.188430e+02
  -1.878977e+02   1.721463e+02
  -2.176543e+02   5.693277e+01
  -9.896108e+01  -4.057235e+01
   2.902394e+01  -5.111787e+01
   4.234284e+01   1.085310e+01
  -5.393575e+01   5.500095e+01
  -1.478776e+02   9.660214e+00
  -1.393932e+02  -9.299978e+01
  -3.299669e+01  -1.479487e+02
   7.556263e+01  -9.851480e+01
   9.533430e+01  -4.182293e+00
   2.704221e+01   2.902895e+01
  -3.871961e+01  -2.889386e+01
  -1.306098e+01  -1.014511e+02
   9.505547e+01  -9.427196e+01
   1.786062e+02   5.755444e+00
   1.393871e+02   1.229164e+02
  -4.647375e+00   1.673778e+02
  -1.307539e+02   1.109234e+02
  -1.354849e+02   3.622523e+00
  -3.754914e+01  -7.161323e+01
   5.191528e+01  -6.854367e+01
   5.270554e+01  -1.511412e+01
  -6.986483e+00   1.931228e+01
  -3.678197e+01   1.250532e+00
   8.661089e+00  -2.773851e+01
   8.046734e+01  -1.300398e+00
   8.922408e+01   8.463543e+01
  -8.279991e-01   1.523454e+02
  -1.311409e+02   1.199289e+02
  -1.982934e+02  -8.959970e+00
  -1.466238e+02  -1.424244e+02
  -1.837480e+01  -1.853097e+02
   8.667596e+01  -1.222439e+02
   1.044317e+02  -2.140908e+01
   6.017466e+01   3.476120e+01
   2.887218e+01   2.263379e+01
   4.735345e+01  -1.032015e+01
   7.575930e+01  -2.041645e+00
   4.966729e+01   5.333694e+01
  -3.721544e+01   9.354661e+01
  -1.129706e+02   5.523389e+01
  -9.493826e+01  -4.588980e+01
   2.242969e+01  -1.144460e+02
   1.484648e+02  -6.813305e+01
   1.699664e+02   7.008103e+01
   5.324946e+01   1.838387e+02
  -1.205158e+02   1.731258e+02
  -2.233401e+02   4.836367e+01
  -1.904926e+02  -8.678123e+01
  -6.879480e+01  -1.393373e+02
   3.926132e+01  -1.070776e+02
   7.323774e+01  -5.992840e+01
   5.604155e+01  -5.480026e+01
   4.852382e+01  -7.702398e+01
   7.705317e+01  -6.406645e+01
   1.091148e+02   1.899573e+01
   9.212898e+01   1.314156e+02
   1.080134e+01   1.860064e+02
  -9.004171e+01   1.297538e+02
  -1.374026e+02  -1.801885e+00
  -9.359042e+01  -1.116864e+02
   3.338309e+00  -1.265880e+02
   6.829590e+01  -5.769598e+01
   5.124999e+01   2.070509e+01
  -9.558539e+00   4.803588e+01
  -3.021660e+01   2.825265e+01
   1.871753e+01   7.974647e+00
   7.121893e+01   1.639642e+01
   4.167395e+01   3.622629e+01
  -6.600742e+01   3.064493e+01
  -1.492065e+02  -1.183863e+01
  -1.159508e+02  -6.361292e+01
   1.174711e+01  -8.364084e+01
   1.195428e+02  -5.368632e+01
   1.196320e+02   5.229806e+00
   3.204426e+01   4.692371e+01
  -5.143313e+01   3.623880e+01
  -6.456464e+01  -1.782284e+01
  -1.707458e+01  -6.430640e+01
   3.706097e+01  -5.633191e+01
   5.913018e+01  -9.531169e-01
   5.127668e+01   4.505863e+01
   3.964227e+01   3.857208e+01
   4.309053e+01   3.206834e+00
   5.290522e+01   3.662387e+00
   3.728805e+01   6.407882e+01
  -2.626808e+01   1.282249e+02
  -1.135870e+02   1.167240e+02
  -1.571051e+02   1.955290e+01
  -1.068275e+02  -8.544358e+01
   5.912601e+00  -1.125801e+02
   8.243285e+01  -5.636697e+01
   5.220346e+01   9.587653e+00
  -4.820977e+01   1.498195e+01
  -1.066982e+02  -3.839494e+01
  -5.127078e+01  -8.932217e+01
   7.418102e+01  -8.435420e+01
   1.553928e+02  -2.488435e+01
   1.233985e+02   4.264442e+01
   1.869266e+01   6.992770e+01
  -5.605204e+01   4.331116e+01
  -3.910224e+01  -6.562728e+00
   3.506861e+01  -2.565827e+01
   7.666651e+01   1.824772e+01
   3.183900e+01   9.556023e+01
  -6.539044e+01   1.267665e+02
  -1.282144e+02   5.666718e+01
  -1.012006e+02  -7.522458e+01
  -9.605205e+00  -1.561328e+02
   7.051574e+01  -1.107297e+02
   8.406251e+01   1.526981e+01
   3.784697e+01   1.012049e+02
  -1.930006e+01   8.137018e+01
  -4.492342e+01   7.347308e+00
  -3.305838e+01  -2.824441e+01
  -9.806044e+00  -5.668439e+00
  -6.148118e+00   1.273476e+01
  -2.776067e+01  -2.165539e+01
  -4.473767e+01  -7.663315e+01
  -1.843710e+01  -8.473231e+01
   5.091132e+01  -3.087448e+01
   1.087227e+02   3.425692e+01
   9.498817e+01   6.006054e+01
   1.325085e+01   4.574490e+01
  -6.390004e+01   2.034293e+01
  -6.998725e+01   8.610372e-01
  -1.628973e+01  -1.226217e+01
   2.711254e+01  -1.620427e+01
   1.825941e+01  -7.221226e+00
  -9.703165e+00   4.128554e+00
   1.184309e+00   3.033022e+00
   5.167590e+01  -1.266579e+00
   7.634143e+01   1.982402e+01
   2.083157e+01   6.826257e+01
  -8.717722e+01   9.611130e+01
  -1.579781e+02   5.231035e+01
  -1.289669e+02  -4.940198e+01
  -2.489097e+01  -1.308326e+02
   7.142003e+01  -1.271786e+02
   9.922505e+01  -5.344002e+01
   6.571204e+01   1.701030e+01
   2.112674e+01   3.316539e+01
   3.639413e+00   1.298618e+01
   1.238684e+01   9.442329e+00
   2.187364e+01   4.254398e+01
   9.672208e+00   7.548789e+01
  -2.619941e+01   5.812125e+01
  -6.297321e+01  -1.281727e+01
  -6.448317e+01  -8.286473e+01
  -1.304646e+01  -9.076198e+01
   5.956922e+01  -2.837936e+01
   8.681888e+01   5.163864e+01
   3.376475e+01   8.590204e+01
  -5.359178e+01   5.509400e+01
  -8.795415e+01  -7.522422e+00
  -3.836662e+01  -5.238529e+01
   3.105783e+01  -5.380404e+01
   3.756848e+01  -2.285697e+01
  -1.860370e+01   6.944746e+00
  -5.603947e+01   6.572094e+00
  -1.569605e+01  -2.398682e+01
   6.582679e+01  -5.150437e+01
   1.027434e+02  -3.774783e+01
   6.085252e+01   1.838235e+01
  -1.253172e+01   7.052268e+01
  -5.218711e+01   6.806019e+01
  -4.108628e+01   1.197033e+01
  -7.252546e+00  -4.189307e+01
   2.002113e+01  -4.142357e+01
   3.062302e+01   6.018202e+00
   2.300194e+01   4.490712e+01
  -1.093695e+00   3.570748e+01
  -2.759830e+01  -3.462336e+00
  -3.458243e+01  -2.386639e+01
  -1.688806e+01  -6.130602e+00
   3.681876e+00   1.901272e+01
   4.570539e+00   1.185756e+01
  -6.977747e+00  -2.488338e+01
  -3.656662e+00  -4.736489e+01
   2.119449e+01  -2.354707e+01
   3.774088e+01   2.606729e+01
   1.543410e+01   4.969812e+01
  -3.216808e+01   2.264982e+01
  -5.372330e+01  -2.631906e+01
  -1.707300e+01  -4.917011e+01
   4.858959e+01  -2.910508e+01
   7.856024e+01   1.006927e+01
   4.167243e+01   3.650544e+01
  -2.475249e+01   3.886504e+01
  -5.501633e+01   2.449997e+01
  -2.607770e+01   5.682534e+00
   2.004463e+01  -4.911008e+00
   2.615058e+01   1.906338e+00
  -1.617603e+01   1.828428e+01
  -5.951154e+01   1.677195e+01
