
 $NMID
 id='ANONYMOUS ', fmtdat='(2E16.6)'
 volume=1.0
 tramp=1.0
 $END
   1.717870e+03  -6.554008e+01
   1.247999e+03   7.365513e+02
   2.112698e+02   1.093734e+03
  -5.404322e+02   8.586555e+02
  -5.736656e+02   3.221146e+02
  -1.711883e+02  -4.923130e+01
   1.214174e+02  -2.246036e+01
   6.513061e+01   2.242669e+02
  -1.754646e+02   3.241178e+02
  -3.283396e+02   1.111258e+02
  -2.735766e+02  -2.219681e+02
  -7.466738e+01  -3.444084e+02
   1.102187e+02  -1.391367e+02
   1.350148e+02   1.796385e+02
  -2.028594e+01   2.888282e+02
  -2.007120e+02   7.957115e+01
  -2.004708e+02  -2.438266e+02
   1.593579e+01  -3.773340e+02
   2.514845e+02  -2.176008e+02
   2.835662e+02   5.740686e+01
   1.137864e+02   1.990830e+02
  -4.173076e+01   1.492587e+02
  -1.365840e+01   6.348132e+01
   1.221984e+02   9.088780e+01
   1.440260e+02   1.902607e+02
  -4.223582e+01   2.009637e+02
  -2.775320e+02   5.967588e+01
  -3.173666e+02  -1.174428e+02
  -1.020707e+02  -1.729288e+02
   1.718436e+02  -7.370519e+01
   2.542360e+02   8.418802e+01
   9.125940e+01   1.878724e+02
  -1.432282e+02   1.825666e+02
  -2.459514e+02   7.426790e+01
  -1.784446e+02  -7.318655e+01
  -6.175720e+01  -1.512647e+02
  -1.944267e+01  -9.266365e+01
  -6.078347e+01   2.837475e+01
  -1.043330e+02   4.489971e+01
  -7.641280e+01  -1.016633e+02
   2.279604e+01  -2.557708e+02
   1.233543e+02  -2.186509e+02
   1.414674e+02  -8.733392e+00
   5.462150e+01   1.376216e+02
  -5.810020e+01   5.355127e+01
  -6.975933e+01  -1.458013e+02
   6.630175e+01  -2.028937e+02
   2.413725e+02  -2.904649e+01
   2.763618e+02   2.029719e+02
   1.023153e+02   2.741944e+02
  -1.550172e+02   1.517092e+02
  -2.878486e+02  -2.298980e+01
  -2.029560e+02  -1.158689e+02
   1.108050e-01  -1.104223e+02
   1.395164e+02  -6.323151e+01
   1.265484e+02  -2.136151e+01
   3.135836e+01  -1.963740e+00
  -1.241250e+01  -5.630894e+00
   4.345062e+01  -1.208809e+01
   1.127857e+02   1.669882e+01
   7.627262e+01   9.021307e+01
  -7.345726e+01   1.481439e+02
  -2.041177e+02   1.030890e+02
  -1.759601e+02  -5.444870e+01
   4.631493e+00  -2.133549e+02
   1.849330e+02  -2.347041e+02
   2.243623e+02  -9.203956e+01
   1.318740e+02   9.877684e+01
   2.969164e+01   1.981532e+02
   1.179623e+00   1.764593e+02
   1.131508e+01   1.151270e+02
  -1.930481e+01   8.851980e+01
  -1.003120e+02   7.855353e+01
  -1.611120e+02   2.180027e+01
  -1.385708e+02  -8.276362e+01
  -4.336964e+01  -1.501389e+02
   5.942509e+01  -1.028569e+02
   1.069727e+02   3.305338e+01
   7.087928e+01   1.446080e+02
  -3.306500e+01   1.400571e+02
  -1.420160e+02   2.917704e+01
  -1.747933e+02  -9.927097e+01
  -1.014342e+02  -1.637085e+02
   1.590638e+01  -1.499718e+02
   8.348591e+01  -1.016842e+02
   8.517801e+01  -6.654607e+01
   9.792940e+01  -5.152381e+01
   1.759047e+02  -2.172418e+01
   2.503766e+02   5.832148e+01
   1.941681e+02   1.758708e+02
  -1.253169e+01   2.613714e+02
  -2.266665e+02   2.401280e+02
  -2.817921e+02   1.058601e+02
  -1.620786e+02  -5.743601e+01
  -7.363343e+00  -1.404416e+02
   4.504975e+01  -1.065647e+02
  -9.374191e+00  -2.341881e+01
  -7.183431e+01   1.096085e+01
  -6.372589e+01  -2.815300e+01
   2.865288e+00  -7.256498e+01
   5.863167e+01  -4.865332e+01
   5.024834e+01   2.837416e+01
  -1.796668e+01   6.471937e+01
  -8.897836e+01  -5.096327e+00
  -9.149475e+01  -1.348708e+02
   3.452599e+00  -2.029664e+02
   1.436276e+02  -1.325945e+02
   2.229772e+02   2.991105e+01
   1.727410e+02   1.587361e+02
   3.307221e+01   1.672177e+02
  -7.918800e+01   8.169538e+01
  -8.426128e+01   1.897945e+00
  -1.525269e+01  -3.834174e+00
   2.744939e+01   4.177189e+01
  -8.748520e+00   6.600139e+01
  -7.393482e+01   3.367957e+01
  -8.083303e+01  -1.788957e+01
  -1.269213e+01  -2.871476e+01
   5.070991e+01   1.351203e+01
   2.080849e+01   6.093215e+01
  -9.463753e+01   5.613456e+01
  -1.875488e+02  -1.354045e+01
  -1.564417e+02  -1.066017e+02
  -1.257062e+01  -1.604731e+02
   1.277145e+02  -1.372543e+02
   1.564657e+02  -5.412385e+01
   7.485543e+01   2.456730e+01
  -1.876200e+01   3.939368e+01
  -3.202497e+01  -5.837269e+00
   3.645292e+01  -4.382953e+01
   1.080850e+02  -1.559635e+01
   1.074896e+02   6.040224e+01
   3.239262e+01   1.066658e+02
  -5.001600e+01   7.645590e+01
  -6.982666e+01   8.313153e+00
  -2.155614e+01  -2.012897e+01
   3.025239e+01   1.844034e+01
   1.592729e+01   7.334851e+01
  -6.374400e+01   7.477303e+01
  -1.310567e+02   6.441633e+00
  -1.092480e+02  -8.189449e+01
  -6.161454e+00  -1.228960e+02
   8.952496e+01  -8.858246e+01
   9.893460e+01  -1.005182e+01
   3.130810e+01   5.054803e+01
  -3.435090e+01   5.314743e+01
  -3.788534e+01   1.389556e+01
   3.868602e+00  -1.483101e+01
   2.685014e+01  -3.383792e+00
  -4.437616e+00   2.060954e+01
  -5.840995e+01   5.803616e+00
  -7.011982e+01  -5.634260e+01
  -8.516929e+00  -1.113221e+02
   8.878310e+01  -9.550231e+01
   1.456959e+02  -5.102940e+00
   1.156260e+02   9.575656e+01
   2.398946e+01   1.345736e+02
  -5.657924e+01   9.430936e+01
  -7.510819e+01   2.150438e+01
  -4.575993e+01  -2.199689e+01
  -2.224244e+01  -1.485294e+01
  -3.396058e+01   1.028970e+01
  -5.517862e+01   5.988619e+00
  -3.938566e+01  -3.580601e+01
   2.150951e+01  -7.032280e+01
   7.899379e+01  -4.712950e+01
   7.201262e+01   2.761446e+01
  -9.417171e+00   8.484734e+01
  -1.043240e+02   5.871591e+01
  -1.284684e+02  -4.113901e+01
  -4.987065e+01  -1.314847e+02
   7.807536e+01  -1.338935e+02
   1.607363e+02  -4.836662e+01
   1.444535e+02   5.266502e+01
   5.827394e+01   9.816565e+01
  -2.269454e+01   8.064446e+01
  -5.022024e+01   4.795272e+01
  -3.789056e+01   4.310911e+01
  -3.104369e+01   5.891517e+01
  -5.255177e+01   5.118400e+01
  -8.075239e+01  -7.572439e+00
  -7.489194e+01  -9.072554e+01
  -1.862448e+01  -1.354015e+02
   5.843510e+01  -1.001118e+02
   1.007536e+02  -6.578730e+00
   7.502620e+01   7.638487e+01
   4.871817e+00   9.293351e+01
  -4.673709e+01   4.634874e+01
  -3.889332e+01  -1.201357e+01
   3.956080e+00  -3.572227e+01
   2.029913e+01  -2.266167e+01
  -1.410387e+01  -4.955555e+00
  -5.286921e+01  -7.830034e+00
  -3.253647e+01  -2.396676e+01
   4.634665e+01  -2.634180e+01
   1.096938e+02  -2.632425e-01
   8.862147e+01   3.969114e+01
  -3.469978e+00   6.201168e+01
  -8.417829e+01   4.637810e+01
  -8.788297e+01   3.144868e+00
  -2.632403e+01  -3.244717e+01
   3.539528e+01  -2.939537e+01
   4.818260e+01   9.274521e+00
   1.618553e+01   4.577643e+01
  -2.377959e+01   4.307389e+01
  -4.303786e+01   4.159338e+00
  -3.997143e+01  -2.973375e+01
  -3.118515e+01  -2.581432e+01
  -3.171840e+01   3.188728e-02
  -3.889583e+01   3.547740e-01
  -3.095520e+01  -4.448302e+01
   1.172916e+01  -9.506692e+01
   7.612729e+01  -9.197984e+01
   1.135549e+02  -2.363148e+01
   8.300668e+01   5.612730e+01
   2.328920e+00   8.264176e+01
  -5.680559e+01   4.600139e+01
  -3.861086e+01  -3.991278e+00
   3.436996e+01  -1.370505e+01
   8.019282e+01   2.199837e+01
   4.264519e+01   6.243759e+01
  -4.939691e+01   6.600947e+01
  -1.123065e+02   2.716842e+01
  -9.282859e+01  -2.411664e+01
  -1.771761e+01  -5.016914e+01
   3.861040e+01  -3.501892e+01
   2.911279e+01   2.483295e+00
  -2.406779e+01   2.076419e+01
  -5.701007e+01  -8.906782e+00
  -2.866037e+01  -6.790654e+01
   4.056065e+01  -9.617846e+01
   9.037236e+01  -4.855275e+01
   7.812459e+01   4.922986e+01
   1.585824e+01   1.134910e+02
  -4.526010e+01   8.495221e+01
  -6.240797e+01  -6.297102e+00
  -3.357322e+01  -7.187350e+01
   9.397221e+00  -6.081437e+01
   3.246207e+01  -8.101699e+00
   2.586056e+01   1.884924e+01
   7.545688e+00   3.747709e+00
   3.798416e+00  -9.720737e+00
   2.156456e+01   1.400915e+01
   3.711631e+01   5.338593e+01
   1.835346e+01   6.107847e+01
  -3.541041e+01   2.567566e+01
  -8.141180e+01  -1.884774e+01
  -7.290595e+01  -3.857265e+01
  -1.237072e+01  -3.262786e+01
   4.552537e+01  -1.838110e+01
   5.115064e+01  -4.635847e+00
   1.263201e+01   7.875763e+00
  -1.893237e+01   1.333574e+01
  -1.298124e+01   6.464367e+00
   6.863497e+00  -3.440570e+00
  -1.001133e+00  -2.226745e+00
  -3.766394e+01   3.721302e+00
  -5.687416e+01  -1.008827e+01
  -1.905425e+01  -4.844326e+01
   5.819387e+01  -7.501198e+01
   1.122618e+02  -4.728661e+01
   9.682790e+01   2.855683e+01
   2.560707e+01   9.407168e+01
  -4.476830e+01   9.701541e+01
  -6.928164e+01   4.473939e+01
  -4.894989e+01  -8.671138e+00
  -1.737720e+01  -2.296983e+01
  -3.439678e+00  -9.148718e+00
  -9.642510e+00  -6.087387e+00
  -1.851422e+01  -2.985213e+01
  -1.146810e+01  -5.468120e+01
   1.579793e+01  -4.397499e+01
   4.670804e+01   5.821905e+00
   5.173500e+01   5.684135e+01
   1.463626e+01   6.540340e+01
  -4.180517e+01   2.395847e+01
  -6.619079e+01  -3.277687e+01
  -2.953251e+01  -6.068159e+01
   3.585386e+01  -4.321714e+01
   6.456922e+01   3.677953e-01
   3.112076e+01   3.589277e+01
  -1.941184e+01   4.104375e+01
  -2.604463e+01   1.900737e+01
   1.316030e+01  -5.960297e+00
   4.053398e+01  -7.987169e+00
   1.285716e+01   1.654464e+01
  -4.514892e+01   4.140549e+01
  -7.295005e+01   3.362593e+01
  -4.554606e+01  -9.761531e+00
   5.083444e+00  -5.218914e+01
   3.410929e+01  -5.278422e+01
   2.913865e+01  -1.119032e+01
   7.596492e+00   3.011800e+01
  -1.216865e+01   3.133380e+01
  -2.257436e+01  -2.693684e+00
  -1.936580e+01  -3.145247e+01
  -1.358643e+00  -2.605756e+01
   2.029763e+01   9.671415e-01
   2.669500e+01   1.537308e+01
   1.275499e+01   3.473503e+00
  -3.858090e+00  -1.357746e+01
  -4.221581e+00  -8.311354e+00
   6.362413e+00   1.763395e+01
   5.409679e+00   3.406285e+01
  -1.392551e+01   1.821420e+01
  -2.880955e+01  -1.676979e+01
  -1.399127e+01  -3.516978e+01
   2.214253e+01  -1.827788e+01
   4.060081e+01   1.608110e+01
   1.520858e+01   3.487157e+01
  -3.377105e+01   2.407391e+01
  -5.786311e+01  -2.794773e+00
  -3.251257e+01  -2.424786e+01
   1.576577e+01  -2.977257e+01
   3.865931e+01  -2.101545e+01
   1.864897e+01  -5.715944e+00
  -1.433455e+01   4.540805e+00
  -1.908441e+01  -3.786376e-02
   1.092914e+01  -1.420237e+01
   4.259150e+01  -1.543618e+01
