
 $NMID
 id='ANONYMOUS ', fmtdat='(2E16.6)'
 volume=1.0
 tramp=1.0
 $END
   2.629114e+02  -8.487885e+01
   2.575923e+02   3.712817e+01
   1.330585e+02   1.750085e+02
  -3.015691e+01   2.202429e+02
  -1.155195e+02   1.332339e+02
  -8.316343e+01   7.036444e+00
  -2.979484e+00  -3.754109e+01
   3.270624e+01   1.110140e+01
   3.063716e+00   6.306466e+01
  -4.549591e+01   4.859408e+01
  -6.542964e+01  -1.225600e+01
  -4.502371e+01  -5.410266e+01
  -2.176551e+00  -4.077372e+01
   2.905437e+01   9.567583e+00
   1.859558e+01   4.680104e+01
  -2.548971e+01   3.087793e+01
  -5.189866e+01  -2.915791e+01
  -2.173067e+01  -7.638570e+01
   3.768240e+01  -6.364010e+01
   6.320770e+01  -8.008672e+00
   3.691468e+01   3.223118e+01
   4.384089e+00   3.133738e+01
   6.832068e+00   1.888808e+01
   2.752653e+01   2.574302e+01
   2.339738e+01   3.972789e+01
  -1.330926e+01   3.245295e+01
  -4.817917e+01   5.454562e+00
  -4.865372e+01  -1.498284e+01
  -1.598753e+01  -1.538939e+01
   2.187077e+01  -4.096665e+00
   3.559793e+01   9.713423e+00
   1.623036e+01   2.352158e+01
  -1.771695e+01   3.016800e+01
  -3.714630e+01   1.983251e+01
  -3.233920e+01  -2.617067e+00
  -2.041426e+01  -1.753838e+01
  -1.853006e+01  -1.404332e+01
  -2.131843e+01  -3.663381e+00
  -1.494033e+01  -4.877728e+00
  -1.435825e+00  -2.048346e+01
   6.754450e+00  -3.499572e+01
   8.204057e+00  -3.163473e+01
   1.025897e+01  -1.060900e+01
   1.063961e+01   8.093327e+00
   1.951649e+00   3.756750e+00
  -6.368176e+00  -1.922130e+01
   6.340840e+00  -3.099169e+01
   3.765810e+01  -1.043231e+01
   5.388352e+01   2.630723e+01
   2.946745e+01   4.399889e+01
  -1.866703e+01   3.094474e+01
  -4.971046e+01   7.392069e+00
  -4.305008e+01  -7.201074e+00
  -1.233724e+01  -1.476348e+01
   1.593188e+01  -2.097574e+01
   2.499110e+01  -1.880976e+01
   1.508512e+01  -4.409215e+00
   1.445632e+00   7.327675e+00
   1.856374e+00   3.013942e+00
   1.541025e+01  -4.047554e+00
   1.838853e+01   8.100551e+00
  -5.887624e+00   3.108618e+01
  -3.786545e+01   3.032635e+01
  -3.995505e+01  -6.683836e+00
  -4.670325e+00  -4.760518e+01
   3.363740e+01  -5.274360e+01
   4.157289e+01  -2.088701e+01
   2.469056e+01   1.572335e+01
   1.130558e+01   3.214451e+01
   1.178552e+01   3.113552e+01
   1.110658e+01   2.707397e+01
  -3.263965e+00   2.486664e+01
  -2.330207e+01   1.869265e+01
  -3.280191e+01   3.719644e+00
  -2.594615e+01  -1.537044e+01
  -8.893627e+00  -2.578544e+01
   8.796268e+00  -1.727619e+01
   1.854793e+01   5.774339e+00
   1.415735e+01   2.494638e+01
  -3.708087e+00   2.461450e+01
  -2.440520e+01   6.916326e+00
  -3.338629e+01  -1.322097e+01
  -2.435728e+01  -2.481477e+01
  -5.278420e+00  -2.755948e+01
   9.626588e+00  -2.524017e+01
   1.526957e+01  -2.028755e+01
   2.093894e+01  -1.442561e+01
   3.577962e+01  -7.301805e+00
   5.037601e+01   6.066553e+00
   4.210262e+01   2.865327e+01
   4.342125e+00   5.032335e+01
  -3.754424e+01   5.214729e+01
  -5.024797e+01   2.767141e+01
  -2.986798e+01  -5.777514e+00
  -4.201706e+00  -2.363296e+01
   2.205583e+00  -1.899303e+01
  -6.905330e+00  -5.782954e+00
  -1.297719e+01  -7.160976e-02
  -8.441443e+00  -4.459722e+00
   1.609536e-01  -9.943647e+00
   5.887257e+00  -7.569879e+00
   6.209878e+00   2.302986e+00
  -1.203778e+00   8.884668e+00
  -1.468361e+01   1.965241e-01
  -2.130886e+01  -2.218358e+01
  -6.538057e+00  -3.908004e+01
   2.463886e+01  -3.100503e+01
   4.623429e+01  -7.620142e-01
   3.817878e+01   2.702472e+01
   9.218177e+00   3.162271e+01
  -1.352496e+01   1.673770e+01
  -1.427621e+01   2.402353e+00
  -1.789430e+00   1.294084e+00
   5.032963e+00   8.441046e+00
  -1.664515e+00   1.178186e+01
  -1.275900e+01   6.606433e+00
  -1.386821e+01  -1.410945e+00
  -1.827349e+00  -3.586701e+00
   9.945146e+00   3.022737e+00
   4.494509e+00   1.226940e+01
  -1.836686e+01   1.351735e+01
  -3.786321e+01   1.408186e+00
  -3.279468e+01  -1.785057e+01
  -5.084926e+00  -3.081679e+01
   2.170408e+01  -2.838451e+01
   2.718507e+01  -1.353545e+01
   1.315159e+01   1.562499e+00
  -2.297631e+00   5.994911e+00
  -4.368042e+00  -6.208506e-01
   6.771155e+00  -7.851752e+00
   1.931003e+01  -4.731769e+00
   2.090741e+01   8.091161e+00
   8.952969e+00   1.806633e+01
  -6.580652e+00   1.488842e+01
  -1.176186e+01   3.222017e+00
  -3.200528e+00  -2.482149e+00
   7.053602e+00   4.549836e+00
   4.222314e+00   1.545497e+01
  -1.196667e+01   1.645442e+01
  -2.593885e+01   3.908915e+00
  -2.288224e+01  -1.322920e+01
  -4.345116e+00  -2.283274e+01
   1.383605e+01  -1.908584e+01
   1.755535e+01  -5.618115e+00
   7.228161e+00   7.267025e+00
  -4.384883e+00   1.026671e+01
  -5.868028e+00   3.653711e+00
   1.488557e+00  -2.621301e+00
   6.038063e+00  -5.405763e-01
  -4.679170e-01   5.382333e+00
  -1.260938e+01   3.343818e+00
  -1.640186e+01  -9.813187e+00
  -4.470051e+00  -2.260115e+01
   1.558112e+01  -2.110198e+01
   2.830619e+01  -4.222653e+00
   2.457631e+01   1.558634e+01
   8.546950e+00   2.471449e+01
  -7.398529e+00   1.942852e+01
  -1.349613e+01   6.843563e+00
  -9.968430e+00  -2.109174e+00
  -5.258894e+00  -1.808455e+00
  -6.489371e+00   3.162443e+00
  -1.112936e+01   2.765196e+00
  -9.652590e+00  -6.555386e+00
   2.198445e+00  -1.569172e+01
   1.560420e+01  -1.213955e+01
   1.623844e+01   4.197898e+00
   1.233733e-01   1.814322e+01
  -2.019877e+01   1.453370e+01
  -2.665433e+01  -5.344675e+00
  -1.237782e+01  -2.468441e+01
   1.236894e+01  -2.761804e+01
   2.960383e+01  -1.319873e+01
   2.864532e+01   5.963085e+00
   1.364058e+01   1.656197e+01
  -1.890088e+00   1.565672e+01
  -7.782015e+00   1.064425e+01
  -5.363135e+00   9.731424e+00
  -3.702174e+00   1.281684e+01
  -8.620790e+00   1.199978e+01
  -1.627019e+01   1.210963e+00
  -1.747632e+01  -1.538439e+01
  -7.551300e+00  -2.569162e+01
   8.330538e+00  -2.082077e+01
   1.885256e+01  -3.791475e+00
   1.611379e+01   1.277266e+01
   3.137580e+00   1.750193e+01
  -8.041374e+00   9.480561e+00
  -7.851376e+00  -2.234325e+00
   4.768323e-01  -7.685805e+00
   4.410208e+00  -4.847516e+00
  -2.403267e+00   5.849744e-02
  -1.100004e+01   3.437168e-01
  -7.416197e+00  -3.906468e+00
   8.942247e+00  -6.601331e+00
   2.239011e+01  -2.780814e+00
   1.835078e+01   5.902921e+00
  -5.462843e-02   1.256157e+01
  -1.594677e+01   1.131882e+01
  -1.691003e+01   2.726489e+00
  -5.662367e+00  -6.092995e+00
   6.102005e+00  -7.259007e+00
   9.852257e+00   3.076837e-01
   5.246129e+00   9.003875e+00
  -2.795641e+00   9.863597e+00
  -8.720571e+00   2.356088e+00
  -9.648289e+00  -4.860994e+00
  -7.167601e+00  -4.265838e+00
  -5.785941e+00   1.123707e+00
  -7.485922e+00   1.255605e+00
  -7.958101e+00  -8.234065e+00
  -9.079654e-01  -1.952388e+01
   1.276616e+01  -2.045773e+01
   2.258372e+01  -7.823126e+00
   1.837651e+01   8.805936e+00
   2.553404e+00   1.646840e+01
  -1.028343e+01   1.114559e+01
  -7.905367e+00   6.627825e-01
   6.222807e+00  -3.790791e+00
   1.608481e+01   1.615755e+00
   9.868698e+00   1.068275e+01
  -7.744292e+00   1.408362e+01
  -2.074965e+01   8.212250e+00
  -1.824636e+01  -2.227388e+00
  -4.544226e+00  -8.988085e+00
   6.505386e+00  -7.303656e+00
   5.555744e+00   1.755882e-01
  -4.230135e+00   5.054010e+00
  -1.160847e+01   2.004269e-01
  -8.245047e+00  -1.227487e+01
   4.096925e+00  -2.037207e+01
   1.558717e+01  -1.305246e+01
   1.693827e+01   6.507840e+00
   7.158478e+00   2.136321e+01
  -5.856419e+00   1.776871e+01
  -1.221104e+01   3.919204e-01
  -8.323493e+00  -1.301080e+01
   6.675111e-01  -1.165958e+01
   6.366972e+00  -2.089993e+00
   5.138004e+00   2.820944e+00
   9.796117e-01   2.430792e-01
   5.177057e-01  -1.762491e+00
   5.195380e+00   2.667007e+00
   9.004754e+00   9.388658e+00
   4.864712e+00   1.083313e+01
  -6.669217e+00   5.735185e+00
  -1.630598e+01  -9.231376e-01
  -1.493360e+01  -4.985297e+00
  -3.418232e+00  -6.227708e+00
   7.846384e+00  -5.403539e+00
   9.645431e+00  -2.402520e+00
   3.080149e+00   1.555303e+00
  -2.964516e+00   3.206893e+00
  -2.592428e+00   1.192320e+00
   8.228695e-01  -1.178601e+00
  -1.343302e-01  -1.057166e-01
  -6.789441e+00   2.407967e+00
  -1.156208e+01  -3.972731e-02
  -6.161144e+00  -9.155848e+00
   8.274538e+00  -1.698668e+01
   2.074862e+01  -1.332342e+01
   2.076407e+01   2.084210e+00
   8.514864e+00   1.748654e+01
  -5.845713e+00   2.071644e+01
  -1.241671e+01   1.140027e+01
  -9.880488e+00   3.804672e-02
  -4.186084e+00  -4.142834e+00
  -1.255892e+00  -2.084480e+00
  -2.245481e+00  -1.257589e+00
  -4.297370e+00  -5.426404e+00
  -3.613068e+00  -1.029597e+01
   1.692638e+00  -9.101706e+00
   9.188122e+00  -6.575200e-01
   1.226155e+01   9.031497e+00
   5.687694e+00   1.237017e+01
  -7.034687e+00   6.749763e+00
  -1.437871e+01  -3.587834e+00
  -8.299340e+00  -1.103005e+01
   5.606463e+00  -1.026076e+01
   1.313498e+01  -2.187329e+00
   7.552231e+00   6.654905e+00
  -2.770770e+00   9.303017e+00
  -5.114877e+00   4.456614e+00
   1.936923e+00  -2.117453e+00
   7.639635e+00  -3.041288e+00
   3.243770e+00   3.036621e+00
  -7.432474e+00   9.523143e+00
  -1.345074e+01   8.432666e+00
  -9.634275e+00  -9.332280e-01
  -8.021045e-01  -1.055240e+01
   5.390383e+00  -1.158235e+01
   6.027832e+00  -3.474020e+00
   2.924934e+00   5.501623e+00
  -1.322664e+00   6.933679e+00
  -4.682922e+00   7.495799e-01
  -4.948660e+00  -5.548399e+00
  -1.121257e+00  -5.572823e+00
   4.085812e+00  -7.068843e-01
   5.795524e+00   2.488533e+00
   2.552352e+00   5.334223e-01
  -1.302693e+00  -2.986608e+00
  -8.694045e-01  -2.272995e+00
   2.620039e+00   3.114769e+00
   3.064682e+00   7.319808e+00
  -2.033527e+00   5.090714e+00
  -7.099275e+00  -1.853729e+00
  -4.926537e+00  -6.623108e+00
   3.537515e+00  -4.735548e+00
   9.013296e+00   1.514154e+00
   4.517345e+00   6.236198e+00
  -6.006752e+00   5.914730e+00
  -1.180169e+01   1.528579e+00
  -7.293429e+00  -3.668103e+00
   2.195032e+00  -6.677629e+00
   7.051570e+00  -5.829870e+00
   3.830915e+00  -1.782400e+00
  -2.154418e+00   1.903848e+00
  -3.621678e+00   1.333657e+00
   1.048585e+00  -2.872642e+00
   6.969475e+00  -4.741120e+00
