
 $NMID
 id='ANONYMOUS ', fmtdat='(2E16.6)'
 volume=1.0
 tramp=1.0
 $END
   1.154679e+03   1.100010e+02
   8.165032e+02   5.502675e+02
   1.435283e+02   7.540700e+02
  -3.820425e+02   6.322369e+02
  -4.595246e+02   2.854392e+02
  -2.037370e+02  -1.182415e+01
   3.384133e+01  -4.621948e+01
   3.731936e+01   1.133855e+02
  -1.154859e+02   2.034408e+02
  -2.212796e+02   7.508891e+01
  -1.825295e+02  -1.490390e+02
  -5.366725e+01  -2.362141e+02
   5.652093e+01  -1.031158e+02
   6.947409e+01   1.101533e+02
  -2.262415e+01   1.895529e+02
  -1.333602e+02   5.178420e+01
  -1.305359e+02  -1.768352e+02
   2.313339e+01  -2.782719e+02
   1.940421e+02  -1.603536e+02
   2.124059e+02   4.840282e+01
   7.993339e+01   1.500347e+02
  -3.077184e+01   1.056071e+02
  -1.722159e-01   5.358608e+01
   8.923277e+01   9.986716e+01
   7.374734e+01   1.726255e+02
  -7.398697e+01   1.364954e+02
  -2.117262e+02  -9.678724e+00
  -1.964671e+02  -1.282158e+02
  -3.676956e+01  -1.156752e+02
   1.252516e+02  -7.013976e+00
   1.527126e+02   9.602665e+01
   3.276603e+01   1.336466e+02
  -1.202128e+02   1.031378e+02
  -1.762812e+02   2.446652e+01
  -1.151201e+02  -6.257954e+01
  -3.397142e+01  -9.919552e+01
  -2.533680e+01  -5.971055e+01
  -7.116289e+01   2.475911e-01
  -8.222204e+01  -8.029657e+00
  -1.921852e+01  -9.558828e+01
   6.603751e+01  -1.653500e+02
   1.029229e+02  -1.211685e+02
   7.408238e+01   6.196016e+00
   1.277269e+01   7.936697e+01
  -3.142751e+01   1.435512e+01
  -1.435615e+01  -1.078855e+02
   7.264525e+01  -1.260514e+02
   1.687993e+02   9.602051e+00
   1.737219e+02   1.717857e+02
   4.951723e+01   2.024895e+02
  -1.192164e+02   8.942608e+01
  -1.985360e+02  -4.213352e+01
  -1.362601e+02  -8.943277e+01
  -2.429727e+00  -6.643627e+01
   9.159319e+01  -3.762745e+01
   9.346295e+01  -2.344853e+01
   3.827178e+01  -7.843152e+00
   1.931744e+00   7.149574e+00
   2.537465e+01   9.710892e+00
   6.827516e+01   1.940581e+01
   4.655591e+01   6.150122e+01
  -6.195378e+01   1.017352e+02
  -1.624682e+02   6.508777e+01
  -1.337539e+02  -5.817483e+01
   2.287525e+01  -1.695028e+02
   1.680973e+02  -1.618878e+02
   1.789180e+02  -4.064539e+01
   8.200812e+01   8.883557e+01
  -7.023846e-02   1.409350e+02
  -6.360148e+00   1.233090e+02
   9.201570e+00   9.343204e+01
  -2.368473e+01   7.759459e+01
  -9.305213e+01   5.226616e+01
  -1.282452e+02  -7.846415e+00
  -9.059381e+01  -8.261663e+01
  -9.769164e+00  -1.140612e+02
   5.671721e+01  -6.306291e+01
   7.187621e+01   4.087252e+01
   3.140296e+01   1.144382e+02
  -4.231642e+01   9.540954e+01
  -1.057952e+02   1.698818e+00
  -1.139678e+02  -9.086467e+01
  -5.760218e+01  -1.248169e+02
   2.032244e+01  -1.048477e+02
   6.440250e+01  -7.144619e+01
   6.904682e+01  -5.019362e+01
   8.340373e+01  -3.306163e+01
   1.380692e+02   3.688660e+00
   1.818124e+02   7.156182e+01
   1.262184e+02   1.506434e+02
  -3.676990e+01   1.924549e+02
  -1.937954e+02   1.550052e+02
  -2.183254e+02   4.872638e+01
  -1.090274e+02  -5.892717e+01
   1.209553e+01  -9.985064e+01
   3.920578e+01  -6.814554e+01
  -1.315787e+01  -1.913454e+01
  -5.529547e+01  -6.770691e+00
  -3.665325e+01  -3.078441e+01
   1.412597e+01  -4.701951e+01
   4.276049e+01  -2.237303e+01
   2.613939e+01   2.486422e+01
  -2.083883e+01   3.882055e+01
  -6.153438e+01  -1.619615e+01
  -5.368901e+01  -1.072334e+02
   2.034020e+01  -1.495484e+02
   1.206146e+02  -8.688968e+01
   1.668277e+02   4.309715e+01
   1.137049e+02   1.373667e+02
   4.628812e+00   1.289265e+02
  -6.855762e+01   5.079542e+01
  -5.954219e+01  -8.466156e+00
  -8.018281e+00  -2.077807e+00
   1.416180e+01   3.647058e+01
  -1.689281e+01   4.684686e+01
  -5.819311e+01   1.387898e+01
  -5.442837e+01  -2.278204e+01
  -3.326092e+00  -2.040142e+01
   3.674611e+01   1.849151e+01
   7.642672e+00   4.985946e+01
  -7.895119e+01   3.300894e+01
  -1.408857e+02  -3.053341e+01
  -1.056306e+02  -9.807415e+01
   9.946900e+00  -1.217084e+02
   1.110589e+02  -8.661242e+01
   1.196608e+02  -2.157636e+01
   4.919184e+01   2.472217e+01
  -1.843956e+01   2.351962e+01
  -1.988402e+01  -9.107531e+00
   3.391816e+01  -2.644988e+01
   8.050924e+01   2.062467e+00
   7.088662e+01   5.537859e+01
   1.215926e+01   7.981331e+01
  -4.376070e+01   4.916011e+01
  -5.026251e+01  -2.076532e+00
  -1.095305e+01  -1.637218e+01
   2.267422e+01   1.970730e+01
   3.621145e+00   5.961809e+01
  -5.791722e+01   5.036907e+01
  -9.997788e+01  -9.801850e+00
  -7.231957e+01  -7.292942e+01
   8.581776e+00  -9.084012e+01
   7.397181e+01  -5.552519e+01
   7.193499e+01   1.400690e+00
   1.709045e+01   3.796266e+01
  -2.994689e+01   3.404149e+01
  -2.772763e+01   5.909055e+00
   6.571157e+00  -1.051863e+01
   2.236297e+01   1.303682e+00
  -5.149122e+00   1.722994e+01
  -4.641138e+01   1.399511e-01
  -4.915089e+01  -4.997307e+01
   4.781287e+00  -8.614517e+01
   7.750639e+01  -6.289137e+01
   1.097769e+02   1.219476e+01
   7.574101e+01   8.359529e+01
   4.324247e+00   1.013502e+02
  -5.012955e+01   6.341164e+01
  -5.703632e+01   9.316063e+00
  -3.236289e+01  -1.920735e+01
  -1.583111e+01  -1.226551e+01
  -2.657905e+01   4.734856e+00
  -4.274418e+01  -6.965357e-01
  -2.786801e+01  -3.144831e+01
   2.242681e+01  -5.281827e+01
   6.607838e+01  -2.930451e+01
   5.392577e+01   2.865498e+01
  -1.564504e+01   6.498922e+01
  -8.636623e+01   3.440807e+01
  -9.306451e+01  -4.496186e+01
  -2.252226e+01  -1.044119e+02
   7.353498e+01  -9.142401e+01
   1.245171e+02  -1.865074e+01
   1.007735e+02   5.369472e+01
   3.250394e+01   7.765215e+01
  -2.479765e+01   5.660873e+01
  -4.115225e+01   3.032788e+01
  -3.102990e+01   2.854163e+01
  -2.761242e+01   4.142690e+01
  -4.377178e+01   3.388664e+01
  -5.993363e+01  -1.280739e+01
  -4.740442e+01  -7.471210e+01
  -5.712728e-01  -1.026034e+02
   5.330335e+01  -6.824921e+01
   7.496822e+01   5.939957e+00
   4.726280e+01   6.477573e+01
  -6.562439e+00   6.922554e+01
  -4.030324e+01   2.852703e+01
  -2.815810e+01  -1.461803e+01
   7.501204e+00  -2.767663e+01
   1.940872e+01  -1.512861e+01
  -8.906554e+00  -4.199065e+00
  -3.937936e+01  -1.021775e+01
  -2.269005e+01  -2.122508e+01
   3.831080e+01  -1.563528e+01
   8.390045e+01   1.089909e+01
   6.245010e+01   3.963696e+01
  -1.058458e+01   4.711905e+01
  -6.900789e+01   2.647385e+01
  -6.586340e+01  -7.080963e+00
  -1.597644e+01  -2.791598e+01
   2.917569e+01  -1.939317e+01
   3.535123e+01   1.137215e+01
   9.195231e+00   3.639734e+01
  -2.057934e+01   3.094812e+01
  -3.320423e+01  -3.835668e-01
  -2.878765e+01  -2.607198e+01
  -2.141449e+01  -2.241778e+01
  -2.288982e+01  -2.900900e+00
  -2.888971e+01  -3.474767e+00
  -2.007745e+01  -3.677478e+01
   1.699865e+01  -7.077993e+01
   6.673888e+01  -6.203204e+01
   8.911706e+01  -6.882796e+00
   5.759188e+01   5.025382e+01
  -6.691092e+00   6.279901e+01
  -4.763797e+01   2.995615e+01
  -2.875716e+01  -6.073511e+00
   2.680127e+01  -7.049408e+00
   5.722576e+01   2.373207e+01
   2.516000e+01   5.044169e+01
  -4.347636e+01   4.406616e+01
  -8.600482e+01   8.531141e+00
  -6.605087e+01  -2.770999e+01
  -7.548429e+00  -3.884623e+01
   3.251513e+01  -2.121830e+01
   2.138018e+01   5.736180e+00
  -2.011259e+01   1.375207e+01
  -4.197987e+01  -1.162127e+01
  -1.591353e+01  -5.296003e+01
   3.768179e+01  -6.817247e+01
   7.068511e+01  -2.884457e+01
   5.363947e+01   4.280835e+01
   1.978379e+00   8.539520e+01
  -4.124904e+01   5.857921e+01
  -4.580603e+01  -1.120444e+01
  -1.747345e+01  -5.701935e+01
   1.423154e+01  -4.390349e+01
   2.569617e+01  -2.225164e+00
   1.661551e+01   1.661144e+01
   4.084312e+00   3.319069e+00
   3.996595e+00  -6.479275e+00
   1.600788e+01   1.330968e+01
   2.289858e+01   4.348805e+01
   6.628799e+00   4.663643e+01
  -2.997938e+01   1.539478e+01
  -5.855822e+01  -2.139067e+01
  -4.975814e+01  -3.535314e+01
  -6.246556e+00  -2.593991e+01
   3.468459e+01  -9.938400e+00
   3.828782e+01   1.600375e+00
   9.516626e+00   7.631675e+00
  -1.480911e+01   8.057833e+00
  -1.095729e+01   2.874588e+00
   4.588858e+00  -2.264644e+00
  -1.770744e-01  -1.283222e+00
  -2.743246e+01  -5.301799e-02
  -4.166924e+01  -1.252381e+01
  -1.144633e+01  -3.804269e+01
   4.889748e+01  -5.110959e+01
   8.847296e+01  -2.592168e+01
   7.107067e+01   2.913361e+01
   1.127245e+01   7.218570e+01
  -4.256973e+01   6.890356e+01
  -5.617160e+01   2.789445e+01
  -3.570948e+01  -1.067653e+01
  -1.103166e+01  -1.908844e+01
  -2.414008e+00  -7.738023e+00
  -7.089646e+00  -6.027452e+00
  -1.064598e+01  -2.442671e+01
  -2.826502e+00  -4.197338e+01
   1.586602e+01  -3.135634e+01
   3.395242e+01   8.176226e+00
   3.375382e+01   4.628783e+01
   6.208992e+00   4.992469e+01
  -3.242799e+01   1.514926e+01
  -4.674909e+01  -2.914953e+01
  -1.751986e+01  -4.794699e+01
   3.041627e+01  -3.010737e+01
   4.894654e+01   5.673880e+00
   2.074958e+01   3.063873e+01
  -1.849943e+01   3.012522e+01
  -2.234745e+01   1.188752e+01
   9.349024e+00  -3.982187e+00
   3.084967e+01  -2.530415e+00
   8.515165e+00   1.382294e+01
  -3.739233e+01   2.666820e+01
  -5.820978e+01   1.762796e+01
  -3.403266e+01  -1.216147e+01
   8.304812e+00  -3.874754e+01
   3.097630e+01  -3.671870e+01
   2.384379e+01  -6.587211e+00
   3.671228e+00   2.271215e+01
  -1.169440e+01   2.297557e+01
  -1.668026e+01  -3.030720e+00
  -1.183225e+01  -2.522102e+01
   1.125986e+00  -2.048469e+01
   1.510239e+01   2.119841e+00
   1.879578e+01   1.449577e+01
   9.217112e+00   4.257359e+00
  -2.025417e+00  -1.124585e+01
  -2.328588e+00  -8.077075e+00
   4.504765e+00   1.316333e+01
   2.881760e+00   2.699638e+01
  -1.141288e+01   1.418321e+01
  -2.138118e+01  -1.387535e+01
  -9.169745e+00  -2.741663e+01
   1.764488e+01  -1.230985e+01
   2.966216e+01   1.491560e+01
   8.848368e+00   2.706883e+01
  -2.767422e+01   1.514796e+01
  -4.352850e+01  -6.855351e+00
  -2.229325e+01  -2.096580e+01
   1.447431e+01  -2.141337e+01
   3.086919e+01  -1.304401e+01
   1.506547e+01  -2.824300e+00
  -9.980720e+00   2.836502e+00
  -1.372315e+01  -5.411950e-01
   8.450734e+00  -8.863389e+00
   3.151508e+01  -7.852286e+00
