
 $NMID
 id='ANONYMOUS ', fmtdat='(2E16.6)'
 volume=1.0
 tramp=1.0
 $END
  -1.390401e+02   2.041214e+01
  -8.363316e+01  -6.955433e+01
   1.676833e+01  -7.920381e+01
   5.437400e+01  -2.455204e+01
   1.572174e+01   1.891353e+01
  -2.883591e+01   1.261526e+01
  -2.863584e+01  -1.854777e+01
   1.413952e+00  -3.533378e+01
   2.475735e+01  -2.492119e+01
   2.744352e+01   1.780902e+00
   1.420354e+01   2.487496e+01
  -6.063255e+00   2.554064e+01
  -1.945483e+01   1.728123e+00
  -1.325067e+01  -2.334945e+01
   6.565669e+00  -2.338995e+01
   1.808017e+01  -5.057480e-01
   1.017666e+01   1.874595e+01
  -5.599828e+00   1.753259e+01
  -1.342799e+01   3.966718e+00
  -1.040127e+01  -7.167210e+00
  -1.944326e+00  -1.090714e+01
   6.079109e+00  -7.683527e+00
   6.187009e+00   1.026668e+00
  -5.633023e+00   6.952798e+00
  -1.780495e+01  -3.432193e-01
  -1.081995e+01  -1.585042e+01
   1.448127e+01  -1.938144e+01
   3.043567e+01  -2.205143e+00
   1.624285e+01   1.812927e+01
  -1.335284e+01   1.947856e+01
  -2.671929e+01   2.196358e+00
  -1.405489e+01  -1.524721e+01
   6.885384e+00  -1.927263e+01
   1.728205e+01  -9.902202e+00
   1.397766e+01   5.259666e+00
   3.167139e+00   1.463976e+01
  -6.868770e+00   7.829860e+00
  -6.709287e+00  -1.037652e+01
   6.179754e+00  -1.763312e+01
   1.834102e+01  -6.871636e-02
   1.235304e+01   2.431039e+01
  -8.600531e+00   2.502613e+01
  -2.069044e+01   3.569849e-01
  -9.555417e+00  -1.908452e+01
   1.059828e+01  -1.120774e+01
   1.561203e+01   1.062133e+01
   5.940816e-01   1.931407e+01
  -1.773119e+01   8.015177e+00
  -2.184806e+01  -8.692052e+00
  -8.872269e+00  -1.668333e+01
   1.029313e+01  -1.300301e+01
   2.011842e+01  -1.590372e+00
   1.235935e+01   9.680224e+00
  -4.911823e+00   1.144036e+01
  -1.351839e+01   2.484362e+00
  -5.803862e+00  -5.679153e+00
   5.529530e+00  -2.584780e+00
   4.564222e+00   6.205886e+00
  -6.368091e+00   7.144045e+00
  -1.166821e+01  -1.529945e+00
  -5.055726e+00  -8.909627e+00
   4.287320e+00  -8.619421e+00
   7.478584e+00  -4.903677e+00
   5.993460e+00  -1.041916e+00
   3.477601e+00   5.520767e+00
  -1.410433e+00   1.275781e+01
  -8.460135e+00   1.108402e+01
  -1.110052e+01  -1.911453e+00
  -5.463517e+00  -1.346074e+01
   1.813278e+00  -1.152412e+01
   2.332884e+00  -1.776432e+00
  -1.699006e+00   1.253877e+00
  -1.350361e+00  -4.628840e+00
   5.292212e+00  -7.829826e+00
   1.057698e+01  -1.314031e+00
   7.977961e+00   7.909358e+00
  -5.576391e-01   9.537109e+00
  -8.111719e+00   2.472441e+00
  -9.067051e+00  -6.344055e+00
  -2.182319e+00  -1.009033e+01
   8.013844e+00  -6.353387e+00
   1.301746e+01   2.307341e+00
   8.133712e+00   9.406965e+00
  -1.241577e+00   9.483676e+00
  -5.449043e+00   4.192154e+00
  -2.837017e+00   7.161071e-01
  -1.238413e+00   2.648634e+00
  -6.179484e+00   5.532025e+00
  -1.292572e+01   3.102438e+00
  -1.299839e+01  -5.002498e+00
  -4.617867e+00  -1.345215e+01
   6.352146e+00  -1.635737e+01
   1.286278e+01  -1.095740e+01
   1.152230e+01   2.634519e-01
   4.099718e+00   9.320924e+00
  -2.871307e+00   8.627714e+00
  -2.795731e+00   1.137129e-01
   3.474743e+00  -5.260661e+00
   7.317305e+00  -7.896676e-01
   2.822612e+00   6.823017e+00
  -4.994143e+00   6.565908e+00
  -6.570029e+00  -1.562405e+00
  -2.547948e-01  -6.850939e+00
   6.487944e+00  -2.627329e+00
   7.166976e+00   6.008832e+00
   2.313551e+00   1.034504e+01
  -4.277245e+00   7.982235e+00
  -9.668169e+00   2.156242e+00
  -1.098982e+01  -3.736701e+00
  -6.130263e+00  -7.277340e+00
   1.896613e+00  -6.426480e+00
   5.646098e+00  -2.038290e+00
   1.961920e+00   1.100755e+00
  -3.172485e+00  -5.262902e-01
  -2.327213e+00  -4.232727e+00
   3.333021e+00  -4.625564e+00
   6.085789e+00  -9.424394e-01
   2.419342e+00   2.355504e+00
  -2.777183e+00   1.744900e+00
  -3.031798e+00  -1.652900e+00
   2.306817e+00  -4.328578e+00
   8.364872e+00  -3.625631e+00
   9.828660e+00   1.053862e+00
   4.992877e+00   7.381151e+00
  -2.949138e+00   1.036798e+01
  -7.831070e+00   6.668461e+00
  -5.815500e+00  -5.620832e-01
   2.163859e-01  -4.012884e+00
   3.239829e+00  -7.650573e-01
  -9.900341e-02   4.053653e+00
  -5.836578e+00   3.869106e+00
  -7.670148e+00  -1.350033e+00
  -3.893640e+00  -5.943059e+00
   1.723480e+00  -5.771046e+00
   4.454538e+00  -2.067881e+00
   2.714701e+00   1.120863e+00
  -1.120528e+00   1.059442e+00
  -2.706368e+00  -1.856063e+00
   3.932578e-01  -4.515163e+00
   5.604212e+00  -3.439666e+00
   7.235585e+00   1.626422e+00
   2.823244e+00   6.498656e+00
  -3.535492e+00   6.487342e+00
  -5.777500e+00   1.665641e+00
  -2.775254e+00  -3.198847e+00
   1.259336e+00  -4.069823e+00
   2.454923e+00  -1.529138e+00
   1.034959e+00   9.900208e-01
  -4.311642e-01   1.272725e+00
  -2.051921e-01  -5.479767e-02
   1.619438e+00  -7.568096e-01
   3.374580e+00   8.827353e-01
   2.569056e+00   4.225417e+00
  -1.758571e+00   6.086856e+00
  -6.760933e+00   3.549015e+00
  -7.753056e+00  -2.312113e+00
  -3.556377e+00  -6.682997e+00
   1.754080e+00  -6.036196e+00
   3.679114e+00  -1.983885e+00
   2.306674e+00   9.803493e-01
   9.600940e-01   7.212368e-01
   1.326740e+00  -9.259878e-01
   2.097947e+00  -1.195159e+00
   1.692492e+00   5.335008e-01
   1.097875e-01   2.640585e+00
  -1.758927e+00   2.959399e+00
  -2.725996e+00   5.322655e-01
  -1.307099e+00  -3.114337e+00
   2.729392e+00  -4.431092e+00
   6.435662e+00  -1.053882e+00
   5.538559e+00   4.938981e+00
  -5.421323e-01   8.267384e+00
  -7.048480e+00   5.822808e+00
  -8.662321e+00  -4.075867e-02
  -5.002784e+00  -4.357273e+00
  -2.037952e-01  -4.843768e+00
   2.059248e+00  -3.336328e+00
   1.708734e+00  -2.592640e+00
   1.019105e+00  -3.057723e+00
   1.784008e+00  -2.965146e+00
   3.773333e+00  -7.267410e-01
   4.958205e+00   3.174255e+00
   3.240468e+00   6.287457e+00
  -1.166953e+00   6.120693e+00
  -5.153281e+00   2.428469e+00
  -5.483212e+00  -2.257922e+00
  -2.277969e+00  -4.701331e+00
   1.145089e+00  -3.730391e+00
   2.049656e+00  -9.198718e-01
   9.725413e-01   1.230800e+00
   3.225229e-01   1.472805e+00
   1.202002e+00   4.490551e-01
   2.316487e+00  -2.284533e-01
   1.651431e+00   4.736052e-01
  -1.234700e+00   1.906853e+00
  -4.393714e+00   2.183250e+00
  -4.925683e+00   2.234635e-01
  -1.816146e+00  -2.634038e+00
   2.507786e+00  -3.729151e+00
   4.220343e+00  -2.023353e+00
   2.104939e+00   6.402013e-01
  -1.183292e+00   1.608534e+00
  -2.320032e+00   2.882500e-01
  -9.064295e-01  -1.530980e+00
   9.316453e-01  -1.893612e+00
   1.648775e+00  -6.658031e-01
   1.608993e+00   6.335641e-01
   1.652868e+00   6.142554e-01
   1.850515e+00  -4.206722e-01
   1.928405e+00  -6.467191e-01
   1.701906e+00   1.276132e+00
   6.731734e-01   4.262129e+00
  -1.607354e+00   5.407703e+00
  -4.110666e+00   3.057428e+00
  -4.460634e+00  -1.082863e+00
  -1.739122e+00  -3.548226e+00
   1.531319e+00  -2.709871e+00
   1.730538e+00  -1.954226e-01
  -1.482009e+00   1.155657e+00
  -4.391965e+00   6.495075e-02
  -3.340149e+00  -2.434583e+00
   1.185798e+00  -4.180084e+00
   5.162918e+00  -3.535410e+00
   5.279288e+00  -6.634726e-01
   2.026116e+00   2.289060e+00
  -1.197587e+00   2.856199e+00
  -1.546545e+00   8.275945e-01
   7.056011e-01  -1.149311e+00
   2.713404e+00  -3.094417e-01
   1.998420e+00   2.915483e+00
  -1.138647e+00   5.022329e+00
  -4.063147e+00   3.152821e+00
  -4.425244e+00  -1.692739e+00
  -2.114508e+00  -5.459316e+00
   1.097519e+00  -4.967235e+00
   3.189079e+00  -9.370819e-01
   3.091106e+00   2.857278e+00
   1.115664e+00   3.399032e+00
  -1.159563e+00   1.270399e+00
  -1.930910e+00  -5.037224e-01
  -9.282701e-01  -2.171802e-01
   5.242520e-02   7.203913e-01
  -7.586460e-01   1.050359e-01
  -2.512950e+00  -1.885864e+00
  -2.361470e+00  -3.001620e+00
   8.183699e-01  -2.035678e+00
   4.339348e+00  -1.961444e-01
   4.504132e+00   8.950084e-01
   1.087184e+00   1.171379e+00
  -2.298495e+00   1.301486e+00
  -2.521997e+00   1.105449e+00
  -3.969101e-01   1.197411e-01
   9.530037e-01  -9.443100e-01
   2.743321e-01  -8.694141e-01
  -6.268620e-01   6.803060e-02
   2.106533e-01   3.194587e-01
   2.141572e+00  -3.884245e-01
   2.770230e+00  -2.596154e-01
   8.888420e-01   1.859715e+00
  -2.263575e+00   4.119273e+00
  -4.434788e+00   3.494870e+00
  -4.326959e+00  -3.242966e-01
  -2.215905e+00  -4.210190e+00
   5.658139e-01  -5.011569e+00
   2.430031e+00  -2.779587e+00
   2.446033e+00  -1.734350e-01
   1.107164e+00   6.745431e-01
   3.345935e-02   8.235502e-02
   3.864241e-01  -1.410154e-01
   1.530735e+00   9.796897e-01
   1.659823e+00   2.426749e+00
  -9.379139e-02   2.327644e+00
  -2.438545e+00   1.813315e-01
  -3.073910e+00  -2.310661e+00
  -1.070522e+00  -2.915390e+00
   1.993272e+00  -1.203936e+00
   3.379965e+00   1.177668e+00
   1.825448e+00   2.410733e+00
  -1.138300e+00   2.056401e+00
  -2.695049e+00   7.414997e-01
  -1.705578e+00  -7.668898e-01
   1.387121e-01  -1.690839e+00
   4.458308e-01  -1.314155e+00
  -9.381755e-01   8.757631e-02
  -1.850549e+00   8.348048e-01
  -6.786653e-01  -4.427350e-01
   1.593051e+00  -2.657552e+00
   2.727441e+00  -3.039451e+00
   1.940044e+00  -5.614831e-01
   4.128377e-01   2.420966e+00
  -5.288274e-01   2.847493e+00
  -6.976910e-01   6.246085e-01
  -4.361110e-01  -1.475158e+00
   1.931116e-01  -1.340604e+00
   1.011848e+00   2.537924e-01
   1.260082e+00   1.209085e+00
   3.905500e-01   8.039332e-01
  -9.310943e-01   4.911190e-02
  -1.403706e+00  -7.404282e-02
  -6.799673e-01   2.377138e-01
   2.566196e-01   2.331858e-01
   4.395400e-01  -3.124854e-01
   7.762876e-02  -9.140332e-01
   4.130792e-02  -9.466083e-01
   5.655560e-01  -2.117802e-01
   9.134148e-01   8.506508e-01
   3.152233e-01   1.396661e+00
  -9.863863e-01   8.500357e-01
  -1.747280e+00  -4.760510e-01
  -9.033896e-01  -1.546153e+00
   1.122772e+00  -1.529094e+00
   2.494058e+00  -5.104835e-01
   1.779793e+00   7.131756e-01
  -2.866451e-01   1.362792e+00
  -1.436111e+00   1.170186e+00
  -5.140319e-01   4.637220e-01
   1.063288e+00  -2.075916e-02
   1.056287e+00   2.970992e-01
  -7.989215e-01   1.091739e+00
  -2.521789e+00   1.143737e+00
