
 $NMID
 id='ANONYMOUS ', fmtdat='(2E16.6)'
 volume=1.0
 tramp=1.0
 $END
  -2.647365e+01  -1.968732e+01
   4.137812e+00  -9.200249e+00
   4.227753e+00   1.088861e+01
  -1.602394e+01   5.538191e+00
  -2.166038e+01  -1.762591e+01
  -4.571007e+00  -2.690533e+01
   1.278964e+01  -1.393055e+01
   1.376589e+01   1.975764e+00
   4.369051e+00   6.386327e+00
  -3.160413e+00   3.351349e+00
  -4.821574e+00  -3.180011e-01
  -1.656619e+00  -4.327516e+00
   4.018505e+00  -7.183433e+00
   6.961236e+00  -4.698561e+00
   3.529658e+00   1.033588e+00
  -1.360344e+00   2.844867e+00
  -3.328577e-01   3.894010e-01
   4.394073e+00   3.491558e-01
   4.495122e+00   3.871858e+00
  -2.479619e-01   4.791976e+00
  -2.320029e+00   1.821287e+00
  -9.177457e-01   9.673612e-01
  -3.407782e+00   3.020213e+00
  -9.876910e+00   5.428595e-01
  -9.323341e+00  -7.742076e+00
   2.579499e+00  -1.106687e+01
   1.322980e+01  -2.618646e+00
   9.444500e+00   8.132926e+00
  -4.022272e+00   8.175568e+00
  -1.166948e+01  -1.099276e+00
  -7.405874e+00  -8.026307e+00
   1.476456e+00  -7.319936e+00
   6.545518e+00  -3.138348e+00
   5.759907e+00   4.553710e-01
   1.195917e+00   2.432346e+00
  -2.847540e+00   7.973398e-01
  -1.060542e+00  -4.735958e+00
   6.523046e+00  -7.439977e+00
   1.107778e+01  -6.018690e-01
   5.067863e+00   1.021552e+01
  -5.806888e+00   1.171952e+01
  -8.702601e+00   1.388555e+00
  -1.040950e+00  -7.912504e+00
   6.620443e+00  -5.316754e+00
   5.805041e+00   4.308494e+00
  -3.689022e-01   8.964201e+00
  -5.008438e+00   5.095614e+00
  -6.397168e+00  -1.384144e+00
  -5.399165e+00  -4.767152e+00
  -1.472538e+00  -4.104888e+00
   3.680157e+00  -1.077033e+00
   4.697761e+00   1.430890e+00
   2.856120e-01   6.221300e-01
  -2.966088e+00  -2.399617e+00
  -1.612678e-01  -2.572380e+00
   3.657529e+00   1.819514e+00
   1.503585e+00   5.206979e+00
  -3.930606e+00   2.583332e+00
  -4.731053e+00  -2.413210e+00
  -6.661208e-01  -3.210683e+00
   1.468114e+00  -9.187117e-01
   9.645804e-02  -1.630602e+00
   7.565058e-01  -4.760350e+00
   4.746072e+00  -3.056531e+00
   5.477410e+00   4.601737e+00
  -2.505503e-01   9.282860e+00
  -5.664732e+00   4.809510e+00
  -4.187587e+00  -2.776934e+00
   3.182053e-01  -4.240384e+00
   1.488424e-01  -3.069806e-01
  -3.952811e+00   9.967227e-01
  -4.532148e+00  -2.878574e+00
   7.186914e-01  -6.034843e+00
   5.925147e+00  -3.562857e+00
   5.767848e+00   1.999566e+00
   1.495484e+00   4.952103e+00
  -2.606738e+00   3.126715e+00
  -4.102889e+00  -1.221911e+00
  -2.582901e+00  -4.455509e+00
   1.127703e+00  -4.206496e+00
   4.379885e+00  -9.458635e-01
   4.335581e+00   2.213609e+00
   1.623350e+00   2.634628e+00
  -7.998807e-02   1.209335e+00
   8.189772e-01   8.641696e-01
   1.623661e+00   2.421122e+00
  -4.972121e-01   3.912136e+00
  -4.487990e+00   3.622537e+00
  -6.984838e+00   1.504469e+00
  -6.028572e+00  -2.069085e+00
  -2.054125e+00  -6.121013e+00
   2.839571e+00  -7.740706e+00
   5.488239e+00  -4.439790e+00
   3.796357e+00   1.358897e+00
  -2.096354e-01   3.762233e+00
  -1.660355e+00   9.553356e-01
   1.063776e+00  -2.101604e+00
   3.790550e+00  -8.196297e-01
   2.323220e+00   2.507382e+00
  -1.555494e+00   2.700279e+00
  -2.893645e+00  -4.472575e-01
  -5.966056e-01  -2.565412e+00
   2.040569e+00  -1.524494e+00
   2.826043e+00   6.270389e-01
   2.603626e+00   2.159081e+00
   1.737009e+00   3.606863e+00
  -1.019676e+00   4.564605e+00
  -4.857215e+00   2.822398e+00
  -5.957506e+00  -1.475674e+00
  -2.593842e+00  -4.307170e+00
   1.579228e+00  -2.897628e+00
   2.078093e+00   1.831604e-01
  -4.573534e-01   7.044651e-01
  -1.704176e+00  -1.373170e+00
   1.191468e-01  -2.578526e+00
   2.382210e+00  -1.234563e+00
   2.155673e+00   8.161577e-01
  -2.575354e-01   1.359476e+00
  -2.253186e+00   1.687278e-01
  -1.707465e+00  -1.742506e+00
   1.405505e+00  -3.064595e+00
   4.817128e+00  -2.310034e+00
   5.367728e+00   9.130821e-01
   2.039440e+00   4.358526e+00
  -2.309705e+00   4.801706e+00
  -3.645437e+00   1.942331e+00
  -1.361032e+00  -9.432581e-01
   1.206627e+00  -1.017268e+00
   1.060216e+00   8.830826e-01
  -1.212753e+00   1.914749e+00
  -2.962636e+00   8.448423e-01
  -2.688271e+00  -1.125983e+00
  -8.720847e-01  -2.229468e+00
   1.078364e+00  -1.694647e+00
   1.688814e+00  -6.379262e-02
   2.962462e-01   1.102246e+00
  -1.816182e+00   3.677062e-01
  -2.067447e+00  -1.851378e+00
   4.361154e-01  -3.202981e+00
   3.293478e+00  -1.925100e+00
   3.460634e+00   9.565661e-01
   9.575581e-01   2.795822e+00
  -1.404411e+00   2.292536e+00
  -1.606485e+00   4.514562e-01
  -2.969209e-01  -9.921693e-01
   7.848778e-01  -1.117200e+00
   7.842837e-01  -9.561693e-02
  -7.659148e-02   1.013417e+00
  -9.804867e-01   9.007532e-01
  -8.197647e-01  -5.339697e-01
   8.153787e-01  -1.495743e+00
   2.508852e+00  -2.184135e-01
   2.034721e+00   2.427369e+00
  -8.361233e-01   3.549112e+00
  -3.558099e+00   1.758855e+00
  -3.654272e+00  -1.160040e+00
  -1.508183e+00  -2.629422e+00
   5.418795e-01  -2.131369e+00
   1.112061e+00  -9.551531e-01
   7.124493e-01  -2.176735e-01
   3.621404e-01  -1.782451e-01
   5.010004e-01  -6.680173e-01
   1.072136e+00  -1.023939e+00
   1.567298e+00  -2.219396e-01
   1.058628e+00   1.673290e+00
  -7.145273e-01   2.680912e+00
  -2.245783e+00   1.011033e+00
  -1.475626e+00  -2.101127e+00
   1.452668e+00  -3.222926e+00
   3.707779e+00  -8.031033e-01
   2.801016e+00   2.841760e+00
  -5.581979e-01   4.265970e+00
  -3.366206e+00   2.617941e+00
  -3.595977e+00  -1.253472e-01
  -1.827613e+00  -1.789347e+00
   1.250667e-02  -1.869201e+00
   6.555985e-01  -1.219906e+00
   2.415855e-01  -8.804760e-01
  -1.913626e-01  -1.202327e+00
   2.847580e-01  -1.545401e+00
   1.576715e+00  -8.677410e-01
   2.474359e+00   9.702156e-01
   1.766610e+00   2.659339e+00
  -3.692009e-01   2.670572e+00
  -2.304936e+00   9.184158e-01
  -2.471331e+00  -1.193941e+00
  -8.708363e-01  -2.204931e+00
   9.707282e-01  -1.675061e+00
   1.514223e+00  -1.724114e-01
   6.725720e-01   1.174478e+00
  -2.173127e-01   1.315536e+00
   3.447526e-02   2.505861e-01
   9.898487e-01  -6.481459e-01
   1.024167e+00  -6.433089e-02
  -5.916110e-01   1.419677e+00
  -2.506830e+00   1.771706e+00
  -2.703193e+00   1.157965e-01
  -8.581788e-01  -1.973177e+00
   1.318483e+00  -2.380022e+00
   2.061496e+00  -9.651716e-01
   1.216841e+00   5.991348e-01
  -1.478472e-01   1.007841e+00
  -1.048677e+00   4.260195e-01
  -1.102483e+00  -3.420023e-01
  -3.656014e-01  -8.016929e-01
   6.758672e-01  -7.876281e-01
   1.239314e+00  -3.645445e-01
   9.955114e-01   1.239628e-02
   5.770235e-01  -1.160928e-01
   7.866467e-01  -3.779217e-01
   1.356243e+00   2.307085e-01
   1.119473e+00   1.856017e+00
  -4.035277e-01   3.070951e+00
  -2.123254e+00   2.352959e+00
  -2.476938e+00   4.181273e-02
  -1.191302e+00  -1.857796e+00
   3.801134e-01  -1.857056e+00
   6.665307e-01  -4.632085e-01
  -5.114951e-01   6.104205e-01
  -1.743326e+00   2.855266e-01
  -1.445957e+00  -1.005371e+00
   4.437786e-01  -1.949771e+00
   2.274350e+00  -1.606651e+00
   2.360570e+00  -2.042288e-01
   7.794844e-01   1.078182e+00
  -7.881387e-01   1.181703e+00
  -9.437183e-01   1.823424e-01
   1.055593e-01  -7.601875e-01
   1.128937e+00  -5.460928e-01
   1.232632e+00   7.461009e-01
   3.845030e-01   1.879582e+00
  -8.737229e-01   1.611100e+00
  -1.709895e+00  -7.522998e-02
  -1.358905e+00  -1.803937e+00
   1.150323e-01  -2.005328e+00
   1.492909e+00  -4.757069e-01
   1.483667e+00   1.319190e+00
   2.303277e-01   1.733697e+00
  -8.199662e-01   6.926825e-01
  -7.122831e-01  -3.697152e-01
  -7.962495e-02  -3.404360e-01
  -1.056690e-01   2.896788e-01
  -8.870415e-01   2.872329e-01
  -1.380062e+00  -5.976619e-01
  -7.715322e-01  -1.379320e+00
   6.070710e-01  -1.218759e+00
   1.707646e+00  -4.042554e-01
   1.739089e+00   2.619619e-01
   7.348596e-01   5.089606e-01
  -5.072447e-01   5.828472e-01
  -1.026932e+00   5.445905e-01
  -5.454946e-01   2.034756e-01
   2.381814e-01  -2.957249e-01
   4.362802e-01  -4.347164e-01
   4.330947e-02  -9.667915e-02
  -1.138158e-01   1.192183e-01
   4.482784e-01  -2.128125e-01
   1.144653e+00  -4.902020e-01
   1.021761e+00   2.271457e-01
  -8.320463e-02   1.683593e+00
  -1.372161e+00   2.299086e+00
  -1.925183e+00   9.984091e-01
  -1.458730e+00  -1.270234e+00
  -3.824934e-01  -2.464744e+00
   5.956428e-01  -1.774131e+00
   9.498046e-01  -3.801169e-01
   7.010179e-01   2.145856e-01
   3.770139e-01  -3.982206e-02
   4.529494e-01  -9.691572e-02
   8.001638e-01   5.190476e-01
   8.254748e-01   1.143017e+00
   1.769841e-01   1.031488e+00
  -8.088576e-01   3.146236e-01
  -1.376405e+00  -3.718770e-01
  -9.959182e-01  -6.995610e-01
   1.630090e-01  -6.841683e-01
   1.236939e+00  -2.735937e-01
   1.272482e+00   5.240386e-01
   1.452697e-01   1.188440e+00
  -1.124734e+00   9.682611e-01
  -1.330936e+00  -1.475183e-01
  -4.507260e-01  -1.136392e+00
   3.170293e-01  -1.006308e+00
   8.212471e-02  -1.027432e-02
  -5.980751e-01   5.751683e-01
  -5.388908e-01  -5.858646e-02
   4.320078e-01  -1.260442e+00
   1.293087e+00  -1.620805e+00
   1.235325e+00  -5.639075e-01
   5.716260e-01   9.884911e-01
   3.291568e-02   1.615275e+00
  -2.140595e-01   8.997500e-01
  -3.764928e-01  -2.444373e-01
  -3.364345e-01  -6.912485e-01
   1.531048e-01  -2.706886e-01
   7.236768e-01   3.095683e-01
   5.990067e-01   4.531523e-01
  -2.639176e-01   2.403109e-01
  -8.676729e-01   5.797969e-02
  -4.322487e-01   5.630833e-02
   4.694558e-01   1.363559e-01
   6.149028e-01   1.999221e-01
  -2.075343e-01   1.694684e-01
  -8.948237e-01  -5.589234e-02
  -5.225349e-01  -3.961980e-01
   4.213263e-01  -4.803679e-01
   7.144851e-01  -6.875271e-02
   1.203336e-02   4.620790e-01
  -7.544786e-01   4.279976e-01
  -6.052837e-01  -2.769719e-01
   3.111627e-01  -9.274507e-01
   1.009511e+00  -7.911465e-01
   8.707924e-01   2.523654e-02
   2.189163e-01   7.692630e-01
  -2.433905e-01   9.002984e-01
  -2.435334e-01   5.149731e-01
  -5.558668e-02   5.778082e-02
  -2.704618e-02  -1.135558e-01
  -2.252725e-01   5.805548e-02
  -4.975325e-01   2.742590e-01
