
 $NMID
 id='ANONYMOUS ', fmtdat='(2E16.6)'
 volume=1.0
 tramp=1.0
 $END
   2.413348e+07  -1.448428e+06
   1.641577e+07   1.186656e+07
  -2.586084e+05   1.589492e+07
  -1.059768e+07   9.384969e+06
  -8.310819e+06  -9.925377e+04
  -4.177220e+04  -4.309421e+06
   4.680173e+06  -1.416631e+06
   3.011673e+06   3.927303e+06
  -1.468781e+06   5.831283e+06
  -4.339090e+06   2.436559e+06
  -3.748838e+06  -2.778168e+06
  -6.704203e+05  -4.546985e+06
   2.043127e+06  -1.211623e+06
   1.748075e+06   3.444854e+06
  -1.318253e+06   4.261473e+06
  -3.848359e+06   2.845264e+05
  -2.878203e+06  -4.508331e+06
   9.824799e+05  -5.781522e+06
   4.372453e+06  -3.016645e+06
   4.746358e+06   9.282577e+05
   2.512631e+06   3.165090e+06
   1.109505e+05   3.047778e+06
  -3.873412e+05   1.948928e+06
   8.788630e+05   1.612499e+06
   1.619743e+06   2.484603e+06
  -2.444332e+05   3.259521e+06
  -3.835670e+06   2.314489e+06
  -5.660155e+06  -2.436490e+05
  -3.498902e+06  -2.424451e+06
   6.792670e+05  -2.484708e+06
   2.788069e+06  -7.289245e+05
   1.258987e+06   1.055039e+06
  -1.586270e+06   1.386659e+06
  -2.696351e+06   5.894662e+04
  -1.504870e+06  -1.921165e+06
   3.408168e+05  -2.858230e+06
   1.249546e+06  -1.641652e+06
   9.121846e+05   7.294715e+05
   2.466237e+04   1.637436e+06
  -3.734739e+05  -8.860994e+04
   3.205907e+05  -2.223916e+06
   1.478824e+06  -1.687582e+06
   1.548565e+06   1.227457e+06
  -1.667345e+05   2.878252e+06
  -2.228823e+06   9.403715e+05
  -2.302420e+06  -2.519354e+06
   2.083089e+05  -3.637811e+06
   3.245600e+06  -1.336474e+06
   4.032957e+06   1.907780e+06
   1.754646e+06   3.229644e+06
  -1.682408e+06   2.048946e+06
  -3.379139e+06  -1.723117e+05
  -2.056708e+06  -1.621592e+06
   7.725891e+05  -1.400692e+06
   2.298044e+06  -8.084371e+03
   1.287336e+06   1.070663e+06
  -6.933260e+05   7.623209e+05
  -1.220838e+06  -4.047139e+05
   1.088253e+05  -9.192894e+05
   1.352095e+06  -1.322519e+05
   7.295850e+05   1.030748e+06
  -1.239440e+06   1.260757e+06
  -2.436166e+06   2.028766e+05
  -1.496830e+06  -1.491245e+06
   9.447828e+05  -2.777888e+06
   3.067818e+06  -2.659309e+06
   3.486060e+06  -7.742520e+05
   2.213835e+06   1.890225e+06
   4.434554e+05   3.437326e+06
  -5.721067e+05   2.909938e+06
  -6.107990e+05   1.392073e+06
  -4.929013e+05   6.255454e+05
  -9.698550e+05   8.211929e+05
  -1.780553e+06   6.588721e+05
  -1.983998e+06  -5.968117e+05
  -1.072611e+06  -1.901044e+06
   4.612145e+05  -1.737645e+06
   1.548473e+06  -3.621889e+04
   1.353888e+06   1.724719e+06
  -1.118573e+05   2.071085e+06
  -1.850210e+06   8.222266e+05
  -2.497607e+06  -9.811861e+05
  -1.539750e+06  -2.079595e+06
   7.954882e+04  -1.982501e+06
   9.558259e+05  -1.228861e+06
   8.600420e+05  -7.173637e+05
   8.969411e+05  -7.191890e+05
   1.846777e+06  -6.369867e+05
   2.879014e+06   2.002473e+05
   2.444083e+06   1.654310e+06
   2.533772e+05   2.802633e+06
  -2.159397e+06   2.744074e+06
  -2.951252e+06   1.355665e+06
  -1.759684e+06  -5.301711e+05
   9.348744e+04  -1.626093e+06
   9.634286e+05  -1.202880e+06
   3.526907e+05   1.243580e+05
  -8.104651e+05   8.710346e+05
  -1.217344e+06   2.826657e+05
  -5.076729e+05  -7.469204e+05
   4.338035e+05  -7.905561e+05
   5.044231e+05   2.203640e+05
  -4.018888e+05   8.230417e+05
  -1.307018e+06  -1.122374e+05
  -1.170339e+06  -1.882600e+06
   1.480989e+05  -2.702263e+06
   1.821167e+06  -1.666812e+06
   2.707322e+06   4.058913e+05
   2.157040e+06   1.939104e+06
   5.413171e+05   2.045699e+06
  -9.172654e+05   1.084266e+06
  -1.157784e+06   1.290267e+05
  -3.455772e+05  -1.956625e+04
   2.790204e+05   5.048322e+05
  -1.705373e+05   8.611762e+05
  -1.152674e+06   4.479258e+05
  -1.365410e+06  -4.144813e+05
  -3.845538e+05  -8.619149e+05
   7.574059e+05  -4.783359e+05
   7.504955e+05   2.728852e+05
  -4.890105e+05   5.844551e+05
  -1.695675e+06   8.635543e+04
  -1.560116e+06  -8.873168e+05
  -4.056646e+04  -1.586371e+06
   1.592830e+06  -1.386042e+06
   1.961856e+06  -3.241462e+05
   8.712454e+05   7.743977e+05
  -5.413834e+05   9.580779e+05
  -9.445438e+05   1.500587e+05
  -9.928856e+04  -6.721409e+05
   1.005367e+06  -5.313082e+05
   1.233495e+06   4.265132e+05
   4.093103e+05   1.126969e+06
  -6.286069e+05   8.410810e+05
  -9.249879e+05  -2.543112e+04
  -3.098540e+05  -4.869753e+05
   4.788413e+05  -8.750651e+04
   5.119606e+05   6.900144e+05
  -3.923104e+05   9.853144e+05
  -1.394861e+06   3.906200e+05
  -1.424772e+06  -6.958677e+05
  -3.268020e+05  -1.413981e+06
   9.073512e+05  -1.186611e+06
   1.178033e+06  -2.481945e+05
   4.290286e+05   5.638903e+05
  -4.068699e+05   6.150432e+05
  -5.119200e+05   6.584640e+04
   1.131264e+04  -3.837960e+05
   4.404904e+05  -2.935405e+05
   2.962072e+05   7.777747e+04
  -2.089539e+05   1.410642e+05
  -4.463069e+05  -3.073900e+05
   2.623501e+03  -8.110583e+05
   8.996715e+05  -6.979441e+05
   1.467109e+06   2.056244e+05
   1.075801e+06   1.306980e+06
  -8.252601e+04   1.732027e+06
  -1.109013e+06   1.135967e+06
  -1.288305e+06   3.659823e+04
  -7.758112e+05  -6.946585e+05
  -2.877982e+05  -6.698760e+05
  -2.255975e+05  -2.761359e+05
  -3.109330e+05  -1.490337e+05
  -6.731313e+04  -4.422659e+05
   5.425515e+05  -6.849447e+05
   1.035197e+06  -3.479896e+05
   8.630593e+05   5.013516e+05
  -6.393158e+04   1.151086e+06
  -1.191311e+06   8.915284e+05
  -1.643879e+06  -2.478095e+05
  -9.303539e+05  -1.419470e+06
   5.308208e+05  -1.686299e+06
   1.675619e+06  -8.801207e+05
   1.728302e+06   2.758604e+05
   8.757400e+05   9.080642e+05
  -2.883237e+04   8.106759e+05
  -3.571322e+05   4.982452e+05
  -2.116624e+05   5.152454e+05
  -1.221152e+05   8.111636e+05
  -4.028241e+05   8.425081e+05
  -8.436569e+05   2.345310e+05
  -9.452324e+05  -7.332197e+05
  -4.310851e+05  -1.324804e+06
   4.132606e+05  -1.029622e+06
   9.170998e+05  -5.850206e+04
   6.410542e+05   8.269746e+05
  -1.479561e+05   9.855785e+05
  -7.071108e+05   4.223895e+05
  -5.799034e+05  -3.095003e+05
  -5.415228e+04  -6.729994e+05
   2.172569e+05  -5.859462e+05
  -7.836827e+03  -3.514590e+05
  -2.885531e+05  -2.542899e+05
  -3.608559e+04  -2.806050e+05
   7.544410e+05  -1.993075e+05
   1.394383e+06   1.453114e+05
   1.167239e+06   6.354896e+05
   9.960696e+04   9.471946e+05
  -9.856898e+05   8.204527e+05
  -1.245618e+06   3.104656e+05
  -6.334214e+05  -2.109327e+05
   1.219798e+05  -3.554086e+05
   3.291793e+05  -8.494670e+04
  -6.732333e+02   2.275880e+05
  -3.410881e+05   1.734910e+05
  -3.349028e+05  -2.300153e+05
  -1.145412e+05  -5.255666e+05
  -2.436272e+03  -3.399148e+05
  -1.042173e+05   1.278584e+05
  -2.535132e+05   2.844066e+05
  -2.166482e+05  -1.468247e+05
   1.138269e+05  -7.271864e+05
   6.002868e+05  -7.604025e+05
   8.574462e+05  -1.066842e+05
   5.283686e+05   6.237284e+05
  -2.612236e+05   7.370836e+05
  -8.210515e+05   1.926245e+05
  -5.196634e+05  -4.111704e+05
   4.567831e+05  -4.939415e+05
   1.161989e+06  -2.187982e+04
   8.449415e+05   5.619045e+05
  -2.350108e+05   7.824118e+05
  -1.071001e+06   4.961230e+05
  -9.536229e+05  -4.110643e+04
  -1.516034e+05  -3.805862e+05
   4.433988e+05  -2.481229e+05
   2.542058e+05   1.717086e+05
  -4.378285e+05   3.453887e+05
  -8.313571e+05  -8.669072e+04
  -4.323368e+05  -8.496677e+05
   4.606783e+05  -1.190064e+06
   1.071488e+06  -6.102808e+05
   9.069073e+05   5.383638e+05
   1.764717e+05   1.289786e+06
  -4.986172e+05   9.838046e+05
  -6.807927e+05  -5.364805e+04
  -3.900964e+05  -8.346570e+05
   6.751988e+04  -7.368966e+05
   3.803823e+05  -1.028542e+05
   3.902929e+05   2.704386e+05
   1.729246e+05   1.125148e+05
   1.243400e+04  -8.637495e+04
   1.322760e+05   1.656987e+05
   3.601704e+05   6.614630e+05
   2.269264e+05   7.797839e+05
  -4.282342e+05   3.137772e+05
  -1.076783e+06  -2.982039e+05
  -9.961255e+05  -5.680963e+05
  -1.572321e+05  -4.822886e+05
   6.515051e+05  -3.131374e+05
   7.191834e+05  -1.736645e+05
   2.163490e+05  -2.954632e+03
  -1.186923e+05   1.586709e+05
   3.911601e+04   1.793855e+05
   2.547456e+05   9.791270e+04
   1.394832e+04   9.721516e+04
  -5.350044e+05   1.563188e+05
  -7.380479e+05  -5.636813e+03
  -2.296679e+05  -4.715437e+05
   6.353763e+05  -8.166632e+05
   1.152274e+06  -5.275749e+05
   9.352710e+05   3.131650e+05
   1.985095e+05   1.006874e+06
  -5.023835e+05   9.747570e+05
  -7.348542e+05   3.616150e+05
  -4.795147e+05  -1.876191e+05
  -7.562829e+04  -2.509640e+05
   1.011065e+05  -1.092182e+04
  -3.879061e+04   5.566983e+04
  -2.502942e+05  -2.383974e+05
  -2.163347e+05  -5.713624e+05
   1.267010e+05  -4.739035e+05
   4.981746e+05   1.140436e+05
   5.076395e+05   7.022497e+05
   3.689437e+04   7.240882e+05
  -5.651015e+05   1.336516e+05
  -7.299445e+05  -5.453309e+05
  -2.305770e+05  -7.651507e+05
   5.033693e+05  -4.529670e+05
   7.690509e+05   4.839617e+04
   3.582693e+05   3.866494e+05
  -1.865816e+05   4.365919e+05
  -2.166113e+05   2.579248e+05
   2.265112e+05   2.311694e+04
   4.748583e+05  -3.115197e+04
   9.262134e+04   2.062329e+05
  -5.754730e+05   5.054303e+05
  -8.442155e+05   4.470747e+05
  -4.963396e+05  -7.102822e+04
   5.679512e+04  -6.001965e+05
   3.326328e+05  -5.998818e+05
   2.485969e+05  -8.773295e+04
   1.950093e+04   3.601486e+05
  -1.712446e+05   2.865433e+05
  -2.548167e+05  -1.433237e+05
  -1.838988e+05  -4.079408e+05
   4.095870e+04  -2.635646e+05
   2.765368e+05   4.458392e+04
   3.285454e+05   1.595043e+05
   1.745910e+05   3.621190e+04
  -5.358006e+03  -7.032219e+04
  -6.096264e+04   4.364476e+04
  -4.856112e+04   2.785254e+05
  -1.130830e+05   3.404921e+05
  -2.492285e+05   7.827203e+04
  -2.714723e+05  -3.137331e+05
  -4.287580e+04  -4.630693e+05
   3.073146e+05  -2.079439e+05
   4.467280e+05   2.165121e+05
   1.668606e+05   4.211990e+05
  -3.412715e+05   2.624631e+05
  -6.021674e+05  -5.819131e+04
  -3.338959e+05  -2.613818e+05
   2.013472e+05  -2.562179e+05
   4.376673e+05  -1.322463e+05
   1.426929e+05  -1.109803e+04
  -2.931230e+05   1.710286e+04
  -3.088997e+05  -8.889454e+04
   1.556194e+05  -2.386505e+05
   5.899937e+05  -2.018977e+05
