
 $NMID
 id='ANONYMOUS ', fmtdat='(2E16.6)'
 volume=1.0
 tramp=1.0
 $END
  -5.299295e+07  -2.458965e+05
  -3.151830e+07  -3.280268e+07
   7.182295e+06  -3.561227e+07
   2.574875e+07  -1.364016e+07
   1.524728e+07   6.486618e+06
  -3.094758e+06   8.644091e+06
  -9.079669e+06  -1.098179e+06
  -2.597873e+06  -9.034826e+06
   5.671954e+06  -8.708811e+06
   8.956018e+06  -1.902519e+06
   6.602077e+06   5.809665e+06
   8.277315e+05   8.110253e+06
  -3.784364e+06   2.606592e+06
  -2.589982e+06  -5.111502e+06
   3.425585e+06  -6.168705e+06
   7.345582e+06   1.227265e+06
   4.182924e+06   9.553082e+06
  -3.532092e+06   1.106621e+07
  -9.512454e+06   5.543253e+06
  -1.019794e+07  -1.974045e+06
  -6.203292e+06  -7.126784e+06
  -5.437144e+05  -8.167126e+06
   2.818861e+06  -5.595518e+06
   1.671220e+06  -2.375154e+06
  -1.226709e+06  -1.963663e+06
  -3.660048e+05  -4.017435e+06
   5.113152e+06  -4.295125e+06
   9.208725e+06  -5.739886e+05
   6.713045e+06   3.893729e+06
   2.286935e+05   4.869505e+06
  -3.592257e+06   2.526855e+06
  -2.452257e+06  -5.209253e+03
   5.116266e+05  -1.050899e+06
   2.220172e+06  -6.292233e+05
   2.220216e+06   1.340283e+06
   7.432204e+05   3.814639e+06
  -1.731402e+06   3.679800e+06
  -3.107828e+06  -1.800593e+05
  -1.587444e+06  -3.513835e+06
   8.360171e+05  -1.789987e+06
   4.210606e+05   2.405179e+06
  -2.272386e+06   2.229884e+06
  -2.296663e+06  -2.969255e+06
   2.265083e+06  -5.694072e+06
   6.485000e+06  -8.647243e+05
   4.754689e+06   6.532893e+06
  -1.825581e+06   7.973082e+06
  -6.989426e+06   2.262564e+06
  -6.572365e+06  -4.124260e+06
  -1.810226e+06  -5.624873e+06
   3.210778e+06  -2.591836e+06
   4.946087e+06   1.336825e+06
   2.319104e+06   3.206033e+06
  -2.236061e+06   2.050989e+06
  -4.239481e+06  -8.435986e+05
  -1.832970e+06  -2.528347e+06
   1.608522e+06  -1.286631e+06
   1.650540e+06   9.290351e+05
  -1.182948e+06   8.337050e+05
  -2.251280e+06  -1.605216e+06
   6.051130e+05  -3.127503e+06
   4.302327e+06  -1.714949e+06
   4.922606e+06   1.258558e+06
   2.164805e+06   3.704197e+06
  -1.679895e+06   4.996239e+06
  -4.723851e+06   4.662225e+06
  -5.881960e+06   1.705387e+06
  -4.374551e+06  -2.995828e+06
  -9.446050e+05  -5.856489e+06
   1.685156e+06  -4.504526e+06
   1.579234e+06  -1.162566e+06
   9.642212e+04   1.694894e+05
  -2.704548e+04  -1.039970e+06
   1.575248e+06  -1.792114e+06
   2.762577e+06  -2.683003e+05
   2.028453e+06   1.855487e+06
   8.101477e+04   2.110877e+06
  -1.511048e+06   2.761598e+05
  -1.689305e+06  -1.941305e+06
  -6.826426e+04  -2.822033e+06
   2.639662e+06  -1.626114e+06
   4.295487e+06   1.104672e+06
   3.085003e+06   3.572134e+06
  -3.837621e+04   4.012849e+06
  -2.159080e+06   2.562432e+06
  -2.092585e+06   1.065567e+06
  -1.702070e+06   6.645247e+05
  -2.770780e+06   5.130966e+05
  -4.145390e+06  -6.398649e+05
  -3.373768e+06  -2.566732e+06
  -2.104682e+05  -3.937056e+06
   2.987911e+06  -3.803502e+06
   3.972611e+06  -2.125422e+06
   2.579745e+06   3.624404e+05
   3.120434e+05   2.170144e+06
  -1.034583e+06   1.896680e+06
  -5.510694e+05  -2.883421e+04
   1.022847e+06  -1.285616e+06
   1.820587e+06  -4.127879e+05
   8.989057e+05   1.149492e+06
  -4.740791e+05   1.089549e+06
  -4.194810e+05  -3.440098e+05
   9.690905e+05  -6.659569e+05
   1.732833e+06   1.179293e+06
   6.538553e+05   3.250987e+06
  -1.405130e+06   3.219316e+06
  -2.896229e+06   1.114328e+06
  -3.154150e+06  -1.267728e+06
  -2.252637e+06  -2.547634e+06
  -5.153799e+05  -2.479412e+06
   1.156697e+06  -1.439448e+06
   1.516452e+06  -2.577226e+05
   4.740236e+05   3.362055e+04
  -3.585897e+05  -7.138598e+05
   3.776292e+05  -1.287999e+06
   1.820244e+06  -5.789751e+05
   1.956565e+06   8.184674e+05
   3.871778e+05   1.345549e+06
  -1.109975e+06   5.678720e+05
  -8.605883e+05  -4.083999e+05
   7.863950e+05  -5.065400e+05
   2.074878e+06   2.495072e+05
   1.698542e+06   1.237887e+06
  -1.806946e+05   1.880055e+06
  -2.166957e+06   1.636264e+06
  -2.653066e+06   3.214864e+05
  -1.187883e+06  -1.193552e+06
   8.649084e+05  -1.457798e+06
   1.499770e+06  -2.006695e+05
   2.087170e+05   1.042787e+06
  -1.446303e+06   7.363623e+05
  -1.660443e+06  -7.174939e+05
  -3.526063e+05  -1.569787e+06
   1.020391e+06  -9.469796e+05
   1.198448e+06   2.755924e+05
   2.432070e+05   7.366713e+05
  -7.646365e+05   6.020900e+04
  -7.285089e+05  -1.002552e+06
   5.266309e+05  -1.385921e+06
   1.924842e+06  -5.655581e+05
   1.982846e+06   9.706423e+05
   4.089724e+05   1.989089e+06
  -1.354236e+06   1.604341e+06
  -1.652062e+06   2.325787e+05
  -4.955252e+05  -8.215349e+05
   6.154442e+05  -7.816332e+05
   6.060605e+05  -9.356851e+04
  -9.611274e+04   3.387504e+05
  -4.516219e+05   2.162818e+05
  -1.157874e+05  -3.828309e+04
   4.176720e+05   8.190504e+04
   4.939374e+05   6.344265e+05
  -1.815031e+05   1.135564e+06
  -1.309835e+06   8.833731e+05
  -2.008196e+06  -3.572685e+05
  -1.447903e+06  -1.840520e+06
   1.556002e+05  -2.331730e+06
   1.513387e+06  -1.389235e+06
   1.615491e+06   7.959792e+04
   8.463532e+05   8.258014e+05
   3.392392e+05   6.072524e+05
   4.813795e+05   2.078380e+05
   6.089842e+05   3.043534e+05
   9.445286e+04   7.382546e+05
  -8.231491e+05   8.781115e+05
  -1.376510e+06   3.412289e+05
  -1.021807e+06  -6.612113e+05
   2.014975e+05  -1.396210e+06
   1.623858e+06  -1.063833e+06
   2.166238e+06   4.145895e+05
   1.127528e+06   1.989396e+06
  -9.276267e+05   2.284276e+06
  -2.418542e+06   1.031886e+06
  -2.258951e+06  -5.851584e+05
  -9.385754e+05  -1.250750e+06
   1.682775e+05  -8.980688e+05
   3.461095e+05  -5.029847e+05
   5.326406e+04  -7.449348e+05
   7.938706e+04  -1.272687e+06
   6.273973e+05  -1.253508e+06
   1.242511e+06  -3.291717e+05
   1.311792e+06   1.012407e+06
   5.774586e+05   1.810970e+06
  -5.663010e+05   1.396997e+06
  -1.233150e+06   2.517595e+04
  -8.009049e+05  -1.216169e+06
   3.513103e+05  -1.341900e+06
   1.103577e+06  -3.987397e+05
   7.786317e+05   6.625546e+05
  -1.105005e+05   1.029742e+06
  -5.044317e+05   7.478745e+05
  -7.013177e+04   3.929534e+05
   4.286351e+05   3.144356e+05
   6.826122e+04   3.683445e+05
  -1.100768e+06   2.204767e+05
  -1.991692e+06  -2.839639e+05
  -1.572319e+06  -9.650691e+05
   1.742562e+04  -1.375513e+06
   1.512666e+06  -1.122229e+06
   1.750917e+06  -2.986330e+05
   7.983700e+05   4.610553e+05
  -2.471228e+05   5.514010e+05
  -4.883593e+05   3.728339e+04
  -3.404248e+04  -4.125238e+05
   4.197214e+05  -2.639476e+05
   4.723470e+05   3.192336e+05
   2.695193e+05   6.966422e+05
   1.102861e+05   4.666106e+05
   1.231166e+05  -9.052204e+04
   2.492386e+05  -2.883637e+05
   2.677052e+05   2.164589e+05
  -1.069928e+05   9.539637e+05
  -8.427210e+05   1.047011e+06
  -1.320970e+06   1.947138e+05
  -8.505835e+05  -8.700695e+05
   3.810789e+05  -1.113416e+06
   1.216359e+06  -3.562759e+05
   7.238214e+05   5.326306e+05
  -6.611717e+05   6.357016e+05
  -1.520991e+06  -5.766306e+04
  -9.721316e+05  -7.984391e+05
   4.453598e+05  -9.456009e+05
   1.415640e+06  -4.827084e+05
   1.174667e+06   1.552799e+05
   1.374979e+05   4.845014e+05
  -6.157940e+05   2.675744e+05
  -3.774624e+05  -2.804508e+05
   5.493531e+05  -5.272419e+05
   1.149369e+06   3.977043e+04
   6.919686e+05   1.123726e+06
  -5.130468e+05   1.670571e+06
  -1.405471e+06   9.064844e+05
  -1.234366e+06  -6.916094e+05
  -2.465700e+05  -1.718539e+06
   6.743816e+05  -1.258277e+06
   8.871044e+05   1.539583e+05
   4.347982e+05   1.132048e+06
  -1.957220e+05   9.234328e+05
  -5.398868e+05   8.717604e+04
  -4.496744e+05  -3.435395e+05
  -1.515632e+05  -1.181957e+05
  -4.685243e+04   8.704409e+04
  -2.896451e+05  -2.941352e+05
  -5.207257e+05  -9.240926e+05
  -1.989140e+05  -1.023229e+06
   6.932076e+05  -3.875857e+05
   1.430493e+06   4.068777e+05
   1.240618e+06   7.646468e+05
   1.934486e+05   6.701091e+05
  -7.980226e+05   4.351138e+05
  -9.356120e+05   1.994827e+05
  -3.567447e+05  -5.486451e+04
   1.291608e+05  -2.254939e+05
   4.166760e+04  -1.827339e+05
  -2.441479e+05  -6.555556e+04
  -6.047973e+04  -1.289276e+05
   6.140770e+05  -2.632334e+05
   1.015159e+06  -2.548893e+04
   4.658747e+05   6.698943e+05
  -7.621315e+05   1.182174e+06
  -1.636512e+06   7.920539e+05
  -1.405310e+06  -3.706363e+05
  -3.193864e+05  -1.348403e+06
   7.054175e+05  -1.356923e+06
   1.002201e+06  -5.670410e+05
   6.417106e+05   1.904327e+05
   1.496825e+05   3.456166e+05
  -5.218158e+04   8.592502e+04
   7.933209e+04  -1.695441e+03
   2.893297e+05   3.483848e+05
   2.556389e+05   7.695452e+05
  -1.481891e+05   6.681797e+05
  -6.629080e+05  -7.739670e+04
  -7.645553e+05  -8.836758e+05
  -1.712782e+05  -1.003496e+06
   7.124048e+05  -2.921559e+05
   1.039100e+06   6.418392e+05
   3.892146e+05   1.046685e+06
  -6.671862e+05   6.977613e+05
  -1.096868e+06  -3.023258e+04
  -5.428086e+05  -5.933020e+05
   2.621974e+05  -6.856850e+05
   3.744112e+05  -3.673671e+05
  -2.208627e+05   1.482738e+04
  -6.216693e+05   6.589924e+04
  -1.584779e+05  -2.989964e+05
   7.731344e+05  -6.813575e+05
   1.211255e+06  -5.432294e+05
   7.587681e+05   1.687900e+05
  -6.348506e+04   8.525490e+05
  -5.254349e+05   8.494724e+05
  -4.323561e+05   1.805347e+05
  -8.352849e+04  -4.555606e+05
   2.150256e+05  -4.426591e+05
   3.503294e+05   1.091712e+05
   2.698586e+05   5.489210e+05
  -3.552453e+04   4.349427e+05
  -3.830485e+05  -2.021152e+04
  -4.727047e+05  -2.702891e+05
  -2.342520e+05  -9.722390e+04
   4.420869e+04   1.629165e+05
   7.202265e+04   7.218418e+04
  -5.705339e+04  -3.363576e+05
  -6.200355e+03  -5.682476e+05
   2.981156e+05  -2.648647e+05
   4.920808e+05   3.326214e+05
   2.140665e+05   6.276760e+05
  -3.750288e+05   3.330707e+05
  -6.711547e+05  -2.348754e+05
  -2.806229e+05  -5.392821e+05
   4.841384e+05  -3.739516e+05
   8.717476e+05   3.333159e+04
   4.841641e+05   3.481634e+05
  -2.733052e+05   4.145180e+05
  -6.206504e+05   2.633945e+05
  -2.596195e+05   2.608260e+04
   3.128363e+05  -1.038596e+05
   3.938416e+05   1.852386e+04
  -1.273160e+05   2.787460e+05
  -6.756575e+05   3.011841e+05
