
 $NMID
 id='ANONYMOUS ', fmtdat='(2E16.6)'
 volume=1.0
 tramp=1.0
 $END
   3.899467e+07   4.803268e+05
   2.435050e+07   2.186949e+07
  -3.180699e+06   2.561498e+07
  -1.824342e+07   1.272963e+07
  -1.262938e+07  -2.083395e+06
   9.119238e+05  -6.688332e+06
   7.284191e+06  -1.041620e+06
   3.669729e+06   6.555033e+06
  -3.257191e+06   8.348023e+06
  -6.988273e+06   2.860554e+06
  -5.487596e+06  -4.681766e+06
  -6.318529e+05  -6.979252e+06
   3.231059e+06  -1.802635e+06
   2.321760e+06   5.141565e+06
  -2.519907e+06   6.073654e+06
  -5.959078e+06  -2.312635e+05
  -3.825904e+06  -7.407101e+06
   2.332421e+06  -8.896228e+06
   7.290620e+06  -4.291421e+06
   7.560769e+06   1.883288e+06
   3.937802e+06   5.388189e+06
  -5.168463e+04   5.254557e+06
  -1.232328e+06   3.347664e+06
   5.616231e+05   2.358838e+06
   1.999506e+06   3.375091e+06
  -4.148304e+05   4.607807e+06
  -5.679413e+06   3.316510e+06
  -8.460600e+06  -5.664464e+05
  -5.268381e+06  -3.873201e+06
   9.210820e+05  -3.852934e+06
   4.034195e+06  -1.189077e+06
   1.922771e+06   1.312899e+06
  -2.006631e+06   1.754931e+06
  -3.599367e+06   6.253309e+04
  -2.126876e+06  -2.603274e+06
   4.037672e+05  -4.119671e+06
   1.944758e+06  -2.601166e+06
   1.684794e+06   9.733134e+05
   2.279657e+05   2.660936e+06
  -6.483785e+05   2.378652e+05
   4.122733e+05  -3.073465e+06
   2.296406e+06  -2.316185e+06
   2.159803e+06   2.137049e+06
  -8.986141e+05   4.443879e+06
  -3.978030e+06   1.028437e+06
  -3.399572e+06  -4.466937e+06
   9.483917e+05  -5.810368e+06
   5.311580e+06  -1.731423e+06
   5.864192e+06   3.362991e+06
   2.161983e+06   5.008161e+06
  -2.736586e+06   2.775496e+06
  -4.894708e+06  -7.030134e+05
  -2.741175e+06  -2.655454e+06
   1.434271e+06  -1.961482e+06
   3.508920e+06   3.359221e+05
   1.780366e+06   1.835336e+06
  -1.180934e+06   1.081705e+06
  -1.718370e+06  -7.323474e+05
   4.120037e+05  -1.194836e+06
   1.987242e+06   2.750631e+05
   6.051646e+05   1.837189e+06
  -2.411487e+06   1.660687e+06
  -3.820097e+06  -2.267790e+05
  -2.044438e+06  -2.600136e+06
   1.659962e+06  -4.193508e+06
   4.743501e+06  -3.844331e+06
   5.334702e+06  -9.970656e+05
   3.344643e+06   2.993144e+06
   4.622877e+05   5.237858e+06
  -1.209076e+06   4.250723e+06
  -1.105573e+06   1.805879e+06
  -6.122022e+05   6.823403e+05
  -1.178405e+06   1.138510e+06
  -2.457758e+06   1.032537e+06
  -2.855331e+06  -7.708453e+05
  -1.554825e+06  -2.665626e+06
   6.189171e+05  -2.430872e+06
   2.105423e+06  -1.418151e+04
   1.812156e+06   2.476860e+06
  -2.466486e+05   2.977086e+06
  -2.752581e+06   1.167113e+06
  -3.728057e+06  -1.548701e+06
  -2.275498e+06  -3.277488e+06
   2.602471e+05  -3.132089e+06
   1.662451e+06  -1.877825e+06
   1.486588e+06  -9.763668e+05
   1.435909e+06  -8.997304e+05
   2.749647e+06  -7.126799e+05
   4.175503e+06   5.647236e+05
   3.416172e+06   2.613675e+06
   1.480432e+05   4.076268e+06
  -3.306421e+06   3.823556e+06
  -4.338712e+06   1.820295e+06
  -2.545282e+06  -8.048466e+05
   1.476105e+05  -2.335105e+06
   1.408748e+06  -1.731925e+06
   5.128868e+05   1.692678e+05
  -1.206926e+06   1.219715e+06
  -1.798987e+06   3.301564e+05
  -7.213716e+05  -1.135975e+06
   6.437753e+05  -1.111560e+06
   6.463002e+05   3.499460e+05
  -7.090908e+05   1.044967e+06
  -1.832879e+06  -4.675637e+05
  -1.344697e+06  -2.909269e+06
   6.294336e+05  -3.753350e+06
   2.790173e+06  -2.028019e+06
   3.747359e+06   8.970735e+05
   2.843104e+06   2.896557e+06
   6.077872e+05   2.913347e+06
  -1.373079e+06   1.499209e+06
  -1.666183e+06   1.321498e+05
  -4.980624e+05  -5.049312e+04
   3.611715e+05   7.488242e+05
  -3.364471e+05   1.245231e+06
  -1.737481e+06   5.537613e+05
  -1.947156e+06  -7.391802e+05
  -4.624493e+05  -1.290805e+06
   1.131184e+06  -6.123935e+05
   1.019478e+06   4.463218e+05
  -7.663709e+05   7.398612e+05
  -2.389828e+06  -6.483617e+04
  -2.095871e+06  -1.378522e+06
   9.044640e+04  -2.221535e+06
   2.378539e+06  -1.837883e+06
   2.839185e+06  -3.150791e+05
   1.201377e+06   1.198140e+06
  -8.702835e+05   1.371276e+06
  -1.411458e+06   1.498215e+05
  -1.102555e+05  -9.989634e+05
   1.496788e+06  -6.972742e+05
   1.737921e+06   7.220177e+05
   4.718570e+05   1.647769e+06
  -9.855150e+05   1.120994e+06
  -1.305471e+06  -1.448785e+05
  -3.714995e+05  -7.260247e+05
   7.155192e+05  -7.141647e+04
   6.905901e+05   1.045706e+06
  -6.360089e+05   1.401385e+06
  -2.044084e+06   4.729845e+05
  -2.014446e+06  -1.104628e+06
  -3.679451e+05  -2.070374e+06
   1.408072e+06  -1.643957e+06
   1.718113e+06  -2.599815e+05
   5.607402e+05   8.434787e+05
  -6.343802e+05   8.415092e+05
  -7.169666e+05   6.503537e+04
   5.821405e+04  -5.062793e+05
   6.182614e+05  -3.534584e+05
   3.589116e+05   1.122218e+05
  -3.361151e+05   1.261017e+05
  -5.947341e+05  -5.195495e+05
   9.835312e+04  -1.173902e+06
   1.362398e+06  -9.300155e+05
   2.102348e+06   4.121297e+05
   1.458900e+06   1.968942e+06
  -2.404051e+05   2.484493e+06
  -1.667257e+06   1.531312e+06
  -1.825779e+06  -5.344311e+04
  -1.034240e+06  -1.017852e+06
  -3.726363e+05  -9.164610e+05
  -3.523907e+05  -3.830972e+05
  -4.769656e+05  -2.659816e+05
  -6.445929e+04  -6.760388e+05
   8.470067e+05  -9.410076e+05
   1.509875e+06  -4.055755e+05
   1.182467e+06   7.743825e+05
  -1.890652e+05   1.618599e+06
  -1.776190e+06   1.174538e+06
  -2.337281e+06  -4.820341e+05
  -1.213974e+06  -2.116186e+06
   9.221700e+05  -2.385380e+06
   2.497437e+06  -1.116584e+06
   2.444642e+06   5.531600e+05
   1.146538e+06   1.359711e+06
  -1.159119e+05   1.116769e+06
  -5.109361e+05   6.614222e+05
  -2.887211e+05   7.467687e+05
  -2.151880e+05   1.201445e+06
  -6.562807e+05   1.208898e+06
  -1.252334e+06   2.816927e+05
  -1.319257e+06  -1.122906e+06
  -5.318322e+05  -1.938869e+06
   6.636178e+05  -1.455122e+06
   1.319391e+06  -1.202831e+04
   8.497420e+05   1.251713e+06
  -3.113491e+05   1.405374e+06
  -1.071817e+06   5.176337e+05
  -8.043431e+05  -5.382099e+05
   1.179394e+04  -9.924964e+05
   3.969273e+05  -8.109515e+05
   2.599742e+04  -4.844754e+05
  -4.102508e+05  -3.805921e+05
  -3.897446e+04  -4.063031e+05
   1.117278e+06  -2.242320e+05
   2.020833e+06   3.250009e+05
   1.633748e+06   1.015593e+06
   4.226707e+04   1.385179e+06
  -1.514204e+06   1.112116e+06
  -1.823030e+06   3.361166e+05
  -8.774504e+05  -3.819616e+05
   2.203053e+05  -5.169981e+05
   4.868659e+05  -8.180764e+04
  -1.087672e+04   3.544036e+05
  -4.941421e+05   2.382753e+05
  -4.728968e+05  -3.549760e+05
  -1.588776e+05  -7.665486e+05
  -6.068075e+03  -4.956596e+05
  -1.518695e+05   1.602005e+05
  -3.600954e+05   3.743595e+05
  -2.968876e+05  -2.316199e+05
   2.008236e+05  -1.037851e+06
   9.246285e+05  -1.059041e+06
   1.282513e+06  -1.008522e+05
   7.503838e+05   9.457343e+05
  -4.361012e+05   1.070529e+06
  -1.224142e+06   2.419250e+05
  -7.284097e+05  -6.214292e+05
   6.983416e+05  -6.735206e+05
   1.660827e+06   6.068792e+04
   1.141184e+06   8.661609e+05
  -4.135002e+05   1.081989e+06
  -1.560148e+06   6.041626e+05
  -1.340871e+06  -1.392947e+05
  -1.794806e+05  -5.483008e+05
   6.551708e+05  -3.118362e+05
   3.597016e+05   2.763699e+05
  -6.463002e+05   4.839017e+05
  -1.200509e+06  -1.627452e+05
  -5.930493e+05  -1.250616e+06
   7.176445e+05  -1.703162e+06
   1.576111e+06  -8.309522e+05
   1.275495e+06   8.255180e+05
   1.744928e+05   1.863989e+06
  -7.787266e+05   1.368760e+06
  -9.662518e+05  -1.387921e+05
  -4.860823e+05  -1.224702e+06
   1.667018e+05  -1.035424e+06
   5.585810e+05  -1.095855e+05
   5.271866e+05   4.068370e+05
   2.236421e+05   1.618859e+05
   2.872982e+04  -1.153555e+05
   2.020346e+05   2.683474e+05
   4.822624e+05   9.840366e+05
   2.529316e+05   1.125330e+06
  -6.616364e+05   4.106582e+05
  -1.525671e+06  -4.985202e+05
  -1.373971e+06  -8.771494e+05
  -1.902221e+05  -7.086856e+05
   9.401975e+05  -4.157550e+05
   1.037321e+06  -1.971565e+05
   3.243693e+05   2.620478e+04
  -1.739330e+05   2.247602e+05
   2.600681e+04   2.432412e+05
   3.402090e+05   1.383683e+05
   2.282316e+04   1.426329e+05
  -7.582223e+05   2.071117e+05
  -1.068077e+06  -4.940780e+04
  -3.347011e+05  -7.084622e+05
   9.488325e+05  -1.157481e+06
   1.715465e+06  -7.003383e+05
   1.362215e+06   5.054516e+05
   2.333901e+05   1.462746e+06
  -7.950014e+05   1.379771e+06
  -1.088007e+06   4.907063e+05
  -6.797347e+05  -2.870582e+05
  -1.027808e+05  -3.702044e+05
   1.301715e+05  -2.918373e+04
  -6.260508e+04   5.945472e+04
  -3.323930e+05  -3.637432e+05
  -2.656214e+05  -8.345618e+05
   2.092287e+05  -6.811108e+05
   7.105977e+05   1.786850e+05
   7.063056e+05   1.032298e+06
   3.347977e+04   1.056001e+06
  -8.152732e+05   1.841687e+05
  -1.032563e+06  -8.126095e+05
  -3.002878e+05  -1.123389e+06
   7.551756e+05  -6.405103e+05
   1.119679e+06   1.140212e+05
   5.012422e+05   5.994997e+05
  -3.041174e+05   6.384605e+05
  -3.486858e+05   3.576246e+05
   3.073144e+05   3.297822e+04
   6.827362e+05  -2.057791e+04
   1.270605e+05   3.094046e+05
  -8.602910e+05   6.906472e+05
  -1.258323e+06   5.721355e+05
  -7.275277e+05  -1.550249e+05
   1.191311e+05  -8.709236e+05
   5.371373e+05  -8.482809e+05
   3.890730e+05  -1.205103e+05
   1.965359e+04   5.154296e+05
  -2.639238e+05   4.154654e+05
  -3.631124e+05  -2.034791e+05
  -2.436525e+05  -5.999272e+05
   7.491127e+04  -3.962161e+05
   3.992909e+05   7.312943e+04
   4.670862e+05   2.648332e+05
   2.466825e+05   7.448462e+04
  -8.610658e+03  -1.190410e+05
  -8.234885e+04   2.892244e+04
  -5.762212e+04   3.941320e+05
  -1.526075e+05   5.153200e+05
  -3.620401e+05   1.354781e+05
  -4.040168e+05  -4.536457e+05
  -6.816130e+04  -6.772129e+05
   4.491148e+05  -2.936574e+05
   6.478648e+05   3.303895e+05
   2.272466e+05   6.131379e+05
  -5.148549e+05   3.594783e+05
  -8.791049e+05  -1.148480e+05
  -4.718772e+05  -3.983063e+05
   3.097592e+05  -3.717547e+05
   6.492564e+05  -1.807071e+05
   2.222759e+05  -6.670397e+03
  -4.072120e+05   2.806448e+04
  -4.379801e+05  -1.231071e+05
   2.182047e+05  -3.269775e+05
   8.355878e+05  -2.647142e+05
