
 $NMID
 id='ANONYMOUS ', fmtdat='(2E16.6)'
 volume=1.0
 tramp=1.0
 $END
   5.986156e+07   1.263154e+06
   3.494060e+07   3.808890e+07
  -9.086384e+06   4.031611e+07
  -2.962406e+07   1.455264e+07
  -1.705146e+07  -8.109124e+06
   3.885946e+06  -9.734762e+06
   1.025344e+07   1.732260e+06
   2.499563e+06   1.037525e+07
  -6.829822e+06   9.490203e+06
  -1.018157e+07   1.732811e+06
  -7.228372e+06  -6.665775e+06
  -7.172563e+05  -9.026819e+06
   4.248888e+06  -2.863120e+06
   2.680496e+06   5.641014e+06
  -4.082253e+06   6.672155e+06
  -8.233688e+06  -1.662999e+06
  -4.408199e+06  -1.086460e+07
   4.289214e+06  -1.234238e+07
   1.082623e+07  -6.034474e+06
   1.145399e+07   2.364669e+06
   6.959684e+06   8.114481e+06
   5.703634e+05   9.326570e+06
  -3.372878e+06   6.434810e+06
  -2.238021e+06   2.668027e+06
   1.069274e+06   2.020300e+06
   3.391081e+05   4.258875e+06
  -5.583406e+06   4.615767e+06
  -1.010401e+07   5.175367e+05
  -7.399032e+06  -4.396396e+06
  -3.117905e+05  -5.397961e+06
   3.857005e+06  -2.801051e+06
   2.673187e+06  -1.360415e+05
  -4.125011e+05   9.323921e+05
  -2.202363e+06   6.113943e+05
  -2.314781e+06  -1.343171e+06
  -8.335974e+05  -4.071442e+06
   1.919002e+06  -4.102570e+06
   3.548660e+06   9.934364e+04
   1.862686e+06   3.932868e+06
  -9.101837e+05   2.166293e+06
  -4.598174e+05  -2.487543e+06
   2.557956e+06  -2.337977e+06
   2.469925e+06   3.433827e+06
  -2.801082e+06   6.396993e+06
  -7.487485e+06   8.388470e+05
  -5.279884e+06  -7.520467e+06
   2.275496e+06  -9.006492e+06
   7.921734e+06  -2.400266e+06
   7.172864e+06   4.801198e+06
   1.760056e+06   6.310661e+06
  -3.673297e+06   2.713408e+06
  -5.390779e+06  -1.723184e+06
  -2.386190e+06  -3.682922e+06
   2.622995e+06  -2.216803e+06
   4.730815e+06   1.101144e+06
   1.958637e+06   2.919583e+06
  -1.849965e+06   1.400966e+06
  -1.767818e+06  -1.103537e+06
   1.455681e+06  -8.574315e+05
   2.515652e+06   2.013146e+06
  -8.755552e+05   3.652860e+06
  -5.032237e+06   1.838537e+06
  -5.550383e+06  -1.634038e+06
  -2.314615e+06  -4.273641e+06
   1.962227e+06  -5.512261e+06
   5.263546e+06  -5.041533e+06
   6.514583e+06  -1.792858e+06
   4.820526e+06   3.359363e+06
   9.346474e+05   6.483212e+06
  -2.050508e+06   4.919257e+06
  -1.870903e+06   1.145328e+06
  -7.253590e+04  -3.445909e+05
   1.665893e+05   1.049403e+06
  -1.604267e+06   1.959503e+06
  -2.946007e+06   3.448891e+05
  -2.168819e+06  -1.944528e+06
  -1.001926e+05  -2.213774e+06
   1.551546e+06  -2.514264e+05
   1.722627e+06   2.102547e+06
   1.344882e+04   3.036720e+06
  -2.890596e+06   1.742381e+06
  -4.703849e+06  -1.254605e+06
  -3.378338e+06  -3.999235e+06
   9.629854e+04  -4.493750e+06
   2.478008e+06  -2.851630e+06
   2.405262e+06  -1.138875e+06
   1.933775e+06  -6.458009e+05
   3.055098e+06  -4.333186e+05
   4.498645e+06   8.567760e+05
   3.580152e+06   2.913154e+06
   9.206710e+04   4.276172e+06
  -3.345762e+06   4.020830e+06
  -4.333527e+06   2.202313e+06
  -2.778586e+06  -4.171434e+05
  -3.230011e+05  -2.324824e+06
   1.127944e+06  -2.033963e+06
   5.961787e+05   2.719298e+04
  -1.128931e+06   1.364042e+06
  -1.997001e+06   3.993880e+05
  -9.666671e+05  -1.275789e+06
   5.303192e+05  -1.156798e+06
   4.096338e+05   4.027813e+05
  -1.142297e+06   6.496955e+05
  -1.875209e+06  -1.460888e+06
  -5.151107e+05  -3.660789e+06
   1.793554e+06  -3.426821e+06
   3.267750e+06  -9.824426e+05
   3.328360e+06   1.583722e+06
   2.257904e+06   2.839575e+06
   4.353253e+05   2.662219e+06
  -1.282886e+06   1.507578e+06
  -1.632511e+06   2.381465e+05
  -5.110866e+05  -5.190293e+04
   3.630345e+05   7.859149e+05
  -4.611267e+05   1.399604e+06
  -2.015869e+06   5.754300e+05
  -2.109883e+06  -9.726713e+05
  -3.659988e+05  -1.492646e+06
   1.229666e+06  -5.709403e+05
   8.968900e+05   4.800838e+05
  -8.934265e+05   4.905590e+05
  -2.218063e+06  -3.923431e+05
  -1.740472e+06  -1.412692e+06
   2.974249e+05  -1.997892e+06
   2.400843e+06  -1.665059e+06
   2.875764e+06  -2.473153e+05
   1.250866e+06   1.342873e+06
  -9.881748e+05   1.571434e+06
  -1.652106e+06   1.789744e+05
  -2.079128e+05  -1.144670e+06
   1.592955e+06  -7.544415e+05
   1.772993e+06   8.447506e+05
   3.064508e+05   1.718998e+06
  -1.161268e+06   9.719578e+05
  -1.288003e+06  -3.689316e+05
  -2.197573e+05  -8.205354e+05
   8.442993e+05  -3.887909e+04
   7.617905e+05   1.111114e+06
  -6.084333e+05   1.484237e+06
  -2.096129e+06   5.555210e+05
  -2.115504e+06  -1.110288e+06
  -3.772571e+05  -2.168761e+06
   1.527239e+06  -1.692570e+06
   1.800850e+06  -1.877154e+05
   4.998987e+05   9.131335e+05
  -6.992047e+05   8.197712e+05
  -6.450528e+05   7.805000e+04
   1.333419e+05  -3.428188e+05
   4.837079e+05  -1.887473e+05
   8.367729e+04   4.980409e+04
  -4.780250e+05  -1.302908e+05
  -5.086034e+05  -7.329554e+05
   2.527084e+05  -1.231824e+06
   1.454828e+06  -9.074525e+05
   2.160419e+06   4.577538e+05
   1.505162e+06   2.039672e+06
  -2.477958e+05   2.509367e+06
  -1.684223e+06   1.431224e+06
  -1.728672e+06  -1.597779e+05
  -8.544140e+05  -9.119745e+05
  -3.256434e+05  -6.290238e+05
  -5.272231e+05  -2.093689e+05
  -6.761633e+05  -3.515915e+05
  -8.564218e+04  -8.166910e+05
   9.288907e+05  -9.185193e+05
   1.497666e+06  -3.064862e+05
   1.060913e+06   7.497303e+05
  -2.838696e+05   1.483361e+06
  -1.792500e+06   1.077694e+06
  -2.318477e+06  -5.284377e+05
  -1.138946e+06  -2.195535e+06
   1.099261e+06  -2.443635e+06
   2.667185e+06  -1.022589e+06
   2.416616e+06   7.335704e+05
   9.414234e+05   1.392755e+06
  -2.360761e+05   9.433107e+05
  -3.794798e+05   5.025840e+05
  -4.854426e+04   7.964178e+05
  -1.063899e+05   1.388053e+06
  -7.212756e+05   1.350116e+06
  -1.362420e+06   3.219064e+05
  -1.387375e+06  -1.134006e+06
  -5.653556e+05  -1.973283e+06
   6.554720e+05  -1.488979e+06
   1.331826e+06   1.923779e+04
   8.210190e+05   1.352219e+06
  -4.403456e+05   1.443859e+06
  -1.229621e+06   3.796409e+05
  -8.293650e+05  -7.707151e+05
   1.697533e+05  -1.130845e+06
   5.968454e+05  -7.945941e+05
   1.024698e+05  -4.146019e+05
  -4.556311e+05  -3.468285e+05
  -6.391693e+04  -3.968050e+05
   1.206310e+06  -2.003451e+05
   2.155897e+06   3.753417e+05
   1.668661e+06   1.104066e+06
  -7.745446e+04   1.501812e+06
  -1.688804e+06   1.172146e+06
  -1.911355e+06   2.539594e+05
  -8.469581e+05  -5.478616e+05
   2.910723e+05  -5.996718e+05
   5.369235e+05  -1.676894e+04
   3.319049e+04   4.575813e+05
  -4.539874e+05   2.729732e+05
  -5.019296e+05  -3.591999e+05
  -2.825988e+05  -7.521127e+05
  -1.182696e+05  -5.022216e+05
  -1.372082e+05   8.215755e+04
  -2.702969e+05   2.860414e+05
  -2.793418e+05  -2.452567e+05
   1.408084e+05  -1.018845e+06
   9.446172e+05  -1.105916e+06
   1.448573e+06  -1.824403e+05
   9.082547e+05   9.616960e+05
  -4.440041e+05   1.204592e+06
  -1.331555e+06   3.630397e+05
  -7.649646e+05  -5.930260e+05
   7.400205e+05  -6.622202e+05
   1.635398e+06   1.240542e+05
   1.002415e+06   9.046549e+05
  -5.319340e+05   9.967815e+05
  -1.546111e+06   4.495808e+05
  -1.251262e+06  -2.230098e+05
  -1.226863e+05  -5.259810e+05
   6.776671e+05  -2.609288e+05
   4.047210e+05   3.189009e+05
  -6.004522e+05   5.567023e+05
  -1.237254e+06  -6.802871e+04
  -7.229994e+05  -1.224810e+06
   5.887874e+05  -1.787177e+06
   1.534204e+06  -9.410251e+05
   1.307941e+06   7.795332e+05
   2.111357e+05   1.856608e+06
  -7.702953e+05   1.325676e+06
  -9.509731e+05  -2.061966e+05
  -4.210227e+05  -1.238975e+06
   2.572430e+05  -9.848338e+05
   5.905457e+05  -7.141697e+04
   4.626961e+05   3.854599e+05
   1.473708e+05   1.317994e+05
   5.859532e+04  -8.994230e+04
   3.206290e+05   3.299567e+05
   5.378375e+05   1.014844e+06
   1.665281e+05   1.110483e+06
  -7.760675e+05   3.966038e+05
  -1.525980e+06  -4.856203e+05
  -1.299169e+06  -8.682248e+05
  -1.856949e+05  -7.317053e+05
   8.627062e+05  -4.412502e+05
   1.011793e+06  -1.790458e+05
   3.939553e+05   7.494928e+04
  -1.418039e+05   2.388740e+05
  -6.583243e+04   1.924697e+05
   2.449136e+05   7.458178e+04
   6.639701e+04   1.385566e+05
  -6.536248e+05   2.657425e+05
  -1.095731e+06   4.422749e+02
  -5.026243e+05  -7.335433e+05
   8.426802e+05  -1.255571e+06
   1.795508e+06  -8.159149e+05
   1.518743e+06   4.304124e+05
   3.075316e+05   1.459461e+06
  -8.048656e+05   1.446638e+06
  -1.095605e+06   5.900262e+05
  -6.817930e+05  -2.177262e+05
  -1.568588e+05  -3.758217e+05
   4.459646e+04  -9.610038e+04
  -9.259683e+04  -8.902029e+03
  -2.957613e+05  -3.904405e+05
  -2.462858e+05  -8.390291e+05
   1.765962e+05  -7.180138e+05
   7.070535e+05   9.500715e+04
   8.030921e+05   9.644928e+05
   1.697127e+05   1.084443e+06
  -7.651243e+05   3.042710e+05
  -1.101880e+06  -7.099152e+05
  -3.969926e+05  -1.138415e+06
   7.354270e+05  -7.413922e+05
   1.187075e+06   6.001778e+04
   5.772933e+05   6.630320e+05
  -3.010159e+05   7.436473e+05
  -4.248799e+05   3.905067e+05
   2.252576e+05  -1.081330e+04
   6.684144e+05  -5.343884e+04
   1.666307e+05   3.283130e+05
  -8.544349e+05   7.094646e+05
  -1.334859e+06   5.426429e+05
  -8.274107e+05  -2.111600e+05
   9.174397e+04  -9.216472e+05
   6.012321e+05  -9.076510e+05
   4.812210e+05  -1.935677e+05
   8.148116e+04   4.868835e+05
  -2.409967e+05   4.766891e+05
  -3.708293e+05  -1.175512e+05
  -2.761164e+05  -5.988806e+05
   4.570539e+04  -4.769186e+05
   4.115099e+05   2.829953e+04
   5.073071e+05   3.120229e+05
   2.515235e+05   1.185532e+05
  -5.055574e+04  -1.840044e+05
  -8.034443e+04  -9.756492e+04
   6.477075e+04   3.532465e+05
   1.447072e+04   6.189937e+05
  -3.170278e+05   2.947506e+05
  -5.316366e+05  -3.562482e+05
  -2.311300e+05  -6.760319e+05
   4.070595e+05  -3.519053e+05
   7.219069e+05   2.637081e+05
   2.910688e+05   5.836311e+05
  -5.357282e+05   3.913264e+05
  -9.438878e+05  -5.489532e+04
  -5.148467e+05  -3.883784e+05
   3.045893e+05  -4.470253e+05
   6.770187e+05  -2.765911e+05
   2.887648e+05  -2.453922e+04
  -3.258171e+05   1.084488e+05
  -4.159580e+05  -2.045418e+04
   1.374511e+05  -2.867433e+05
   7.207120e+05  -3.009974e+05
