
 $NMID
 id='ANONYMOUS ', fmtdat='(2E16.6)'
 volume=1.0
 tramp=1.0
 $END
   4.817595e+07   3.009485e+06
   2.714300e+07   3.047328e+07
  -7.653752e+06   3.155880e+07
  -2.355208e+07   1.196463e+07
  -1.373126e+07  -5.569535e+06
   2.742697e+06  -7.676021e+06
   8.221137e+06   7.348796e+05
   2.520822e+06   8.126637e+06
  -5.064958e+06   8.224906e+06
  -8.224393e+06   1.835978e+06
  -5.972053e+06  -5.699991e+06
  -4.497288e+05  -7.775757e+06
   3.753250e+06  -2.180662e+06
   2.397941e+06   5.230628e+06
  -3.258058e+06   5.982098e+06
  -6.735862e+06  -1.188573e+06
  -3.620474e+06  -8.942909e+06
   3.595168e+06  -1.010604e+07
   9.000620e+06  -4.651739e+06
   9.225689e+06   2.462379e+06
   5.061930e+06   6.909569e+06
  -1.671627e+05   7.227891e+06
  -2.634272e+06   4.572690e+06
  -9.392432e+05   2.088395e+06
   1.616506e+06   2.406084e+06
   7.023235e+04   4.330226e+06
  -5.527416e+06   3.913173e+06
  -9.108663e+06  -1.111549e+05
  -6.133906e+06  -4.207769e+06
   4.004474e+05  -4.661784e+06
   3.969225e+06  -2.033105e+06
   2.419527e+06   5.829323e+05
  -9.895749e+05   1.459114e+06
  -2.790821e+06   5.321264e+05
  -2.295727e+06  -1.851820e+06
  -2.800601e+05  -4.072115e+06
   2.013334e+06  -3.285570e+06
   2.691773e+06   6.922654e+05
   9.366471e+05   3.406886e+06
  -9.810172e+05   1.205117e+06
  -1.477679e+05  -2.749099e+06
   2.324041e+06  -2.217853e+06
   2.097386e+06   2.749326e+06
  -2.045545e+06   5.068825e+06
  -5.612608e+06   5.115860e+05
  -3.921356e+06  -6.066875e+06
   1.923741e+06  -7.090597e+06
   6.516900e+06  -1.746993e+06
   6.166207e+06   4.081540e+06
   1.750692e+06   5.419965e+06
  -3.089138e+06   2.542792e+06
  -4.843769e+06  -1.229340e+06
  -2.341448e+06  -3.027522e+06
   2.018893e+06  -1.891814e+06
   3.921938e+06   8.400968e+05
   1.686834e+06   2.341126e+06
  -1.515420e+06   1.138773e+06
  -1.638360e+06  -8.931572e+05
   8.937782e+05  -8.578922e+05
   1.986265e+06   1.216301e+06
  -3.849240e+05   2.536660e+06
  -3.684922e+06   1.401971e+06
  -4.402119e+06  -1.123982e+06
  -1.924818e+06  -3.381015e+06
   1.872573e+06  -4.680289e+06
   4.930170e+06  -4.277831e+06
   5.813401e+06  -1.268686e+06
   3.951750e+06   3.209449e+06
   5.778176e+05   5.723867e+06
  -1.649572e+06   4.334781e+06
  -1.371715e+06   1.302691e+06
  -1.807188e+05   1.815242e+05
  -4.081227e+05   1.209002e+06
  -2.011921e+06   1.592677e+06
  -2.923065e+06  -1.468936e+05
  -1.915743e+06  -2.244775e+06
   1.788431e+05  -2.311245e+06
   1.763758e+06  -2.169963e+05
   1.755803e+06   2.161553e+06
  -8.845146e+04   2.922223e+06
  -2.773528e+06   1.422401e+06
  -4.128827e+06  -1.421407e+06
  -2.692912e+06  -3.631923e+06
   3.025301e+05  -3.731574e+06
   2.117970e+06  -2.221466e+06
   1.913436e+06  -9.223212e+05
   1.598522e+06  -6.828913e+05
   2.757457e+06  -5.239218e+05
   4.141870e+06   6.993738e+05
   3.345229e+06   2.656548e+06
   1.197564e+05   4.006764e+06
  -3.186315e+06   3.789868e+06
  -4.191171e+06   1.975926e+06
  -2.615718e+06  -5.811193e+05
  -1.208991e+05  -2.292423e+06
   1.231634e+06  -1.861651e+06
   5.562813e+05   9.646154e+04
  -1.126478e+06   1.265588e+06
  -1.838447e+06   3.430472e+05
  -8.126825e+05  -1.188708e+06
   5.596153e+05  -1.110983e+06
   4.979589e+05   3.313480e+05
  -8.511484e+05   7.558856e+05
  -1.670615e+06  -9.526001e+05
  -7.941822e+05  -3.074849e+06
   1.144077e+06  -3.301968e+06
   2.788951e+06  -1.367628e+06
   3.302725e+06   1.142846e+06
   2.449526e+06   2.662144e+06
   5.432008e+05   2.640088e+06
  -1.260694e+06   1.461667e+06
  -1.592751e+06   1.960383e+05
  -4.846011e+05  -4.812890e+04
   3.499238e+05   7.358349e+05
  -3.956175e+05   1.264857e+06
  -1.811709e+06   5.245342e+05
  -1.934259e+06  -8.361329e+05
  -3.813505e+05  -1.332507e+06
   1.128948e+06  -5.668562e+05
   9.178753e+05   4.229047e+05
  -7.635403e+05   5.733224e+05
  -2.165246e+06  -1.918846e+05
  -1.833431e+06  -1.282349e+06
   1.509450e+05  -1.992308e+06
   2.260202e+06  -1.688865e+06
   2.733681e+06  -2.826899e+05
   1.170414e+06   1.223644e+06
  -9.108529e+05   1.413560e+06
  -1.483473e+06   1.406149e+05
  -1.476471e+05  -1.046647e+06
   1.488666e+06  -6.999284e+05
   1.678361e+06   7.483508e+05
   3.709340e+05   1.597484e+06
  -1.013146e+06   9.869955e+05
  -1.221571e+06  -2.438363e+05
  -2.743131e+05  -7.280180e+05
   7.490984e+05  -4.575653e+04
   7.020377e+05   1.037868e+06
  -5.921469e+05   1.395347e+06
  -1.992508e+06   5.070845e+05
  -1.992499e+06  -1.058673e+06
  -3.617349e+05  -2.036024e+06
   1.407330e+06  -1.599160e+06
   1.682681e+06  -2.135020e+05
   5.052345e+05   8.370811e+05
  -6.348457e+05   7.956357e+05
  -6.543724e+05   8.308706e+04
   6.947899e+04  -3.944262e+05
   5.008003e+05  -2.763633e+05
   2.111265e+05   3.909829e+04
  -3.628395e+05  -2.567572e+04
  -5.035359e+05  -5.928025e+05
   1.717710e+05  -1.136992e+06
   1.343713e+06  -8.791332e+05
   2.043486e+06   4.095476e+05
   1.429254e+06   1.919203e+06
  -2.199676e+05   2.396847e+06
  -1.586610e+06   1.427040e+06
  -1.689586e+06  -8.299334e+04
  -9.174254e+05  -8.951111e+05
  -3.709511e+05  -7.235031e+05
  -4.495047e+05  -2.951020e+05
  -5.512599e+05  -3.174325e+05
  -6.089734e+04  -7.208340e+05
   8.442749e+05  -8.855744e+05
   1.424903e+06  -3.495734e+05
   1.077604e+06   7.061462e+05
  -2.028435e+05   1.471230e+06
  -1.690564e+06   1.086879e+06
  -2.229239e+06  -4.665897e+05
  -1.132633e+06  -2.052872e+06
   9.642706e+05  -2.304977e+06
   2.464325e+06  -1.021848e+06
   2.314655e+06   6.029871e+05
   1.000569e+06   1.290506e+06
  -1.453710e+05   9.695781e+05
  -3.998450e+05   5.712041e+05
  -1.539533e+05   7.709512e+05
  -1.634712e+05   1.262221e+06
  -6.706534e+05   1.229534e+06
  -1.260511e+06   2.873478e+05
  -1.307349e+06  -1.081182e+06
  -5.375086e+05  -1.877750e+06
   6.259257e+05  -1.419311e+06
   1.268904e+06  -3.928660e+03
   7.984609e+05   1.242839e+06
  -3.590055e+05   1.355718e+06
  -1.089836e+06   4.160511e+05
  -7.620923e+05  -6.321093e+05
   1.004472e+05  -1.005113e+06
   4.751324e+05  -7.502143e+05
   5.301489e+04  -4.209705e+05
  -4.223276e+05  -3.498001e+05
  -5.362879e+04  -3.866589e+05
   1.112177e+06  -2.003824e+05
   2.002988e+06   3.379491e+05
   1.582190e+06   1.011258e+06
  -2.302518e+04   1.374710e+06
  -1.540116e+06   1.089035e+06
  -1.782762e+06   2.835537e+05
  -8.107917e+05  -4.415720e+05
   2.529516e+05  -5.315623e+05
   4.844608e+05  -4.300221e+04
   2.335007e+03   3.969065e+05
  -4.559958e+05   2.530803e+05
  -4.697939e+05  -3.430431e+05
  -2.216105e+05  -7.403032e+05
  -6.542881e+04  -4.912020e+05
  -1.281207e+05   1.160863e+05
  -2.863598e+05   3.266736e+05
  -2.751623e+05  -2.237470e+05
   1.522901e+05  -9.923644e+05
   8.934628e+05  -1.043630e+06
   1.321926e+06  -1.295934e+05
   8.047874e+05   9.267714e+05
  -4.293106e+05   1.096912e+06
  -1.240101e+06   2.900906e+05
  -7.243232e+05  -5.806732e+05
   6.852953e+05  -6.401052e+05
   1.573155e+06   7.669568e+04
   1.025117e+06   8.271149e+05
  -4.402017e+05   9.836354e+05
  -1.467775e+06   5.128023e+05
  -1.232003e+06  -1.569349e+05
  -1.495308e+05  -5.070282e+05
   6.322085e+05  -2.755870e+05
   3.655964e+05   2.890112e+05
  -6.009066e+05   5.109946e+05
  -1.181798e+06  -1.033009e+05
  -6.465226e+05  -1.196566e+06
   6.204933e+05  -1.695409e+06
   1.497002e+06  -8.680906e+05
   1.250391e+06   7.635670e+05
   1.992037e+05   1.786875e+06
  -7.285654e+05   1.297014e+06
  -9.124085e+05  -1.589733e+05
  -4.401662e+05  -1.171191e+06
   1.927288e+05  -9.587043e+05
   5.467665e+05  -8.645506e+04
   4.782194e+05   3.683533e+05
   1.805182e+05   1.300064e+05
   3.931787e+04  -9.475602e+04
   2.491954e+05   3.001698e+05
   4.943240e+05   9.623911e+05
   2.081771e+05   1.060942e+06
  -6.884150e+05   3.788772e+05
  -1.468407e+06  -4.613256e+05
  -1.286793e+06  -8.192253e+05
  -1.823872e+05  -6.893892e+05
   8.623931e+05  -4.264085e+05
   9.785607e+05  -1.897930e+05
   3.411255e+05   5.525722e+04
  -1.507793e+05   2.275256e+05
  -1.468579e+04   1.972315e+05
   2.858926e+05   8.722817e+04
   4.571302e+04   1.390521e+05
  -6.789256e+05   2.451263e+05
  -1.044268e+06  -1.754531e+04
  -4.083923e+05  -7.082621e+05
   8.590801e+05  -1.178157e+06
   1.693855e+06  -7.333301e+05
   1.397474e+06   4.545866e+05
   2.717568e+05   1.407693e+06
  -7.651195e+05   1.361496e+06
  -1.054537e+06   5.277806e+05
  -6.625330e+05  -2.353580e+05
  -1.282106e+05  -3.629375e+05
   8.842856e+04  -7.225427e+04
  -6.729799e+04   1.949752e+04
  -2.998882e+05  -3.559626e+05
  -2.505431e+05  -7.987760e+05
   1.832961e+05  -6.773158e+05
   6.903586e+05   1.233971e+05
   7.413320e+05   9.615447e+05
   1.053379e+05   1.042166e+06
  -7.685710e+05   2.486294e+05
  -1.042344e+06  -7.279647e+05
  -3.430246e+05  -1.093607e+06
   7.208907e+05  -6.727252e+05
   1.114650e+06   8.157227e+04
   5.165639e+05   6.118374e+05
  -2.969342e+05   6.680823e+05
  -3.740057e+05   3.540142e+05
   2.580951e+05  -1.381481e+03
   6.508511e+05  -4.261935e+04
   1.418904e+05   3.097229e+05
  -8.195323e+05   6.785143e+05
  -1.238609e+06   5.341046e+05
  -7.433561e+05  -1.831306e+05
   1.000304e+05  -8.649254e+05
   5.483732e+05  -8.403500e+05
   4.269397e+05  -1.451417e+05
   5.674605e+04   4.864830e+05
  -2.453294e+05   4.337195e+05
  -3.628804e+05  -1.500199e+05
  -2.543419e+05  -5.767270e+05
   6.315703e+04  -4.245949e+05
   3.946155e+05   4.603887e+04
   4.650871e+05   2.791596e+05
   2.347191e+05   9.265945e+04
  -2.329631e+04  -1.516053e+05
  -6.396770e+04  -3.556413e+04
   1.391309e+04   3.711104e+05
  -6.956603e+04   5.661059e+05
  -3.409658e+05   2.179817e+05
  -4.658869e+05  -3.969970e+05
  -1.526594e+05  -6.662551e+05
   4.137728e+05  -3.187877e+05
   6.683701e+05   2.867181e+05
   2.577230e+05   5.784524e+05
  -5.053275e+05   3.621481e+05
  -8.833127e+05  -8.078337e+04
  -4.782110e+05  -3.784627e+05
   3.001984e+05  -3.974501e+05
   6.461495e+05  -2.232989e+05
   2.488112e+05  -9.568720e+03
  -3.580683e+05   7.942309e+04
  -4.211249e+05  -6.073200e+04
   1.617651e+05  -3.036783e+05
   7.455033e+05  -2.905873e+05
