
 $NMID
 id='ANONYMOUS ', fmtdat='(2E16.6)'
 volume=1.0
 tramp=1.0
 $END
   6.186624e+06  -1.205525e+06
   4.677604e+06   1.958000e+06
   8.335687e+05   3.823675e+06
  -2.042872e+06   3.218553e+06
  -2.168279e+06   8.627957e+05
  -4.274094e+05  -1.060974e+06
   1.117096e+06  -9.140028e+05
   1.225658e+06   7.462995e+05
   1.532491e+05   1.830239e+06
  -9.833723e+05   1.076910e+06
  -1.211542e+06  -6.061970e+05
  -4.192162e+05  -1.329314e+06
   5.790854e+05  -4.003431e+05
   7.682251e+05   1.040592e+06
  -5.646126e+04   1.421309e+06
  -1.022651e+06   3.787192e+05
  -1.067090e+06  -1.058704e+06
  -6.658087e+04  -1.628825e+06
   1.046349e+06  -9.900990e+05
   1.295552e+06   1.412148e+05
   6.581101e+05   8.005164e+05
  -6.374827e+03   6.827327e+05
   5.344773e+04   3.067340e+05
   6.509146e+05   3.375049e+05
   8.632434e+05   8.267741e+05
   7.502945e+04   1.197509e+06
  -1.229546e+06   9.264321e+05
  -1.851071e+06   1.096355e+05
  -1.134790e+06  -6.532868e+05
   2.577893e+05  -8.109661e+05
   1.000809e+06  -2.903330e+05
   4.973895e+05   4.492392e+05
  -5.648090e+05   7.270171e+05
  -1.073444e+06   2.063458e+05
  -6.751511e+05  -6.860839e+05
   4.867184e+04  -1.058631e+06
   3.923842e+05  -5.007037e+05
   2.238615e+05   3.587466e+05
  -9.578697e+04   5.152639e+05
  -1.957055e+05  -1.972123e+05
   2.010462e+04  -8.755994e+05
   3.722657e+05  -6.590643e+05
   5.222897e+05   2.143348e+05
   2.200057e+05   7.307122e+05
  -3.667372e+05   3.284660e+05
  -6.421751e+05  -5.121304e+05
  -1.484054e+05  -9.022833e+05
   8.099431e+05  -4.908230e+05
   1.318992e+06   3.139699e+05
   7.898683e+05   8.516792e+05
  -3.541272e+05   7.748026e+05
  -1.076911e+06   2.325807e+05
  -7.943109e+05  -3.123689e+05
   7.839709e+04  -4.544653e+05
   6.406533e+05  -1.670864e+05
   4.441188e+05   1.935368e+05
  -1.421920e+05   2.480007e+05
  -4.235098e+05  -2.867727e+04
  -1.329415e+05  -3.085644e+05
   3.292076e+05  -2.703937e+05
   3.739307e+05   7.294753e+04
  -1.062086e+05   3.796715e+05
  -5.959222e+05   2.809104e+05
  -5.084661e+05  -2.689477e+05
   1.731070e+05  -8.731014e+05
   8.803240e+05  -9.717828e+05
   1.066407e+06  -3.635961e+05
   7.250588e+05   5.345049e+05
   2.737022e+05   1.052041e+06
   3.975336e+04   9.318521e+05
  -1.871999e+04   5.406174e+05
  -1.311437e+05   3.629940e+05
  -3.974048e+05   4.119170e+05
  -6.861568e+05   2.947637e+05
  -7.597903e+05  -1.818847e+05
  -4.665401e+05  -6.762358e+05
   1.028474e+05  -6.786164e+05
   5.915687e+05  -1.159318e+05
   6.014875e+05   5.344092e+05
   6.878601e+04   7.232466e+05
  -5.935396e+05   3.417793e+05
  -8.403570e+05  -2.451024e+05
  -5.256032e+05  -5.935862e+05
  -2.454056e+04  -5.629342e+05
   2.143154e+05  -3.538403e+05
   1.681922e+05  -2.439172e+05
   2.014480e+05  -3.054715e+05
   5.486763e+05  -3.509832e+05
   9.538897e+05  -1.324026e+05
   9.144850e+05   3.858343e+05
   2.656275e+05   9.210998e+05
  -5.646175e+05   1.059124e+06
  -9.390410e+05   6.200691e+05
  -6.328396e+05  -1.142740e+05
  -3.033300e+04  -5.852036e+05
   2.925854e+05  -4.586536e+05
   1.287460e+05   3.755417e+04
  -2.349280e+05   3.419365e+05
  -3.845433e+05   1.606253e+05
  -1.936085e+05  -2.218177e+05
   1.113740e+05  -3.008921e+05
   2.086478e+05   2.736068e+04
  -2.565755e+04   3.270253e+05
  -4.072150e+05   1.390084e+05
  -5.672999e+05  -4.604859e+05
  -2.480883e+05  -9.131143e+05
   4.233354e+05  -7.651209e+05
   9.602687e+05  -1.195926e+05
   9.204729e+05   5.027150e+05
   3.453999e+05   6.802981e+05
  -2.520256e+05   4.332479e+05
  -3.956850e+05   1.102927e+05
  -1.180935e+05   1.487711e+04
   1.270758e+05   1.514749e+05
   2.749018e+03   2.867161e+05
  -3.410225e+05   2.145438e+05
  -4.700178e+05  -3.895027e+04
  -1.883565e+05  -2.485214e+05
   2.179149e+05  -2.142236e+05
   2.863922e+05   3.547650e+04
  -1.047872e+05   2.504900e+05
  -5.756555e+05   1.796272e+05
  -6.237570e+05  -1.823084e+05
  -1.470073e+05  -5.519875e+05
   4.449617e+05  -5.933348e+05
   6.440525e+05  -2.429215e+05
   3.374312e+05   1.978295e+05
  -1.214782e+05   3.396577e+05
  -2.931409e+05   9.901970e+04
  -6.239953e+04  -2.152166e+05
   3.035256e+05  -2.382693e+05
   4.418214e+05   5.600387e+04
   2.257776e+05   3.459243e+05
  -1.381489e+05   3.356573e+05
  -3.111685e+05   7.310134e+04
  -1.486510e+05  -1.321543e+05
   1.448151e+05  -6.017053e+04
   2.117482e+05   1.987207e+05
  -7.490573e+04   3.562602e+05
  -4.498728e+05   2.152322e+05
  -5.231066e+05  -1.487809e+05
  -1.987154e+05  -4.538206e+05
   2.246195e+05  -4.552905e+05
   3.766273e+05  -1.640167e+05
   1.863309e+05   1.570841e+05
  -9.277271e+04   2.371417e+05
  -1.794512e+05   5.792437e+04
  -3.661256e+04  -1.449048e+05
   1.365258e+05  -1.517448e+05
   1.356982e+05   1.855098e+02
  -3.641368e+04   7.979071e+04
  -1.706830e+05  -5.130831e+04
  -6.423273e+04  -2.644152e+05
   2.517943e+05  -2.951430e+05
   5.072791e+05  -2.733986e+04
   4.454745e+05   3.719639e+05
   8.383130e+04   5.950040e+05
  -2.998478e+05   4.692723e+05
  -4.428016e+05   1.101742e+05
  -3.315819e+05  -1.898540e+05
  -1.582482e+05  -2.358655e+05
  -8.554101e+04  -1.037490e+05
  -9.291643e+04  -3.073714e+04
  -4.342025e+04  -1.334522e+05
   1.316528e+05  -2.671475e+05
   3.268914e+05  -1.961382e+05
   3.393959e+05   1.115365e+05
   6.816996e+04   4.055592e+05
  -3.426541e+05   3.906488e+05
  -5.775741e+05   2.783584e+04
  -4.145491e+05  -4.138458e+05
   5.704896e+04  -5.982250e+05
   4.955786e+05  -4.118656e+05
   6.041666e+05  -3.638347e+04
   3.768487e+05   2.418954e+05
   6.182657e+04   2.906625e+05
  -9.545712e+04   2.144395e+05
  -6.407532e+04   1.955313e+05
  -7.673578e+03   2.721856e+05
  -8.302063e+04   2.980123e+05
  -2.645344e+05   1.264697e+05
  -3.640087e+05  -1.912002e+05
  -2.289740e+05  -4.233248e+05
   7.668073e+04  -3.763270e+05
   3.075703e+05  -8.229349e+04
   2.717016e+05   2.302170e+05
   2.429584e+04   3.375623e+05
  -1.932956e+05   1.971421e+05
  -2.061249e+05  -4.662959e+04
  -7.172781e+04  -2.065049e+05
   1.604594e+04  -2.077277e+05
  -3.578549e+04  -1.233594e+05
  -1.118594e+05  -7.329486e+04
  -2.838832e+04  -9.524788e+04
   2.350379e+05  -1.155578e+05
   4.705726e+05  -4.027341e+04
   4.333357e+05   1.341486e+05
   1.026765e+05   3.011427e+05
  -2.692139e+05   3.316202e+05
  -3.939935e+05   1.913866e+05
  -2.265038e+05  -1.361372e+04
   1.519761e+04  -1.183441e+05
   9.930894e+04  -5.460348e+04
   5.606122e+03   6.935931e+04
  -1.108496e+05   7.928191e+04
  -1.261543e+05  -5.791546e+04
  -6.147490e+04  -1.787635e+05
  -1.153801e+04  -1.201516e+05
  -2.533330e+04   5.851090e+04
  -7.288938e+04   1.261999e+05
  -8.445595e+04  -3.342729e+04
  -3.472112e+03  -2.597658e+05
   1.552544e+05  -2.935025e+05
   2.729741e+05  -7.760814e+04
   2.050149e+05   1.836913e+05
  -4.611838e+04   2.554256e+05
  -2.625926e+05   1.027300e+05
  -2.018087e+05  -1.112018e+05
   1.196482e+05  -1.977264e+05
   3.955882e+05  -8.992474e+04
   3.371035e+05   1.277002e+05
  -1.450412e+04   2.859148e+05
  -3.288098e+05   2.547174e+05
  -3.339321e+05   5.982539e+04
  -8.304372e+04  -1.201112e+05
   1.312550e+05  -1.178181e+05
   9.209953e+04   3.985674e+04
  -1.346716e+05   1.414387e+05
  -2.902844e+05   1.365860e+04
  -1.913567e+05  -2.703914e+05
   9.652252e+04  -4.339047e+05
   3.355436e+05  -2.689638e+05
   3.436311e+05   1.312648e+05
   1.405307e+05   4.317785e+05
  -1.057426e+05   3.732179e+05
  -2.349012e+05   3.311732e+04
  -1.934075e+05  -2.558822e+05
  -3.593271e+04  -2.576209e+05
   1.185497e+05  -6.246853e+04
   1.583184e+05   6.645250e+04
   7.533127e+04   2.703275e+04
  -5.257880e+03  -3.164368e+04
   4.181044e+04   4.686915e+04
   1.593849e+05   2.021419e+05
   1.373231e+05   2.499548e+05
  -1.142628e+05   1.317774e+05
  -3.880541e+05  -3.347877e+04
  -3.851506e+05  -1.274528e+05
  -8.449840e+04  -1.521470e+05
   2.111338e+05  -1.499060e+05
   2.363694e+05  -1.088555e+05
   6.484685e+04  -1.698332e+04
  -3.416005e+04   6.191236e+04
   3.604378e+04   5.997037e+04
   1.054959e+05   1.914977e+04
   7.089646e+03   3.440915e+04
  -1.854149e+05   8.672888e+04
  -2.520626e+05   4.000183e+04
  -9.154822e+04  -1.507629e+05
   1.788319e+05  -3.151856e+05
   3.566558e+05  -2.404108e+05
   3.276801e+05   6.029825e+04
   1.259623e+05   3.347152e+05
  -1.102140e+05   3.587956e+05
  -2.309893e+05   1.612608e+05
  -1.787823e+05  -3.980639e+04
  -3.670251e+04  -8.249797e+04
   4.500266e+04  -7.252910e+03
  -3.841011e+03   2.705965e+04
  -1.036016e+05  -6.105944e+04
  -1.129112e+05  -1.800982e+05
   1.724635e+04  -1.681101e+05
   1.816409e+05   1.467098e+04
   2.124997e+05   2.179138e+05
   4.495555e+04   2.480956e+05
  -1.945287e+05   7.255744e+04
  -2.823459e+05  -1.521733e+05
  -1.182591e+05  -2.491569e+05
   1.488114e+05  -1.783344e+05
   2.616044e+05  -2.527408e+04
   1.374961e+05   1.057105e+05
  -3.997582e+04   1.511116e+05
  -5.107989e+04   9.598501e+04
   8.881310e+04  -5.721153e+03
   1.630293e+05  -3.878945e+04
   4.031811e+04   6.423007e+04
  -1.653575e+05   2.085272e+05
  -2.509077e+05   2.073969e+05
  -1.621330e+05   9.315147e+03
  -1.467682e+04  -2.050471e+05
   7.094588e+04  -2.181624e+05
   7.316261e+04  -3.507979e+04
   2.504870e+04   1.272224e+05
  -4.473434e+04   1.039230e+05
  -9.915300e+04  -4.130979e+04
  -8.615652e+04  -1.289794e+05
   3.119704e+03  -8.598213e+04
   9.810337e+04   2.253553e+03
   1.167827e+05   3.023872e+04
   5.973673e+04  -3.079010e+03
   3.974082e+02  -1.899466e+04
  -1.301648e+04   3.146960e+04
  -8.965330e+03   1.074767e+05
  -3.739773e+04   1.203787e+05
  -9.116629e+04   2.899612e+04
  -1.045362e+05  -1.045761e+05
  -2.859654e+04  -1.623595e+05
   9.812936e+04  -8.697620e+04
   1.621691e+05   5.467903e+04
   7.927498e+04   1.386945e+05
  -9.887277e+04   1.078577e+05
  -2.057137e+05   1.058614e+04
  -1.272902e+05  -7.046781e+04
   5.585558e+04  -9.345888e+04
   1.423226e+05  -6.296292e+04
   4.223405e+04  -8.480997e+03
  -1.105435e+05   2.029367e+04
  -1.178473e+05  -1.964730e+04
   4.408165e+04  -9.905214e+04
   2.015448e+05  -1.084441e+05
