
 $NMID
 id='ANONYMOUS ', fmtdat='(2E16.6)'
 volume=1.0
 tramp=1.0
 $END
  -4.948769e+07   3.578065e+05
  -3.028581e+07  -2.981790e+07
   5.743483e+06  -3.337660e+07
   2.392658e+07  -1.372928e+07
   1.484512e+07   5.361577e+06
  -2.504553e+06   8.292363e+06
  -8.780914e+06  -5.365250e+05
  -2.949786e+06  -8.524914e+06
   5.131818e+06  -8.724958e+06
   8.548029e+06  -2.191886e+06
   6.349974e+06   5.492227e+06
   7.948887e+05   7.801922e+06
  -3.602266e+06   2.415616e+06
  -2.474655e+06  -5.099972e+06
   3.240713e+06  -6.161994e+06
   7.055144e+06   9.422000e+05
   4.168895e+06   9.013308e+06
  -3.155575e+06   1.056954e+07
  -8.894864e+06   5.318726e+06
  -9.525556e+06  -1.821809e+06
  -5.723730e+06  -6.564761e+06
  -5.592406e+05  -7.411834e+06
   2.313232e+06  -5.143699e+06
   1.163453e+06  -2.509829e+06
  -1.281695e+06  -2.343954e+06
  -1.121212e+05  -4.079811e+06
   5.179252e+06  -3.970668e+06
   8.913737e+06  -2.942301e+05
   6.319462e+06   3.817370e+06
  -3.867103e+03   4.531245e+06
  -3.602710e+06   2.145445e+06
  -2.223118e+06  -2.890162e+05
   9.158302e+05  -1.094712e+06
   2.490094e+06  -3.760116e+05
   2.080073e+06   1.633505e+06
   4.200810e+05   3.782576e+06
  -1.718876e+06   3.379610e+06
  -2.700532e+06  -2.822557e+05
  -1.301035e+06  -3.211433e+06
   6.865435e+05  -1.430781e+06
   1.592459e+05   2.489197e+06
  -2.288498e+06   2.220273e+06
  -2.292690e+06  -2.770987e+06
   1.888030e+06  -5.465258e+06
   5.894472e+06  -1.038564e+06
   4.527340e+06   5.959382e+06
  -1.509217e+06   7.489671e+06
  -6.545499e+06   2.204914e+06
  -6.405706e+06  -3.923121e+06
  -1.888063e+06  -5.494808e+06
   3.120320e+06  -2.633178e+06
   4.948596e+06   1.217932e+06
   2.419392e+06   3.113497e+06
  -2.054045e+06   2.063307e+06
  -4.083996e+06  -7.021862e+05
  -1.842024e+06  -2.369086e+06
   1.499775e+06  -1.253577e+06
   1.665720e+06   8.985792e+05
  -1.035356e+06   9.630572e+05
  -2.268381e+06  -1.289280e+06
   2.505517e+05  -2.903581e+06
   3.854411e+06  -1.804978e+06
   4.711161e+06   9.683621e+05
   2.181230e+06   3.437564e+06
  -1.641968e+06   4.773650e+06
  -4.675358e+06   4.412974e+06
  -5.684421e+06   1.531399e+06
  -4.092581e+06  -2.934827e+06
  -8.304362e+05  -5.654881e+06
   1.582556e+06  -4.444946e+06
   1.518119e+06  -1.325858e+06
   2.743671e+05   1.336984e+04
   2.635923e+05  -9.689243e+05
   1.727678e+06  -1.533394e+06
   2.696727e+06  -1.012350e+03
   1.835902e+06   2.014531e+06
  -1.219140e+05   2.124417e+06
  -1.625604e+06   1.582225e+05
  -1.655790e+06  -2.079116e+06
   3.829084e+04  -2.822172e+06
   2.631696e+06  -1.483966e+06
   4.101909e+06   1.191477e+06
   2.877585e+06   3.448240e+06
  -5.345133e+04   3.771606e+06
  -2.000294e+06   2.411798e+06
  -1.941752e+06   1.069072e+06
  -1.653541e+06   7.232909e+05
  -2.770546e+06   5.392506e+05
  -4.132720e+06  -6.501743e+05
  -3.344825e+06  -2.591704e+06
  -1.566547e+05  -3.947056e+06
   3.075114e+06  -3.744840e+06
   4.030333e+06  -1.988340e+06
   2.524041e+06   4.801897e+05
   1.758843e+05   2.166566e+06
  -1.119070e+06   1.813269e+06
  -5.298186e+05  -6.409763e+04
   1.066074e+06  -1.243961e+06
   1.805507e+06  -3.791586e+05
   8.459268e+05   1.135757e+06
  -5.231193e+05   1.073681e+06
  -4.688735e+05  -3.650874e+05
   9.381368e+05  -7.646662e+05
   1.794109e+06   1.028010e+06
   8.131286e+05   3.212496e+06
  -1.282620e+06   3.375173e+06
  -2.933867e+06   1.307268e+06
  -3.293323e+06  -1.242899e+06
  -2.332689e+06  -2.676173e+06
  -4.838688e+05  -2.578053e+06
   1.215518e+06  -1.421179e+06
   1.535849e+06  -2.044869e+05
   4.753800e+05   4.297094e+04
  -3.501587e+05  -7.218998e+05
   3.725843e+05  -1.273409e+06
   1.795866e+06  -5.637195e+05
   1.946218e+06   8.109623e+05
   3.968142e+05   1.337064e+06
  -1.118934e+06   5.671895e+05
  -8.896345e+05  -4.338857e+05
   7.980766e+05  -5.558592e+05
   2.150167e+06   2.423089e+05
   1.763784e+06   1.305873e+06
  -1.974740e+05   1.955904e+06
  -2.232369e+06   1.643930e+06
  -2.685275e+06   2.849186e+05
  -1.175863e+06  -1.199326e+06
   8.670303e+05  -1.424350e+06
   1.470516e+06  -1.828895e+05
   1.804940e+05   1.022945e+06
  -1.454331e+06   7.100039e+05
  -1.665514e+06  -7.334966e+05
  -3.609214e+05  -1.592789e+06
   1.028619e+06  -9.783431e+05
   1.226579e+06   2.615445e+05
   2.674819e+05   7.438936e+05
  -7.520299e+05   6.243924e+04
  -7.077280e+05  -1.009642e+06
   5.590269e+05  -1.371810e+06
   1.939942e+06  -5.199991e+05
   1.963952e+06   1.012975e+06
   3.772488e+05   1.998311e+06
  -1.375065e+06   1.591903e+06
  -1.663416e+06   2.199498e+05
  -5.002098e+05  -8.325702e+05
   6.281995e+05  -7.866502e+05
   6.287094e+05  -7.324222e+04
  -1.011144e+05   3.796446e+05
  -5.001637e+05   2.327492e+05
  -1.668748e+05  -7.389929e+04
   4.106580e+05   2.932175e+04
   5.188943e+05   6.144783e+05
  -1.713446e+05   1.143139e+06
  -1.324382e+06   8.769023e+05
  -2.013278e+06  -3.887771e+05
  -1.420816e+06  -1.871758e+06
   2.026805e+05  -2.347874e+06
   1.562552e+06  -1.392626e+06
   1.657502e+06   1.009887e+05
   8.643659e+05   8.868270e+05
   3.164342e+05   6.808320e+05
   4.336165e+05   2.405178e+05
   5.759410e+05   2.871643e+05
   8.699100e+04   7.173165e+05
  -8.343670e+05   8.801423e+05
  -1.406472e+06   3.352890e+05
  -1.040203e+06  -7.022239e+05
   2.235535e+05  -1.439624e+06
   1.665885e+06  -1.061622e+06
   2.186858e+06   4.556427e+05
   1.119000e+06   2.023344e+06
  -9.449655e+05   2.290926e+06
  -2.438698e+06   1.023940e+06
  -2.289591e+06  -6.050137e+05
  -9.652085e+05  -1.292875e+06
   1.784968e+05  -9.475790e+05
   3.985231e+05  -5.221363e+05
   1.131517e+05  -7.228587e+05
   1.140239e+05  -1.238497e+06
   6.363004e+05  -1.230201e+06
   1.237213e+06  -3.071377e+05
   1.291476e+06   1.042743e+06
   5.415833e+05   1.832314e+06
  -6.004405e+05   1.392290e+06
  -1.246621e+06   6.863271e+03
  -7.974912e+05  -1.227760e+06
   3.543344e+05  -1.350881e+06
   1.102811e+06  -4.196739e+05
   7.861547e+05   6.373186e+05
  -9.076168e+04   1.022921e+06
  -4.867261e+05   7.641952e+05
  -6.956252e+04   4.155156e+05
   4.144644e+05   3.294184e+05
   5.558629e+04   3.730388e+05
  -1.100369e+06   2.115640e+05
  -1.982878e+06  -3.073499e+05
  -1.568381e+06  -9.872369e+05
   1.300917e+04  -1.375762e+06
   1.512062e+06  -1.104219e+06
   1.764214e+06  -2.883079e+05
   8.162925e+05   4.520319e+05
  -2.404377e+05   5.409560e+05
  -4.891817e+05   4.440637e+04
  -2.510128e+04  -3.929212e+05
   4.345573e+05  -2.472250e+05
   4.646454e+05   3.292230e+05
   2.316300e+05   7.020552e+05
   7.968205e+04   4.633205e+05
   1.351575e+05  -1.031417e+05
   2.824574e+05  -2.968091e+05
   2.705773e+05   2.221965e+05
  -1.409338e+05   9.599567e+05
  -8.648438e+05   1.032577e+06
  -1.298632e+06   1.666970e+05
  -8.109722e+05  -8.805663e+05
   3.957005e+05  -1.090652e+06
   1.204812e+06  -3.189279e+05
   7.102678e+05   5.558502e+05
  -6.737531e+05   6.336975e+05
  -1.545091e+06  -7.964112e+04
  -9.958076e+05  -8.301912e+05
   4.528348e+05  -9.720707e+05
   1.455122e+06  -4.875709e+05
   1.207863e+06   1.718682e+05
   1.382842e+05   5.013132e+05
  -6.274024e+05   2.694409e+05
  -3.700950e+05  -2.791685e+05
   5.692095e+05  -5.030994e+05
   1.145385e+06   8.006159e+04
   6.475174e+05   1.144322e+06
  -5.722497e+05   1.649552e+06
  -1.438175e+06   8.606890e+05
  -1.221999e+06  -7.311207e+05
  -2.049839e+05  -1.739494e+06
   7.127223e+05  -1.264688e+06
   9.013148e+05   1.618291e+05
   4.297272e+05   1.154986e+06
  -2.029217e+05   9.462644e+05
  -5.438959e+05   8.718142e+04
  -4.583261e+05  -3.658616e+05
  -1.635604e+05  -1.348097e+05
  -4.534581e+04   9.441749e+04
  -2.678070e+05  -2.812803e+05
  -4.980507e+05  -9.338226e+05
  -1.954521e+05  -1.047878e+06
   6.867219e+05  -3.890757e+05
   1.435320e+06   4.436282e+05
   1.251302e+06   8.062517e+05
   1.841479e+05   6.766022e+05
  -8.285565e+05   4.113200e+05
  -9.557874e+05   1.834412e+05
  -3.492117e+05  -4.748184e+04
   1.405877e+05  -2.196000e+05
   3.178287e+04  -2.011903e+05
  -2.592012e+05  -9.166635e+04
  -4.955850e+04  -1.287474e+05
   6.418663e+05  -2.329303e+05
   1.016478e+06   3.153282e+03
   4.250899e+05   6.678028e+05
  -8.079227e+05   1.149967e+06
  -1.644325e+06   7.491490e+05
  -1.374330e+06  -4.061142e+05
  -2.792706e+05  -1.363304e+06
   7.334585e+05  -1.343312e+06
   1.014542e+06  -5.326999e+05
   6.382683e+05   2.193435e+05
   1.337734e+05   3.467423e+05
  -6.613162e+04   6.545557e+04
   7.970125e+04  -1.615524e+04
   2.945180e+05   3.555782e+05
   2.464527e+05   7.834683e+05
  -1.672348e+05   6.619955e+05
  -6.620733e+05  -1.090312e+05
  -7.290226e+05  -9.144490e+05
  -1.270084e+05  -1.000584e+06
   7.260670e+05  -2.520633e+05
   1.013935e+06   6.850627e+05
   3.530784e+05   1.054548e+06
  -6.842652e+05   6.690506e+05
  -1.089458e+06  -5.877084e+04
  -5.259386e+05  -5.917391e+05
   2.711656e+05  -6.659336e+05
   3.680091e+05  -3.630249e+05
  -2.361330e+05  -5.156566e+03
  -6.294545e+05   4.584286e+04
  -1.474306e+05  -2.982923e+05
   7.949054e+05  -6.677954e+05
   1.222043e+06  -5.354410e+05
   7.474996e+05   1.670925e+05
  -8.340200e+04   8.474870e+05
  -5.309282e+05   8.403790e+05
  -4.161027e+05   1.661953e+05
  -6.011841e+04  -4.625527e+05
   2.260382e+05  -4.284951e+05
   3.430006e+05   1.341579e+05
   2.545018e+05   5.576791e+05
  -4.426571e+04   4.200803e+05
  -3.804240e+05  -3.643422e+04
  -4.676285e+05  -2.702630e+05
  -2.371761e+05  -9.392938e+04
   3.817454e+04   1.491085e+05
   8.194333e+04   4.931303e+04
  -2.277614e+04  -3.391760e+05
   3.063097e+04  -5.397930e+05
   3.027187e+05  -2.257563e+05
   4.566161e+05   3.553971e+05
   1.703855e+05   6.254563e+05
  -3.894419e+05   3.134977e+05
  -6.527685e+05  -2.585871e+05
  -2.570222e+05  -5.512867e+05
   4.900752e+05  -3.629299e+05
   8.620418e+05   5.863077e+04
   4.723761e+05   3.603350e+05
  -2.797019e+05   3.975276e+05
  -6.191386e+05   2.360962e+05
  -2.480173e+05   2.268159e+04
   3.279873e+05  -7.565023e+04
   3.935147e+05   4.935086e+04
  -1.539149e+05   2.804048e+05
  -7.088687e+05   2.734347e+05
