
 $NMID
 id='ANONYMOUS ', fmtdat='(2E16.6)'
 volume=1.0
 tramp=1.0
 $END
  -3.280479e+07   2.643794e+05
  -2.096665e+07  -1.757666e+07
   1.933327e+06  -2.144084e+07
   1.493472e+07  -1.139616e+07
   1.077401e+07   1.107088e+06
  -4.628168e+05   5.668840e+06
  -6.167054e+06   1.301388e+06
  -3.469521e+06  -5.397846e+06
   2.405755e+06  -7.357756e+06
   5.853874e+06  -2.757370e+06
   4.802474e+06   3.901436e+06
   6.699788e+05   6.022447e+06
  -2.779268e+06   1.562133e+06
  -2.161596e+06  -4.494393e+06
   1.961348e+06  -5.391213e+06
   5.074414e+06  -2.945824e+04
   3.465125e+06   6.185715e+06
  -1.741764e+06   7.603882e+06
  -6.079327e+06   3.755760e+06
  -6.394117e+06  -1.521216e+06
  -3.303362e+06  -4.499910e+06
   5.038869e+04  -4.316081e+06
   8.851312e+05  -2.687091e+06
  -7.925474e+05  -1.991684e+06
  -1.968183e+06  -3.039137e+06
   3.061394e+05  -4.147737e+06
   4.994014e+06  -2.984976e+06
   7.417033e+06   4.145415e+05
   4.589666e+06   3.317040e+06
  -8.671409e+05   3.354436e+06
  -3.619928e+06   1.028951e+06
  -1.714088e+06  -1.263948e+06
   1.865196e+06  -1.716973e+06
   3.328644e+06  -1.215709e+05
   1.947236e+06   2.376968e+06
  -3.819901e+05   3.691871e+06
  -1.699718e+06   2.214261e+06
  -1.369023e+06  -9.473633e+05
  -9.763793e+04  -2.283371e+06
   5.824544e+05  -5.391689e+04
  -3.543691e+05   2.808648e+06
  -1.956053e+06   2.105718e+06
  -1.920757e+06  -1.742765e+06
   5.518944e+05  -3.772357e+06
   3.197122e+06  -9.730537e+05
   2.922140e+06   3.646014e+06
  -6.247771e+05   4.883579e+06
  -4.453786e+06   1.573340e+06
  -5.158022e+06  -2.730025e+06
  -2.060974e+06  -4.271634e+06
   2.283533e+06  -2.525869e+06
   4.309324e+06   4.228936e+05
   2.508026e+06   2.204272e+06
  -1.141431e+06   1.743963e+06
  -3.016317e+06  -1.699074e+05
  -1.590483e+06  -1.508836e+06
   9.781885e+05  -9.585091e+05
   1.537244e+06   5.827384e+05
  -2.447343e+05   1.092251e+06
  -1.703433e+06  -5.380149e+04
  -6.852664e+05  -1.442302e+06
   1.872779e+06  -1.479872e+06
   3.220183e+06   1.393957e+04
   1.825640e+06   2.114543e+06
  -1.364136e+06   3.635420e+06
  -4.085887e+06   3.408554e+06
  -4.616826e+06   9.250022e+05
  -2.904286e+06  -2.567441e+06
  -4.722385e+05  -4.538563e+06
   9.129803e+05  -3.728599e+06
   8.620401e+05  -1.665983e+06
   5.516908e+05  -7.097456e+05
   1.125369e+06  -1.070116e+06
   2.243325e+06  -9.198139e+05
   2.570203e+06   7.066380e+05
   1.411341e+06   2.406116e+06
  -5.500438e+05   2.213983e+06
  -1.930442e+06   5.633927e+04
  -1.691656e+06  -2.191006e+06
   1.699887e+05  -2.655332e+06
   2.417796e+06  -1.053341e+06
   3.269139e+06   1.327397e+06
   1.988532e+06   2.810206e+06
  -1.946632e+05   2.667615e+06
  -1.373324e+06   1.603260e+06
  -1.213405e+06   8.689581e+05
  -1.200418e+06   8.475847e+05
  -2.388752e+06   7.241707e+05
  -3.685011e+06  -3.719913e+05
  -3.078035e+06  -2.208645e+06
  -2.380374e+05  -3.597242e+06
   2.835951e+06  -3.461643e+06
   3.814282e+06  -1.692126e+06
   2.270570e+06   6.914012e+05
  -1.130172e+05   2.090216e+06
  -1.243494e+06   1.553021e+06
  -4.609667e+05  -1.549015e+05
   1.052371e+06  -1.107596e+06
   1.580407e+06  -3.300383e+05
   6.476441e+05   9.879771e+05
  -5.611454e+05   1.007607e+06
  -6.112196e+05  -2.860428e+05
   5.563234e+05  -9.806328e+05
   1.622295e+06   2.744478e+05
   1.331002e+06   2.466877e+06
  -3.551627e+05   3.359977e+06
  -2.365316e+06   1.957210e+06
  -3.372924e+06  -6.349487e+05
  -2.648695e+06  -2.496837e+06
  -6.329837e+05  -2.590853e+06
   1.189429e+06  -1.364797e+06
   1.481911e+06  -1.478632e+05
   4.420507e+05   3.416057e+04
  -3.415571e+05  -6.535994e+05
   2.571413e+05  -1.102420e+06
   1.507770e+06  -5.325635e+05
   1.735921e+06   5.906073e+05
   4.520715e+05   1.122086e+06
  -9.828928e+05   5.823254e+05
  -9.348497e+05  -3.629473e+05
   6.396997e+05  -7.006698e+05
   2.132121e+06  -4.157360e+04
   1.929888e+06   1.158543e+06
   1.207317e+03   1.992424e+06
  -2.060438e+06   1.709392e+06
  -2.510741e+06   3.564523e+05
  -1.091049e+06  -1.025013e+06
   7.335243e+05  -1.222811e+06
   1.232658e+06  -1.612240e+05
   1.137093e+05   8.769793e+05
  -1.306090e+06   6.537103e+05
  -1.560008e+06  -5.873379e+05
  -4.754703e+05  -1.446267e+06
   8.316913e+05  -1.034920e+06
   1.166523e+06   7.505814e+04
   3.647470e+05   6.292561e+05
  -6.217773e+05   8.958590e+04
  -6.373353e+05  -9.016970e+05
   5.270129e+05  -1.254105e+06
   1.796893e+06  -4.672392e+05
   1.808303e+06   9.286185e+05
   3.777427e+05   1.821142e+06
  -1.200279e+06   1.490227e+06
  -1.513624e+06   2.774616e+05
  -5.252478e+05  -7.327235e+05
   5.379714e+05  -7.690198e+05
   6.469706e+05  -7.690049e+04
  -2.409535e+04   4.678799e+05
  -5.476329e+05   3.517875e+05
  -3.503181e+05  -8.818276e+04
   2.731952e+05  -1.418811e+05
   5.429385e+05   4.216543e+05
  -4.280068e+04   1.033263e+06
  -1.173822e+06   8.601990e+05
  -1.869224e+06  -3.072445e+05
  -1.339788e+06  -1.703407e+06
   1.508456e+05  -2.209272e+06
   1.440034e+06  -1.410790e+06
   1.630205e+06  -8.552213e+03
   9.603523e+05   8.873159e+05
   3.596391e+05   8.321882e+05
   3.060174e+05   3.498021e+05
   4.079132e+05   2.164410e+05
   6.924414e+04   5.814348e+05
  -7.177880e+05   8.539104e+05
  -1.324525e+06   4.070922e+05
  -1.077158e+06  -6.550427e+05
   1.149901e+05  -1.449370e+06
   1.540105e+06  -1.095709e+06
   2.086224e+06   3.622455e+05
   1.139036e+06   1.837974e+06
  -7.397438e+05   2.133939e+06
  -2.171126e+06   1.062799e+06
  -2.185995e+06  -4.114082e+05
  -1.072692e+06  -1.173479e+06
   6.061478e+04  -1.010564e+06
   4.478552e+05  -6.172312e+05
   2.619956e+05  -6.681175e+05
   1.743914e+05  -1.055015e+06
   5.479736e+05  -1.075201e+06
   1.094518e+06  -2.765341e+05
   1.193090e+06   9.632932e+05
   5.179859e+05   1.705316e+06
  -5.536546e+05   1.306314e+06
  -1.170459e+06   4.793196e+04
  -7.888381e+05  -1.079105e+06
   2.279736e+05  -1.250668e+06
   9.210176e+05  -4.996723e+05
   7.227345e+05   4.333667e+05
   2.978812e+04   8.654180e+05
  -3.105288e+05   7.301923e+05
  -2.641452e+03   4.379100e+05
   3.678509e+05   3.311128e+05
   4.155610e+04   3.595850e+05
  -9.752769e+05   2.281047e+05
  -1.785631e+06  -2.329083e+05
  -1.471470e+06  -8.505872e+05
  -8.545133e+04  -1.215567e+06
   1.297832e+06  -1.018392e+06
   1.600911e+06  -3.523550e+05
   7.912380e+05   2.994035e+05
  -1.757236e+05   4.547921e+05
  -4.237964e+05   9.107635e+04
   7.625352e+03  -3.031320e+05
   4.377901e+05  -2.185681e+05
   4.244363e+05   3.039255e+05
   1.457173e+05   6.786154e+05
   5.221206e+03   4.400980e+05
   1.311644e+05  -1.535719e+05
   3.175461e+05  -3.517701e+05
   2.697211e+05   1.940424e+05
  -1.577234e+05   9.260925e+05
  -7.898351e+05   9.576135e+05
  -1.116658e+06   1.130697e+05
  -6.724123e+05  -8.188471e+05
   3.597268e+05  -9.461334e+05
   1.069076e+06  -2.311063e+05
   6.576586e+05   5.369082e+05
  -5.988029e+05   6.155131e+05
  -1.477476e+06  -6.351237e+03
  -1.048283e+06  -7.351305e+05
   3.270036e+05  -9.780636e+05
   1.369741e+06  -5.914112e+05
   1.202419e+06   8.027704e+04
   1.793611e+05   4.842264e+05
  -5.712362e+05   2.991570e+05
  -3.218884e+05  -2.317016e+05
   5.664321e+05  -4.386567e+05
   1.066495e+06   1.243361e+05
   5.439146e+05   1.098875e+06
  -6.094683e+05   1.521333e+06
  -1.383959e+06   7.644917e+05
  -1.149070e+06  -7.068882e+05
  -1.965700e+05  -1.651174e+06
   6.579694e+05  -1.238735e+06
   8.621307e+05   9.151964e+04
   4.692841e+05   1.072604e+06
  -1.110549e+05   9.284135e+05
  -4.888315e+05   1.159413e+05
  -4.856464e+05  -3.494189e+05
  -2.117361e+05  -1.408590e+05
  -1.952522e+04   1.059162e+05
  -1.727977e+05  -2.268373e+05
  -4.465687e+05  -8.586439e+05
  -2.622942e+05  -9.943810e+05
   5.645147e+05  -3.821397e+05
   1.366831e+06   4.062825e+05
   1.249600e+06   7.451244e+05
   1.866571e+05   6.213387e+05
  -8.329265e+05   3.895790e+05
  -9.184340e+05   2.028910e+05
  -2.803347e+05  -1.014904e+04
   1.529090e+05  -2.025751e+05
  -3.911081e+04  -2.202602e+05
  -3.163464e+05  -1.202704e+05
  -1.953599e+04  -1.261721e+05
   6.793411e+05  -1.968918e+05
   9.465035e+05   2.250567e+04
   2.960451e+05   6.185204e+05
  -8.258789e+05   1.040830e+06
  -1.497069e+06   6.509863e+05
  -1.204413e+06  -4.240639e+05
  -2.351324e+05  -1.293090e+06
   6.701370e+05  -1.236671e+06
   9.525383e+05  -4.517581e+05
   6.105830e+05   2.449410e+05
   9.490836e+04   3.253368e+05
  -1.244263e+05   2.226508e+04
   5.026296e+04  -6.177406e+04
   3.081839e+05   3.111294e+05
   2.593010e+05   7.335659e+05
  -1.722420e+05   6.064290e+05
  -6.364242e+05  -1.497073e+05
  -6.427433e+05  -9.069291e+05
  -4.066059e+04  -9.344464e+05
   7.256020e+05  -1.706224e+05
   9.295719e+05   7.076800e+05
   2.834497e+05   9.884783e+05
  -6.570080e+05   5.759696e+05
  -9.892009e+05  -7.954937e+04
  -4.511688e+05  -5.124909e+05
   2.543755e+05  -5.624754e+05
   2.918945e+05  -3.225624e+05
  -2.828438e+05  -2.660790e+04
  -6.069412e+05   3.159865e+04
  -1.157881e+05  -2.694153e+05
   7.472786e+05  -6.323743e+05
   1.094100e+06  -5.421134e+05
   6.381790e+05   1.138408e+05
  -8.755166e+04   7.706100e+05
  -4.488578e+05   7.592828e+05
  -3.322209e+05   1.078798e+05
  -2.330307e+04  -4.604508e+05
   2.267461e+05  -3.683884e+05
   3.267584e+05   1.813428e+05
   2.274931e+05   5.266738e+05
  -6.032260e+04   3.445926e+05
  -3.551818e+05  -6.010521e+04
  -4.165287e+05  -2.184482e+05
  -2.199962e+05  -5.515582e+04
   5.700869e+03   9.834443e+04
   7.201651e+04  -4.192762e+04
   5.489301e+04  -3.565231e+05
   1.420119e+05  -4.504102e+05
   3.239189e+05  -1.114832e+05
   3.559809e+05   4.043010e+05
   5.893692e+04   6.003020e+05
  -3.962925e+05   2.653864e+05
  -5.751317e+05  -2.849421e+05
  -2.099312e+05  -5.420371e+05
   4.457278e+05  -3.281584e+05
   7.761402e+05   8.704792e+04
   4.240341e+05   3.431485e+05
  -2.667355e+05   3.293686e+05
  -5.693823e+05   1.655962e+05
  -1.897976e+05   8.851257e+03
   3.705606e+05  -2.657623e+04
   3.950584e+05   1.099450e+05
  -1.944841e+05   3.008099e+05
  -7.484010e+05   2.522769e+05
