
 $NMID
 id='ANONYMOUS ', fmtdat='(2E16.6)'
 volume=1.0
 tramp=1.0
 $END
   1.216735e+07  -1.291844e+06
   8.777038e+06   5.043010e+06
   7.012511e+05   7.841809e+06
  -4.892136e+06   5.567123e+06
  -4.418810e+06   7.672586e+05
  -4.078331e+05  -2.232989e+06
   2.437471e+06  -1.263312e+06
   2.015688e+06   1.856152e+06
  -3.463575e+05   3.406645e+06
  -2.190896e+06   1.672867e+06
  -2.114889e+06  -1.405241e+06
  -4.662993e+05  -2.522271e+06
   1.133379e+06  -6.437489e+05
   1.121128e+06   2.011527e+06
  -5.084912e+05   2.537996e+06
  -2.036344e+06   4.065832e+05
  -1.736216e+06  -2.257500e+06
   2.721334e+05  -3.078604e+06
   2.179168e+06  -1.662607e+06
   2.426496e+06   4.557566e+05
   1.197882e+06   1.586985e+06
  -2.880992e+03   1.379957e+06
   2.422896e+03   7.878634e+05
   8.900210e+05   8.511390e+05
   1.187706e+06   1.586781e+06
  -1.274267e+05   2.037750e+06
  -2.294672e+06   1.375415e+06
  -3.282862e+06  -1.388025e+05
  -1.946300e+06  -1.366036e+06
   5.209024e+05  -1.395570e+06
   1.743259e+06  -3.513327e+05
   7.488042e+05   7.898442e+05
  -1.091704e+06   1.019094e+06
  -1.805384e+06   7.528063e+04
  -9.556696e+05  -1.275304e+06
   2.866591e+05  -1.768265e+06
   7.511135e+05  -8.442381e+05
   3.718460e+05   5.681935e+05
  -1.557690e+05   8.847022e+05
  -2.360207e+05  -2.700770e+05
   2.189496e+05  -1.442936e+06
   8.149664e+05  -1.055417e+06
   9.135504e+05   5.632115e+05
   1.682644e+05   1.497182e+06
  -9.161709e+05   5.968213e+05
  -1.204998e+06  -1.141141e+06
  -8.550813e+04  -1.820364e+06
   1.636195e+06  -7.856829e+05
   2.327582e+06   8.908412e+05
   1.182111e+06   1.748247e+06
  -8.576154e+05   1.284100e+06
  -1.983593e+06   9.971187e+04
  -1.309288e+06  -8.105395e+05
   3.127820e+05  -8.306132e+05
   1.250823e+06  -1.319580e+05
   7.691327e+05   5.066707e+05
  -3.368201e+05   4.418976e+05
  -7.433069e+05  -1.756267e+05
  -8.095131e+04  -5.905504e+05
   7.319466e+05  -3.077174e+05
   6.139402e+05   3.786187e+05
  -4.148125e+05   7.376579e+05
  -1.243287e+06   3.221999e+05
  -8.858058e+05  -6.711214e+05
   4.806646e+05  -1.542772e+06
   1.738866e+06  -1.540952e+06
   1.962213e+06  -4.518621e+05
   1.213453e+06   1.066174e+06
   2.835593e+05   1.935024e+06
  -1.866266e+05   1.684200e+06
  -2.345383e+05   9.128416e+05
  -3.200859e+05   5.096046e+05
  -7.080816e+05   5.581528e+05
  -1.170328e+06   3.672508e+05
  -1.233114e+06  -4.285194e+05
  -6.527111e+05  -1.219531e+06
   3.102600e+05  -1.113363e+06
   1.014472e+06  -5.201374e+04
   8.939558e+05   1.053421e+06
  -4.076071e+04   1.262731e+06
  -1.097104e+06   4.836995e+05
  -1.434750e+06  -5.772968e+05
  -8.470980e+05  -1.153724e+06
   3.930585e+04  -1.045596e+06
   4.662730e+05  -6.379693e+05
   3.927839e+05  -4.182414e+05
   4.563354e+05  -4.805991e+05
   1.056423e+06  -4.691427e+05
   1.703484e+06   5.505166e+03
   1.502466e+06   8.968975e+05
   2.403029e+05   1.666306e+06
  -1.223669e+06   1.702742e+06
  -1.756696e+06   8.628649e+05
  -1.065947e+06  -3.219557e+05
   6.305277e+04  -1.001846e+06
   5.934526e+05  -7.286240e+05
   2.170100e+05   8.661375e+04
  -4.793105e+05   5.419378e+05
  -7.156969e+05   1.964918e+05
  -3.012544e+05  -4.318554e+05
   2.607688e+05  -4.955621e+05
   3.477114e+05   1.084023e+05
  -1.597270e+05   5.562780e+05
  -7.760261e+05   9.282061e+04
  -8.499475e+05  -1.002158e+06
  -1.306939e+05  -1.661012e+06
   9.795076e+05  -1.177571e+06
   1.685747e+06   8.085995e+04
   1.430539e+06   1.109920e+06
   4.122495e+05   1.249722e+06
  -5.348065e+05   6.821802e+05
  -7.046558e+05   9.723736e+04
  -2.081531e+05  -3.818895e+03
   1.858592e+05   2.944389e+05
  -6.441357e+04   5.107384e+05
  -6.565871e+05   3.015044e+05
  -8.234068e+05  -1.881929e+05
  -2.700586e+05  -4.932395e+05
   4.359520e+05  -3.236697e+05
   4.848247e+05   1.342318e+05
  -2.526705e+05   3.995261e+05
  -1.037304e+06   1.501953e+05
  -1.014979e+06  -4.778957e+05
  -1.024312e+05  -9.834110e+05
   9.185608e+05  -9.084247e+05
   1.175862e+06  -2.603986e+05
   5.431416e+05   4.314851e+05
  -2.924035e+05   5.740800e+05
  -5.446695e+05   1.100810e+05
  -6.778828e+04  -3.932930e+05
   5.856084e+05  -3.466204e+05
   7.575253e+05   2.090536e+05
   3.005122e+05   6.640142e+05
  -3.362581e+05   5.469871e+05
  -5.655308e+05   3.871403e+04
  -2.231777e+05  -2.773613e+05
   2.718321e+05  -7.643158e+04
   3.260934e+05   3.913524e+05
  -2.069824e+05   5.995005e+05
  -8.256778e+05   2.707005e+05
  -8.722260e+05  -3.784262e+05
  -2.376804e+05  -8.364214e+05
   5.034085e+05  -7.389244e+05
   6.990187e+05  -1.898456e+05
   2.843975e+05   3.253623e+05
  -2.226064e+05   3.912676e+05
  -3.225773e+05   5.587371e+04
  -2.194016e+04  -2.542099e+05
   2.691199e+05  -2.180137e+05
   2.183115e+05   3.719921e+04
  -9.580730e+04   1.198214e+05
  -2.829027e+05  -1.423473e+05
  -4.114107e+04  -4.777185e+05
   5.094329e+05  -4.493491e+05
   8.849119e+05   7.492682e+04
   6.829667e+05   7.502902e+05
   4.411564e+02   1.048090e+06
  -6.366050e+05   7.323212e+05
  -7.898232e+05   7.257089e+04
  -5.116708e+05  -4.110121e+05
  -2.009060e+05  -4.336466e+05
  -1.231293e+05  -1.844375e+05
  -1.643601e+05  -7.121410e+04
  -4.757981e+04  -2.445048e+05
   2.958630e+05  -4.278511e+05
   6.109578e+05  -2.522925e+05
   5.480908e+05   2.764421e+05
   9.499700e+03   7.099796e+05
  -6.875329e+05   5.851681e+05
  -1.001997e+06  -9.414157e+04
  -6.147105e+05  -8.198917e+05
   2.484024e+05  -1.027709e+06
   9.661822e+05  -5.928622e+05
   1.057099e+06   9.351764e+04
   5.832312e+05   5.186129e+05
   2.389505e+04   5.128819e+05
  -2.163693e+05   3.339430e+05
  -1.447125e+05   3.148269e+05
  -6.738768e+04   4.724835e+05
  -2.135693e+05   5.032166e+05
  -4.907667e+05   1.601726e+05
  -5.853248e+05  -4.159325e+05
  -2.955642e+05  -7.862085e+05
   2.217574e+05  -6.323724e+05
   5.527401e+05  -6.708066e+04
   4.159341e+05   4.684245e+05
  -4.419168e+04   5.950606e+05
  -3.936937e+05   2.933658e+05
  -3.542632e+05  -1.395866e+05
  -7.209188e+04  -3.857374e+05
   8.718080e+04  -3.616745e+05
  -2.549713e+04  -2.217958e+05
  -1.747314e+05  -1.502659e+05
  -2.586601e+04  -1.689748e+05
   4.373912e+05  -1.439629e+05
   8.277822e+05   4.151533e+04
   7.195943e+05   3.384389e+05
   1.043800e+05   5.539803e+05
  -5.494824e+05   5.164607e+05
  -7.335996e+05   2.345842e+05
  -3.931424e+05  -8.680010e+04
   5.472226e+04  -2.064759e+05
   1.889293e+05  -6.900611e+04
  -2.271424e+03   1.230278e+05
  -2.079873e+05   1.084241e+05
  -2.042334e+05  -1.303012e+05
  -6.617476e+04  -3.176291e+05
   4.697165e+03  -2.059354e+05
  -6.013126e+04   9.020835e+04
  -1.550028e+05   1.925861e+05
  -1.360466e+05  -7.797506e+04
   5.525785e+04  -4.436890e+05
   3.363858e+05  -4.704292e+05
   4.916703e+05  -7.810800e+04
   3.156580e+05   3.601312e+05
  -1.362224e+05   4.345996e+05
  -4.768995e+05   1.221533e+05
  -3.208396e+05  -2.384234e+05
   2.568955e+05  -3.125952e+05
   7.052257e+05  -5.443264e+04
   5.453171e+05   3.094533e+05
  -1.032597e+05   4.900537e+05
  -6.343330e+05   3.517808e+05
  -5.897363e+05   1.494247e+04
  -1.107686e+05  -2.286591e+05
   2.580251e+05  -1.704761e+05
   1.531688e+05   9.072762e+04
  -2.613403e+05   2.125080e+05
  -5.015390e+05  -4.130502e+04
  -2.685027e+05  -5.064280e+05
   2.637152e+05  -7.228674e+05
   6.382517e+05  -3.844196e+05
   5.597877e+05   3.073595e+05
   1.377904e+05   7.769912e+05
  -2.747931e+05   6.154513e+05
  -4.150009e+05  -3.369226e+03
  -2.692533e+05  -4.911830e+05
   5.833535e+03  -4.545820e+05
   2.219884e+05  -7.903635e+04
   2.535172e+05   1.544956e+05
   1.194546e+05   6.668465e+04
   1.045400e+03  -5.621198e+04
   6.795676e+04   8.844427e+04
   2.292457e+05   3.864466e+05
   1.720699e+05   4.677466e+05
  -2.342498e+05   2.036541e+05
  -6.605522e+05  -1.519291e+05
  -6.296636e+05  -3.163914e+05
  -1.091965e+05  -2.837589e+05
   3.965528e+05  -2.045763e+05
   4.337149e+05  -1.282915e+05
   1.204684e+05  -1.438751e+04
  -7.244816e+04   9.782235e+04
   4.155569e+04   1.139170e+05
   1.708398e+05   5.968682e+04
   5.650051e+03   5.868614e+04
  -3.340496e+05   1.024139e+05
  -4.433419e+05   1.092740e+04
  -1.287149e+05  -2.762942e+05
   3.770919e+05  -4.994658e+05
   6.719678e+05  -3.353272e+05
   5.531197e+05   1.746433e+05
   1.382108e+05   6.045208e+05
  -2.748480e+05   5.944769e+05
  -4.333294e+05   2.259658e+05
  -2.956863e+05  -1.089874e+05
  -4.578974e+04  -1.488843e+05
   7.313296e+04  -6.863001e+02
  -1.707371e+04   4.427462e+04
  -1.634819e+05  -1.328192e+05
  -1.506518e+05  -3.388964e+05
   6.761352e+04  -2.860830e+05
   3.062517e+05   6.606471e+04
   3.146518e+05   4.209524e+05
   2.353633e+04   4.345246e+05
  -3.464570e+05   8.033343e+04
  -4.482748e+05  -3.245514e+05
  -1.474109e+05  -4.550467e+05
   2.951182e+05  -2.741566e+05
   4.574105e+05   1.525382e+04
   2.168604e+05   2.147742e+05
  -1.009716e+05   2.545883e+05
  -1.127274e+05   1.577033e+05
   1.495615e+05   1.379153e+04
   2.884421e+05  -2.775644e+04
   5.602068e+04   1.196050e+05
  -3.349764e+05   3.197501e+05
  -4.873406e+05   2.985015e+05
  -2.879447e+05  -2.158766e+04
   2.161878e+04  -3.580404e+05
   1.755516e+05  -3.637095e+05
   1.351294e+05  -4.910001e+04
   1.325771e+04   2.218191e+05
  -9.906755e+04   1.695357e+05
  -1.575787e+05  -9.187732e+04
  -1.182650e+05  -2.419820e+05
   2.193771e+04  -1.493322e+05
   1.672978e+05   2.559487e+04
   1.975112e+05   8.079038e+04
   1.057040e+05   1.079663e+04
   9.890866e+02  -3.337997e+04
  -3.522066e+04   4.620378e+04
  -3.866181e+04   1.766137e+05
  -8.329781e+04   1.955891e+05
  -1.561202e+05   3.193218e+04
  -1.556021e+05  -1.969575e+05
  -1.580441e+04  -2.801915e+05
   1.863859e+05  -1.264688e+05
   2.662606e+05   1.282190e+05
   1.040808e+05   2.546089e+05
  -1.961589e+05   1.638823e+05
  -3.572315e+05  -2.690510e+04
  -2.035627e+05  -1.503827e+05
   1.158456e+05  -1.502611e+05
   2.580255e+05  -7.865408e+04
   7.674572e+04  -7.556047e+03
  -1.893249e+05   7.931602e+03
  -1.935648e+05  -5.965037e+04
   9.872216e+04  -1.553812e+05
   3.682143e+05  -1.346133e+05
