
 $NMID
 id='ANONYMOUS ', fmtdat='(2E16.6)'
 volume=1.0
 tramp=1.0
 $END
   2.841648e+07  -1.827220e+06
   2.032088e+07   1.220709e+07
   1.356517e+06   1.834042e+07
  -1.190858e+07   1.305352e+07
  -1.078190e+07   1.822071e+06
  -1.018999e+06  -5.325168e+06
   5.952669e+06  -2.996154e+06
   4.816565e+06   4.558198e+06
  -1.055224e+06   8.251358e+06
  -5.380883e+06   3.927465e+06
  -4.876940e+06  -3.527379e+06
  -8.352365e+05  -6.053484e+06
   2.714523e+06  -1.356930e+06
   2.381723e+06   5.013125e+06
  -1.514778e+06   6.107701e+06
  -4.919068e+06   8.453223e+05
  -3.960383e+06  -5.535622e+06
   9.006882e+05  -7.331744e+06
   5.300831e+06  -3.741536e+06
   5.622597e+06   1.332175e+06
   2.556202e+06   3.784241e+06
  -1.401851e+05   3.056273e+06
   1.544610e+05   1.767959e+06
   2.288886e+06   2.314676e+06
   2.687157e+06   4.241452e+06
  -7.270456e+05   4.981296e+06
  -5.817953e+06   2.875151e+06
  -7.836988e+06  -9.134019e+05
  -4.374542e+06  -3.524917e+06
   1.536695e+06  -3.127328e+06
   4.249968e+06  -4.213105e+05
   1.576123e+06   2.140054e+06
  -2.988726e+06   2.324122e+06
  -4.531239e+06  -1.893329e+05
  -2.114495e+06  -3.364447e+06
   1.044905e+06  -4.262773e+06
   1.915575e+06  -1.858609e+06
   6.538295e+05   1.433580e+06
  -6.062148e+05   1.977312e+06
  -4.560002e+05  -8.457890e+05
   8.582672e+05  -3.520408e+06
   2.154189e+06  -2.468010e+06
   2.162840e+06   1.401544e+06
   3.696940e+05   3.581620e+06
  -2.070371e+06   1.418650e+06
  -2.687738e+06  -2.703392e+06
  -8.395096e+04  -4.258470e+06
   3.922675e+06  -1.668136e+06
   5.490005e+06   2.426425e+06
   2.678311e+06   4.389536e+06
  -2.226058e+06   3.033595e+06
  -4.856751e+06   2.170139e+04
  -3.149135e+06  -2.103088e+06
   7.645434e+05  -1.976737e+06
   2.986131e+06  -2.261192e+05
   1.823258e+06   1.241413e+06
  -8.153609e+05   1.003660e+06
  -1.791931e+06  -5.048898e+05
  -1.883507e+05  -1.495304e+06
   1.833007e+06  -7.926496e+05
   1.602573e+06   9.023213e+05
  -9.270772e+05   1.788523e+06
  -3.008426e+06   7.523594e+05
  -2.095066e+06  -1.652427e+06
   1.369454e+06  -3.632149e+06
   4.450718e+06  -3.442499e+06
   4.783877e+06  -7.707355e+05
   2.709497e+06   2.741316e+06
   3.947592e+05   4.680610e+06
  -6.268261e+05   4.078001e+06
  -6.704412e+05   2.296622e+06
  -9.469949e+05   1.289405e+06
  -1.955575e+06   1.228965e+06
  -2.982352e+06   5.977676e+05
  -2.909308e+06  -1.349542e+06
  -1.323078e+06  -3.128383e+06
   1.000499e+06  -2.658910e+06
   2.515196e+06   7.685694e+04
   2.004659e+06   2.748828e+06
  -3.201414e+05   3.064797e+06
  -2.731784e+06   9.650736e+05
  -3.340088e+06  -1.637831e+06
  -1.835808e+06  -2.876695e+06
   2.308203e+05  -2.454397e+06
   1.157508e+06  -1.450179e+06
   9.636584e+05  -9.874906e+05
   1.174077e+06  -1.141854e+06
   2.659400e+06  -1.003744e+06
   4.169437e+06   2.674757e+05
   3.539791e+06   2.422272e+06
   3.231962e+05   4.113382e+06
  -3.278595e+06   3.961966e+06
  -4.438677e+06   1.801375e+06
  -2.524392e+06  -9.813663e+05
   3.561169e+05  -2.426462e+06
   1.573911e+06  -1.655733e+06
   4.934916e+05   2.493789e+05
  -1.262266e+06   1.225567e+06
  -1.753589e+06   3.623100e+05
  -6.472213e+05  -1.078674e+06
   7.136373e+05  -1.151325e+06
   8.359100e+05   3.254104e+05
  -4.651284e+05   1.364783e+06
  -1.935493e+06   1.619277e+05
  -1.999872e+06  -2.566303e+06
  -1.295700e+05  -4.147990e+06
   2.588800e+06  -2.819345e+06
   4.179030e+06   4.290113e+05
   3.375984e+06   2.972418e+06
   8.139073e+05   3.157097e+06
  -1.429706e+06   1.587731e+06
  -1.741706e+06   1.208102e+05
  -5.095019e+05  -3.868795e+04
   4.025607e+05   7.477552e+05
  -2.319795e+05   1.225276e+06
  -1.631218e+06   6.299963e+05
  -1.968089e+06  -5.714462e+05
  -5.856251e+05  -1.225720e+06
   1.109441e+06  -7.104310e+05
   1.160126e+06   4.159098e+05
  -6.975278e+05   9.525537e+05
  -2.595079e+06   2.047331e+05
  -2.433855e+06  -1.353103e+06
  -9.339840e+04  -2.449753e+06
   2.405376e+06  -2.087469e+06
   2.921575e+06  -4.541629e+05
   1.259897e+06   1.126963e+06
  -7.913652e+05   1.341662e+06
  -1.325920e+06   1.868261e+05
  -9.428743e+04  -9.533938e+05
   1.479838e+06  -7.451106e+05
   1.816482e+06   6.255641e+05
   6.398938e+05   1.667821e+06
  -8.984470e+05   1.292934e+06
  -1.387841e+06   1.764191e+04
  -5.052240e+05  -7.032794e+05
   6.710031e+05  -1.324977e+05
   7.217364e+05   1.017889e+06
  -6.193284e+05   1.429643e+06
  -2.070851e+06   5.165673e+05
  -2.069394e+06  -1.073194e+06
  -4.459777e+05  -2.081763e+06
   1.342328e+06  -1.727364e+06
   1.734103e+06  -3.632362e+05
   6.464054e+05   8.295699e+05
  -6.016029e+05   9.156102e+05
  -7.936428e+05   7.861307e+04
  -1.112283e+03  -6.343437e+05
   7.147919e+05  -4.879820e+05
   5.418731e+05   1.468572e+05
  -2.623787e+05   3.000752e+05
  -6.890142e+05  -3.906088e+05
  -3.214697e+04  -1.187403e+06
   1.325150e+06  -1.025243e+06
   2.160557e+06   3.283186e+05
   1.552271e+06   1.951095e+06
  -1.674675e+05   2.570933e+06
  -1.679212e+06   1.700027e+06
  -1.957727e+06   5.746230e+04
  -1.202037e+06  -1.096975e+06
  -4.253833e+05  -1.112257e+06
  -2.630049e+05  -4.801481e+05
  -3.864688e+05  -1.969311e+05
  -8.164780e+04  -6.076880e+05
   7.958823e+05  -1.014074e+06
   1.555561e+06  -5.278651e+05
   1.316717e+06   7.784778e+05
  -9.122543e+04   1.763266e+06
  -1.793069e+06   1.333011e+06
  -2.450937e+06  -3.959824e+05
  -1.377501e+06  -2.112671e+06
   7.711029e+05  -2.480180e+06
   2.460561e+06  -1.302845e+06
   2.581192e+06   3.923303e+05
   1.356771e+06   1.367352e+06
  -2.192872e+04   1.272744e+06
  -5.953336e+05   7.907671e+05
  -4.177380e+05   7.425643e+05
  -2.432682e+05   1.136597e+06
  -5.989190e+05   1.193554e+06
  -1.223562e+06   3.126526e+05
  -1.364529e+06  -1.114438e+06
  -5.947574e+05  -1.974358e+06
   6.471274e+05  -1.511755e+06
   1.365180e+06  -7.407745e+04
   9.450918e+05   1.213671e+06
  -1.994796e+05   1.452419e+06
  -1.008724e+06   6.629196e+05
  -8.488977e+05  -3.909451e+05
  -1.220656e+05  -9.550433e+05
   2.659899e+05  -8.757002e+05
  -2.953156e+04  -5.508517e+05
  -4.057032e+05  -3.986156e+05
  -3.684003e+04  -4.219513e+05
   1.096796e+06  -2.862190e+05
   2.024812e+06   2.341111e+05
   1.711017e+06   9.458198e+05
   1.686128e+05   1.373218e+06
  -1.426709e+06   1.176208e+06
  -1.834044e+06   4.600614e+05
  -9.517399e+05  -2.708384e+05
   1.644784e+05  -4.964750e+05
   4.749007e+05  -1.422307e+05
  -2.284594e+04   2.999397e+05
  -5.276027e+05   2.352363e+05
  -4.816868e+05  -3.503231e+05
  -1.099842e+05  -7.903795e+05
   4.736633e+04  -5.032349e+05
  -1.646247e+05   2.163164e+05
  -4.192353e+05   4.494004e+05
  -3.255861e+05  -2.186309e+05
   2.110568e+05  -1.086571e+06
   9.066552e+05  -1.100459e+06
   1.218348e+06  -1.080679e+05
   7.125147e+05   9.362112e+05
  -4.048579e+05   1.042049e+06
  -1.187847e+06   2.209559e+05
  -7.493487e+05  -6.372324e+05
   6.790909e+05  -7.281758e+05
   1.742535e+06  -2.388321e+04
   1.295760e+06   8.476330e+05
  -3.285844e+05   1.192311e+06
  -1.616648e+06   7.674191e+05
  -1.454511e+06  -5.701181e+04
  -2.364823e+05  -5.803788e+05
   6.601958e+05  -3.771158e+05
   3.584374e+05   2.467234e+05
  -6.782499e+05   4.758349e+05
  -1.222599e+06  -1.864350e+05
  -5.729714e+05  -1.286696e+06
   7.663072e+05  -1.728923e+06
   1.628408e+06  -8.389134e+05
   1.324450e+06   8.442452e+05
   2.138735e+05   1.929754e+06
  -7.737808e+05   1.468716e+06
  -1.019764e+06  -7.360963e+04
  -5.832454e+05  -1.250235e+06
   8.740897e+04  -1.116720e+06
   5.583719e+05  -1.578678e+05
   5.984081e+05   4.223267e+05
   2.829798e+05   1.845482e+05
   1.025478e+04  -1.381983e+05
   1.494332e+05   2.263852e+05
   4.986258e+05   9.840283e+05
   3.488438e+05   1.175441e+06
  -6.047342e+05   4.626378e+05
  -1.596811e+06  -4.789184e+05
  -1.497065e+06  -8.783095e+05
  -2.231635e+05  -7.145698e+05
   1.008204e+06  -4.384773e+05
   1.086493e+06  -2.456817e+05
   2.972036e+05  -1.745675e+04
  -1.932697e+05   2.276417e+05
   8.679451e+04   2.882516e+05
   4.119071e+05   1.774642e+05
   2.223824e+03   1.462145e+05
  -8.398825e+05   1.955723e+05
  -1.089349e+06  -4.660391e+04
  -2.674400e+05  -6.979622e+05
   1.007921e+06  -1.162432e+06
   1.701114e+06  -7.129195e+05
   1.326515e+06   5.184897e+05
   2.407896e+05   1.506660e+06
  -7.708804e+05   1.414613e+06
  -1.101176e+06   4.823902e+05
  -7.082656e+05  -3.182704e+05
  -8.612643e+04  -3.734390e+05
   1.819797e+05   1.224243e+04
  -4.893656e+04   1.077101e+05
  -3.806620e+05  -3.526422e+05
  -3.143802e+05  -8.563626e+05
   2.135136e+05  -6.892206e+05
   7.401523e+05   2.146489e+05
   7.009971e+05   1.085010e+06
  -1.518605e+04   1.068451e+06
  -8.634510e+05   1.384994e+05
  -1.046255e+06  -8.703852e+05
  -2.869791e+05  -1.140194e+06
   7.688677e+05  -6.237088e+05
   1.119392e+06   1.123359e+05
   4.961451e+05   5.615250e+05
  -2.897629e+05   6.066895e+05
  -3.012040e+05   3.675240e+05
   3.668804e+05   5.806579e+04
   7.135485e+05  -2.112222e+04
   1.179081e+05   3.023851e+05
  -8.736962e+05   7.306642e+05
  -1.242676e+06   6.552722e+05
  -7.014714e+05  -9.744350e+04
   1.107455e+05  -8.740255e+05
   4.877383e+05  -8.638198e+05
   3.377627e+05  -9.789526e+04
  -4.160885e+03   5.472471e+05
  -2.708530e+05   3.993709e+05
  -3.719779e+05  -2.524969e+05
  -2.508951e+05  -6.131340e+05
   7.816314e+04  -3.613986e+05
   4.059808e+05   9.058611e+04
   4.710344e+05   2.287813e+05
   2.579614e+05   4.232958e+04
   8.714406e+03  -8.033036e+04
  -9.433608e+04   1.104228e+05
  -1.260406e+05   4.276617e+05
  -2.388568e+05   4.639295e+05
  -3.885447e+05   5.001714e+04
  -3.474346e+05  -5.098696e+05
   9.419992e+03  -6.899525e+05
   4.787219e+05  -2.793920e+05
   6.316515e+05   3.588475e+05
   2.131735e+05   6.426120e+05
  -5.077131e+05   3.703486e+05
  -8.712719e+05  -1.246989e+05
  -4.745261e+05  -4.019790e+05
   3.082443e+05  -3.484164e+05
   6.446778e+05  -1.497761e+05
   1.880368e+05  -6.673674e+03
  -4.669086e+05  -1.338029e+04
  -4.651073e+05  -1.795257e+05
   2.691071e+05  -3.656040e+05
   9.274530e+05  -2.699599e+05
