
 $NMID
 id='ANONYMOUS ', fmtdat='(2E16.6)'
 volume=1.0
 tramp=1.0
 $END
  -3.505032e+07  -6.198404e+05
  -2.206422e+07  -1.859152e+07
   2.094772e+06  -2.250871e+07
   1.582725e+07  -1.244285e+07
   1.162456e+07   6.303185e+05
  -2.621332e+05   6.019528e+06
  -6.639445e+06   1.769805e+06
  -4.027595e+06  -5.692927e+06
   2.362810e+06  -8.242149e+06
   6.312521e+06  -3.213034e+06
   5.223012e+06   4.351730e+06
   6.390417e+05   6.714866e+06
  -3.141998e+06   1.593892e+06
  -2.415877e+06  -5.197433e+06
   2.108479e+06  -6.119052e+06
   5.510654e+06  -1.275219e+05
   3.771275e+06   6.726926e+06
  -1.915919e+06   8.243521e+06
  -6.635513e+06   3.929046e+06
  -6.827194e+06  -1.895530e+06
  -3.251256e+06  -4.971662e+06
   3.466594e+05  -4.436474e+06
   8.514466e+05  -2.567378e+06
  -1.323752e+06  -2.157598e+06
  -2.476396e+06  -3.715759e+06
   4.774930e+05  -4.917289e+06
   5.906951e+06  -3.260463e+06
   8.441010e+06   7.592391e+05
   4.984573e+06   3.907063e+06
  -1.287665e+06   3.725420e+06
  -4.325870e+06   9.399235e+05
  -1.939367e+06  -1.737007e+06
   2.391652e+06  -2.182200e+06
   4.113012e+06  -9.789818e+04
   2.275357e+06   2.976362e+06
  -6.543994e+05   4.352827e+06
  -2.058019e+06   2.339507e+06
  -1.340195e+06  -1.323875e+06
   2.019538e+05  -2.537960e+06
   7.199981e+05   2.425443e+05
  -5.359772e+05   3.396074e+06
  -2.251026e+06   2.428740e+06
  -2.125781e+06  -1.860243e+06
   4.594496e+05  -4.021615e+06
   3.195027e+06  -1.000092e+06
   2.977145e+06   3.884120e+06
  -6.852875e+05   5.153536e+06
  -4.833394e+06   1.601961e+06
  -5.741152e+06  -3.046749e+06
  -2.385355e+06  -4.776231e+06
   2.533322e+06  -2.900412e+06
   4.902891e+06   3.853772e+05
   2.916761e+06   2.413963e+06
  -1.177601e+06   1.936181e+06
  -3.299532e+06  -1.543738e+05
  -1.768620e+06  -1.614293e+06
   1.061939e+06  -1.035206e+06
   1.764304e+06   6.363519e+05
  -1.237953e+05   1.279849e+06
  -1.834329e+06   1.653422e+05
  -9.367056e+05  -1.352896e+06
   1.803864e+06  -1.580157e+06
   3.431968e+06  -1.064765e+05
   2.005153e+06   2.231897e+06
  -1.615974e+06   4.014978e+06
  -4.746927e+06   3.745700e+06
  -5.237179e+06   8.839206e+05
  -3.130910e+06  -3.012205e+06
  -4.007288e+05  -5.121021e+06
   9.864629e+05  -4.200979e+06
   8.693941e+05  -2.000689e+06
   6.816700e+05  -9.994198e+05
   1.513570e+06  -1.311706e+06
   2.786947e+06  -9.580855e+05
   3.025914e+06   1.009025e+06
   1.568843e+06   2.947909e+06
  -7.551718e+05   2.640869e+06
  -2.345749e+06   4.062706e+04
  -1.988186e+06  -2.617985e+06
   2.563972e+05  -3.095997e+06
   2.827491e+06  -1.120543e+06
   3.666255e+06   1.650277e+06
   2.103774e+06   3.221242e+06
  -3.228094e+05   2.906705e+06
  -1.524468e+06   1.678552e+06
  -1.284388e+06   9.430293e+05
  -1.316479e+06   9.994023e+05
  -2.729608e+06   8.618027e+05
  -4.231136e+06  -4.209312e+05
  -3.537633e+06  -2.550864e+06
  -2.585450e+05  -4.160991e+06
   3.324971e+06  -3.987927e+06
   4.470400e+06  -1.893336e+06
   2.623131e+06   8.878700e+05
  -2.145467e+05   2.457097e+06
  -1.514245e+06   1.767643e+06
  -5.302907e+05  -2.103626e+05
   1.251926e+06  -1.267210e+06
   1.818533e+06  -3.556944e+05
   7.057266e+05   1.145849e+06
  -6.816979e+05   1.168852e+06
  -7.463133e+05  -3.211284e+05
   5.732701e+05  -1.183813e+06
   1.844358e+06   1.794784e+05
   1.632988e+06   2.734415e+06
  -2.434545e+05   3.915261e+06
  -2.651830e+06   2.406524e+06
  -3.960852e+06  -6.369250e+05
  -3.162578e+06  -2.908279e+06
  -7.598914e+05  -3.053236e+06
   1.406844e+06  -1.585806e+06
   1.736579e+06  -1.486646e+05
   5.123492e+05   4.292576e+04
  -3.930789e+05  -7.588929e+05
   2.937110e+05  -1.256229e+06
   1.720425e+06  -5.977664e+05
   1.986768e+06   6.711074e+05
   5.261045e+05   1.278303e+06
  -1.134773e+06   6.766390e+05
  -1.107188e+06  -4.192250e+05
   7.191708e+05  -8.481825e+05
   2.498504e+06  -9.543207e+04
   2.296403e+06   1.340568e+06
   3.155109e+04   2.348029e+06
  -2.400255e+06   2.006500e+06
  -2.919651e+06   4.098023e+05
  -1.251690e+06  -1.181615e+06
   8.531829e+05  -1.385964e+06
   1.402917e+06  -1.656650e+05
   1.064403e+05   1.005990e+06
  -1.514723e+06   7.423922e+05
  -1.805119e+06  -6.768361e+05
  -5.675284e+05  -1.671710e+06
   9.439815e+05  -1.217059e+06
   1.353944e+06   6.063596e+04
   4.405964e+05   7.171671e+05
  -7.061387e+05   1.024989e+05
  -7.268481e+05  -1.047246e+06
   6.270103e+05  -1.448785e+06
   2.092057e+06  -5.218205e+05
   2.087392e+06   1.094702e+06
   4.249725e+05   2.110106e+06
  -1.391352e+06   1.717709e+06
  -1.750144e+06   3.213281e+05
  -6.135580e+05  -8.454251e+05
   6.221401e+05  -8.945522e+05
   7.673246e+05  -8.598074e+04
  -1.208046e+04   5.689408e+05
  -6.545326e+05   4.391327e+05
  -4.535178e+05  -1.027561e+05
   2.860884e+05  -1.982851e+05
   6.350657e+05   4.568366e+05
  -3.304179e+04   1.188222e+06
  -1.356458e+06   9.964068e+05
  -2.165877e+06  -3.624987e+05
  -1.542643e+06  -1.982684e+06
   1.876388e+05  -2.569195e+06
   1.679444e+06  -1.650203e+06
   1.909825e+06  -2.062216e+04
   1.144497e+06   1.048236e+06
   4.317618e+05   1.013057e+06
   3.343451e+05   4.417070e+05
   4.405896e+05   2.479735e+05
   6.962297e+04   6.559908e+05
  -8.260748e+05   9.909092e+05
  -1.541935e+06   4.839091e+05
  -1.270721e+06  -7.662271e+05
   1.209030e+05  -1.704287e+06
   1.792875e+06  -1.283310e+06
   2.429900e+06   4.245077e+05
   1.326452e+06   2.132832e+06
  -8.483437e+05   2.467666e+06
  -2.506438e+06   1.234950e+06
  -2.542650e+06  -4.629562e+05
  -1.273473e+06  -1.360846e+06
   5.139536e+04  -1.199275e+06
   5.392009e+05  -7.458621e+05
   3.473355e+05  -7.783678e+05
   2.326153e+05  -1.203817e+06
   6.398291e+05  -1.225801e+06
   1.261621e+06  -3.060616e+05
   1.374287e+06   1.129783e+06
   5.880104e+05   1.986070e+06
  -6.549065e+05   1.514499e+06
  -1.361517e+06   5.383989e+04
  -9.143740e+05  -1.245422e+06
   2.541044e+05  -1.445654e+06
   1.046945e+06  -5.927830e+05
   8.277607e+05   4.740602e+05
   4.938821e+04   9.817708e+05
  -3.345742e+05   8.447982e+05
   8.474110e+03   5.182802e+05
   4.207538e+05   3.940716e+05
   4.313441e+04   4.209842e+05
  -1.122546e+06   2.611990e+05
  -2.056492e+06  -2.773702e+05
  -1.701680e+06  -9.864438e+05
  -1.075992e+05  -1.395187e+06
   1.493078e+06  -1.164655e+06
   1.851125e+06  -4.112140e+05
   9.193966e+05   3.269110e+05
  -1.991065e+05   5.137490e+05
  -4.841581e+05   1.121267e+05
   2.089001e+04  -3.382042e+05
   5.182552e+05  -2.476878e+05
   4.877538e+05   3.566996e+05
   1.473379e+05   7.974301e+05
  -1.389847e+04   5.154952e+05
   1.528570e+05  -1.906030e+05
   3.822867e+05  -4.252260e+05
   3.156994e+05   2.238404e+05
  -1.964432e+05   1.082592e+06
  -9.231490e+05   1.104099e+06
  -1.278734e+06   1.084209e+05
  -7.544768e+05  -9.601598e+05
   4.272305e+05  -1.079568e+06
   1.234098e+06  -2.413318e+05
   7.584239e+05   6.345639e+05
  -6.941148e+05   7.139279e+05
  -1.722695e+06  -4.952241e+03
  -1.237081e+06  -8.513054e+05
   3.650751e+05  -1.146455e+06
   1.595720e+06  -7.057463e+05
   1.411352e+06   8.404377e+04
   2.158226e+05   5.666583e+05
  -6.622139e+05   3.525992e+05
  -3.657340e+05  -2.668045e+05
   6.717649e+05  -4.986505e+05
   1.239591e+06   1.662874e+05
   6.087105e+05   1.291544e+06
  -7.410032e+05   1.760400e+06
  -1.626567e+06   8.673593e+05
  -1.331128e+06  -8.380220e+05
  -2.144461e+05  -1.926890e+06
   7.731261e+05  -1.446346e+06
   1.004004e+06   1.003542e+05
   5.505971e+05   1.247801e+06
  -1.186698e+05   1.086094e+06
  -5.640254e+05   1.375553e+05
  -5.747378e+05  -4.108436e+05
  -2.588221e+05  -1.675025e+05
  -1.803161e+04   1.261813e+05
  -1.799365e+05  -2.596240e+05
  -5.060490e+05  -1.000012e+06
  -3.138123e+05  -1.159582e+06
   6.418101e+05  -4.405757e+05
   1.590521e+06   4.828978e+05
   1.463486e+06   8.738465e+05
   2.140714e+05   7.210529e+05
  -9.851459e+05   4.478147e+05
  -1.074393e+06   2.350043e+05
  -3.141894e+05  -8.047557e+03
   1.848069e+05  -2.339618e+05
  -6.005157e+04  -2.614918e+05
  -3.847962e+05  -1.483942e+05
  -1.578031e+04  -1.491360e+05
   8.104402e+05  -2.202056e+05
   1.100067e+06   3.983296e+04
   3.149357e+05   7.237964e+05
  -9.874381e+05   1.196444e+06
  -1.739114e+06   7.298411e+05
  -1.379100e+06  -5.171918e+05
  -2.555924e+05  -1.510567e+06
   7.879140e+05  -1.426522e+06
   1.114123e+06  -5.058135e+05
   7.120974e+05   2.992421e+05
   1.005194e+05   3.804636e+05
  -1.603789e+05   1.783021e+04
   5.203030e+04  -8.127563e+04
   3.622389e+05   3.588201e+05
   3.010934e+05   8.548844e+05
  -2.102444e+05   7.011874e+05
  -7.441236e+05  -1.906131e+05
  -7.312724e+05  -1.073846e+06
  -2.028550e+04  -1.089009e+06
   8.579572e+05  -1.778765e+05
   1.071706e+06   8.476574e+05
   3.094260e+05   1.153909e+06
  -7.747946e+05   6.525183e+05
  -1.143360e+06  -1.084495e+05
  -5.092310e+05  -5.921137e+05
   3.031228e+05  -6.379411e+05
   3.311844e+05  -3.669109e+05
  -3.432565e+05  -3.673489e+04
  -7.104412e+05   2.897512e+04
  -1.267177e+05  -3.127887e+05
   8.755826e+05  -7.299308e+05
   1.264923e+06  -6.276768e+05
   7.256619e+05   1.307051e+05
  -1.121226e+05   8.903694e+05
  -5.191063e+05   8.709024e+05
  -3.757110e+05   1.096714e+05
  -1.600396e+04  -5.428829e+05
   2.716034e+05  -4.192124e+05
   3.811948e+05   2.265157e+05
   2.571933e+05   6.160015e+05
  -7.923228e+04   3.896179e+05
  -4.130385e+05  -7.929131e+04
  -4.763678e+05  -2.508339e+05
  -2.538029e+05  -5.883422e+04
  -2.401142e+03   1.059661e+05
   8.039584e+04  -6.799694e+04
   8.346069e+04  -4.252924e+05
   1.969998e+05  -5.133236e+05
   3.900156e+05  -1.049622e+05
   3.959314e+05   4.920714e+05
   4.029931e+04   7.050497e+05
  -4.714418e+05   2.993800e+05
  -6.591901e+05  -3.476916e+05
  -2.327732e+05  -6.391760e+05
   5.188283e+05  -3.743300e+05
   8.956943e+05   1.169237e+05
   4.858481e+05   4.050119e+05
  -3.158066e+05   3.708454e+05
  -6.630886e+05   1.740866e+05
  -2.114400e+05   4.314396e+03
   4.470860e+05  -1.913681e+04
   4.663651e+05   1.454575e+05
  -2.394487e+05   3.582224e+05
  -8.922115e+05   2.878721e+05
