
 $NMID
 id='ANONYMOUS ', fmtdat='(2E16.6)'
 volume=1.0
 tramp=1.0
 $END
  -2.029298e+07  -1.467388e+05
  -1.375569e+07  -9.521691e+06
  -1.106935e+05  -1.295830e+07
   8.941315e+06  -8.770517e+06
   7.681209e+06  -9.562682e+05
   5.442924e+05   3.785633e+06
  -4.311142e+06   1.959797e+06
  -3.279496e+06  -3.380572e+06
   1.010943e+06  -5.859515e+06
   3.962840e+06  -2.616366e+06
   3.345630e+06   2.739526e+06
   3.469057e+05   4.397658e+06
  -2.028843e+06   8.514863e+05
  -1.540853e+06  -3.725150e+06
   1.297790e+06  -4.338907e+06
   3.528039e+06  -4.154419e+05
   2.589905e+06   4.111666e+06
  -9.608801e+05   5.185303e+06
  -3.962410e+06   2.413104e+06
  -3.954990e+06  -1.253147e+06
  -1.601124e+06  -2.862044e+06
   3.185227e+05  -2.153853e+06
  -1.743358e+04  -1.182297e+06
  -1.626031e+06  -1.693447e+06
  -1.850202e+06  -3.182233e+06
   7.110963e+05  -3.617900e+06
   4.360838e+06  -1.861404e+06
   5.657749e+06   9.977091e+05
   3.005610e+06   2.754808e+06
  -1.282658e+06   2.220393e+06
  -3.143450e+06   1.339700e+05
  -1.090640e+06  -1.654078e+06
   2.265017e+06  -1.637188e+06
   3.327186e+06   2.761174e+05
   1.444080e+06   2.552489e+06
  -9.348128e+05   3.095551e+06
  -1.497018e+06   1.256184e+06
  -4.119820e+05  -1.126847e+06
   5.702917e+05  -1.430590e+06
   3.412082e+05   6.742463e+05
  -7.515028e+05   2.560079e+06
  -1.649189e+06   1.710434e+06
  -1.487968e+06  -1.077768e+06
  -1.354244e+05  -2.533988e+06
   1.481256e+06  -8.804066e+05
   1.750321e+06   2.042230e+06
  -1.371772e+05   3.002690e+06
  -2.873418e+06   9.994121e+05
  -3.844397e+06  -1.959135e+06
  -1.768816e+06  -3.250184e+06
   1.705294e+06  -2.107146e+06
   3.498373e+06   1.466015e+05
   2.199982e+06   1.613752e+06
  -6.068760e+05   1.381293e+06
  -2.138560e+06   4.775668e+04
  -1.256174e+06  -9.508922e+05
   6.210477e+05  -6.813394e+05
   1.276811e+06   4.237706e+05
   1.141344e+05   1.077650e+06
  -1.310625e+06   5.347313e+05
  -1.122289e+06  -6.423198e+05
   6.888497e+05  -1.202917e+06
   2.147290e+06  -4.270936e+05
   1.419807e+06   1.249475e+06
  -1.151045e+06   2.558274e+06
  -3.377086e+06   2.307532e+06
  -3.500832e+06   3.461995e+05
  -1.834768e+06  -2.116999e+06
  -8.260560e+04  -3.404426e+06
   6.002731e+05  -2.911181e+06
   5.408900e+05  -1.641413e+06
   7.231694e+05  -9.349711e+05
   1.489391e+06  -8.548710e+05
   2.225338e+06  -3.297274e+05
   2.089842e+06   1.106969e+06
   8.566635e+05   2.348191e+06
  -8.286769e+05   1.918937e+06
  -1.841631e+06  -1.347898e+05
  -1.371641e+06  -2.073184e+06
   3.464629e+05  -2.221880e+06
   2.030554e+06  -5.913370e+05
   2.358233e+06   1.337401e+06
   1.194180e+06   2.168845e+06
  -2.906161e+05   1.753918e+06
  -9.009246e+05   9.746166e+05
  -7.223610e+05   6.579200e+05
  -8.783921e+05   7.808003e+05
  -1.955381e+06   6.329756e+05
  -3.006915e+06  -3.447544e+05
  -2.476190e+06  -1.884438e+06
  -8.554801e+04  -2.995534e+06
   2.527021e+06  -2.757940e+06
   3.299199e+06  -1.144689e+06
   1.805287e+06   8.150206e+05
  -3.529419e+05   1.762249e+06
  -1.215135e+06   1.149793e+06
  -3.525417e+05  -2.021698e+05
   9.646358e+05  -8.456743e+05
   1.285169e+06  -1.969615e+05
   4.254697e+05   8.095629e+05
  -5.615390e+05   8.150468e+05
  -5.997804e+05  -2.576403e+05
   3.669687e+05  -9.729062e+05
   1.386884e+06  -6.866247e+04
   1.360979e+06   1.901298e+06
  -2.184890e+04   2.998689e+06
  -1.947372e+06   1.966641e+06
  -3.014603e+06  -4.373296e+05
  -2.361569e+06  -2.268079e+06
  -4.889077e+05  -2.324446e+06
   1.097889e+06  -1.105214e+06
   1.274045e+06  -2.489412e+04
   3.690772e+05   4.658806e+04
  -2.655004e+05  -5.564898e+05
   2.122496e+05  -8.761154e+05
   1.202271e+06  -3.939700e+05
   1.402063e+06   4.828637e+05
   3.811138e+05   9.047896e+05
  -8.269279e+05   4.765458e+05
  -8.297516e+05  -3.379714e+05
   5.312150e+05  -6.681509e+05
   1.887568e+06  -6.717182e+04
   1.726526e+06   1.059977e+06
  -9.292165e+03   1.782735e+06
  -1.817304e+06   1.434858e+06
  -2.137487e+06   2.274359e+05
  -8.722424e+05  -8.620176e+05
   6.245401e+05  -9.410630e+05
   9.666077e+05  -8.345287e+04
   3.035627e+04   6.954562e+05
  -1.100747e+06   4.863266e+05
  -1.294752e+06  -5.166495e+05
  -4.085510e+05  -1.229454e+06
   6.909950e+05  -9.075439e+05
   1.004529e+06   3.018861e+04
   3.443253e+05   5.227316e+05
  -4.874102e+05   7.039324e+04
  -4.845966e+05  -7.644971e+05
   5.030315e+05  -1.014767e+06
   1.523447e+06  -2.986013e+05
   1.463376e+06   8.554467e+05
   2.480192e+05   1.526950e+06
  -1.035464e+06   1.204497e+06
  -1.270487e+06   2.026812e+05
  -4.412215e+05  -6.228215e+05
   4.668703e+05  -6.436974e+05
   5.812955e+05  -3.169917e+04
  -1.537580e+04   4.614295e+05
  -5.343337e+05   3.355356e+05
  -3.948760e+05  -1.198688e+05
   1.921399e+05  -2.093676e+05
   4.825908e+05   3.025300e+05
  -1.788413e+04   8.588227e+05
  -9.971798e+05   6.955735e+05
  -1.555887e+06  -3.161171e+05
  -1.055902e+06  -1.472826e+06
   2.134756e+05  -1.862136e+06
   1.278092e+06  -1.178033e+06
   1.424720e+06   2.312612e+04
   8.415391e+05   8.382574e+05
   2.780376e+05   8.289674e+05
   1.746891e+05   3.667736e+05
   2.670911e+05   1.604711e+05
   3.287352e+04   4.423548e+05
  -6.130659e+05   7.065960e+05
  -1.147172e+06   3.295136e+05
  -9.316574e+05  -6.109046e+05
   1.244586e+05  -1.278437e+06
   1.347929e+06  -9.058233e+05
   1.766093e+06   3.738252e+05
   9.255032e+05   1.580512e+06
  -6.460183e+05   1.769127e+06
  -1.828409e+06   8.572851e+05
  -1.858232e+06  -3.720088e+05
  -9.413601e+05  -1.035937e+06
   5.400911e+04  -9.248690e+05
   4.595147e+05  -5.603277e+05
   3.363752e+05  -5.300576e+05
   2.242566e+05  -8.165028e+05
   4.799302e+05  -8.417495e+05
   8.991175e+05  -1.801917e+05
   9.505172e+05   8.598843e+05
   3.607341e+05   1.456166e+06
  -5.248433e+05   1.075364e+06
  -9.936328e+05   5.988849e+03
  -6.418134e+05  -9.125419e+05
   1.946790e+05  -1.044331e+06
   7.495250e+05  -4.448845e+05
   5.963076e+05   3.099002e+05
   5.454121e+04   6.912159e+05
  -2.194995e+05   6.219638e+05
   5.582757e+03   4.010212e+05
   2.805161e+05   3.064412e+05
   1.116794e+04   3.090211e+05
  -8.049159e+05   1.668709e+05
  -1.458893e+06  -2.450308e+05
  -1.206712e+06  -7.472026e+05
  -7.338252e+04  -9.979703e+05
   1.076342e+06  -7.981166e+05
   1.345233e+06  -2.689297e+05
   6.783996e+05   2.259635e+05
  -1.379477e+05   3.512473e+05
  -3.474035e+05   8.647089e+04
   3.136056e+04  -2.163931e+05
   3.941734e+05  -1.526437e+05
   3.370931e+05   2.727408e+05
   4.937341e+04   5.824527e+05
  -5.498917e+04   3.671692e+05
   1.257238e+05  -1.533690e+05
   3.201661e+05  -3.158322e+05
   2.282865e+05   1.699492e+05
  -1.934419e+05   7.841151e+05
  -6.990030e+05   7.654715e+05
  -8.875727e+05   2.842800e+04
  -4.803562e+05  -7.098542e+05
   3.349466e+05  -7.396537e+05
   8.722951e+05  -1.125134e+05
   5.220345e+05   4.916491e+05
  -5.184292e+05   5.043301e+05
  -1.266523e+06  -4.259660e+04
  -9.137719e+05  -6.577211e+05
   2.764502e+05  -8.537070e+05
   1.198580e+06  -5.041263e+05
   1.054896e+06   8.884707e+04
   1.531711e+05   4.291967e+05
  -4.912372e+05   2.512627e+05
  -2.495298e+05  -1.921606e+05
   5.128384e+05  -3.212771e+05
   8.837310e+05   1.820779e+05
   3.685263e+05   9.598083e+05
  -6.237673e+05   1.231296e+06
  -1.217704e+06   5.506756e+05
  -9.334428e+05  -6.628353e+05
  -8.621278e+04  -1.411736e+06
   6.137559e+05  -1.041371e+06
   7.370833e+05   8.784937e+04
   3.805228e+05   9.273182e+05
  -9.968118e+04   8.070634e+05
  -4.095079e+05   9.478465e+04
  -4.219368e+05  -3.268440e+05
  -2.017186e+05  -1.426030e+05
  -1.093607e+04   9.991639e+04
  -9.608569e+04  -1.717505e+05
  -3.254115e+05  -7.338272e+05
  -2.143500e+05  -8.647334e+05
   4.529646e+05  -3.119416e+05
   1.144161e+06   4.051723e+05
   1.059022e+06   6.897991e+05
   1.361747e+05   5.267440e+05
  -7.510719e+05   2.844928e+05
  -7.986089e+05   1.410715e+05
  -2.136745e+05   1.215521e+03
   1.497033e+05  -1.593058e+05
  -5.634827e+04  -2.112949e+05
  -2.969612e+05  -1.423896e+05
   4.578770e+03  -1.075517e+05
   6.214989e+05  -1.138260e+05
   7.908825e+05   7.451147e+04
   1.650014e+05   5.210229e+05
  -7.791915e+05   8.099584e+05
  -1.263368e+06   4.528527e+05
  -9.443873e+05  -4.302939e+05
  -1.198044e+05  -1.105997e+06
   6.123891e+05  -9.989714e+05
   8.201881e+05  -3.088630e+05
   5.053018e+05   2.581786e+05
   4.785746e+04   2.757980e+05
  -1.356841e+05  -1.453628e+04
   3.676770e+04  -7.724812e+04
   2.641936e+05   2.681734e+05
   1.984227e+05   6.328815e+05
  -1.813599e+05   4.934295e+05
  -5.327511e+05  -1.840609e+05
  -4.707471e+05  -8.178212e+05
   5.287248e+04  -7.793670e+05
   6.371633e+05  -6.871577e+04
   7.309887e+05   6.742313e+05
   1.654126e+05   8.414754e+05
  -5.844450e+05   4.242635e+05
  -8.096492e+05  -1.246665e+05
  -3.370296e+05  -4.264711e+05
   2.352688e+05  -4.282425e+05
   2.310654e+05  -2.534534e+05
  -2.678818e+05  -5.397142e+04
  -5.207121e+05  -1.043822e+04
  -7.346958e+04  -2.247281e+05
   6.617513e+05  -4.998305e+05
   9.240007e+05  -4.306832e+05
   5.025676e+05   9.732438e+04
  -1.136264e+05   6.310586e+05
  -3.854849e+05   6.074004e+05
  -2.489874e+05   5.479163e+04
   2.311345e+04  -4.001213e+05
   2.134103e+05  -2.799031e+05
   2.637158e+05   1.990166e+05
   1.598501e+05   4.555838e+05
  -7.266091e+04   2.588995e+05
  -2.929059e+05  -8.164616e+04
  -3.320152e+05  -1.830912e+05
  -1.846610e+05  -3.907595e+04
  -1.201988e+04   5.775251e+04
   6.892842e+04  -7.990611e+04
   1.084712e+05  -3.108472e+05
   1.969501e+05  -3.311573e+05
   2.898473e+05  -2.017049e+04
   2.342944e+05   3.889088e+05
  -3.512314e+04   5.059224e+05
  -3.605873e+05   1.859183e+05
  -4.465821e+05  -2.870040e+05
  -1.314447e+05  -4.772110e+05
   3.826682e+05  -2.497974e+05
   6.291101e+05   1.248684e+05
   3.299479e+05   3.105224e+05
  -2.387048e+05   2.407427e+05
  -4.760737e+05   8.299737e+04
  -1.359613e+05  -4.146888e+03
   3.430827e+05   2.578543e+04
   3.352029e+05   1.487227e+05
  -2.092791e+05   2.594618e+05
  -6.874734e+05   1.657710e+05
