
 $NMID
 id='ANONYMOUS ', fmtdat='(2E16.6)'
 volume=1.0
 tramp=1.0
 $END
   2.480095e+07  -9.224810e+05
   1.765072e+07   1.021844e+07
   1.442449e+06   1.564842e+07
  -1.020888e+07   1.194068e+07
  -9.679030e+06   2.335663e+06
  -1.237579e+06  -4.671341e+06
   5.310829e+06  -3.135342e+06
   4.668586e+06   3.911320e+06
  -6.469330e+05   7.731375e+06
  -4.790101e+06   3.814004e+06
  -4.410393e+06  -3.263020e+06
  -6.812384e+05  -5.621083e+06
   2.553909e+06  -1.121363e+06
   2.216380e+06   4.835976e+06
  -1.326446e+06   5.788548e+06
  -4.428795e+06   8.954223e+05
  -3.603670e+06  -4.964731e+06
   7.927290e+05  -6.582190e+06
   4.767733e+06  -3.231689e+06
   4.913424e+06   1.414598e+06
   1.950985e+06   3.441301e+06
  -3.911886e+05   2.446450e+06
   3.095003e+05   1.227350e+06
   2.568669e+06   2.120138e+06
   2.754035e+06   4.285110e+06
  -8.283355e+05   4.908114e+06
  -5.732149e+06   2.583784e+06
  -7.429261e+06  -1.145932e+06
  -3.924344e+06  -3.464690e+06
   1.735492e+06  -2.870231e+06
   4.216888e+06  -1.739506e+05
   1.471258e+06   2.310932e+06
  -3.102754e+06   2.406402e+06
  -4.608042e+06  -2.382432e+05
  -2.049998e+06  -3.460731e+06
   1.211923e+06  -4.186938e+06
   1.934822e+06  -1.591244e+06
   4.086306e+05   1.584819e+06
  -8.678706e+05   1.808039e+06
  -4.725443e+05  -1.092194e+06
   9.535308e+05  -3.524532e+06
   2.075825e+06  -2.369594e+06
   2.003253e+06   1.215871e+06
   5.183797e+05   3.152740e+06
  -1.544844e+06   1.262108e+06
  -2.230874e+06  -2.304385e+06
  -1.147516e+05  -3.661474e+06
   3.496944e+06  -1.409367e+06
   5.089558e+06   2.249739e+06
   2.577956e+06   4.094200e+06
  -2.057046e+06   2.906853e+06
  -4.616261e+06   1.056134e+05
  -3.054897e+06  -1.917192e+06
   6.085957e+05  -1.840562e+06
   2.713727e+06  -2.569003e+05
   1.700433e+06   1.082847e+06
  -7.220444e+05   9.043672e+05
  -1.718445e+06  -4.559810e+05
  -3.243085e+05  -1.463168e+06
   1.653921e+06  -9.708403e+05
   1.684110e+06   5.924301e+05
  -5.685764e+05   1.612738e+06
  -2.645286e+06   8.346575e+05
  -1.926302e+06  -1.406120e+06
   1.364221e+06  -3.330212e+06
   4.322349e+06  -3.132122e+06
   4.523698e+06  -5.646557e+05
   2.401551e+06   2.687470e+06
   2.411173e+05   4.401289e+06
  -5.509073e+05   3.837686e+06
  -5.426087e+05   2.285908e+06
  -9.642655e+05   1.401019e+06
  -2.084023e+06   1.240039e+06
  -3.048196e+06   4.676110e+05
  -2.845512e+06  -1.482909e+06
  -1.208662e+06  -3.167547e+06
   1.078543e+06  -2.632803e+06
   2.526822e+06   1.028304e+05
   1.955265e+06   2.731755e+06
  -3.692280e+05   2.977844e+06
  -2.663906e+06   8.369715e+05
  -3.113933e+06  -1.689935e+06
  -1.588851e+06  -2.751883e+06
   3.139336e+05  -2.206530e+06
   1.061487e+06  -1.239734e+06
   8.259887e+05  -8.962478e+05
   1.072320e+06  -1.116411e+06
   2.538896e+06  -9.828746e+05
   3.993994e+06   2.614812e+05
   3.388607e+06   2.343741e+06
   2.856976e+05   3.969429e+06
  -3.214239e+06   3.798088e+06
  -4.339516e+06   1.668012e+06
  -2.429314e+06  -1.031530e+06
   4.251693e+05  -2.373883e+06
   1.590067e+06  -1.568094e+06
   4.729488e+05   2.677501e+05
  -1.250392e+06   1.166317e+06
  -1.683207e+06   3.240572e+05
  -5.841676e+05  -1.043292e+06
   7.186286e+05  -1.113157e+06
   8.408682e+05   3.055771e+05
  -3.880864e+05   1.360702e+06
  -1.839510e+06   2.766580e+05
  -2.008902e+06  -2.375789e+06
  -2.648680e+05  -4.032328e+06
   2.432466e+06  -2.843649e+06
   4.087742e+06   3.392280e+05
   3.339273e+06   2.898083e+06
   8.008555e+05   3.100164e+06
  -1.412636e+06   1.534337e+06
  -1.701680e+06   9.187103e+04
  -4.930349e+05  -4.173766e+04
   3.847516e+05   7.242712e+05
  -2.222488e+05   1.163951e+06
  -1.552795e+06   5.884079e+05
  -1.878810e+06  -5.431916e+05
  -5.671214e+05  -1.165060e+06
   1.067867e+06  -6.858703e+05
   1.140303e+06   4.020855e+05
  -6.568372e+05   9.493375e+05
  -2.532828e+06   2.317437e+05
  -2.401514e+06  -1.313268e+06
  -1.100367e+05  -2.402894e+06
   2.341910e+06  -2.033797e+06
   2.834467e+06  -4.286161e+05
   1.204639e+06   1.086522e+06
  -7.698020e+05   1.267436e+06
  -1.258928e+06   1.597888e+05
  -6.715128e+04  -9.113575e+05
   1.432091e+06  -7.030597e+05
   1.751760e+06   6.050144e+05
   6.301256e+05   1.609698e+06
  -8.529768e+05   1.264289e+06
  -1.343432e+06   3.867438e+04
  -5.039308e+05  -6.688924e+05
   6.337242e+05  -1.248082e+05
   6.824378e+05   9.865824e+05
  -6.174356e+05   1.373979e+06
  -2.010690e+06   4.746764e+05
  -1.989025e+06  -1.059582e+06
  -4.140880e+05  -2.012695e+06
   1.302054e+06  -1.658175e+06
   1.674144e+06  -3.474234e+05
   6.285244e+05   7.995060e+05
  -5.812482e+05   8.867747e+05
  -7.823940e+05   7.232493e+04
  -1.378446e+04  -6.354838e+05
   7.091378e+05  -4.966949e+05
   5.647401e+05   1.440185e+05
  -2.277923e+05   3.185559e+05
  -6.696748e+05  -3.521544e+05
  -4.145159e+04  -1.139638e+06
   1.280832e+06  -9.859749e+05
   2.086703e+06   3.299129e+05
   1.485339e+06   1.898199e+06
  -1.807330e+05   2.492834e+06
  -1.637536e+06   1.652789e+06
  -1.911706e+06   5.978835e+04
  -1.188124e+06  -1.082394e+06
  -4.220043e+05  -1.121115e+06
  -2.344679e+05  -4.983376e+05
  -3.434756e+05  -1.895884e+05
  -6.651519e+04  -5.721832e+05
   7.684208e+05  -9.788167e+05
   1.512178e+06  -5.151262e+05
   1.290127e+06   7.643010e+05
  -8.343941e+04   1.726469e+06
  -1.744992e+06   1.294381e+06
  -2.378598e+06  -3.948309e+05
  -1.330751e+06  -2.048222e+06
   7.442234e+05  -2.389567e+06
   2.372905e+06  -1.255149e+06
   2.502202e+06   3.736448e+05
   1.335328e+06   1.325974e+06
  -7.490114e+03   1.255528e+06
  -5.959548e+05   7.904035e+05
  -4.455459e+05   7.204949e+05
  -2.660289e+05   1.081162e+06
  -5.866287e+05   1.133800e+06
  -1.177386e+06   2.856840e+05
  -1.308171e+06  -1.093180e+06
  -5.582410e+05  -1.918779e+06
   6.415487e+05  -1.459933e+06
   1.323988e+06  -6.641559e+04
   9.099788e+05   1.170803e+06
  -1.877186e+05   1.399647e+06
  -9.579509e+05   6.500860e+05
  -8.099388e+05  -3.548169e+05
  -1.284310e+05  -9.038892e+05
   2.364719e+05  -8.437767e+05
  -3.785267e+04  -5.422353e+05
  -3.860903e+05  -3.964761e+05
  -2.951495e+04  -4.122612e+05
   1.054308e+06  -2.700984e+05
   1.944696e+06   2.398159e+05
   1.647440e+06   9.198977e+05
   1.665267e+05   1.314742e+06
  -1.372383e+06   1.118046e+06
  -1.769964e+06   4.421828e+05
  -9.209263e+05  -2.458663e+05
   1.566277e+05  -4.671458e+05
   4.530417e+05  -1.418376e+05
  -3.445926e+04   2.786187e+05
  -5.212723e+05   2.212698e+05
  -4.612446e+05  -3.444518e+05
  -8.453964e+04  -7.752199e+05
   6.531238e+04  -4.918307e+05
  -1.605988e+05   2.200688e+05
  -4.192845e+05   4.489634e+05
  -3.162290e+05  -2.119247e+05
   2.203924e+05  -1.058431e+06
   8.871897e+05  -1.055176e+06
   1.164069e+06  -7.907494e+04
   6.630997e+05   9.179738e+05
  -4.044555e+05   9.905682e+05
  -1.145110e+06   1.854950e+05
  -7.193901e+05  -6.297030e+05
   6.588298e+05  -7.025540e+05
   1.694186e+06  -2.034063e+04
   1.270350e+06   8.223051e+05
  -3.083533e+05   1.163245e+06
  -1.572212e+06   7.557713e+05
  -1.421819e+06  -5.085247e+04
  -2.342855e+05  -5.664814e+05
   6.390421e+05  -3.679969e+05
   3.387994e+05   2.378856e+05
  -6.711216e+05   4.491408e+05
  -1.184788e+06  -2.040625e+05
  -5.305795e+05  -1.262354e+06
   7.776146e+05  -1.667363e+06
   1.597854e+06  -7.897486e+05
   1.277913e+06   8.372308e+05
   1.891937e+05   1.878668e+06
  -7.617639e+05   1.427568e+06
  -9.897422e+05  -6.887171e+04
  -5.662167e+05  -1.214265e+06
   7.831566e+04  -1.087859e+06
   5.376029e+05  -1.535721e+05
   5.880489e+05   4.149931e+05
   2.853282e+05   1.825670e+05
   5.912908e+03  -1.366562e+05
   1.249226e+05   2.167822e+05
   4.686884e+05   9.572987e+05
   3.431377e+05   1.143353e+06
  -5.744329e+05   4.429468e+05
  -1.548366e+06  -4.784097e+05
  -1.458817e+06  -8.623955e+05
  -2.114471e+05  -6.923833e+05
   9.942607e+05  -4.180830e+05
   1.060102e+06  -2.343941e+05
   2.773939e+05  -1.901414e+04
  -1.943945e+05   2.190730e+05
   9.676419e+04   2.843179e+05
   4.143756e+05   1.805467e+05
  -4.724924e+03   1.440959e+05
  -8.338691e+05   1.797551e+05
  -1.055924e+06  -6.084262e+04
  -2.307130e+05  -6.826350e+05
   1.005729e+06  -1.112506e+06
   1.650854e+06  -6.615889e+05
   1.266079e+06   5.292999e+05
   2.130505e+05   1.468570e+06
  -7.599862e+05   1.359099e+06
  -1.075678e+06   4.467711e+05
  -6.880101e+05  -3.237923e+05
  -7.337372e+04  -3.645111e+05
   1.909600e+05   1.930388e+04
  -4.161953e+04   1.126368e+05
  -3.713904e+05  -3.401823e+05
  -3.019501e+05  -8.327830e+05
   2.180796e+05  -6.642009e+05
   7.211064e+05   2.251147e+05
   6.625075e+05   1.071960e+06
  -4.219809e+04   1.039012e+06
  -8.512212e+05   1.136734e+05
  -1.004460e+06  -8.697907e+05
  -2.567402e+05  -1.111207e+06
   7.578169e+05  -5.871922e+05
   1.079278e+06   1.270242e+05
   4.651262e+05   5.429481e+05
  -2.900253e+05   5.728193e+05
  -2.857773e+05   3.475924e+05
   3.690078e+05   6.214456e+04
   6.965002e+05  -1.139872e+04
   1.061862e+05   2.934302e+05
  -8.554798e+05   7.012536e+05
  -1.200213e+06   6.290630e+05
  -6.648865e+05  -9.555583e+04
   1.194569e+05  -8.423324e+05
   4.732769e+05  -8.251403e+05
   3.187338e+05  -7.915950e+04
  -1.547119e+04   5.378496e+05
  -2.714029e+05   3.783873e+05
  -3.616583e+05  -2.601544e+05
  -2.349183e+05  -5.987680e+05
   8.552273e+04  -3.404241e+05
   3.937366e+05   9.754117e+04
   4.486903e+05   2.205446e+05
   2.480119e+05   3.704283e+04
   1.722462e+04  -7.050534e+04
  -8.805381e+04   1.242121e+05
  -1.409320e+05   4.247570e+05
  -2.623234e+05   4.408053e+05
  -3.899499e+05   2.541145e+04
  -3.198132e+05  -5.160178e+05
   3.660848e+04  -6.763819e+05
   4.750279e+05  -2.614854e+05
   6.032605e+05   3.650693e+05
   1.947624e+05   6.322147e+05
  -4.941255e+05   3.509845e+05
  -8.387581e+05  -1.380098e+05
  -4.525640e+05  -3.968372e+05
   3.054164e+05  -3.260779e+05
   6.270793e+05  -1.266355e+05
   1.741963e+05  -1.889484e+02
  -4.677673e+05  -2.440301e+04
  -4.574568e+05  -1.911189e+05
   2.737239e+05  -3.618621e+05
   9.202079e+05  -2.549137e+05
