
 $NMID
 id='ANONYMOUS ', fmtdat='(2E16.6)'
 volume=1.0
 tramp=1.0
 $END
   4.768889e+07   1.201107e+06
   2.816287e+07   2.921844e+07
  -6.340004e+06   3.166408e+07
  -2.308634e+07   1.276062e+07
  -1.402942e+07  -5.125653e+06
   2.460192e+06  -7.811788e+06
   8.329301e+06   4.829084e+05
   2.798772e+06   8.107141e+06
  -4.889885e+06   8.403095e+06
  -8.199492e+06   2.078948e+06
  -6.069085e+06  -5.473263e+06
  -6.308151e+05  -7.667124e+06
   3.616606e+06  -2.245206e+06
   2.426563e+06   5.125366e+06
  -3.148431e+06   6.034459e+06
  -6.765277e+06  -9.778696e+05
  -3.873398e+06  -8.774647e+06
   3.247996e+06  -1.014516e+07
   8.739094e+06  -4.902549e+06
   9.163699e+06   2.096295e+06
   5.241312e+06   6.578510e+06
   1.732785e+05   7.101368e+06
  -2.357277e+06   4.692572e+06
  -9.027364e+05   2.269965e+06
   1.506153e+06   2.428071e+06
   6.906669e+04   4.216186e+06
  -5.339099e+06   3.887046e+06
  -8.914279e+06   5.953555e+04
  -6.117094e+06  -3.967577e+06
   2.568760e+05  -4.515616e+06
   3.788378e+06  -2.016093e+06
   2.286234e+06   5.040412e+05
  -1.023422e+06   1.324432e+06
  -2.704489e+06   4.394560e+05
  -2.182525e+06  -1.793919e+06
  -2.995958e+05  -3.922160e+06
   1.857245e+06  -3.254688e+06
   2.600472e+06   5.286274e+05
   1.039888e+06   3.241117e+06
  -8.219170e+05   1.220835e+06
  -1.204988e+05  -2.645353e+06
   2.280420e+06  -2.219660e+06
   2.178096e+06   2.684030e+06
  -1.858524e+06   5.158480e+06
  -5.563703e+06   7.888558e+05
  -4.130753e+06  -5.842016e+06
   1.634064e+06  -7.117186e+06
   6.383389e+06  -1.950888e+06
   6.215756e+06   3.906210e+06
   1.848605e+06   5.373222e+06
  -3.043364e+06   2.591606e+06
  -4.861058e+06  -1.156818e+06
  -2.397286e+06  -3.003765e+06
   1.969686e+06  -1.961769e+06
   3.933471e+06   7.245261e+05
   1.753538e+06   2.291953e+06
  -1.469883e+06   1.179778e+06
  -1.647003e+06  -8.711643e+05
   9.078418e+05  -9.246212e+05
   2.094404e+06   1.159751e+06
  -2.421617e+05   2.620709e+06
  -3.627055e+06   1.594219e+06
  -4.458389e+06  -9.653853e+05
  -2.039900e+06  -3.312464e+06
   1.726604e+06  -4.654852e+06
   4.754775e+06  -4.289718e+06
   5.674833e+06  -1.372188e+06
   3.948175e+06   3.038740e+06
   6.926460e+05   5.613477e+06
  -1.559055e+06   4.347869e+06
  -1.396221e+06   1.344725e+06
  -2.482295e+05   1.371178e+05
  -3.970101e+05   1.097802e+06
  -1.906666e+06   1.523916e+06
  -2.804346e+06  -1.191524e+05
  -1.850812e+06  -2.157608e+06
   1.786515e+05  -2.227246e+06
   1.719539e+06  -1.823561e+05
   1.714674e+06   2.129273e+06
  -6.769078e+04   2.864266e+06
  -2.687502e+06   1.429299e+06
  -4.062762e+06  -1.308435e+06
  -2.732669e+06  -3.490761e+06
   1.784046e+05  -3.676009e+06
   2.009241e+06  -2.266409e+06
   1.874073e+06  -9.883394e+05
   1.593949e+06  -7.179359e+05
   2.739847e+06  -5.528306e+05
   4.113235e+06   6.455671e+05
   3.337061e+06   2.592510e+06
   1.532925e+05   3.957619e+06
  -3.109806e+06   3.759764e+06
  -4.096654e+06   1.972266e+06
  -2.555758e+06  -5.417134e+05
  -1.317322e+05  -2.226615e+06
   1.182360e+06  -1.822721e+06
   5.386350e+05   8.659843e+04
  -1.094800e+06   1.248952e+06
  -1.807853e+06   3.614650e+05
  -8.182314e+05  -1.151559e+06
   5.435631e+05  -1.089685e+06
   4.957294e+05   3.432517e+05
  -8.677582e+05   7.804029e+05
  -1.727115e+06  -9.329215e+05
  -8.511828e+05  -3.093774e+06
   1.140764e+06  -3.347334e+06
   2.823141e+06  -1.394358e+06
   3.312588e+06   1.143467e+06
   2.423545e+06   2.655916e+06
   5.305125e+05   2.613383e+06
  -1.234863e+06   1.442045e+06
  -1.561982e+06   1.995189e+05
  -4.782012e+05  -4.395667e+04
   3.515672e+05   7.246068e+05
  -3.736629e+05   1.259958e+06
  -1.784834e+06   5.467743e+05
  -1.930113e+06  -8.050581e+05
  -3.962796e+05  -1.321113e+06
   1.115602e+06  -5.715092e+05
   9.100551e+05   4.229322e+05
  -7.698712e+05   5.788901e+05
  -2.161537e+06  -1.918708e+05
  -1.817015e+06  -1.282296e+06
   1.560423e+05  -1.981057e+06
   2.234223e+06  -1.678835e+06
   2.700526e+06  -2.951330e+05
   1.171259e+06   1.198250e+06
  -8.776189e+05   1.408348e+06
  -1.461550e+06   1.634940e+05
  -1.614902e+05  -1.025557e+06
   1.461830e+06  -7.051422e+05
   1.668735e+06   7.281734e+05
   3.780427e+05   1.586710e+06
  -1.006779e+06   9.906805e+05
  -1.222776e+06  -2.374455e+05
  -2.798176e+05  -7.290644e+05
   7.429635e+05  -5.822177e+04
   7.038484e+05   1.016250e+06
  -5.709131e+05   1.379046e+06
  -1.957962e+06   5.152465e+05
  -1.972502e+06  -1.026886e+06
  -3.745700e+05  -2.006741e+06
   1.377278e+06  -1.593694e+06
   1.664290e+06  -2.245995e+05
   5.067595e+05   8.282292e+05
  -6.248676e+05   7.925158e+05
  -6.440175e+05   7.925618e+04
   7.942296e+04  -3.951592e+05
   5.050335e+05  -2.649281e+05
   2.032766e+05   5.792314e+04
  -3.776790e+05  -1.330893e+04
  -5.158243e+05  -5.890847e+05
   1.593587e+05  -1.134543e+06
   1.323100e+06  -8.816126e+05
   2.022192e+06   3.890643e+05
   1.425823e+06   1.882933e+06
  -2.026850e+05   2.366389e+06
  -1.565337e+06   1.416676e+06
  -1.674486e+06  -8.079704e+04
  -9.006996e+05  -8.907626e+05
  -3.480011e+05  -7.134764e+05
  -4.330400e+05  -2.746061e+05
  -5.532197e+05  -2.955916e+05
  -7.505984e+04  -7.097906e+05
   8.297437e+05  -8.844691e+05
   1.411159e+06  -3.518511e+05
   1.064975e+06   6.992795e+05
  -2.022827e+05   1.459123e+06
  -1.669337e+06   1.082560e+06
  -2.205438e+06  -4.499710e+05
  -1.133899e+06  -2.025653e+06
   9.359994e+05  -2.292912e+06
   2.434001e+06  -1.033183e+06
   2.300021e+06   5.860178e+05
   9.951039e+05   1.283556e+06
  -1.520332e+05   9.654259e+05
  -4.026712e+05   5.549912e+05
  -1.428873e+05   7.436621e+05
  -1.401796e+05   1.238831e+06
  -6.450189e+05   1.222012e+06
  -1.239662e+06   2.984707e+05
  -1.296616e+06  -1.054865e+06
  -5.427592e+05  -1.847494e+06
   6.076988e+05  -1.403068e+06
   1.254404e+06  -1.108806e+04
   8.016533e+05   1.224852e+06
  -3.449816e+05   1.349338e+06
  -1.084385e+06   4.272662e+05
  -7.729167e+05  -6.190358e+05
   8.425659e+04  -1.004878e+06
   4.672688e+05  -7.577174e+05
   5.591786e+04  -4.209118e+05
  -4.162538e+05  -3.390152e+05
  -5.458264e+04  -3.791227e+05
   1.098376e+06  -2.103492e+05
   1.982541e+06   3.126738e+05
   1.573262e+06   9.872615e+05
  -7.430194e+03   1.366346e+06
  -1.510318e+06   1.096117e+06
  -1.764079e+06   2.951169e+05
  -8.145762e+05  -4.348168e+05
   2.408453e+05  -5.316030e+05
   4.829123e+05  -4.846646e+04
   1.268180e+04   3.885949e+05
  -4.453254e+05   2.491342e+05
  -4.656191e+05  -3.335881e+05
  -2.222131e+05  -7.194424e+05
  -6.827642e+04  -4.756565e+05
  -1.314935e+05   1.137212e+05
  -2.870414e+05   3.166893e+05
  -2.739966e+05  -2.204951e+05
   1.456817e+05  -9.752776e+05
   8.724575e+05  -1.036504e+06
   1.298482e+06  -1.482463e+05
   8.011951e+05   8.981054e+05
  -4.075196e+05   1.085925e+06
  -1.213225e+06   3.017417e+05
  -7.156414e+05  -5.659714e+05
   6.736969e+05  -6.381349e+05
   1.556874e+06   6.963151e+04
   1.017754e+06   8.212354e+05
  -4.361481e+05   9.811483e+05
  -1.456906e+06   5.116625e+05
  -1.222100e+06  -1.556398e+05
  -1.481274e+05  -5.036166e+05
   6.263694e+05  -2.765490e+05
   3.657563e+05   2.801696e+05
  -5.843883e+05   5.043083e+05
  -1.159518e+06  -9.235246e+04
  -6.429283e+05  -1.167000e+06
   5.960035e+05  -1.666420e+06
   1.463474e+06  -8.616610e+05
   1.234109e+06   7.438640e+05
   2.055750e+05   1.758748e+06
  -7.151075e+05   1.282402e+06
  -9.060222e+05  -1.535868e+05
  -4.411294e+05  -1.158200e+06
   1.895732e+05  -9.535447e+05
   5.421907e+05  -9.044721e+04
   4.717478e+05   3.657410e+05
   1.759979e+05   1.330629e+05
   4.045337e+04  -9.575495e+04
   2.529145e+05   2.861509e+05
   4.953728e+05   9.427976e+05
   2.091432e+05   1.052085e+06
  -6.789819e+05   3.860337e+05
  -1.449975e+06  -4.473102e+05
  -1.272547e+06  -8.070735e+05
  -1.853517e+05  -6.795936e+05
   8.459934e+05  -4.194035e+05
   9.655772e+05  -1.903208e+05
   3.410011e+05   4.764925e+04
  -1.462813e+05   2.227917e+05
  -1.790816e+04   2.012906e+05
   2.770975e+05   9.146234e+04
   4.587993e+04   1.336604e+05
  -6.633354e+05   2.378041e+05
  -1.026696e+06  -9.391693e+03
  -4.096177e+05  -6.838510e+05
   8.331160e+05  -1.159222e+06
   1.658777e+06  -7.392005e+05
   1.376225e+06   4.285658e+05
   2.757442e+05   1.381527e+06
  -7.425220e+05   1.348407e+06
  -1.029999e+06   5.275272e+05
  -6.496306e+05  -2.280985e+05
  -1.292221e+05  -3.533387e+05
   8.119020e+04  -6.564412e+04
  -7.172941e+04   2.147486e+04
  -2.995762e+05  -3.525979e+05
  -2.515719e+05  -7.883024e+05
   1.743239e+05  -6.669244e+05
   6.753249e+05   1.179135e+05
   7.317614e+05   9.368991e+05
   1.123804e+05   1.017264e+06
  -7.473421e+05   2.461763e+05
  -1.024612e+06  -7.066851e+05
  -3.459197e+05  -1.069685e+06
   6.997194e+05  -6.665812e+05
   1.096352e+06   6.905195e+04
   5.182556e+05   5.954623e+05
  -2.813066e+05   6.611607e+05
  -3.651517e+05   3.573273e+05
   2.506269e+05   3.279285e+03
   6.392202e+05  -4.462777e+04
   1.433365e+05   3.018506e+05
  -8.034277e+05   6.733172e+05
  -1.221861e+06   5.390751e+05
  -7.392292e+05  -1.694383e+05
   9.008232e+04  -8.519742e+05
   5.323971e+05  -8.371929e+05
   4.153730e+05  -1.530150e+05
   5.675233e+04   4.746507e+05
  -2.348493e+05   4.277984e+05
  -3.521967e+05  -1.449114e+05
  -2.540771e+05  -5.650938e+05
   5.366759e+04  -4.174706e+05
   3.861550e+05   4.213027e+04
   4.641527e+05   2.701751e+05
   2.354447e+05   9.007891e+04
  -2.905130e+04  -1.466508e+05
  -7.301196e+04  -3.572787e+04
   1.331055e+04   3.563433e+05
  -5.659690e+04   5.466273e+05
  -3.226509e+05   2.143824e+05
  -4.549955e+05  -3.787287e+05
  -1.550710e+05  -6.438935e+05
   4.017423e+05  -3.138094e+05
   6.562145e+05   2.731826e+05
   2.554540e+05   5.641902e+05
  -4.942834e+05   3.617513e+05
  -8.676360e+05  -6.967273e+04
  -4.732567e+05  -3.674819e+05
   2.882519e+05  -3.937381e+05
   6.290477e+05  -2.263985e+05
   2.444141e+05  -1.597365e+04
  -3.461308e+05   7.444085e+04
  -4.076913e+05  -5.877319e+04
   1.606000e+05  -2.939419e+05
   7.303853e+05  -2.819374e+05
