
 $NMID
 id='ANONYMOUS ', fmtdat='(2E16.6)'
 volume=1.0
 tramp=1.0
 $END
  -5.861529e+07  -1.809967e+06
  -3.408182e+07  -3.813173e+07
   9.465327e+06  -3.981880e+07
   2.968247e+07  -1.375800e+07
   1.688235e+07   8.650880e+06
  -4.120213e+06   9.668126e+06
  -1.024869e+07  -2.119416e+06
  -2.148190e+06  -1.048046e+07
   7.204742e+06  -9.143963e+06
   1.017683e+07  -1.358811e+06
   6.874688e+06   6.654558e+06
   4.490421e+05   8.733042e+06
  -4.118265e+06   2.701634e+06
  -2.298647e+06  -5.460560e+06
   4.312098e+06  -6.317930e+06
   8.094020e+06   1.878184e+06
   4.066534e+06   1.076534e+07
  -4.472446e+06   1.200919e+07
  -1.066681e+07   5.739861e+06
  -1.112772e+07  -2.386269e+06
  -6.791949e+06  -7.904789e+06
  -6.382848e+05  -9.162361e+06
   3.345192e+06  -6.493365e+06
   2.520811e+06  -2.802043e+06
  -6.001173e+05  -1.940027e+06
  -1.092359e+05  -3.879955e+06
   5.322626e+06  -4.147822e+06
   9.556236e+06  -2.530339e+05
   7.006135e+06   4.318311e+06
   3.310557e+05   5.086661e+06
  -3.541716e+06   2.559815e+06
  -2.399645e+06   2.373785e+05
   3.795717e+05  -5.388763e+05
   1.873093e+06  -3.154906e+05
   1.944988e+06   1.225362e+06
   6.838749e+05   3.693065e+06
  -1.823229e+06   3.908379e+06
  -3.412063e+06   6.161364e+04
  -1.882102e+06  -3.715130e+06
   7.409241e+05  -2.234016e+06
   3.048176e+05   2.178029e+06
  -2.563630e+06   2.090354e+06
  -2.337383e+06  -3.468629e+06
   2.941344e+06  -6.332078e+06
   7.502127e+06  -8.244924e+05
   5.163127e+06   7.450931e+06
  -2.360409e+06   8.875585e+06
  -7.781518e+06   2.238434e+06
  -6.811924e+06  -4.903209e+06
  -1.428568e+06  -6.232776e+06
   3.720348e+06  -2.461017e+06
   5.163074e+06   1.973862e+06
   2.132850e+06   3.758667e+06
  -2.689041e+06   2.121605e+06
  -4.622386e+06  -1.223535e+06
  -1.840429e+06  -2.949612e+06
   1.849674e+06  -1.335918e+06
   1.653164e+06   1.172779e+06
  -1.581431e+06   8.272465e+05
  -2.547224e+06  -2.157564e+06
   9.477104e+05  -3.789641e+06
   5.102643e+06  -1.822406e+06
   5.510039e+06   1.769372e+06
   2.193247e+06   4.297078e+06
  -2.008407e+06   5.257956e+06
  -5.125347e+06   4.644318e+06
  -6.245664e+06   1.565894e+06
  -4.553550e+06  -3.268015e+06
  -7.332436e+05  -6.217955e+06
   2.207898e+06  -4.695286e+06
   1.997773e+06  -1.002114e+06
   1.287865e+05   5.148171e+05
  -2.330865e+05  -8.016083e+05
   1.398677e+06  -1.734601e+06
   2.644699e+06  -2.906330e+05
   1.893781e+06   1.787041e+06
   1.564470e+04   1.961043e+06
  -1.377644e+06   9.491238e+04
  -1.434803e+06  -2.046129e+06
   1.251972e+05  -2.824201e+06
   2.751566e+06  -1.553967e+06
   4.415947e+06   1.280061e+06
   3.169109e+06   3.877954e+06
  -1.394047e+05   4.345883e+06
  -2.446403e+06   2.760479e+06
  -2.404589e+06   1.079677e+06
  -1.945107e+06   5.380805e+05
  -2.969796e+06   2.441165e+05
  -4.256735e+06  -1.050040e+06
  -3.258586e+06  -2.953280e+06
   1.369703e+05  -4.054740e+06
   3.352302e+06  -3.615539e+06
   4.145260e+06  -1.863447e+06
   2.558669e+06   4.762319e+05
   2.204557e+05   2.136708e+06
  -1.103015e+06   1.840097e+06
  -5.468276e+05  -3.334563e+04
   1.111427e+06  -1.221538e+06
   1.911566e+06  -2.943914e+05
   8.806343e+05   1.235859e+06
  -5.464627e+05   1.043915e+06
  -3.419402e+05  -4.426273e+05
   1.215715e+06  -5.610068e+05
   1.822646e+06   1.586660e+06
   2.866643e+05   3.669740e+06
  -2.057264e+06   3.243130e+06
  -3.326181e+06   6.862673e+05
  -3.086265e+06  -1.812869e+06
  -1.886361e+06  -2.872343e+06
  -2.026879e+05  -2.523048e+06
   1.280394e+06  -1.332108e+06
   1.528763e+06  -1.375789e+05
   4.786422e+05   7.611965e+04
  -3.010323e+05  -7.638082e+05
   5.070614e+05  -1.323485e+06
   1.956020e+06  -4.653532e+05
   1.976806e+06   1.039718e+06
   2.737990e+05   1.459758e+06
  -1.206567e+06   4.736398e+05
  -8.062165e+05  -5.254365e+05
   9.182514e+05  -4.008337e+05
   2.090243e+06   5.564725e+05
   1.520576e+06   1.481587e+06
  -4.486160e+05   1.865158e+06
  -2.378813e+06   1.411145e+06
  -2.730125e+06   6.494709e+04
  -1.123486e+06  -1.342773e+06
   1.004438e+06  -1.458130e+06
   1.585119e+06  -1.094743e+05
   1.598889e+05   1.090347e+06
  -1.543657e+06   6.367267e+05
  -1.638447e+06  -9.050441e+05
  -1.799929e+05  -1.663915e+06
   1.187996e+06  -8.536668e+05
   1.218041e+06   4.492391e+05
   1.541674e+05   8.158890e+05
  -8.162685e+05   1.618847e+03
  -6.699217e+05  -1.086986e+06
   6.430247e+05  -1.366892e+06
   1.997394e+06  -4.188108e+05
   1.937263e+06   1.151649e+06
   2.448505e+05   2.069794e+06
  -1.538935e+06   1.524891e+06
  -1.721779e+06   7.625941e+04
  -4.190926e+05  -9.028896e+05
   7.152201e+05  -7.360200e+05
   6.005508e+05  -2.656195e+04
  -1.774165e+05   3.076327e+05
  -4.747166e+05   1.124588e+05
  -3.687194e+04  -8.397282e+04
   4.940176e+05   1.576043e+05
   4.573232e+05   7.536406e+05
  -3.165227e+05   1.172064e+06
  -1.433009e+06   7.808503e+05
  -2.017885e+06  -5.507119e+05
  -1.313454e+06  -2.004870e+06
   3.737268e+05  -2.348036e+06
   1.680558e+06  -1.239578e+06
   1.619147e+06   2.745017e+05
   7.155105e+05   9.185193e+05
   2.245731e+05   5.832298e+05
   4.792746e+05   1.824087e+05
   6.505769e+05   3.506700e+05
   5.688444e+04   7.855643e+05
  -9.373176e+05   8.200310e+05
  -1.438072e+06   1.908362e+05
  -9.382701e+05  -7.789868e+05
   3.804840e+05  -1.376631e+06
   1.762017e+06  -9.027855e+05
   2.153906e+06   6.368846e+05
   9.476697e+05   2.148694e+06
  -1.185262e+06   2.265683e+06
  -2.598067e+06   8.215876e+05
  -2.251360e+06  -8.523514e+05
  -7.862052e+05  -1.395476e+06
   3.139935e+05  -8.702614e+05
   3.927929e+05  -4.141891e+05
   5.688137e+04  -7.175987e+05
   1.407513e+05  -1.304235e+06
   7.426294e+05  -1.252703e+06
   1.305767e+06  -2.445954e+05
   1.248346e+06   1.136956e+06
   4.269656e+05   1.886259e+06
  -6.957654e+05   1.364544e+06
  -1.256570e+06  -9.640928e+04
  -7.051347e+05  -1.333649e+06
   5.058808e+05  -1.354458e+06
   1.215043e+06  -2.928953e+05
   7.712351e+05   7.949315e+05
  -2.227570e+05   1.091387e+06
  -6.317947e+05   7.391398e+05
  -1.387734e+05   3.864583e+05
   4.090759e+05   3.414234e+05
   3.929168e+04   3.719496e+05
  -1.158802e+06   1.295796e+05
  -2.027789e+06  -4.623440e+05
  -1.521919e+06  -1.138410e+06
   1.561428e+05  -1.437746e+06
   1.666095e+06  -1.036753e+06
   1.832662e+06  -1.322013e+05
   7.845590e+05   5.869382e+05
  -3.042067e+05   5.665646e+05
  -5.205705e+05  -1.518939e+04
  -2.515390e+04  -4.374144e+05
   4.322175e+05  -2.289914e+05
   4.550687e+05   3.622972e+05
   2.350767e+05   7.035114e+05
   9.636920e+04   4.634694e+05
   1.428919e+05  -5.851688e+04
   2.727984e+05  -2.307882e+05
   2.491577e+05   2.504882e+05
  -1.858071e+05   9.392719e+05
  -9.468305e+05   9.942938e+05
  -1.380004e+06   1.219919e+05
  -8.194924e+05  -9.352537e+05
   4.679557e+05  -1.123592e+06
   1.267392e+06  -2.945949e+05
   6.852794e+05   5.923960e+05
  -7.395619e+05   5.847023e+05
  -1.535796e+06  -2.207449e+05
  -8.799427e+05  -9.314367e+05
   5.824099e+05  -9.133993e+05
   1.499005e+06  -3.144725e+05
   1.164835e+06   3.034439e+05
   7.549885e+04   5.068398e+05
  -6.617557e+05   2.036817e+05
  -3.733857e+05  -3.215982e+05
   5.806693e+05  -4.908928e+05
   1.149844e+06   1.185419e+05
   6.208956e+05   1.171011e+06
  -6.285230e+05   1.637322e+06
  -1.474926e+06   8.035276e+05
  -1.181797e+06  -7.972175e+05
  -9.566126e+04  -1.750680e+06
   8.047110e+05  -1.195677e+06
   8.898325e+05   2.580695e+05
   3.194409e+05   1.199480e+06
  -3.158782e+05   9.180557e+05
  -5.684575e+05   3.353264e+04
  -4.023738e+05  -3.955291e+05
  -1.177838e+05  -1.398056e+05
  -6.730333e+04   8.238400e+04
  -3.050719e+05  -3.187583e+05
  -4.582455e+05  -9.801916e+05
  -8.073566e+04  -1.063699e+06
   7.673645e+05  -3.429988e+05
   1.404493e+06   5.420183e+05
   1.161370e+06   8.997527e+05
   1.355855e+05   7.015920e+05
  -8.232258e+05   3.573797e+05
  -9.607271e+05   1.047632e+05
  -3.810404e+05  -8.864223e+04
   1.411407e+05  -2.133353e+05
   9.071138e+04  -1.842060e+05
  -2.058687e+05  -9.031163e+04
  -5.904554e+04  -1.275069e+05
   6.090015e+05  -2.044130e+05
   1.026015e+06   5.248507e+04
   4.536128e+05   6.971194e+05
  -8.373470e+05   1.128095e+06
  -1.726859e+06   6.890967e+05
  -1.410272e+06  -4.601195e+05
  -2.138920e+05  -1.378203e+06
   8.306418e+05  -1.322918e+06
   1.050205e+06  -5.047095e+05
   6.188268e+05   2.352589e+05
   1.330783e+05   3.552599e+05
  -2.794447e+04   8.340891e+04
   9.976982e+04   1.731244e+04
   2.552463e+05   3.922369e+05
   1.818480e+05   8.060173e+05
  -1.980902e+05   6.643687e+05
  -6.467933e+05  -1.205812e+05
  -7.011680e+05  -9.307161e+05
  -1.173894e+05  -1.012699e+06
   7.134375e+05  -2.490216e+05
   9.883656e+05   7.082455e+05
   3.215046e+05   1.080485e+06
  -7.167808e+05   6.637385e+05
  -1.112410e+06  -1.082679e+05
  -5.226886e+05  -6.527407e+05
   3.100517e+05  -6.936469e+05
   4.259608e+05  -3.574633e+05
  -1.964001e+05  -9.219405e+03
  -6.248966e+05   1.390816e+04
  -1.452103e+05  -3.146036e+05
   8.401540e+05  -6.192856e+05
   1.298640e+06  -4.411751e+05
   7.851765e+05   2.379956e+05
  -1.284493e+05   8.628856e+05
  -6.158697e+05   8.347368e+05
  -4.636226e+05   1.761560e+05
  -5.193785e+04  -4.500412e+05
   2.422644e+05  -4.381334e+05
   3.304231e+05   1.204824e+05
   2.289430e+05   5.738372e+05
  -5.525396e+04   4.508495e+05
  -3.801291e+05  -4.314452e+04
  -4.703463e+05  -3.219941e+05
  -2.364516e+05  -1.302119e+05
   5.116335e+04   1.774382e+05
   8.775777e+04   1.113368e+05
  -4.912591e+04  -3.134259e+05
  -1.254858e+04  -5.707740e+05
   2.867483e+05  -2.710478e+05
   4.802491e+05   3.355541e+05
   1.974727e+05   6.251097e+05
  -3.894142e+05   3.082863e+05
  -6.625363e+05  -2.706865e+05
  -2.434837e+05  -5.525858e+05
   5.237254e+05  -3.439027e+05
   8.829565e+05   8.925829e+04
   4.652576e+05   3.871257e+05
  -3.004547e+05   4.107321e+05
  -6.415766e+05   2.363754e+05
  -2.779264e+05   1.816533e+04
   2.914293e+05  -8.098662e+04
   3.724604e+05   3.419180e+04
  -1.419251e+05   2.453641e+05
  -6.759195e+05   2.294850e+05
