
 $NMID
 id='ANONYMOUS ', fmtdat='(2E16.6)'
 volume=1.0
 tramp=1.0
 $END
   3.705499e+07   1.182358e+06
   2.280508e+07   2.051465e+07
  -3.020928e+06   2.391320e+07
  -1.711641e+07   1.234411e+07
  -1.201822e+07  -1.428549e+06
   6.580015e+05  -6.301626e+06
   6.936723e+06  -1.369755e+06
   3.797487e+06   6.119450e+06
  -2.842858e+06   8.277479e+06
  -6.657263e+06   2.985345e+06
  -5.316630e+06  -4.605609e+06
  -5.543296e+05  -6.898192e+06
   3.249543e+06  -1.655076e+06
   2.365270e+06   5.248595e+06
  -2.347293e+06   6.113948e+06
  -5.721680e+06  -1.025140e+05
  -3.718317e+06  -7.107602e+06
   2.226315e+06  -8.537171e+06
   7.027495e+06  -4.002952e+06
   7.177229e+06   2.027193e+06
   3.488193e+06   5.276544e+06
  -3.368808e+05   4.840198e+06
  -1.108806e+06   2.871736e+06
   9.865802e+05   2.198266e+06
   2.308750e+06   3.583655e+06
  -4.633223e+05   4.841991e+06
  -5.904310e+06   3.295461e+06
  -8.551064e+06  -7.555578e+05
  -5.125698e+06  -4.004864e+06
   1.197650e+06  -3.845829e+06
   4.289176e+06  -1.044789e+06
   1.980904e+06   1.597003e+06
  -2.236456e+06   2.045479e+06
  -3.938595e+06   9.833945e+04
  -2.240968e+06  -2.853725e+06
   5.758801e+05  -4.311079e+06
   2.073097e+06  -2.458635e+06
   1.512970e+06   1.237859e+06
  -5.984978e+04   2.653590e+06
  -7.392314e+05  -4.454127e+04
   4.868930e+05  -3.303973e+06
   2.299075e+06  -2.384883e+06
   2.120257e+06   2.015895e+06
  -7.159172e+05   4.198633e+06
  -3.564526e+06   9.295344e+05
  -3.105397e+06  -4.227630e+06
   8.953285e+05  -5.453852e+06
   5.104967e+06  -1.596134e+06
   5.802493e+06   3.262008e+06
   2.260857e+06   4.919133e+06
  -2.657314e+06   2.840096e+06
  -4.919340e+06  -5.600526e+05
  -2.827935e+06  -2.548020e+06
   1.322136e+06  -1.934016e+06
   3.406042e+06   2.802201e+05
   1.754677e+06   1.742692e+06
  -1.139939e+06   1.047187e+06
  -1.749248e+06  -6.957048e+05
   2.518906e+05  -1.233000e+06
   1.881107e+06   4.683887e+04
   7.535159e+05   1.550841e+06
  -2.095145e+06   1.564209e+06
  -3.597832e+06  -9.186646e+04
  -1.991262e+06  -2.425045e+06
   1.693826e+06  -4.109825e+06
   4.825292e+06  -3.785830e+06
   5.343486e+06  -8.915498e+05
   3.228126e+06   3.075667e+06
   3.787359e+05   5.227652e+06
  -1.127556e+06   4.233128e+06
  -9.733459e+05   1.906901e+06
  -6.344055e+05   8.750549e+05
  -1.379593e+06   1.272691e+06
  -2.691767e+06   1.011189e+06
  -3.001739e+06  -9.261690e+05
  -1.582727e+06  -2.873355e+06
   7.100645e+05  -2.589184e+06
   2.271097e+06  -3.258522e+04
   1.928706e+06   2.588479e+06
  -2.698445e+05   3.078468e+06
  -2.839310e+06   1.135633e+06
  -3.724607e+06  -1.658817e+06
  -2.164690e+06  -3.307114e+06
   3.427208e+05  -3.030186e+06
   1.625434e+06  -1.752178e+06
   1.388354e+06  -9.376342e+05
   1.376074e+06  -9.479280e+05
   2.757774e+06  -7.881517e+05
   4.233948e+06   5.090301e+05
   3.497790e+06   2.616595e+06
   1.926346e+05   4.159980e+06
  -3.364416e+06   3.937573e+06
  -4.468070e+06   1.860045e+06
  -2.618631e+06  -8.769492e+05
   1.971517e+05  -2.436933e+06
   1.498399e+06  -1.767500e+06
   5.320601e+05   2.007428e+05
  -1.253110e+06   1.256494e+06
  -1.832274e+06   3.353995e+05
  -7.112775e+05  -1.162677e+06
   6.806804e+05  -1.155935e+06
   7.106600e+05   3.352536e+05
  -6.330209e+05   1.125183e+06
  -1.834651e+06  -3.115374e+05
  -1.495520e+06  -2.821107e+06
   4.214737e+05  -3.852369e+06
   2.720407e+06  -2.242317e+06
   3.882792e+06   7.617702e+05
   3.039691e+06   2.928030e+06
   6.939522e+05   3.017854e+06
  -1.410494e+06   1.557376e+06
  -1.723996e+06   1.352210e+05
  -5.099707e+05  -4.970709e+04
   3.798605e+05   7.634710e+05
  -3.229793e+05   1.260307e+06
  -1.747403e+06   5.719057e+05
  -1.981557e+06  -7.194613e+05
  -4.941482e+05  -1.298352e+06
   1.147260e+06  -6.510502e+05
   1.080194e+06   4.360856e+05
  -7.411089e+05   8.055796e+05
  -2.466067e+06   2.389561e+04
  -2.224824e+06  -1.368468e+06
   2.410658e+04  -2.309700e+06
   2.415708e+06  -1.941595e+06
   2.910748e+06  -3.592872e+05
   1.232572e+06   1.206719e+06
  -8.794475e+05   1.386454e+06
  -1.421689e+06   1.483275e+05
  -1.019912e+05  -1.016235e+06
   1.525612e+06  -7.222794e+05
   1.787649e+06   7.108979e+05
   5.227236e+05   1.676282e+06
  -9.735433e+05   1.179722e+06
  -1.342004e+06  -1.032617e+05
  -4.109288e+05  -7.283505e+05
   7.169685e+05  -8.754365e+04
   7.146585e+05   1.058501e+06
  -6.411662e+05   1.439792e+06
  -2.092221e+06   4.977159e+05
  -2.069794e+06  -1.117909e+06
  -3.937206e+05  -2.113291e+06
   1.419208e+06  -1.692606e+06
   1.752120e+06  -2.873967e+05
   5.911430e+05   8.554885e+05
  -6.374285e+05   8.772739e+05
  -7.552811e+05   7.595210e+04
   2.878780e+04  -5.472393e+05
   6.424204e+05  -4.088280e+05
   4.192885e+05   1.022823e+05
  -3.030468e+05   1.654812e+05
  -6.158701e+05  -4.863061e+05
   6.622389e+04  -1.187102e+06
   1.372303e+06  -9.689250e+05
   2.153784e+06   3.956637e+05
   1.510316e+06   1.999716e+06
  -2.230491e+05   2.553234e+06
  -1.693602e+06   1.605653e+06
  -1.887652e+06  -1.742495e+04
  -1.103580e+06  -1.045886e+06
  -4.102597e+05  -9.814967e+05
  -3.453268e+05  -4.248968e+05
  -4.561989e+05  -2.621503e+05
  -6.247464e+04  -6.686170e+05
   8.438897e+05  -9.712987e+05
   1.538473e+06  -4.487858e+05
   1.239534e+06   7.769177e+05
  -1.542894e+05   1.677874e+06
  -1.801914e+06   1.239953e+06
  -2.407070e+06  -4.610395e+05
  -1.280056e+06  -2.146812e+06
   8.969994e+05  -2.446590e+06
   2.526432e+06  -1.181839e+06
   2.517064e+06   5.151050e+05
   1.224163e+06   1.373502e+06
  -8.081683e+04   1.172128e+06
  -5.319266e+05   7.165018e+05
  -3.299351e+05   7.741582e+05
  -2.361182e+05   1.213349e+06
  -6.599704e+05   1.224518e+06
  -1.269959e+06   2.908578e+05
  -1.357289e+06  -1.143143e+06
  -5.601737e+05  -1.985574e+06
   6.710795e+05  -1.499458e+06
   1.354976e+06  -3.096578e+04
   8.879727e+05   1.261377e+06
  -2.868064e+05   1.437158e+06
  -1.065806e+06   5.592545e+05
  -8.185778e+05  -5.081120e+05
  -1.800899e+04  -9.913673e+05
   3.661788e+05  -8.328808e+05
   7.070202e+03  -5.073904e+05
  -4.178291e+05  -3.938637e+05
  -3.983959e+04  -4.181193e+05
   1.129099e+06  -2.413526e+05
   2.054811e+06   3.100056e+05
   1.681075e+06   1.013852e+06
   7.407473e+04   1.400638e+06
  -1.519250e+06   1.142902e+06
  -1.854790e+06   3.737440e+05
  -9.055155e+05  -3.558196e+05
   2.128536e+05  -5.168220e+05
   4.882035e+05  -9.754848e+04
  -2.053983e+04   3.473038e+05
  -5.140177e+05   2.430296e+05
  -4.830762e+05  -3.616341e+05
  -1.490953e+05  -7.930848e+05
   8.613359e+03  -5.128964e+05
  -1.529582e+05   1.788619e+05
  -3.761211e+05   4.076108e+05
  -3.088805e+05  -2.286611e+05
   2.037923e+05  -1.071456e+06
   9.353685e+05  -1.089571e+06
   1.290876e+06  -9.855818e+04
   7.537734e+05   9.667668e+05
  -4.406929e+05   1.081696e+06
  -1.241798e+06   2.359125e+05
  -7.490103e+05  -6.380594e+05
   7.042525e+05  -6.986374e+05
   1.709123e+06   3.569712e+04
   1.202392e+06   8.673242e+05
  -3.916323e+05   1.124904e+06
  -1.593978e+06   6.622642e+05
  -1.391524e+06  -1.122994e+05
  -2.003668e+05  -5.636282e+05
   6.653916e+05  -3.354837e+05
   3.645352e+05   2.750043e+05
  -6.696468e+05   4.941753e+05
  -1.233683e+06  -1.722187e+05
  -6.012376e+05  -1.289288e+06
   7.467489e+05  -1.748520e+06
   1.623964e+06  -8.515779e+05
   1.314865e+06   8.462031e+05
   1.904607e+05   1.917117e+06
  -7.874311e+05   1.421915e+06
  -9.946439e+05  -1.211143e+05
  -5.226040e+05  -1.249254e+06
   1.430724e+05  -1.071997e+06
   5.659816e+05  -1.245160e+05
   5.583246e+05   4.139297e+05
   2.464303e+05   1.666807e+05
   2.289151e+04  -1.222856e+05
   1.881764e+05   2.674656e+05
   4.950409e+05   1.004253e+06
   2.862064e+05   1.154910e+06
  -6.565193e+05   4.271944e+05
  -1.573940e+06  -5.005460e+05
  -1.434013e+06  -8.876675e+05
  -2.022167e+05  -7.221313e+05
   9.767283e+05  -4.342947e+05
   1.068161e+06  -2.166465e+05
   3.197744e+05   1.782419e+04
  -1.833203e+05   2.315107e+05
   4.604078e+04   2.550086e+05
   3.699074e+05   1.457620e+05
   1.834812e+04   1.481075e+05
  -7.970562e+05   2.141419e+05
  -1.095779e+06  -4.947793e+04
  -3.213907e+05  -7.266560e+05
   9.863200e+05  -1.186200e+06
   1.747401e+06  -7.137827e+05
   1.380728e+06   5.250402e+05
   2.412105e+05   1.504483e+06
  -8.040767e+05   1.414108e+06
  -1.115276e+06   4.980993e+05
  -7.038275e+05  -2.997264e+05
  -1.004959e+05  -3.802322e+05
   1.503048e+05  -2.296037e+04
  -5.608147e+04   7.247020e+04
  -3.509032e+05  -3.645689e+05
  -2.851090e+05  -8.542274e+05
   2.151812e+05  -6.979358e+05
   7.365029e+05   1.906090e+05
   7.224793e+05   1.069952e+06
   2.001499e+04   1.085766e+06
  -8.496626e+05   1.781553e+05
  -1.061024e+06  -8.460008e+05
  -3.021366e+05  -1.152812e+06
   7.770029e+05  -6.488729e+05
   1.142280e+06   1.178164e+05
   5.061296e+05   6.026811e+05
  -3.099700e+05   6.413866e+05
  -3.427298e+05   3.634931e+05
   3.316234e+05   3.627506e+04
   7.049290e+05  -2.257090e+04
   1.259501e+05   3.147602e+05
  -8.796497e+05   7.152997e+05
  -1.274181e+06   6.028273e+05
  -7.302893e+05  -1.462872e+05
   1.208229e+05  -8.888887e+05
   5.351287e+05  -8.647541e+05
   3.851886e+05  -1.117374e+05
   1.524424e+04   5.366621e+05
  -2.732933e+05   4.196472e+05
  -3.766561e+05  -2.209129e+05
  -2.506253e+05  -6.156778e+05
   8.102902e+04  -3.950506e+05
   4.107598e+05   7.959979e+04
   4.742892e+05   2.611476e+05
   2.518938e+05   6.685722e+04
  -6.764365e+02  -1.125052e+05
  -8.045749e+04   5.248620e+04
  -7.528230e+04   4.171147e+05
  -1.845695e+05   5.190489e+05
  -3.842610e+05   1.165525e+05
  -4.008552e+05  -4.838983e+05
  -4.826674e+04  -7.013028e+05
   4.681059e+05  -2.974653e+05
   6.585407e+05   3.474267e+05
   2.295279e+05   6.352803e+05
  -5.231704e+05   3.682883e+05
  -8.957365e+05  -1.221176e+05
  -4.819472e+05  -4.082030e+05
   3.185103e+05  -3.724542e+05
   6.645399e+05  -1.743482e+05
   2.175450e+05  -3.274988e+03
  -4.356434e+05   2.175953e+04
  -4.591014e+05  -1.396506e+05
   2.339616e+05  -3.482887e+05
   8.779899e+05  -2.778219e+05
