
 $NMID
 id='ANONYMOUS ', fmtdat='(2E16.6)'
 volume=1.0
 tramp=1.0
 $END
  -3.710945e+07   3.900259e+06
  -2.578800e+07  -1.858733e+07
   3.984605e+05  -2.512846e+07
   1.649127e+07  -1.387771e+07
   1.248247e+07   1.194990e+06
  -4.022983e+05   6.687128e+06
  -7.086285e+06   1.479119e+06
  -4.030794e+06  -6.157313e+06
   2.617401e+06  -8.247697e+06
   6.544121e+06  -3.247207e+06
   5.597645e+06   3.942183e+06
   1.171788e+06   6.485318e+06
  -2.852520e+06   2.005380e+06
  -2.537126e+06  -4.568202e+06
   1.964902e+06  -5.888738e+06
   5.729246e+06  -2.662583e+05
   4.289253e+06   6.686259e+06
  -1.401090e+06   8.629939e+06
  -6.447339e+06   4.766835e+06
  -7.294451e+06  -9.401968e+05
  -4.365678e+06  -4.579743e+06
  -6.820295e+05  -5.021914e+06
   8.095586e+05  -3.532499e+06
  -4.597856e+05  -2.356219e+06
  -1.840705e+06  -2.893205e+06
   4.067831e+04  -4.115660e+06
   4.820237e+06  -3.485180e+06
   7.772724e+06  -2.636091e+05
   5.264948e+06   3.059180e+06
  -3.701309e+05   3.612985e+06
  -3.470069e+06   1.471621e+06
  -1.786006e+06  -8.977517e+05
   1.661433e+06  -1.531576e+06
   3.109558e+06  -2.038891e+05
   1.975758e+06   2.124703e+06
  -4.911070e+04   3.649820e+06
  -1.482946e+06   2.575257e+06
  -1.653762e+06  -5.727903e+05
  -6.082307e+05  -2.370492e+06
   4.237669e+05  -4.299628e+05
  -1.601769e+05   2.696861e+06
  -1.949201e+06   2.269669e+06
  -2.237659e+06  -1.887584e+06
   4.954160e+05  -4.427118e+06
   3.832757e+06  -1.498875e+06
   3.809190e+06   3.898328e+06
  -2.801284e+05   5.703223e+06
  -4.843748e+06   2.210911e+06
  -5.778048e+06  -2.655510e+06
  -2.375414e+06  -4.541493e+06
   2.394391e+06  -2.782212e+06
   4.630203e+06   3.604101e+05
   2.714332e+06   2.368336e+06
  -1.274633e+06   2.020932e+06
  -3.394359e+06  -3.614366e+04
  -1.844699e+06  -1.649764e+06
   1.042085e+06  -1.160154e+06
   1.652761e+06   5.915560e+05
  -4.176382e+05   1.198769e+06
  -2.035233e+06  -2.111701e+05
  -7.262821e+05  -1.921915e+06
   2.265428e+06  -1.922773e+06
   3.738424e+06  -8.320464e+04
   2.188973e+06   2.331320e+06
  -1.141898e+06   4.022661e+06
  -3.982851e+06   3.910958e+06
  -4.786184e+06   1.405539e+06
  -3.363956e+06  -2.398021e+06
  -8.912183e+05  -4.778507e+06
   8.455597e+05  -4.058254e+06
   1.016350e+06  -1.709483e+06
   5.570629e+05  -5.085676e+05
   8.840540e+05  -9.755514e+05
   2.005018e+06  -1.103228e+06
   2.553471e+06   4.103747e+05
   1.575363e+06   2.215435e+06
  -3.720538e+05   2.181099e+06
  -1.861910e+06   1.225823e+05
  -1.776022e+06  -2.120514e+06
   9.392651e+03  -2.711306e+06
   2.391291e+06  -1.295129e+06
   3.532385e+06   1.061410e+06
   2.415498e+06   2.787757e+06
   9.112816e+04   2.942931e+06
  -1.362390e+06   1.946370e+06
  -1.335006e+06   1.065560e+06
  -1.298893e+06   9.310100e+05
  -2.490807e+06   8.345568e+05
  -3.868551e+06  -2.295092e+05
  -3.303825e+06  -2.155122e+06
  -4.152193e+05  -3.708963e+06
   2.731957e+06  -3.702484e+06
   3.785934e+06  -1.959863e+06
   2.352787e+06   5.201604e+05
   5.322722e+04   2.092861e+06
  -1.130105e+06   1.664226e+06
  -4.827298e+05  -1.076965e+05
   1.000328e+06  -1.199664e+06
   1.634445e+06  -4.424678e+05
   7.652165e+05   9.830554e+05
  -5.114447e+05   1.057439e+06
  -6.125678e+05  -2.998103e+05
   6.389649e+05  -1.017065e+06
   1.791672e+06   3.618753e+05
   1.418596e+06   2.680434e+06
  -4.448856e+05   3.531351e+06
  -2.529287e+06   1.987557e+06
  -3.483956e+06  -6.643116e+05
  -2.714401e+06  -2.497065e+06
  -7.040611e+05  -2.601007e+06
   1.142023e+06  -1.437663e+06
   1.493796e+06  -2.271735e+05
   4.561522e+05   1.621859e+04
  -3.851183e+05  -6.601720e+05
   2.159674e+05  -1.181871e+06
   1.565214e+06  -6.492361e+05
   1.861159e+06   5.488957e+05
   5.229362e+05   1.178257e+06
  -1.002627e+06   6.508408e+05
  -9.627678e+05  -3.459155e+05
   6.657665e+05  -7.205705e+05
   2.185370e+06  -6.826011e+04
   1.972354e+06   1.142772e+06
   3.213481e+04   2.025170e+06
  -2.055917e+06   1.814825e+06
  -2.568851e+06   4.669546e+05
  -1.186751e+06  -1.022566e+06
   6.959679e+05  -1.332430e+06
   1.294400e+06  -2.504068e+05
   1.893064e+05   9.087639e+05
  -1.318608e+06   7.495204e+05
  -1.644735e+06  -5.489127e+05
  -5.322861e+05  -1.492817e+06
   8.534059e+05  -1.094846e+06
   1.224332e+06   6.326584e+04
   3.914769e+05   6.640775e+05
  -6.558047e+05   1.346676e+05
  -7.141667e+05  -8.921169e+05
   4.649342e+05  -1.315882e+06
   1.813895e+06  -5.786421e+05
   1.907992e+06   8.584584e+05
   4.795670e+05   1.862296e+06
  -1.178256e+06   1.599684e+06
  -1.561545e+06   3.461006e+05
  -5.697849e+05  -7.494640e+05
   5.309315e+05  -8.188946e+05
   6.500668e+05  -1.029545e+05
  -2.921622e+04   4.634838e+05
  -5.386605e+05   3.462899e+05
  -3.123287e+05  -9.174802e+04
   3.204018e+05  -1.306272e+05
   5.805142e+05   4.490731e+05
  -1.652942e+04   1.081822e+06
  -1.177787e+06   9.366075e+05
  -1.938080e+06  -2.320450e+05
  -1.459874e+06  -1.688563e+06
   5.703293e+04  -2.271386e+06
   1.427179e+06  -1.492141e+06
   1.664433e+06  -5.041893e+04
   9.790356e+05   8.720241e+05
   3.617589e+05   7.972527e+05
   3.340335e+05   2.973468e+05
   4.654890e+05   1.929526e+05
   1.135928e+05   6.081002e+05
  -7.112681e+05   9.063730e+05
  -1.341583e+06   4.552366e+05
  -1.103904e+06  -6.309178e+05
   8.469199e+04  -1.473124e+06
   1.537605e+06  -1.172716e+06
   2.149791e+06   2.878478e+05
   1.243630e+06   1.849899e+06
  -6.826334e+05   2.244712e+06
  -2.211463e+06   1.187648e+06
  -2.271427e+06  -3.567919e+05
  -1.121234e+06  -1.183129e+06
   5.620796e+04  -1.023773e+06
   4.290571e+05  -6.111621e+05
   1.963948e+05  -6.749816e+05
   9.499425e+04  -1.103411e+06
   5.081896e+05  -1.153182e+06
   1.120187e+06  -3.494476e+05
   1.274511e+06   9.273342e+05
   6.138127e+05   1.723688e+06
  -5.042430e+05   1.365579e+06
  -1.201482e+06   9.767576e+04
  -8.619773e+05  -1.087726e+06
   1.936018e+05  -1.310292e+06
   9.601017e+05  -5.491207e+05
   7.886209e+05   4.434886e+05
   6.061589e+04   9.227448e+05
  -3.171005e+05   7.814278e+05
  -3.390432e+03   4.471405e+05
   3.920252e+05   3.124216e+05
   5.975195e+04   3.606261e+05
  -1.002565e+06   2.814377e+05
  -1.860602e+06  -1.523038e+05
  -1.557373e+06  -8.144245e+05
  -1.374473e+05  -1.270795e+06
   1.301527e+06  -1.127877e+06
   1.645783e+06  -4.284288e+05
   8.379901e+05   2.999111e+05
  -1.608496e+05   4.928834e+05
  -4.440617e+05   1.074571e+05
  -2.232824e+04  -3.196246e+05
   4.293477e+05  -2.412239e+05
   4.511900e+05   2.907979e+05
   1.934231e+05   6.712556e+05
   4.105490e+04   4.380124e+05
   1.341089e+05  -1.487018e+05
   3.051924e+05  -3.501340e+05
   2.815088e+05   1.887843e+05
  -1.145114e+05   9.416468e+05
  -7.615742e+05   1.021897e+06
  -1.149757e+06   1.961352e+05
  -7.475083e+05  -7.912032e+05
   3.119668e+05  -1.003050e+06
   1.084310e+06  -3.121733e+05
   6.972469e+05   5.126817e+05
  -5.937155e+05   6.580949e+05
  -1.514929e+06   4.412130e+04
  -1.087417e+06  -7.286211e+05
   3.199351e+05  -1.015155e+06
   1.391273e+06  -6.393643e+05
   1.229803e+06   5.268612e+04
   1.935881e+05   4.909514e+05
  -5.806925e+05   3.265788e+05
  -3.514756e+05  -2.234838e+05
   5.445821e+05  -4.786789e+05
   1.090448e+06   6.249743e+04
   6.196873e+05   1.081424e+06
  -5.296986e+05   1.579401e+06
  -1.364158e+06   8.520406e+05
  -1.204823e+06  -6.638045e+05
  -2.758962e+05  -1.675187e+06
   6.237102e+05  -1.287926e+06
   8.912453e+05   6.782847e+04
   5.187811e+05   1.086143e+06
  -9.161487e+04   9.578198e+05
  -5.034344e+05   1.385645e+05
  -5.002956e+05  -3.404325e+05
  -2.087713e+05  -1.393868e+05
  -2.292996e+04   1.093070e+05
  -2.108348e+05  -2.191456e+05
  -5.056645e+05  -8.570551e+05
  -2.973613e+05  -1.014445e+06
   5.789947e+05  -4.269496e+05
   1.414312e+06   3.550739e+05
   1.298496e+06   7.160410e+05
   2.194971e+05   6.309681e+05
  -8.212670e+05   4.284319e+05
  -9.290768e+05   2.414227e+05
  -3.025595e+05   2.947163e+03
   1.418672e+05  -2.122275e+05
  -3.000100e+04  -2.272145e+05
  -3.075974e+05  -1.109844e+05
  -3.150527e+04  -1.218744e+05
   6.641993e+05  -2.266636e+05
   9.670726e+05  -2.851155e+04
   3.562883e+05   6.035184e+05
  -7.734207e+05   1.101731e+06
  -1.501030e+06   7.561254e+05
  -1.263266e+06  -3.529623e+05
  -3.060875e+05  -1.303125e+06
   6.253327e+05  -1.304024e+06
   9.435338e+05  -5.181280e+05
   6.270204e+05   2.135696e+05
   1.198072e+05   3.226503e+05
  -1.060379e+05   2.755756e+04
   6.093977e+04  -5.918829e+04
   3.266828e+05   3.127484e+05
   2.952098e+05   7.419404e+05
  -1.406352e+05   6.295506e+05
  -6.473089e+05  -1.137377e+05
  -7.027231e+05  -8.789874e+05
  -1.045338e+05  -9.423686e+05
   7.138669e+05  -2.168850e+05
   9.790469e+05   6.613667e+05
   3.477678e+05   9.895816e+05
  -6.324698e+05   6.291432e+05
  -1.018107e+06  -2.306461e+04
  -5.018363e+05  -5.042900e+05
   2.225924e+05  -6.005768e+05
   2.910894e+05  -3.565427e+05
  -2.736792e+05  -1.904502e+04
  -6.132584e+05   6.129204e+04
  -1.376606e+05  -2.684775e+05
   7.341554e+05  -6.810065e+05
   1.110122e+06  -6.065918e+05
   6.783973e+05   8.516765e+04
  -4.662735e+04   7.960561e+05
  -4.284934e+05   8.118493e+05
  -3.393688e+05   1.456697e+05
  -4.881564e+04  -4.586188e+05
   2.055924e+05  -3.922752e+05
   3.328325e+05   1.585363e+05
   2.597459e+05   5.248941e+05
  -3.324137e+04   3.629132e+05
  -3.624030e+05  -3.845087e+04
  -4.467857e+05  -2.074467e+05
  -2.332522e+05  -5.266499e+04
   2.374547e+04   1.044754e+05
   8.655179e+04  -2.798739e+04
   2.842557e+04  -3.468898e+05
   9.023357e+04  -4.616900e+05
   3.014968e+05  -1.449518e+05
   3.879137e+05   3.695786e+05
   1.087733e+05   5.920476e+05
  -3.811011e+05   2.916223e+05
  -6.029119e+05  -2.485513e+05
  -2.435117e+05  -5.335408e+05
   4.408298e+05  -3.617195e+05
   7.995816e+05   3.947324e+04
   4.534199e+05   3.262590e+05
  -2.490815e+05   3.584670e+05
  -5.680577e+05   2.106517e+05
  -2.010772e+05   2.735493e+04
   3.571773e+05  -4.502699e+04
   3.938731e+05   8.370977e+04
  -1.793938e+05   3.011024e+05
  -7.344155e+05   2.818824e+05
