
 $NMID
 id='ANONYMOUS ', fmtdat='(2E16.6)'
 volume=1.0
 tramp=1.0
 $END
  -4.776933e+07  -1.501953e+06
  -2.805702e+07  -2.933460e+07
   6.463888e+06  -3.163473e+07
   2.314489e+07  -1.274604e+07
   1.405072e+07   5.094538e+06
  -2.450563e+06   7.810725e+06
  -8.343566e+06  -4.491615e+05
  -2.826941e+06  -8.113020e+06
   4.887043e+06  -8.457498e+06
   8.225578e+06  -2.098600e+06
   6.079442e+06   5.528747e+06
   6.002388e+05   7.727326e+06
  -3.656942e+06   2.230447e+06
  -2.435484e+06  -5.198881e+06
   3.170851e+06  -6.088330e+06
   6.785812e+06   9.866556e+05
   3.861661e+06   8.820561e+06
  -3.297035e+06   1.017116e+07
  -8.795563e+06   4.869711e+06
  -9.175845e+06  -2.173678e+06
  -5.187355e+06  -6.636568e+06
  -1.030690e+05  -7.090976e+06
   2.365857e+06  -4.646488e+06
   8.399130e+05  -2.272353e+06
  -1.560281e+06  -2.505855e+06
  -3.602338e+04  -4.298100e+06
   5.446473e+06  -3.891110e+06
   9.010154e+06   1.253035e+04
   6.131061e+06   4.047377e+06
  -3.230361e+05   4.547066e+06
  -3.870431e+06   1.988657e+06
  -2.308231e+06  -5.687228e+05
   1.086453e+06  -1.379710e+06
   2.795909e+06  -4.312895e+05
   2.214997e+06   1.870729e+06
   2.534121e+05   3.996871e+06
  -1.909757e+06   3.253758e+06
  -2.589147e+06  -5.866674e+05
  -9.860609e+05  -3.267966e+06
   8.448798e+05  -1.175174e+06
   9.138439e+04   2.711774e+06
  -2.315180e+06   2.244202e+06
  -2.184846e+06  -2.694581e+06
   1.858213e+06  -5.157446e+06
   5.541311e+06  -7.632579e+05
   4.094875e+06   5.863895e+06
  -1.664237e+06   7.112011e+06
  -6.411844e+06   1.920377e+06
  -6.248023e+06  -3.951045e+06
  -1.863224e+06  -5.418799e+06
   3.068880e+06  -2.617883e+06
   4.910196e+06   1.161402e+06
   2.429644e+06   3.023868e+06
  -1.970387e+06   1.970745e+06
  -3.948997e+06  -7.323026e+05
  -1.761391e+06  -2.300768e+06
   1.477212e+06  -1.179394e+06
   1.666254e+06   8.783243e+05
  -8.888177e+05   9.394224e+05
  -2.094010e+06  -1.133246e+06
   2.205243e+05  -2.592496e+06
   3.607446e+06  -1.582312e+06
   4.460314e+06   9.636316e+05
   2.040131e+06   3.320445e+06
  -1.769537e+06   4.678389e+06
  -4.836158e+06   4.299803e+06
  -5.737113e+06   1.341387e+06
  -3.951234e+06  -3.098696e+06
  -6.616111e+05  -5.668400e+06
   1.576046e+06  -4.384273e+06
   1.394240e+06  -1.376631e+06
   2.627355e+05  -1.743039e+05
   4.482640e+05  -1.125747e+06
   1.974175e+06  -1.518652e+06
   2.852706e+06   1.651093e+05
   1.859441e+06   2.223775e+06
  -2.085465e+05   2.273775e+06
  -1.765806e+06   1.772990e+05
  -1.740817e+06  -2.178341e+06
   8.578450e+04  -2.908947e+06
   2.733837e+06  -1.424522e+06
   4.093939e+06   1.358163e+06
   2.724448e+06   3.539998e+06
  -2.084792e+05   3.691796e+06
  -2.030132e+06   2.258721e+06
  -1.879393e+06   9.854499e+05
  -1.603696e+06   7.279293e+05
  -2.772377e+06   5.589151e+05
  -4.162601e+06  -6.622621e+05
  -3.373241e+06  -2.635484e+06
  -1.434041e+05  -4.012870e+06
   3.170305e+06  -3.801709e+06
   4.169765e+06  -1.978185e+06
   2.589733e+06   5.717357e+05
   1.124713e+05   2.265541e+06
  -1.217453e+06   1.840637e+06
  -5.455284e+05  -9.413420e+04
   1.118815e+06  -1.261193e+06
   1.831362e+06  -3.584217e+05
   8.191165e+05   1.169310e+06
  -5.587429e+05   1.104989e+06
  -5.093690e+05  -3.459235e+05
   8.665100e+05  -7.986959e+05
   1.741507e+06   9.218284e+05
   8.747429e+05   3.114566e+06
  -1.129986e+06   3.397204e+06
  -2.848489e+06   1.436164e+06
  -3.368571e+06  -1.147309e+06
  -2.471805e+06  -2.702443e+06
  -5.378206e+05  -2.662302e+06
   1.261721e+06  -1.461028e+06
   1.589054e+06  -1.947290e+05
   4.852623e+05   4.622835e+04
  -3.544992e+05  -7.355978e+05
   3.803692e+05  -1.272442e+06
   1.805461e+06  -5.471418e+05
   1.950860e+06   8.169992e+05
   4.004090e+05   1.335513e+06
  -1.130628e+06   5.777124e+05
  -9.262031e+05  -4.296677e+05
   7.774345e+05  -5.916758e+05
   2.196852e+06   1.902756e+05
   1.851789e+06   1.303964e+06
  -1.564538e+05   2.016538e+06
  -2.272092e+06   1.703129e+06
  -2.741893e+06   2.932283e+05
  -1.183383e+06  -1.216366e+06
   8.932870e+05  -1.420562e+06
   1.477576e+06  -1.590509e+05
   1.569626e+05   1.038046e+06
  -1.483920e+06   7.091717e+05
  -1.690415e+06  -7.408608e+05
  -3.839352e+05  -1.608981e+06
   1.018531e+06  -1.006521e+06
   1.239846e+06   2.373104e+05
   2.863423e+05   7.367326e+05
  -7.497488e+05   5.680626e+04
  -7.084016e+05  -1.032339e+06
   5.856334e+05  -1.395758e+06
   1.988742e+06  -5.138066e+05
   1.996530e+06   1.049651e+06
   3.730721e+05   2.036055e+06
  -1.400286e+06   1.611846e+06
  -1.687936e+06   2.247716e+05
  -5.138803e+05  -8.398959e+05
   6.344400e+05  -8.032417e+05
   6.565358e+05  -7.909298e+04
  -7.799619e+04   4.050925e+05
  -5.161967e+05   2.734705e+05
  -2.150338e+05  -5.903129e+04
   3.770450e+05   8.246713e+03
   5.226801e+05   5.927859e+05
  -1.614023e+05   1.148536e+06
  -1.343489e+06   8.908076e+05
  -2.050066e+06  -4.007320e+05
  -1.439852e+06  -1.914925e+06
   2.133328e+05  -2.401808e+06
   1.592864e+06  -1.436935e+06
   1.702650e+06   8.319634e+04
   9.186635e+05   9.095523e+05
   3.551327e+05   7.346390e+05
   4.347971e+05   2.873960e+05
   5.537027e+05   3.010947e+05
   7.177762e+04   7.169377e+05
  -8.430825e+05   8.954484e+05
  -1.433918e+06   3.555696e+05
  -1.083097e+06  -7.137302e+05
   2.063362e+05  -1.484615e+06
   1.697568e+06  -1.096653e+06
   2.238397e+06   4.625727e+05
   1.146694e+06   2.057526e+06
  -9.526762e+05   2.322107e+06
  -2.468895e+06   1.043069e+06
  -2.333345e+06  -5.963857e+05
  -1.012845e+06  -1.303845e+06
   1.521247e+05  -9.844410e+05
   4.135311e+05  -5.685123e+05
   1.555329e+05  -7.552946e+05
   1.513398e+05  -1.252760e+06
   6.580835e+05  -1.234015e+06
   1.256760e+06  -2.969818e+05
   1.311202e+06   1.075613e+06
   5.440237e+05   1.877135e+06
  -6.220814e+05   1.421988e+06
  -1.273219e+06   8.252337e+03
  -8.102551e+05  -1.242933e+06
   3.508371e+05  -1.366870e+06
   1.096322e+06  -4.334776e+05
   7.800651e+05   6.239476e+05
  -8.498170e+04   1.014405e+06
  -4.703841e+05   7.667038e+05
  -5.499223e+04   4.288654e+05
   4.204908e+05   3.472572e+05
   5.339358e+04   3.858119e+05
  -1.113176e+06   2.099573e+05
  -2.007609e+06  -3.236606e+05
  -1.592630e+06  -1.005145e+06
   9.112532e+03  -1.382645e+06
   1.532229e+06  -1.104816e+06
   1.788906e+06  -2.960159e+05
   8.253496e+05   4.385085e+05
  -2.448213e+05   5.358168e+05
  -4.884150e+05   4.926026e+04
  -9.170714e+03  -3.919250e+05
   4.548557e+05  -2.509220e+05
   4.709349e+05   3.405097e+05
   2.195217e+05   7.331233e+05
   6.417318e+04   4.841798e+05
   1.337351e+05  -1.176663e+05
   2.945649e+05  -3.242333e+05
   2.777731e+05   2.243467e+05
  -1.530684e+05   9.911313e+05
  -8.892205e+05   1.047955e+06
  -1.314515e+06   1.420427e+05
  -8.054846e+05  -9.156701e+05
   4.184024e+05  -1.097117e+06
   1.230847e+06  -2.976023e+05
   7.241140e+05   5.784085e+05
  -6.848626e+05   6.459470e+05
  -1.581261e+06  -7.345520e+04
  -1.035113e+06  -8.348460e+05
   4.415670e+05  -9.967299e+05
   1.480326e+06  -5.200641e+05
   1.242749e+06   1.584636e+05
   1.508698e+05   5.121242e+05
  -6.357596e+05   2.803121e+05
  -3.686833e+05  -2.846867e+05
   5.972327e+05  -5.083434e+05
   1.176970e+06   1.008796e+05
   6.452897e+05   1.189309e+06
  -6.155782e+05   1.689082e+06
  -1.491528e+06   8.673324e+05
  -1.250460e+06  -7.612432e+05
  -2.020591e+05  -1.787523e+06
   7.302585e+05  -1.301629e+06
   9.195117e+05   1.565809e+05
   4.462415e+05   1.176581e+06
  -1.921562e+05   9.685048e+05
  -5.494772e+05   9.100164e+04
  -4.801801e+05  -3.729951e+05
  -1.810575e+05  -1.358804e+05
  -4.016300e+04   9.768333e+04
  -2.515053e+05  -2.905629e+05
  -4.980299e+05  -9.586109e+05
  -2.120444e+05  -1.068806e+06
   6.869597e+05  -3.892550e+05
   1.471331e+06   4.593260e+05
   1.292358e+06   8.233113e+05
   1.859628e+05   6.900291e+05
  -8.633346e+05   4.231825e+05
  -9.819172e+05   1.910302e+05
  -3.434513e+05  -4.860677e+04
   1.504372e+05  -2.257034e+05
   1.537971e+04  -2.051704e+05
  -2.847714e+05  -9.491164e+04
  -4.474740e+04  -1.364010e+05
   6.783918e+05  -2.384802e+05
   1.042246e+06   1.469536e+04
   4.081486e+05   6.966502e+05
  -8.541966e+05   1.172541e+06
  -1.685582e+06   7.409407e+05
  -1.392032e+06  -4.436283e+05
  -2.732546e+05  -1.404827e+06
   7.587868e+05  -1.364793e+06
   1.048472e+06  -5.291280e+05
   6.595932e+05   2.360021e+05
   1.282725e+05   3.595678e+05
  -8.607650e+04   6.505622e+04
   7.128284e+04  -2.348615e+04
   3.040229e+05   3.578260e+05
   2.535620e+05   8.010219e+05
  -1.805363e+05   6.758714e+05
  -6.863746e+05  -1.245456e+05
  -7.377415e+05  -9.569490e+05
  -1.062437e+05  -1.033916e+06
   7.625915e+05  -2.442710e+05
   1.037143e+06   7.249848e+05
   3.446315e+05   1.087968e+06
  -7.144172e+05   6.716794e+05
  -1.111585e+06  -7.605928e+04
  -5.213218e+05  -6.050920e+05
   2.889490e+05  -6.671628e+05
   3.698058e+05  -3.598951e+05
  -2.576604e+05  -4.754421e+03
  -6.501353e+05   4.233137e+04
  -1.431332e+05  -3.068145e+05
   8.184947e+05  -6.807238e+05
   1.239890e+06  -5.438068e+05
   7.464603e+05   1.736068e+05
  -9.557919e+04   8.636319e+05
  -5.418984e+05   8.460224e+05
  -4.200966e+05   1.507941e+05
  -5.439764e+04  -4.837914e+05
   2.412450e+05  -4.319690e+05
   3.578381e+05   1.511697e+05
   2.551960e+05   5.750884e+05
  -5.758206e+04   4.214957e+05
  -3.920992e+05  -4.558263e+04
  -4.687805e+05  -2.747359e+05
  -2.382527e+05  -9.086394e+04
   2.703778e+04   1.473331e+05
   7.285738e+04   3.240323e+04
  -8.829040e+03  -3.644788e+05
   6.564963e+04  -5.532830e+05
   3.314087e+05  -2.119998e+05
   4.577332e+05   3.905088e+05
   1.501722e+05   6.560973e+05
  -4.109620e+05   3.159519e+05
  -6.638460e+05  -2.824450e+05
  -2.558516e+05  -5.754002e+05
   5.028001e+05  -3.645733e+05
   8.794492e+05   7.611322e+04
   4.781821e+05   3.754703e+05
  -2.949077e+05   3.965890e+05
  -6.396429e+05   2.245715e+05
  -2.463310e+05   1.421512e+04
   3.551821e+05  -7.272409e+04
   4.156060e+05   6.407198e+04
  -1.662403e+05   3.001211e+05
  -7.467601e+05   2.839864e+05
