
 $NMID
 id='ANONYMOUS ', fmtdat='(2E16.6)'
 volume=1.0
 tramp=1.0
 $END
   6.005243e+07   1.425373e+06
   3.510287e+07   3.808565e+07
  -9.000384e+06   4.039166e+07
  -2.971234e+07   1.479590e+07
  -1.724701e+07  -7.933346e+06
   3.797185e+06  -9.803299e+06
   1.036078e+07   1.591493e+06
   2.652761e+06   1.042476e+07
  -6.806363e+06   9.700528e+06
  -1.027170e+07   1.850198e+06
  -7.292366e+06  -6.750090e+06
  -6.898136e+05  -9.154910e+06
   4.312465e+06  -2.846348e+06
   2.703829e+06   5.802688e+06
  -4.124978e+06   6.831758e+06
  -8.315743e+06  -1.627912e+06
  -4.465742e+06  -1.095181e+07
   4.311644e+06  -1.244516e+07
   1.090264e+07  -6.045982e+06
   1.148542e+07   2.439294e+06
   6.902401e+06   8.163390e+06
   5.152393e+05   9.281612e+06
  -3.311533e+06   6.382176e+06
  -2.087138e+06   2.744883e+06
   1.155047e+06   2.221325e+06
   2.514226e+05   4.424069e+06
  -5.795346e+06   4.616557e+06
  -1.029001e+07   3.874207e+05
  -7.435754e+06  -4.527571e+06
  -1.934408e+05  -5.433698e+06
   4.003956e+06  -2.725571e+06
   2.682478e+06  -4.428816e+03
  -5.799032e+05   1.013202e+06
  -2.393583e+06   5.523283e+05
  -2.349772e+06  -1.510419e+06
  -7.234114e+05  -4.201202e+06
   1.997235e+06  -4.093823e+06
   3.494287e+06   1.829638e+05
   1.769512e+06   3.948871e+06
  -9.112116e+05   2.068748e+06
  -3.754108e+05  -2.613761e+06
   2.636466e+06  -2.398112e+06
   2.515111e+06   3.450930e+06
  -2.753805e+06   6.443803e+06
  -7.442445e+06   8.702083e+05
  -5.275448e+06  -7.523612e+06
   2.263597e+06  -9.029954e+06
   7.969381e+06  -2.396354e+06
   7.280981e+06   4.872703e+06
   1.822953e+06   6.425197e+06
  -3.735399e+06   2.793198e+06
  -5.526701e+06  -1.726008e+06
  -2.480265e+06  -3.738692e+06
   2.622546e+06  -2.263470e+06
   4.784419e+06   1.092618e+06
   1.999054e+06   2.936466e+06
  -1.861287e+06   1.414772e+06
  -1.818590e+06  -1.121111e+06
   1.425192e+06  -9.171157e+05
   2.559953e+06   1.942946e+06
  -7.825588e+05   3.629846e+06
  -4.985051e+06   1.878959e+06
  -5.589948e+06  -1.587120e+06
  -2.356630e+06  -4.284716e+06
   2.025123e+06  -5.570170e+06
   5.414734e+06  -5.073153e+06
   6.631995e+06  -1.750602e+06
   4.833047e+06   3.456500e+06
   8.922922e+05   6.591959e+06
  -2.074328e+06   5.019233e+06
  -1.883017e+06   1.234435e+06
  -1.299773e+05  -2.753586e+05
   4.879317e+04   1.077594e+06
  -1.733999e+06   1.924167e+06
  -3.025904e+06   2.406700e+05
  -2.165867e+06  -2.079947e+06
  -2.278067e+04  -2.298821e+06
   1.650451e+06  -2.216657e+05
   1.768269e+06   2.218533e+06
  -2.997910e+04   3.129775e+06
  -2.980813e+06   1.731383e+06
  -4.763310e+06  -1.344194e+06
  -3.374626e+06  -4.081080e+06
   1.302994e+05  -4.522527e+06
   2.498853e+06  -2.853542e+06
   2.411700e+06  -1.155722e+06
   1.962241e+06  -6.809625e+05
   3.136229e+06  -4.536870e+05
   4.617002e+06   8.880767e+05
   3.667198e+06   3.007411e+06
   7.179127e+04   4.402059e+06
  -3.479504e+06   4.113782e+06
  -4.488956e+06   2.211267e+06
  -2.843353e+06  -4.819117e+05
  -2.763393e+05  -2.399959e+06
   1.201157e+06  -2.063923e+06
   6.073474e+05   4.416616e+04
  -1.181535e+06   1.388240e+06
  -2.048919e+06   3.944608e+05
  -9.700973e+05  -1.310711e+06
   5.662585e+05  -1.186441e+06
   4.420389e+05   4.176169e+05
  -1.152246e+06   7.027983e+05
  -1.935395e+06  -1.436287e+06
  -5.863710e+05  -3.730746e+06
   1.781272e+06  -3.569367e+06
   3.354144e+06  -1.087239e+06
   3.471058e+06   1.605868e+06
   2.361813e+06   2.961641e+06
   4.425882e+05   2.777164e+06
  -1.343784e+06   1.546393e+06
  -1.689956e+06   2.245416e+05
  -5.264511e+05  -5.716493e+04
   3.699090e+05   8.115405e+05
  -4.739051e+05   1.431272e+06
  -2.063013e+06   5.816331e+05
  -2.162092e+06  -9.984081e+05
  -3.781491e+05  -1.529265e+06
   1.267109e+06  -5.863518e+05
   9.349211e+05   5.010113e+05
  -9.180890e+05   5.239754e+05
  -2.307477e+06  -3.944124e+05
  -1.819393e+06  -1.472978e+06
   3.061553e+05  -2.083838e+06
   2.492489e+06  -1.718372e+06
   2.970632e+06  -2.410383e+05
   1.280067e+06   1.383649e+06
  -1.020034e+06   1.600749e+06
  -1.687417e+06   1.731431e+05
  -1.999019e+05  -1.170836e+06
   1.642527e+06  -7.644550e+05
   1.824422e+06   8.746574e+05
   3.193155e+05   1.774379e+06
  -1.193766e+06   1.010994e+06
  -1.332700e+06  -3.714950e+05
  -2.355536e+05  -8.435522e+05
   8.621438e+05  -3.907453e+04
   7.743429e+05   1.146689e+06
  -6.401017e+05   1.521881e+06
  -2.163994e+06   5.528625e+05
  -2.169172e+06  -1.160370e+06
  -3.746449e+05  -2.234851e+06
   1.579314e+06  -1.734977e+06
   1.855807e+06  -1.879307e+05
   5.159382e+05   9.422181e+05
  -7.232909e+05   8.449174e+05
  -6.735400e+05   7.394411e+04
   1.353110e+05  -3.686841e+05
   5.146423e+05  -2.046795e+05
   1.094604e+05   6.046182e+04
  -4.832898e+05  -1.140365e+05
  -5.300496e+05  -7.430641e+05
   2.556211e+05  -1.267379e+06
   1.501484e+06  -9.302103e+05
   2.224165e+06   4.835012e+05
   1.537345e+06   2.111183e+06
  -2.730798e+05   2.588615e+06
  -1.750140e+06   1.475358e+06
  -1.794430e+06  -1.695866e+05
  -8.901687e+05  -9.597650e+05
  -3.321896e+05  -6.776307e+05
  -5.257581e+05  -2.328582e+05
  -6.797479e+05  -3.579690e+05
  -8.255909e+04  -8.315282e+05
   9.590750e+05  -9.449612e+05
   1.551206e+06  -3.144673e+05
   1.100641e+06   7.853291e+05
  -2.971016e+05   1.542990e+06
  -1.858941e+06   1.109196e+06
  -2.393551e+06  -5.585044e+05
  -1.168612e+06  -2.270388e+06
   1.136941e+06  -2.513991e+06
   2.749338e+06  -1.047728e+06
   2.496169e+06   7.599358e+05
   9.808462e+05   1.445432e+06
  -2.423984e+05   9.894542e+05
  -4.090149e+05   5.286395e+05
  -7.608364e+04   8.151245e+05
  -1.270307e+05   1.415700e+06
  -7.474917e+05   1.378214e+06
  -1.399820e+06   3.206969e+05
  -1.419464e+06  -1.179700e+06
  -5.675040e+05  -2.039343e+06
   6.881683e+05  -1.530644e+06
   1.375236e+06   2.649554e+04
   8.423934e+05   1.394530e+06
  -4.535599e+05   1.486862e+06
  -1.261127e+06   3.974708e+05
  -8.521249e+05  -7.815810e+05
   1.679193e+05  -1.157058e+06
   6.050749e+05  -8.206903e+05
   1.031314e+05  -4.347108e+05
  -4.637191e+05  -3.638450e+05
  -6.087420e+04  -4.107578e+05
   1.240084e+06  -2.015490e+05
   2.213324e+06   3.969525e+05
   1.714137e+06   1.144338e+06
  -7.870496e+04   1.542451e+06
  -1.737102e+06   1.195985e+06
  -1.969929e+06   2.569613e+05
  -8.759695e+05  -5.580507e+05
   2.977381e+05  -6.111222e+05
   5.512492e+05  -1.979758e+04
   2.843523e+04   4.632352e+05
  -4.740020e+05   2.749992e+05
  -5.133555e+05  -3.739812e+05
  -2.754516e+05  -7.785839e+05
  -1.088201e+05  -5.176328e+05
  -1.445608e+05   9.045320e+04
  -2.901625e+05   3.001841e+05
  -2.885069e+05  -2.541416e+05
   1.580982e+05  -1.052214e+06
   9.812055e+05  -1.131969e+06
   1.482120e+06  -1.733553e+05
   9.178625e+05   9.964370e+05
  -4.647967e+05   1.229646e+06
  -1.367158e+06   3.563298e+05
  -7.823836e+05  -6.201327e+05
   7.657807e+05  -6.802869e+05
   1.691607e+06   1.347760e+05
   1.041637e+06   9.402300e+05
  -5.474782e+05   1.034858e+06
  -1.603724e+06   4.666329e+05
  -1.299986e+06  -2.332222e+05
  -1.276394e+05  -5.469763e+05
   7.007264e+05  -2.694927e+05
   4.125473e+05   3.280480e+05
  -6.273238e+05   5.639151e+05
  -1.273277e+06  -8.690067e+04
  -7.264495e+05  -1.271061e+06
   6.312866e+05  -1.833006e+06
   1.593940e+06  -9.508841e+05
   1.342105e+06   8.183631e+05
   2.014050e+05   1.919685e+06
  -8.066327e+05   1.367621e+06
  -9.831827e+05  -2.141439e+05
  -4.319711e+05  -1.282599e+06
   2.655215e+05  -1.021266e+06
   6.082996e+05  -7.339125e+04
   4.806426e+05   4.042438e+05
   1.576293e+05   1.408911e+05
   5.894667e+04  -9.512782e+04
   3.193464e+05   3.361779e+05
   5.439088e+05   1.048882e+06
   1.714062e+05   1.150957e+06
  -7.947980e+05   4.069400e+05
  -1.572785e+06  -5.138214e+05
  -1.342327e+06  -9.080983e+05
  -1.872831e+05  -7.552553e+05
   9.008492e+05  -4.463269e+05
   1.049026e+06  -1.789347e+05
   4.009972e+05   7.504143e+04
  -1.508835e+05   2.440827e+05
  -6.207985e+04   2.040244e+05
   2.599863e+05   8.562877e+04
   6.379620e+04   1.433558e+05
  -6.854935e+05   2.633136e+05
  -1.128914e+06  -1.137195e+04
  -4.996310e+05  -7.569521e+05
   8.875781e+05  -1.281038e+06
   1.852217e+06  -8.209581e+05
   1.551146e+06   4.600253e+05
   3.006666e+05   1.509220e+06
  -8.400764e+05   1.482984e+06
  -1.134035e+06   5.931206e+05
  -7.016877e+05  -2.358155e+05
  -1.547465e+05  -3.881455e+05
   5.333077e+04  -9.195797e+04
  -9.388555e+04  -3.464094e+03
  -3.063367e+05  -4.036239e+05
  -2.502141e+05  -8.684576e+05
   1.899497e+05  -7.368940e+05
   7.289965e+05   1.105807e+05
   8.133770e+05   1.006842e+06
   1.559684e+05   1.117243e+06
  -7.954199e+05   2.976235e+05
  -1.125761e+06  -7.494090e+05
  -3.936604e+05  -1.176301e+06
   7.654369e+05  -7.515160e+05
   1.219269e+06   7.432983e+04
   5.858600e+05   6.824863e+05
  -3.151116e+05   7.568461e+05
  -4.346098e+05   3.985882e+05
   2.393515e+05  -4.558178e+03
   6.916929e+05  -4.733400e+04
   1.665635e+05   3.381604e+05
  -8.880757e+05   7.250657e+05
  -1.376639e+06   5.546270e+05
  -8.452791e+05  -2.178286e+05
   1.031353e+05  -9.466730e+05
   6.212311e+05  -9.290233e+05
   4.894450e+05  -1.913600e+05
   7.485525e+04   5.052267e+05
  -2.535616e+05   4.850349e+05
  -3.803886e+05  -1.315358e+05
  -2.780828e+05  -6.203250e+05
   5.210618e+04  -4.848939e+05
   4.232479e+05   3.596474e+04
   5.189725e+05   3.213223e+05
   2.591615e+05   1.203626e+05
  -4.812629e+04  -1.841928e+05
  -8.420531e+04  -9.031194e+04
   5.308406e+04   3.673210e+05
  -2.744460e+03   6.282116e+05
  -3.314161e+05   2.876342e+05
  -5.341403e+05  -3.786655e+05
  -2.196054e+05  -6.979362e+05
   4.259428e+05  -3.549352e+05
   7.364858e+05   2.824502e+05
   2.905117e+05   6.067368e+05
  -5.539906e+05   3.979162e+05
  -9.682275e+05  -6.786255e+04
  -5.251920e+05  -4.052195e+05
   3.173208e+05  -4.529650e+05
   6.976873e+05  -2.728353e+05
   2.924183e+05  -2.258954e+04
  -3.434478e+05   1.015423e+05
  -4.301232e+05  -3.344418e+04
   1.517035e+05  -2.976878e+05
   7.563214e+05  -3.010225e+05
