
 $NMID
 id='ANONYMOUS ', fmtdat='(2E16.6)'
 volume=1.0
 tramp=1.0
 $END
  -1.289112e+07   8.764250e+05
  -8.326613e+06  -7.000584e+06
   8.843645e+05  -8.638030e+06
   5.910724e+06  -4.158842e+06
   3.974588e+06   9.723817e+05
  -4.702816e+05   2.386143e+06
  -2.433168e+06   3.340880e+05
  -1.203790e+06  -2.167985e+06
   1.007689e+06  -2.686877e+06
   2.260253e+06  -9.207198e+05
   1.893746e+06   1.494048e+06
   3.029190e+05   2.304096e+06
  -1.145002e+06   7.230538e+05
  -9.965962e+05  -1.518365e+06
   6.211289e+05  -1.899537e+06
   1.867024e+06   3.597206e+04
   1.263382e+06   2.269774e+06
  -6.767245e+05   2.748642e+06
  -2.270828e+06   1.380334e+06
  -2.463350e+06  -5.066124e+05
  -1.429066e+06  -1.726700e+06
  -7.674360e+04  -1.871418e+06
   5.723185e+05  -1.210890e+06
   1.218101e+05  -5.474267e+05
  -5.876371e+05  -6.353497e+05
  -1.775537e+05  -1.257231e+06
   1.453551e+06  -1.318664e+06
   2.637256e+06  -2.668133e+05
   1.918042e+06   1.062032e+06
  -1.851730e+04   1.460214e+06
  -1.204897e+06   7.731695e+05
  -7.887088e+05  -1.592520e+05
   3.056162e+05  -5.607397e+05
   8.761729e+05  -2.257969e+05
   6.560294e+05   5.910752e+05
   2.710256e+04   1.213367e+06
  -5.719428e+05   8.821824e+05
  -7.298330e+05  -2.694888e+05
  -2.872371e+05  -9.605306e+05
   2.430257e+05  -2.831299e+05
   1.048518e+05   8.336380e+05
  -5.700986e+05   6.964561e+05
  -6.975101e+05  -7.008332e+05
   2.788448e+05  -1.467554e+06
   1.404960e+06  -3.781602e+05
   1.290179e+06   1.420343e+06
  -1.636098e+05   1.923393e+06
  -1.643158e+06   7.231025e+05
  -1.864914e+06  -8.320652e+05
  -7.293820e+05  -1.420293e+06
   7.805754e+05  -8.824454e+05
   1.457362e+06   1.266074e+05
   7.939468e+05   8.247276e+05
  -5.296989e+05   7.091813e+05
  -1.186978e+06  -6.334725e+04
  -5.911763e+05  -6.629956e+05
   3.986319e+05  -4.423664e+05
   5.456233e+05   2.145548e+05
  -1.808440e+05   3.734843e+05
  -6.440228e+05  -1.790278e+05
  -1.101585e+05  -7.019556e+05
   8.521653e+05  -5.535343e+05
   1.206908e+06   1.138191e+05
   6.368220e+05   8.180027e+05
  -3.847701e+05   1.280547e+06
  -1.246073e+06   1.257817e+06
  -1.544945e+06   4.791490e+05
  -1.137131e+06  -7.858849e+05
  -2.950318e+05  -1.582940e+06
   3.417126e+05  -1.274136e+06
   3.648094e+05  -4.075170e+05
   8.010496e+04  -3.297723e+04
   9.779683e+04  -3.319907e+05
   5.223966e+05  -5.153054e+05
   8.515851e+05  -4.560827e+04
   6.424771e+05   6.313001e+05
   1.795635e+03   7.442153e+05
  -5.782844e+05   1.509738e+05
  -6.415894e+05  -6.002776e+05
  -6.908455e+04  -8.871233e+05
   7.721786e+05  -4.941270e+05
   1.197174e+06   3.021872e+05
   8.118524e+05   9.382910e+05
  -6.310119e+03   1.001975e+06
  -5.028678e+05   6.153428e+05
  -4.577555e+05   2.756588e+05
  -3.874499e+05   2.463149e+05
  -7.284533e+05   2.703123e+05
  -1.162794e+06  -2.423055e+04
  -1.027379e+06  -6.186088e+05
  -1.931141e+05  -1.129243e+06
   7.548289e+05  -1.187391e+06
   1.140266e+06  -6.956820e+05
   7.941798e+05   1.022079e+05
   1.040695e+05   6.804388e+05
  -3.406411e+05   5.904521e+05
  -2.087911e+05  -1.995138e+04
   2.801973e+05  -4.364899e+05
   5.498400e+05  -1.888256e+05
   2.939942e+05   3.331248e+05
  -1.511278e+05   3.979040e+05
  -2.232264e+05  -4.983777e+04
   1.567222e+05  -3.100212e+05
   5.095056e+05   9.791387e+04
   3.980621e+05   7.878363e+05
  -1.314589e+05   1.019095e+06
  -7.108394e+05   5.607856e+05
  -9.997841e+05  -1.825603e+05
  -8.276518e+05  -6.951730e+05
  -2.621040e+05  -7.535440e+05
   3.212670e+05  -4.524362e+05
   4.676524e+05  -9.233201e+04
   1.438448e+05   8.861696e+03
  -1.469898e+05  -1.949905e+05
   3.826292e+04  -3.877616e+05
   4.944497e+05  -2.458965e+05
   6.211371e+05   1.457395e+05
   2.076475e+05   3.901630e+05
  -2.947109e+05   2.658627e+05
  -3.289836e+05  -4.576260e+04
   1.353606e+05  -2.142119e+05
   6.098861e+05  -8.157953e+04
   6.029118e+05   2.685542e+05
   6.501247e+04   5.886346e+05
  -5.785624e+05   5.906869e+05
  -7.872129e+05   1.861141e+05
  -3.925416e+05  -3.203857e+05
   2.111053e+05  -4.521136e+05
   4.341019e+05  -9.799407e+04
   9.631495e+04   3.067364e+05
  -4.002536e+05   2.788112e+05
  -5.314460e+05  -1.388620e+05
  -1.950605e+05  -4.629731e+05
   2.503597e+05  -3.654056e+05
   3.960782e+05  -8.238595e+03
   1.584166e+05   2.097925e+05
  -1.841619e+05   8.864736e+04
  -2.516383e+05  -2.234080e+05
   8.180203e+04  -4.014880e+05
   5.209740e+05  -2.262257e+05
   6.006958e+05   2.148841e+05
   1.851221e+05   5.662831e+05
  -3.443891e+05   5.179350e+05
  -4.960412e+05   1.238500e+05
  -2.057519e+05  -2.448164e+05
   1.477326e+05  -2.898314e+05
   2.204280e+05  -6.926786e+04
   4.413526e+04   1.320138e+05
  -1.153620e+05   1.370688e+05
  -8.999863e+04   2.395260e+04
   6.006497e+04  -1.194012e+04
   1.428906e+05   1.192779e+05
   2.293109e+03   2.980365e+05
  -3.262946e+05   2.868437e+05
  -5.774072e+05  -3.265579e+04
  -4.675299e+05  -4.804524e+05
  -1.833435e+04  -6.925452e+05
   4.120380e+05  -4.794114e+05
   5.031429e+05  -3.816752e+04
   3.078081e+05   2.558647e+05
   1.240176e+05   2.425770e+05
   1.046502e+05   9.330962e+04
   1.263151e+05   5.488273e+04
   2.065311e+04   1.666825e+05
  -1.990323e+05   2.537180e+05
  -3.645117e+05   1.397741e+05
  -3.111267e+05  -1.589916e+05
   8.787788e+02  -4.149881e+05
   4.200041e+05  -3.625881e+05
   6.371451e+05   4.422521e+04
   4.109995e+05   5.240414e+05
  -1.561957e+05   6.843989e+05
  -6.423261e+05   3.991684e+05
  -6.948843e+05  -6.427440e+04
  -3.672143e+05  -3.339227e+05
  -1.189992e+04  -3.093065e+05
   1.121291e+05  -1.987736e+05
   5.246805e+04  -2.196234e+05
   2.244097e+04  -3.439668e+05
   1.435863e+05  -3.581473e+05
   3.365459e+05  -1.219351e+05
   4.049288e+05   2.611485e+05
   2.199610e+05   5.150103e+05
  -1.280117e+05   4.297467e+05
  -3.647483e+05   5.931655e+04
  -2.822015e+05  -3.074185e+05
   3.170482e+04  -3.960119e+05
   2.696856e+05  -1.838332e+05
   2.337558e+05   1.116309e+05
   3.468650e+04   2.649323e+05
  -6.968644e+04   2.351103e+05
   1.279098e+04   1.398332e+05
   1.140539e+05   9.419919e+04
   1.516692e+04   1.044737e+05
  -2.885003e+05   9.066233e+04
  -5.454966e+05  -2.043468e+04
  -4.782477e+05  -2.129014e+05
  -7.338581e+04  -3.690959e+05
   3.642997e+05  -3.566135e+05
   4.893734e+05  -1.622875e+05
   2.590009e+05   6.497339e+04
  -4.132112e+04   1.421851e+05
  -1.249687e+05   3.832865e+04
   6.708955e+03  -9.002037e+04
   1.396982e+05  -7.016734e+04
   1.358187e+05   9.067884e+04
   5.297181e+04   2.095103e+05
   9.161892e+03   1.393095e+05
   3.481205e+04  -4.591876e+04
   7.813661e+04  -1.178658e+05
   7.323882e+04   4.045454e+04
  -2.598162e+04   2.733994e+05
  -2.017360e+05   3.078733e+05
  -3.222510e+05   6.691300e+04
  -2.224563e+05  -2.276343e+05
   8.195686e+04  -2.942991e+05
   3.189463e+05  -9.340598e+04
   2.147331e+05   1.516502e+05
  -1.705800e+05   2.047125e+05
  -4.578167e+05   3.504194e+04
  -3.433603e+05  -1.979374e+05
   7.436832e+04  -3.088111e+05
   4.056730e+05  -2.223287e+05
   3.740562e+05  -1.323941e+04
   7.183574e+04   1.449059e+05
  -1.668234e+05   1.153458e+05
  -1.089170e+05  -5.674692e+04
   1.593379e+05  -1.517166e+05
   3.324280e+05   6.697734e+03
   1.969056e+05   3.255371e+05
  -1.531500e+05   4.875948e+05
  -4.139392e+05   2.697073e+05
  -3.748630e+05  -1.940061e+05
  -1.013596e+05  -5.089321e+05
   1.711735e+05  -4.027240e+05
   2.679915e+05   9.426647e+02
   1.789969e+05   3.147342e+05
   2.231296e+03   2.909138e+05
  -1.410646e+05   5.433981e+04
  -1.640273e+05  -9.066801e+04
  -7.680361e+04  -3.580373e+04
  -2.953360e+03   3.651408e+04
  -5.451414e+04  -6.134268e+04
  -1.625228e+05  -2.531891e+05
  -1.166715e+05  -3.045337e+05
   1.587121e+05  -1.363629e+05
   4.372568e+05   8.956393e+04
   4.120102e+05   1.971007e+05
   7.299531e+04   1.842961e+05
  -2.528796e+05   1.407078e+05
  -2.795651e+05   8.904228e+04
  -8.157205e+04   6.125281e+03
   4.599931e+04  -6.887963e+04
  -2.015904e+04  -6.990400e+04
  -1.050603e+05  -2.711212e+04
  -8.941392e+03  -3.404234e+04
   2.079402e+05  -7.721223e+04
   2.916884e+05  -1.967371e+04
   1.002667e+05   1.822229e+05
  -2.337290e+05   3.427182e+05
  -4.429815e+05   2.369476e+05
  -3.758713e+05  -1.045437e+05
  -1.033085e+05  -3.941814e+05
   1.711506e+05  -3.950301e+05
   2.781098e+05  -1.605482e+05
   1.942441e+05   5.863863e+04
   3.755096e+04   9.443393e+04
  -4.121107e+04   7.204966e+03
   1.089287e+04  -2.372317e+04
   1.061857e+05   8.367715e+04
   1.059797e+05   2.177596e+05
  -3.444294e+04   1.935584e+05
  -2.032140e+05  -2.877618e+04
  -2.236728e+05  -2.668605e+05
  -3.218959e+04  -2.904565e+05
   2.258622e+05  -6.775080e+04
   3.058678e+05   2.012256e+05
   1.088460e+05   2.987571e+05
  -1.894267e+05   1.898696e+05
  -3.033615e+05  -1.542828e+02
  -1.488964e+05  -1.397199e+05
   6.076353e+04  -1.732106e+05
   7.335987e+04  -1.077265e+05
  -9.426710e+04  -5.814237e+03
  -1.865324e+05   2.370421e+04
  -3.947616e+04  -7.908373e+04
   2.149397e+05  -2.163622e+05
   3.197453e+05  -2.007497e+05
   1.950221e+05   1.541047e+04
  -8.059594e+03   2.398177e+05
  -1.149732e+05   2.437128e+05
  -9.421947e+04   3.630637e+04
  -1.527963e+04  -1.444329e+05
   6.211909e+04  -1.155598e+05
   1.058399e+05   5.349347e+04
   8.275921e+04   1.570997e+05
  -1.171286e+04   1.034513e+05
  -1.120879e+05  -1.148611e+04
  -1.332195e+05  -5.368346e+04
  -6.904983e+04  -8.985693e+03
   2.075560e+03   2.609421e+04
   2.048424e+04  -2.309025e+04
   1.425049e+04  -1.160348e+05
   4.330504e+04  -1.389404e+05
   1.023820e+05  -3.360485e+04
   1.144514e+05   1.234784e+05
   2.402619e+04   1.859526e+05
  -1.185264e+05   8.925415e+04
  -1.810507e+05  -7.714518e+04
  -7.595942e+04  -1.635046e+05
   1.272141e+05  -1.113456e+05
   2.389433e+05   9.173557e+03
   1.388558e+05   9.537797e+04
  -7.455327e+04   1.058538e+05
  -1.724751e+05   6.146237e+04
  -5.564078e+04   4.911728e+03
   1.211102e+05  -1.609408e+04
   1.298433e+05   2.939302e+04
  -5.627403e+04   1.035659e+05
  -2.337313e+05   9.880069e+04
