
 $NMID
 id='ANONYMOUS ', fmtdat='(2E16.6)'
 volume=1.0
 tramp=1.0
 $END
  -1.975913e+06  -3.373757e+05
  -1.386591e+06  -1.134418e+06
   7.529636e+04  -1.380769e+06
   1.150906e+06  -8.654463e+05
   9.829606e+05   1.051786e+04
   2.309777e+04   4.735832e+05
  -5.893918e+05   1.554103e+05
  -3.392801e+05  -4.873769e+05
   2.756981e+05  -6.870333e+05
   5.334220e+05  -2.245111e+05
   2.832894e+05   3.744075e+05
  -9.601643e+04   4.748758e+05
  -2.218426e+05   1.877993e+04
  -2.410665e+04  -4.676523e+05
   2.885292e+05  -4.635443e+05
   4.144721e+05   2.218792e+04
   1.964101e+05   5.026826e+05
  -2.083853e+05   5.382552e+05
  -4.480474e+05   1.668288e+05
  -3.441256e+05  -2.019995e+05
  -8.126542e+04  -2.718792e+05
   3.503422e+04  -1.505569e+05
  -6.191243e+04  -1.382128e+05
  -1.640106e+05  -3.219145e+05
  -5.751876e+04  -4.791060e+05
   2.508752e+05  -3.649606e+05
   5.385187e+05  -5.597018e+03
   5.435800e+05   3.248958e+05
   2.028797e+05   3.754490e+05
  -2.191152e+05   1.421274e+05
  -3.232764e+05  -1.460197e+05
  -6.613111e+03  -2.362836e+05
   3.683470e+05  -6.363312e+04
   3.712239e+05   2.123836e+05
   2.227128e+04   3.617976e+05
  -2.543567e+05   2.791256e+05
  -1.838333e+05   5.480157e+04
   5.150429e+04  -1.117261e+05
   1.182495e+05  -7.735578e+04
  -4.097766e+04   1.135743e+05
  -2.191021e+05   2.446789e+05
  -2.521706e+05   1.301325e+05
  -1.493479e+05  -1.556179e+05
   1.326047e+04  -3.075574e+05
   1.540618e+05  -1.264593e+05
   1.580054e+05   2.099014e+05
  -4.159990e+04   3.160662e+05
  -3.086744e+05   4.678471e+04
  -3.666796e+05  -3.264863e+05
  -1.020826e+05  -4.294177e+05
   2.669281e+05  -1.899457e+05
   4.050740e+05   1.344651e+05
   2.106813e+05   2.658583e+05
  -1.016941e+05   1.547553e+05
  -2.424751e+05  -4.242111e+04
  -1.249734e+05  -1.381988e+05
   8.052644e+04  -6.193882e+04
   1.341503e+05   9.410746e+04
  -2.461707e+04   1.566576e+05
  -2.042123e+05   4.507546e+04
  -1.665531e+05  -1.275163e+05
   8.303769e+04  -1.683548e+05
   2.672437e+05  -2.297724e+04
   1.447772e+05   1.671738e+05
  -1.986076e+05   2.271870e+05
  -4.383538e+05   1.137206e+05
  -3.706081e+05  -8.980718e+04
  -1.046460e+05  -2.726084e+05
   1.091465e+05  -3.556130e+05
   1.592291e+05  -3.127153e+05
   1.331470e+05  -1.910328e+05
   1.533305e+05  -7.794142e+04
   2.261063e+05  -3.054156e+03
   2.550502e+05   9.050280e+04
   1.607397e+05   2.267600e+05
  -2.860340e+04   2.963640e+05
  -1.899817e+05   1.672253e+05
  -2.046160e+05  -1.094452e+05
  -6.012671e+04  -2.987810e+05
   1.343182e+05  -2.283907e+05
   2.370426e+05   2.364161e+04
   1.874386e+05   2.293432e+05
   4.479762e+04   2.554528e+05
  -7.468881e+04   1.601179e+05
  -1.052056e+05   7.723046e+04
  -9.027299e+04   6.422059e+04
  -1.298619e+05   6.767339e+04
  -2.487592e+05   1.878014e+03
  -3.265754e+05  -1.513166e+05
  -2.053290e+05  -3.064778e+05
   1.092275e+05  -3.392440e+05
   3.938794e+05  -2.034770e+05
   4.098130e+05   1.444108e+04
   1.561314e+05   1.673449e+05
  -1.207677e+05   1.723845e+05
  -1.816797e+05   6.706088e+04
  -2.637518e+04  -3.788369e+04
   1.417275e+05  -5.087165e+04
   1.482310e+05   2.784867e+04
   1.362310e+04   1.008195e+05
  -9.811128e+04   6.464383e+04
  -6.179235e+04  -5.935795e+04
   8.515490e+04  -1.111458e+05
   1.831273e+05   3.373956e+04
   1.054998e+05   2.796274e+05
  -1.173945e+05   3.704144e+05
  -3.194945e+05   1.683344e+05
  -3.445286e+05  -1.742645e+05
  -1.790882e+05  -3.688346e+05
   4.517648e+04  -2.901967e+05
   1.707076e+05  -7.641244e+04
   1.422864e+05   5.273074e+04
   3.936849e+04   2.025624e+04
  -7.588223e+03  -7.322140e+04
   5.481228e+04  -9.060162e+04
   1.471239e+05  -7.113593e+02
   1.409799e+05   1.054209e+05
   1.140557e+04   1.172009e+05
  -1.128247e+05   2.219706e+04
  -8.224625e+04  -7.543050e+04
   9.195314e+04  -6.042682e+04
   2.263438e+05   7.005418e+04
   1.568031e+05   1.995269e+05
  -7.756753e+04   2.090438e+05
  -2.683460e+05   8.918728e+04
  -2.512368e+05  -6.148119e+04
  -6.498565e+04  -1.299646e+05
   1.028898e+05  -7.968903e+04
   1.078668e+05   2.554495e+04
  -2.361992e+04   7.502199e+04
  -1.414615e+05   1.035785e+04
  -1.267680e+05  -1.094687e+05
   1.035954e+03  -1.584888e+05
   1.167384e+05  -7.993993e+04
   1.176814e+05   4.244006e+04
   2.148185e+04   7.569915e+04
  -5.696628e+04  -8.659121e+03
  -2.351204e+04  -1.036992e+05
   9.724844e+04  -9.166392e+04
   1.812941e+05   2.960386e+04
   1.278838e+05   1.546626e+05
  -3.335547e+04   1.805674e+05
  -1.637416e+05   9.466967e+04
  -1.519238e+05  -2.704774e+04
  -2.619027e+04  -8.901930e+04
   7.912597e+04  -5.491390e+04
   6.763475e+04   2.282950e+04
  -2.393033e+04   5.595173e+04
  -8.049420e+04   1.488135e+04
  -4.235471e+04  -3.779265e+04
   3.448374e+04  -2.326618e+04
   4.851145e+04   5.284245e+04
  -3.375591e+04   9.894078e+04
  -1.403131e+05   3.962497e+04
  -1.623721e+05  -9.809575e+04
  -5.875497e+04  -2.075308e+05
   1.007693e+05  -2.005724e+05
   1.951529e+05  -8.136139e+04
   1.635230e+05   6.267687e+04
   5.989072e+04   1.354071e+05
  -9.687830e+03   1.103581e+05
  -2.586448e+03   4.676640e+04
   2.257250e+04   2.279984e+04
  -1.134249e+04   4.842349e+04
  -9.753852e+04   5.652848e+04
  -1.454718e+05  -9.156441e+03
  -8.086706e+04  -1.107429e+05
   6.892438e+04  -1.432352e+05
   1.915564e+05  -4.800105e+04
   1.848336e+05   1.152108e+05
   4.166548e+04   2.171918e+05
  -1.422017e+05   1.759718e+05
  -2.413620e+05   2.616335e+04
  -1.987060e+05  -1.171919e+05
  -6.681418e+04  -1.604775e+05
   4.709417e+04  -1.075595e+05
   8.103058e+04  -4.310763e+04
   6.233870e+04  -3.890062e+04
   5.620413e+04  -7.700192e+04
   8.453148e+04  -7.426447e+04
   1.060544e+05   1.497556e+04
   7.049828e+04   1.345024e+05
  -1.962295e+04   1.776325e+05
  -1.031508e+05   9.853372e+04
  -1.127762e+05  -3.991377e+04
  -3.728983e+04  -1.286908e+05
   6.245050e+04  -1.121726e+05
   1.040156e+05  -2.499162e+04
   5.976971e+04   5.553422e+04
  -1.670785e+04   8.200521e+04
  -4.798863e+04   6.623489e+04
  -1.669376e+04   4.836704e+04
   1.730306e+04   4.546214e+04
  -1.215742e+04   3.472830e+04
  -9.678397e+04  -1.201325e+04
  -1.533220e+05  -8.399379e+04
  -1.065440e+05  -1.320961e+05
   2.848186e+04  -1.167614e+05
   1.502577e+05  -4.864384e+04
   1.634146e+05   2.223734e+04
   7.165614e+04   5.196752e+04
  -2.695382e+04   3.435851e+04
  -4.359365e+04  -2.436694e+03
   1.052704e+04  -2.031052e+04
   5.036391e+04   7.923122e+02
   2.622966e+04   4.387821e+04
  -2.089490e+04   6.462912e+04
  -2.299755e+04   3.606905e+04
   2.269913e+04  -1.286577e+04
   5.279437e+04  -2.136435e+04
   1.935474e+04   2.879325e+04
  -5.565477e+04   7.901569e+04
  -1.090057e+05   5.702668e+04
  -9.657870e+04  -3.061271e+04
  -2.263935e+04  -9.561213e+04
   6.490552e+04  -6.755092e+04
   9.815074e+04   2.266621e+04
   3.703440e+04   7.652737e+04
  -7.897090e+04   3.643062e+04
  -1.427669e+05  -5.714662e+04
  -7.858968e+04  -1.149673e+05
   6.697395e+04  -8.889795e+04
   1.600315e+05  -8.892528e+03
   1.185612e+05   5.488614e+04
  -3.207139e+02   5.647926e+04
  -6.674636e+04   9.188831e+03
  -2.052752e+04  -3.025946e+04
   6.995198e+04  -1.260281e+04
   8.897521e+04   5.774697e+04
  -1.044306e+03   1.204600e+05
  -1.212271e+05   1.080959e+05
  -1.577775e+05   8.596016e+03
  -7.581624e+04  -1.132903e+05
   4.975419e+04  -1.616507e+05
   1.136208e+05  -9.212808e+04
   8.128475e+04   3.991128e+04
   5.632947e+03   1.216828e+05
  -4.472740e+04   8.983200e+04
  -5.057255e+04  -4.941485e+03
  -3.435444e+04  -5.633164e+04
  -1.716227e+04  -2.687892e+04
  -5.599484e+03   1.192651e+04
  -3.481411e+03  -1.937331e+04
  -6.055409e+03  -9.427305e+04
   1.094748e+04  -1.087123e+05
   6.262038e+04  -1.941687e+04
   1.116021e+05   9.339560e+04
   9.141557e+04   1.237497e+05
  -5.902430e+03   6.472109e+04
  -9.687339e+04  -1.586525e+03
  -9.661512e+04  -1.771191e+04
  -2.431030e+04  -6.220082e+03
   2.360761e+04  -1.064931e+04
   2.365207e+03  -2.922727e+04
  -2.733141e+04  -3.178250e+04
   5.719681e+03  -1.088179e+04
   7.476866e+04   1.658057e+04
   8.426007e+04   4.132015e+04
  -4.967513e+03   6.083252e+04
  -1.204877e+05   5.456682e+04
  -1.568855e+05  -1.250787e+03
  -8.413167e+04  -8.481290e+04
   3.370208e+04  -1.276247e+05
   1.086054e+05  -8.625657e+04
   1.025196e+05   6.074205e+02
   4.436463e+04   5.106368e+04
  -6.731619e+03   3.158656e+04
  -1.423986e+04  -1.047012e+04
   8.656871e+03  -8.969732e+03
   1.983820e+04   4.172387e+04
  -3.577179e+03   7.995819e+04
  -4.050660e+04   4.663130e+04
  -5.024781e+04  -4.424219e+04
  -1.577955e+04  -1.102026e+05
   3.970091e+04  -8.161198e+04
   7.225402e+04   2.187177e+04
   5.055571e+04   1.060674e+05
  -1.744307e+04   9.888912e+04
  -8.113352e+04   2.143410e+04
  -8.356766e+04  -4.677542e+04
  -2.071699e+04  -5.912368e+04
   4.163293e+04  -3.679097e+04
   3.458652e+04  -2.040678e+04
  -2.799341e+04  -1.998049e+04
  -5.755064e+04  -2.367933e+04
   1.178000e+03  -2.704443e+04
   9.489037e+04  -2.830699e+04
   1.215450e+05  -1.245800e+04
   5.246786e+04   2.844887e+04
  -3.815189e+04   6.484298e+04
  -6.616720e+04   5.309899e+04
  -2.703975e+04  -2.906186e+03
   2.090360e+04  -4.291116e+04
   3.442539e+04  -2.112671e+04
   1.907829e+04   3.445605e+04
  -1.465725e+03   5.711256e+04
  -1.730709e+04   2.416007e+04
  -2.823961e+04  -2.173653e+04
  -3.036833e+04  -3.268214e+04
  -2.021941e+04  -1.129149e+04
  -2.711081e+03   3.952937e+03
   1.436860e+04  -7.972907e+03
   2.803124e+04  -2.794499e+04
   3.578516e+04  -2.322779e+04
   3.003952e+04   1.333800e+04
   5.772370e+03   5.170011e+04
  -2.747046e+04   5.131055e+04
  -4.745210e+04   3.977619e+03
  -3.551103e+04  -4.997072e+04
   6.760147e+03  -5.798751e+04
   5.233225e+04  -1.227029e+04
   6.311621e+04   3.945248e+04
   2.332765e+04   4.772562e+04
  -3.503086e+04   1.590748e+04
  -5.416007e+04  -1.119250e+04
  -1.366375e+04  -4.681966e+03
   3.671094e+04   2.048517e+04
   2.923226e+04   3.280382e+04
  -3.660935e+04   1.902776e+04
  -8.507901e+04  -1.344316e+04
