
 $NMID
 id='ANONYMOUS ', fmtdat='(2E16.6)'
 volume=1.0
 tramp=1.0
 $END
  -5.592095e+07   2.644027e+05
  -3.384976e+07  -3.438927e+07
   7.129434e+06  -3.786571e+07
   2.730093e+07  -1.477568e+07
   1.645215e+07   6.785610e+06
  -3.191283e+06   9.295205e+06
  -9.792107e+06  -1.098055e+06
  -2.872152e+06  -9.686655e+06
   6.079632e+06  -9.376288e+06
   9.588545e+06  -2.083461e+06
   6.996504e+06   6.137571e+06
   8.526482e+05   8.572462e+06
  -3.965202e+06   2.740068e+06
  -2.653413e+06  -5.439013e+06
   3.708790e+06  -6.575288e+06
   7.844248e+06   1.264769e+06
   4.488493e+06   1.012411e+07
  -3.685761e+06   1.175812e+07
  -1.001076e+07   5.923318e+06
  -1.074280e+07  -1.993581e+06
  -6.594346e+06  -7.400472e+06
  -7.228537e+05  -8.556745e+06
   2.826986e+06  -6.003748e+06
   1.766386e+06  -2.712584e+06
  -1.144957e+06  -2.205784e+06
  -2.498968e+05  -4.201389e+06
   5.407506e+06  -4.398221e+06
   9.649660e+06  -5.108531e+05
   7.030165e+06   4.096324e+06
   2.401476e+05   5.034484e+06
  -3.728018e+06   2.550401e+06
  -2.460703e+06  -1.882556e+04
   6.583525e+05  -9.709633e+05
   2.334395e+06  -4.838385e+05
   2.205442e+06   1.470275e+06
   6.750715e+05   3.947548e+06
  -1.791425e+06   3.832452e+06
  -3.186248e+06  -1.146078e+05
  -1.684990e+06  -3.601290e+06
   7.582710e+05  -1.874547e+06
   3.255666e+05   2.487763e+06
  -2.455045e+06   2.327851e+06
  -2.466963e+06  -3.157453e+06
   2.346239e+06  -6.115398e+06
   6.862585e+06  -1.063772e+06
   5.117201e+06   6.834469e+06
  -1.834911e+06   8.475354e+06
  -7.366953e+06   2.443540e+06
  -6.967376e+06  -4.397146e+06
  -1.896705e+06  -6.019169e+06
   3.457392e+06  -2.746762e+06
   5.286155e+06   1.481949e+06
   2.468874e+06   3.469055e+06
  -2.382419e+06   2.215072e+06
  -4.519196e+06  -8.830936e+05
  -1.969027e+06  -2.693182e+06
   1.699719e+06  -1.376102e+06
   1.755527e+06   1.015717e+06
  -1.290930e+06   9.476243e+05
  -2.488648e+06  -1.689196e+06
   5.432986e+05  -3.404038e+06
   4.551272e+06  -1.935962e+06
   5.282468e+06   1.285889e+06
   2.343535e+06   3.931196e+06
  -1.781549e+06   5.259214e+06
  -5.003801e+06   4.851921e+06
  -6.185382e+06   1.755389e+06
  -4.572485e+06  -3.145533e+06
  -9.594275e+05  -6.166861e+06
   1.825978e+06  -4.791952e+06
   1.747677e+06  -1.265847e+06
   1.922254e+05   2.162423e+05
   2.004446e+04  -9.868111e+05
   1.641770e+06  -1.774232e+06
   2.833853e+06  -2.109014e+05
   2.031805e+06   1.969608e+06
   5.952436e+03   2.176539e+06
  -1.592560e+06   2.035767e+05
  -1.708827e+06  -2.109338e+06
  -4.691350e+03  -2.965782e+06
   2.782801e+06  -1.661676e+06
   4.483195e+06   1.193245e+06
   3.228308e+06   3.752362e+06
  -2.201310e+04   4.216722e+06
  -2.253593e+06   2.719546e+06
  -2.215989e+06   1.155283e+06
  -1.834303e+06   7.085330e+05
  -2.966921e+06   5.056033e+05
  -4.395041e+06  -7.469128e+05
  -3.533354e+06  -2.781919e+06
  -1.445663e+05  -4.176018e+06
   3.238778e+06  -3.955128e+06
   4.224557e+06  -2.148015e+06
   2.685549e+06   4.315018e+05
   2.704521e+05   2.264397e+06
  -1.118875e+06   1.954049e+06
  -5.690014e+05  -3.911361e+04
   1.103286e+06  -1.327364e+06
   1.929321e+06  -4.080550e+05
   9.322228e+05   1.216265e+06
  -5.266617e+05   1.130771e+06
  -4.430239e+05  -3.953578e+05
   1.072369e+06  -7.238426e+05
   1.892385e+06   1.276003e+06
   6.879510e+05   3.521461e+06
  -1.581396e+06   3.478965e+06
  -3.178977e+06   1.162715e+06
  -3.372733e+06  -1.447415e+06
  -2.324215e+06  -2.803597e+06
  -4.651593e+05  -2.655465e+06
   1.259894e+06  -1.487694e+06
   1.602621e+06  -2.314819e+05
   5.007897e+05   4.600874e+04
  -3.652704e+05  -7.642338e+05
   4.168497e+05  -1.363598e+06
   1.936506e+06  -5.920467e+05
   2.069651e+06   8.982156e+05
   3.948948e+05   1.440449e+06
  -1.192352e+06   5.827517e+05
  -9.057720e+05  -4.645642e+05
   8.656062e+05  -5.317332e+05
   2.221780e+06   3.258627e+05
   1.775456e+06   1.382921e+06
  -2.544439e+05   2.006940e+06
  -2.349182e+06   1.683281e+06
  -2.822052e+06   2.792143e+05
  -1.240037e+06  -1.286762e+06
   9.328676e+05  -1.529858e+06
   1.587277e+06  -1.959178e+05
   2.065626e+05   1.099096e+06
  -1.543484e+06   7.516722e+05
  -1.750573e+06  -7.961463e+05
  -3.425736e+05  -1.684259e+06
   1.114844e+06  -9.942993e+05
   1.281798e+06   3.206380e+05
   2.489208e+05   7.984805e+05
  -8.131306e+05   5.662059e+04
  -7.521486e+05  -1.072803e+06
   5.845897e+05  -1.451697e+06
   2.044263e+06  -5.555811e+05
   2.075074e+06   1.067315e+06
   3.927132e+05   2.114002e+06
  -1.467470e+06   1.675038e+06
  -1.759835e+06   2.135098e+05
  -5.107194e+05  -8.865617e+05
   6.723660e+05  -8.181317e+05
   6.437440e+05  -7.723847e+04
  -1.237682e+05   3.653222e+05
  -4.999049e+05   2.083318e+05
  -1.197927e+05  -6.838727e+04
   4.609355e+05   8.102517e+04
   5.274406e+05   6.884785e+05
  -2.126602e+05   1.210748e+06
  -1.409132e+06   9.119079e+05
  -2.120878e+06  -4.215319e+05
  -1.493760e+06  -1.979079e+06
   2.194440e+05  -2.465074e+06
   1.644728e+06  -1.436231e+06
   1.718601e+06   1.310825e+05
   8.683422e+05   9.116855e+05
   3.194857e+05   6.582499e+05
   4.873702e+05   2.181810e+05
   6.427815e+05   3.184195e+05
   9.449173e+04   7.803057e+05
  -8.935211e+05   9.172079e+05
  -1.474364e+06   3.282708e+05
  -1.065176e+06  -7.354617e+05
   2.577892e+05  -1.483176e+06
   1.753350e+06  -1.089573e+06
   2.287730e+06   4.927405e+05
   1.153062e+06   2.139572e+06
  -1.030867e+06   2.410828e+06
  -2.592214e+06   1.049342e+06
  -2.393404e+06  -6.752833e+05
  -9.681733e+05  -1.364859e+06
   2.140968e+05  -9.591924e+05
   3.941520e+05  -5.142442e+05
   7.287862e+04  -7.656146e+05
   9.992744e+04  -1.333695e+06
   6.816974e+05  -1.315829e+06
   1.318718e+06  -3.273537e+05
   1.364257e+06   1.097793e+06
   5.697047e+05   1.928088e+06
  -6.308866e+05   1.464046e+06
  -1.308861e+06  -2.147965e+03
  -8.274105e+05  -1.308656e+06
   3.999440e+05  -1.423076e+06
   1.188631e+06  -4.106367e+05
   8.285033e+05   7.157036e+05
  -1.281503e+05   1.099986e+06
  -5.516329e+05   7.973925e+05
  -8.928323e+04   4.217969e+05
   4.426534e+05   3.395297e+05
   6.230162e+04   3.894277e+05
  -1.171811e+06   2.148328e+05
  -2.104697e+06  -3.365374e+05
  -1.648575e+06  -1.056052e+06
   4.043008e+04  -1.465337e+06
   1.621719e+06  -1.166043e+06
   1.867319e+06  -2.819981e+05
   8.490015e+05   5.086348e+05
  -2.669448e+05   5.831228e+05
  -5.231372e+05   3.274347e+04
  -3.478915e+04  -4.323819e+05
   4.479180e+05  -2.651695e+05
   4.922232e+05   3.467485e+05
   2.657471e+05   7.330775e+05
   1.047353e+05   4.865614e+05
   1.395507e+05  -9.241576e+04
   2.797479e+05  -2.923240e+05
   2.797989e+05   2.369501e+05
  -1.385971e+05   1.002255e+06
  -9.132832e+05   1.089416e+06
  -1.394336e+06   1.880246e+05
  -8.791187e+05  -9.276170e+05
   4.185335e+05  -1.168780e+06
   1.284429e+06  -3.558412e+05
   7.503302e+05   5.785133e+05
  -7.159635e+05   6.606372e+05
  -1.614597e+06  -9.972292e+04
  -1.014556e+06  -8.808530e+05
   5.007971e+05  -1.001598e+06
   1.524311e+06  -4.768839e+05
   1.248201e+06   2.001311e+05
   1.323429e+05   5.215800e+05
  -6.628172e+05   2.707479e+05
  -3.961087e+05  -3.017494e+05
   5.885017e+05  -5.399663e+05
   1.207051e+06   6.790704e+04
   7.014525e+05   1.195237e+06
  -5.777842e+05   1.743599e+06
  -1.500579e+06   9.203871e+05
  -1.285346e+06  -7.598519e+05
  -2.180275e+05  -1.822061e+06
   7.485470e+05  -1.315278e+06
   9.415607e+05   1.852768e+05
   4.346565e+05   1.214741e+06
  -2.333363e+05   9.815211e+05
  -5.768336e+05   8.241881e+04
  -4.664817e+05  -3.806876e+05
  -1.556901e+05  -1.360251e+05
  -5.370547e+04   9.390220e+04
  -3.037416e+05  -3.072383e+05
  -5.308430e+05  -9.857448e+05
  -1.850961e+05  -1.095987e+06
   7.434146e+05  -4.037458e+05
   1.503253e+06   4.657913e+05
   1.294661e+06   8.465462e+05
   1.905800e+05   7.142706e+05
  -8.539199e+05   4.339474e+05
  -9.972251e+05   1.862568e+05
  -3.799617e+05  -6.003373e+04
   1.413288e+05  -2.324909e+05
   5.214562e+04  -2.011199e+05
  -2.522210e+05  -8.454694e+04
  -6.012328e+04  -1.341680e+05
   6.523704e+05  -2.537602e+05
   1.070615e+06  -4.150845e+03
   4.773491e+05   7.052821e+05
  -8.280321e+05   1.222357e+06
  -1.740639e+06   8.044932e+05
  -1.470314e+06  -4.134264e+05
  -3.041530e+05  -1.428650e+06
   7.737914e+05  -1.419507e+06
   1.065872e+06  -5.755458e+05
   6.685401e+05   2.177970e+05
   1.500045e+05   3.646970e+05
  -5.225240e+04   8.136734e+04
   8.982989e+04  -3.265502e+03
   3.005929e+05   3.788961e+05
   2.524426e+05   8.226679e+05
  -1.702943e+05   7.004816e+05
  -6.924983e+05  -9.934989e+04
  -7.807253e+05  -9.462664e+05
  -1.579071e+05  -1.054037e+06
   7.510850e+05  -2.861244e+05
   1.074422e+06   6.997127e+05
   3.868258e+05   1.108735e+06
  -7.144998e+05   7.195837e+05
  -1.154937e+06  -5.328649e+04
  -5.651038e+05  -6.338962e+05
   2.849206e+05  -7.181864e+05
   4.016589e+05  -3.862905e+05
  -2.310495e+05   2.518543e+03
  -6.569328e+05   5.299774e+04
  -1.617693e+05  -3.166408e+05
   8.334851e+05  -7.017053e+05
   1.297402e+06  -5.526549e+05
   8.031210e+05   1.876901e+05
  -8.378059e+04   8.979981e+05
  -5.710001e+05   8.915746e+05
  -4.546062e+05   1.880804e+05
  -7.411429e+04  -4.790521e+05
   2.331735e+05  -4.606850e+05
   3.604198e+05   1.243062e+05
   2.718563e+05   5.847941e+05
  -4.129445e+04   4.561277e+05
  -4.008708e+05  -3.012900e+04
  -4.976260e+05  -2.935995e+05
  -2.495014e+05  -1.077491e+05
   4.821181e+04   1.691332e+05
   8.583624e+04   7.705097e+04
  -4.725086e+04  -3.469312e+05
  -2.465221e+02  -5.856682e+05
   3.082478e+05  -2.674260e+05
   5.027550e+05   3.537077e+05
   2.095068e+05   6.551079e+05
  -4.003572e+05   3.390805e+05
  -6.980418e+05  -2.590740e+05
  -2.806264e+05  -5.723432e+05
   5.185836e+05  -3.856152e+05
   9.160198e+05   5.138147e+04
   5.027191e+05   3.766602e+05
  -2.927752e+05   4.309015e+05
  -6.545938e+05   2.651558e+05
  -2.731625e+05   2.703957e+04
   3.273756e+05  -9.415779e+04
   4.074992e+05   3.229016e+04
  -1.460540e+05   2.851577e+05
  -7.205740e+05   2.916564e+05
