
 $NMID
 id='ANONYMOUS ', fmtdat='(2E16.6)'
 volume=1.0
 tramp=1.0
 $END
  -2.842497e+07  -1.416238e+05
  -1.822196e+07  -1.474416e+07
   1.325970e+06  -1.830041e+07
   1.274124e+07  -1.042819e+07
   9.584924e+06   2.805492e+05
  -9.197064e+04   4.946174e+06
  -5.462391e+06   1.592207e+06
  -3.430786e+06  -4.626129e+06
   1.837369e+06  -6.851941e+06
   5.154131e+06  -2.742842e+06
   4.303619e+06   3.522080e+06
   5.535098e+05   5.500480e+06
  -2.561071e+06   1.301227e+06
  -2.001494e+06  -4.288695e+06
   1.688966e+06  -5.076849e+06
   4.517824e+06  -1.852477e+05
   3.160591e+06   5.454868e+06
  -1.470451e+06   6.748707e+06
  -5.355779e+06   3.254132e+06
  -5.540415e+06  -1.492405e+06
  -2.644496e+06  -3.985823e+06
   2.415423e+05  -3.542753e+06
   5.956348e+05  -2.066441e+06
  -1.181489e+06  -1.814605e+06
  -2.059420e+06  -3.123641e+06
   4.169381e+05  -4.069306e+06
   4.870717e+06  -2.666356e+06
   6.927006e+06   6.297098e+05
   4.076279e+06   3.188924e+06
  -1.080271e+06   3.027167e+06
  -3.568024e+06   7.327823e+05
  -1.566140e+06  -1.469450e+06
   2.037683e+06  -1.808884e+06
   3.435878e+06  -4.602586e+04
   1.855712e+06   2.495252e+06
  -5.807875e+05   3.582368e+06
  -1.680877e+06   1.888937e+06
  -1.040420e+06  -1.095730e+06
   1.953685e+05  -2.041057e+06
   5.592411e+05   2.516206e+05
  -4.753347e+05   2.815029e+06
  -1.852435e+06   2.014453e+06
  -1.770706e+06  -1.498425e+06
   2.928846e+05  -3.304817e+06
   2.546723e+06  -8.910087e+05
   2.462950e+06   3.096498e+06
  -4.728644e+05   4.196593e+06
  -3.913674e+06   1.352691e+06
  -4.740621e+06  -2.454741e+06
  -2.009967e+06  -3.920251e+06
   2.071047e+06  -2.418847e+06
   4.061270e+06   2.800355e+05
   2.438601e+06   1.974902e+06
  -9.414972e+05   1.615645e+06
  -2.711057e+06  -8.758152e+04
  -1.474339e+06  -1.305770e+06
   8.579046e+05  -8.602901e+05
   1.465395e+06   5.167147e+05
  -7.982167e+04   1.087582e+06
  -1.532246e+06   1.944423e+05
  -8.468241e+05  -1.093832e+06
   1.414388e+06  -1.346421e+06
   2.811762e+06  -1.572229e+05
   1.678542e+06   1.793023e+06
  -1.304280e+06   3.287867e+06
  -3.889848e+06   3.074029e+06
  -4.285201e+06   7.298269e+05
  -2.554872e+06  -2.456810e+06
  -3.387570e+05  -4.194110e+06
   7.813724e+05  -3.469443e+06
   7.068722e+05  -1.683530e+06
   5.924644e+05  -8.454998e+05
   1.288650e+06  -1.068538e+06
   2.315227e+06  -7.578088e+05
   2.486719e+06   8.621497e+05
   1.272757e+06   2.451525e+06
  -6.486583e+05   2.183549e+06
  -1.956382e+06   1.965603e+04
  -1.645255e+06  -2.179794e+06
   2.178146e+05  -2.558426e+06
   2.327972e+06  -9.146595e+05
   3.002485e+06   1.357514e+06
   1.721077e+06   2.626450e+06
  -2.497175e+05   2.362614e+06
  -1.220992e+06   1.372985e+06
  -1.031531e+06   7.896838e+05
  -1.077111e+06   8.430375e+05
  -2.253183e+06   7.291231e+05
  -3.496463e+06  -3.302701e+05
  -2.929155e+06  -2.096381e+06
  -2.224112e+05  -3.438711e+06
   2.743600e+06  -3.298351e+06
   3.692614e+06  -1.558930e+06
   2.159747e+06   7.416872e+05
  -1.897423e+05   2.027865e+06
  -1.257417e+06   1.450710e+06
  -4.360270e+05  -1.782362e+05
   1.036340e+06  -1.045798e+06
   1.500470e+06  -2.963734e+05
   5.802518e+05   9.419393e+05
  -5.686588e+05   9.661349e+05
  -6.282169e+05  -2.683298e+05
   4.673693e+05  -1.000855e+06
   1.542757e+06   1.158528e+05
   1.390309e+06   2.252805e+06
  -1.702367e+05   3.268878e+06
  -2.195368e+06   2.031835e+06
  -3.300385e+06  -5.110420e+05
  -2.634703e+06  -2.415734e+06
  -6.321775e+05  -2.536241e+06
   1.165402e+06  -1.311141e+06
   1.436409e+06  -1.197255e+05
   4.234190e+05   3.545753e+04
  -3.271644e+05  -6.272585e+05
   2.359455e+05  -1.038800e+06
   1.416356e+06  -5.005618e+05
   1.645683e+06   5.457045e+05
   4.428096e+05   1.055839e+06
  -9.382678e+05   5.657900e+05
  -9.234925e+05  -3.470455e+05
   5.931097e+05  -7.137249e+05
   2.078038e+06  -8.987048e+04
   1.913592e+06   1.111546e+06
   3.121053e+04   1.953600e+06
  -1.987180e+06   1.668443e+06
  -2.416578e+06   3.434761e+05
  -1.037535e+06  -9.731980e+05
   6.995691e+05  -1.144401e+06
   1.154687e+06  -1.404404e+05
   8.845870e+04   8.281499e+05
  -1.250364e+06   6.162561e+05
  -1.496470e+06  -5.552103e+05
  -4.768562e+05  -1.385085e+06
   7.789941e+05  -1.016113e+06
   1.126526e+06   4.340852e+04
   3.720671e+05   5.948776e+05
  -5.818710e+05   9.066607e+04
  -6.033643e+05  -8.620865e+05
   5.154097e+05  -1.197381e+06
   1.727568e+06  -4.333144e+05
   1.725929e+06   9.019271e+05
   3.548516e+05   1.743297e+06
  -1.146512e+06   1.423310e+06
  -1.447741e+06   2.697200e+05
  -5.113393e+05  -6.999751e+05
   5.138163e+05  -7.438126e+05
   6.386579e+05  -7.000331e+04
  -8.611732e+03   4.784487e+05
  -5.478691e+05   3.684286e+05
  -3.837554e+05  -9.012726e+04
   2.350110e+05  -1.748037e+05
   5.314313e+05   3.712018e+05
  -2.003681e+04   9.831124e+05
  -1.118259e+06   8.279276e+05
  -1.791332e+06  -2.951759e+05
  -1.278105e+06  -1.636102e+06
   1.528746e+05  -2.125534e+06
   1.390273e+06  -1.370040e+06
   1.585169e+06  -1.953957e+04
   9.506817e+05   8.734900e+05
   3.534799e+05   8.478133e+05
   2.679180e+05   3.672450e+05
   3.596918e+05   1.978568e+05
   5.993091e+04   5.367148e+05
  -6.796308e+05   8.217059e+05
  -1.275919e+06   4.047240e+05
  -1.054436e+06  -6.345763e+05
   9.750074e+04  -1.415090e+06
   1.482455e+06  -1.066691e+06
   2.012035e+06   3.475505e+05
   1.103671e+06   1.762558e+06
  -6.929793e+05   2.044545e+06
  -2.069702e+06   1.030294e+06
  -2.108996e+06  -3.761887e+05
  -1.062059e+06  -1.128297e+06
   4.101255e+04  -1.000352e+06
   4.526815e+05  -6.202198e+05
   2.936184e+05  -6.383442e+05
   1.918677e+05  -9.884140e+05
   5.241191e+05  -1.011556e+06
   1.039656e+06  -2.549713e+05
   1.136268e+06   9.323428e+05
   4.877864e+05   1.641591e+06
  -5.405746e+05   1.252864e+06
  -1.127262e+06   4.700526e+04
  -7.607780e+05  -1.027268e+06
   2.042413e+05  -1.197875e+06
   8.635221e+05  -4.990372e+05
   6.890609e+05   3.834102e+05
   4.958951e+04   8.108937e+05
  -2.698371e+05   7.039867e+05
   8.371253e+03   4.328590e+05
   3.458397e+05   3.257594e+05
   3.486686e+04   3.476564e+05
  -9.257127e+05   2.194013e+05
  -1.697909e+06  -2.232796e+05
  -1.409552e+06  -8.111264e+05
  -9.683562e+04  -1.153168e+06
   1.227555e+06  -9.666432e+05
   1.530554e+06  -3.461060e+05
   7.656631e+05   2.650424e+05
  -1.602962e+05   4.238055e+05
  -4.000016e+05   9.629571e+04
   1.676721e+04  -2.750044e+05
   4.293228e+05  -2.026445e+05
   4.025148e+05   2.942694e+05
   1.175590e+05   6.574660e+05
  -1.499957e+04   4.240327e+05
   1.281714e+05  -1.599433e+05
   3.203965e+05  -3.535424e+05
   2.620576e+05   1.839567e+05
  -1.637114e+05   8.945812e+05
  -7.605963e+05   9.131728e+05
  -1.050190e+06   9.188908e+04
  -6.199549e+05  -7.897409e+05
   3.494572e+05  -8.890793e+05
   1.014541e+06  -1.985567e+05
   6.259147e+05   5.247691e+05
  -5.727199e+05   5.922087e+05
  -1.427377e+06  -1.564848e+03
  -1.029431e+06  -7.050352e+05
   2.990541e+05  -9.538934e+05
   1.323408e+06  -5.898869e+05
   1.172603e+06   6.749260e+04
   1.804639e+05   4.706930e+05
  -5.481509e+05   2.946014e+05
  -3.024622e+05  -2.181014e+05
   5.554280e+05  -4.098472e+05
   1.022692e+06   1.390517e+05
   4.996142e+05   1.066450e+06
  -6.147687e+05   1.451486e+06
  -1.344526e+06   7.138421e+05
  -1.099700e+06  -6.936357e+05
  -1.770278e+05  -1.593654e+06
   6.400084e+05  -1.198454e+06
   8.327154e+05   8.030674e+04
   4.590879e+05   1.032914e+06
  -9.515485e+04   9.025877e+05
  -4.662229e+05   1.164841e+05
  -4.777821e+05  -3.415556e+05
  -2.164931e+05  -1.411233e+05
  -1.446654e+04   1.059696e+05
  -1.463336e+05  -2.099765e+05
  -4.181725e+05  -8.249827e+05
  -2.630929e+05  -9.618835e+05
   5.271670e+05  -3.679778e+05
   1.316114e+06   3.991090e+05
   1.213883e+06   7.240776e+05
   1.782251e+05   5.956390e+05
  -8.169853e+05   3.684708e+05
  -8.900806e+05   1.952201e+05
  -2.585145e+05  -3.221820e+03
   1.537524e+05  -1.925209e+05
  -5.183408e+04  -2.200006e+05
  -3.205180e+05  -1.266238e+05
  -1.176567e+04  -1.224685e+05
   6.727202e+05  -1.785030e+05
   9.082762e+05   3.325679e+04
   2.557607e+05   5.941663e+05
  -8.179458e+05   9.849252e+05
  -1.433266e+06   6.026707e+05
  -1.134240e+06  -4.263219e+05
  -2.097462e+05  -1.248164e+06
   6.490671e+05  -1.178676e+06
   9.189373e+05  -4.160601e+05
   5.878900e+05   2.493179e+05
   8.184187e+04   3.133105e+05
  -1.341748e+05   1.071742e+04
   4.338461e+04  -7.034457e+04
   3.019073e+05   2.964440e+05
   2.506682e+05   7.074970e+05
  -1.738037e+05   5.785489e+05
  -6.143331e+05  -1.601321e+05
  -6.010697e+05  -8.884637e+05
  -1.327370e+04  -8.972580e+05
   7.090558e+05  -1.423912e+05
   8.826373e+05   7.028968e+05
   2.536430e+05   9.519446e+05
  -6.391360e+05   5.363867e+05
  -9.425285e+05  -8.935842e+04
  -4.205376e+05  -4.855891e+05
   2.480411e+05  -5.243137e+05
   2.703325e+05  -3.045091e+05
  -2.858929e+05  -3.365192e+04
  -5.875116e+05   2.297625e+04
  -1.040279e+05  -2.571429e+05
   7.238555e+05  -6.037430e+05
   1.044238e+06  -5.228930e+05
   5.982194e+05   1.035660e+05
  -9.212690e+04   7.344439e+05
  -4.254291e+05   7.202303e+05
  -3.058935e+05   9.039445e+04
  -1.073347e+04  -4.488138e+05
   2.239036e+05  -3.443245e+05
   3.133505e+05   1.900663e+05
   2.120212e+05   5.088464e+05
  -6.457894e+04   3.189275e+05
  -3.404316e+05  -6.668341e+04
  -3.939567e+05  -2.047351e+05
  -2.108091e+05  -4.688059e+04
  -1.941656e+03   8.447241e+04
   6.932700e+04  -6.074381e+04
   7.402084e+04  -3.507483e+05
   1.663605e+05  -4.175482e+05
   3.207806e+05  -8.043252e+04
   3.212466e+05   4.075980e+05
   2.796945e+04   5.798164e+05
  -3.900867e+05   2.450116e+05
  -5.415407e+05  -2.879814e+05
  -1.901260e+05  -5.283260e+05
   4.275761e+05  -3.093956e+05
   7.375985e+05   9.685000e+04
   4.005492e+05   3.342347e+05
  -2.596491e+05   3.043066e+05
  -5.455463e+05   1.416466e+05
  -1.721965e+05   4.437050e+03
   3.711536e+05  -1.152248e+04
   3.845883e+05   1.242464e+05
  -2.016818e+05   2.962907e+05
  -7.414180e+05   2.349647e+05
