
 $NMID
 id='ANONYMOUS ', fmtdat='(2E16.6)'
 volume=1.0
 tramp=1.0
 $END
  -1.815871e+07   1.529728e+04
  -1.224657e+07  -8.442436e+06
  -1.027122e+05  -1.152276e+07
   7.856019e+06  -7.796343e+06
   6.717437e+06  -8.802615e+05
   4.785057e+05   3.320452e+06
  -3.760058e+06   1.747429e+06
  -2.900017e+06  -2.942049e+06
   8.232480e+05  -5.158028e+06
   3.462117e+06  -2.336881e+06
   3.003810e+06   2.395024e+06
   3.714997e+05   3.899571e+06
  -1.802259e+06   7.902893e+05
  -1.441009e+06  -3.270433e+06
   1.075853e+06  -3.846393e+06
   3.110952e+06  -3.968440e+05
   2.335999e+06   3.618717e+06
  -8.015075e+05   4.608243e+06
  -3.506005e+06   2.187184e+06
  -3.555074e+06  -1.078618e+06
  -1.471953e+06  -2.565283e+06
   2.863331e+05  -1.964080e+06
   2.902757e+04  -1.045003e+06
  -1.438431e+06  -1.416287e+06
  -1.718748e+06  -2.735926e+06
   5.294112e+05  -3.219545e+06
   3.827946e+06  -1.762130e+06
   5.056701e+06   7.646544e+05
   2.733316e+06   2.405738e+06
  -1.095523e+06   2.028884e+06
  -2.799952e+06   2.102978e+05
  -1.033088e+06  -1.432775e+06
   1.932545e+06  -1.513204e+06
   2.936181e+06   1.397755e+05
   1.352617e+06   2.207111e+06
  -7.410909e+05   2.769494e+06
  -1.314446e+06   1.158311e+06
  -4.218447e+05  -1.005162e+06
   4.727866e+05  -1.316426e+06
   3.493322e+05   5.689463e+05
  -5.855469e+05   2.284591e+06
  -1.419346e+06   1.544757e+06
  -1.321476e+06  -9.382381e+05
  -1.251868e+05  -2.230223e+06
   1.327109e+06  -7.569208e+05
   1.570335e+06   1.828652e+06
  -1.144956e+05   2.674526e+06
  -2.555708e+06   9.187920e+05
  -3.435421e+06  -1.677831e+06
  -1.613010e+06  -2.838729e+06
   1.468686e+06  -1.884603e+06
   3.083458e+06   6.952724e+04
   1.957384e+06   1.381594e+06
  -5.258951e+05   1.217446e+06
  -1.891091e+06   6.127255e+04
  -1.114041e+06  -8.281419e+05
   5.481233e+05  -6.092676e+05
   1.131569e+06   3.515161e+05
   1.159395e+05   9.296154e+05
  -1.125804e+06   4.721709e+05
  -9.596865e+05  -5.426147e+05
   6.149967e+05  -1.041608e+06
   1.884853e+06  -3.840263e+05
   1.260324e+06   1.093760e+06
  -9.790039e+05   2.295292e+06
  -2.950297e+06   2.121103e+06
  -3.107548e+06   3.785368e+05
  -1.680128e+06  -1.852577e+06
  -1.374230e+05  -3.024846e+06
   4.835015e+05  -2.577784e+06
   4.377679e+05  -1.440280e+06
   5.926493e+05  -8.372880e+05
   1.276484e+06  -8.096457e+05
   1.961786e+06  -3.682283e+05
   1.890240e+06   9.170903e+05
   8.288843e+05   2.055783e+06
  -6.772730e+05   1.722699e+06
  -1.627889e+06  -6.637882e+04
  -1.263577e+06  -1.794947e+06
   2.536897e+05  -1.975136e+06
   1.790420e+06  -5.730845e+05
   2.128671e+06   1.138107e+06
   1.105759e+06   1.911903e+06
  -2.346848e+05   1.572708e+06
  -7.960492e+05   8.798223e+05
  -6.344099e+05   5.856398e+05
  -7.588331e+05   6.997215e+05
  -1.711312e+06   5.972125e+05
  -2.662629e+06  -2.419438e+05
  -2.227661e+06  -1.611970e+06
  -1.415592e+05  -2.644942e+06
   2.170581e+06  -2.496202e+06
   2.892399e+06  -1.091577e+06
   1.621631e+06   6.778760e+05
  -2.657466e+05   1.571820e+06
  -1.048743e+06   1.050319e+06
  -3.194329e+05  -1.714771e+05
   8.346417e+05  -7.724100e+05
   1.134922e+06  -2.004333e+05
   3.946902e+05   7.115575e+05
  -4.783814e+05   7.347765e+05
  -5.332337e+05  -2.121433e+05
   3.016274e+05  -8.578883e+05
   1.210499e+06  -8.093564e+04
   1.225567e+06   1.644038e+06
   4.098412e+04   2.627599e+06
  -1.664188e+06   1.762618e+06
  -2.656332e+06  -3.179418e+05
  -2.131208e+06  -1.938623e+06
  -4.872459e+05  -2.035676e+06
   9.425916e+05  -1.002476e+06
   1.125281e+06  -5.264507e+04
   3.267645e+05   3.302895e+04
  -2.470358e+05  -4.863029e+05
   1.712786e+05  -7.793798e+05
   1.057160e+06  -3.718532e+05
   1.248439e+06   4.003575e+05
   3.527490e+05   7.927354e+05
  -7.214960e+05   4.386542e+05
  -7.401908e+05  -2.787191e+05
   4.510994e+05  -5.992110e+05
   1.659214e+06  -1.029533e+05
   1.545424e+06   8.910903e+05
   3.425098e+04   1.569387e+06
  -1.569512e+06   1.307099e+06
  -1.881797e+06   2.485762e+05
  -7.881490e+05  -7.440685e+05
   5.348861e+05  -8.460698e+05
   8.553165e+05  -9.207314e+04
   4.150169e+04   6.174293e+05
  -9.635718e+05   4.543261e+05
  -1.154326e+06  -4.288635e+05
  -3.857496e+05  -1.075396e+06
   5.901711e+05  -8.131791e+05
   8.851452e+05   6.669272e+03
   3.128697e+05   4.539729e+05
  -4.310192e+05   7.224401e+04
  -4.470284e+05  -6.657584e+05
   4.207353e+05  -9.101576e+05
   1.340289e+06  -3.002014e+05
   1.313595e+06   7.227709e+05
   2.530893e+05   1.344138e+06
  -8.889392e+05   1.086331e+06
  -1.117235e+06   2.055188e+05
  -4.017118e+05  -5.407295e+05
   3.989002e+05  -5.783970e+05
   5.128767e+05  -4.193848e+04
  -1.127841e+03   4.061934e+05
  -4.606723e+05   3.097889e+05
  -3.501801e+05  -9.193358e+04
   1.620735e+05  -1.852083e+05
   4.293022e+05   2.561657e+05
   2.375750e+03   7.569156e+05
  -8.644949e+05   6.361989e+05
  -1.381272e+06  -2.437863e+05
  -9.663611e+05  -1.277168e+06
   1.458053e+05  -1.649240e+06
   1.100279e+06  -1.068178e+06
   1.255779e+06  -1.243525e+04
   7.611822e+05   7.170543e+05
   2.673718e+05   7.213856e+05
   1.667326e+05   3.197383e+05
   2.407040e+05   1.384170e+05
   3.814281e+04   3.908931e+05
  -5.245681e+05   6.365535e+05
  -1.002871e+06   3.173771e+05
  -8.356486e+05  -5.147551e+05
   7.871692e+04  -1.128497e+06
   1.167283e+06  -8.303081e+05
   1.567240e+06   2.887529e+05
   8.524513e+05   1.374038e+06
  -5.319060e+05   1.575933e+06
  -1.595442e+06   7.963808e+05
  -1.646962e+06  -2.872361e+05
  -8.524640e+05  -8.909435e+05
   2.547487e+04  -8.145764e+05
   3.892859e+05  -5.052842e+05
   2.827038e+05  -4.792917e+05
   1.803182e+05  -7.294406e+05
   4.068197e+05  -7.550291e+05
   7.914719e+05  -1.790082e+05
   8.598787e+05   7.382346e+05
   3.522363e+05   1.278335e+06
  -4.389786e+05   9.622888e+05
  -8.772700e+05   2.781117e+04
  -5.865442e+05  -7.917428e+05
   1.495548e+05  -9.256252e+05
   6.516954e+05  -4.069549e+05
   5.313824e+05   2.625009e+05
   6.099338e+04   6.087527e+05
  -1.813302e+05   5.519869e+05
   1.403501e+04   3.523864e+05
   2.554662e+05   2.639103e+05
   1.749658e+04   2.724344e+05
  -7.071612e+05   1.648708e+05
  -1.294481e+06  -1.841293e+05
  -1.082318e+06  -6.329437e+05
  -8.557724e+04  -8.796552e+05
   9.343892e+05  -7.285884e+05
   1.181748e+06  -2.666707e+05
   6.022168e+05   1.853736e+05
  -1.152194e+05   3.133870e+05
  -3.044390e+05   8.322435e+04
   2.332600e+04  -1.929369e+05
   3.441940e+05  -1.442966e+05
   3.038822e+05   2.332973e+05
   5.836883e+04   5.139605e+05
  -3.904042e+04   3.266134e+05
   1.062442e+05  -1.376218e+05
   2.732987e+05  -2.865944e+05
   2.053655e+05   1.441057e+05
  -1.512348e+05   6.969218e+05
  -5.996344e+05   6.926635e+05
  -7.854636e+05   4.534621e+04
  -4.421960e+05  -6.171428e+05
   2.798419e+05  -6.621335e+05
   7.696911e+05  -1.197627e+05
   4.728123e+05   4.219668e+05
  -4.462814e+05   4.565655e+05
  -1.118014e+06  -8.734414e+03
  -8.200042e+05  -5.583348e+05
   2.245486e+05  -7.578112e+05
   1.044635e+06  -4.713560e+05
   9.315984e+05   5.387841e+04
   1.448174e+05   3.745823e+05
  -4.277438e+05   2.325122e+05
  -2.249774e+05  -1.648587e+05
   4.455851e+05  -2.969258e+05
   7.859014e+05   1.396002e+05
   3.492346e+05   8.399095e+05
  -5.217496e+05   1.103591e+06
  -1.062929e+06   5.157473e+05
  -8.400541e+05  -5.634666e+05
  -1.091283e+05  -1.244516e+06
   5.172123e+05  -9.331410e+05
   6.519395e+05   6.097738e+04
   3.567138e+05   8.093762e+05
  -6.965468e+04   7.136025e+05
  -3.593454e+05   9.265806e+04
  -3.797631e+05  -2.779224e+05
  -1.810154e+05  -1.202673e+05
  -7.483757e+03   8.789125e+04
  -8.949313e+04  -1.511763e+05
  -3.045503e+05  -6.412698e+05
  -2.084297e+05  -7.576190e+05
   3.937820e+05  -2.846575e+05
   1.019600e+06   3.311747e+05
   9.502007e+05   5.836843e+05
   1.321832e+05   4.619832e+05
  -6.558808e+05   2.694703e+05
  -7.013242e+05   1.430972e+05
  -1.888252e+05   4.908683e+03
   1.283799e+05  -1.444980e+05
  -5.412975e+04  -1.837552e+05
  -2.652070e+05  -1.171922e+05
   8.995013e+02  -9.543141e+04
   5.454995e+05  -1.165486e+05
   7.007841e+05   4.716759e+04
   1.592346e+05   4.580017e+05
  -6.690563e+05   7.350949e+05
  -1.106785e+06   4.294369e+05
  -8.459363e+05  -3.587086e+05
  -1.321552e+05  -9.742515e+05
   5.181319e+05  -8.967227e+05
   7.178949e+05  -2.927392e+05
   4.528531e+05   2.154459e+05
   4.926764e+04   2.429713e+05
  -1.198623e+05  -8.153142e+03
   3.031646e+04  -6.809629e+04
   2.389022e+05   2.305503e+05
   1.896839e+05   5.541154e+05
  -1.487507e+05   4.406482e+05
  -4.754902e+05  -1.492749e+05
  -4.361981e+05  -7.114490e+05
   2.759475e+04  -6.909078e+05
   5.615875e+05  -7.704134e+04
   6.625737e+05   5.779796e+05
   1.663227e+05   7.400877e+05
  -5.068505e+05   3.892748e+05
  -7.188577e+05  -9.133781e+04
  -3.076949e+05  -3.700120e+05
   1.986418e+05  -3.846910e+05
   1.992323e+05  -2.288732e+05
  -2.372204e+05  -4.030103e+04
  -4.600532e+05   3.344419e+03
  -7.028529e+04  -1.972073e+05
   5.727913e+05  -4.568196e+05
   8.063150e+05  -4.005961e+05
   4.464163e+05   7.579829e+04
  -8.594779e+04   5.605183e+05
  -3.274600e+05   5.451519e+05
  -2.201033e+05   5.403284e+04
   1.027681e+04  -3.540220e+05
   1.822208e+05  -2.528554e+05
   2.382518e+05   1.687913e+05
   1.520009e+05   3.987808e+05
  -5.859589e+04   2.313197e+05
  -2.610226e+05  -6.498489e+04
  -2.973275e+05  -1.548296e+05
  -1.635526e+05  -3.071772e+04
  -9.425837e+03   5.231835e+04
   5.783324e+04  -7.088156e+04
   8.697839e+04  -2.776566e+05
   1.655032e+05  -2.994742e+05
   2.564244e+05  -2.649229e+04
   2.179878e+05   3.381217e+05
  -1.766406e+04   4.489172e+05
  -3.141255e+05   1.734440e+05
  -4.022435e+05  -2.430192e+05
  -1.280263e+05  -4.185228e+05
   3.325285e+05  -2.295330e+05
   5.595018e+05   9.565148e+04
   2.990080e+05   2.668128e+05
  -2.058359e+05   2.188700e+05
  -4.195620e+05   8.495519e+04
  -1.209236e+05  -9.905681e+02
   3.034724e+05   1.329423e+04
   3.001072e+05   1.223754e+05
  -1.776272e+05   2.342680e+05
  -6.023168e+05   1.636431e+05
