
 $NMID
 id='ANONYMOUS ', fmtdat='(2E16.6)'
 volume=1.0
 tramp=1.0
 $END
   3.312786e+06  -2.705326e+05
   1.731461e+06   2.814183e+06
  -1.233512e+06   2.597757e+06
  -2.164702e+06  -2.143448e+04
  -6.588526e+05  -1.647351e+06
   8.802396e+05  -9.233367e+05
   8.131231e+05   5.043877e+05
  -1.720678e+05   8.847725e+05
  -7.772475e+05   3.084466e+05
  -7.064049e+05  -2.975216e+05
  -3.036794e+05  -5.514048e+05
   1.719045e+05  -5.063838e+05
   4.474498e+05  -2.083978e+05
   2.461775e+05   1.080930e+05
  -2.077573e+05   5.563239e+04
  -3.025646e+05  -3.111308e+05
   9.699149e+04  -4.741519e+05
   4.748464e+05  -2.329894e+05
   5.104170e+05   6.288018e+04
   4.435894e+05   2.169583e+05
   3.940975e+05   4.514009e+05
   5.245409e+04   7.335034e+05
  -5.829217e+05   5.643263e+05
  -8.543873e+05  -1.456701e+05
  -3.626293e+05  -6.455477e+05
   3.044841e+05  -3.396480e+05
   3.454243e+05   2.984860e+05
  -1.577085e+05   4.046560e+05
  -4.962197e+05  -8.363697e+04
  -3.620535e+05  -5.315757e+05
  -2.215646e+04  -5.917327e+05
   2.847938e+05  -4.338596e+05
   5.108348e+05  -1.964573e+05
   5.119027e+05   1.257885e+05
   2.017464e+05   3.297614e+05
  -8.248922e+04   1.685355e+05
   6.012556e+04  -1.280427e+05
   4.108710e+05  -7.199931e+04
   3.857618e+05   3.088694e+05
  -3.402115e+04   4.846434e+05
  -2.595467e+05   2.853655e+05
  -7.504639e+04   1.460924e+05
   1.181335e+04   3.084100e+05
  -3.369791e+05   3.780720e+05
  -6.707885e+05   1.192845e+04
  -4.548846e+05  -4.572198e+05
   8.176942e+04  -5.097954e+05
   3.097917e+05  -1.904818e+05
   9.723411e+04   6.033863e+04
  -1.516726e+05   5.590177e+04
  -1.535692e+05  -6.663896e+04
   1.930975e+04  -2.019587e+05
   2.305227e+05  -2.938603e+05
   3.825813e+05  -1.811997e+05
   3.201302e+05   1.606103e+05
   2.313226e+04   3.800973e+05
  -1.843024e+05   1.835952e+05
  -1.394718e+04  -1.242374e+05
   2.728396e+05  -1.875510e+04
   1.716794e+05   4.010993e+05
  -2.756797e+05   4.979371e+05
  -4.944852e+05   6.797047e+04
  -2.443967e+05  -3.422743e+05
   4.581982e+04  -2.776152e+05
   8.612328e+02  -1.200727e+03
  -1.443090e+05   3.738080e+04
  -4.034344e+04  -9.152987e+04
   1.427832e+05  -5.947188e+04
   3.361744e+04   7.045300e+04
  -2.521381e+05  -3.553240e+04
  -2.433046e+05  -3.499888e+05
   1.528406e+05  -4.560046e+05
   4.992104e+05  -1.603634e+05
   4.423585e+05   2.472206e+05
   1.148089e+05   4.130268e+05
  -1.535561e+05   2.985774e+05
  -2.261730e+05   7.065228e+04
  -1.519999e+05  -1.234662e+05
  -1.185975e+04  -1.782729e+05
   9.061876e+04  -5.229170e+04
   5.643452e+04   1.234215e+05
  -7.000844e+04   1.336088e+05
  -1.141562e+05  -3.483732e+04
  -5.529398e+03  -1.535128e+05
   1.208862e+05  -7.351247e+04
   1.200693e+05   8.244453e+04
   7.693056e+03   1.338259e+05
  -1.196351e+05   7.602343e+04
  -1.959824e+05  -7.022076e+03
  -1.603111e+05  -9.717194e+04
   2.136062e+04  -1.745098e+05
   2.254720e+05  -1.440966e+05
   2.292745e+05   1.239240e+04
   1.343815e+04   1.320862e+05
  -1.544451e+05   8.122533e+04
  -7.776953e+04  -3.318899e+04
   8.778407e+04  -3.182722e+04
   8.836224e+04   5.333174e+04
  -4.280396e+04   5.788823e+04
  -8.606423e+04  -2.744717e+04
  -1.193014e+04  -6.775785e+04
   1.970431e+04  -4.300118e+04
  -7.892036e+03  -5.900267e+04
   6.213802e+04  -9.570551e+04
   2.212017e+05   4.501280e+03
   2.199402e+05   2.307495e+05
  -4.507127e+04   3.242524e+05
  -3.115033e+05   1.342512e+05
  -2.931645e+05  -1.381237e+05
  -6.423523e+04  -2.124688e+05
   8.932271e+04  -9.725729e+04
   7.079732e+04  -6.473551e+03
   1.748624e+04  -2.014170e+04
   2.415008e+04  -3.204032e+04
   3.608697e+04   1.577493e+04
   4.428606e+03   4.714895e+04
  -3.245026e+04   8.337581e+03
  -4.230304e+04  -5.062458e+04
  -3.526210e+04  -8.022044e+04
   7.932008e+03  -8.939864e+04
   1.146466e+05  -7.107247e+04
   2.107744e+05   1.154977e+04
   1.668231e+05   1.261190e+05
  -7.481108e+03   1.669607e+05
  -1.382401e+05   9.955953e+04
  -1.122754e+05   1.777451e+04
  -1.715420e+04   5.983903e+03
   8.855741e+03   2.906962e+04
  -3.590884e+04   1.670820e+04
  -6.381152e+04  -2.206016e+04
  -4.855932e+04  -3.751840e+04
  -2.923429e+04  -2.884991e+04
  -1.866331e+04  -2.350962e+04
  -3.973611e+03  -1.761575e+04
  -3.114228e+03  -5.677098e+03
  -3.202568e+04  -2.327373e+04
  -4.150405e+04  -8.656674e+04
   2.527388e+04  -1.285722e+05
   1.258607e+05  -7.609994e+04
   1.539790e+05   3.501788e+04
   8.159361e+04   1.001891e+05
  -9.434302e+03   8.488791e+04
  -4.214991e+04   4.656102e+04
  -2.169772e+04   3.057507e+04
   8.633034e+03   2.650349e+04
   1.955304e+04   2.624204e+04
  -7.979224e+03   4.038359e+04
  -7.071726e+04   4.500079e+04
  -1.098708e+05  -3.478337e+03
  -5.851811e+04  -7.588756e+04
   5.141357e+04  -7.603049e+04
   9.721290e+04   2.000545e+04
   1.847241e+04   1.045564e+05
  -9.834093e+04   7.332961e+04
  -1.327731e+05  -4.011143e+04
  -7.194885e+04  -1.236961e+05
   1.176265e+04  -1.285605e+05
   7.020638e+04  -8.599497e+04
   1.001471e+05  -2.812373e+04
   9.604618e+04   3.043408e+04
   5.859991e+04   5.941327e+04
   2.785451e+04   4.208764e+04
   3.396275e+04   2.545096e+04
   3.016162e+04   6.296654e+04
  -4.590406e+04   1.111744e+05
  -1.479297e+05   6.859536e+04
  -1.472211e+05  -6.616927e+04
  -7.615900e+03  -1.591228e+05
   1.437420e+05  -1.047794e+05
   1.639254e+05   3.950589e+04
   5.458864e+04   1.333389e+05
  -7.061008e+04   1.174878e+05
  -1.275308e+05   4.324140e+04
  -1.144717e+05  -2.302734e+04
  -6.249071e+04  -5.899790e+04
  -1.082645e+03  -6.637600e+04
   3.721247e+04  -5.350398e+04
   3.536081e+04  -4.208370e+04
   1.968945e+04  -4.732110e+04
   2.970384e+04  -4.638150e+04
   5.837597e+04  -3.717054e+03
   5.839861e+04   6.690263e+04
   1.097963e+04   1.019506e+05
  -4.534470e+04   6.252338e+04
  -6.197139e+04  -1.784341e+04
  -3.004552e+04  -7.224723e+04
   2.126292e+04  -6.653574e+04
   5.224268e+04  -1.767576e+04
   3.802547e+04   3.249233e+04
  -6.737707e+03   5.037872e+04
  -2.950606e+04   3.422887e+04
   2.048665e+03   1.469974e+04
   4.373293e+04   1.968754e+04
   1.823600e+04   3.607801e+04
  -7.452742e+04   2.472330e+04
  -1.366483e+05  -2.356340e+04
  -8.969492e+04  -7.049784e+04
   2.478423e+04  -7.726934e+04
   9.932023e+04  -4.607445e+04
   8.664603e+04  -4.519780e+03
   2.930355e+04   2.609634e+04
  -1.574127e+04   3.229764e+04
  -3.065582e+04   6.571417e+03
  -1.968707e+04  -3.161515e+04
   9.830552e+03  -3.762707e+04
   3.644193e+04   3.554967e+03
   3.415650e+04   4.319354e+04
   1.121853e+04   2.760402e+04
   7.701981e+03  -2.050897e+04
   3.464581e+04  -2.493281e+04
   4.536776e+04   3.714671e+04
  -3.707485e+03   9.647593e+04
  -8.303968e+04   7.883329e+04
  -1.139493e+05  -3.528930e+03
  -5.912966e+04  -7.307248e+04
   3.455018e+04  -7.637011e+04
   8.497210e+04  -2.650937e+04
   5.197240e+04   2.696779e+04
  -3.128809e+04   4.296851e+04
  -8.907032e+04   1.229256e+04
  -6.780677e+04  -3.768407e+04
   1.399956e+04  -6.160327e+04
   7.973376e+04  -3.775602e+04
   7.068287e+04   7.123732e+03
   7.672931e+03   2.636402e+04
  -3.460627e+04   4.920943e+03
  -1.204058e+04  -2.752395e+04
   4.531551e+04  -3.030835e+04
   7.372801e+04   1.116251e+04
   4.239074e+04   7.313971e+04
  -2.488766e+04   1.049354e+05
  -7.752189e+04   6.536454e+04
  -7.802369e+04  -2.887267e+04
  -2.791739e+04  -9.888423e+04
   3.190491e+04  -7.758083e+04
   5.280632e+04   1.008026e+04
   2.249963e+04   7.029260e+04
  -2.366562e+04   5.078525e+04
  -4.145444e+04  -4.106652e+03
  -2.349669e+04  -2.451085e+04
  -1.711599e+01  -6.852863e+03
   4.709726e+02  -1.245168e+03
  -1.833867e+04  -2.888000e+04
  -2.771143e+04  -5.575175e+04
  -4.450487e+03  -4.777940e+04
   4.426340e+04  -1.376455e+04
   8.161952e+04   1.802624e+04
   7.135808e+04   3.659899e+04
   1.553981e+04   4.415481e+04
  -4.101351e+04   3.732104e+04
  -5.394107e+04   1.486596e+04
  -2.586243e+04  -7.481292e+03
   8.664717e+02  -1.162370e+04
  -1.902833e+03  -2.965841e+03
  -1.524714e+04  -3.674959e+03
  -2.332141e+03  -1.894366e+04
   3.883535e+04  -2.511542e+04
   6.550457e+04   1.335641e+03
   3.598896e+04   4.992929e+04
  -4.024810e+04   7.864111e+04
  -1.036721e+05   5.236755e+04
  -9.891577e+04  -1.940639e+04
  -2.897182e+04  -8.394501e+04
   4.713375e+04  -9.085565e+04
   7.267048e+04  -4.111862e+04
   4.528705e+04   1.437105e+04
   7.710951e+03   3.015650e+04
  -4.811305e+03   1.301291e+04
   4.901779e+03   4.587665e+03
   1.360827e+04   2.457277e+04
   6.811381e+03   4.746434e+04
  -1.485369e+04   3.763776e+04
  -4.030100e+04  -6.760111e+03
  -4.772376e+04  -5.196568e+04
  -1.676353e+04  -6.171591e+04
   3.986254e+04  -2.667754e+04
   6.958082e+04   2.958668e+04
   3.231551e+04   6.576187e+04
  -4.173701e+04   5.240711e+04
  -7.538887e+04  -7.012285e+02
  -3.523719e+04  -4.840043e+04
   2.580959e+04  -5.156768e+04
   3.524241e+04  -1.620224e+04
  -8.801253e+03   1.505929e+04
  -4.084916e+04   1.000519e+04
  -1.446941e+04  -2.141799e+04
   4.372637e+04  -4.215593e+04
   7.295317e+04  -2.686659e+04
   4.847522e+04   1.589979e+04
  -1.592606e+03   5.256060e+04
  -3.570677e+04   5.244312e+04
  -3.664144e+04   1.463220e+04
  -1.398076e+04  -2.749741e+04
   1.281905e+04  -3.469804e+04
   2.698854e+04  -2.008761e+03
   2.023586e+04   3.358777e+04
  -2.587681e+03   3.350095e+04
  -2.416593e+04   2.144198e+03
  -2.740332e+04  -1.978429e+04
  -1.246727e+04  -7.295477e+03
   1.514037e+03   1.714032e+04
  -2.119678e+03   1.363450e+04
  -1.475103e+04  -2.148217e+04
  -1.018052e+04  -4.801302e+04
   1.926353e+04  -3.097502e+04
   4.371290e+04   1.548251e+04
   2.753446e+04   4.393861e+04
  -2.119759e+04   2.810709e+04
  -5.071425e+04  -1.103777e+04
  -2.445080e+04  -3.409439e+04
   3.239386e+04  -2.551001e+04
   5.991436e+04  -2.232932e+02
   3.193411e+04   2.101165e+04
  -1.799781e+04   2.884612e+04
  -3.941700e+04   2.185656e+04
  -1.912951e+04   3.338950e+03
   1.319370e+04  -1.294799e+04
   2.225488e+04  -8.811684e+03
   4.862885e+02   1.400289e+04
  -2.968128e+04   2.521028e+04
