
 $NMID
 id='ANONYMOUS ', fmtdat='(2E16.6)'
 volume=1.0
 tramp=1.0
 $END
  -1.665432e+07   5.620146e+04
  -1.179193e+07  -7.083383e+06
  -8.191139e+05  -1.055078e+07
   7.144483e+06  -8.042754e+06
   6.754414e+06  -1.530950e+06
   8.272540e+05   3.251790e+06
  -3.757145e+06   2.138322e+06
  -3.212846e+06  -2.782019e+06
   5.851206e+05  -5.385800e+06
   3.386768e+06  -2.572316e+06
   2.935754e+06   2.353692e+06
   2.979141e+05   3.890159e+06
  -1.789255e+06   6.749062e+05
  -1.387426e+06  -3.435043e+06
   1.060822e+06  -3.995395e+06
   3.060068e+06  -5.450031e+05
   2.357924e+06   3.465461e+06
  -6.832803e+05   4.463684e+06
  -3.303269e+06   2.059059e+06
  -3.251673e+06  -1.106872e+06
  -1.166803e+06  -2.349480e+06
   3.392166e+05  -1.554212e+06
  -2.698212e+05  -7.870304e+05
  -1.806808e+06  -1.580100e+06
  -1.789054e+06  -3.128792e+06
   7.681628e+05  -3.396008e+06
   4.071648e+06  -1.569447e+06
   5.082973e+06   1.063977e+06
   2.565158e+06   2.514735e+06
  -1.329052e+06   1.893598e+06
  -2.942875e+06  -6.404737e+04
  -9.163436e+05  -1.698857e+06
   2.303609e+06  -1.586922e+06
   3.245092e+06   3.544737e+05
   1.288058e+06   2.526914e+06
  -1.037244e+06   2.870808e+06
  -1.396101e+06   9.912780e+05
  -1.645289e+05  -1.136047e+06
   7.060998e+05  -1.178631e+06
   2.644314e+05   8.366639e+05
  -8.175238e+05   2.435601e+06
  -1.518159e+06   1.581988e+06
  -1.360828e+06  -8.740078e+05
  -3.403202e+05  -2.175637e+06
   1.007194e+06  -8.735645e+05
   1.452956e+06   1.560109e+06
   3.928174e+04   2.465365e+06
  -2.390804e+06   8.726721e+05
  -3.446033e+06  -1.675644e+06
  -1.686838e+06  -2.902679e+06
   1.504803e+06  -1.972320e+06
   3.220327e+06   4.351337e+04
   2.087664e+06   1.417595e+06
  -4.506750e+05   1.276195e+06
  -1.876596e+06   1.260011e+05
  -1.158105e+06  -7.835088e+05
   5.112657e+05  -6.094188e+05
   1.188819e+06   3.658803e+05
   2.066117e+05   1.059443e+06
  -1.192033e+06   6.840792e+05
  -1.226310e+06  -4.310731e+05
   3.621755e+05  -1.129893e+06
   1.830963e+06  -5.551383e+05
   1.302952e+06   9.884564e+05
  -1.042148e+06   2.231158e+06
  -3.090348e+06   1.997492e+06
  -3.124482e+06   2.235938e+05
  -1.536750e+06  -1.928774e+06
  -1.374540e+04  -3.032993e+06
   4.844008e+05  -2.644920e+06
   4.427619e+05  -1.601296e+06
   7.492604e+05  -9.652122e+05
   1.535762e+06  -7.791743e+05
   2.154555e+06  -1.860578e+05
   1.918990e+06   1.161650e+06
   7.113868e+05   2.266648e+06
  -8.653821e+05   1.802981e+06
  -1.777061e+06  -1.673961e+05
  -1.274078e+06  -1.984843e+06
   3.651516e+05  -2.062336e+06
   1.877058e+06  -4.778322e+05
   2.079820e+06   1.284143e+06
   9.841912e+05   1.939107e+06
  -2.874650e+05   1.481137e+06
  -7.464283e+05   8.019642e+05
  -5.739799e+05   5.975950e+05
  -7.702814e+05   7.538973e+05
  -1.793816e+06   6.120807e+05
  -2.765131e+06  -3.034060e+05
  -2.279252e+06  -1.736174e+06
  -6.999082e+04  -2.770162e+06
   2.363700e+06  -2.532479e+06
   3.077917e+06  -1.003597e+06
   1.649584e+06   8.116080e+05
  -3.908190e+05   1.637605e+06
  -1.170095e+06   1.028977e+06
  -3.203958e+05  -2.063476e+05
   9.115315e+05  -7.684327e+05
   1.180442e+06  -1.714931e+05
   3.681879e+05   7.418072e+05
  -5.432333e+05   7.540175e+05
  -5.883628e+05  -2.399200e+05
   3.034286e+05  -9.560070e+05
   1.300456e+06  -1.684647e+05
   1.356324e+06   1.706330e+06
   8.414550e+04   2.843961e+06
  -1.786198e+06   1.940155e+06
  -2.858231e+06  -3.576049e+05
  -2.248168e+06  -2.142453e+06
  -4.566075e+05  -2.198252e+06
   1.040013e+06  -1.019670e+06
   1.190588e+06  -1.631009e+03
   3.422436e+05   4.652848e+04
  -2.456776e+05  -5.163578e+05
   1.865153e+05  -8.015091e+05
   1.093406e+06  -3.626027e+05
   1.292022e+06   4.314303e+05
   3.651323e+05   8.280040e+05
  -7.640664e+05   4.492344e+05
  -7.888427e+05  -3.154707e+05
   4.839504e+05  -6.493785e+05
   1.780042e+06  -8.788542e+04
   1.642301e+06   9.966865e+05
   1.891378e+03   1.687999e+06
  -1.701540e+06   1.345641e+06
  -1.990981e+06   2.060036e+05
  -8.043343e+05  -7.942131e+05
   5.737562e+05  -8.542451e+05
   8.768485e+05  -7.119267e+04
   1.629092e+04   6.331321e+05
  -1.018320e+06   4.431115e+05
  -1.202758e+06  -4.756243e+05
  -3.929658e+05  -1.144392e+06
   6.332700e+05  -8.622859e+05
   9.434662e+05   9.280501e+03
   3.383759e+05   4.827930e+05
  -4.400211e+05   7.163224e+04
  -4.417849e+05  -7.040969e+05
   4.737582e+05  -9.323661e+05
   1.412545e+06  -2.617209e+05
   1.347045e+06   8.031541e+05
   2.221310e+05   1.413614e+06
  -9.594734e+05   1.112504e+06
  -1.178832e+06   1.889279e+05
  -4.162276e+05  -5.788424e+05
   4.327875e+05  -6.028910e+05
   5.523896e+05  -2.480639e+04
  -7.483944e+03   4.498589e+05
  -5.150065e+05   3.284575e+05
  -3.979150e+05  -1.219391e+05
   1.647943e+05  -2.233983e+05
   4.577014e+05   2.605767e+05
  -3.960627e+03   7.930844e+05
  -9.216469e+05   6.444224e+05
  -1.440322e+06  -2.977526e+05
  -9.697000e+05  -1.369376e+06
   2.100751e+05  -1.730715e+06
   1.198477e+06  -1.100897e+06
   1.339752e+06   2.076372e+04
   7.967444e+05   8.021010e+05
   2.540577e+05   8.083030e+05
   1.370957e+05   3.604527e+05
   2.247894e+05   1.380852e+05
   2.595240e+04   3.940108e+05
  -5.659363e+05   6.553762e+05
  -1.070490e+06   3.095135e+05
  -8.747438e+05  -5.781756e+05
   1.150573e+05  -1.204348e+06
   1.258706e+06  -8.452720e+05
   1.644144e+06   3.538253e+05
   8.622601e+05   1.469255e+06
  -5.908853e+05   1.639693e+06
  -1.690345e+06   8.005367e+05
  -1.734932e+06  -3.380699e+05
  -8.948806e+05  -9.704867e+05
   4.450256e+04  -8.831156e+05
   4.489030e+05  -5.356022e+05
   3.440567e+05  -4.827537e+05
   2.247584e+05  -7.363719e+05
   4.435351e+05  -7.657249e+05
   8.256491e+05  -1.589120e+05
   8.724159e+05   8.050053e+05
   3.235942e+05   1.354661e+06
  -4.963050e+05   9.949396e+05
  -9.251164e+05   3.614043e+03
  -5.972415e+05  -8.426394e+05
   1.722796e+05  -9.690349e+05
   6.843813e+05  -4.282959e+05
   5.536007e+05   2.645025e+05
   6.701714e+04   6.299198e+05
  -1.846801e+05   5.828349e+05
   1.059434e+04   3.833614e+05
   2.525686e+05   2.907053e+05
   4.682457e+03   2.880921e+05
  -7.399700e+05   1.536423e+05
  -1.340889e+06  -2.298231e+05
  -1.116201e+06  -6.924243e+05
  -7.863087e+04  -9.178274e+05
   9.857898e+05  -7.321029e+05
   1.246058e+06  -2.530303e+05
   6.369758e+05   1.954665e+05
  -1.211894e+05   3.171652e+05
  -3.188490e+05   8.656900e+04
   3.540292e+04  -1.878923e+05
   3.731364e+05  -1.338257e+05
   3.082718e+05   2.560397e+05
   2.615752e+04   5.429064e+05
  -6.740289e+04   3.394272e+05
   1.207943e+05  -1.506732e+05
   3.114819e+05  -3.014366e+05
   2.127315e+05   1.572092e+05
  -1.928309e+05   7.289944e+05
  -6.517685e+05   7.024515e+05
  -8.044305e+05   1.358748e+04
  -4.235400e+05  -6.595925e+05
   3.137559e+05  -6.702529e+05
   7.982043e+05  -8.548846e+04
   4.778022e+05   4.646059e+05
  -4.817003e+05   4.679546e+05
  -1.183357e+06  -4.146454e+04
  -8.636323e+05  -6.162330e+05
   2.504388e+05  -8.049227e+05
   1.123665e+06  -4.797432e+05
   9.939425e+05   8.088777e+04
   1.464211e+05   4.043618e+05
  -4.573483e+05   2.376736e+05
  -2.267361e+05  -1.745579e+05
   4.839927e+05  -2.865592e+05
   8.161784e+05   1.861496e+05
   3.207671e+05   8.977738e+05
  -6.040699e+05   1.130726e+06
  -1.141889e+06   4.904201e+05
  -8.603044e+05  -6.293521e+05
  -6.574309e+04  -1.316137e+06
   5.805952e+05  -9.709073e+05
   6.887297e+05   7.874907e+04
   3.564859e+05   8.653543e+05
  -8.743887e+04   7.586563e+05
  -3.783719e+05   9.103069e+04
  -3.985690e+05  -3.105431e+05
  -1.961976e+05  -1.388617e+05
  -7.730834e+03   9.670881e+04
  -7.477398e+04  -1.511834e+05
  -2.920052e+05  -6.813086e+05
  -2.044019e+05  -8.104398e+05
   4.102669e+05  -2.911028e+05
   1.063009e+06   3.869308e+05
   9.908930e+05   6.520692e+05
   1.240194e+05   4.886477e+05
  -7.108239e+05   2.553951e+05
  -7.482464e+05   1.278022e+05
  -1.910581e+05   6.695040e+03
   1.445344e+05  -1.453115e+05
  -6.134028e+04  -2.048226e+05
  -2.863945e+05  -1.435694e+05
   1.019858e+04  -9.963690e+04
   5.914950e+05  -9.305946e+04
   7.320493e+05   8.025122e+04
   1.298809e+05   4.808196e+05
  -7.430595e+05   7.356656e+05
  -1.168430e+06   4.001949e+05
  -8.562527e+05  -4.142975e+05
  -9.476694e+04  -1.030312e+06
   5.748273e+05  -9.180883e+05
   7.633284e+05  -2.700432e+05
   4.675697e+05   2.520942e+05
   3.635537e+04   2.554756e+05
  -1.357101e+05  -2.396366e+04
   3.201277e+04  -8.057769e+04
   2.492607e+05   2.486642e+05
   1.833612e+05   5.905566e+05
  -1.754977e+05   4.536666e+05
  -4.943907e+05  -1.851215e+05
  -4.203466e+05  -7.719879e+05
   7.089693e+04  -7.203547e+05
   5.986102e+05  -4.414155e+04
   6.663405e+05   6.448511e+05
   1.365504e+05   7.817191e+05
  -5.482369e+05   3.783712e+05
  -7.440883e+05  -1.272350e+05
  -3.026307e+05  -3.902948e+05
   2.205826e+05  -3.841590e+05
   2.067770e+05  -2.318401e+05
  -2.586710e+05  -5.903528e+04
  -4.861096e+05  -1.760716e+04
  -6.218444e+04  -2.068569e+05
   6.203430e+05  -4.587355e+05
   8.546996e+05  -3.997798e+05
   4.559931e+05   8.569305e+04
  -1.128339e+05   5.804988e+05
  -3.544368e+05   5.567824e+05
  -2.197276e+05   4.157795e+04
   3.244309e+04  -3.751788e+05
   2.026276e+05  -2.512435e+05
   2.419965e+05   1.977969e+05
   1.417339e+05   4.251111e+05
  -7.187716e+04   2.302130e+05
  -2.701772e+05  -8.343126e+04
  -3.038243e+05  -1.663968e+05
  -1.717938e+05  -3.217717e+04
  -1.575903e+04   4.500525e+04
   6.690660e+04  -8.963916e+04
   1.189502e+05  -2.921199e+05
   2.049607e+05  -2.918283e+05
   2.734289e+05   3.662627e+03
   1.983110e+05   3.741421e+05
  -5.646406e+04   4.687660e+05
  -3.415027e+05   1.628247e+05
  -4.037907e+05  -2.775520e+05
  -1.108240e+05  -4.480561e+05
   3.550343e+05  -2.264161e+05
   5.762325e+05   1.270278e+05
   2.998098e+05   2.920994e+05
  -2.235513e+05   2.133013e+05
  -4.393125e+05   6.260396e+04
  -1.181697e+05  -6.154738e+03
   3.284608e+05   3.740836e+04
   3.126192e+05   1.539327e+05
  -2.073401e+05   2.442139e+05
  -6.553785e+05   1.435980e+05
