
 $NMID
 id='ANONYMOUS ', fmtdat='(2E16.6)'
 volume=1.0
 tramp=1.0
 $END
  -4.269506e+07   9.408387e+05
  -2.741490e+07  -2.447592e+07
   3.473881e+06  -2.895272e+07
   2.052581e+07  -1.347594e+07
   1.387934e+07   3.451079e+06
  -1.492436e+06   7.545513e+06
  -8.106985e+06   3.983062e+05
  -3.457441e+06  -7.515893e+06
   4.159468e+06  -8.582142e+06
   7.722144e+06  -2.604185e+06
   5.795340e+06   4.913331e+06
   6.820104e+05   7.179343e+06
  -3.262347e+06   2.042502e+06
  -2.223599e+06  -5.015061e+06
   2.904056e+06  -6.033437e+06
   6.435432e+06   4.927745e+05
   4.003617e+06   7.985566e+06
  -2.562340e+06   9.531883e+06
  -7.764027e+06   4.770063e+06
  -8.222631e+06  -1.633042e+06
  -4.751297e+06  -5.568644e+06
  -4.979512e+05  -6.013373e+06
   1.463303e+06  -4.263173e+06
   2.905754e+05  -2.685770e+06
  -1.348656e+06  -2.973015e+06
   3.521452e+05  -4.133892e+06
   5.249608e+06  -3.322352e+06
   8.286725e+06   2.513711e+05
   5.534052e+06   3.676528e+06
  -4.276341e+05   3.895726e+06
  -3.586085e+06   1.449798e+06
  -1.807066e+06  -7.862021e+05
   1.599522e+06  -1.164275e+06
   2.932867e+06   7.131049e+04
   1.814337e+06   2.144631e+06
  -1.691809e+05   3.703646e+06
  -1.715335e+06   2.810479e+06
  -1.973708e+06  -4.882026e+05
  -7.631819e+05  -2.665916e+06
   4.412783e+05  -7.811365e+05
  -3.066666e+05   2.608582e+06
  -2.300674e+06   2.155697e+06
  -2.233250e+06  -2.403653e+06
   1.248329e+06  -4.962093e+06
   4.786274e+06  -1.262960e+06
   4.006732e+06   4.914449e+06
  -1.007872e+06   6.515934e+06
  -5.696577e+06   2.010726e+06
  -5.986762e+06  -3.564167e+06
  -1.953614e+06  -5.198518e+06
   2.931398e+06  -2.647245e+06
   4.870152e+06   1.022181e+06
   2.543749e+06   2.924150e+06
  -1.713326e+06   2.046402e+06
  -3.749211e+06  -4.699918e+05
  -1.822324e+06  -2.070974e+06
   1.292090e+06  -1.170972e+06
   1.666111e+06   8.393848e+05
  -7.584517e+05   1.163706e+06
  -2.245565e+06  -7.322223e+05
  -3.460319e+05  -2.455378e+06
   3.029213e+06  -1.890935e+06
   4.262433e+06   4.933184e+05
   2.144955e+06   2.943382e+06
  -1.600389e+06   4.308902e+06
  -4.572095e+06   3.883909e+06
  -5.282429e+06   1.159834e+06
  -3.525778e+06  -2.829197e+06
  -5.772389e+05  -5.240611e+06
   1.415453e+06  -4.270845e+06
   1.400567e+06  -1.581459e+06
   5.811624e+05  -2.598052e+05
   7.736902e+05  -8.348614e+05
   1.980762e+06  -1.054334e+06
   2.549421e+06   4.788496e+05
   1.472227e+06   2.275176e+06
  -4.772868e+05   2.124709e+06
  -1.802744e+06  -4.770234e+04
  -1.569339e+06  -2.293930e+06
   2.352222e+05  -2.786228e+06
   2.594077e+06  -1.203219e+06
   3.706418e+06   1.358189e+06
   2.452084e+06   3.215569e+06
  -1.151223e+05   3.304811e+06
  -1.724255e+06   2.097718e+06
  -1.665036e+06   1.038460e+06
  -1.549948e+06   7.986189e+05
  -2.730992e+06   5.551959e+05
  -4.044449e+06  -6.900145e+05
  -3.228402e+06  -2.622551e+06
  -3.511507e+04  -3.908561e+06
   3.208187e+06  -3.569269e+06
   4.090384e+06  -1.698639e+06
   2.394328e+06   6.920220e+05
  -7.330915e+04   2.134627e+06
  -1.262118e+06   1.643662e+06
  -4.883090e+05  -1.229902e+05
   1.130586e+06  -1.149408e+06
   1.755215e+06  -3.087867e+05
   7.380970e+05   1.100524e+06
  -6.019133e+05   1.033567e+06
  -5.447168e+05  -3.905124e+05
   8.666408e+05  -9.138194e+05
   1.854357e+06   7.595873e+05
   1.051286e+06   3.096211e+06
  -1.066950e+06   3.580936e+06
  -2.955929e+06   1.602304e+06
  -3.477556e+06  -1.200238e+06
  -2.425878e+06  -2.872746e+06
  -4.091647e+05  -2.715323e+06
   1.311242e+06  -1.363495e+06
   1.552630e+06  -1.012805e+05
   4.723945e+05   6.158746e+04
  -3.264046e+05  -7.256493e+05
   3.647025e+05  -1.224978e+06
   1.728699e+06  -5.181143e+05
   1.894320e+06   7.942199e+05
   4.034168e+05   1.301166e+06
  -1.115104e+06   5.520354e+05
  -9.217228e+05  -4.703539e+05
   8.058363e+05  -6.221061e+05
   2.241718e+06   2.397051e+05
   1.841565e+06   1.411465e+06
  -2.330909e+05   2.055010e+06
  -2.321686e+06   1.620402e+06
  -2.705290e+06   2.026105e+05
  -1.132792e+06  -1.199032e+06
   8.663374e+05  -1.341618e+06
   1.400595e+06  -1.416965e+05
   1.243324e+05   9.742217e+05
  -1.449828e+06   6.459144e+05
  -1.645511e+06  -7.583819e+05
  -3.633750e+05  -1.609640e+06
   1.029148e+06  -1.013410e+06
   1.253673e+06   2.359152e+05
   3.039833e+05   7.418289e+05
  -7.137356e+05   5.880234e+04
  -6.504373e+05  -1.009497e+06
   6.171719e+05  -1.320086e+06
   1.940628e+06  -4.183815e+05
   1.895564e+06   1.085154e+06
   3.042264e+05   1.987960e+06
  -1.401073e+06   1.539690e+06
  -1.661759e+06   1.870185e+05
  -4.996757e+05  -8.404313e+05
   6.419107e+05  -7.810307e+05
   6.583985e+05  -3.793030e+04
  -1.070616e+05   4.394227e+05
  -5.735036e+05   2.543832e+05
  -2.505434e+05  -1.311647e+05
   3.901001e+05  -5.458516e+04
   5.464273e+05   5.760278e+05
  -1.620691e+05   1.136876e+06
  -1.337363e+06   8.416850e+05
  -1.989768e+06  -4.528745e+05
  -1.340059e+06  -1.909620e+06
   2.965376e+05  -2.342585e+06
   1.633416e+06  -1.370891e+06
   1.706954e+06   1.449787e+05
   8.823406e+05   9.849904e+05
   2.739975e+05   8.032995e+05
   3.453471e+05   3.015301e+05
   5.055908e+05   2.616647e+05
   6.319805e+04   6.730635e+05
  -8.507910e+05   8.639681e+05
  -1.441213e+06   3.077464e+05
  -1.052143e+06  -7.723243e+05
   2.688501e+05  -1.492497e+06
   1.722435e+06  -1.029559e+06
   2.187819e+06   5.358659e+05
   1.073761e+06   2.058888e+06
  -9.763607e+05   2.260054e+06
  -2.443276e+06   9.780415e+05
  -2.304424e+06  -6.433564e+05
  -9.909979e+05  -1.349831e+06
   1.958041e+05  -1.017693e+06
   4.850759e+05  -5.485416e+05
   2.218761e+05  -6.781496e+05
   1.838263e+05  -1.163206e+06
   6.527529e+05  -1.167648e+06
   1.213097e+06  -2.550153e+05
   1.231433e+06   1.089974e+06
   4.599727e+05   1.847458e+06
  -6.599669e+05   1.361132e+06
  -1.251344e+06  -3.221939e+04
  -7.707486e+05  -1.234181e+06
   3.630553e+05  -1.342645e+06
   1.084879e+06  -4.407032e+05
   7.789878e+05   5.892099e+05
  -6.404762e+04   9.922051e+05
  -4.524562e+05   7.741932e+05
  -6.773124e+04   4.474070e+05
   3.825982e+05   3.559771e+05
   2.960721e+04   3.778574e+05
  -1.085778e+06   1.833893e+05
  -1.936418e+06  -3.606454e+05
  -1.530959e+06  -1.022501e+06
   1.587317e+04  -1.352640e+06
   1.497116e+06  -1.043417e+06
   1.762256e+06  -2.545490e+05
   8.296589e+05   4.329411e+05
  -2.308221e+05   5.117949e+05
  -4.826561e+05   5.189122e+04
  -3.298545e+03  -3.554408e+05
   4.585379e+05  -2.136416e+05
   4.435104e+05   3.464690e+05
   1.578486e+05   7.077317e+05
   2.188873e+04   4.549941e+05
   1.538334e+05  -1.232821e+05
   3.365021e+05  -3.070560e+05
   2.684330e+05   2.318333e+05
  -2.061737e+05   9.578135e+05
  -8.998408e+05   9.852452e+05
  -1.243509e+06   1.010627e+05
  -7.232796e+05  -8.962918e+05
   4.265332e+05  -1.032343e+06
   1.173378e+06  -2.381008e+05
   6.743858e+05   5.947897e+05
  -6.904583e+05   6.167782e+05
  -1.564975e+06  -1.257131e+05
  -1.018214e+06  -8.774014e+05
   4.636685e+05  -9.999886e+05
   1.503768e+06  -4.813261e+05
   1.246400e+06   2.034434e+05
   1.355506e+05   5.232292e+05
  -6.387623e+05   2.649329e+05
  -3.487447e+05  -2.757649e+05
   6.010223e+05  -4.509409e+05
   1.124197e+06   1.577165e+05
   5.541185e+05   1.172165e+06
  -6.808122e+05   1.590413e+06
  -1.484726e+06   7.613225e+05
  -1.181122e+06  -7.990135e+05
  -1.190856e+05  -1.755474e+06
   7.768556e+05  -1.255059e+06
   9.110555e+05   1.783568e+05
   4.075484e+05   1.179967e+06
  -2.166384e+05   9.690358e+05
  -5.422951e+05   8.144556e+04
  -4.654324e+05  -4.007611e+05
  -1.825100e+05  -1.604912e+05
  -4.160291e+04   1.052545e+05
  -2.217601e+05  -2.596054e+05
  -4.450228e+05  -9.423642e+05
  -1.817415e+05  -1.075303e+06
   6.672593e+05  -3.790946e+05
   1.422238e+06   5.104581e+05
   1.248915e+06   8.735903e+05
   1.603491e+05   6.798864e+05
  -8.746921e+05   3.613493e+05
  -9.788971e+05   1.478502e+05
  -3.292875e+05  -3.806384e+04
   1.603792e+05  -2.067079e+05
   1.338714e+04  -2.285006e+05
  -2.832681e+05  -1.352437e+05
  -2.839362e+04  -1.279396e+05
   6.853657e+05  -1.753228e+05
   1.005964e+06   6.045359e+04
   3.423177e+05   6.624413e+05
  -8.872835e+05   1.075953e+06
  -1.643326e+06   6.511779e+05
  -1.300710e+06  -4.761893e+05
  -1.966724e+05  -1.374997e+06
   7.829697e+05  -1.295950e+06
   1.028452e+06  -4.580131e+05
   6.237920e+05   2.713266e+05
   1.012388e+05   3.460471e+05
  -9.237430e+04   3.036335e+04
   7.721283e+04  -4.007301e+04
   2.965625e+05   3.638254e+05
   2.221678e+05   7.975860e+05
  -2.031166e+05   6.416191e+05
  -6.530178e+05  -1.669346e+05
  -6.530697e+05  -9.630349e+05
  -4.063821e+04  -9.865768e+05
   7.454409e+05  -1.753177e+05
   9.550005e+05   7.600178e+05
   2.778139e+05   1.059123e+06
  -7.122080e+05   6.057000e+05
  -1.062580e+06  -1.169847e+05
  -4.830541e+05  -5.860980e+05
   2.905316e+05  -6.198690e+05
   3.542876e+05  -3.454585e+05
  -2.617586e+05  -3.924428e+04
  -6.359755e+05   6.354862e+03
  -1.234552e+05  -2.951766e+05
   8.268263e+05  -6.303855e+05
   1.226268e+06  -5.050982e+05
   7.145622e+05   1.691069e+05
  -1.237700e+05   8.273386e+05
  -5.399594e+05   8.077101e+05
  -3.849436e+05   1.330711e+05
  -1.609856e+04  -4.710562e+05
   2.469796e+05  -3.969376e+05
   3.274074e+05   1.788950e+05
   2.206655e+05   5.680406e+05
  -6.414215e+04   3.886439e+05
  -3.717863e+05  -6.712627e+04
  -4.492048e+05  -2.702964e+05
  -2.372285e+05  -8.829289e+04
   2.397497e+04   1.240381e+05
   9.402138e+04   8.428310e+03
   3.883261e+04  -3.435961e+05
   1.018539e+05  -4.872200e+05
   3.132091e+05  -1.531641e+05
   3.887233e+05   3.975994e+05
   8.711942e+04   6.192325e+05
  -4.133578e+05   2.736397e+05
  -6.118684e+05  -3.032350e+05
  -2.093850e+05  -5.685033e+05
   4.969524e+05  -3.348749e+05
   8.345036e+05   1.096269e+05
   4.432808e+05   3.809186e+05
  -2.917331e+05   3.605771e+05
  -6.123441e+05   1.802846e+05
  -2.249333e+05   1.287973e+04
   3.531885e+05  -2.560014e+04
   3.906471e+05   1.045743e+05
  -1.990101e+05   2.812634e+05
  -7.606185e+05   2.204266e+05
