
 $NMID
 id='ANONYMOUS ', fmtdat='(2E16.6)'
 volume=1.0
 tramp=1.0
 $END
  -3.640351e+07   1.354995e+06
  -2.390815e+07  -1.967668e+07
   1.943359e+06  -2.438130e+07
   1.687361e+07  -1.253731e+07
   1.208257e+07   1.822049e+06
  -7.500344e+05   6.440305e+06
  -6.959381e+06   1.046307e+06
  -3.572771e+06  -6.207301e+06
   3.012771e+06  -7.893070e+06
   6.557498e+06  -2.794387e+06
   5.217942e+06   4.185103e+06
   7.518769e+05   6.405472e+06
  -2.899244e+06   1.768658e+06
  -2.192038e+06  -4.643319e+06
   2.275657e+06  -5.653789e+06
   5.607588e+06   7.832047e+04
   3.786243e+06   6.795654e+06
  -1.891773e+06   8.357093e+06
  -6.597491e+06   4.263078e+06
  -7.066207e+06  -1.387812e+06
  -3.947586e+06  -4.755424e+06
  -3.190579e+05  -4.914755e+06
   9.862241e+05  -3.348584e+06
  -3.866120e+05  -2.330328e+06
  -1.681962e+06  -3.008464e+06
   3.150690e+05  -4.084691e+06
   4.997756e+06  -3.108089e+06
   7.657380e+06   2.673901e+05
   4.941396e+06   3.343552e+06
  -6.339558e+05   3.495832e+06
  -3.523107e+06   1.183918e+06
  -1.691004e+06  -1.040772e+06
   1.768274e+06  -1.440876e+06
   3.125302e+06  -1.259374e+04
   1.843272e+06   2.244793e+06
  -2.813876e+05   3.614969e+06
  -1.625978e+06   2.428325e+06
  -1.560481e+06  -6.917282e+05
  -4.040144e+05  -2.355890e+06
   4.583555e+05  -3.478829e+05
  -3.406958e+05   2.678560e+06
  -2.061972e+06   2.124445e+06
  -2.072412e+06  -1.966906e+06
   7.417350e+05  -4.270070e+06
   3.793613e+06  -1.207101e+06
   3.437362e+06   4.038370e+06
  -6.427610e+05   5.529462e+06
  -4.873351e+06   1.837328e+06
  -5.498103e+06  -2.968021e+06
  -2.062441e+06  -4.601022e+06
   2.509311e+06  -2.588825e+06
   4.524733e+06   6.212789e+05
   2.537207e+06   2.464687e+06
  -1.344336e+06   1.883657e+06
  -3.300094e+06  -2.383838e+05
  -1.701688e+06  -1.702494e+06
   1.081861e+06  -1.055404e+06
   1.585530e+06   6.717986e+05
  -4.545996e+05   1.143760e+06
  -1.957077e+06  -2.977197e+05
  -6.079174e+05  -1.873711e+06
   2.298257e+06  -1.722503e+06
   3.644126e+06   1.294081e+05
   1.998776e+06   2.401410e+06
  -1.380415e+06   3.881601e+06
  -4.179540e+06   3.600190e+06
  -4.802775e+06   1.069922e+06
  -3.143973e+06  -2.582854e+06
  -5.694434e+05  -4.751351e+06
   1.062015e+06  -3.934681e+06
   1.074988e+06  -1.644185e+06
   5.835773e+05  -5.131685e+05
   9.745350e+05  -9.330465e+05
   2.089112e+06  -9.483512e+05
   2.508151e+06   5.983465e+05
   1.407648e+06   2.309549e+06
  -5.181831e+05   2.137523e+06
  -1.856762e+06   1.553934e+03
  -1.623666e+06  -2.210321e+06
   1.834137e+05  -2.674420e+06
   2.442082e+06  -1.115349e+06
   3.405362e+06   1.281331e+06
   2.187016e+06   2.895962e+06
  -1.038609e+05   2.885867e+06
  -1.455893e+06   1.815038e+06
  -1.367074e+06   9.646494e+05
  -1.330088e+06   8.442807e+05
  -2.508233e+06   6.739815e+05
  -3.805477e+06  -4.640979e+05
  -3.129979e+06  -2.330692e+06
  -1.792712e+05  -3.688648e+06
   2.934533e+06  -3.488300e+06
   3.867971e+06  -1.695921e+06
   2.287884e+06   6.698095e+05
  -8.942785e+04   2.074300e+06
  -1.223952e+06   1.567905e+06
  -4.623531e+05  -1.394099e+05
   1.066578e+06  -1.115583e+06
   1.631966e+06  -3.288918e+05
   6.838344e+05   1.013755e+06
  -5.696553e+05   1.004846e+06
  -5.833324e+05  -3.335003e+05
   6.847869e+05  -9.641322e+05
   1.736611e+06   4.542310e+05
   1.246797e+06   2.713962e+06
  -6.274079e+05   3.457158e+06
  -2.602062e+06   1.827885e+06
  -3.408780e+06  -8.482980e+05
  -2.546151e+06  -2.628670e+06
  -5.428863e+05  -2.619420e+06
   1.219232e+06  -1.354213e+06
   1.490936e+06  -1.330741e+05
   4.493005e+05   4.220215e+04
  -3.364513e+05  -6.757264e+05
   2.885933e+05  -1.146956e+06
   1.579583e+06  -5.369261e+05
   1.792715e+06   6.550534e+05
   4.377206e+05   1.185656e+06
  -1.028622e+06   5.720310e+05
  -9.259555e+05  -4.051983e+05
   7.056950e+05  -6.742093e+05
   2.169778e+06   6.397228e+04
   1.886264e+06   1.251610e+06
  -8.939476e+04   2.007634e+06
  -2.143524e+06   1.669501e+06
  -2.565063e+06   3.044534e+05
  -1.105472e+06  -1.078127e+06
   7.683839e+05  -1.264658e+06
   1.285608e+06  -1.637391e+05
   1.238939e+05   9.045379e+05
  -1.347625e+06   6.530972e+05
  -1.586347e+06  -6.426990e+05
  -4.343430e+05  -1.501679e+06
   9.042014e+05  -1.025783e+06
   1.198723e+06   1.354413e+05
   3.417751e+05   6.737205e+05
  -6.563403e+05   8.433526e+04
  -6.456140e+05  -9.325820e+05
   5.489790e+05  -1.273041e+06
   1.833750e+06  -4.553670e+05
   1.831833e+06   9.702797e+05
   3.567883e+05   1.868754e+06
  -1.260547e+06   1.505085e+06
  -1.558662e+06   2.474603e+05
  -5.138956e+05  -7.692932e+05
   5.736149e+05  -7.708630e+05
   6.457902e+05  -5.900758e+04
  -6.096899e+04   4.579927e+05
  -5.592037e+05   3.096503e+05
  -3.082592e+05  -1.131351e+05
   3.245070e+05  -1.149072e+05
   5.502528e+05   4.773191e+05
  -8.058911e+04   1.070600e+06
  -1.223709e+06   8.553141e+05
  -1.903567e+06  -3.500740e+05
  -1.339026e+06  -1.761109e+06
   1.956293e+05  -2.242369e+06
   1.500197e+06  -1.388866e+06
   1.648696e+06   4.810054e+04
   9.199846e+05   9.189563e+05
   3.152449e+05   8.120956e+05
   3.139905e+05   3.187365e+05
   4.476453e+05   2.219371e+05
   7.585281e+04   6.102590e+05
  -7.584221e+05   8.571729e+05
  -1.359314e+06   3.725160e+05
  -1.060836e+06  -6.924598e+05
   1.707337e+05  -1.457319e+06
   1.595498e+06  -1.069379e+06
   2.111360e+06   4.170804e+05
   1.115303e+06   1.906327e+06
  -8.142690e+05   2.175382e+06
  -2.257773e+06   1.036435e+06
  -2.221519e+06  -4.904562e+05
  -1.036982e+06  -1.235442e+06
   1.154745e+05  -1.009067e+06
   4.614790e+05  -5.815999e+05
   2.386345e+05  -6.579384e+05
   1.644940e+05  -1.084428e+06
   5.739450e+05  -1.106659e+06
   1.128534e+06  -2.747990e+05
   1.202321e+06   9.963938e+05
   4.995781e+05   1.742378e+06
  -5.835167e+05   1.318358e+06
  -1.193175e+06   2.147664e+04
  -7.837048e+05  -1.128321e+06
   2.719937e+05  -1.281862e+06
   9.807609e+05  -4.823895e+05
   7.499434e+05   4.865797e+05
   2.145361e+03   9.139703e+05
  -3.612335e+05   7.507102e+05
  -2.946295e+04   4.405751e+05
   3.705597e+05   3.335050e+05
   3.836449e+04   3.617880e+05
  -1.009411e+06   2.172131e+05
  -1.832164e+06  -2.662260e+05
  -1.489545e+06  -9.021897e+05
  -5.515093e+04  -1.263864e+06
   1.357745e+06  -1.032679e+06
   1.651852e+06  -3.212318e+05
   8.073901e+05   3.474719e+05
  -1.901494e+05   4.769746e+05
  -4.452956e+05   7.901217e+04
  -3.002016e+03  -3.185670e+05
   4.384990e+05  -2.146107e+05
   4.291841e+05   3.142112e+05
   1.520016e+05   6.771773e+05
   1.419637e+04   4.368919e+05
   1.409698e+05  -1.402905e+05
   3.240078e+05  -3.292463e+05
   2.692496e+05   2.057616e+05
  -1.703422e+05   9.283530e+05
  -8.189482e+05   9.655042e+05
  -1.153084e+06   1.208773e+05
  -6.916665e+05  -8.316557e+05
   3.721953e+05  -9.739173e+05
   1.093916e+06  -2.419421e+05
   6.594052e+05   5.496819e+05
  -6.267008e+05   6.146954e+05
  -1.500432e+06  -4.734327e+04
  -1.031532e+06  -7.849304e+05
   3.765960e+05  -9.838332e+05
   1.413305e+06  -5.483111e+05
   1.212457e+06   1.261712e+05
   1.616713e+05   4.966729e+05
  -5.936751e+05   2.864141e+05
  -3.327329e+05  -2.439027e+05
   5.696986e+05  -4.406213e+05
   1.076225e+06   1.295122e+05
   5.473029e+05   1.109387e+06
  -6.207871e+05   1.531702e+06
  -1.402009e+06   7.608685e+05
  -1.152061e+06  -7.295010e+05
  -1.717595e+05  -1.673964e+06
   6.945003e+05  -1.236166e+06
   8.767611e+05   1.214698e+05
   4.463762e+05   1.105653e+06
  -1.496391e+05   9.405791e+05
  -5.068449e+05   1.052124e+05
  -4.740130e+05  -3.669884e+05
  -1.975345e+05  -1.498429e+05
  -2.883990e+04   1.058784e+05
  -1.946618e+05  -2.318056e+05
  -4.472583e+05  -8.792879e+05
  -2.316825e+05  -1.019653e+06
   5.989359e+05  -3.850236e+05
   1.377130e+06   4.371067e+05
   1.240549e+06   7.861022e+05
   1.786800e+05   6.378502e+05
  -8.382344e+05   3.753570e+05
  -9.334211e+05   1.825565e+05
  -2.993693e+05  -1.662712e+04
   1.528636e+05  -2.014353e+05
  -1.665217e+04  -2.249863e+05
  -2.981705e+05  -1.275769e+05
  -2.366989e+04  -1.238565e+05
   6.716046e+05  -1.854906e+05
   9.592682e+05   3.137530e+04
   3.160335e+05   6.212759e+05
  -8.328791e+05   1.044325e+06
  -1.532654e+06   6.558932e+05
  -1.230073e+06  -4.276413e+05
  -2.240480e+05  -1.308751e+06
   6.993123e+05  -1.252450e+06
   9.670433e+05  -4.554409e+05
   6.084730e+05   2.498128e+05
   9.865942e+04   3.278184e+05
  -1.073693e+05   2.231749e+04
   6.322766e+04  -5.411822e+04
   3.034634e+05   3.292711e+05
   2.459421e+05   7.518820e+05
  -1.784374e+05   6.143007e+05
  -6.342632e+05  -1.521730e+05
  -6.423030e+05  -9.132993e+05
  -4.612298e+04  -9.400856e+05
   7.203666e+05  -1.722294e+05
   9.297274e+05   7.139640e+05
   2.841809e+05   1.001364e+06
  -6.652250e+05   5.848164e+05
  -1.007064e+06  -8.557895e+04
  -4.652178e+05  -5.313479e+05
   2.587716e+05  -5.814243e+05
   3.111430e+05  -3.336705e+05
  -2.696069e+05  -3.354145e+04
  -6.110028e+05   2.382658e+04
  -1.200068e+05  -2.746790e+05
   7.677963e+05  -6.289757e+05
   1.134937e+06  -5.309733e+05
   6.655744e+05   1.271897e+05
  -9.507338e+04   7.850177e+05
  -4.744216e+05   7.764002e+05
  -3.462507e+05   1.227737e+05
  -2.132225e+04  -4.572767e+05
   2.279376e+05  -3.764041e+05
   3.209171e+05   1.764993e+05
   2.252328e+05   5.354742e+05
  -5.589442e+04   3.578943e+05
  -3.566942e+05  -6.000709e+04
  -4.287444e+05  -2.332141e+05
  -2.269413e+05  -6.652622e+04
   1.636928e+04   1.058501e+05
   8.551734e+04  -2.161226e+04
   4.792487e+04  -3.427382e+05
   1.176488e+05  -4.540582e+05
   3.088022e+05  -1.267162e+05
   3.633408e+05   3.901726e+05
   7.270749e+04   5.944616e+05
  -3.952671e+05   2.663073e+05
  -5.827780e+05  -2.831709e+05
  -2.092380e+05  -5.434348e+05
   4.587700e+05  -3.309397e+05
   7.897908e+05   8.834255e+04
   4.289450e+05   3.508751e+05
  -2.691804e+05   3.397823e+05
  -5.759462e+05   1.739228e+05
  -2.010674e+05   1.425816e+04
   3.563984e+05  -2.411860e+04
   3.854199e+05   1.057958e+05
  -1.947510e+05   2.874694e+05
  -7.431395e+05   2.357337e+05
