
 $NMID
 id='ANONYMOUS ', fmtdat='(2E16.6)'
 volume=1.0
 tramp=1.0
 $END
   4.606011e+07  -1.792218e+06
   2.986096e+07   2.553228e+07
  -3.062742e+06   3.097599e+07
  -2.146871e+07   1.508077e+07
  -1.482775e+07  -3.018631e+06
   1.283592e+06  -7.984939e+06
   8.528606e+06  -7.982351e+05
   3.990520e+06   7.797994e+06
  -4.004380e+06   9.357305e+06
  -8.114897e+06   3.123748e+06
  -6.435346e+06  -5.116727e+06
  -1.013998e+06  -7.779960e+06
   3.494235e+06  -2.304868e+06
   2.666940e+06   5.414157e+06
  -2.839242e+06   6.678988e+06
  -6.917731e+06  -2.830127e+05
  -4.592484e+06  -8.480568e+06
   2.450842e+06  -1.038516e+07
   8.279245e+06  -5.381252e+06
   8.970899e+06   1.608686e+06
   5.213399e+06   5.992503e+06
   5.395474e+05   6.463411e+06
  -1.497406e+06   4.464232e+06
  -1.667521e+04   2.757375e+06
   1.839924e+06   3.236116e+06
  -1.746897e+05   4.694038e+06
  -5.751231e+06   3.911238e+06
  -9.189595e+06  -8.252236e+03
  -6.164496e+06  -3.891459e+06
   4.505910e+05  -4.326341e+06
   4.017899e+06  -1.711758e+06
   2.108084e+06   9.152326e+05
  -1.732898e+06   1.554846e+06
  -3.383256e+06   1.766100e+05
  -2.246295e+06  -2.349663e+06
   1.400997e+04  -4.218792e+06
   1.848393e+06  -3.145684e+06
   2.179626e+06   6.118823e+05
   8.025525e+05   2.963696e+06
  -5.894106e+05   7.582305e+05
   1.924944e+05  -3.017654e+06
   2.417124e+06  -2.507179e+06
   2.487610e+06   2.479513e+06
  -1.160118e+06   5.297955e+06
  -5.022110e+06   1.387831e+06
  -4.354906e+06  -5.211194e+06
   9.499367e+05  -6.997045e+06
   6.119289e+06  -2.296497e+06
   6.650900e+06   3.647459e+06
   2.379597e+06   5.549778e+06
  -3.034939e+06   3.024586e+06
  -5.340554e+06  -8.362341e+05
  -2.927538e+06  -2.990766e+06
   1.720206e+06  -2.233557e+06
   4.034425e+06   3.637832e+05
   2.034021e+06   2.124136e+06
  -1.346981e+06   1.283609e+06
  -1.854525e+06  -8.108544e+05
   6.836539e+05  -1.250998e+06
   2.345464e+06   6.288618e+05
   4.472241e+05   2.463906e+06
  -3.120672e+06   2.035906e+06
  -4.542318e+06  -3.620920e+05
  -2.398354e+06  -3.068951e+06
   1.615946e+06  -4.786507e+06
   4.920649e+06  -4.479607e+06
   5.799986e+06  -1.457110e+06
   3.968268e+06   3.036046e+06
   8.210613e+05   5.747379e+06
  -1.318888e+06   4.711989e+06
  -1.351493e+06   1.820229e+06
  -5.731465e+05   4.433825e+05
  -8.905245e+05   1.097661e+06
  -2.274741e+06   1.296514e+06
  -2.944805e+06  -4.650396e+05
  -1.782466e+06  -2.530908e+06
   4.318850e+05  -2.447080e+06
   2.045908e+06  -7.677928e+04
   1.900425e+06   2.465286e+06
  -1.209166e+05   3.115550e+06
  -2.844156e+06   1.437294e+06
  -4.159207e+06  -1.388032e+06
  -2.789782e+06  -3.473840e+06
   5.280046e+04  -3.612440e+06
   1.824958e+06  -2.312508e+06
   1.751244e+06  -1.171715e+06
   1.628481e+06  -9.527152e+05
   2.964157e+06  -7.630334e+05
   4.493348e+06   5.455462e+05
   3.704620e+06   2.723278e+06
   2.485612e+05   4.322036e+06
  -3.374358e+06   4.133902e+06
  -4.474012e+06   2.100737e+06
  -2.710397e+06  -6.703332e+05
  -1.317355e+04  -2.409185e+06
   1.340089e+06  -1.898387e+06
   5.462681e+05   1.225784e+05
  -1.205820e+06   1.331382e+06
  -1.915999e+06   4.177494e+05
  -8.506697e+05  -1.186020e+06
   6.138765e+05  -1.176770e+06
   6.250764e+05   3.838710e+05
  -8.583556e+05   1.042138e+06
  -2.016143e+06  -6.951709e+05
  -1.326878e+06  -3.268181e+06
   8.861101e+05  -3.954555e+06
   3.075873e+06  -1.966851e+06
   3.898318e+06   1.054511e+06
   2.898130e+06   2.999556e+06
   6.418646e+05   2.990327e+06
  -1.381452e+06   1.599043e+06
  -1.725594e+06   2.020160e+05
  -5.263876e+05  -3.956129e+04
   3.969024e+05   7.850722e+05
  -3.447301e+05   1.357669e+06
  -1.873304e+06   6.437883e+05
  -2.110604e+06  -7.750903e+05
  -5.023103e+05  -1.394784e+06
   1.197543e+06  -6.590001e+05
   1.045674e+06   4.648438e+05
  -8.416801e+05   7.388915e+05
  -2.490236e+06  -1.116548e+05
  -2.141160e+06  -1.434967e+06
   1.144203e+05  -2.290305e+06
   2.469621e+06  -1.937911e+06
   2.980790e+06  -3.813474e+05
   1.308626e+06   1.257686e+06
  -8.930725e+05   1.512967e+06
  -1.529967e+06   2.149385e+05
  -1.719442e+05  -1.070270e+06
   1.570856e+06  -7.837612e+05
   1.853126e+06   7.446133e+05
   4.953476e+05   1.743433e+06
  -1.060276e+06   1.170511e+06
  -1.380115e+06  -1.795984e+05
  -3.718370e+05  -7.844127e+05
   7.832552e+05  -8.788684e+04
   7.672827e+05   1.094704e+06
  -6.256119e+05   1.501888e+06
  -2.140337e+06   5.645749e+05
  -2.161514e+06  -1.106971e+06
  -4.419047e+05  -2.184482e+06
   1.462882e+06  -1.775094e+06
   1.818023e+06  -3.011311e+05
   5.953262e+05   8.895738e+05
  -6.623845e+05   8.922741e+05
  -7.275060e+05   8.092808e+04
   8.460784e+04  -4.954665e+05
   6.209604e+05  -3.301065e+05
   3.041430e+05   1.176763e+05
  -4.076180e+05   8.733647e+04
  -6.323322e+05  -5.927096e+05
   1.108361e+05  -1.261436e+06
   1.433526e+06  -1.008119e+06
   2.232123e+06   3.920275e+05
   1.591151e+06   2.045587e+06
  -1.945909e+05   2.616148e+06
  -1.722937e+06   1.619082e+06
  -1.897939e+06  -4.709969e+04
  -1.055272e+06  -1.028071e+06
  -3.799402e+05  -8.819036e+05
  -4.106917e+05  -3.365482e+05
  -5.642791e+05  -2.757106e+05
  -1.002239e+05  -7.434884e+05
   8.894954e+05  -1.009136e+06
   1.581174e+06  -4.350490e+05
   1.227864e+06   7.890933e+05
  -1.952582e+05   1.676653e+06
  -1.848763e+06   1.249730e+06
  -2.461105e+06  -4.657715e+05
  -1.306869e+06  -2.216881e+06
   9.539101e+05  -2.548784e+06
   2.642104e+06  -1.215381e+06
   2.580257e+06   5.716202e+05
   1.182543e+06   1.421732e+06
  -1.394552e+05   1.137559e+06
  -4.987267e+05   6.548812e+05
  -2.205248e+05   7.841387e+05
  -1.559682e+05   1.303353e+06
  -6.657401e+05   1.322625e+06
  -1.330926e+06   3.422432e+05
  -1.426296e+06  -1.144421e+06
  -6.124765e+05  -2.025863e+06
   6.576353e+05  -1.547595e+06
   1.387409e+06  -3.502105e+04
   9.186547e+05   1.320502e+06
  -3.245490e+05   1.499154e+06
  -1.162136e+06   5.428153e+05
  -8.789224e+05  -6.039602e+05
   2.031460e+04  -1.087834e+06
   4.505831e+05  -8.691882e+05
   4.078834e+04  -4.954240e+05
  -4.490836e+05  -3.774668e+05
  -5.664890e+04  -4.214948e+05
   1.191478e+06  -2.617388e+05
   2.165505e+06   2.975466e+05
   1.751239e+06   1.047827e+06
   5.255069e+04   1.489746e+06
  -1.602792e+06   1.228159e+06
  -1.931136e+06   3.790626e+05
  -9.319317e+05  -4.253945e+05
   2.313584e+05  -5.737892e+05
   5.264302e+05  -8.393389e+04
   1.679020e+04   3.959477e+05
  -4.987976e+05   2.685444e+05
  -5.123548e+05  -3.593662e+05
  -2.164310e+05  -7.871034e+05
  -4.787374e+04  -5.128191e+05
  -1.575938e+05   1.507176e+05
  -3.529341e+05   3.711824e+05
  -3.142239e+05  -2.422964e+05
   1.724610e+05  -1.085098e+06
   9.482221e+05  -1.145659e+06
   1.380911e+06  -1.678799e+05
   8.510434e+05   9.675399e+05
  -4.251592e+05   1.168163e+06
  -1.297257e+06   3.216478e+05
  -7.858029e+05  -6.242023e+05
   7.277358e+05  -7.225807e+05
   1.740309e+06   4.279453e+04
   1.183361e+06   9.013779e+05
  -4.450349e+05   1.130548e+06
  -1.628906e+06   6.284277e+05
  -1.391486e+06  -1.433785e+05
  -1.843153e+05  -5.687833e+05
   6.889244e+05  -3.298328e+05
   3.976841e+05   2.895746e+05
  -6.494723e+05   5.375958e+05
  -1.264830e+06  -1.158278e+05
  -6.825807e+05  -1.281052e+06
   6.726461e+05  -1.814497e+06
   1.613444e+06  -9.337277e+05
   1.361424e+06   8.207345e+05
   2.357692e+05   1.944991e+06
  -7.851279e+05   1.441006e+06
  -1.016967e+06  -1.419012e+05
  -5.216799e+05  -1.281067e+06
   1.787394e+05  -1.082276e+06
   5.944942e+05  -1.196142e+05
   5.433366e+05   4.135857e+05
   2.155382e+05   1.621913e+05
   3.689784e+04  -1.168498e+05
   2.534628e+05   2.844933e+05
   5.448781e+05   1.024180e+06
   2.672291e+05   1.175421e+06
  -7.149806e+05   4.500368e+05
  -1.609655e+06  -4.834622e+05
  -1.440164e+06  -8.903017e+05
  -2.164649e+05  -7.450046e+05
   9.534797e+05  -4.590968e+05
   1.077302e+06  -2.242012e+05
   3.625761e+05   2.780265e+04
  -1.672967e+05   2.408890e+05
   5.434179e+03   2.475250e+05
   3.302017e+05   1.275433e+05
   3.812795e+04   1.452404e+05
  -7.584649e+05   2.426597e+05
  -1.124397e+06  -1.219035e+04
  -4.132631e+05  -7.295291e+05
   9.325364e+05  -1.253396e+06
   1.794556e+06  -8.100828e+05
   1.475631e+06   4.670717e+05
   2.980779e+05   1.521693e+06
  -7.993250e+05   1.483251e+06
  -1.124389e+06   5.662660e+05
  -7.148311e+05  -2.671029e+05
  -1.306843e+05  -3.835850e+05
   1.086119e+05  -4.513275e+04
  -7.710473e+04   4.788513e+04
  -3.489942e+05  -3.834082e+05
  -2.925545e+05  -8.711861e+05
   1.925634e+05  -7.257938e+05
   7.418347e+05   1.493575e+05
   7.845805e+05   1.040746e+06
   9.754912e+04   1.103564e+06
  -8.282179e+05   2.400682e+05
  -1.112058e+06  -7.954979e+05
  -3.675546e+05  -1.167545e+06
   7.642825e+05  -7.142501e+05
   1.190350e+06   7.453919e+04
   5.638395e+05   6.284209e+05
  -2.960072e+05   7.039322e+05
  -3.752709e+05   3.967249e+05
   2.981067e+05   2.132179e+04
   7.092050e+05  -4.516650e+04
   1.522980e+05   3.236022e+05
  -8.826924e+05   7.483895e+05
  -1.327823e+06   6.264729e+05
  -7.965020e+05  -1.532503e+05
   9.370266e+04  -9.269422e+05
   5.559550e+05  -9.218564e+05
   4.242736e+05  -1.613193e+05
   4.702490e+04   5.278565e+05
  -2.565718e+05   4.562970e+05
  -3.813502e+05  -1.814737e+05
  -2.778740e+05  -6.205764e+05
   5.583883e+04  -4.363289e+05
   4.201786e+05   5.463275e+04
   5.096289e+05   2.763031e+05
   2.647193e+05   8.357904e+04
  -2.742017e+04  -1.388077e+05
  -9.406820e+04  -1.390067e+03
  -2.175789e+04   3.948768e+05
  -9.633349e+04   5.591925e+05
  -3.530027e+05   1.894214e+05
  -4.608738e+05  -4.311541e+05
  -1.302988e+05  -6.963374e+05
   4.486594e+05  -3.307252e+05
   7.016826e+05   3.083494e+05
   2.672411e+05   6.251346e+05
  -5.346282e+05   3.986952e+05
  -9.369969e+05  -7.953506e+04
  -5.144575e+05  -4.008270e+05
   3.092696e+05  -4.162982e+05
   6.766661e+05  -2.318320e+05
   2.490756e+05  -2.178414e+04
  -3.987326e+05   5.421377e+04
  -4.485923e+05  -9.318763e+04
   2.025832e+05  -3.312209e+05
   8.365145e+05  -2.982434e+05
