
 $NMID
 id='ANONYMOUS ', fmtdat='(2E16.6)'
 volume=1.0
 tramp=1.0
 $END
  -2.101584e+07   7.538856e+05
  -1.511245e+07  -8.856252e+06
  -1.176776e+06  -1.346947e+07
   8.938916e+06  -1.008979e+07
   8.398948e+06  -1.752351e+06
   9.536176e+05   4.094713e+06
  -4.677569e+06   2.556255e+06
  -3.925613e+06  -3.494827e+06
   7.594288e+05  -6.605373e+06
   4.197722e+06  -3.155102e+06
   3.685832e+06   2.840298e+06
   4.635653e+05   4.763264e+06
  -2.172099e+06   9.066161e+05
  -1.758900e+06  -4.125058e+06
   1.262883e+06  -4.879869e+06
   3.799430e+06  -6.876158e+05
   2.989504e+06   4.266344e+06
  -7.599587e+05   5.565713e+06
  -4.053932e+06   2.679349e+06
  -4.111845e+06  -1.215658e+06
  -1.637641e+06  -2.868146e+06
   2.726736e+05  -2.052741e+06
  -2.925337e+05  -1.123784e+06
  -2.070477e+06  -1.922417e+06
  -2.141292e+06  -3.668333e+06
   8.229775e+05  -4.061848e+06
   4.829701e+06  -2.028016e+06
   6.186372e+06   1.096642e+06
   3.241264e+06   2.962315e+06
  -1.478409e+06   2.357650e+06
  -3.505940e+06   5.475308e+04
  -1.146545e+06  -1.942137e+06
   2.674544e+06  -1.882885e+06
   3.824333e+06   3.621842e+05
   1.574699e+06   2.942336e+06
  -1.136905e+06   3.435076e+06
  -1.627553e+06   1.281824e+06
  -2.886050e+05  -1.288589e+06
   7.255193e+05  -1.461465e+06
   3.107467e+05   9.011096e+05
  -9.023851e+05   2.895527e+06
  -1.801690e+06   1.934112e+06
  -1.687998e+06  -1.081931e+06
  -3.953022e+05  -2.738632e+06
   1.366464e+06  -1.127149e+06
   1.927181e+06   1.957628e+06
   9.579579e+04   3.141525e+06
  -2.966208e+06   1.179402e+06
  -4.263006e+06  -1.986883e+06
  -2.088039e+06  -3.521678e+06
   1.817020e+06  -2.411545e+06
   3.911292e+06   3.111308e+04
   2.530899e+06   1.720111e+06
  -5.772844e+05   1.575696e+06
  -2.327316e+06   1.694341e+05
  -1.430392e+06  -9.726571e+05
   6.336010e+05  -7.708178e+05
   1.443437e+06   4.365113e+05
   2.073741e+05   1.273519e+06
  -1.478639e+06   7.675714e+05
  -1.442235e+06  -6.144278e+05
   5.369480e+05  -1.423964e+06
   2.295924e+06  -6.666456e+05
   1.627292e+06   1.235601e+06
  -1.194103e+06   2.764212e+06
  -3.667853e+06   2.522699e+06
  -3.784259e+06   3.902235e+05
  -1.958525e+06  -2.273234e+06
  -1.198869e+05  -3.689665e+06
   5.600648e+05  -3.229169e+06
   5.490955e+05  -1.908111e+06
   8.695940e+05  -1.109620e+06
   1.760495e+06  -9.366682e+05
   2.523164e+06  -2.983327e+05
   2.311921e+06   1.299256e+06
   9.155680e+05   2.662601e+06
  -9.751200e+05   2.159698e+06
  -2.108693e+06  -1.659202e+05
  -1.557933e+06  -2.344298e+06
   3.860327e+05  -2.482434e+06
   2.241301e+06  -6.400917e+05
   2.562450e+06   1.468807e+06
   1.284036e+06   2.321220e+06
  -2.830400e+05   1.843635e+06
  -8.991886e+05   1.037362e+06
  -7.155606e+05   7.526078e+05
  -9.366728e+05   9.175326e+05
  -2.160164e+06   7.641473e+05
  -3.345251e+06  -3.150773e+05
  -2.783255e+06  -2.048634e+06
  -1.407768e+05  -3.334487e+06
   2.783755e+06  -3.097569e+06
   3.666857e+06  -1.283446e+06
   2.000721e+06   9.202994e+05
  -4.148656e+05   1.965349e+06
  -1.367555e+06   1.266490e+06
  -3.916860e+05  -2.356392e+05
   1.074291e+06  -9.475353e+05
   1.424895e+06  -2.351028e+05
   4.709010e+05   8.878722e+05
  -6.348606e+05   9.168981e+05
  -7.039262e+05  -2.853443e+05
   3.745144e+05  -1.146109e+06
   1.581723e+06  -1.831415e+05
   1.637757e+06   2.073160e+06
   9.456833e+04   3.419406e+06
  -2.148560e+06   2.323617e+06
  -3.429327e+06  -4.136756e+05
  -2.710252e+06  -2.535744e+06
  -5.783837e+05  -2.620565e+06
   1.223121e+06  -1.242235e+06
   1.425041e+06  -2.860683e+04
   4.118252e+05   4.957242e+04
  -3.067792e+05  -6.176196e+05
   2.111347e+05  -9.774965e+05
   1.320177e+06  -4.640517e+05
   1.573996e+06   5.022715e+05
   4.539126e+05   1.001816e+06
  -9.167235e+05   5.567652e+05
  -9.515903e+05  -3.676631e+05
   5.771344e+05  -7.826195e+05
   2.133655e+06  -1.246647e+05
   1.976359e+06   1.171478e+06
   2.244241e+04   2.020315e+06
  -2.020379e+06   1.641829e+06
  -2.389286e+06   2.834582e+05
  -9.858691e+05  -9.448969e+05
   6.751262e+05  -1.049202e+06
   1.063440e+06  -1.076944e+05
   3.945797e+04   7.666582e+05
  -1.218541e+06   5.575271e+05
  -1.458466e+06  -5.532295e+05
  -4.873957e+05  -1.374352e+06
   7.564979e+05  -1.044848e+06
   1.138554e+06   4.645547e+03
   4.110975e+05   5.832402e+05
  -5.351413e+05   9.860781e+04
  -5.519508e+05  -8.371682e+05
   5.448002e+05  -1.133344e+06
   1.690603e+06  -3.492147e+05
   1.638380e+06   9.347043e+05
   2.972796e+05   1.697256e+06
  -1.135101e+06   1.359074e+06
  -1.417378e+06   2.467916e+05
  -5.090971e+05  -6.935048e+05
   5.129172e+05  -7.339569e+05
   6.611873e+05  -3.919828e+04
  -5.422939e+03   5.362832e+05
  -6.088314e+05   3.964222e+05
  -4.675912e+05  -1.401782e+05
   2.032780e+05  -2.633340e+05
   5.544296e+05   3.133800e+05
   6.330246e+03   9.565813e+05
  -1.096603e+06   7.929739e+05
  -1.737900e+06  -3.284718e+05
  -1.194995e+06  -1.625751e+06
   2.178124e+05  -2.082349e+06
   1.420063e+06  -1.340330e+06
   1.605852e+06   6.092570e+03
   9.601099e+05   9.463700e+05
   3.109876e+05   9.527575e+05
   1.750124e+05   4.173819e+05
   2.831596e+05   1.594273e+05
   4.342514e+04   4.764477e+05
  -6.686819e+05   7.973703e+05
  -1.277772e+06   3.886819e+05
  -1.054084e+06  -6.758862e+05
   1.202904e+05  -1.442080e+06
   1.494772e+06  -1.035765e+06
   1.979831e+06   3.933296e+05
   1.063253e+06   1.751207e+06
  -6.825806e+05   1.987007e+06
  -2.022790e+06   9.944747e+05
  -2.092168e+06  -3.804132e+05
  -1.084768e+06  -1.153805e+06
   4.544251e+04  -1.055973e+06
   5.258754e+05  -6.413967e+05
   3.914394e+05  -5.826272e+05
   2.461574e+05  -8.938550e+05
   5.169581e+05  -9.355169e+05
   9.918048e+05  -2.114733e+05
   1.066398e+06   9.477502e+05
   4.176498e+05   1.620352e+06
  -5.749463e+05   1.205559e+06
  -1.112071e+06   2.175187e+04
  -7.351015e+05  -1.004673e+06
   1.922576e+05  -1.171445e+06
   8.233563e+05  -5.256678e+05
   6.766562e+05   3.157637e+05
   8.968970e+04   7.646449e+05
  -2.190617e+05   7.078041e+05
   1.490861e+04   4.589606e+05
   3.093832e+05   3.407622e+05
   1.211830e+04   3.438591e+05
  -8.886666e+05   2.002741e+05
  -1.620130e+06  -2.472360e+05
  -1.357178e+06  -8.113761e+05
  -1.109966e+05  -1.108436e+06
   1.174363e+06  -9.056696e+05
   1.496709e+06  -3.269623e+05
   7.716578e+05   2.301293e+05
  -1.398919e+05   3.882709e+05
  -3.845148e+05   1.087403e+05
   3.445459e+04  -2.286312e+05
   4.422988e+05  -1.674222e+05
   3.756685e+05   3.006900e+05
   4.644447e+04   6.465582e+05
  -6.949625e+04   4.058040e+05
   1.430302e+05  -1.792384e+05
   3.657889e+05  -3.621565e+05
   2.579513e+05   1.841675e+05
  -2.140795e+05   8.751954e+05
  -7.666388e+05   8.586522e+05
  -9.692597e+05   4.114986e+04
  -5.284933e+05  -7.788966e+05
   3.595298e+05  -8.162373e+05
   9.568994e+05  -1.263412e+05
   5.829111e+05   5.458087e+05
  -5.708381e+05   5.713064e+05
  -1.420986e+06  -3.010513e+04
  -1.043239e+06  -7.276137e+05
   2.919147e+05  -9.699369e+05
   1.342206e+06  -5.907294e+05
   1.192672e+06   8.331128e+04
   1.806786e+05   4.829564e+05
  -5.466887e+05   2.928896e+05
  -2.789932e+05  -2.055735e+05
   5.710294e+05  -3.555234e+05
   9.821277e+05   2.020656e+05
   4.073962e+05   1.066257e+06
  -6.949963e+05   1.368466e+06
  -1.355706e+06   6.139832e+05
  -1.044395e+06  -7.356142e+05
  -1.057571e+05  -1.576410e+06
   6.784280e+05  -1.174169e+06
   8.291337e+05   8.407843e+04
   4.426496e+05   1.033642e+06
  -9.486994e+04   9.127432e+05
  -4.545695e+05   1.164034e+05
  -4.813201e+05  -3.655785e+05
  -2.344146e+05  -1.637601e+05
  -9.510219e+03   1.159948e+05
  -9.948387e+04  -1.790596e+05
  -3.670045e+05  -8.116217e+05
  -2.571118e+05  -9.705739e+05
   4.918041e+05  -3.601076e+05
   1.282729e+06   4.430181e+05
   1.198337e+06   7.647604e+05
   1.588819e+05   5.847557e+05
  -8.438725e+05   3.190437e+05
  -8.946932e+05   1.665659e+05
  -2.332788e+05   1.183835e+04
   1.690660e+05  -1.768088e+05
  -7.221158e+04  -2.449535e+05
  -3.408416e+05  -1.664952e+05
   8.266795e+03  -1.182169e+05
   7.017501e+05  -1.228250e+05
   8.797552e+05   7.888563e+04
   1.729795e+05   5.705441e+05
  -8.700390e+05   8.983014e+05
  -1.394094e+06   5.101459e+05
  -1.039651e+06  -4.726859e+05
  -1.368594e+05  -1.231979e+06
   6.699109e+05  -1.115871e+06
   9.078102e+05  -3.435350e+05
   5.641819e+05   2.901099e+05
   5.130920e+04   3.044497e+05
  -1.577767e+05  -2.571153e+04
   3.998023e+04  -9.539914e+04
   3.033637e+05   2.955340e+05
   2.312081e+05   7.058700e+05
  -1.992385e+05   5.486794e+05
  -5.945532e+05  -2.089566e+05
  -5.217280e+05  -9.126352e+05
   6.460044e+04  -8.631204e+05
   7.119881e+05  -6.811953e+04
   8.120094e+05   7.545591e+05
   1.835219e+05   9.330533e+05
  -6.465745e+05   4.682611e+05
  -8.964418e+05  -1.337651e+05
  -3.759022e+05  -4.625956e+05
   2.536982e+05  -4.695769e+05
   2.456711e+05  -2.860872e+05
  -3.067398e+05  -6.652786e+04
  -5.819323e+05  -1.060692e+04
  -8.080244e+04  -2.465081e+05
   7.345837e+05  -5.631925e+05
   1.021734e+06  -4.974917e+05
   5.545125e+05   9.329912e+04
  -1.214837e+05   7.000395e+05
  -4.152452e+05   6.792821e+05
  -2.643600e+05   5.985589e+04
   2.993052e+04  -4.477707e+05
   2.354069e+05  -3.071944e+05
   2.919665e+05   2.288551e+05
   1.796866e+05   5.062721e+05
  -7.816923e+04   2.800485e+05
  -3.250361e+05  -9.265383e+04
  -3.708546e+05  -1.944924e+05
  -2.082045e+05  -3.691688e+04
  -1.436294e+04   5.574597e+04
   8.215250e+04  -1.036545e+05
   1.332211e+05  -3.476219e+05
   2.304141e+05  -3.535025e+05
   3.216791e+05  -6.071216e+03
   2.475863e+05   4.373708e+05
  -5.198767e+04   5.587124e+05
  -4.031037e+05   2.031822e+05
  -4.909572e+05  -3.201647e+05
  -1.435394e+05  -5.322965e+05
   4.214014e+05  -2.805578e+05
   6.947804e+05   1.367266e+05
   3.669477e+05   3.429530e+05
  -2.616914e+05   2.632652e+05
  -5.243006e+05   8.838814e+04
  -1.440555e+05  -2.511168e+03
   3.893308e+05   3.753647e+04
   3.743039e+05   1.751446e+05
  -2.419543e+05   2.931823e+05
  -7.779179e+05   1.832531e+05
