
 $NMID
 id='ANONYMOUS ', fmtdat='(2E16.6)'
 volume=1.0
 tramp=1.0
 $END
   2.136425e+07   5.695960e+03
   1.474028e+07   9.343716e+06
   6.995206e+05   1.344059e+07
  -9.050563e+06   9.900910e+06
  -8.296315e+06   1.744560e+06
  -9.743512e+05  -3.990415e+06
   4.531078e+06  -2.552187e+06
   3.867244e+06   3.397336e+06
  -6.900364e+05   6.539290e+06
  -4.149593e+06   3.141527e+06
  -3.724874e+06  -2.880142e+06
  -5.015583e+05  -4.837818e+06
   2.201738e+06  -9.454954e+05
   1.811574e+06   4.142359e+06
  -1.245122e+06   4.892450e+06
  -3.801016e+06   6.405921e+05
  -2.949950e+06  -4.363078e+06
   8.810533e+05  -5.647529e+06
   4.230970e+06  -2.662115e+06
   4.240041e+06   1.366317e+06
   1.609456e+06   3.065701e+06
  -4.286851e+05   2.144792e+06
   1.828997e+05   1.067482e+06
   2.129027e+06   1.847555e+06
   2.276540e+06   3.708975e+06
  -7.985034e+05   4.185778e+06
  -4.960769e+06   2.103794e+06
  -6.345056e+06  -1.121832e+06
  -3.306683e+06  -3.037819e+06
   1.512768e+06  -2.430666e+06
   3.590713e+06  -9.450167e+04
   1.229289e+06   1.982765e+06
  -2.665753e+06   2.010449e+06
  -3.937022e+06  -2.621411e+05
  -1.734592e+06  -3.001352e+06
   1.080482e+06  -3.604922e+06
   1.709243e+06  -1.367164e+06
   3.692546e+05   1.366450e+06
  -7.660674e+05   1.558661e+06
  -4.126622e+05  -9.323575e+05
   8.658941e+05  -3.004331e+06
   1.829972e+06  -1.986504e+06
   1.684035e+06   1.082216e+06
   3.470572e+05   2.679248e+06
  -1.361004e+06   9.907264e+05
  -1.818361e+06  -2.055803e+06
   4.181878e+04  -3.121746e+06
   3.045207e+06  -1.092874e+06
   4.286760e+06   2.054249e+06
   2.102757e+06   3.553642e+06
  -1.808149e+06   2.436829e+06
  -3.934644e+06  -7.113357e+02
  -2.582264e+06  -1.690028e+06
   5.326877e+05  -1.552038e+06
   2.312195e+06  -1.663673e+05
   1.439971e+06   9.480275e+05
  -6.215414e+05   7.512231e+05
  -1.459465e+06  -4.111268e+05
  -2.677192e+05  -1.232766e+06
   1.401146e+06  -7.928086e+05
   1.398806e+06   5.082044e+05
  -5.322164e+05   1.321594e+06
  -2.274886e+06   6.291110e+05
  -1.601000e+06  -1.259925e+06
   1.264667e+06  -2.842653e+06
   3.800285e+06  -2.610568e+06
   3.917086e+06  -3.854979e+05
   2.017817e+06   2.377076e+06
   1.176665e+05   3.796025e+06
  -5.511382e+05   3.280402e+06
  -5.070617e+05   1.949902e+06
  -8.504006e+05   1.194378e+06
  -1.811789e+06   1.035699e+06
  -2.624905e+06   3.468121e+05
  -2.414419e+06  -1.320837e+06
  -9.877481e+05  -2.727362e+06
   9.521725e+05  -2.233386e+06
   2.146229e+06   1.191317e+05
   1.625236e+06   2.356394e+06
  -3.616604e+05   2.539693e+06
  -2.298207e+06   6.726821e+05
  -2.648548e+06  -1.513733e+06
  -1.313894e+06  -2.412037e+06
   3.279991e+05  -1.905243e+06
   9.616626e+05  -1.043879e+06
   7.451821e+05  -7.415627e+05
   9.456850e+05  -9.233502e+05
   2.191642e+06  -7.787612e+05
   3.412555e+06   3.168415e+05
   2.852524e+06   2.081223e+06
   1.620416e+05   3.401625e+06
  -2.831311e+06   3.185645e+06
  -3.752085e+06   1.349122e+06
  -2.065058e+06  -9.216750e+05
   4.017597e+05  -2.025283e+06
   1.382894e+06  -1.323788e+06
   3.973698e+05   2.264702e+05
  -1.085336e+06   9.710833e+05
  -1.437269e+06   2.493699e+05
  -4.821162e+05  -8.982741e+05
   6.192079e+05  -9.392288e+05
   6.989463e+05   2.643061e+05
  -3.496696e+05   1.134063e+06
  -1.549951e+06   1.864195e+05
  -1.648812e+06  -2.063253e+06
  -1.483123e+05  -3.430659e+06
   2.121954e+06  -2.368267e+06
   3.482673e+06   3.678345e+05
   2.804086e+06   2.533590e+06
   6.291908e+05   2.664016e+06
  -1.240105e+06   1.290931e+06
  -1.461535e+06   5.279551e+04
  -4.237492e+05  -4.297924e+04
   3.119727e+05   6.231161e+05
  -2.143455e+05   9.833141e+05
  -1.334240e+06   4.675549e+05
  -1.586704e+06  -4.962254e+05
  -4.611417e+05  -9.933704e+05
   9.136014e+05  -5.564167e+05
   9.521271e+05   3.591801e+05
  -5.821864e+05   7.821934e+05
  -2.160008e+06   1.389201e+05
  -2.018874e+06  -1.165969e+06
  -4.706988e+04  -2.048342e+06
   2.038461e+06  -1.690703e+06
   2.431098e+06  -3.145445e+05
   1.010824e+06   9.489534e+05
  -6.807026e+05   1.068062e+06
  -1.078049e+06   1.143198e+05
  -4.011413e+04  -7.764604e+05
   1.234068e+06  -5.705053e+05
   1.480962e+06   5.481995e+05
   5.085763e+05   1.379884e+06
  -7.437676e+05   1.058446e+06
  -1.137358e+06   1.175897e+04
  -4.140849e+05  -5.678642e+05
   5.370101e+05  -8.139125e+04
   5.519161e+05   8.609629e+05
  -5.646310e+05   1.158017e+06
  -1.732472e+06   3.587946e+05
  -1.679315e+06  -9.498223e+05
  -3.132923e+05  -1.729537e+06
   1.144800e+06  -1.392439e+06
   1.436363e+06  -2.695737e+05
   5.239247e+05   6.862256e+05
  -5.061878e+05   7.415250e+05
  -6.616661e+05   5.272105e+04
   2.173350e+03  -5.303829e+05
   6.090383e+05  -4.028832e+05
   4.710818e+05   1.300482e+05
  -2.042476e+05   2.566409e+05
  -5.609625e+05  -3.233059e+05
  -4.111337e+03  -9.775213e+05
   1.121839e+06  -8.143370e+05
   1.779984e+06   3.295947e+05
   1.231775e+06   1.658560e+06
  -2.028013e+05   2.131845e+06
  -1.429091e+06   1.383597e+06
  -1.635021e+06   1.828269e+04
  -1.002613e+06  -9.418682e+05
  -3.530668e+05  -9.636725e+05
  -2.018167e+05  -4.368333e+05
  -2.915520e+05  -1.816862e+05
  -3.941712e+04  -5.010994e+05
   6.850205e+05  -8.239900e+05
   1.310643e+06  -4.060562e+05
   1.091585e+06   6.846488e+05
  -1.079627e+05   1.476724e+06
  -1.523780e+06   1.069655e+06
  -2.028517e+06  -3.892337e+05
  -1.092362e+06  -1.778706e+06
   6.904743e+05  -2.023202e+06
   2.054346e+06  -1.019573e+06
   2.126996e+06   3.687862e+05
   1.113252e+06   1.152116e+06
  -2.615143e+04   1.066634e+06
  -5.177843e+05   6.673077e+05
  -3.926772e+05   6.183136e+05
  -2.522116e+05   9.285554e+05
  -5.293621e+05   9.602285e+05
  -1.016633e+06   2.187975e+05
  -1.099379e+06  -9.634963e+05
  -4.400536e+05  -1.654273e+06
   5.773990e+05  -1.237271e+06
   1.131466e+06  -3.001721e+04
   7.502889e+05   1.020127e+06
  -1.918339e+05   1.189489e+06
  -8.295331e+05   5.278802e+05
  -6.767296e+05  -3.263215e+05
  -8.242881e+04  -7.725615e+05
   2.227750e+05  -7.074305e+05
  -2.466235e+04  -4.595031e+05
  -3.275318e+05  -3.504420e+05
  -1.807041e+04  -3.574084e+05
   9.120509e+05  -2.060388e+05
   1.663909e+06   2.532944e+05
   1.388967e+06   8.245105e+05
   1.070260e+05   1.124276e+06
  -1.203779e+06   9.224792e+05
  -1.520818e+06   3.393507e+05
  -7.741125e+05  -2.295819e+05
   1.493521e+05  -3.961670e+05
   3.898286e+05  -1.085814e+05
  -3.808633e+04   2.459520e+05
  -4.527551e+05   1.860510e+05
  -3.917173e+05  -3.053110e+05
  -6.328928e+04  -6.737061e+05
   6.186203e+04  -4.264186e+05
  -1.392799e+05   1.849004e+05
  -3.630607e+05   3.766984e+05
  -2.650641e+05  -1.923343e+05
   2.106170e+05  -9.082810e+05
   7.875031e+05  -8.850670e+05
   1.008850e+06  -3.471407e+04
   5.528831e+05   8.099776e+05
  -3.742956e+05   8.441221e+05
  -9.954754e+05   1.344761e+05
  -6.081105e+05  -5.548616e+05
   5.786076e+05  -5.883253e+05
   1.449823e+06   1.421347e+04
   1.068529e+06   7.235478e+05
  -2.854921e+05   9.842225e+05
  -1.354183e+06   6.147596e+05
  -1.210723e+06  -6.874114e+04
  -1.895599e+05  -4.861213e+05
   5.513215e+05  -2.999010e+05
   2.830303e+05   2.133884e+05
  -5.865735e+05   3.749996e+05
  -1.016432e+06  -1.975870e+05
  -4.351775e+05  -1.097932e+06
   6.984619e+05  -1.423796e+06
   1.389135e+06  -6.532107e+05
   1.084009e+06   7.415234e+05
   1.291628e+05   1.616155e+06
  -6.772247e+05   1.208912e+06
  -8.428352e+05  -7.924386e+04
  -4.587409e+05  -1.048260e+06
   8.850445e+04  -9.229183e+05
   4.622671e+05  -1.168456e+05
   4.943219e+05   3.628721e+05
   2.395087e+05   1.561368e+05
   6.351897e+03  -1.146362e+05
   1.022697e+05   1.968071e+05
   3.832041e+05   8.325227e+05
   2.712894e+05   9.796716e+05
  -5.025827e+05   3.614943e+05
  -1.318669e+06  -4.381727e+05
  -1.232523e+06  -7.618209e+05
  -1.665136e+05  -5.985396e+05
   8.596026e+05  -3.454630e+05
   9.113348e+05  -1.817629e+05
   2.376222e+05  -5.247843e+03
  -1.697411e+05   1.866732e+05
   7.841791e+04   2.393072e+05
   3.519126e+05   1.560152e+05
  -6.653541e+03   1.260747e+05
  -7.188509e+05   1.455038e+05
  -9.069281e+05  -7.287979e+04
  -1.880223e+05  -6.000189e+05
   8.850926e+05  -9.434876e+05
   1.436300e+06  -5.346715e+05
   1.084634e+06   4.846167e+05
   1.573035e+05   1.267339e+06
  -6.822037e+05   1.151740e+06
  -9.371068e+05   3.640141e+05
  -5.869823e+05  -2.895628e+05
  -5.610799e+04  -3.171185e+05
   1.649651e+05   1.353695e+04
  -3.483098e+04   9.178607e+04
  -3.085947e+05  -2.974301e+05
  -2.412353e+05  -7.176401e+05
   2.005245e+05  -5.668335e+05
   6.173992e+05   2.041434e+05
   5.537662e+05   9.340061e+05
  -5.293202e+04   8.979300e+05
  -7.367794e+05   8.829764e+04
  -8.528143e+05  -7.649288e+05
  -2.013012e+05  -9.635331e+05
   6.662702e+05  -4.933058e+05
   9.279212e+05   1.321503e+05
   3.860920e+05   4.810573e+05
  -2.664860e+05   4.882621e+05
  -2.557283e+05   2.877271e+05
   3.159558e+05   5.335850e+04
   5.991608e+05   1.790507e+03
   8.562357e+04   2.568147e+05
  -7.471221e+05   5.858011e+05
  -1.040680e+06   5.109640e+05
  -5.677313e+05  -1.019865e+05
   1.201099e+05  -7.227426e+05
   4.266611e+05  -6.962733e+05
   2.822702e+05  -5.847814e+04
  -1.959057e+04   4.637876e+05
  -2.430318e+05   3.226526e+05
  -3.108197e+05  -2.276341e+05
  -1.911219e+05  -5.196309e+05
   8.375627e+04  -2.944645e+05
   3.385730e+05   9.021984e+04
   3.786754e+05   2.011261e+05
   2.094942e+05   3.799056e+04
   1.895757e+04  -6.455083e+04
  -6.997843e+04   1.010361e+05
  -1.224271e+05   3.674506e+05
  -2.340758e+05   3.862639e+05
  -3.429342e+05   2.237041e+04
  -2.744466e+05  -4.528827e+05
   3.888580e+04  -5.890205e+05
   4.144529e+05  -2.195864e+05
   5.166105e+05   3.269263e+05
   1.585753e+05   5.486888e+05
  -4.329103e+05   2.910914e+05
  -7.218170e+05  -1.363497e+05
  -3.822070e+05  -3.508351e+05
   2.720568e+05  -2.762367e+05
   5.461749e+05  -9.829133e+04
   1.526485e+05   6.176711e+03
  -4.021818e+05  -2.223319e+04
  -3.937575e+05  -1.673839e+05
   2.360879e+05  -3.083244e+05
   7.916570e+05  -2.094002e+05
