
 $NMID
 id='ANONYMOUS ', fmtdat='(2E16.6)'
 volume=1.0
 tramp=1.0
 $END
   2.700936e+07   1.748978e+06
   1.614464e+07   1.544418e+07
  -2.734641e+06   1.733499e+07
  -1.273013e+07   8.649562e+06
  -8.730868e+06  -1.251058e+06
   5.925975e+05  -4.573570e+06
   5.080332e+06  -8.864116e+05
   2.664320e+06   4.527258e+06
  -2.221362e+06   6.002098e+06
  -4.916436e+06   2.058919e+06
  -3.791653e+06  -3.486404e+06
  -2.574341e+05  -5.069937e+06
   2.422054e+06  -1.137358e+06
   1.631590e+06   3.907521e+06
  -1.835052e+06   4.437670e+06
  -4.174675e+06  -1.887502e+05
  -2.564656e+06  -5.272708e+06
   1.813551e+06  -6.188947e+06
   5.228706e+06  -2.761234e+06
   5.197127e+06   1.660120e+06
   2.408304e+06   3.946283e+06
  -3.813187e+05   3.514804e+06
  -8.707707e+05   2.042107e+06
   7.124868e+05   1.616717e+06
   1.647590e+06   2.695435e+06
  -4.450478e+05   3.565291e+06
  -4.423491e+06   2.293653e+06
  -6.269957e+06  -7.507092e+05
  -3.667410e+06  -3.059199e+06
   9.815513e+05  -2.799069e+06
   3.191341e+06  -6.678945e+05
   1.428262e+06   1.236629e+06
  -1.700581e+06   1.482498e+06
  -2.923295e+06  -3.352209e+03
  -1.600496e+06  -2.164577e+06
   5.250591e+05  -3.175061e+06
   1.588279e+06  -1.752770e+06
   1.075164e+06   9.654587e+05
  -1.245202e+05   1.949678e+06
  -5.536740e+05  -7.238984e+04
   4.310805e+05  -2.436457e+06
   1.738472e+06  -1.707935e+06
   1.509321e+06   1.513753e+06
  -6.012696e+05   3.040799e+06
  -2.599800e+06   5.910755e+05
  -2.158183e+06  -3.151110e+06
   7.749105e+05  -3.949661e+06
   3.764267e+06  -1.046471e+06
   4.181387e+06   2.510110e+06
   1.562030e+06   3.649478e+06
  -2.001838e+06   2.033290e+06
  -3.598876e+06  -5.015745e+05
  -2.030272e+06  -1.919034e+06
   9.984856e+05  -1.388392e+06
   2.483266e+06   2.723540e+05
   1.249654e+06   1.306771e+06
  -8.535142e+05   7.408973e+05
  -1.271967e+06  -5.427413e+05
   1.940622e+05  -9.004063e+05
   1.366207e+06   5.392029e+04
   5.303331e+05   1.124520e+06
  -1.543457e+06   1.089496e+06
  -2.617618e+06  -1.351148e+05
  -1.402935e+06  -1.808056e+06
   1.336672e+06  -2.974951e+06
   3.633212e+06  -2.672930e+06
   3.945257e+06  -5.309543e+05
   2.295535e+06   2.336455e+06
   1.598083e+05   3.846816e+06
  -9.101375e+05   3.082222e+06
  -7.425166e+05   1.388273e+06
  -4.856554e+05   6.475430e+05
  -1.057588e+06   9.189283e+05
  -2.018578e+06   6.847167e+05
  -2.197971e+06  -7.560910e+05
  -1.105950e+06  -2.160156e+06
   5.810082e+05  -1.900287e+06
   1.681117e+06   1.962618e+04
   1.372718e+06   1.948109e+06
  -2.632838e+05   2.262985e+06
  -2.116028e+06   7.720759e+05
  -2.700469e+06  -1.306683e+06
  -1.509845e+06  -2.478675e+06
   3.250095e+05  -2.210168e+06
   1.230053e+06  -1.240463e+06
   1.032159e+06  -6.539343e+05
   1.024977e+06  -6.696337e+05
   2.040977e+06  -5.258243e+05
   3.101614e+06   4.592078e+05
   2.519124e+06   1.995129e+06
   5.751702e+04   3.064493e+06
  -2.557748e+06   2.829202e+06
  -3.330696e+06   1.275615e+06
  -1.911067e+06  -7.041801e+05
   1.992603e+05  -1.794023e+06
   1.144196e+06  -1.270686e+06
   3.880965e+05   1.599668e+05
  -9.493370e+05   8.991264e+05
  -1.353943e+06   2.089017e+05
  -4.971803e+05  -8.701532e+05
   5.252457e+05  -8.385682e+05
   5.189562e+05   2.578215e+05
  -4.799516e+05   8.172498e+05
  -1.336415e+06  -2.543516e+05
  -1.049135e+06  -2.092496e+06
   3.712122e+05  -2.824323e+06
   2.035263e+06  -1.605821e+06
   2.844643e+06   6.281098e+05
   2.187492e+06   2.214222e+06
   4.542787e+05   2.238283e+06
  -1.071457e+06   1.119189e+06
  -1.273852e+06   6.409553e+04
  -3.746430e+05  -4.692179e+04
   2.641954e+05   5.691029e+05
  -2.623138e+05   9.186320e+05
  -1.294662e+06   3.841742e+05
  -1.441293e+06  -5.671438e+05
  -3.383711e+05  -9.623715e+05
   8.554458e+05  -4.564529e+05
   7.874914e+05   3.406576e+05
  -5.583125e+05   5.795700e+05
  -1.815597e+06  -2.711242e+04
  -1.614542e+06  -1.049314e+06
   6.001757e+04  -1.701333e+06
   1.816316e+06  -1.383218e+06
   2.149971e+06  -2.069426e+05
   8.822942e+05   9.118845e+05
  -6.751041e+05   1.000395e+06
  -1.047312e+06   7.913899e+04
  -5.294483e+04  -7.490945e+05
   1.136834e+06  -5.001011e+05
   1.300929e+06   5.577587e+05
   3.532637e+05   1.242725e+06
  -7.368928e+05   8.500907e+05
  -9.846952e+05  -9.946308e+04
  -2.896603e+05  -5.417491e+05
   5.270754e+05  -4.939524e+04
   5.030115e+05   7.931029e+05
  -5.021252e+05   1.045889e+06
  -1.550404e+06   3.226863e+05
  -1.500277e+06  -8.655057e+05
  -2.467414e+05  -1.562991e+06
   1.077929e+06  -1.216731e+06
   1.294790e+06  -1.771779e+05
   4.190034e+05   6.402948e+05
  -4.854705e+05   6.332131e+05
  -5.584702e+05   4.175703e+04
   2.981720e+04  -4.031279e+05
   4.811585e+05  -2.907877e+05
   3.100074e+05   8.222950e+04
  -2.229798e+05   1.172061e+05
  -4.428545e+05  -3.677326e+05
   7.170117e+04  -8.709665e+05
   1.029001e+06  -6.851606e+05
   1.576952e+06   3.348433e+05
   1.070743e+06   1.502615e+06
  -2.157170e+05   1.875597e+06
  -1.278551e+06   1.149743e+06
  -1.390390e+06  -4.865842e+04
  -7.950964e+05  -7.925402e+05
  -2.854911e+05  -7.345658e+05
  -2.450212e+05  -3.236827e+05
  -3.273494e+05  -2.030890e+05
  -3.071291e+04  -4.923488e+05
   6.403922e+05  -6.977960e+05
   1.141651e+06  -3.002270e+05
   8.986406e+05   5.970317e+05
  -1.456521e+05   1.233471e+06
  -1.351238e+06   8.775064e+05
  -1.763130e+06  -3.875439e+05
  -8.996076e+05  -1.605051e+06
   7.080558e+05  -1.781326e+06
   1.881362e+06  -8.192885e+05
   1.842210e+06   4.273627e+05
   8.763186e+05   1.033922e+06
  -8.007903e+04   8.627244e+05
  -4.064720e+05   5.200549e+05
  -2.619697e+05   5.649481e+05
  -2.011951e+05   8.875332e+05
  -5.110316e+05   8.863169e+05
  -9.400893e+05   1.872630e+05
  -9.756628e+05  -8.695797e+05
  -3.719518e+05  -1.473354e+06
   5.246532e+05  -1.090440e+06
   9.979561e+05   4.058721e+03
   6.280248e+05   9.451952e+05
  -2.388071e+05   1.050995e+06
  -7.928995e+05   3.907634e+05
  -5.901766e+05  -3.879921e+05
   5.966019e+03  -7.272794e+05
   2.837204e+05  -6.043415e+05
   1.372347e+04  -3.737538e+05
  -2.995292e+05  -2.995179e+05
  -2.055389e+04  -3.092150e+05
   8.352003e+05  -1.543638e+05
   1.504884e+06   2.705163e+05
   1.216312e+06   7.797241e+05
   2.680700e+04   1.030250e+06
  -1.140145e+06   8.086899e+05
  -1.371602e+06   2.382832e+05
  -6.585723e+05  -2.777668e+05
   1.670849e+05  -3.746374e+05
   3.603139e+05  -6.232015e+04
  -2.376007e+04   2.546733e+05
  -3.845316e+05   1.687067e+05
  -3.482363e+05  -2.764007e+05
  -9.240257e+04  -5.886541e+05
   1.813103e+04  -3.786262e+05
  -1.158197e+05   1.297365e+05
  -2.855175e+05   2.944088e+05
  -2.227020e+05  -1.745171e+05
   1.725915e+05  -7.858060e+05
   7.111358e+05  -7.825421e+05
   9.512485e+05  -4.368600e+04
   5.333739e+05   7.285732e+05
  -3.476171e+05   7.859370e+05
  -9.192054e+05   1.460873e+05
  -5.386576e+05  -4.858071e+05
   5.321818e+05  -5.001785e+05
   1.257911e+06   5.967099e+04
   8.695372e+05   6.612769e+05
  -3.088546e+05   8.206342e+05
  -1.186073e+06   4.577622e+05
  -1.022927e+06  -1.088194e+05
  -1.371727e+05  -4.188754e+05
   4.959471e+05  -2.341459e+05
   2.618944e+05   2.096723e+05
  -5.043884e+05   3.499102e+05
  -9.055197e+05  -1.532372e+05
  -4.154412e+05  -9.632495e+05
   5.876530e+05  -1.273013e+06
   1.214902e+06  -5.935817e+05
   9.515221e+05   6.506470e+05
   1.013141e+05   1.416377e+06
  -6.082935e+05   1.032089e+06
  -7.296525e+05  -1.082338e+05
  -3.604063e+05  -9.297587e+05
   1.252759e+05  -7.863011e+05
   4.184868e+05  -8.041011e+04
   4.038548e+05   3.157033e+05
   1.793989e+05   1.272739e+05
   1.865027e+04  -8.967096e+04
   1.310330e+05   2.011511e+05
   3.433979e+05   7.497260e+05
   1.888986e+05   8.556610e+05
  -4.904800e+05   3.004723e+05
  -1.149326e+06  -4.004757e+05
  -1.039395e+06  -6.820143e+05
  -1.341865e+05  -5.356241e+05
   7.294337e+05  -3.006757e+05
   7.912401e+05  -1.385456e+05
   2.337737e+05   1.966735e+04
  -1.402072e+05   1.670211e+05
   3.047478e+04   1.885376e+05
   2.713080e+05   1.146765e+05
   9.929000e+03   1.098929e+05
  -5.932974e+05   1.419215e+05
  -8.061566e+05  -5.942477e+04
  -2.196446e+05  -5.430287e+05
   7.526596e+05  -8.536338e+05
   1.301500e+06  -4.882574e+05
   1.005127e+06   4.170789e+05
   1.464316e+05   1.113760e+06
  -6.212786e+05   1.024324e+06
  -8.323461e+05   3.429657e+05
  -5.129464e+05  -2.358579e+05
  -6.555036e+04  -2.824924e+05
   1.129436e+05  -1.385321e+04
  -4.168489e+04   5.281130e+04
  -2.512722e+05  -2.748436e+05
  -1.929876e+05  -6.345593e+05
   1.732626e+05  -5.095087e+05
   5.394356e+05   1.562178e+05
   5.100315e+05   8.043692e+05
  -9.109926e+03   8.010993e+05
  -6.312437e+05   1.131120e+05
  -7.646226e+05  -6.464736e+05
  -1.979280e+05  -8.559626e+05
   5.866465e+05  -4.611606e+05
   8.386033e+05   1.111819e+05
   3.589517e+05   4.540168e+05
  -2.423428e+05   4.647570e+05
  -2.590360e+05   2.595608e+05
   2.450943e+05   3.312533e+04
   5.201844e+05  -2.119895e+03
   8.571104e+04   2.345463e+05
  -6.625381e+05   5.089591e+05
  -9.492869e+05   4.179672e+05
  -5.330741e+05  -1.227303e+05
   1.077296e+05  -6.518923e+05
   4.113189e+05  -6.247238e+05
   2.855223e+05  -7.263536e+04
  -8.479278e+01   3.965976e+05
  -2.106831e+05   3.030189e+05
  -2.737673e+05  -1.714983e+05
  -1.717864e+05  -4.588592e+05
   6.884330e+04  -2.885890e+05
   3.012358e+05   6.758685e+04
   3.430713e+05   2.016730e+05
   1.836774e+05   5.379381e+04
   2.983085e+03  -8.245030e+04
  -5.903891e+04   3.870311e+04
  -6.499902e+04   3.074877e+05
  -1.496110e+05   3.789636e+05
  -2.875956e+05   7.652434e+04
  -2.848653e+05  -3.670485e+05
  -1.933405e+04  -5.192031e+05
   3.519149e+05  -2.093431e+05
   4.777610e+05   2.707862e+05
   1.557234e+05   4.735602e+05
  -3.928038e+05   2.600804e+05
  -6.570398e+05  -1.094190e+05
  -3.462954e+05  -3.109120e+05
   2.429098e+05  -2.669959e+05
   4.935831e+05  -1.135396e+05
   1.596462e+05   2.869330e+03
  -3.231535e+05   7.085542e+03
  -3.366813e+05  -1.131623e+05
   1.799281e+05  -2.531685e+05
   6.541007e+05  -1.876922e+05
