
 $NMID
 id='ANONYMOUS ', fmtdat='(2E16.6)'
 volume=1.0
 tramp=1.0
 $END
  -5.342749e+07   4.820138e+05
  -3.238903e+07  -3.273170e+07
   6.718466e+06  -3.615657e+07
   2.596357e+07  -1.414987e+07
   1.564247e+07   6.433994e+06
  -3.031220e+06   8.849184e+06
  -9.297293e+06  -1.031690e+06
  -2.743978e+06  -9.197289e+06
   5.737522e+06  -8.917407e+06
   9.104490e+06  -2.009252e+06
   6.705975e+06   5.810410e+06
   8.748598e+05   8.164578e+06
  -3.771276e+06   2.647325e+06
  -2.584951e+06  -5.146373e+06
   3.475744e+06  -6.264941e+06
   7.469234e+06   1.175778e+06
   4.322972e+06   9.625615e+06
  -3.459183e+06   1.122420e+07
  -9.527510e+06   5.701561e+06
  -1.028037e+07  -1.851294e+06
  -6.345401e+06  -7.056946e+06
  -7.135431e+05  -8.198570e+06
   2.714478e+06  -5.739498e+06
   1.696723e+06  -2.537603e+06
  -1.132043e+06  -2.033650e+06
  -3.138130e+05  -3.997235e+06
   5.104966e+06  -4.271458e+06
   9.208482e+06  -5.917299e+05
   6.752465e+06   3.856083e+06
   2.785930e+05   4.832380e+06
  -3.541176e+06   2.502154e+06
  -2.383588e+06   2.150458e+04
   5.655628e+05  -9.539485e+05
   2.198723e+06  -5.323525e+05
   2.145728e+06   1.349483e+06
   7.149385e+05   3.766822e+06
  -1.685228e+06   3.688086e+06
  -3.078857e+06  -9.597160e+04
  -1.645049e+06  -3.457279e+06
   7.451598e+05  -1.816648e+06
   3.706077e+05   2.368015e+06
  -2.305070e+06   2.236494e+06
  -2.358305e+06  -2.994909e+06
   2.225814e+06  -5.825678e+06
   6.557215e+06  -1.014384e+06
   4.908719e+06   6.518092e+06
  -1.728449e+06   8.094404e+06
  -7.022567e+06   2.366969e+06
  -6.661336e+06  -4.138409e+06
  -1.842328e+06  -5.702478e+06
   3.261048e+06  -2.630044e+06
   5.022639e+06   1.366753e+06
   2.358960e+06   3.270425e+06
  -2.259575e+06   2.110652e+06
  -4.305211e+06  -8.211312e+05
  -1.882085e+06  -2.554069e+06
   1.614880e+06  -1.318572e+06
   1.672104e+06   9.489379e+05
  -1.223375e+06   8.863526e+05
  -2.353189e+06  -1.613466e+06
   5.393239e+05  -3.235516e+06
   4.344775e+06  -1.839306e+06
   5.028568e+06   1.216279e+06
   2.241830e+06   3.736474e+06
  -1.658282e+06   5.031820e+06
  -4.723553e+06   4.680343e+06
  -5.888025e+06   1.733812e+06
  -4.399068e+06  -2.967109e+06
  -9.706744e+05  -5.874502e+06
   1.700839e+06  -4.564910e+06
   1.640137e+06  -1.195116e+06
   1.516574e+05   2.079086e+05
  -1.940515e+04  -9.673099e+05
   1.542437e+06  -1.742251e+06
   2.715564e+06  -2.546459e+05
   1.982438e+06   1.845328e+06
   5.163847e+04   2.079577e+06
  -1.505478e+06   2.312781e+05
  -1.657366e+06  -1.971688e+06
  -4.643419e+04  -2.822806e+06
   2.636068e+06  -1.620767e+06
   4.295608e+06   1.091816e+06
   3.116122e+06   3.558262e+06
   5.312200e+03   4.030717e+06
  -2.140589e+06   2.608975e+06
  -2.108102e+06   1.107075e+06
  -1.734624e+06   6.807260e+05
  -2.808716e+06   5.071303e+05
  -4.181028e+06  -6.637882e+05
  -3.386841e+06  -2.603533e+06
  -1.865665e+05  -3.964841e+06
   3.028030e+06  -3.800032e+06
   3.991319e+06  -2.101538e+06
   2.568442e+06   3.732349e+05
   2.948584e+05   2.157172e+06
  -1.038925e+06   1.881596e+06
  -5.455578e+05  -2.930203e+04
   1.032122e+06  -1.279075e+06
   1.831465e+06  -4.092402e+05
   9.019408e+05   1.150735e+06
  -4.844343e+05   1.083937e+06
  -4.206336e+05  -3.649631e+05
   1.006765e+06  -6.844687e+05
   1.790884e+06   1.204505e+06
   6.675723e+05   3.327545e+06
  -1.467935e+06   3.290678e+06
  -2.986358e+06   1.116484e+06
  -3.197595e+06  -1.331707e+06
  -2.234646e+06  -2.616334e+06
  -4.794906e+05  -2.506524e+06
   1.175152e+06  -1.431182e+06
   1.520335e+06  -2.434027e+05
   4.762042e+05   3.745093e+04
  -3.560311e+05  -7.214705e+05
   3.835963e+05  -1.299866e+06
   1.836079e+06  -5.814060e+05
   1.974104e+06   8.334604e+05
   3.874310e+05   1.363710e+06
  -1.125196e+06   5.660157e+05
  -8.633038e+05  -4.268732e+05
   8.110376e+05  -5.090849e+05
   2.102981e+06   2.815849e+05
   1.696943e+06   1.281744e+06
  -2.134106e+05   1.900023e+06
  -2.204441e+06   1.625518e+06
  -2.674569e+06   3.001511e+05
  -1.191609e+06  -1.209029e+06
   8.723263e+05  -1.465376e+06
   1.509230e+06  -2.016628e+05
   2.088041e+05   1.045633e+06
  -1.458531e+06   7.326857e+05
  -1.670202e+06  -7.357952e+05
  -3.428444e+05  -1.591910e+06
   1.044948e+06  -9.519751e+05
   1.215667e+06   2.910476e+05
   2.420182e+05   7.529859e+05
  -7.727625e+05   6.100052e+04
  -7.280257e+05  -1.011364e+06
   5.372559e+05  -1.388051e+06
   1.936281e+06  -5.546555e+05
   1.985710e+06   9.884090e+05
   3.985084e+05   2.003744e+06
  -1.374366e+06   1.607584e+06
  -1.667689e+06   2.225942e+05
  -4.938141e+05  -8.348423e+05
   6.282628e+05  -7.837269e+05
   6.093168e+05  -8.366690e+04
  -1.100869e+05   3.440075e+05
  -4.657004e+05   2.048122e+05
  -1.114599e+05  -5.577982e+04
   4.349941e+05   7.852623e+04
   5.033026e+05   6.482211e+05
  -1.898944e+05   1.149569e+06
  -1.326773e+06   8.817561e+05
  -2.018966e+06  -3.743624e+05
  -1.443336e+06  -1.861481e+06
   1.766106e+05  -2.343397e+06
   1.540529e+06  -1.383025e+06
   1.629144e+06   1.014116e+05
   8.357026e+05   8.480948e+05
   3.178208e+05   6.146841e+05
   4.725842e+05   2.017981e+05
   6.158250e+05   2.998951e+05
   9.707825e+04   7.423699e+05
  -8.369964e+05   8.801811e+05
  -1.392757e+06   3.296932e+05
  -1.019379e+06  -6.808310e+05
   2.236121e+05  -1.406878e+06
   1.648161e+06  -1.055474e+06
   2.176959e+06   4.379781e+05
   1.119748e+06   2.015666e+06
  -9.513033e+05   2.299235e+06
  -2.447880e+06   1.024784e+06
  -2.276442e+06  -6.120420e+05
  -9.328384e+05  -1.278823e+06
   1.886477e+05  -9.076907e+05
   3.614759e+05  -4.937425e+05
   5.616913e+04  -7.342499e+05
   7.982093e+04  -1.273200e+06
   6.342797e+05  -1.259070e+06
   1.250464e+06  -3.262544e+05
   1.310541e+06   1.026037e+06
   5.660094e+05   1.824353e+06
  -5.803391e+05   1.399006e+06
  -1.242134e+06   1.436750e+04
  -7.999334e+05  -1.232562e+06
   3.640607e+05  -1.353954e+06
   1.122536e+06  -3.994794e+05
   7.910057e+05   6.730950e+05
  -1.130804e+05   1.044667e+06
  -5.162288e+05   7.593758e+05
  -7.890755e+04   3.986588e+05
   4.262392e+05   3.169656e+05
   6.491826e+04   3.692719e+05
  -1.110576e+06   2.169071e+05
  -2.003659e+06  -2.957522e+05
  -1.577552e+06  -9.831839e+05
   2.381398e+04  -1.390906e+06
   1.528621e+06  -1.125340e+06
   1.768679e+06  -2.888398e+05
   8.083602e+05   4.738372e+05
  -2.488668e+05   5.568702e+05
  -4.955502e+05   3.570615e+04
  -3.706678e+04  -4.127658e+05
   4.218554e+05  -2.591109e+05
   4.722250e+05   3.234605e+05
   2.643496e+05   6.950526e+05
   1.075769e+05   4.632470e+05
   1.291925e+05  -8.857585e+04
   2.581411e+05  -2.818041e+05
   2.681396e+05   2.210319e+05
  -1.168848e+05   9.543514e+05
  -8.540721e+05   1.046626e+06
  -1.325942e+06   1.944482e+05
  -8.491307e+05  -8.729701e+05
   3.851741e+05  -1.117195e+06
   1.219309e+06  -3.542976e+05
   7.212078e+05   5.397038e+05
  -6.714611e+05   6.354315e+05
  -1.532231e+06  -7.393100e+04
  -9.715055e+05  -8.203347e+05
   4.622972e+05  -9.532610e+05
   1.437023e+06  -4.704832e+05
   1.184168e+06   1.729182e+05
   1.320558e+05   4.917370e+05
  -6.249101e+05   2.643833e+05
  -3.798229e+05  -2.830237e+05
   5.524946e+05  -5.226783e+05
   1.149642e+06   4.781804e+04
   6.844632e+05   1.128047e+06
  -5.253459e+05   1.667300e+06
  -1.414311e+06   8.963383e+05
  -1.231848e+06  -7.044405e+05
  -2.317341e+05  -1.727634e+06
   6.922004e+05  -1.257975e+06
   8.945012e+05   1.642933e+05
   4.272036e+05   1.146247e+06
  -2.089627e+05   9.319558e+05
  -5.462005e+05   8.446982e+04
  -4.472798e+05  -3.534181e+05
  -1.490091e+05  -1.248257e+05
  -4.967964e+04   8.873376e+04
  -2.929993e+05  -2.914601e+05
  -5.171636e+05  -9.306556e+05
  -1.890130e+05  -1.035823e+06
   7.020791e+05  -3.902078e+05
   1.433557e+06   4.222251e+05
   1.239170e+06   7.847734e+05
   1.897194e+05   6.758690e+05
  -8.042378e+05   4.254140e+05
  -9.434225e+05   1.902247e+05
  -3.615621e+05  -5.442057e+04
   1.309047e+05  -2.235527e+05
   4.725365e+04  -1.886374e+05
  -2.404231e+05  -7.366012e+04
  -5.969263e+04  -1.275134e+05
   6.155675e+05  -2.529017e+05
   1.017968e+06  -1.824050e+04
   4.647250e+05   6.675784e+05
  -7.704858e+05   1.175457e+06
  -1.645929e+06   7.867643e+05
  -1.405668e+06  -3.754806e+05
  -3.088751e+05  -1.353947e+06
   7.176275e+05  -1.358707e+06
   1.006730e+06  -5.619413e+05
   6.391889e+05   1.968331e+05
   1.480067e+05   3.455951e+05
  -4.862348e+04   8.104344e+04
   8.416969e+04  -2.434891e+03
   2.891268e+05   3.553597e+05
   2.500626e+05   7.773254e+05
  -1.527533e+05   6.686412e+05
  -6.606175e+05  -8.370535e+04
  -7.568463e+05  -8.891665e+05
  -1.654240e+05  -1.002209e+06
   7.112075e+05  -2.847001e+05
   1.032753e+06   6.500073e+05
   3.831109e+05   1.049978e+06
  -6.708352e+05   6.947036e+05
  -1.099534e+06  -3.602555e+04
  -5.446599e+05  -5.971814e+05
   2.634016e+05  -6.874237e+05
   3.782837e+05  -3.708298e+05
  -2.189255e+05   8.052707e+03
  -6.234756e+05   5.984476e+04
  -1.579760e+05  -2.997041e+05
   7.823826e+05  -6.775878e+05
   1.225052e+06  -5.394745e+05
   7.653182e+05   1.708718e+05
  -6.843302e+04   8.551153e+05
  -5.328079e+05   8.534650e+05
  -4.323471e+05   1.836525e+05
  -7.836395e+04  -4.547538e+05
   2.163224e+05  -4.419841e+05
   3.459067e+05   1.119927e+05
   2.663553e+05   5.523313e+05
  -3.456493e+04   4.356095e+05
  -3.822065e+05  -2.285404e+04
  -4.758842e+05  -2.739124e+05
  -2.373499e+05  -9.986899e+04
   4.721329e+04   1.619997e+05
   7.956003e+04   7.411516e+04
  -5.243302e+04  -3.308656e+05
  -8.378908e+03  -5.616042e+05
   2.920228e+05  -2.616663e+05
   4.863462e+05   3.304713e+05
   2.102989e+05   6.229041e+05
  -3.762484e+05   3.291280e+05
  -6.688859e+05  -2.373438e+05
  -2.757054e+05  -5.406337e+05
   4.883326e+05  -3.729691e+05
   8.727841e+05   3.720308e+04
   4.831727e+05   3.517944e+05
  -2.739277e+05   4.143260e+05
  -6.206364e+05   2.613198e+05
  -2.605079e+05   2.803103e+04
   3.100374e+05  -9.692884e+04
   3.892801e+05   2.305640e+04
  -1.326185e+05   2.738191e+05
  -6.791426e+05   2.896206e+05
