
 $NMID
 id='ANONYMOUS ', fmtdat='(2E16.6)'
 volume=1.0
 tramp=1.0
 $END
   6.045687e+07   1.751381e+06
   3.494337e+07   3.917116e+07
  -9.790791e+06   4.085350e+07
  -3.030795e+07   1.410088e+07
  -1.710314e+07  -8.799801e+06
   4.236923e+06  -9.820923e+06
   1.037170e+07   2.152073e+06
   2.181885e+06   1.062741e+07
  -7.239563e+06   9.303636e+06
  -1.033173e+07   1.423849e+06
  -7.119027e+06  -6.777523e+06
  -5.725221e+05  -8.973461e+06
   4.244398e+06  -2.830494e+06
   2.507172e+06   5.561155e+06
  -4.280003e+06   6.490485e+06
  -8.265940e+06  -1.878077e+06
  -4.235019e+06  -1.100127e+07
   4.510270e+06  -1.233894e+07
   1.094713e+07  -5.960223e+06
   1.151028e+07   2.420734e+06
   7.040335e+06   8.191615e+06
   6.062022e+05   9.500585e+06
  -3.531337e+06   6.623926e+06
  -2.563578e+06   2.691534e+06
   8.026302e+05   1.844888e+06
   3.047748e+05   4.038275e+06
  -5.426896e+06   4.480618e+06
  -9.919780e+06   4.676289e+05
  -7.322561e+06  -4.390222e+06
  -3.909778e+05  -5.350025e+06
   3.694119e+06  -2.796253e+06
   2.606082e+06  -2.823580e+05
  -2.586813e+05   7.049502e+05
  -1.931218e+06   5.388522e+05
  -2.159841e+06  -1.172160e+06
  -8.639680e+05  -3.869619e+06
   1.866570e+06  -4.097750e+06
   3.609950e+06  -2.323606e+04
   1.969846e+06   3.920936e+06
  -8.705191e+05   2.329065e+06
  -4.668299e+05  -2.292875e+06
   2.554945e+06  -2.210374e+06
   2.398490e+06   3.524562e+06
  -3.011946e+06   6.450039e+06
  -7.709035e+06   7.743251e+05
  -5.304681e+06  -7.690749e+06
   2.429554e+06  -9.117792e+06
   8.008226e+06  -2.339827e+06
   7.046439e+06   4.929533e+06
   1.557319e+06   6.319377e+06
  -3.735292e+06   2.562927e+06
  -5.271311e+06  -1.903854e+06
  -2.209929e+06  -3.757607e+06
   2.731669e+06  -2.156931e+06
   4.729960e+06   1.223391e+06
   1.885502e+06   2.995122e+06
  -1.894665e+06   1.375622e+06
  -1.699164e+06  -1.155393e+06
   1.582329e+06  -7.960922e+05
   2.530090e+06   2.207005e+06
  -1.042251e+06   3.812454e+06
  -5.232533e+06   1.803223e+06
  -5.605870e+06  -1.807261e+06
  -2.246486e+06  -4.380273e+06
   1.995067e+06  -5.455259e+06
   5.201302e+06  -4.918819e+06
   6.438418e+06  -1.736035e+06
   4.777606e+06   3.329153e+06
   8.667629e+05   6.410585e+06
  -2.171607e+06   4.818168e+06
  -1.957976e+06   1.008105e+06
  -3.494464e+04  -4.917765e+05
   3.070410e+05   9.443583e+05
  -1.443070e+06   1.933159e+06
  -2.811028e+06   4.089593e+05
  -2.087703e+06  -1.807786e+06
  -1.210533e+05  -2.074053e+06
   1.421164e+06  -2.042666e+05
   1.578322e+06   2.029218e+06
  -2.722421e+04   2.923947e+06
  -2.820828e+06   1.689563e+06
  -4.617470e+06  -1.238176e+06
  -3.339408e+06  -3.975916e+06
   1.118262e+05  -4.498054e+06
   2.513423e+06  -2.857002e+06
   2.455296e+06  -1.108515e+06
   1.956759e+06  -5.699082e+05
   3.011980e+06  -3.252882e+05
   4.377147e+06   9.543904e+05
   3.420707e+06   2.925808e+06
  -1.127186e+04   4.157126e+06
  -3.319941e+06   3.827845e+06
  -4.213888e+06   2.069219e+06
  -2.680334e+06  -4.100847e+05
  -3.139128e+05  -2.226639e+06
   1.087088e+06  -1.956815e+06
   5.766969e+05   2.192219e+04
  -1.107962e+06   1.302786e+06
  -1.959418e+06   3.516088e+05
  -9.374002e+05  -1.261901e+06
   5.266594e+05  -1.100043e+06
   3.578298e+05   4.217593e+05
  -1.197131e+06   5.709034e+05
  -1.832500e+06  -1.582578e+06
  -3.395161e+05  -3.683423e+06
   1.980686e+06  -3.277739e+06
   3.289878e+06  -7.577268e+05
   3.151282e+06   1.715849e+06
   2.030179e+06   2.813864e+06
   3.213196e+05   2.554586e+06
  -1.260553e+06   1.420029e+06
  -1.569451e+06   2.018307e+05
  -4.924651e+05  -6.185217e+04
   3.329812e+05   7.732418e+05
  -4.892335e+05   1.366505e+06
  -1.995821e+06   5.215301e+05
  -2.044230e+06  -1.015225e+06
  -3.107697e+05  -1.482283e+06
   1.219600e+06  -5.193426e+05
   8.414991e+05   4.995217e+05
  -9.044090e+05   4.298355e+05
  -2.127924e+06  -4.814371e+05
  -1.602886e+06  -1.428001e+06
   3.731903e+05  -1.903285e+06
   2.368757e+06  -1.527552e+06
   2.788052e+06  -1.612887e+05
   1.185988e+06   1.342563e+06
  -9.983480e+05   1.522711e+06
  -1.627633e+06   1.462007e+05
  -1.907048e+05  -1.124596e+06
   1.566610e+06  -7.006453e+05
   1.700667e+06   8.738962e+05
   2.340680e+05   1.684100e+06
  -1.176470e+06   8.975983e+05
  -1.243072e+06  -4.201412e+05
  -1.747516e+05  -8.196103e+05
   8.379905e+05  -1.977059e+04
   7.237903e+05   1.097739e+06
  -6.147949e+05   1.430176e+06
  -2.040074e+06   5.008125e+05
  -2.028990e+06  -1.117866e+06
  -3.176037e+05  -2.114232e+06
   1.527801e+06  -1.607594e+06
   1.755196e+06  -1.305525e+05
   4.529972e+05   9.063341e+05
  -7.066811e+05   7.735586e+05
  -6.151380e+05   5.490661e+04
   1.563388e+05  -3.133792e+05
   4.648164e+05  -1.438003e+05
   4.290588e+04   5.716056e+04
  -4.892445e+05  -1.603873e+05
  -4.746372e+05  -7.495235e+05
   2.881560e+05  -1.198284e+06
   1.437752e+06  -8.442422e+05
   2.084159e+06   4.951638e+05
   1.413930e+06   2.010406e+06
  -2.987514e+05   2.418062e+06
  -1.666520e+06   1.327211e+06
  -1.655749e+06  -2.147997e+05
  -7.717677e+05  -8.947840e+05
  -2.767300e+05  -5.779000e+05
  -5.172995e+05  -1.812076e+05
  -6.756283e+05  -3.546013e+05
  -7.555292e+04  -8.062315e+05
   9.275150e+05  -8.662522e+05
   1.454883e+06  -2.492970e+05
   9.897994e+05   7.492151e+05
  -3.265617e+05   1.411766e+06
  -1.761357e+06   9.872510e+05
  -2.224852e+06  -5.709401e+05
  -1.041524e+06  -2.160465e+06
   1.139319e+06  -2.349566e+06
   2.625611e+06  -9.196781e+05
   2.319855e+06   7.914412e+05
   8.490549e+05   1.382159e+06
  -2.760000e+05   8.882042e+05
  -3.694502e+05   4.475939e+05
  -3.143031e+04   7.602356e+05
  -1.112898e+05   1.354611e+06
  -7.289520e+05   1.306992e+06
  -1.334323e+06   2.891911e+05
  -1.320813e+06  -1.125024e+06
  -5.042577e+05  -1.920102e+06
   6.655420e+05  -1.424711e+06
   1.288296e+06   5.437988e+04
   7.617350e+05   1.339556e+06
  -4.744294e+05   1.394896e+06
  -1.224402e+06   3.275507e+05
  -7.986216e+05  -7.926458e+05
   2.036327e+05  -1.114455e+06
   6.224800e+05  -7.620167e+05
   1.233931e+05  -3.924863e+05
  -4.353623e+05  -3.373895e+05
  -5.565025e+04  -3.810168e+05
   1.181091e+06  -1.672230e+05
   2.091786e+06   4.111728e+05
   1.593575e+06   1.114528e+06
  -1.197076e+05   1.470295e+06
  -1.677191e+06   1.108986e+06
  -1.866581e+06   1.929869e+05
  -8.096262e+05  -5.731649e+05
   2.993991e+05  -5.867225e+05
   5.286749e+05   2.078843e+03
   3.370158e+04   4.524316e+05
  -4.358642e+05   2.541996e+05
  -4.790793e+05  -3.566882e+05
  -2.703904e+05  -7.219510e+05
  -1.173883e+05  -4.810410e+05
  -1.364785e+05   6.491978e+04
  -2.608953e+05   2.531847e+05
  -2.634067e+05  -2.451097e+05
   1.516285e+05  -9.734383e+05
   9.368884e+05  -1.053080e+06
   1.419493e+06  -1.636461e+05
   8.759115e+05   9.415642e+05
  -4.495438e+05   1.170049e+06
  -1.299670e+06   3.415491e+05
  -7.266572e+05  -5.837946e+05
   7.354317e+05  -6.218111e+05
   1.574170e+06   1.684772e+05
   9.289045e+05   9.094530e+05
  -5.573221e+05   9.441581e+05
  -1.509044e+06   3.753299e+05
  -1.194654e+06  -2.614127e+05
  -9.679849e+04  -5.107229e+05
   6.663350e+05  -2.299282e+05
   3.916319e+05   3.206642e+05
  -5.820752e+05   5.299698e+05
  -1.191203e+06  -8.021152e+04
  -6.840160e+05  -1.187231e+06
   5.880255e+05  -1.712751e+06
   1.489354e+06  -8.828985e+05
   1.243922e+06   7.746484e+05
   1.637625e+05   1.791896e+06
  -7.758547e+05   1.253685e+06
  -9.143981e+05  -2.314134e+05
  -3.688643e+05  -1.211030e+06
   2.869611e+05  -9.429924e+05
   5.783165e+05  -5.198179e+04
   4.273642e+05   3.840799e+05
   1.269597e+05   1.316690e+05
   6.439409e+04  -8.360015e+04
   3.213111e+05   3.268905e+05
   5.037624e+05   9.924597e+05
   1.211615e+05   1.078475e+06
  -7.743845e+05   3.691449e+05
  -1.459155e+06  -5.031150e+05
  -1.221472e+06  -8.717491e+05
  -1.626743e+05  -7.133434e+05
   8.302267e+05  -4.035102e+05
   9.777033e+05  -1.445645e+05
   3.905811e+05   8.374776e+04
  -1.373525e+05   2.266147e+05
  -8.361797e+04   1.826680e+05
   2.179330e+05   7.510071e+04
   6.671195e+04   1.321980e+05
  -6.189562e+05   2.423035e+05
  -1.057618e+06  -1.723750e+04
  -4.915445e+05  -7.123279e+05
   8.222611e+05  -1.197272e+06
   1.754593e+06  -7.646095e+05
   1.470735e+06   4.312067e+05
   2.716799e+05   1.409626e+06
  -8.076402e+05   1.385835e+06
  -1.065546e+06   5.571753e+05
  -6.486354e+05  -2.166832e+05
  -1.502138e+05  -3.638151e+05
   2.958767e+04  -9.542535e+04
  -9.742722e+04  -1.805906e+04
  -2.728433e+05  -3.895821e+05
  -2.152215e+05  -8.172374e+05
   1.810315e+05  -6.914253e+05
   6.742060e+05   9.761935e+04
   7.602460e+05   9.344136e+05
   1.577446e+05   1.045184e+06
  -7.308330e+05   2.880555e+05
  -1.048455e+06  -6.927426e+05
  -3.697035e+05  -1.103199e+06
   7.177921e+05  -7.098730e+05
   1.149173e+06   7.450575e+04
   5.554920e+05   6.570431e+05
  -3.008993e+05   7.243315e+05
  -4.275593e+05   3.759785e+05
   2.033452e+05  -5.826707e+03
   6.418356e+05  -3.930477e+04
   1.594779e+05   3.205459e+05
  -8.389905e+05   6.659442e+05
  -1.312551e+06   4.922708e+05
  -8.099070e+05  -2.246622e+05
   1.036491e+05  -8.916968e+05
   6.063581e+05  -8.730421e+05
   4.764468e+05  -1.909980e+05
   7.353474e+04   4.636149e+05
  -2.366909e+05   4.608084e+05
  -3.503519e+05  -1.100260e+05
  -2.563440e+05  -5.819120e+05
   4.635994e+04  -4.678941e+05
   3.949797e+05   3.033564e+04
   4.901920e+05   3.169047e+05
   2.431344e+05   1.259569e+05
  -5.418083e+04  -1.848455e+05
  -8.292455e+04  -1.132497e+05
   6.794115e+04   3.289173e+05
   2.832651e+04   6.006415e+05
  -2.965163e+05   2.952902e+05
  -5.151933e+05  -3.349561e+05
  -2.287343e+05  -6.469000e+05
   3.915189e+05  -3.348893e+05
   6.957083e+05   2.577375e+05
   2.736301e+05   5.617452e+05
  -5.267564e+05   3.703226e+05
  -9.139692e+05  -6.321244e+04
  -4.924265e+05  -3.828017e+05
   2.990052e+05  -4.336498e+05
   6.571697e+05  -2.651756e+05
   2.867712e+05  -2.336949e+04
  -3.008179e+05   1.023564e+05
  -3.911004e+05  -1.734235e+04
   1.311888e+05  -2.626707e+05
   6.844552e+05  -2.705631e+05
