
 $NMID
 id='ANONYMOUS ', fmtdat='(2E16.6)'
 volume=1.0
 tramp=1.0
 $END
  -5.564459e+07   1.217634e+06
  -3.435243e+07  -3.379343e+07
   6.496176e+06  -3.793834e+07
   2.708537e+07  -1.511542e+07
   1.658063e+07   6.636396e+06
  -3.081567e+06   9.363179e+06
  -9.839008e+06  -1.020896e+06
  -2.967916e+06  -9.685934e+06
   6.022918e+06  -9.417022e+06
   9.569860e+06  -2.166576e+06
   7.025548e+06   6.008918e+06
   9.413054e+05   8.484845e+06
  -3.878847e+06   2.774793e+06
  -2.647732e+06  -5.344395e+06
   3.659323e+06  -6.556495e+06
   7.845441e+06   1.176862e+06
   4.595357e+06   1.002718e+07
  -3.516376e+06   1.175546e+07
  -9.865152e+06   6.044529e+06
  -1.070338e+07  -1.790367e+06
  -6.703060e+06  -7.217677e+06
  -9.181212e+05  -8.506943e+06
   2.700563e+06  -6.092232e+06
   1.802124e+06  -2.801186e+06
  -1.042725e+06  -2.168741e+06
  -2.579943e+05  -4.088599e+06
   5.253170e+06  -4.366212e+06
   9.490154e+06  -6.179144e+05
   7.003826e+06   3.941915e+06
   3.457961e+05   4.941703e+06
  -3.587305e+06   2.551742e+06
  -2.378431e+06   5.974791e+04
   6.352578e+05  -8.617820e+05
   2.229978e+06  -4.341470e+05
   2.121676e+06   1.397195e+06
   7.039954e+05   3.825439e+06
  -1.689953e+06   3.814522e+06
  -3.150091e+06  -1.091680e+03
  -1.765207e+06  -3.505364e+06
   6.669798e+05  -1.912697e+06
   3.234886e+05   2.390882e+06
  -2.418156e+06   2.304690e+06
  -2.495613e+06  -3.126498e+06
   2.270854e+06  -6.157523e+06
   6.859493e+06  -1.202133e+06
   5.229557e+06   6.723220e+06
  -1.693923e+06   8.489795e+06
  -7.290003e+06   2.545937e+06
  -6.959036e+06  -4.301136e+06
  -1.917916e+06  -5.973119e+06
   3.426892e+06  -2.744439e+06
   5.259402e+06   1.459216e+06
   2.466563e+06   3.453692e+06
  -2.363923e+06   2.239967e+06
  -4.514383e+06  -8.322584e+05
  -1.991918e+06  -2.669775e+06
   1.675644e+06  -1.393527e+06
   1.745064e+06   1.005361e+06
  -1.313967e+06   9.686457e+05
  -2.540608e+06  -1.686478e+06
   4.949651e+05  -3.466256e+06
   4.543188e+06  -2.029047e+06
   5.309006e+06   1.223808e+06
   2.390790e+06   3.900635e+06
  -1.696449e+06   5.226827e+06
  -4.877694e+06   4.836515e+06
  -6.080904e+06   1.809508e+06
  -4.560502e+06  -3.033909e+06
  -1.019883e+06  -6.079491e+06
   1.784921e+06  -4.771179e+06
   1.767989e+06  -1.261141e+06
   2.178691e+05   2.657514e+05
  -1.716070e+04  -9.096598e+05
   1.547151e+06  -1.737102e+06
   2.740861e+06  -2.476430e+05
   1.987155e+06   1.886446e+06
   2.019338e+04   2.102498e+06
  -1.539123e+06   1.847950e+05
  -1.663981e+06  -2.065132e+06
  -1.855646e+04  -2.906900e+06
   2.713509e+06  -1.660568e+06
   4.426410e+06   1.116453e+06
   3.243800e+06   3.659136e+06
   4.818475e+04   4.179939e+06
  -2.194228e+06   2.741908e+06
  -2.197776e+06   1.184128e+06
  -1.828843e+06   7.135458e+05
  -2.938543e+06   5.061791e+05
  -4.345788e+06  -7.234007e+05
  -3.496517e+06  -2.733028e+06
  -1.545714e+05  -4.115165e+06
   3.172787e+06  -3.901514e+06
   4.135084e+06  -2.128972e+06
   2.631471e+06   3.993570e+05
   2.821902e+05   2.205693e+06
  -1.076276e+06   1.919592e+06
  -5.556167e+05  -3.002865e+04
   1.074865e+06  -1.307473e+06
   1.899534e+06  -4.141784e+05
   9.314412e+05   1.188313e+06
  -5.112085e+05   1.108732e+06
  -4.312840e+05  -4.004005e+05
   1.084004e+06  -7.203330e+05
   1.907413e+06   1.280246e+06
   6.893680e+05   3.520797e+06
  -1.599412e+06   3.464500e+06
  -3.184620e+06   1.137531e+06
  -3.336404e+06  -1.457519e+06
  -2.269634e+06  -2.777930e+06
  -4.448615e+05  -2.611049e+06
   1.234040e+06  -1.461086e+06
   1.570080e+06  -2.314267e+05
   4.929571e+05   4.401515e+04
  -3.617770e+05  -7.522007e+05
   4.053320e+05  -1.351523e+06
   1.911020e+06  -5.973160e+05
   2.051329e+06   8.806793e+05
   3.958251e+05   1.426210e+06
  -1.176776e+06   5.773894e+05
  -8.891138e+05  -4.623947e+05
   8.655463e+05  -5.223442e+05
   2.194922e+06   3.348947e+05
   1.738912e+06   1.374449e+06
  -2.636258e+05   1.976570e+06
  -2.316429e+06   1.654289e+06
  -2.778975e+06   2.777782e+05
  -1.228814e+06  -1.265927e+06
   9.102546e+05  -1.516640e+06
   1.566468e+06  -2.059589e+05
   2.136137e+05   1.080647e+06
  -1.517391e+06   7.469430e+05
  -1.728913e+06  -7.829295e+05
  -3.371225e+05  -1.665203e+06
   1.106872e+06  -9.823284e+05
   1.270113e+06   3.212704e+05
   2.451771e+05   7.943828e+05
  -8.050782e+05   6.117898e+04
  -7.460742e+05  -1.053222e+06
   5.688059e+05  -1.429884e+06
   2.007885e+06  -5.537388e+05
   2.045429e+06   1.042836e+06
   3.934578e+05   2.081052e+06
  -1.442441e+06   1.655779e+06
  -1.735894e+06   2.136638e+05
  -5.044297e+05  -8.758691e+05
   6.631644e+05  -8.074466e+05
   6.301946e+05  -7.383051e+04
  -1.308605e+05   3.579757e+05
  -4.948023e+05   1.947141e+05
  -1.070782e+05  -7.745503e+04
   4.689540e+05   8.032569e+04
   5.265728e+05   6.864975e+05
  -2.095361e+05   1.199611e+06
  -1.388445e+06   9.021531e+05
  -2.090188e+06  -4.106322e+05
  -1.476150e+06  -1.944552e+06
   2.117321e+05  -2.425643e+06
   1.620501e+06  -1.412325e+06
   1.692046e+06   1.340605e+05
   8.451605e+05   9.000537e+05
   3.011241e+05   6.403073e+05
   4.772848e+05   2.010521e+05
   6.423793e+05   3.061518e+05
   1.008906e+05   7.706161e+05
  -8.809047e+05   9.062953e+05
  -1.453648e+06   3.214791e+05
  -1.044040e+06  -7.264410e+05
   2.602297e+05  -1.459243e+06
   1.727744e+06  -1.071829e+06
   2.252133e+06   4.838075e+05
   1.138009e+06   2.108442e+06
  -1.013525e+06   2.381844e+06
  -2.557228e+06   1.039938e+06
  -2.361725e+06  -6.676737e+05
  -9.491847e+05  -1.350996e+06
   2.205269e+05  -9.436644e+05
   3.899807e+05  -4.957454e+05
   6.129909e+04  -7.440163e+05
   8.509637e+04  -1.312572e+06
   6.644682e+05  -1.302009e+06
   1.298022e+06  -3.296672e+05
   1.345640e+06   1.075231e+06
   5.652676e+05   1.895037e+06
  -6.168588e+05   1.441285e+06
  -1.288969e+06  -8.677331e+02
  -8.189495e+05  -1.290263e+06
   3.936972e+05  -1.406874e+06
   1.179264e+06  -4.081363e+05
   8.267046e+05   7.087143e+05
  -1.232965e+05   1.093079e+06
  -5.482552e+05   7.932090e+05
  -9.264489e+04   4.161548e+05
   4.357172e+05   3.302837e+05
   6.218221e+04   3.815345e+05
  -1.155902e+06   2.160625e+05
  -2.076697e+06  -3.237736e+05
  -1.627658e+06  -1.037607e+06
   3.640195e+04  -1.449986e+06
   1.596070e+06  -1.158351e+06
   1.842331e+06  -2.811196e+05
   8.419574e+05   5.055034e+05
  -2.602699e+05   5.794503e+05
  -5.188204e+05   3.313786e+04
  -4.072257e+04  -4.263597e+05
   4.373377e+05  -2.606900e+05
   4.856001e+05   3.391593e+05
   2.654792e+05   7.146907e+05
   1.073424e+05   4.736238e+05
   1.400914e+05  -8.810298e+04
   2.759503e+05  -2.812784e+05
   2.756733e+05   2.338697e+05
  -1.339363e+05   9.827460e+05
  -8.953534e+05   1.074996e+06
  -1.372587e+06   1.965468e+05
  -8.713394e+05  -9.046948e+05
   4.044275e+05  -1.154454e+06
   1.260662e+06  -3.600772e+05
   7.385517e+05   5.654612e+05
  -7.049839e+05   6.521441e+05
  -1.590013e+06  -9.895349e+04
  -9.964333e+05  -8.721879e+05
   4.984976e+05  -9.883185e+05
   1.504830e+06  -4.657121e+05
   1.228790e+06   2.016600e+05
   1.281287e+05   5.145990e+05
  -6.544352e+05   2.665537e+05
  -3.931789e+05  -2.955914e+05
   5.735001e+05  -5.320105e+05
   1.184144e+06   6.072792e+04
   6.942320e+05   1.168056e+06
  -5.583099e+05   1.712391e+06
  -1.468397e+06   9.086427e+05
  -1.264032e+06  -7.427328e+05
  -2.176281e+05  -1.789768e+06
   7.360552e+05  -1.292822e+06
   9.287379e+05   1.836947e+05
   4.277138e+05   1.197391e+06
  -2.332014e+05   9.680564e+05
  -5.698756e+05   8.205338e+04
  -4.563672e+05  -3.759890e+05
  -1.496317e+05  -1.360338e+05
  -5.471972e+04   9.294189e+04
  -3.054494e+05  -2.984299e+05
  -5.263888e+05  -9.672361e+05
  -1.801584e+05  -1.080948e+06
   7.346981e+05  -4.026372e+05
   1.478420e+06   4.556987e+05
   1.271677e+06   8.338494e+05
   1.892600e+05   7.031084e+05
  -8.357185e+05   4.252699e+05
  -9.805008e+05   1.828165e+05
  -3.780311e+05  -5.695769e+04
   1.370748e+05  -2.278268e+05
   5.603899e+04  -2.003401e+05
  -2.424645e+05  -8.508149e+04
  -6.046028e+04  -1.298605e+05
   6.354860e+05  -2.476173e+05
   1.051562e+06  -8.215596e+03
   4.766108e+05   6.863669e+05
  -8.051671e+05   1.201535e+06
  -1.708135e+06   8.005227e+05
  -1.448011e+06  -3.954576e+05
  -3.031319e+05  -1.401249e+06
   7.564811e+05  -1.399540e+06
   1.043366e+06  -5.708101e+05
   6.548007e+05   2.111232e+05
   1.499000e+05   3.562846e+05
  -4.573265e+04   7.837233e+04
   9.226801e+04  -2.566822e+03
   2.961806e+05   3.746739e+05
   2.489365e+05   8.097349e+05
  -1.639646e+05   6.888030e+05
  -6.773865e+05  -9.442377e+04
  -7.690034e+05  -9.232668e+05
  -1.620800e+05  -1.031251e+06
   7.314536e+05  -2.838284e+05
   1.055151e+06   6.805277e+05
   3.855051e+05   1.086078e+06
  -6.966828e+05   7.108389e+05
  -1.135593e+06  -4.626510e+04
  -5.617209e+05  -6.212761e+05
   2.745488e+05  -7.097780e+05
   3.954138e+05  -3.847862e+05
  -2.227738e+05   5.243933e+02
  -6.441165e+05   5.337097e+04
  -1.615608e+05  -3.100227e+05
   8.177627e+05  -6.915050e+05
   1.278847e+06  -5.476802e+05
   7.956011e+05   1.808434e+05
  -7.814327e+04   8.835863e+05
  -5.597214e+05   8.822114e+05
  -4.464375e+05   1.918675e+05
  -7.415832e+04  -4.674288e+05
   2.253069e+05  -4.542392e+05
   3.510729e+05   1.188001e+05
   2.690775e+05   5.732984e+05
  -3.556173e+04   4.498177e+05
  -3.926733e+05  -2.719664e+04
  -4.930817e+05  -2.877597e+05
  -2.476023e+05  -1.067680e+05
   5.177801e+04   1.664153e+05
   9.002648e+04   7.962094e+04
  -4.886553e+04  -3.344857e+05
  -1.069066e+04  -5.717847e+05
   2.943974e+05  -2.662945e+05
   4.945122e+05   3.385889e+05
   2.118385e+05   6.367762e+05
  -3.894333e+05   3.339305e+05
  -6.861667e+05  -2.485651e+05
  -2.773942e+05  -5.587955e+05
   5.087341e+05  -3.818167e+05
   9.002762e+05   4.464019e+04
   4.957716e+05   3.675725e+05
  -2.838926e+05   4.262254e+05
  -6.400324e+05   2.657781e+05
  -2.698433e+05   3.043221e+04
   3.158036e+05  -9.188946e+04
   3.955923e+05   2.905579e+04
  -1.425717e+05   2.758357e+05
  -7.031525e+05   2.838192e+05
