
 $NMID
 id='ANONYMOUS ', fmtdat='(2E16.6)'
 volume=1.0
 tramp=1.0
 $END
   2.382157e+07  -1.136393e+05
   1.622203e+07   1.110110e+07
   2.064990e+05   1.525304e+07
  -1.041991e+07   1.030879e+07
  -8.963882e+06   1.100014e+06
  -6.564309e+05  -4.448416e+06
   4.998016e+06  -2.307116e+06
   3.836642e+06   3.913734e+06
  -1.121041e+06   6.814213e+06
  -4.596830e+06   3.076907e+06
  -3.963077e+06  -3.150356e+06
  -4.890687e+05  -5.134203e+06
   2.356479e+06  -1.062620e+06
   1.865683e+06   4.272183e+06
  -1.448987e+06   5.039646e+06
  -4.110430e+06   5.040908e+05
  -3.057400e+06  -4.783327e+06
   1.092041e+06  -6.073512e+06
   4.634542e+06  -2.870403e+06
   4.675195e+06   1.417077e+06
   1.949977e+06   3.351993e+06
  -3.299083e+05   2.582656e+06
  -1.373570e+04   1.434219e+06
   1.833484e+06   1.943414e+06
   2.152887e+06   3.617605e+06
  -7.517981e+05   4.172427e+06
  -4.994003e+06   2.239711e+06
  -6.575985e+06  -1.031784e+06
  -3.570196e+06  -3.133499e+06
   1.397014e+06  -2.621471e+06
   3.609761e+06  -2.571324e+05
   1.303451e+06   1.848965e+06
  -2.549822e+06   1.908677e+06
  -3.817950e+06  -2.566930e+05
  -1.715098e+06  -2.913734e+06
   1.010085e+06  -3.607775e+06
   1.723115e+06  -1.513188e+06
   5.468483e+05   1.280178e+06
  -5.951849e+05   1.690590e+06
  -4.091866e+05  -7.337136e+05
   8.101818e+05  -2.953745e+06
   1.886409e+06  -1.996286e+06
   1.747324e+06   1.247789e+06
   1.644484e+05   2.957286e+06
  -1.759812e+06   1.034055e+06
  -2.084198e+06  -2.381402e+06
   1.386536e+05  -3.517037e+06
   3.345887e+06  -1.204446e+06
   4.483895e+06   2.227522e+06
   2.080489e+06   3.747671e+06
  -1.951198e+06   2.462222e+06
  -4.051257e+06  -1.306215e+05
  -2.568906e+06  -1.855690e+06
   6.912943e+05  -1.625321e+06
   2.495865e+06  -8.549174e+04
   1.484538e+06   1.100767e+06
  -7.100717e+05   8.113835e+05
  -1.488375e+06  -4.727143e+05
  -1.385862e+05  -1.241138e+06
   1.516545e+06  -6.121423e+05
   1.287258e+06   7.544842e+05
  -8.219376e+05   1.400126e+06
  -2.507411e+06   4.949701e+05
  -1.660868e+06  -1.456623e+06
   1.307811e+06  -2.995059e+06
   3.886735e+06  -2.731484e+06
   4.064058e+06  -4.599099e+05
   2.177742e+06   2.430034e+06
   1.545316e+05   3.960093e+06
  -6.693702e+05   3.391097e+06
  -6.254727e+05   1.895264e+06
  -8.228345e+05   1.066612e+06
  -1.683411e+06   9.977025e+05
  -2.539624e+06   4.259021e+05
  -2.423959e+06  -1.221946e+06
  -1.039360e+06  -2.678117e+06
   9.050149e+05  -2.224623e+06
   2.113814e+06   1.146872e+05
   1.617690e+06   2.358444e+06
  -3.553283e+05   2.572305e+06
  -2.336713e+06   7.286974e+05
  -2.763872e+06  -1.503324e+06
  -1.432942e+06  -2.505894e+06
   3.107003e+05  -2.060159e+06
   1.049029e+06  -1.156091e+06
   8.482214e+05  -7.684584e+05
   1.013617e+06  -9.046802e+05
   2.250536e+06  -7.495913e+05
   3.477210e+06   3.642321e+05
   2.885525e+06   2.146845e+06
   1.407989e+05   3.457156e+06
  -2.876366e+06   3.219435e+06
  -3.791214e+06   1.377036e+06
  -2.102732e+06  -9.023459e+05
   3.682887e+05  -2.038218e+06
   1.378295e+06  -1.357523e+06
   4.147919e+05   2.183222e+05
  -1.093331e+06   9.945352e+05
  -1.482227e+06   2.554083e+05
  -5.132625e+05  -9.276647e+05
   6.262562e+05  -9.565314e+05
   6.907746e+05   2.799116e+05
  -4.092495e+05   1.117164e+06
  -1.590572e+06   8.370163e+04
  -1.579187e+06  -2.184570e+06
   8.672597e+02  -3.452536e+06
   2.224813e+06  -2.276220e+06
   3.477816e+06   4.761093e+05
   2.749236e+06   2.583055e+06
   5.950572e+05   2.670229e+06
  -1.251368e+06   1.291857e+06
  -1.472389e+06   5.068810e+04
  -4.288883e+05  -4.857592e+04
   3.153260e+05   6.359176e+05
  -2.305600e+05   1.014533e+06
  -1.382689e+06   4.753230e+05
  -1.628546e+06  -5.340194e+05
  -4.582959e+05  -1.037392e+06
   9.399902e+05  -5.638475e+05
   9.563923e+05   3.698332e+05
  -6.012389e+05   7.660699e+05
  -2.166202e+06   9.687255e+04
  -1.996878e+06  -1.195238e+06
  -1.257745e+04  -2.049204e+06
   2.073913e+06  -1.678440e+06
   2.464280e+06  -2.944925e+05
   1.023577e+06   9.835978e+05
  -7.060727e+05   1.101082e+06
  -1.119320e+06   1.150248e+05
  -5.098530e+04  -8.027141e+05
   1.261082e+06  -5.801947e+05
   1.502207e+06   5.755802e+05
   4.905640e+05   1.411974e+06
  -7.821312e+05   1.057148e+06
  -1.157866e+06  -1.795614e+04
  -4.068558e+05  -5.940691e+05
   5.556530e+05  -8.689384e+04
   5.657077e+05   8.714378e+05
  -5.654673e+05   1.173106e+06
  -1.751014e+06   3.644768e+05
  -1.700216e+06  -9.657087e+05
  -3.089753e+05  -1.759018e+06
   1.178288e+06  -1.407064e+06
   1.466331e+06  -2.545595e+05
   5.224452e+05   7.109831e+05
  -5.249242e+05   7.508292e+05
  -6.673509e+05   5.122948e+04
   8.793439e+03  -5.231732e+05
   6.031445e+05  -3.897387e+05
   4.483521e+05   1.276854e+05
  -2.203586e+05   2.335359e+05
  -5.549041e+05  -3.490474e+05
   1.565496e+04  -9.902660e+05
   1.143337e+06  -8.124378e+05
   1.798607e+06   3.457070e+05
   1.237883e+06   1.686150e+06
  -2.200769e+05   2.153023e+06
  -1.457460e+06   1.377744e+06
  -1.643743e+06  -6.776374e+03
  -9.839318e+05  -9.541114e+05
  -3.363295e+05  -9.505605e+05
  -2.111370e+05  -4.221354e+05
  -3.107205e+05  -1.871831e+05
  -3.898522e+04  -5.141820e+05
   7.031257e+05  -8.210078e+05
   1.319510e+06  -3.892171e+05
   1.079071e+06   6.950894e+05
  -1.301302e+05   1.473378e+06
  -1.543498e+06   1.058373e+06
  -2.040860e+06  -4.093155e+05
  -1.086887e+06  -1.809587e+06
   7.229449e+05  -2.047220e+06
   2.097775e+06  -1.011761e+06
   2.147156e+06   4.037824e+05
   1.098846e+06   1.179047e+06
  -4.801235e+04   1.063802e+06
  -5.184354e+05   6.525577e+05
  -3.779051e+05   6.207269e+05
  -2.478853e+05   9.504655e+05
  -5.444958e+05   9.801367e+05
  -1.037069e+06   2.201451e+05
  -1.110053e+06  -9.794538e+05
  -4.375779e+05  -1.675625e+06
   5.896074e+05  -1.249097e+06
   1.145195e+06  -2.151443e+04
   7.513846e+05   1.043769e+06
  -2.116886e+05   1.206068e+06
  -8.576722e+05   5.196365e+05
  -6.882058e+05  -3.526664e+05
  -6.803535e+04  -7.955079e+05
   2.461839e+05  -7.163184e+05
  -1.329797e+04  -4.607658e+05
  -3.291256e+05  -3.518974e+05
  -1.637972e+04  -3.578855e+05
   9.282683e+05  -2.005157e+05
   1.687417e+06   2.676042e+05
   1.401038e+06   8.471066e+05
   9.519158e+04   1.148018e+06
  -1.233394e+06   9.328730e+05
  -1.547827e+06   3.278318e+05
  -7.824446e+05  -2.514342e+05
   1.572318e+05  -4.067895e+05
   3.992637e+05  -1.023895e+05
  -3.602785e+04   2.539870e+05
  -4.552917e+05   1.839341e+05
  -3.943393e+05  -3.119021e+05
  -6.670128e+04  -6.759550e+05
   5.703266e+04  -4.278662e+05
  -1.420708e+05   1.777552e+05
  -3.619697e+05   3.683774e+05
  -2.627963e+05  -1.945288e+05
   2.141990e+05  -9.085003e+05
   7.981961e+05  -8.907583e+05
   1.026565e+06  -3.993302e+04
   5.644586e+05   8.170183e+05
  -3.801858e+05   8.591160e+05
  -1.010032e+06   1.401021e+05
  -6.109750e+05  -5.615670e+05
   5.923023e+05  -5.888975e+05
   1.462175e+06   3.182675e+04
   1.061925e+06   7.446168e+05
  -3.073806e+05   9.863090e+05
  -1.373508e+06   5.972738e+05
  -1.216007e+06  -8.678532e+04
  -1.828543e+05  -4.916734e+05
   5.618344e+05  -2.961642e+05
   2.897434e+05   2.189454e+05
  -5.883244e+05   3.792739e+05
  -1.024823e+06  -1.975873e+05
  -4.408607e+05  -1.105674e+06
   7.036465e+05  -1.434920e+06
   1.401229e+06  -6.556527e+05
   1.089421e+06   7.528940e+05
   1.200636e+05   1.630542e+06
  -6.931448e+05   1.211107e+06
  -8.502702e+05  -9.157013e+04
  -4.509787e+05  -1.063501e+06
   1.031190e+05  -9.293989e+05
   4.700012e+05  -1.133668e+05
   4.911186e+05   3.691833e+05
   2.347996e+05   1.588154e+05
   1.057253e+04  -1.148336e+05
   1.125435e+05   2.004962e+05
   3.860421e+05   8.441163e+05
   2.600279e+05   9.927127e+05
  -5.189699e+05   3.635031e+05
  -1.327520e+06  -4.513491e+05
  -1.232304e+06  -7.795141e+05
  -1.635792e+05  -6.066311e+05
   8.637132e+05  -3.415149e+05
   9.194879e+05  -1.745579e+05
   2.459935e+05  -1.778586e+03
  -1.705049e+05   1.875815e+05
   6.853887e+04   2.407364e+05
   3.451002e+05   1.570726e+05
  -3.938935e+03   1.248852e+05
  -7.166095e+05   1.431216e+05
  -9.153717e+05  -7.521644e+04
  -1.985321e+05  -6.040578e+05
   8.898768e+05  -9.502109e+05
   1.456357e+06  -5.396207e+05
   1.100183e+06   4.875309e+05
   1.544654e+05   1.277646e+06
  -6.953788e+05   1.161969e+06
  -9.453675e+05   3.681073e+05
  -5.883226e+05  -2.905449e+05
  -5.900631e+04  -3.188180e+05
   1.578994e+05   1.218297e+04
  -3.972863e+04   8.812630e+04
  -3.074129e+05  -3.049838e+05
  -2.376748e+05  -7.267516e+05
   2.025801e+05  -5.730863e+05
   6.194525e+05   2.037835e+05
   5.579668e+05   9.391635e+05
  -4.920311e+04   9.047038e+05
  -7.376681e+05   9.115983e+04
  -8.573743e+05  -7.691943e+05
  -2.032927e+05  -9.723573e+05
   6.717677e+05  -4.994946e+05
   9.385875e+05   1.342539e+05
   3.934939e+05   4.902715e+05
  -2.687286e+05   4.981806e+05
  -2.642980e+05   2.935590e+05
   3.111927e+05   5.591399e+04
   6.023056e+05   4.360977e+03
   8.766476e+04   2.599523e+05
  -7.575062e+05   5.869148e+05
  -1.060563e+06   5.080188e+05
  -5.810404e+05  -1.086158e+05
   1.233499e+05  -7.316460e+05
   4.388588e+05  -7.055239e+05
   2.897849e+05  -6.456455e+04
  -1.974206e+04   4.640840e+05
  -2.442784e+05   3.273575e+05
  -3.099957e+05  -2.257404e+05
  -1.912642e+05  -5.248042e+05
   8.240057e+04  -3.015271e+05
   3.408016e+05   9.000411e+04
   3.850110e+05   2.081866e+05
   2.126458e+05   4.308212e+04
   1.463768e+04  -6.849869e+04
  -7.474678e+04   9.225897e+04
  -1.185540e+05   3.636890e+05
  -2.243019e+05   3.910390e+05
  -3.387794e+05   3.017950e+04
  -2.801029e+05  -4.487117e+05
   3.202262e+04  -5.895576e+05
   4.152032e+05  -2.214430e+05
   5.222456e+05   3.268670e+05
   1.597314e+05   5.508066e+05
  -4.395086e+05   2.933484e+05
  -7.304027e+05  -1.367453e+05
  -3.860317e+05  -3.550017e+05
   2.742487e+05  -2.822211e+05
   5.516053e+05  -1.028223e+05
   1.584275e+05   4.580900e+03
  -3.979549e+05  -2.157830e+04
  -3.920964e+05  -1.651690e+05
   2.358503e+05  -3.046091e+05
   7.914774e+05  -2.050279e+05
