
 $NMID
 id='ANONYMOUS ', fmtdat='(2E16.6)'
 volume=1.0
 tramp=1.0
 $END
  -2.268989e+07  -6.285865e+05
  -1.460843e+07  -1.138001e+07
   7.496166e+05  -1.438569e+07
   1.008326e+07  -8.887123e+06
   8.005623e+06  -4.178858e+05
   2.523544e+05   4.025502e+06
  -4.522050e+06   1.735425e+06
  -3.174054e+06  -3.683496e+06
   1.267093e+06  -5.981505e+06
   4.243233e+06  -2.539358e+06
   3.576370e+06   2.982217e+06
   3.885324e+05   4.694425e+06
  -2.197192e+06   9.837620e+05
  -1.684694e+06  -3.835053e+06
   1.392196e+06  -4.463559e+06
   3.754002e+06  -2.802254e+05
   2.657460e+06   4.497916e+06
  -1.193773e+06   5.574261e+06
  -4.411201e+06   2.577709e+06
  -4.427363e+06  -1.403648e+06
  -1.874160e+06  -3.279949e+06
   3.912921e+05  -2.621715e+06
   2.856329e+05  -1.408998e+06
  -1.430269e+06  -1.608150e+06
  -1.939560e+06  -3.050842e+06
   5.576576e+05  -3.720870e+06
   4.466405e+06  -2.134994e+06
   6.016516e+06   8.526720e+05
   3.323811e+06   2.884919e+06
  -1.204782e+06   2.501301e+06
  -3.263797e+06   3.746384e+05
  -1.288196e+06  -1.561436e+06
   2.095778e+06  -1.722460e+06
   3.308733e+06   9.243432e+04
   1.614110e+06   2.474353e+06
  -7.654945e+05   3.247281e+06
  -1.567866e+06   1.467005e+06
  -6.639146e+05  -1.142105e+06
   4.495729e+05  -1.667438e+06
   4.719549e+05   5.143705e+05
  -6.023481e+05   2.622809e+06
  -1.674735e+06   1.781875e+06
  -1.525553e+06  -1.201488e+06
   5.864668e+04  -2.691033e+06
   1.812310e+06  -7.696590e+05
   1.884510e+06   2.411204e+06
  -3.287443e+05   3.315466e+06
  -3.188674e+06   1.041462e+06
  -4.042484e+06  -2.103530e+06
  -1.796162e+06  -3.390132e+06
   1.779202e+06  -2.154791e+06
   3.589527e+06   1.805305e+05
   2.219143e+06   1.681174e+06
  -7.053832e+05   1.405976e+06
  -2.270309e+06  -1.915425e+04
  -1.284307e+06  -1.051058e+06
   6.922915e+05  -7.155973e+05
   1.308366e+06   4.383371e+05
   6.358470e+04   1.026018e+06
  -1.304394e+06   3.979365e+05
  -9.528162e+05  -7.341201e+05
   9.259720e+05  -1.152526e+06
   2.290485e+06  -2.840912e+05
   1.437783e+06   1.413564e+06
  -1.205165e+06   2.758214e+06
  -3.507227e+06   2.532849e+06
  -3.723106e+06   4.603344e+05
  -2.051730e+06  -2.223307e+06
  -1.571148e+05  -3.622982e+06
   6.520339e+05  -3.025173e+06
   5.600150e+05  -1.602730e+06
   6.281809e+05  -9.029065e+05
   1.378316e+06  -9.581086e+05
   2.230554e+06  -5.111389e+05
   2.221235e+06   9.841595e+05
   1.021808e+06   2.342528e+06
  -7.246624e+05   1.995718e+06
  -1.846987e+06  -4.642302e+04
  -1.463105e+06  -2.050222e+06
   2.784632e+05  -2.300764e+06
   2.102590e+06  -7.028717e+05
   2.551450e+06   1.327824e+06
   1.347293e+06   2.308597e+06
  -2.993938e+05   1.938434e+06
  -1.018787e+06   1.075715e+06
  -8.183543e+05   6.663745e+05
  -9.172715e+05   7.749763e+05
  -2.003905e+06   6.547646e+05
  -3.105067e+06  -3.239197e+05
  -2.583208e+06  -1.906947e+06
  -1.448951e+05  -3.081943e+06
   2.535113e+06  -2.900727e+06
   3.368147e+06  -1.286872e+06
   1.907183e+06   7.645269e+05
  -2.744740e+05   1.832190e+06
  -1.203166e+06   1.248336e+06
  -3.800351e+05  -1.869784e+05
   9.651984e+05  -9.058931e+05
   1.331953e+06  -2.322583e+05
   4.731071e+05   8.413012e+05
  -5.446913e+05   8.584587e+05
  -5.954259e+05  -2.419805e+05
   3.741200e+05  -9.487143e+05
   1.377803e+06  -9.618633e+03
   1.329304e+06   1.948605e+06
  -4.433754e+04   2.991538e+06
  -1.946985e+06   1.942956e+06
  -3.030589e+06  -4.225095e+05
  -2.421847e+06  -2.236982e+06
  -5.508917e+05  -2.338654e+06
   1.090856e+06  -1.163085e+06
   1.306552e+06  -6.766461e+04
   3.808523e+05   3.951013e+04
  -2.837574e+05  -5.663554e+05
   2.138549e+05  -9.104924e+05
   1.247520e+06  -4.226816e+05
   1.452327e+06   4.879014e+05
   3.958416e+05   9.304558e+05
  -8.404622e+05   4.997544e+05
  -8.435446e+05  -3.223721e+05
   5.288327e+05  -6.661306e+05
   1.900141e+06  -8.961612e+04
   1.758017e+06   1.032119e+06
   2.329076e+04   1.795665e+06
  -1.821391e+06   1.495683e+06
  -2.184460e+06   2.765755e+05
  -9.131979e+05  -8.771578e+05
   6.357967e+05  -9.926446e+05
   1.011473e+06  -1.020189e+05
   5.133374e+04   7.284369e+05
  -1.126133e+06   5.257177e+05
  -1.336204e+06  -5.102158e+05
  -4.303408e+05  -1.248274e+06
   6.945297e+05  -9.250285e+05
   1.017631e+06   2.544961e+04
   3.478384e+05   5.276278e+05
  -5.060554e+05   7.435183e+04
  -5.164375e+05  -7.798276e+05
   4.927000e+05  -1.058515e+06
   1.561080e+06  -3.462485e+05
   1.527669e+06   8.464234e+05
   2.870359e+05   1.567324e+06
  -1.044665e+06   1.258025e+06
  -1.301284e+06   2.286578e+05
  -4.593549e+05  -6.302294e+05
   4.663849e+05  -6.656663e+05
   5.876959e+05  -5.198391e+04
  -4.306708e+03   4.527318e+05
  -5.184672e+05   3.458808e+05
  -3.832259e+05  -9.521262e+04
   1.942401e+05  -1.876082e+05
   4.834404e+05   3.156148e+05
  -1.600516e+04   8.787110e+05
  -1.013068e+06   7.291358e+05
  -1.604222e+06  -2.943886e+05
  -1.117172e+06  -1.492419e+06
   1.762504e+05  -1.914693e+06
   1.278174e+06  -1.227468e+06
   1.446602e+06  -4.895678e+03
   8.709338e+05   8.211147e+05
   3.138047e+05   8.144607e+05
   2.118515e+05   3.640632e+05
   2.915891e+05   1.758229e+05
   3.877689e+04   4.670972e+05
  -6.191500e+05   7.323813e+05
  -1.162517e+06   3.547018e+05
  -9.582829e+05  -5.974118e+05
   1.010343e+05  -1.295882e+06
   1.357138e+06  -9.491038e+05
   1.813844e+06   3.452870e+05
   9.743991e+05   1.600687e+06
  -6.388554e+05   1.824101e+06
  -1.863618e+06   9.048540e+05
  -1.901300e+06  -3.520327e+05
  -9.685912e+05  -1.032085e+06
   3.631497e+04  -9.269705e+05
   4.379356e+05  -5.762832e+05
   3.120995e+05  -5.667742e+05
   2.088493e+05  -8.642165e+05
   4.841217e+05  -8.838403e+05
   9.287410e+05  -2.045697e+05
   9.998191e+05   8.623706e+05
   4.056328e+05   1.487613e+06
  -5.126625e+05   1.117431e+06
  -1.017006e+06   2.641460e+04
  -6.715269e+05  -9.272217e+05
   1.883019e+05  -1.071725e+06
   7.650741e+05  -4.532094e+05
   6.092614e+05   3.260456e+05
   5.097150e+04   7.119253e+05
  -2.277048e+05   6.310164e+05
   1.175109e+04   4.005666e+05
   3.005241e+05   3.067984e+05
   2.124659e+04   3.169898e+05
  -8.280408e+05   1.832225e+05
  -1.510374e+06  -2.282053e+05
  -1.252568e+06  -7.467718e+05
  -8.203117e+04  -1.025089e+06
   1.102540e+06  -8.399347e+05
   1.375669e+06  -2.957841e+05
   6.893674e+05   2.289484e+05
  -1.436567e+05   3.672987e+05
  -3.554078e+05   8.826438e+04
   2.814254e+04  -2.346098e+05
   3.986662e+05  -1.712802e+05
   3.546531e+05   2.734367e+05
   7.658525e+04   6.007129e+05
  -3.750656e+04   3.837175e+05
   1.202860e+05  -1.535598e+05
   3.079789e+05  -3.269298e+05
   2.350677e+05   1.697631e+05
  -1.739481e+05   8.091659e+05
  -7.025255e+05   8.034380e+05
  -9.277937e+05   4.877300e+04
  -5.223842e+05  -7.253246e+05
   3.331965e+05  -7.775358e+05
   9.070885e+05  -1.416406e+05
   5.513860e+05   4.906714e+05
  -5.226040e+05   5.260416e+05
  -1.293403e+06  -1.822342e+04
  -9.371447e+05  -6.491190e+05
   2.699165e+05  -8.676687e+05
   1.207244e+06  -5.312912e+05
   1.070410e+06   6.940211e+04
   1.629663e+05   4.311834e+05
  -4.966473e+05   2.632544e+05
  -2.620438e+05  -1.969038e+05
   5.170869e+05  -3.500614e+05
   9.175914e+05   1.587053e+05
   4.135357e+05   9.786187e+05
  -6.021282e+05   1.290545e+06
  -1.236256e+06   6.054816e+05
  -9.775798e+05  -6.543596e+05
  -1.256439e+05  -1.445681e+06
   6.012466e+05  -1.078013e+06
   7.524468e+05   7.804861e+04
   4.049977e+05   9.390503e+05
  -8.883177e+04   8.197444e+05
  -4.181769e+05   1.014731e+05
  -4.349788e+05  -3.196012e+05
  -2.044262e+05  -1.345477e+05
  -1.021732e+04   9.885347e+04
  -1.102560e+05  -1.852954e+05
  -3.544114e+05  -7.496228e+05
  -2.330778e+05  -8.750145e+05
   4.664151e+05  -3.232925e+05
   1.182588e+06   3.867068e+05
   1.094984e+06   6.770070e+05
   1.503445e+05   5.384256e+05
  -7.570188e+05   3.156097e+05
  -8.116182e+05   1.630714e+05
  -2.228573e+05  -1.765891e+03
   1.472573e+05  -1.698069e+05
  -5.687117e+04  -2.059694e+05
  -3.018923e+05  -1.282112e+05
  -1.865254e+03  -1.120403e+05
   6.273891e+05  -1.419190e+05
   8.169901e+05   5.442651e+04
   1.955651e+05   5.406812e+05
  -7.742169e+05   8.627517e+05
  -1.296846e+06   5.005608e+05
  -9.960529e+05  -4.195250e+05
  -1.559406e+05  -1.133819e+06
   6.081500e+05  -1.043578e+06
   8.387297e+05  -3.444526e+05
   5.273451e+05   2.463291e+05
   6.011069e+04   2.845859e+05
  -1.348648e+05  -1.258418e+03
   3.515029e+04  -7.216273e+04
   2.722067e+05   2.690757e+05
   2.162252e+05   6.429520e+05
  -1.728427e+05   5.147240e+05
  -5.539143e+05  -1.679946e+05
  -5.140334e+05  -8.252053e+05
   2.445730e+04  -8.092258e+05
   6.526046e+05  -9.921692e+04
   7.765884e+05   6.674467e+05
   1.975964e+05   8.645385e+05
  -5.920844e+05   4.588313e+05
  -8.413989e+05  -1.070507e+05
  -3.590460e+05  -4.386624e+05
   2.360241e+05  -4.540277e+05
   2.393092e+05  -2.641481e+05
  -2.705588e+05  -4.071584e+04
  -5.341368e+05   5.331691e+03
  -8.326693e+04  -2.323163e+05
   6.665276e+05  -5.298502e+05
   9.419672e+05  -4.565903e+05
   5.235799e+05   9.802542e+04
  -1.014440e+05   6.553293e+05
  -3.894667e+05   6.336781e+05
  -2.660594e+05   6.404628e+04
   7.036294e+03  -4.110631e+05
   2.130751e+05  -2.986493e+05
   2.800425e+05   1.901555e+05
   1.776188e+05   4.645497e+05
  -6.973746e+04   2.759078e+05
  -3.054396e+05  -7.316189e+04
  -3.458186e+05  -1.860673e+05
  -1.883510e+05  -3.996421e+04
  -1.041319e+04   6.754661e+04
   6.208270e+04  -7.196164e+04
   9.037719e+04  -3.235197e+05
   1.838010e+05  -3.620558e+05
   3.004780e+05  -4.455350e+04
   2.660385e+05   3.904319e+05
  -8.904266e+03   5.274101e+05
  -3.641550e+05   2.065444e+05
  -4.745743e+05  -2.811326e+05
  -1.533313e+05  -4.863583e+05
   3.897064e+05  -2.668416e+05
   6.565178e+05   1.108081e+05
   3.498735e+05   3.115718e+05
  -2.421713e+05   2.595215e+05
  -4.932205e+05   1.038170e+05
  -1.465012e+05  -2.725488e+03
   3.486362e+05   6.661121e+03
   3.501748e+05   1.337472e+05
  -1.986910e+05   2.711966e+05
  -6.916367e+05   1.954114e+05
