
 $NMID
 id='ANONYMOUS ', fmtdat='(2E16.6)'
 volume=1.0
 tramp=1.0
 $END
   3.505916e+07   3.549175e+05
   2.211687e+07   1.927059e+07
  -2.503447e+06   2.295066e+07
  -1.627991e+07   1.186051e+07
  -1.154826e+07  -1.483482e+06
   6.463486e+05  -6.081025e+06
   6.667199e+06  -1.212213e+06
   3.570748e+06   5.897712e+06
  -2.798641e+06   7.810697e+06
  -6.350400e+06   2.790810e+06
  -5.026653e+06  -4.277694e+06
  -5.601264e+05  -6.428584e+06
   2.988815e+06  -1.595798e+06
   2.166197e+06   4.840175e+06
  -2.253800e+06   5.698441e+06
  -5.435950e+06  -9.650730e+04
  -3.558856e+06  -6.694218e+06
   2.033582e+06  -8.086549e+06
   6.566086e+06  -3.883536e+06
   6.785409e+06   1.741394e+06
   3.447616e+06   4.847505e+06
  -1.060473e+05   4.607039e+06
  -9.862361e+05   2.891132e+06
   7.625450e+05   2.188466e+06
   1.968160e+06   3.289572e+06
  -4.491315e+05   4.380084e+06
  -5.371777e+06   3.029486e+06
  -7.860815e+06  -6.286423e+05
  -4.798947e+06  -3.632102e+06
   9.896761e+05  -3.527709e+06
   3.848750e+06  -9.904420e+05
   1.763130e+06   1.370574e+06
  -2.033374e+06   1.730974e+06
  -3.514883e+06   9.047260e+03
  -1.973764e+06  -2.564348e+06
   5.063664e+05  -3.881530e+06
   1.842409e+06  -2.310792e+06
   1.423646e+06   1.006319e+06
   7.016422e+04   2.410284e+06
  -5.891114e+05   6.247221e+04
   4.633871e+05  -2.950995e+06
   2.141989e+06  -2.182092e+06
   2.010550e+06   1.915837e+06
  -6.862172e+05   4.041934e+06
  -3.462731e+06   9.959582e+05
  -3.064845e+06  -3.958765e+06
   7.682268e+05  -5.223719e+06
   4.791809e+06  -1.589112e+06
   5.434036e+06   3.046805e+06
   2.078427e+06   4.618267e+06
  -2.512330e+06   2.627404e+06
  -4.585329e+06  -5.821294e+05
  -2.607806e+06  -2.431537e+06
   1.274999e+06  -1.836825e+06
   3.222175e+06   2.610130e+05
   1.659837e+06   1.657913e+06
  -1.071066e+06   1.000998e+06
  -1.620024e+06  -6.692575e+05
   3.115992e+05  -1.166271e+06
   1.842379e+06   1.184957e+05
   6.987953e+05   1.597138e+06
  -2.057046e+06   1.562657e+06
  -3.459663e+06  -9.521231e+04
  -1.906608e+06  -2.311286e+06
   1.535760e+06  -3.836802e+06
   4.422643e+06  -3.517307e+06
   4.926380e+06  -8.723497e+05
   3.026772e+06   2.790333e+06
   3.903851e+05   4.835541e+06
  -1.078162e+06   3.950463e+06
  -9.823152e+05   1.748245e+06
  -6.168948e+05   7.180113e+05
  -1.214790e+06   1.080080e+06
  -2.386963e+06   9.045551e+05
  -2.690774e+06  -8.161256e+05
  -1.418569e+06  -2.581216e+06
   6.498760e+05  -2.319484e+06
   2.042934e+06   7.827002e+03
   1.721557e+06   2.377236e+06
  -2.587435e+05   2.810254e+06
  -2.590793e+06   1.052274e+06
  -3.434758e+06  -1.488461e+06
  -2.049386e+06  -3.030482e+06
   2.611813e+05  -2.835766e+06
   1.495872e+06  -1.684550e+06
   1.319197e+06  -9.044775e+05
   1.308994e+06  -8.709038e+05
   2.566698e+06  -7.004621e+05
   3.910766e+06   5.022633e+05
   3.209138e+06   2.437570e+06
   1.473261e+05   3.830390e+06
  -3.112778e+06   3.593719e+06
  -4.094467e+06   1.685182e+06
  -2.385129e+06  -7.959535e+05
   1.796413e+05  -2.208040e+06
   1.359910e+06  -1.608050e+06
   4.825643e+05   1.772892e+05
  -1.149062e+06   1.144166e+06
  -1.689494e+06   3.050807e+05
  -6.614779e+05  -1.066600e+06
   6.263286e+05  -1.050101e+06
   6.394075e+05   3.290136e+05
  -6.332493e+05   1.029172e+06
  -1.734355e+06  -3.498279e+05
  -1.344705e+06  -2.682241e+06
   4.961730e+05  -3.574688e+06
   2.594147e+06  -2.005460e+06
   3.570054e+06   7.894891e+05
   2.729984e+06   2.740606e+06
   5.878633e+05   2.770836e+06
  -1.302657e+06   1.411727e+06
  -1.575191e+06   1.123475e+05
  -4.680436e+05  -4.941736e+04
   3.435304e+05   7.054051e+05
  -3.056973e+05   1.167228e+06
  -1.620523e+06   5.245480e+05
  -1.831236e+06  -6.806517e+05
  -4.472385e+05  -1.210142e+06
   1.065141e+06  -5.896392e+05
   9.822127e+05   4.179729e+05
  -7.067970e+05   7.264327e+05
  -2.271020e+06  -2.572391e+04
  -2.012496e+06  -1.295633e+06
   6.492851e+04  -2.118064e+06
   2.243320e+06  -1.751874e+06
   2.678356e+06  -3.022127e+05
   1.129842e+06   1.122275e+06
  -8.142650e+05   1.279916e+06
  -1.315626e+06   1.375193e+05
  -9.691869e+04  -9.350001e+05
   1.407513e+06  -6.566549e+05
   1.641409e+06   6.722735e+05
   4.599294e+05   1.554280e+06
  -9.199892e+05   1.074989e+06
  -1.240657e+06  -1.188514e+05
  -3.675453e+05  -6.842460e+05
   6.666428e+05  -7.869935e+04
   6.529060e+05   9.770912e+05
  -5.954948e+05   1.317682e+06
  -1.921968e+06   4.446303e+05
  -1.893913e+06  -1.038907e+06
  -3.479217e+05  -1.946319e+06
   1.320158e+06  -1.548539e+06
   1.617434e+06  -2.488318e+05
   5.350877e+05   7.963934e+05
  -5.968207e+05   8.010589e+05
  -6.889209e+05   5.969698e+04
   4.394274e+04  -4.973785e+05
   5.949954e+05  -3.537281e+05
   3.665338e+05   1.091231e+05
  -3.002906e+05   1.437748e+05
  -5.676849e+05  -4.669102e+05
   7.601531e+04  -1.099515e+06
   1.273348e+06  -8.803542e+05
   1.977473e+06   3.813954e+05
   1.373623e+06   1.848890e+06
  -2.263268e+05   2.341621e+06
  -1.573774e+06   1.453584e+06
  -1.731981e+06  -4.313515e+04
  -9.884410e+05  -9.731408e+05
  -3.502452e+05  -8.918456e+05
  -3.127583e+05  -3.748741e+05
  -4.307728e+05  -2.384384e+05
  -5.992623e+04  -6.199978e+05
   7.880622e+05  -8.868285e+05
   1.420025e+06  -3.924589e+05
   1.122906e+06   7.289100e+05
  -1.683153e+05   1.536064e+06
  -1.669951e+06   1.117425e+06
  -2.205428e+06  -4.476831e+05
  -1.155381e+06  -1.988587e+06
   8.505170e+05  -2.248400e+06
   2.341411e+06  -1.065697e+06
   2.312212e+06   5.054418e+05
   1.101996e+06   1.283128e+06
  -9.973669e+04   1.071951e+06
  -4.959884e+05   6.375742e+05
  -2.947704e+05   6.970690e+05
  -2.120406e+05   1.114550e+06
  -6.120856e+05   1.127860e+06
  -1.170901e+06   2.633039e+05
  -1.238824e+06  -1.057610e+06
  -4.996367e+05  -1.826222e+06
   6.267023e+05  -1.370655e+06
   1.245366e+06  -1.536942e+04
   8.070570e+05   1.171519e+06
  -2.803828e+05   1.324392e+06
  -9.978295e+05   5.047592e+05
  -7.598027e+05  -4.838499e+05
  -6.936950e+03  -9.248157e+05
   3.543223e+05  -7.703486e+05
   1.853083e+04  -4.657700e+05
  -3.803740e+05  -3.608906e+05
  -3.365365e+04  -3.821449e+05
   1.043658e+06  -2.148625e+05
   1.891649e+06   2.980978e+05
   1.539396e+06   9.476125e+05
   5.544801e+04   1.297617e+06
  -1.409470e+06   1.047008e+06
  -1.713392e+06   3.267686e+05
  -8.345276e+05  -3.444650e+05
   1.990991e+05  -4.801040e+05
   4.546541e+05  -8.447326e+04
  -1.419027e+04   3.213699e+05
  -4.697271e+05   2.181124e+05
  -4.416405e+05  -3.346351e+05
  -1.353426e+05  -7.215694e+05
   6.366447e+03  -4.648260e+05
  -1.452507e+05   1.580128e+05
  -3.487577e+05   3.613461e+05
  -2.812176e+05  -2.142080e+05
   1.943856e+05  -9.770289e+05
   8.663382e+05  -9.946091e+05
   1.189258e+06  -9.175791e+04
   6.917416e+05   8.860740e+05
  -4.072409e+05   9.955737e+05
  -1.140314e+06   2.172082e+05
  -6.817853e+05  -5.885314e+05
   6.548747e+05  -6.362205e+05
   1.569430e+06   5.241727e+04
   1.090198e+06   8.154537e+05
  -3.796834e+05   1.030258e+06
  -1.475364e+06   5.847393e+05
  -1.275226e+06  -1.243260e+05
  -1.747170e+05  -5.206079e+05
   6.171238e+05  -3.003656e+05
   3.364190e+05   2.553267e+05
  -6.125117e+05   4.486402e+05
  -1.126997e+06  -1.621923e+05
  -5.453254e+05  -1.179832e+06
   6.894756e+05  -1.594764e+06
   1.489220e+06  -7.701686e+05
   1.197829e+06   7.837630e+05
   1.592236e+05   1.757881e+06
  -7.367015e+05   1.294654e+06
  -9.140352e+05  -1.241642e+05
  -4.656956e+05  -1.154686e+06
   1.480676e+05  -9.841860e+05
   5.239249e+05  -1.088833e+05
   5.040296e+05   3.869479e+05
   2.190567e+05   1.575435e+05
   2.492533e+04  -1.122143e+05
   1.795177e+05   2.439626e+05
   4.496104e+05   9.242087e+05
   2.470684e+05   1.065622e+06
  -6.125730e+05   3.912802e+05
  -1.438601e+06  -4.723992e+05
  -1.303199e+06  -8.303877e+05
  -1.800691e+05  -6.656083e+05
   8.944582e+05  -3.869712e+05
   9.813498e+05  -1.869902e+05
   2.992843e+05   1.803644e+04
  -1.677998e+05   2.097577e+05
   3.263768e+04   2.365247e+05
   3.297998e+05   1.387364e+05
   1.751373e+04   1.335619e+05
  -7.246078e+05   1.868822e+05
  -1.003487e+06  -5.112627e+04
  -2.982606e+05  -6.618865e+05
   9.046571e+05  -1.078764e+06
   1.607196e+06  -6.493360e+05
   1.265932e+06   4.817991e+05
   2.115479e+05   1.378101e+06
  -7.471129e+05   1.293937e+06
  -1.022644e+06   4.524775e+05
  -6.394229e+05  -2.775440e+05
  -9.185098e+04  -3.471462e+05
   1.302029e+05  -1.867417e+04
  -5.720353e+04   6.404723e+04
  -3.181531e+05  -3.408180e+05
  -2.531545e+05  -7.873260e+05
   1.999901e+05  -6.384372e+05
   6.693001e+05   1.773008e+05
   6.545915e+05   9.792933e+05
   1.719104e+04   9.904144e+05
  -7.720717e+05   1.594036e+05
  -9.639043e+05  -7.765110e+05
  -2.726636e+05  -1.055816e+06
   7.121795e+05  -5.924402e+05
   1.047364e+06   1.119109e+05
   4.661265e+05   5.566049e+05
  -2.843760e+05   5.908073e+05
  -3.198046e+05   3.360286e+05
   2.973680e+05   3.823689e+04
   6.443657e+05  -1.539310e+04
   1.157652e+05   2.887373e+05
  -8.119214e+05   6.489704e+05
  -1.179561e+06   5.441381e+05
  -6.766217e+05  -1.383046e+05
   1.146453e+05  -8.154280e+05
   4.986954e+05  -7.948574e+05
   3.552165e+05  -1.076509e+05
   1.090906e+04   4.876969e+05
  -2.500240e+05   3.844516e+05
  -3.394393e+05  -2.011594e+05
  -2.260419e+05  -5.652085e+05
   7.210695e+04  -3.642569e+05
   3.743430e+05   7.371824e+04
   4.372558e+05   2.440575e+05
   2.330147e+05   6.555944e+04
  -5.166253e+03  -1.043409e+05
  -8.077948e+04   4.083989e+04
  -6.861708e+04   3.734316e+05
  -1.599056e+05   4.710363e+05
  -3.428528e+05   1.093163e+05
  -3.648456e+05  -4.357371e+05
  -4.635389e+04  -6.351179e+05
   4.268101e+05  -2.694937e+05
   6.012877e+05   3.172284e+05
   2.066337e+05   5.799089e+05
  -4.825594e+05   3.359059e+05
  -8.207280e+05  -1.134969e+05
  -4.401314e+05  -3.759449e+05
   2.912534e+05  -3.423945e+05
   6.074959e+05  -1.603974e+05
   2.020425e+05  -5.482762e+03
  -3.914002e+05   1.594628e+04
  -4.133614e+05  -1.280524e+05
   2.156571e+05  -3.110955e+05
   8.000096e+05  -2.428933e+05
