
 $NMID
 id='ANONYMOUS ', fmtdat='(2E16.6)'
 volume=1.0
 tramp=1.0
 $END
   4.575568e+07  -1.013115e+06
   2.857386e+07   2.690935e+07
  -4.607825e+06   3.090125e+07
  -2.187661e+07   1.332540e+07
  -1.397159e+07  -4.476906e+06
   2.060621e+06  -7.751062e+06
   8.208723e+06   1.816689e+05
   3.035432e+06   7.847474e+06
  -4.541441e+06   8.354213e+06
  -7.927921e+06   2.298821e+06
  -6.012879e+06  -5.037606e+06
  -8.387864e+05  -7.310557e+06
   3.344962e+06  -2.268380e+06
   2.395458e+06   4.830989e+06
  -2.920235e+06   5.906706e+06
  -6.600638e+06  -7.037785e+05
  -4.059351e+06  -8.319233e+06
   2.743762e+06  -9.897539e+06
   8.179009e+06  -5.063713e+06
   8.834798e+06   1.593965e+06
   5.318800e+06   5.997950e+06
   5.812492e+05   6.762526e+06
  -1.972035e+06   4.714451e+06
  -8.575436e+05   2.413303e+06
   1.319507e+06   2.357748e+06
   7.922167e+04   3.938763e+06
  -4.934138e+06   3.749181e+06
  -8.408669e+06   2.839861e+05
  -5.926072e+06  -3.549274e+06
   5.612660e+04  -4.212694e+06
   3.443947e+06  -1.955834e+06
   2.063911e+06   3.740179e+05
  -1.009289e+06   1.116622e+06
  -2.499700e+06   3.267158e+05
  -1.984603e+06  -1.653460e+06
  -3.313963e+05  -3.620829e+06
   1.610849e+06  -3.131820e+06
   2.431162e+06   3.072623e+05
   1.149574e+06   2.952605e+06
  -6.097741e+05   1.219919e+06
  -9.783611e+04  -2.430510e+06
   2.154182e+06  -2.151676e+06
   2.209098e+06   2.528803e+06
  -1.588853e+06   5.114368e+06
  -5.356076e+06   1.092774e+06
  -4.265702e+06  -5.409413e+06
   1.244778e+06  -6.945343e+06
   6.038943e+06  -2.139746e+06
   6.085722e+06   3.577005e+06
   1.905520e+06   5.151051e+06
  -2.893979e+06   2.567983e+06
  -4.727528e+06  -1.035610e+06
  -2.386867e+06  -2.884255e+06
   1.853372e+06  -1.987070e+06
   3.830834e+06   5.647047e+05
   1.782059e+06   2.166706e+06
  -1.370961e+06   1.195627e+06
  -1.605773e+06  -8.168322e+05
   9.010838e+05  -9.706595e+05
   2.158548e+06   1.067951e+06
  -7.648679e+04   2.649525e+06
  -3.462580e+06   1.772712e+06
  -4.396149e+06  -7.562106e+05
  -2.114391e+06  -3.137453e+06
   1.497381e+06  -4.487597e+06
   4.394405e+06  -4.180554e+06
   5.336744e+06  -1.463095e+06
   3.833254e+06   2.738089e+06
   8.172057e+05   5.312183e+06
  -1.404160e+06   4.230494e+06
  -1.386276e+06   1.346264e+06
  -3.157367e+05   7.054916e+04
  -3.566502e+05   9.297025e+05
  -1.708674e+06   1.404146e+06
  -2.572870e+06  -6.700828e+04
  -1.723835e+06  -1.973345e+06
   1.601578e+05  -2.053701e+06
   1.604373e+06  -1.424661e+05
   1.613136e+06   2.013420e+06
  -3.298974e+04   2.702761e+06
  -2.497203e+06   1.400881e+06
  -3.863855e+06  -1.124210e+06
  -2.705599e+06  -3.214979e+06
   2.108847e+04  -3.504817e+06
   1.822262e+06  -2.256917e+06
   1.775371e+06  -1.036537e+06
   1.540387e+06  -7.341523e+05
   2.630640e+06  -5.686500e+05
   3.947437e+06   5.593557e+05
   3.222247e+06   2.430770e+06
   1.924163e+05   3.770793e+06
  -2.912654e+06   3.606105e+06
  -3.848060e+06   1.912757e+06
  -2.404828e+06  -4.692103e+05
  -1.488116e+05  -2.075646e+06
   1.079660e+06  -1.723075e+06
   5.015975e+05   6.852191e+04
  -1.017797e+06   1.191427e+06
  -1.713223e+06   3.758443e+05
  -8.028173e+05  -1.069541e+06
   5.024123e+05  -1.031105e+06
   4.744221e+05   3.437903e+05
  -8.602188e+05   7.796207e+05
  -1.735857e+06  -8.862761e+05
  -8.850518e+05  -3.019290e+06
   1.105539e+06  -3.287611e+06
   2.772059e+06  -1.372689e+06
   3.212291e+06   1.108898e+06
   2.311536e+06   2.556942e+06
   5.002671e+05   2.492476e+06
  -1.161299e+06   1.373476e+06
  -1.474349e+06   2.006936e+05
  -4.555150e+05  -3.691200e+04
   3.429873e+05   6.867833e+05
  -3.344097e+05   1.214068e+06
  -1.695539e+06   5.578786e+05
  -1.864128e+06  -7.402910e+05
  -4.027764e+05  -1.264387e+06
   1.061446e+06  -5.594604e+05
   8.692195e+05   4.064555e+05
  -7.516730e+05   5.632027e+05
  -2.082899e+06  -1.862906e+05
  -1.735165e+06  -1.237042e+06
   1.559304e+05  -1.899632e+06
   2.127317e+06  -1.612948e+06
   2.572465e+06  -3.035840e+05
   1.136409e+06   1.128387e+06
  -8.082466e+05   1.359313e+06
  -1.389773e+06   1.880331e+05
  -1.754800e+05  -9.677041e+05
   1.381297e+06  -6.908486e+05
   1.603591e+06   6.785639e+05
   3.752561e+05   1.521283e+06
  -9.652718e+05   9.625339e+05
  -1.183444e+06  -2.214048e+05
  -2.772536e+05  -7.054334e+05
   7.108979e+05  -7.117525e+04
   6.835722e+05   9.562956e+05
  -5.252484e+05   1.314789e+06
  -1.852102e+06   5.105566e+05
  -1.885898e+06  -9.530587e+05
  -3.802124e+05  -1.906392e+06
   1.295243e+06  -1.537290e+06
   1.588493e+06  -2.325641e+05
   4.933261e+05   7.897918e+05
  -5.909133e+05   7.634882e+05
  -6.092886e+05   7.430999e+04
   8.811080e+04  -3.800766e+05
   4.904718e+05  -2.412857e+05
   1.838511e+05   7.649968e+04
  -3.839835e+05  -1.628650e+03
  -5.123084e+05  -5.673833e+05
   1.404474e+05  -1.094741e+06
   1.255278e+06  -8.562684e+05
   1.931233e+06   3.504079e+05
   1.377345e+06   1.777185e+06
  -1.725552e+05   2.253279e+06
  -1.486700e+06   1.359306e+06
  -1.600831e+06  -7.393223e+04
  -8.516907e+05  -8.539416e+05
  -3.111959e+05  -6.753165e+05
  -4.019751e+05  -2.400958e+05
  -5.391017e+05  -2.613045e+05
  -8.930563e+04  -6.752210e+05
   7.858257e+05  -8.545203e+05
   1.348172e+06  -3.428382e+05
   1.014458e+06   6.672424e+05
  -1.944534e+05   1.395588e+06
  -1.588295e+06   1.042314e+06
  -2.104871e+06  -4.135601e+05
  -1.099491e+06  -1.925709e+06
   8.706243e+05  -2.204052e+06
   2.317862e+06  -1.014314e+06
   2.207018e+06   5.450107e+05
   9.557849e+05   1.231224e+06
  -1.540287e+05   9.268600e+05
  -3.902398e+05   5.170986e+05
  -1.220304e+05   6.885947e+05
  -1.059881e+05   1.173017e+06
  -5.929891e+05   1.175076e+06
  -1.175072e+06   3.034864e+05
  -1.243343e+06  -9.876647e+05
  -5.338611e+05  -1.750637e+06
   5.641654e+05  -1.338912e+06
   1.195788e+06  -2.067704e+04
   7.799321e+05   1.162919e+06
  -3.165825e+05   1.297666e+06
  -1.042485e+06   4.259169e+05
  -7.602018e+05  -5.845493e+05
   6.319611e+04  -9.722070e+05
   4.433345e+05  -7.410672e+05
   5.716373e+04  -4.061159e+05
  -3.964673e+05  -3.148423e+05
  -5.446363e+04  -3.579770e+05
   1.046683e+06  -2.157631e+05
   1.894685e+06   2.715039e+05
   1.512065e+06   9.254512e+05
   1.131839e+04   1.311744e+06
  -1.425849e+06   1.069995e+06
  -1.683987e+06   3.004261e+05
  -7.917145e+05  -4.126447e+05
   2.191011e+05  -5.149142e+05
   4.653625e+05  -5.301783e+04
   2.468393e+04   3.675445e+05
  -4.179862e+05   2.376660e+05
  -4.463533e+05  -3.112400e+05
  -2.178072e+05  -6.717897e+05
  -7.106816e+04  -4.423995e+05
  -1.306661e+05   1.066727e+05
  -2.767325e+05   2.942286e+05
  -2.632396e+05  -2.095261e+05
   1.317681e+05  -9.234544e+05
   8.183532e+05  -9.950385e+05
   1.229801e+06  -1.664147e+05
   7.729457e+05   8.349165e+05
  -3.679846e+05   1.038926e+06
  -1.143113e+06   3.075470e+05
  -6.832506e+05  -5.291979e+05
   6.375044e+05  -6.155468e+05
   1.486342e+06   5.742112e+04
   9.753542e+05   7.857730e+05
  -4.165263e+05   9.453056e+05
  -1.394756e+06   4.941095e+05
  -1.169229e+06  -1.477027e+05
  -1.418992e+05  -4.823343e+05
   5.983236e+05  -2.688750e+05
   3.543564e+05   2.605447e+05
  -5.449954e+05   4.814158e+05
  -1.096063e+06  -7.423393e+04
  -6.204452e+05  -1.093486e+06
   5.446835e+05  -1.579974e+06
   1.375189e+06  -8.291323e+05
   1.176171e+06   6.944180e+05
   2.091075e+05   1.667959e+06
  -6.738055e+05   1.223807e+06
  -8.684279e+05  -1.415562e+05
  -4.285808e+05  -1.104008e+06
   1.788682e+05  -9.152430e+05
   5.188150e+05  -9.222492e+04
   4.485625e+05   3.494051e+05
   1.645209e+05   1.312030e+05
   4.038579e+04  -9.349440e+04
   2.499968e+05   2.611575e+05
   4.819666e+05   8.886599e+05
   2.042902e+05   1.006119e+06
  -6.459414e+05   3.818963e+05
  -1.381444e+06  -4.140125e+05
  -1.214544e+06  -7.640421e+05
  -1.834203e+05  -6.457541e+05
   7.979309e+05  -3.992746e+05
   9.180373e+05  -1.859735e+05
   3.300522e+05   3.759188e+04
  -1.356339e+05   2.105242e+05
  -2.133495e+04   1.985725e+05
   2.571977e+05   9.194488e+04
   4.501444e+04   1.230229e+05
  -6.223397e+05   2.233522e+05
  -9.727978e+05   2.144279e+03
  -3.998382e+05  -6.333890e+05
   7.732943e+05  -1.101583e+06
   1.563507e+06  -7.246306e+05
   1.308538e+06   3.823998e+05
   2.738935e+05   1.305519e+06
  -6.903478e+05   1.290210e+06
  -9.672995e+05   5.119847e+05
  -6.137555e+05  -2.106418e+05
  -1.269838e+05  -3.305790e+05
   6.957777e+04  -5.689164e+04
  -7.440216e+04   2.237281e+04
  -2.892881e+05  -3.366510e+05
  -2.453542e+05  -7.495512e+05
   1.569868e+05  -6.334688e+05
   6.359986e+05   1.058629e+05
   6.990359e+05   8.760534e+05
   1.194624e+05   9.555202e+05
  -6.978082e+05   2.376679e+05
  -9.723987e+05  -6.565826e+05
  -3.401841e+05  -1.006754e+06
   6.514606e+05  -6.394313e+05
   1.039854e+06   5.058796e+04
   5.042001e+05   5.569952e+05
  -2.534888e+05   6.325327e+05
  -3.430649e+05   3.496860e+05
   2.332907e+05   7.403603e+03
   6.046117e+05  -4.670724e+04
   1.409492e+05   2.829542e+05
  -7.572623e+05   6.464144e+05
  -1.161792e+06   5.281525e+05
  -7.108840e+05  -1.478997e+05
   7.431841e+04  -8.095461e+05
   4.959553e+05  -8.068484e+05
   3.892484e+05  -1.578359e+05
   5.626514e+04   4.452666e+05
  -2.144752e+05   4.077990e+05
  -3.289207e+05  -1.329913e+05
  -2.464774e+05  -5.327367e+05
   4.045619e+04  -3.963681e+05
   3.639873e+05   3.528932e+04
   4.482463e+05   2.507645e+05
   2.284722e+05   8.419469e+04
  -3.500100e+04  -1.367919e+05
  -8.045795e+04  -3.574408e+04
   1.400701e+04   3.276954e+05
  -3.793475e+04   5.078758e+05
  -2.908875e+05   2.052756e+05
  -4.295545e+05  -3.441734e+05
  -1.551331e+05  -5.973265e+05
   3.740151e+05  -2.989808e+05
   6.218342e+05   2.473378e+05
   2.458847e+05   5.287180e+05
  -4.649901e+05   3.501987e+05
  -8.217621e+05  -5.305088e+04
  -4.528371e+05  -3.420439e+05
   2.646226e+05  -3.775474e+05
   5.888459e+05  -2.241813e+05
   2.319545e+05  -2.306292e+04
  -3.203835e+05   6.789428e+04
  -3.790794e+05  -5.287531e+04
   1.525317e+05  -2.732302e+05
   6.874500e+05  -2.646123e+05
