
 $NMID
 id='ANONYMOUS ', fmtdat='(2E16.6)'
 volume=1.0
 tramp=1.0
 $END
   2.732661e+03  -8.704112e+01
   1.958854e+03   1.698944e+03
  -1.032551e+02   2.032438e+03
  -1.228912e+03   1.126180e+03
  -7.555798e+02   2.360864e+01
  -3.045636e+01  -2.918357e+02
   4.062026e+02   1.299014e+02
   7.318776e+01   4.730060e+02
  -4.258581e+02   4.947438e+02
  -6.330178e+02   5.930865e+00
  -2.547375e+02  -4.970686e+02
   1.783702e+01  -6.032596e+02
   3.446815e+02  -2.122442e+02
   3.173563e+02   4.096991e+02
  -1.521811e+02   5.200122e+02
  -4.367003e+02   1.709521e+01
  -2.623315e+02  -3.253647e+02
  -8.435284e+00  -4.630560e+02
   2.681652e+02  -2.779319e+02
   3.896499e+02   5.499772e+01
   1.406662e+02   4.746130e+02
  -5.864906e+01   2.090365e+02
  -6.519943e+01   1.470631e+02
   3.854655e+01   7.372422e+01
   1.681637e+02   1.395069e+02
  -3.562809e+00   3.269560e+02
  -4.723112e+02   2.577412e+02
  -5.211720e+02  -1.941778e+02
  -2.280123e+02  -3.068155e+02
   2.268556e+02  -3.195464e+02
   3.799629e+02   5.692207e+01
   1.664454e+02   3.530124e+02
  -2.184153e+02   3.772724e+02
  -5.284864e+02   1.612083e+02
  -3.606718e+02  -1.638857e+02
  -6.973934e+01  -3.381986e+02
   6.998195e+01  -1.319398e+02
  -7.531857e+00   9.009967e+01
  -1.832208e+02   1.475017e+02
  -2.233277e+02  -1.562395e+02
   1.327501e+01  -4.694588e+02
   2.769516e+02  -4.525283e+02
   3.680070e+02  -1.274587e+01
   1.431647e+02   2.344760e+02
  -1.657549e+02   1.612736e+02
  -1.850615e+02  -2.411060e+02
   1.365847e+02  -3.339412e+02
   4.647688e+02  -2.485107e+01
   4.376269e+02   3.866206e+02
   9.634158e+01   4.438636e+02
  -2.836985e+02   2.740435e+02
  -4.580386e+02  -3.318672e+01
  -3.097349e+02  -2.024785e+02
   4.979459e+01  -2.112495e+02
   2.279984e+02  -4.140961e+01
   1.834391e+02   2.770780e+01
  -8.976484e+00   5.676639e+01
  -3.373431e+01  -9.278979e+01
   8.685087e+01  -1.068685e+02
   2.195242e+02   3.232843e+01
   5.748497e+01   2.444008e+02
  -1.863261e+02   2.043335e+02
  -3.158555e+02   7.665508e+01
  -2.010251e+02  -1.273079e+02
   1.011682e+01  -2.115490e+02
   2.584180e+02  -2.769314e+02
   2.951232e+02  -1.077349e+02
   1.981204e+02   1.261595e+02
  -3.133298e+01   2.684699e+02
  -1.206920e+01   2.472430e+02
  -4.576922e+01   1.510840e+02
  -5.750473e+00   1.013324e+02
  -8.094031e+01   1.606207e+02
  -1.788605e+02   7.171548e+01
  -2.736710e+02  -9.420953e+01
  -1.245350e+02  -2.623257e+02
   8.171522e+01  -1.472657e+02
   1.797377e+02   2.459903e+01
   1.122568e+02   1.921956e+02
  -4.743234e+01   2.134959e+02
  -2.549108e+02   1.180155e+02
  -2.837984e+02  -1.426124e+02
  -2.003641e+02  -2.940323e+02
   9.550143e+01  -2.379512e+02
   1.767979e+02  -1.624917e+02
   1.360692e+02  -7.918788e+01
   1.285774e+02  -5.579981e+01
   2.427315e+02  -4.641082e+01
   3.821357e+02   1.252976e+02
   3.101972e+02   2.401364e+02
  -1.680849e+01   4.050400e+02
  -2.956184e+02   3.366578e+02
  -4.373866e+02   1.191208e+02
  -2.681067e+02  -9.275358e+01
  -3.596312e+01  -2.108751e+02
   9.778091e+01  -9.573583e+01
   5.998472e+01   2.444427e+01
  -8.826662e+01   4.197963e+01
  -1.352277e+02   1.450655e+01
   2.616135e+00  -1.666544e+02
   1.109880e+02  -9.570465e+01
   1.501576e+02   6.918115e+01
  -3.079108e+01   1.212313e+02
  -1.452436e+02  -1.268533e+01
  -1.588362e+02  -2.352545e+02
   1.075283e+01  -2.565391e+02
   2.383925e+02  -1.731365e+02
   3.142035e+02   3.209284e+01
   2.378202e+02   2.334375e+02
   2.486157e+01   2.116952e+02
  -1.226192e+02   1.351979e+02
  -9.075471e+01   4.714426e+00
  -3.281243e+01   4.555655e+00
   1.105361e+02   1.035587e+02
  -1.480202e+01   1.575224e+02
  -1.117481e+02   1.309471e+02
  -1.208770e+02   1.480347e+01
  -5.449616e+01  -4.396169e+01
   4.490828e+01  -2.881172e+01
   4.287200e+01   5.809849e+01
  -1.192210e+02   1.088410e+02
  -2.437670e+02   7.463817e+01
  -2.647923e+02  -1.666399e+02
  -4.213343e+01  -2.695812e+02
   1.750381e+02  -1.938807e+02
   2.223057e+02  -6.191132e+01
   9.100074e+01   6.391322e+01
  -1.890123e+01   9.496121e+01
  -5.500913e+01  -7.323414e+00
   5.299214e+01  -3.293439e+01
   1.242723e+02   9.443810e+00
   1.436596e+02   1.446255e+02
   5.053429e+00   1.414964e+02
  -1.253768e+02   1.384269e+02
  -1.221706e+02  -1.954296e+01
  -2.134006e+01  -3.622966e+01
   5.190067e+01  -7.102379e+00
   1.723810e+01   1.306510e+02
  -1.048705e+02   1.572836e+02
  -2.192174e+02  -1.341569e+01
  -1.834344e+02  -1.159967e+02
  -1.627304e+01  -2.101542e+02
   1.208020e+02  -1.364829e+02
   1.248408e+02  -1.075121e+01
   3.428723e+01   1.229421e+02
  -4.368676e+01   5.457933e+01
  -2.030045e+00   1.594494e+01
   3.657015e+01  -2.772301e+00
   4.754401e+01   2.038491e+01
  -3.264393e+01   3.482837e+01
  -1.131570e+02   4.832761e+01
  -1.193672e+02  -4.955764e+01
   7.932279e+00  -2.054063e+02
   9.076581e+01  -1.154063e+02
   2.589068e+02  -8.063589e-01
   1.840871e+02   1.372529e+02
   9.304907e+01   2.473526e+02
  -9.372029e+01   1.613961e+02
  -8.702766e+01   6.828351e+01
  -1.157512e+02  -3.921113e+01
  -4.332012e+01  -2.490147e+01
  -1.929820e+01   7.288407e+00
  -4.898636e+01  -3.564030e+01
  -5.567291e+01  -6.355600e+01
   4.232287e+01  -1.385347e+02
   8.431014e+01  -7.626906e+01
   9.880886e+01   1.486468e+01
  -2.476091e-01   9.653026e+01
  -1.288587e+02   1.196328e+02
  -1.623410e+02  -5.421563e+01
  -1.231531e+02  -1.540582e+02
   1.003430e+02  -1.786242e+02
   1.768535e+02  -1.192549e+02
   1.723142e+02   2.239428e+01
   7.053351e+01   1.475932e+02
  -2.038896e+00   1.345120e+02
  -4.643582e+01   1.433942e+02
  -3.861422e+01   9.999596e+01
  -1.036917e+02   1.123994e+02
  -9.176975e+01   6.557129e+01
  -1.299633e+02  -3.432317e+01
  -1.199172e+02  -1.237714e+02
  -1.665386e+01  -1.912187e+02
   9.233302e+01  -1.232028e+02
   1.193198e+02  -5.956698e+00
   1.145266e+02   1.330540e+02
  -4.420000e+00   1.436639e+02
  -5.751036e+01   4.534338e+01
  -9.771803e+01   4.988722e+00
  -1.008687e+01  -3.660727e+01
  -3.699999e+01  -4.467782e+01
  -2.901565e+01  -5.225827e+01
  -8.257401e+01  -2.569920e+01
  -1.235030e+01  -4.130391e+01
   7.654555e+01  -3.410392e+01
   1.298163e+02   3.466647e+01
   1.473333e+02   6.207959e+01
   2.225193e+01   1.031266e+02
  -1.412852e+02   3.478690e+01
  -1.253929e+02  -2.020186e+01
  -1.561846e+01  -2.776092e+01
   3.244742e+01  -4.157902e+01
   6.616248e+01   2.768717e+01
   7.086627e+00   9.487374e+01
  -5.979199e+01   8.555805e+01
  -5.743369e+01  -3.467273e+01
  -7.058098e+01  -3.064534e+01
   9.198846e-01  -4.405557e+01
  -7.618937e+01   3.627479e+01
  -7.165810e+01   2.481157e+01
  -4.133934e+01  -9.470430e+01
   1.702531e+01  -1.202677e+02
   1.204351e+02  -1.264332e+02
   1.510737e+02  -1.424797e+01
   8.248435e+01   6.852127e+01
  -1.951993e+01   1.404615e+02
  -6.087464e+01   3.169134e+01
  -6.051442e+01   7.066231e+00
   6.340257e+01  -3.747653e+01
   1.220472e+02  -4.499216e+01
   2.614565e+01   8.891744e+01
  -3.119210e+01   4.939965e+01
  -1.522941e+02   3.013694e+01
  -1.313412e+02  -4.732337e+01
  -3.779294e+01  -7.718519e+01
   2.700617e+01  -6.092542e+01
  -8.882687e+00   1.460590e+01
  -2.875936e+01   3.472544e-01
  -9.392358e+01   4.059287e+00
  -5.716502e+01  -1.511460e+02
   5.894540e+01  -9.872668e+01
   5.045276e+01  -1.420111e+01
   8.667119e+01   8.610382e+01
   7.443636e+00   1.612630e+02
  -7.293377e+01   1.344992e+02
  -1.203131e+02  -3.692729e+01
   1.703904e+01  -7.525126e+01
   5.660512e+01  -8.145761e+01
   3.749687e+01  -1.966010e+01
   1.955273e+01   5.334464e+01
  -1.907691e+01   3.398273e+01
   9.007335e+00  -2.131651e+01
   2.931749e+01   2.067936e+01
   4.165746e+01   1.081487e+02
   8.218388e+01   1.021416e+02
  -1.556125e+01   8.165120e+01
  -1.155110e+02  -3.909949e+01
  -1.252310e+02  -9.306059e+01
  -3.265735e+01  -6.829525e+01
   1.006480e+02  -1.805440e+01
   9.245212e+01   1.796362e+00
  -6.210849e+00   1.735375e+01
  -2.602587e+01   3.741652e+00
   4.065531e+01   1.865157e+01
   2.270014e+01  -1.692264e+01
   3.990946e+01  -2.764378e+01
  -6.493261e+01   1.082799e+00
  -6.293306e+01  -1.265001e+01
  -5.272538e+01  -6.276547e+01
   1.034619e+02  -1.428467e+02
   1.825434e+02  -1.098895e+02
   1.243106e+02   6.958024e+01
   2.914370e+01   1.637260e+02
  -8.711186e+01   8.983080e+01
  -9.508994e+01   7.918388e+01
  -7.855472e+01  -5.193658e+01
  -7.462243e+00  -7.088295e+01
  -9.179762e+00  -2.356270e+01
  -2.605927e+01  -1.722243e+01
   7.583859e+00  -2.470939e+01
  -2.849000e+01  -6.591034e+01
   4.696064e+01  -7.311976e+01
   3.207767e+01   1.606287e+01
   1.098345e+02   1.075444e+02
   1.300958e+01   8.597914e+01
  -5.001582e+01   2.809830e+01
  -8.074680e+01  -9.267430e+01
  -1.151318e+01  -8.693290e+01
   3.013848e+01  -6.462283e+01
   4.618715e+01  -9.453864e-01
   5.321890e+01   3.309288e+00
  -5.039545e+00   4.578531e+01
  -5.142689e+01   1.902592e+01
   2.999548e+01  -5.043115e+01
   5.056676e+01  -5.253064e+01
   1.956296e+01   2.505892e+01
  -1.390233e+01   5.467466e+01
  -7.579722e+01   8.732130e+01
  -1.116554e+02   1.707653e+01
  -6.605920e+01  -6.511129e+00
   2.621637e+01  -6.121858e+01
   5.356430e+01  -5.356336e+01
   1.748635e+01  -5.613214e+00
   1.902136e+01   7.607592e+00
  -3.807105e+01  -2.513159e+01
  -4.919387e+01  -6.022036e+00
   3.030889e+01  -3.708238e+01
   7.551703e+01   4.027364e+01
  -2.399842e+01   2.101478e+01
   2.583054e+01   2.503447e+00
  -8.744438e+00  -1.380577e+00
   1.067249e+01  -5.941953e+00
   6.380818e+00   3.537152e+01
   1.121213e+01   4.215047e+01
   4.384696e+00   9.642457e+00
  -6.110081e+01  -6.436373e+00
  -6.898801e+01  -2.868517e+01
   6.582215e+01  -1.702089e+01
   5.355751e+01  -1.806196e+01
   1.902761e+01   7.509598e+01
  -4.861507e+01   2.196011e+01
  -9.159376e+01   3.737559e+01
  -6.314631e+01  -1.630721e+01
  -2.816258e+01  -8.554109e+01
   3.527233e+01  -5.618712e+00
   4.648394e+01  -3.709284e+01
   5.091597e+00  -3.926196e+01
  -2.408301e+01   1.101063e+01
   1.948592e+01  -5.807466e+01
   8.128599e+01   2.339055e-01
