
 $NMID
 id='ANONYMOUS ', fmtdat='(2E16.6)'
 volume=1.0
 tramp=1.0
 $END
   2.627353e+03  -3.351093e+01
   1.979940e+03   1.300138e+03
   2.026676e+02   1.802620e+03
  -1.004195e+03   1.149539e+03
  -8.413834e+02   4.663584e+02
  -2.227692e+02  -6.388555e+01
   1.910699e+02   8.717654e+01
   5.884369e+01   4.174875e+02
  -3.880494e+02   5.055384e+02
  -6.136119e+02   2.122275e+01
  -4.882079e+02  -4.395607e+02
  -2.688912e+02  -5.899459e+02
   2.694953e+02  -3.070769e+02
   2.028230e+02   2.202078e+02
   4.933719e+01   5.192873e+02
  -3.648779e+02   1.823749e+00
  -2.684382e+02  -3.880058e+02
   1.308317e+02  -5.486997e+02
   3.647605e+02  -1.451184e+02
   4.965316e+02  -8.725914e+01
   1.296772e+02   3.045943e+02
  -1.722532e+02   2.051609e+02
  -1.500943e+01   9.898007e+01
   3.259976e+01   1.580488e+02
   2.901152e+02   2.267150e+02
   4.228015e+01   3.339556e+02
  -3.933958e+02   1.680241e+02
  -5.348781e+02  -2.606544e+02
  -7.982513e+01  -2.632714e+02
   3.912885e+02  -6.685535e+01
   5.420995e+02   2.786147e+02
   8.620849e+01   3.906097e+02
  -3.642077e+02   2.976134e+02
  -3.867810e+02   2.019657e+01
  -3.650387e+02  -1.272562e+02
  -1.767278e+02  -3.093264e+02
  -8.137850e+01  -1.253495e+02
  -7.510642e+00   5.888624e+01
  -1.177877e+02   7.747971e+01
  -2.706897e+01  -1.519658e+02
  -1.413822e+01  -4.402551e+02
   2.025368e+02  -4.040816e+02
   2.345506e+02   2.786111e+01
   1.450340e+02   2.662517e+02
  -6.114994e+01   1.099244e+02
  -1.279949e+02  -2.513251e+02
   1.007793e+02  -2.975448e+02
   4.080827e+02  -6.185732e+01
   4.518108e+02   3.541241e+02
   1.660389e+02   3.885619e+02
  -2.466077e+02   2.368158e+02
  -4.873868e+02   3.648909e+01
  -3.567487e+02  -1.527643e+02
   4.583534e+00  -1.882412e+02
   2.453783e+02  -1.022111e+02
   1.736979e+02  -3.342019e+01
   8.980516e+01   2.994344e+01
  -4.243981e+00   3.000171e+01
   8.435033e+01  -5.166809e+01
   1.414014e+02  -1.094215e+01
   8.332603e+01   1.615865e+02
  -1.026790e+02   2.348114e+02
  -2.992006e+02   1.591687e+02
  -1.922743e+02  -1.120629e+02
  -4.063983e-02  -2.934280e+02
   2.649019e+02  -2.750322e+02
   3.188269e+02  -5.464621e+01
   1.715219e+02   1.542246e+02
   4.714795e+01   3.063357e+02
  -5.298738e+01   2.438142e+02
   1.811222e+00   1.710457e+02
   1.203818e+01   1.269087e+02
  -1.563611e+02   1.442449e+02
  -2.332481e+02   1.673782e+01
  -2.506340e+02  -1.295992e+02
  -5.179866e+01  -1.757543e+02
   5.787289e+01  -1.572434e+02
   1.684787e+02   7.368300e+01
   8.383262e+01   2.250068e+02
  -8.191993e+01   2.345722e+02
  -2.759764e+02   7.391639e+01
  -2.706043e+02  -1.696963e+02
  -1.287948e+02  -2.794778e+02
   2.683356e+01  -2.762064e+02
   9.551853e+01  -1.991105e+02
   1.879665e+02  -8.333261e+01
   1.198315e+02  -7.290985e+00
   2.281917e+02  -1.685569e+01
   4.163473e+02   1.084548e+02
   2.719509e+02   2.887287e+02
  -4.156856e+01   3.972352e+02
  -3.195595e+02   3.964602e+02
  -4.368004e+02   1.551543e+02
  -2.368727e+02  -1.099321e+02
  -1.891122e+01  -2.378352e+02
   1.027736e+02  -2.167267e+02
  -4.851803e+01  -5.734483e+01
  -1.339354e+02  -4.856465e+01
  -5.906728e+01  -1.005706e+02
   5.351787e+01  -1.246951e+02
   6.885826e+01  -7.645143e+01
   6.119555e+01   4.552272e+01
  -8.639989e+01   1.274571e+02
  -1.032592e+02  -3.291964e+01
  -1.324890e+02  -2.321034e+02
   4.062279e+00  -3.831747e+02
   2.117365e+02  -2.090744e+02
   3.522216e+02   4.604965e+01
   2.708431e+02   2.838195e+02
   7.747760e+01   2.219903e+02
  -1.156041e+02   1.165894e+02
  -1.177656e+02   1.607504e+01
  -8.638478e+01   1.988084e+01
   6.083843e+01   1.133931e+02
  -3.852679e+01   1.304689e+02
  -1.534913e+02   5.305597e+01
  -1.461799e+02  -4.509441e+01
  -2.157682e+01  -5.554790e+01
   9.496342e+01   4.993622e+01
   2.945744e+01   9.423960e+01
  -1.452169e+02   5.199353e+01
  -3.176183e+02  -2.734508e+01
  -2.757951e+02  -1.923603e+02
   9.494126e+00  -2.422261e+02
   2.201957e+02  -1.746246e+02
   2.653811e+02  -2.613682e+01
   8.026572e+01  -2.013177e+01
   9.144470e+00   3.680875e+01
  -4.804592e+01   1.279387e+01
   4.999025e+01  -5.253365e+01
   1.510226e+02  -3.332699e+01
   1.498965e+02   8.356164e+01
   5.476331e+01   1.481410e+02
  -5.850167e+01   6.429493e+01
  -6.749814e+01   2.404483e+01
   2.911078e+00  -1.940167e+01
   3.353015e+01   4.344387e+01
   1.498520e+00   1.510780e+02
  -7.985983e+01   1.022761e+02
  -2.504775e+02   2.225706e+01
  -1.224201e+02  -1.670503e+02
   8.592008e+01  -2.059044e+02
   1.696648e+02  -1.550827e+02
   1.785949e+02  -2.691517e+00
  -8.434734e+00   1.190307e+02
  -4.849646e+01   3.824818e+01
  -6.780845e+01   5.082874e+01
  -1.037489e+01   4.677900e+01
   3.676551e+01   2.891061e+01
  -1.290800e+01   2.751320e+01
  -1.239545e+02  -2.557467e+00
  -1.080989e+02  -6.040265e+01
   5.054235e-01  -1.720443e+02
   1.298761e+02  -1.096056e+02
   1.883723e+02   3.680892e+01
   2.055994e+02   1.803473e+02
   5.743213e+01   2.865745e+02
  -9.392105e+01   1.559410e+02
  -1.416393e+02   1.650114e+01
  -7.287954e+01  -3.479005e+01
  -5.900229e+01   3.386060e+01
  -1.068175e+02   6.177397e+01
  -7.571991e+01  -1.028369e+01
  -6.301594e+00  -1.179625e+02
   1.454898e+01  -1.419335e+02
   1.531278e+02  -8.508682e+01
   1.268820e+02   9.943005e+01
  -6.036829e+01   1.643173e+02
  -2.121304e+02   6.434662e+01
  -1.719508e+02  -1.054111e+02
  -2.964833e+01  -2.234436e+02
   1.363445e+02  -1.941181e+02
   2.698104e+02  -8.295547e+01
   2.075477e+02   7.318482e+01
   1.273006e+02   2.011020e+02
  -7.135734e+00   1.339806e+02
  -1.046707e+02   7.320574e+01
  -9.253566e+01   4.000671e+01
  -6.041742e+01   8.261347e+01
  -5.361163e+01   4.289901e+01
  -1.127070e+02  -4.548014e+01
  -1.460203e+02  -1.170948e+02
  -3.191663e+01  -1.863519e+02
   1.420813e+02  -1.553241e+02
   1.860582e+02   3.937414e+01
   1.193285e+02   1.109509e+02
   8.723568e+00   1.260267e+02
  -8.211402e+01   5.510905e+01
  -4.325894e+01   2.097433e+01
  -1.456666e+01  -2.124656e+01
  -2.777617e+00  -9.558281e+01
  -4.764192e+00   3.829558e+01
  -1.104926e+02  -9.399899e+01
   1.679148e+01  -8.855264e+01
   6.602281e+01  -5.803661e+01
   9.461249e+01  -2.821671e+01
   9.492354e+01   3.839855e+01
  -1.890899e+01   9.048706e+01
  -1.122337e+02   4.476778e+01
  -7.514023e+01   9.107254e+00
  -3.731978e+01  -5.753720e+01
   9.067292e+01  -3.355897e+01
   6.587077e+01  -3.563555e+01
   1.481715e+01   5.636101e+01
  -3.097414e+01   8.959393e+01
  -2.439972e+01   1.623362e+01
  -6.817581e+01  -7.270351e+01
  -6.162017e+01  -3.260101e+01
  -2.891517e+01  -2.162817e+01
  -6.734277e+01  -9.953208e+00
  -5.066551e+01  -1.224359e+02
   1.579910e+01  -1.668591e+02
   1.306970e+02  -1.351007e+02
   1.209954e+02   4.409581e+01
   1.166902e+02   9.373201e+01
  -1.731564e+01   9.262823e+01
  -8.886498e+01   6.489965e+01
  -7.141882e+01  -5.769560e+00
   7.826986e+01   8.814252e+00
   7.880357e+01   2.042687e+01
   1.146487e+01   1.063855e+02
  -1.016369e+02   9.951659e+01
  -1.761298e+02   1.971160e+01
  -1.114571e+02  -4.608254e+01
  -9.807843e+00  -7.678614e+01
   7.718380e+01  -8.607192e+01
   1.528650e+01   2.668063e+01
  -5.615808e+01   3.389773e+01
  -8.260757e+01  -3.508362e+01
  -9.989884e+01  -1.312558e+02
   8.046482e+01  -1.325094e+02
   1.615094e+02  -2.896770e+01
   1.336308e+02   1.050689e+02
   3.445771e+00   1.690768e+02
  -1.118739e+02   1.530611e+02
  -1.276269e+02  -2.106528e+01
  -8.259559e+01  -1.317785e+02
  -3.969808e-01  -1.096260e+02
   9.256897e+01  -5.940427e+01
   4.403348e+01   1.539289e+01
   1.202969e+00  -3.249780e+01
   8.030138e+01  -1.675945e+01
   4.193798e+01   7.098213e+01
   7.553407e+01   1.002490e+02
   1.140373e+01   1.415366e+02
  -4.446737e+01   5.461451e+01
  -1.350657e+02  -7.916686e-01
  -6.507233e+01  -6.119724e+01
   1.688946e+01  -2.705867e+01
   1.021340e+02  -4.337713e+01
   7.547785e+01  -5.666732e+01
   8.005454e+00   1.110458e+01
   2.712227e+00  -2.679383e+01
   4.243747e+01  -3.244022e+00
   3.729493e+01  -8.471604e-01
  -7.814596e+00   1.566722e+01
  -2.487739e+01   5.924984e+01
  -1.168692e+02   4.625890e+01
  -2.560347e+01  -1.043872e+02
   5.598814e+01  -8.261426e+01
   1.451973e+02  -5.259871e+01
   1.504323e+02   4.663834e+01
   8.205972e+01   1.510812e+02
  -8.899854e+01   1.212218e+02
  -1.208379e+02   1.284713e+02
  -5.657416e+01   1.485139e+01
  -5.904846e+00   1.255178e+01
  -3.122782e+01  -4.561055e+01
  -3.312600e+01  -3.148713e+00
  -2.760476e+01  -2.171941e+01
   4.412768e+01  -9.513404e+01
   4.891279e+01  -2.648379e+01
   5.273355e+01  -2.395337e+00
   1.006867e+02   7.616147e+01
   5.853086e+01   1.035641e+02
  -4.750183e+01   2.885554e+01
  -1.226183e+02  -5.578390e+01
  -6.178309e+01  -3.194586e+01
   4.422844e+01  -3.234582e+01
   1.667456e+02   1.053192e+01
   9.400501e+01   5.131618e+01
  -2.743179e+00   5.934869e+01
   4.979486e+00  -1.551946e+01
   3.193487e+01  -5.661349e+01
   7.275197e+01  -5.133774e+01
   3.905739e+01   3.525191e+01
  -2.551286e+01   9.669648e+01
  -9.885242e+01   3.082132e+01
  -8.086079e+01  -3.795922e+01
  -1.006869e+01  -1.083009e+02
   1.008616e+01  -1.224648e+02
   3.720361e+01  -6.933960e-02
  -2.739133e+01   2.269822e+01
  -2.237586e+01   7.267458e+01
   1.496339e+01   8.800361e-01
  -2.592770e+01  -3.665043e+01
   2.379689e+01  -4.017713e+01
   1.463452e+01  -3.904932e+01
   2.897507e+01   7.520144e+01
   2.314439e+01   6.180295e+01
  -1.911243e+01   5.035249e+00
   1.879324e+01  -9.113299e+00
  -1.753457e+01   4.734212e+01
  -1.663557e+01   8.319224e+01
   6.593590e+00   1.322857e+01
  -2.318017e+01  -2.513129e+01
  -2.698863e+01  -5.272258e+01
  -2.443763e+01  -1.170977e+01
   5.631947e+01   4.991295e+01
   8.632131e+00   3.326484e+01
  -4.703387e+01   6.252725e+01
  -6.377486e+01  -4.857679e-01
  -8.698650e+01  -3.632973e+01
   6.598858e+01  -2.075971e+01
   2.431637e+01  -9.260472e+00
   2.139635e+01  -1.180983e+01
  -5.059149e+00  -1.152897e+01
  -2.136158e+00   1.816244e+01
   4.990559e+01  -4.889914e+01
   6.752881e+01  -4.786509e+01
