
 $NMID
 id='ANONYMOUS ', fmtdat='(2E16.6)'
 volume=1.0
 tramp=1.0
 $END
  -3.026363e+03   3.112718e+01
  -1.918269e+03  -1.673645e+03
   1.730359e+02  -2.027790e+03
   1.307990e+03  -9.568746e+02
   8.104676e+02  -8.232741e+01
  -9.186685e+01   2.845533e+02
  -4.068948e+02  -1.889402e+02
   1.506088e+01  -4.917540e+02
   4.467363e+02  -4.217998e+02
   6.756400e+02  -7.777886e+01
   2.617853e+02   5.051905e+02
   1.987071e+00   7.331958e+02
  -2.753127e+02   1.603110e+02
  -2.746593e+02  -4.504126e+02
  -1.736651e+01  -5.289979e+02
   3.988165e+02  -1.470169e+01
   1.178752e+02   4.938674e+02
  -1.480222e+02   3.580750e+02
  -5.477806e+02   2.444695e+02
  -3.840928e+02  -1.050090e+02
  -1.380527e+02  -4.827277e+02
   1.640126e+02  -2.375303e+02
   9.774500e+01  -1.096767e+02
   1.002012e+01   4.628314e+01
  -1.925590e+02  -2.459577e+02
   5.536958e+01  -2.963731e+02
   5.188336e+02  -1.432404e+02
   4.921999e+02   1.852330e+02
   2.255858e+02   2.795681e+02
  -3.579642e+02   1.502909e+02
  -5.533223e+02  -1.355052e+02
  -1.790514e+02  -2.958240e+02
   2.353940e+02  -2.286105e+02
   3.310365e+02  -7.678020e+01
   2.501904e+02   1.609393e+02
   3.544712e+01   2.870471e+02
  -5.239439e+01   1.408956e+02
   8.775110e+01  -6.336237e+01
   1.383633e+02  -2.199818e+02
   1.470540e+02   9.696285e+01
   7.679355e+01   4.548913e+02
  -1.668941e+02   3.750228e+02
  -2.836385e+02   3.630970e+01
  -1.111782e+02  -3.340260e+02
   1.166915e+02  -1.474175e+02
   1.210963e+02   1.979782e+02
  -9.278076e+01   3.659784e+02
  -4.106439e+02   5.732632e+00
  -3.902196e+02  -3.504062e+02
  -1.032497e+02  -4.362003e+02
   2.645319e+02  -2.338390e+02
   4.248706e+02   5.761818e+00
   2.549726e+02   1.732708e+02
  -8.090009e+00   1.769598e+02
  -2.221413e+02   7.019931e+01
  -1.506546e+02  -3.682804e+01
  -4.038814e+01  -1.013601e+02
   3.996733e+01   3.331106e+01
  -8.550861e+01   1.086581e+02
  -2.060705e+02  -5.878052e+01
  -1.348557e+02  -2.042259e+02
   1.229243e+02  -2.676383e+02
   2.498912e+02  -1.498635e+02
   2.407254e+02   6.288188e+01
   2.429874e+01   2.361278e+02
  -1.782194e+02   3.182419e+02
  -2.749231e+02   1.569549e+02
  -2.037083e+02  -1.558932e+02
  -2.382869e+01  -3.746635e+02
   6.765052e+01  -2.560454e+02
   3.530711e+01  -1.281251e+02
   2.069046e+01  -2.933231e+01
   1.444665e+02  -9.690817e+01
   2.710972e+02  -5.953650e+01
   2.353818e+02   1.083444e+02
   9.645266e+01   2.355486e+02
  -7.251259e+01   1.350265e+02
  -1.950867e+02   1.473751e+01
  -1.355201e+02  -1.704291e+02
   4.098571e+01  -1.622318e+02
   1.924622e+02  -2.772125e+01
   1.917053e+02   1.152730e+02
   9.473100e+01   2.194735e+02
  -5.327790e+01   2.145881e+02
  -1.507348e+02   5.389036e+01
  -6.903148e+01   5.654844e+01
  -1.202662e+02   4.067484e+01
  -2.094354e+02   3.389393e+01
  -3.298632e+02  -9.435385e+01
  -2.470859e+02  -2.669574e+02
   3.985192e+01  -3.895836e+02
   3.414234e+02  -2.631916e+02
   3.938879e+02  -8.221354e+01
   2.170561e+02   9.035487e+01
   7.343253e+00   2.123990e+02
  -1.070049e+02   1.281584e+02
  -1.600880e+01   8.007841e+00
   8.456224e+01  -6.043834e+01
   1.564136e+02   4.158568e+00
   4.060624e+01   1.405514e+02
  -9.848244e+01   9.680657e+01
  -8.705885e+01  -2.593792e+01
   7.515717e+01  -1.274886e+02
   1.381643e+02   2.244020e+01
   1.180681e+02   2.460259e+02
  -4.134975e+01   2.828362e+02
  -1.707138e+02   1.207905e+02
  -2.839633e+02  -5.902628e+01
  -2.372794e+02  -2.324771e+02
  -5.485780e+01  -2.351465e+02
   1.433383e+02  -1.333828e+02
   1.209927e+02   4.338510e+01
   4.211840e+01   9.503756e+00
  -7.146909e+01  -6.803363e+01
  -3.333621e+01  -5.707202e+01
   9.968858e+01  -8.534643e+01
   1.521882e+02   2.149861e+01
   1.291817e+01   1.486812e+01
  -6.607673e+01   7.679409e+00
  -4.306253e+01  -8.016785e+01
   1.332733e+02  -4.733380e+01
   2.357575e+02   5.737794e+01
   2.202553e+02   1.995500e+02
  -1.897949e-01   2.138807e+02
  -1.547096e+02   1.759576e+02
  -2.407811e+02   5.172060e+01
  -8.247960e+01  -4.186043e+01
   2.100958e+01  -7.151146e+01
   5.259865e+01   1.734523e+01
  -3.743638e-01   3.918684e+01
  -2.004483e+02   2.807509e+01
  -1.466418e+02  -1.162582e+02
  -2.513534e+01  -1.943435e+02
   9.191749e+01  -8.299609e+01
   1.189691e+02   4.369630e+01
  -3.486851e+01   1.941563e+01
  -8.089200e+01  -1.851185e+01
  -2.839566e+01  -1.506717e+02
   2.910570e+01  -1.324445e+02
   1.698255e+02  -2.403682e+01
   1.253755e+02   5.993336e+01
   2.291300e+01   1.517869e+02
  -1.028462e+02   9.612424e+01
  -1.571636e+02  -1.458915e+01
   1.419247e+01  -7.200420e+01
   5.301059e+01  -9.724732e+01
   9.202402e+01  -1.772424e+01
   1.008299e+01   1.271697e+01
  -5.694128e+01  -1.001969e+01
   2.781401e+01  -1.462412e+01
   6.465511e+01   1.772864e+01
   1.496534e+02   1.383769e+02
   2.294101e+01   1.459833e+02
  -1.451319e+02   1.439604e+02
  -1.982177e+02   1.772421e+01
  -1.525862e+02  -1.746038e+02
  -5.710196e+01  -2.023516e+02
   1.130324e+02  -1.120336e+02
   5.974291e+01  -1.787190e+01
   5.936953e+01   5.145122e+01
   4.880506e+01   7.232600e+00
   2.839577e+01  -1.535618e+00
   8.122442e+01  -1.195258e+01
   4.660366e+01   8.207733e+01
  -6.004396e+01   6.602026e+01
  -1.429321e+02   3.638572e+01
  -7.731505e+01  -1.126903e+02
   3.602825e+01  -1.334609e+02
   1.608079e+02  -1.141548e+01
   1.671614e+02   5.451824e+01
   7.820273e+01   1.953829e+02
  -1.108696e+02   1.893651e+02
  -1.768840e+02   7.847118e+01
  -1.991591e+02  -2.610496e+01
  -3.727292e+01  -1.341076e+02
   1.209551e+00  -1.489777e+02
   4.718876e+01  -3.233877e+01
   6.578056e+01  -2.934126e+01
   1.372310e+01  -4.461477e+01
   8.943840e+01  -5.537880e+01
   1.163457e+02   1.216809e+01
   6.094831e+01   1.366673e+02
   8.676312e+00   1.728226e+02
  -1.442846e+02   1.469162e+02
  -1.829803e+02   1.299453e+00
  -1.023579e+02  -1.490078e+02
  -4.185348e+01  -1.094945e+02
   5.704813e+01  -5.932251e+01
   4.097310e+01   5.506541e+01
   2.687222e+01   1.235099e+01
  -1.049311e+01  -1.279571e+01
   5.063651e+01   1.736517e+00
   8.344612e+01   8.891344e+01
   5.291975e+01   4.758035e+01
  -8.523460e+01   8.006581e+01
  -1.102713e+02   3.211378e+00
  -1.336886e+02  -2.203225e+01
  -1.551520e-01  -1.308865e+01
   1.004633e+02  -6.028055e+01
   8.590197e+01  -1.084625e+01
   6.084121e+01  -1.797104e+00
  -8.679888e+01   5.783838e+01
  -1.352838e+02  -4.319771e+01
   2.629232e+01  -8.097789e+01
   5.186712e+01  -6.278199e+01
   7.578320e+01   2.124215e+01
   4.195029e+01   8.463782e+01
   1.707297e+01   7.012955e+01
   2.972936e+01  -3.412584e+01
   3.644142e+01   4.896824e+01
   1.857823e+01   6.956706e+01
  -4.021843e+01   1.090686e+02
  -1.224346e+02   7.086116e+01
  -1.188387e+02   8.533541e+00
  -5.305003e+01  -1.502182e+02
   3.038721e+01  -1.140090e+02
   1.183207e+02  -4.795892e+01
   2.617515e+01   5.408523e+01
  -4.479027e+01   4.739582e+01
  -1.579219e+02  -4.053166e+00
  -4.411601e+01  -8.071351e+01
   1.374120e+02  -5.356207e+01
   1.439591e+02  -5.856486e+01
   1.116229e+02   5.949491e+01
   4.210950e+01   1.031604e+02
  -6.789782e+01   5.928841e+01
  -5.354734e+01  -2.991285e+01
   3.556699e+01  -2.353479e+01
   1.063768e+02   2.619387e+01
   6.708194e+01   1.042997e+02
  -1.037607e+02   1.579526e+02
  -1.684710e+02   4.302631e+01
  -1.258512e+02  -8.335522e+01
   2.562499e+01  -2.114044e+02
   6.714400e+01  -1.278030e+02
   8.019267e+01   6.773752e+01
   5.956627e+01   1.409905e+02
  -5.430861e+01   6.928003e+01
  -4.966215e+01   2.850580e+00
   8.334340e+00  -3.233924e+01
  -2.561791e+01  -1.000190e+01
  -2.219001e+01   9.850120e+00
  -2.951964e+01   2.478057e+01
  -6.544456e+01  -5.219540e+01
  -2.928462e+01  -6.551425e+01
   2.859892e+01  -9.728857e+01
   1.307097e+02   2.015469e+01
   1.309615e+02   8.182879e+01
   1.970642e+00   7.993722e+01
  -5.283500e+01  -8.090714e+00
  -4.165681e+01  -8.031586e+00
   2.717722e+01  -5.425798e+01
   3.886067e+01  -2.736744e+01
  -3.413745e+00   2.766328e+00
   1.342645e+01   5.250006e+01
  -3.030880e+01   2.766290e+01
   2.636676e+01   1.849326e+01
   5.773281e+01   3.336864e+01
   3.843417e+01   6.613761e+01
  -9.759550e+01   9.925805e+01
  -1.282303e+02   1.443085e+02
  -1.311242e+02  -3.028460e+01
  -3.028249e+01  -1.484154e+02
   8.684453e+01  -1.524180e+02
   1.095740e+02  -2.449886e+01
   2.194706e+01   4.454563e+01
  -8.655841e+00   4.424683e+01
  -2.589123e+01   6.765842e+00
   1.071982e+01   2.610223e+01
   8.040587e+00  -2.887123e+00
  -4.725915e+00   6.214596e+01
  -1.335081e+01   5.247314e+01
  -3.329567e+01  -2.382471e+01
  -5.389581e+01  -3.466850e+01
  -4.373860e+01  -4.627363e+01
   9.269438e+01  -4.781524e+01
   1.077267e+02   5.621202e+01
   1.194368e+02   6.559150e+01
  -5.765375e+01   5.071541e+01
  -6.481768e+01   2.365408e+01
   1.140260e+00  -6.405545e+01
   1.988899e+01  -7.003513e+01
  -1.821032e+01  -1.982724e+01
  -4.510732e+01  -4.386987e+00
  -8.057390e+01  -3.063994e+01
  -3.912322e+01  -3.161023e+00
   4.251949e+01  -7.077774e+01
   6.895282e+01  -8.717853e+01
   4.038858e+01  -1.624266e+01
  -4.658368e+01   7.358647e+01
  -4.659746e+01   1.061224e+02
  -4.924264e+01   2.272895e+01
   2.153486e+01  -4.311616e+01
  -2.906760e+01  -2.903596e+01
   5.679756e+01   6.028696e+00
  -2.668334e+01   4.761958e+01
  -3.026147e+01   5.678827e+01
  -4.166590e+01  -8.004232e-01
  -3.292534e+01  -2.283028e+01
  -3.079312e+01  -1.162442e+01
   4.026687e+01   6.881841e+00
   1.495623e+01  -8.543439e+00
   4.435343e+01  -5.365545e+01
  -1.299202e+01  -6.201479e+01
   2.128463e+01  -8.373612e+00
  -1.765362e+01   4.928289e+01
   1.284175e+01   6.542236e+01
  -2.569603e+01   1.376355e+01
  -5.905411e+01  -1.646492e+01
   2.911713e+01  -7.262733e+01
   3.838096e+01  -3.886158e+01
   8.468255e+01   1.340372e+01
   5.383070e+01   2.259192e+01
  -1.694758e+01   3.153394e+00
  -2.447070e+01   8.819884e+00
  -1.562005e+01  -5.218603e+01
   3.100954e+01  -1.024947e+01
   8.738130e+00   4.257990e+01
  -8.450083e+00  -3.356619e-01
  -1.389962e+01   2.828977e+01
