
 $NMID
 id='ANONYMOUS ', fmtdat='(2E16.6)'
 volume=1.0
 tramp=1.0
 $END
   2.214387e+03  -2.775658e+02
   1.520189e+03   1.323028e+03
   7.537930e+01   1.550871e+03
  -8.238490e+02   8.926410e+02
  -8.237559e+02   1.905829e+02
  -1.706402e+02  -2.480055e+02
   3.220643e+02   1.470731e+01
   1.660581e+02   2.005856e+02
  -2.667225e+02   5.262087e+02
  -4.415294e+02   9.937833e+01
  -2.936537e+02  -3.290881e+02
  -1.276975e+02  -3.664653e+02
   2.415041e+02  -1.245457e+02
   1.501074e+02   2.124780e+02
  -7.370664e+01   3.180131e+02
  -2.235167e+02  -2.401050e+01
  -2.917815e+02  -3.691703e+02
   5.958073e+01  -4.242323e+02
   2.534235e+02  -1.118261e+02
   3.707197e+02   1.400525e+02
  -4.274092e+01   3.566652e+02
   3.608416e+01   2.754951e+02
  -5.674409e+01   1.169868e+02
   1.947530e+02   1.659553e+02
   1.235342e+02   1.986497e+02
  -8.018229e+01   1.735598e+02
  -3.096834e+02   6.893446e+01
  -4.602705e+02  -9.358678e+01
  -1.512011e+02  -3.592251e+02
   1.347178e+02  -1.599089e+02
   3.017257e+02   4.316542e+01
   1.182386e+02   2.692352e+02
  -2.037274e+02   2.282093e+02
  -3.221069e+02  -3.842769e+00
  -3.065921e+02  -9.106374e+01
  -5.616477e+01  -1.032767e+02
   1.044529e+01  -1.209061e+02
  -4.767352e+01   7.658577e+01
  -1.480624e+02   6.800149e+01
  -1.235299e+02  -1.117589e+02
   5.183814e+01  -3.268966e+02
   1.864613e+02  -2.613655e+02
   2.081277e+02   9.618573e+00
  -1.200044e+01   1.354289e+02
  -6.838835e+01   6.509731e+01
  -9.445498e+01  -1.359845e+02
   9.315449e+01  -2.099081e+02
   1.669229e+02  -2.910891e+01
   2.712101e+02   1.992830e+02
   1.562133e+02   2.935817e+02
  -1.555116e+02   1.851032e+02
  -3.480499e+02   5.496614e-01
  -2.580586e+02  -1.497142e+02
  -2.455989e+01  -1.781727e+02
   1.747004e+02  -8.023387e+01
   1.772486e+02  -2.035195e+01
   4.057798e+01   9.990200e+00
  -5.131809e+01  -2.445808e+01
   3.587687e+01  -1.152232e+00
   8.734972e+01   1.728494e+01
   8.662199e+01   6.037881e+01
  -1.101186e+02   1.263860e+02
  -2.000774e+02   9.304621e+01
  -1.678619e+02  -8.300710e+01
  -6.527172e+00  -2.473056e+02
   1.834014e+02  -2.399433e+02
   2.439737e+02  -1.303489e+02
   1.505354e+02   9.011946e+01
   6.873326e+01   2.025130e+02
  -6.102292e+00   1.943766e+02
  -9.817787e+00   1.074333e+02
  -5.319591e+01   5.969257e+01
  -9.928443e+01   8.082887e+01
  -1.934113e+02   4.432818e+01
  -1.616043e+02  -1.115417e+02
  -2.984115e+01  -1.439317e+02
   1.409657e+02  -1.425963e+02
   1.454216e+02   6.121997e+01
   1.009271e+02   2.035879e+02
  -5.845216e+01   1.699997e+02
  -1.859086e+02   4.027761e+01
  -2.279481e+02  -1.310524e+02
  -8.004689e+01  -2.309456e+02
   6.755350e+01  -1.893538e+02
   1.580747e+02  -1.025915e+02
   1.031647e+02  -2.104658e+01
   1.350835e+02  -1.729441e+01
   1.634995e+02  -1.970846e+00
   2.705842e+02   4.997042e+01
   1.581657e+02   1.985247e+02
  -2.879318e+01   3.089372e+02
  -2.709281e+02   2.794734e+02
  -2.986349e+02   7.997283e+01
  -1.942300e+02  -6.217619e+01
   2.809128e+01  -1.679594e+02
   3.868355e+01  -1.117356e+02
  -1.083818e+01   1.920022e+01
  -1.357816e+02   7.826270e+01
  -8.120699e+01  -4.776173e+01
  -2.936501e+01  -1.136448e+02
   9.249877e+01  -4.402927e+01
   6.767228e+01   5.884715e+01
  -1.452917e+01   1.162506e+02
  -1.473927e+02   4.080892e+00
  -1.724732e+02  -2.127411e+02
  -3.930055e+01  -2.696506e+02
   1.883871e+02  -1.768884e+02
   2.738915e+02   2.404297e+01
   2.056726e+02   1.416036e+02
   4.996454e+01   1.633621e+02
  -1.229232e+01   1.024538e+02
  -7.671084e+01   5.431656e+01
  -4.942023e+01   5.404462e+00
  -1.383713e+01   5.021361e+01
   2.669413e+01   7.110480e+01
  -4.550795e+01   5.609615e+01
  -1.446288e+01  -4.019938e+01
  -1.613566e+01  -4.146484e+00
  -9.055406e+00  -1.825989e+00
  -3.459834e+01   1.126016e+02
  -1.211722e+02   1.189253e+02
  -2.475573e+02   2.789200e+01
  -2.517013e+02  -1.323694e+02
  -6.575240e+01  -2.114101e+02
   1.675251e+02  -1.974763e+02
   2.135282e+02  -9.138237e+01
   9.289097e+01  -2.223073e+00
  -3.705308e+01   7.724478e+01
   7.755613e+00   1.614979e+01
   4.602674e+01  -3.051311e+01
   1.207905e+02  -2.093457e+00
   1.189316e+02   8.692485e+01
   4.277126e+01   1.197597e+02
  -9.281817e+01   9.170354e+01
  -1.048074e+02  -5.984003e+00
  -1.829031e+01  -2.554364e+01
   7.967157e+01  -2.097289e+01
   2.439615e+01   5.535504e+01
  -5.271607e+01   9.720765e+01
  -1.635992e+02   4.338966e+01
  -1.160767e+02  -7.694598e+01
   5.832763e+00  -1.407642e+02
   7.078181e+01  -7.414372e+01
   6.547007e+01  -1.832955e+01
   5.395435e+00   6.961891e+01
  -7.126904e+01   5.394736e+01
  -1.042091e+01   4.176660e+00
  -2.596878e+01  -3.957345e+01
   2.843720e+01   8.791658e-01
  -1.541510e+01   3.793145e+01
  -6.200584e+01  -1.695946e+01
  -9.196861e+01  -7.101235e+01
  -6.097920e+00  -1.753206e+02
   6.458284e+01  -1.039496e+02
   1.174101e+02  -2.788735e+01
   1.354411e+02   7.774858e+01
   6.664465e+01   1.086513e+02
   8.650122e-01   1.183907e+02
  -4.794482e+00   6.092897e+01
  -1.218867e+01   6.672105e+00
   1.551452e+01   2.931624e+01
  -6.882755e+01   1.046855e+02
  -1.003218e+02   6.570601e+01
  -9.028430e+01  -1.804432e+01
   2.182212e+01  -6.875627e+01
   8.813974e+01  -9.508684e+01
   1.076972e+02  -1.992381e+01
  -1.156421e+01   6.334798e+01
  -1.470216e+02   6.271200e+01
  -1.568343e+02  -5.846736e+01
  -3.912064e+01  -1.501859e+02
   1.175897e+02  -1.834076e+02
   1.788272e+02  -7.414226e+01
   1.307263e+02   5.403679e+01
   2.961835e+01   1.184553e+02
   5.032278e-02   9.405409e+01
  -4.940290e+00   9.085512e+01
  -7.647758e+00   7.679029e+01
  -3.963633e+01   1.012840e+02
  -6.116745e+01   8.394293e+01
  -1.961170e+01   9.799360e+00
  -1.035695e+02  -7.578992e+01
  -2.742324e+01  -1.173512e+02
   6.354246e+01  -7.905343e+01
   1.066067e+02  -2.920280e+01
   1.426974e+02   6.603914e+01
   5.529493e+01   8.216868e+01
   4.290390e+00   3.246415e+01
  -2.501700e+01  -8.845722e+00
   1.112835e+01  -2.055584e+01
   4.997778e-01  -5.668335e+00
  -2.158315e+01  -1.302550e+00
  -4.916021e+01   5.865289e+00
  -1.048978e+01  -4.824265e+00
   2.332827e+01   3.331658e+01
   9.353439e+01   1.088642e+01
   5.813869e+01   3.997714e+01
  -3.455166e+01   5.836017e+01
  -1.347619e+02   3.146892e+01
  -9.714796e+01  -2.966145e+00
  -3.289813e+01  -3.338020e+01
   4.842357e+01  -3.637090e+01
   7.438963e+01   4.017072e+01
  -8.120725e-01   7.192413e+01
   2.484784e+01   8.635635e+01
  -4.518691e+01   4.047082e+01
  -4.795586e+01  -2.033422e+01
  -2.003529e+01  -7.443711e+01
  -6.527443e+00   2.047143e+01
  -5.579048e+01   1.552425e+01
   1.544204e+01  -5.568286e+01
   5.217383e+01  -1.347384e+02
   1.053894e+02  -1.088290e+02
   1.253507e+02  -2.373877e+01
   5.524698e+01   3.542721e+01
  -1.577090e+01   7.324158e+01
  -4.412284e+01   5.869219e+01
  -4.209461e+01   1.705967e+01
   2.476452e+01   2.226994e+01
   1.036887e+02   5.694630e+01
  -2.688990e+01   5.853665e+01
  -4.990997e+01   7.834157e+01
  -1.141826e+02   5.023293e+01
  -1.286284e+02  -2.325168e+01
  -4.238453e+01  -3.187550e+01
   1.923083e+01  -6.501943e+01
   1.159120e+01  -3.807681e+01
  -2.833697e+01   1.805511e+00
  -6.418502e+01  -4.241267e+01
  -1.884285e+01  -1.327087e+02
   7.113074e+01  -1.467201e+02
   1.364923e+02  -9.433753e+01
   1.029113e+02   3.291586e+01
   5.911287e+01   1.452050e+02
  -8.546098e+00   9.016578e+01
  -6.762358e+01  -1.703926e+01
  -2.935968e+01  -7.391999e+01
   3.318484e+01  -6.313259e+01
   3.811710e+01   1.156967e+01
   4.352591e+01   2.420114e+01
   6.719800e+00  -1.356202e+01
   1.381159e+01  -5.692619e+01
  -1.095494e+01   1.942387e+01
   3.324229e+01   5.933405e+01
   2.477978e+01   6.932330e+01
  -7.755557e+01   6.024465e+01
  -7.697040e+01  -8.352218e+00
  -8.341106e+01  -3.414675e+01
   2.672245e+01  -1.525932e+01
   3.008895e+01   2.193844e+01
   2.453328e+01   1.554084e+01
   2.321378e+01  -3.852543e+01
  -5.031361e+01   1.480510e+01
  -1.437477e+01   2.205581e+01
  -1.006567e+00   1.197915e+01
  -2.099683e+01   3.631110e+01
  -5.362867e+01   2.095228e+00
  -5.894751e+01  -6.984203e+01
  -1.505424e+01  -7.779842e+01
   7.678676e+01  -1.246618e+02
   1.023285e+02  -7.465454e+01
   1.253906e+02   2.717256e+01
   3.301531e+00   1.088336e+02
  -7.587045e+01   1.466295e+02
  -4.020411e+01   1.019085e+01
  -5.642039e+01  -6.160428e+00
   1.590552e+01  -5.896789e+01
   3.814744e+01   3.573804e+01
  -2.614738e+01   1.896309e+00
  -8.152309e+00  -2.417641e+01
  -4.705737e+01  -7.014060e+01
   3.308236e+01  -4.238202e+01
  -1.007471e+00   3.219023e+01
   1.479411e+01   6.928947e+01
   2.327141e+01   6.594335e+01
  -9.460438e+01  -6.764153e+00
  -7.726099e+01   1.052957e+01
  -5.180549e+01  -4.609364e+01
   1.721121e+01  -6.159576e+01
   3.966143e+01  -9.570613e+00
  -2.188673e+01   5.540327e+01
  -1.179709e+01   3.152275e+01
   2.620490e+01   1.053309e+01
   2.144926e+01  -3.837143e+01
   2.935423e+01  -2.608344e+01
  -4.815389e+00   5.302788e+01
  -8.542999e+01   5.856215e+01
  -8.253964e+01   3.232349e+00
   2.060107e+01  -8.518966e-01
   4.046896e+01  -5.742675e+01
  -2.716598e+01  -4.389108e+01
   7.621206e+00   1.571843e+01
  -2.580292e-01   5.863193e+01
  -5.222219e+01  -1.210136e+01
  -4.821475e+01   2.733142e+01
  -5.900613e+01  -6.501369e+01
  -1.674184e+01  -4.859826e+01
   5.990373e+01  -2.940926e+01
   6.423175e+01   1.792750e+01
   3.463407e+01  -7.913567e+00
   7.463632e+00   1.651151e+01
   2.807789e+01   2.176895e+01
  -7.487750e+00   6.957274e+01
  -1.865529e+01   3.371762e+01
  -1.196851e+01   3.713318e+00
  -2.850384e+01  -4.316014e+01
  -4.253247e+01  -7.191626e+01
   1.842287e+01  -5.189379e+01
   4.143867e+01   5.543157e+01
   3.443324e+01   8.248714e+01
  -5.113692e+01  -2.110437e+01
  -5.515582e+01   8.011897e+00
  -3.097453e+01   1.553971e+01
   2.580454e+01  -4.386509e+01
   6.773075e+01  -2.107131e+01
  -8.394739e+00   5.946105e+01
  -3.313616e+01  -1.078733e+01
   7.231151e+00  -1.753890e+01
   2.899530e+01  -5.390544e+01
   9.524759e+01   4.200576e+00
