
 $NMID
 id='ANONYMOUS ', fmtdat='(2E16.6)'
 volume=1.0
 tramp=1.0
 $END
   3.485332e+03  -5.738457e+01
   2.051778e+03   1.687634e+03
  -2.913529e+02   2.053844e+03
  -1.307904e+03   1.085336e+03
  -8.624203e+02   5.164027e+01
  -3.721310e+01  -3.745737e+02
   5.427448e+02   1.195287e+02
  -3.167092e+01   5.390594e+02
  -4.251499e+02   5.722001e+02
  -6.453190e+02   2.141666e+01
  -4.166488e+02  -3.737047e+02
   6.145789e+01  -6.040929e+02
   3.558540e+02  -1.551314e+02
   3.057627e+02   3.866602e+02
  -6.911491e+01   5.916272e+02
  -5.324494e+02   2.328292e+01
  -3.190125e+02  -5.933849e+02
   1.710436e+02  -5.507820e+02
   2.790200e+02  -1.147354e+02
   1.893923e+02   1.903624e+02
   1.152916e+02   2.704362e+02
  -1.015240e+02   3.653798e+02
  -5.998140e+01   9.187053e+01
   9.132888e+01   9.082286e+01
   2.484757e+02   2.687520e+02
   1.090026e+02   2.682376e+02
  -3.388651e+02   2.188779e+02
  -6.861940e+02  -1.950358e+02
  -2.648086e+02  -4.303344e+02
   2.973845e+02  -2.267903e+02
   4.650546e+02   9.138153e+01
   1.936603e+02   3.353029e+02
  -2.115576e+02   3.265113e+02
  -4.151772e+02   1.366436e+02
  -2.983691e+02  -1.250263e+02
  -9.934977e+01  -2.922933e+02
   6.595130e+01  -1.965986e+02
   9.844643e+01   7.197299e+01
  -4.806016e+01   1.925609e+02
  -2.752431e+02  -1.174274e+02
  -1.216865e+02  -5.419541e+02
   2.428838e+02  -5.305037e+02
   3.803796e+02  -8.357064e+01
   2.093947e+02   3.747846e+02
  -1.453866e+02   2.121311e+02
  -2.379396e+02  -1.875089e+02
   3.696097e+01  -3.966386e+02
   3.468291e+02  -1.268807e+02
   4.174030e+02   2.605004e+02
   1.564201e+02   4.286105e+02
  -2.388844e+02   2.682187e+02
  -4.601693e+02  -1.652015e+01
  -3.064204e+02  -3.016266e+02
   6.178624e+01  -3.209798e+02
   3.057611e+02  -1.307770e+02
   2.438271e+02   5.259293e+01
   2.668653e+01   1.018755e+02
  -5.636759e+01  -1.506961e+01
   9.894187e+01  -9.031147e+01
   2.479221e+02   3.022542e+01
   1.612532e+02   2.106585e+02
  -1.367493e+02   2.521976e+02
  -3.606224e+02   9.287990e+01
  -2.762393e+02  -1.169756e+02
  -3.021963e+01  -2.986803e+02
   2.481541e+02  -3.086789e+02
   3.355480e+02  -9.603636e+01
   2.393344e+02   1.604141e+02
   7.575216e+01   3.399363e+02
  -3.380924e+01   2.279266e+02
  -9.597821e+01   1.179734e+02
  -6.373860e+01   7.356158e+01
  -1.657074e+02   1.142402e+02
  -2.256237e+02   1.121586e+02
  -2.371423e+02  -1.027310e+02
  -1.080512e+02  -2.568110e+02
   1.190851e+02  -2.091271e+02
   1.682297e+02  -3.408055e+01
   1.564555e+02   2.090623e+02
  -5.148483e+01   2.101555e+02
  -3.233932e+02   5.866300e+01
  -2.715205e+02  -1.554074e+02
  -1.695616e+02  -2.826196e+02
   8.762822e+01  -2.874145e+02
   1.456208e+02  -1.376450e+02
   1.344966e+02  -6.241059e+01
   1.287044e+02  -8.564827e+01
   2.622790e+02  -8.557446e+01
   3.412168e+02   8.003983e+01
   3.198209e+02   2.899520e+02
   1.999244e+00   3.471116e+02
  -3.286478e+02   3.738286e+02
  -4.227341e+02   1.382029e+02
  -3.245176e+02  -7.954748e+01
  -6.259603e+01  -2.457229e+02
   2.733708e+01  -1.964618e+02
   5.875947e+01  -3.927135e+01
  -5.496225e+01  -6.468573e+00
  -1.892420e+02  -3.513656e+01
   1.537823e+01  -2.013563e+02
   1.649147e+02  -1.270478e+02
   1.190940e+02  -9.578182e-01
  -3.023999e+01   1.592788e+02
  -1.298703e+02   1.143950e+01
  -1.616844e+02  -2.066148e+02
   2.331407e+01  -3.472445e+02
   1.845488e+02  -2.405005e+02
   3.712851e+02   4.119293e+01
   2.554315e+02   2.275980e+02
   7.637879e+01   2.667129e+02
  -8.717026e+01   1.400713e+02
  -1.795392e+02  -3.201510e+01
  -2.369054e+01  -6.511257e+01
   9.104296e+01   8.198182e+01
   3.506069e+00   1.138807e+02
  -1.190180e+02   1.058355e+02
  -1.504682e+02  -3.175609e+01
  -4.488599e+01  -6.515084e+01
   1.460082e+02  -3.449576e+01
   4.195076e+01   7.870484e+01
  -7.849185e+01   1.238048e+02
  -2.875519e+02   4.573943e+01
  -2.476880e+02  -1.511066e+02
  -8.136381e+01  -2.421452e+02
   1.361874e+02  -2.428200e+02
   2.480787e+02  -1.261999e+02
   1.234628e+02   1.409221e+01
  -3.151870e+01   5.274469e+01
  -7.404390e+01  -2.191659e+01
   5.702613e+01  -1.068455e+02
   1.941077e+02  -3.860162e+01
   2.191713e+02   6.396981e+01
   3.115760e+01   1.697917e+02
  -7.192798e+01   1.543201e+02
  -9.932070e+01   4.978428e+01
  -5.135625e+01  -1.812036e+01
   3.505341e+01   3.513991e+00
   1.186534e+01   8.559777e+01
  -2.365895e+01   1.154908e+02
  -1.520699e+02   1.328360e+01
  -1.714742e+02  -1.801265e+02
  -1.975303e+00  -1.747914e+02
   1.112196e+02  -1.367936e+02
   2.003178e+02   3.651651e+01
   9.257994e+01   1.684389e+02
  -6.459875e+01   8.295566e+01
  -7.287077e+01   6.453817e+01
  -2.788598e+01  -6.204168e+01
   3.890751e+01  -1.340837e+01
   7.768519e+00  -1.811749e+01
  -9.869922e+01  -3.383557e+01
  -1.491446e+02  -5.334886e+01
  -9.828736e+00  -1.244723e+02
   1.289121e+02  -2.011328e+02
   2.755032e+02  -2.343113e+01
   1.869265e+02   1.549807e+02
   8.213823e+01   1.845968e+02
  -1.202532e+02   1.472821e+02
  -7.616649e+01   2.820212e+01
  -3.461631e+01  -1.037176e+01
  -3.871961e+01   2.276274e+01
  -5.016408e+01   3.442205e+01
  -1.070954e+02   2.952530e+00
  -8.288130e+01  -8.700042e+01
   4.341955e+01  -1.156648e+02
   1.261204e+02  -5.132210e+01
   8.154963e+01   7.174150e+01
  -4.033811e+01   1.110881e+02
  -1.567356e+02   9.257310e+01
  -1.501618e+02  -2.513356e+01
  -1.077315e+02  -2.081038e+02
   1.208500e+02  -2.238018e+02
   2.524696e+02  -3.434031e+01
   2.401585e+02   1.191709e+02
   8.686338e+01   1.623983e+02
  -3.985038e+01   9.135940e+01
  -8.241100e+01   3.558817e+01
  -2.616801e+01   4.562400e+01
  -4.425979e+01   6.769919e+01
  -7.400110e+01   6.883985e+01
  -9.363948e+01  -6.431994e+00
  -1.123562e+02  -1.119797e+02
  -4.743601e+01  -1.374277e+02
   1.337568e+02  -1.342396e+02
   1.858187e+02  -4.570897e+00
   1.379073e+02   1.510918e+02
  -3.925167e+01   1.323869e+02
  -5.331727e+01   8.353376e+01
  -7.012869e+01  -3.450507e+01
  -6.493161e+01  -7.833731e+01
   1.895546e+01  -1.904993e+01
  -1.293084e+01   1.886394e+01
  -6.536570e+01   1.069923e+01
  -7.172567e+01   8.254565e+00
   4.379927e+01  -2.371711e+01
   1.485910e+02  -2.314362e+01
   1.139006e+02   7.875296e+01
  -1.996621e+00   7.521752e+01
  -1.376783e+02   2.202818e+01
  -1.141828e+02   1.350495e+01
  -1.477680e+01  -4.747206e+01
   5.783527e+01  -2.985608e+00
   9.969122e+01  -4.623638e+01
  -4.565632e+01   8.953523e+01
  -7.163513e+01   6.957207e+01
  -8.882253e+01  -3.727802e+01
  -7.457274e+01  -1.007961e+01
  -3.506479e+01   2.761326e+00
  -2.371287e+01   1.070752e+01
  -5.009655e+01   2.139716e+01
  -4.954805e+01  -1.069095e+02
   1.001462e+00  -1.444814e+02
   1.059654e+02  -1.501286e+02
   1.683502e+02  -1.948540e+01
   1.155122e+02   1.061432e+02
   3.758652e+00   1.323331e+02
  -9.893084e+01   6.344841e+01
  -1.136076e+02   2.919892e+00
  -1.155738e+01  -6.280724e+01
   9.501455e+01  -8.774312e+00
   5.439452e+01   1.276140e+02
  -1.776939e+01   8.591846e+01
  -1.809412e+02   5.124951e+01
  -9.267398e+01  -8.737634e+01
  -8.872971e+01  -8.449145e+01
   1.426060e+01  -1.528743e+01
   4.044440e+01   5.027292e+01
  -3.349643e+01   4.360555e+01
  -1.104246e+02   5.350593e+01
  -4.940429e+01  -9.129953e+01
   5.427660e+01  -1.958751e+02
   1.394387e+02  -1.604802e+02
   1.109182e+02   2.215529e+01
   1.731927e+01   1.610738e+02
  -1.827738e+01   1.516905e+02
  -1.050755e+02  -2.193310e+01
  -9.745151e+01  -1.244678e+02
   1.906108e+01  -1.080521e+02
   1.010358e+02   3.282029e+00
   4.300016e+01   2.416489e+01
   2.857694e+01  -7.214619e+00
  -3.369552e+01  -1.235979e+01
  -5.119766e+00   2.568569e+01
   3.632817e+01   6.304744e+01
   5.173178e+01   1.254001e+02
  -3.973971e+01   9.070148e+01
  -1.036042e+02  -7.857407e+01
  -1.088832e+02  -6.708162e+01
  -2.966616e+01  -5.527965e+01
   7.361051e+01  -5.036404e+01
   9.913056e+01  -7.658393e+00
   2.662861e+01   2.853316e+01
   9.528601e+00   3.364158e+00
  -8.492002e+00  -1.656142e+01
   4.513134e+01   2.035419e+01
   3.428731e+01   2.879210e+01
  -2.675026e+01  -1.696658e+01
  -8.892771e+01   7.670808e+00
  -5.259562e+01  -5.034454e+01
   7.610864e+01  -1.026803e+02
   1.169791e+02  -6.191814e+01
   1.827983e+02   7.334351e+01
   2.916616e+01   1.428805e+02
  -1.084836e+02   9.872424e+01
  -1.275037e+02   5.210380e+01
  -2.481942e+01  -1.665045e+01
  -7.393030e+01  -4.370006e+01
   1.019083e+01  -3.597353e+01
   3.783595e+01  -4.004131e+00
  -4.080470e+01  -1.978282e+01
  -6.557464e+01  -4.818362e+01
  -8.994007e+00  -8.650195e+01
   6.063202e+01  -2.296277e+01
   5.717926e+01   9.622200e+01
   4.475415e+01   5.375278e+01
  -9.047760e+01   2.443162e+01
  -1.235843e+02  -4.971515e+01
  -3.425095e+01  -1.102024e+02
   5.131183e+01  -5.272420e+01
   9.733339e+01   6.377134e+00
   5.369816e+01   1.105892e+01
  -3.139426e+01   6.991681e+01
  -2.035572e-02   8.354867e+01
  -2.055856e+01   6.443906e-01
   7.611976e+01  -3.303872e+01
   1.226613e+01   7.711611e+00
  -5.376540e+01   4.252265e+01
  -1.463553e+02  -5.013857e+00
  -5.670180e+01  -4.700483e+00
  -1.212680e+01  -2.037824e+01
   8.102419e+01  -6.011321e+01
   5.531445e+01  -1.135991e+01
   4.648788e+01   3.213484e+01
  -4.237600e+01   5.172093e+01
  -4.830159e+01  -1.720438e+01
  -2.797088e+01  -1.497205e+01
  -7.286436e+00  -5.402749e+01
  -3.678037e+01  -1.635029e+01
  -2.161273e+01   4.397240e+01
   3.439595e+01   1.099755e+01
  -9.279576e+00  -3.517991e+00
   1.858282e+01  -1.080649e+01
   1.826552e+01   5.549529e+01
  -2.901949e+01   8.225928e+01
  -1.664327e+01   5.181594e+01
  -3.510107e+01  -2.817469e+01
  -1.176438e+01  -8.045933e+01
   3.551290e+01   5.386442e+00
   5.059119e+01   5.393255e+01
  -2.313662e+01   7.483427e+01
  -7.061137e+01   3.121922e+01
  -3.890427e+01  -4.606400e+01
  -5.691599e+01  -2.190294e+01
  -3.057733e+01  -2.460964e+01
  -4.782798e+01  -8.309971e+00
   6.996327e-01   4.967659e+01
  -3.975831e+01  -1.423911e+01
  -4.667558e+01  -2.798815e+01
   1.211810e+01  -1.995697e+01
   6.229390e+01  -6.569620e-01
