
 $NMID
 id='ANONYMOUS ', fmtdat='(2E16.6)'
 volume=1.0
 tramp=1.0
 $END
  -5.933356e+02   7.152113e+01
  -3.185628e+02  -2.519248e+02
   3.331885e+01  -1.442948e+02
   3.511062e+02  -5.456374e+01
   8.664537e+01   9.656166e+01
  -1.129471e+02   5.741289e+01
  -2.106083e+02  -2.825720e+01
   2.722238e+00  -1.019356e+02
   1.291815e+02   9.099668e+00
   1.111982e+02   6.055697e+01
   2.600968e+01   4.720344e+01
  -6.547124e+01   7.876790e+01
  -5.560840e+01   3.033464e+01
   2.618439e+01  -1.751882e+00
  -3.558343e+01  -4.545725e+01
  -4.247103e+00  -7.957965e+01
   6.231955e+00   6.246989e+01
  -5.360898e+01   1.010874e+02
  -1.399933e+02  -4.296036e+01
  -8.728457e+01  -5.551458e+00
  -1.014440e+02  -2.598526e+01
   7.312476e+01  -2.846154e+01
   5.247590e+01   8.754555e+01
  -5.393860e+01   9.958901e-01
   5.884025e+01  -8.640869e+00
   5.052582e+00   2.072872e+01
   7.539892e+01  -5.825877e+00
   7.070675e+01   3.908876e+01
   1.361220e+02   6.398897e+01
  -6.772797e+01   4.729136e+01
  -3.797559e+01  -5.241776e+01
  -2.249435e+01  -4.071747e+01
   6.446371e+01  -1.008577e+02
   1.268359e+02  -2.296941e+01
   4.298866e+01   2.260856e+01
   9.205300e+01   4.468356e+01
   3.311455e+01   6.051794e+01
   8.859488e+00   2.739180e+01
   3.552337e+01  -5.735335e+01
   1.126766e+02   6.567596e+00
   1.316197e+01   7.630109e+01
  -5.663723e+01   8.655428e+01
  -6.454422e+01   6.626336e+00
  -5.766792e+01  -5.458983e+01
   1.547042e+01  -4.103653e+01
   4.040200e+01   5.625519e+01
   5.419744e+00   7.224693e+01
  -1.224640e+02   1.374455e+01
  -6.030599e+01  -6.047359e+01
  -5.241756e-01  -5.686477e+01
   4.107371e+01  -6.292057e+01
   4.545405e+01  -2.282120e+01
   3.225832e+00   6.373009e+01
  -1.846785e+01  -1.048899e+01
  -8.026912e+01  -2.454262e+01
  -1.736390e+00  -9.609522e+01
   7.723267e+01   9.231350e+00
   2.161773e+01   2.346684e+01
  -3.002109e+01   2.928299e+01
  -3.350697e+01   2.594989e+01
  -2.835902e+01  -5.074620e+01
   3.948918e+00  -5.584252e+01
   9.294456e+00   1.765561e+00
   6.871632e+00   2.528513e+01
  -1.576466e+01  -2.418394e+01
  -2.805991e+01  -2.772301e+01
  -4.509040e+01   4.945049e+01
  -7.986495e+01  -4.552558e+01
  -2.724097e+01  -6.971810e+01
  -2.993976e+00  -9.249734e+01
   1.550169e+01  -4.508074e+01
   1.633634e+01  -4.368895e+01
   2.944437e+01  -2.041964e+01
   3.829658e+01   5.112735e+00
   3.357861e+01   3.015586e+01
   1.343844e+01   4.194503e+01
   3.399631e+00  -2.529146e+01
  -5.881122e+00  -1.604115e+00
  -1.739447e-01  -2.181021e+01
   3.439871e+01  -2.683110e+01
   3.312963e+01   1.079948e+01
   6.950213e+00   2.277664e+01
  -1.069300e+01   6.498802e+01
  -2.268052e+01   3.647125e+01
  -4.466918e+01  -3.858386e+00
  -2.626430e+01  -3.853582e+01
   2.050979e+01  -5.249138e+01
  -4.128506e+01   3.287204e+01
  -6.011718e+01   2.691672e+01
  -4.098895e+01  -1.627804e+01
   2.605129e+01  -4.392342e+01
   5.737594e+01  -3.597542e+01
   7.087995e+01  -6.646338e+00
   4.278470e+01   1.222052e+01
   4.380669e+00   1.659387e+01
  -4.050280e+01  -2.392585e+01
   8.668294e+00  -5.029360e+01
   3.534913e+01  -2.230063e+00
   3.138721e+01   1.624749e+00
  -1.748800e+01   5.719993e+01
  -3.948856e+01   3.610706e+01
  -3.822133e+01  -1.398581e+01
   1.585109e+01  -2.741724e+01
  -6.753416e+00   2.580059e+01
   2.956580e+01   6.527066e+01
  -5.772367e+00   8.618674e+01
  -2.137326e+01   1.253277e+01
  -2.563123e+01  -1.387134e+01
  -3.788160e+01  -2.808536e+01
  -1.991900e+01  -4.308185e+01
   1.108426e+01  -7.755797e+00
   2.180612e+01  -4.803135e+00
  -4.716941e+00  -2.687724e+01
   1.091237e+01  -2.410361e+00
  -4.014393e+01  -6.439022e+01
   1.881730e+01   1.062694e+01
   1.220587e+00   1.909801e+01
   5.724283e+00   5.694543e+00
  -2.381749e+01   3.286671e+01
   2.386225e+01  -2.234802e+01
   2.434930e+01  -3.610748e+01
   4.874345e+01  -5.635950e+00
   4.700325e+01  -1.630148e+01
   2.257591e+01   3.318773e+01
  -5.658636e+01   7.255235e+01
  -4.473216e+01   1.469448e+01
  -3.056766e+00  -1.777969e+01
   2.571142e+01  -1.177796e+01
   3.570400e+01  -3.102125e+01
  -2.876366e+00  -1.147615e+01
  -1.795329e+01   4.304831e+01
  -6.513584e+01   2.103455e+00
  -2.669679e+01  -2.533311e+01
   3.562346e+01  -3.630036e+01
   2.041869e+01   3.903317e+01
   4.467770e+01   2.598577e+01
   1.090153e-01   3.362436e+01
  -1.354868e+01  -2.582136e+01
   2.539725e+01  -3.084475e+01
   4.352492e+01  -2.316099e+01
  -5.195425e+00   1.639306e+01
   2.771562e+01   1.272216e+01
  -6.305281e+01   3.084075e-01
  -2.536945e+00   1.888719e+01
  -2.780861e+01  -3.406042e+01
   2.374889e+01   2.142710e+01
  -2.866031e+01   4.423355e+00
   9.282092e-01  -1.445909e+01
   3.322421e+00   6.630075e+00
  -5.675319e+00  -7.473802e+00
   4.453599e-01  -8.250505e+00
  -1.039676e+01  -1.359824e+01
   1.543789e+01  -1.005343e+01
  -1.077666e+01  -4.059230e+00
  -5.394307e+01  -3.805727e+01
  -2.896917e+01  -3.381546e+01
   2.463430e+01   9.614335e+00
   1.397625e+01   3.309685e+01
   3.077153e+01   1.620963e+01
  -4.198120e+01  -1.021707e+01
  -1.690604e+01   1.523143e+01
   5.227252e+00  -3.433977e+00
   2.409355e+01  -2.639523e+01
   1.079699e+01   1.201216e+01
   1.112404e+01   1.898442e+01
   1.845138e+01   2.077631e+00
   2.982770e+01   6.784609e+00
   2.110969e+00   2.757642e+00
  -1.045157e+01   1.707461e+01
   2.433158e+01  -1.827543e+01
   1.143468e+01   1.651659e+01
  -2.475085e+01   6.100012e+01
  -1.447649e+01  -2.513726e+01
  -4.878739e+01  -9.702162e+00
  -3.915160e+01  -2.584622e+01
   1.517898e+01  -2.066925e+01
   3.013615e+00   1.662360e+01
   1.177693e+01   1.777494e+01
   8.736378e+00  -1.686486e+01
   1.367922e+01  -4.212585e+01
   1.657265e+01  -1.996625e+01
   5.891484e+01  -2.639800e+01
  -1.617845e+01   7.977986e+01
  -3.142021e+01   2.005351e+01
  -2.348870e+01  -1.414194e+01
   1.183612e+01  -1.874357e+01
   1.036807e+01   3.243183e+00
  -4.208072e+01  -4.444533e+01
   3.708418e+00   2.908246e+01
  -5.087008e+01   4.281385e+01
  -3.739036e+01   4.633618e+01
   2.345118e+01  -2.274242e+01
   4.341891e+01   1.616888e+01
   7.327236e+00  -3.884231e+01
   1.882411e+00  -1.010315e+01
  -1.217162e+00   1.353926e+01
  -2.899872e+00  -3.701718e+00
   5.345651e+00   3.975487e+00
  -1.008502e+00   2.532715e+01
   2.000377e+01  -2.618226e+00
   9.791338e+00  -7.216358e+00
  -4.025495e+01  -1.217589e+00
  -7.335631e+00   3.586271e+00
  -1.454229e+01  -1.097930e+01
   1.061446e+01  -4.227928e+01
  -6.642770e+00   4.967408e+00
  -1.202247e+01  -3.355526e+01
   2.231293e+01   3.861215e+01
   3.642729e+01  -2.300764e+01
   1.163643e+01  -3.294531e+00
  -3.782535e+00  -1.712309e+01
   7.326403e+00   7.780230e+00
  -3.104682e+01   2.741420e+01
   3.273589e+01   4.589730e+00
   8.529942e+00   1.834554e+01
  -2.552248e+01   1.395164e-01
  -5.200749e+00   9.031323e-01
   1.717146e+01  -5.078428e+01
  -6.040516e+01  -2.125787e+01
  -1.912320e+00   3.701416e+00
  -4.674186e+01  -2.423333e+00
   1.252634e+01   1.412066e+01
   3.732467e+01   7.534705e+00
   3.475273e+01   4.552840e+00
   1.116226e+01  -9.604276e+00
   3.239011e+01   1.641662e+01
  -2.211397e+01   9.187257e+00
   2.723068e+00  -3.931709e+01
   1.128309e+01   6.585324e+00
   4.078047e+01   2.280108e+01
  -4.362642e+01   6.049533e+00
  -5.072325e+01  -3.414461e+01
  -3.254490e+01  -5.151621e+00
  -5.414717e+01   4.789408e+00
   3.125186e+01   4.567317e+01
   9.981350e+00   4.081143e+01
   2.617415e+01  -2.768617e+00
   2.929614e+00  -2.363417e+01
   3.889849e+01  -1.214611e+00
  -3.192376e+01  -4.928025e+01
  -1.030894e+01  -4.698686e+00
  -4.342571e+00   2.425786e+01
  -4.054410e+01  -6.738616e+00
  -2.642371e+01  -5.229894e+01
   2.399442e+01  -4.619781e+00
  -4.155672e+01   3.341547e+00
   4.330199e+01   1.626724e+01
   1.348320e+01   2.752656e+01
   1.395155e+01  -6.533575e+00
  -3.186443e+01  -2.525381e+01
   1.852103e+01   5.026409e+00
   4.816229e+01   2.928188e+01
  -2.615028e+01   1.302060e+01
   4.065259e+01  -1.466353e+01
  -9.368449e+00   2.203582e+00
   1.086693e+01   2.613574e+01
  -2.322003e+01  -3.060269e+01
   3.556769e+01   2.956310e+01
   1.469396e+01   2.036010e+01
   1.171447e+00   2.447402e+01
  -1.470743e+01  -1.232740e+01
  -3.625006e+00  -2.501885e+01
  -3.016223e+01  -8.250684e+00
   1.448611e+01   5.377620e+00
  -1.598896e+00   1.285483e+01
  -1.508198e+01   2.955963e+01
   1.047590e+01   3.604951e+01
  -2.061778e+01  -2.855335e+01
   2.210829e+01  -4.312741e+01
  -1.746413e+01   1.845407e+01
  -2.394738e+01   4.036525e+01
   4.292986e+01   9.755185e+00
   2.208680e+01  -1.738741e+01
  -1.315388e+01  -6.896293e+01
   2.100802e+01  -4.208487e+00
   5.256875e+01  -6.086282e+01
   2.995061e+01  -1.097414e+01
  -3.327846e+01   2.160830e+01
  -1.055605e+01  -4.344735e+00
   9.893974e+00   3.815126e+01
  -1.695702e+01   1.088226e+01
   1.737729e+01  -9.645422e+00
   8.989472e+00  -2.905332e+01
  -4.353306e+01  -9.476444e+00
  -2.483399e+01   3.091222e+01
  -2.964209e+01  -1.600952e+01
  -3.637974e+00   9.578572e+00
   4.174855e+01  -3.617687e+00
   6.138628e+00  -3.282561e+01
   2.936152e+01  -3.564962e+01
  -3.550377e+01  -2.090180e+01
  -1.531398e+01   2.467683e+01
   7.390771e+00  -5.758119e+01
   1.491620e+01   4.514307e+00
   5.851111e+01  -1.381171e+01
   2.693061e+01   1.009664e+01
  -2.947093e+01  -7.050888e-01
   2.960774e+01   1.370320e+01
  -2.587066e-02  -2.351120e+01
   4.200797e+01   1.521752e+01
  -1.063799e+00   6.610392e+01
   9.223015e+00   6.303984e+01
   1.466055e+01   2.639733e+01
  -2.636998e+01  -5.391053e+01
  -1.512509e+01  -8.617953e+00
  -1.123937e+01  -9.152447e+00
   2.502723e+01  -7.850280e+00
   1.658224e+01   2.934638e+01
  -1.971554e+01  -9.513806e-01
  -1.169847e+01  -6.970291e+00
   1.835383e+01   3.122770e+00
   3.432232e+01  -2.018267e+01
  -1.045156e+01   2.101728e+01
  -1.273415e+01   4.049696e+01
  -2.389959e+01  -3.379683e+01
  -3.423481e+01   5.921801e+00
   2.559034e+01  -2.974993e+01
   2.445921e+01   7.506602e+01
  -1.300743e+01   1.417881e+01
   3.586496e+01  -1.499096e+01
