
 $NMID
 id='ANONYMOUS ', fmtdat='(2E16.6)'
 volume=1.0
 tramp=1.0
 $END
   9.310983e+02  -2.353849e+02
   3.439677e+02   5.524078e+02
  -8.042945e+01   4.991284e+02
  -5.219317e+02   9.262774e+00
  -7.331954e+01  -2.794052e+02
   1.945535e+02  -1.755994e+02
   1.635907e+02   7.218636e+01
  -8.176532e+01   2.953631e+02
  -1.924613e+02   1.426167e+02
  -3.067971e+02  -5.208441e+01
  -8.345608e+01  -1.723969e+02
  -1.758796e+01  -2.107081e+02
   5.904670e+01  -8.516168e+01
   1.225335e+02   1.492206e+02
  -5.836346e+01   2.151248e+02
  -1.877355e+02   4.169134e+00
   4.474021e+01  -2.934386e+02
   1.562972e+02  -5.105767e+01
   1.336430e+02   2.267973e+01
   2.364132e+02  -4.872414e+01
  -5.881753e+00   1.574698e+02
  -1.177428e+02   6.002972e+01
  -7.981358e+01   3.192572e+01
   9.073860e+01   2.414060e-01
   9.033185e+01   5.388539e+00
  -7.486503e+01   1.865945e+02
  -5.531051e+01   8.552480e+01
  -2.114622e+02   8.711191e+01
  -1.232589e+02  -1.130647e+02
   1.170055e+01  -8.504621e+01
   1.578711e+02   1.738758e+01
   3.465521e+01   1.212567e+02
  -2.851957e+01   4.906372e+01
  -6.414608e+01   6.275702e+00
  -9.851227e+01  -9.278614e+01
  -1.344832e+01  -5.538764e+01
   2.688913e+01  -6.672632e+01
   4.615871e+01   4.327927e+01
  -8.500883e+01  -6.047308e+00
  -5.977808e+01   1.411428e+01
  -2.630699e+01  -1.459747e+02
   4.726145e+01  -5.356051e+01
   9.698161e+01   8.306702e+00
  -9.697931e+00   7.117114e+01
  -4.335816e-02   2.913608e+01
  -7.264520e+01  -3.654485e+01
   2.317181e+01  -6.800050e+01
   6.574965e+01   2.743763e+01
   6.661097e+01   5.661901e+01
  -1.202244e+01   2.029334e+01
  -7.037885e+01   1.457793e+01
  -7.274767e+01  -3.120082e+01
  -3.432628e+01  -8.078722e+01
   9.024757e+01  -3.054793e+01
   6.864316e+01   2.210685e+00
   3.936996e+01   8.790427e+01
  -4.804761e+01   6.976832e+00
  -6.910525e+01  -4.812223e+01
   6.430166e+01  -7.174792e+01
   5.513677e+01  -5.944268e-01
   5.401483e+01   6.548758e+01
  -4.271166e+00   1.599077e+01
  -1.667913e+01  -2.264836e+00
  -6.337304e+01  -3.331069e+01
  -3.309723e+00  -2.502292e+00
   7.130351e+01  -7.364779e+01
   4.396023e+01  -6.642648e+00
   9.315558e+01   3.011976e+00
  -2.830536e+01   4.748703e+00
  -7.858242e-01   7.154381e+01
   3.575276e+01   2.881535e+01
   1.924673e+01  -1.286751e+01
   6.212677e-01   1.014394e+01
  -7.186520e+00  -3.642489e+01
  -2.718105e+01  -8.479951e+01
  -2.410155e+01  -3.850349e+01
   1.201662e+01   3.484228e+01
   6.949553e+01   6.344511e+00
   4.369058e+01   4.210919e+01
  -3.144280e+01   2.411082e+01
  -4.487241e+01  -1.829654e+01
  -2.404146e+01  -3.456248e+01
  -2.463441e+01  -6.090031e+01
   4.087181e+01  -6.994448e+01
   6.347656e+01  -7.298878e+00
  -2.209501e+01   2.895085e+01
   3.952745e+01   6.363635e+00
   9.846081e+01   1.191862e+01
   1.759784e+01  -1.226790e+01
   6.201060e+00   3.330360e+01
   8.369310e+00   9.837744e+01
  -1.016681e+02   5.911162e+01
  -1.081567e+02   1.932917e+01
   6.830629e-01   2.746224e+01
  -1.457382e+01  -2.165285e+01
   2.834806e+01  -2.579992e+01
   5.125195e+00  -5.597658e+00
  -9.100288e+01   1.383585e+00
  -2.065038e+01   3.338199e+00
   1.274242e+01  -2.207685e+01
   1.117892e+01  -4.250469e+01
   1.569399e+01   5.577450e+00
   4.232496e+01   6.123982e+01
  -2.659170e+00  -3.315526e+01
  -4.163809e+01  -4.693437e+01
   1.292044e+01  -1.942504e+01
   4.254553e+01   2.871772e+01
   5.133415e+01   4.313912e+01
   4.193937e+01   5.785030e+01
  -5.804155e+00   1.081486e+01
  -7.176421e+01   2.481055e+01
  -5.316802e+01   3.181086e+01
  -2.540547e+01  -2.944401e+01
   2.393001e+01  -6.578575e+00
  -1.031021e+00   3.817850e+00
   1.002057e+01   1.401330e+01
   9.227313e-01   3.604058e+01
  -5.836435e+00  -2.781394e+00
   1.760238e+01   1.822403e+01
   2.648553e+01   4.832439e+01
  -2.854646e+01  -3.168983e+01
  -3.502166e+01  -3.769594e+01
  -6.832708e+00   4.138024e+01
   3.369441e+01  -8.668499e+00
   7.412836e+01  -2.230542e+01
   5.164576e+01   1.451622e+01
  -3.118081e+00  -2.777345e+01
  -1.617405e+00   1.611855e+01
   7.247187e+00  -6.670852e+00
   4.983152e+01  -3.982463e+01
   2.541563e+01   4.079921e-01
   7.194236e+01   8.130393e+00
   7.486369e+01   2.318524e+01
   2.328376e+01   3.037590e+01
  -2.256323e-01   3.328512e+01
  -3.913736e+01   1.894294e+00
   9.301264e+00  -4.840225e+00
  -4.769493e+01   1.720783e+01
  -5.927426e+01   5.257385e+01
  -1.359673e+01  -7.660276e+00
   1.799052e+01  -2.675943e+01
   5.063227e+01  -5.775401e+01
   1.911304e+01  -1.641720e+01
   1.570602e+01  -1.113448e+01
   2.458472e+01   2.385212e+01
  -6.413677e+00   1.887065e+01
   1.540799e+00   1.631286e+01
  -2.138187e+00   6.140869e+00
   1.694695e+01  -4.737490e+00
  -5.831200e+01  -2.794249e+01
  -2.754407e+01  -1.700428e+01
  -1.785356e+01  -2.751017e+01
   2.351805e+01  -2.586018e+01
   1.000790e+01  -2.185191e+01
   6.368976e+01   1.275611e+01
   6.137363e+01   5.348455e+01
  -2.090530e+01   4.060406e+01
  -3.066018e+01   7.076769e+00
  -2.607269e+01   1.997359e+01
  -4.159149e+01   6.436054e-01
  -2.709989e+01  -1.814565e+01
  -3.727999e+00  -1.887386e+01
  -2.854256e+01  -2.378408e+01
  -4.606343e-01  -2.464943e+01
   1.808366e+01  -2.486735e+01
  -1.375404e+01  -2.422128e+01
  -4.112567e+01   1.222396e+01
  -7.430132e+00   4.891984e-01
  -6.040807e+01   1.989767e+01
  -5.303623e+00   1.203904e+01
  -9.062098e+01  -2.628410e+01
  -1.131079e+01  -2.327731e+01
   2.934134e+01   9.375841e+00
  -8.920604e+00   3.362571e+01
   1.234757e+01   2.592292e+01
  -1.721438e+01   3.442070e+01
  -2.967550e+01   3.029857e+01
   1.650227e+01   3.167188e+01
   1.277081e+01   2.753472e+01
  -3.555110e+00   3.469012e+01
   4.758080e+00   2.987095e+01
  -2.440481e+01   3.999725e+00
  -3.889043e+01  -1.610768e+01
   4.084467e+01  -1.879551e+01
   3.637404e+01   1.319557e+01
   4.186720e+01   4.033960e+01
  -8.936932e+00   2.401408e+01
  -2.449945e+00   5.101940e+01
  -1.066180e+01  -5.537943e+00
  -3.823195e+01  -1.236608e+01
  -2.553396e+00   1.094883e+01
  -2.001359e+01   1.233990e+00
   1.145849e+01   2.562853e+01
  -3.459270e+01  -9.384405e+00
  -1.061980e+01   5.706668e+00
   2.975658e+01  -5.128568e+01
   3.622662e+01   1.280572e+01
   4.101357e+01   2.164101e+01
  -4.681255e+01  -7.234301e+00
  -1.618458e+01  -4.746413e+00
   4.728624e+01   2.936592e+01
  -1.076187e+00   1.761227e+00
   7.545032e+00   5.536709e+00
   4.552593e+01   2.217776e+00
   9.079891e+00   2.866815e+01
  -3.334447e+01  -3.551586e+01
  -3.170409e+01  -1.779148e+01
   1.150452e+01  -5.888615e+00
   1.806523e+01   7.301977e+00
  -2.078868e+01  -2.865308e+01
  -4.810824e+00  -6.921589e+01
   3.378298e+01  -5.660150e+01
   1.048391e+01  -2.483213e+01
   4.506817e+01  -3.835928e+01
  -2.481267e+01  -2.745254e+01
   3.811717e+00   5.405228e+01
  -2.410721e+01  -2.969012e+01
  -3.542425e+01  -3.913555e+01
   2.903659e+01  -1.815808e+01
   2.611895e+01   2.927305e+01
   9.586519e+00  -1.547313e+01
  -6.698830e+00  -6.634953e+00
  -2.451384e+01  -1.525296e+01
  -2.456428e+01   5.818571e+00
  -1.287121e+01  -2.011509e+01
   1.719826e+01   4.918158e+01
  -6.878597e+01   4.142446e+01
  -8.612081e+00   1.413172e+01
  -1.130857e+01  -8.008528e+00
  -5.759379e+01   4.074874e+00
  -2.363669e+01   1.466829e+01
   3.010925e+01  -3.498293e+00
   7.814482e+00   5.351477e+01
   1.557518e+01   6.648322e+01
  -3.452557e+01   1.491814e+01
  -5.037254e+00  -5.665073e+00
  -2.320897e+01  -3.356998e+01
  -2.940985e+01  -2.457352e+01
   8.885983e-01  -1.938899e+01
   5.670886e+00  -2.223472e+01
   3.231982e+01   1.132228e+01
   3.987787e+01  -1.744080e+01
   1.179237e+01   5.854990e+01
   7.675979e+00   2.519963e+01
   9.144594e-01   7.870438e+00
  -3.047496e+01   2.533276e+01
   3.447856e+01   4.610145e+00
  -1.343608e+01   1.812861e+01
   2.213118e+01   7.686022e+00
  -2.991505e+00   1.571173e+01
   3.170875e+01  -5.570244e+01
   7.843893e+00  -1.132166e+01
  -6.894656e+00   4.877032e+00
   4.930555e+01   3.990092e+00
  -9.861644e+00  -1.310101e+01
  -4.160070e+01   1.497356e+01
  -1.638501e+01  -2.191548e+01
  -4.124775e+01  -3.245210e+01
  -2.220025e+01  -4.928210e+01
   1.309910e+01  -2.320711e+01
   1.965550e+01   3.755655e+00
   1.647195e+01  -9.957843e+00
  -2.465451e+01   2.504592e+01
   3.747804e+01  -2.765824e+01
   9.078250e+00  -9.777207e+00
  -1.414439e+01   3.419072e+01
  -6.466286e-01  -3.450736e+01
  -1.873647e+00   2.728252e+01
   2.570690e+00   3.221067e+01
  -1.662020e+01  -3.984622e+01
   2.138014e+01  -5.405912e+01
   1.539803e+01  -3.055610e+01
   5.484092e+00  -1.712834e+01
   3.377220e+01   1.574896e+00
  -2.430246e+01  -1.831787e+00
  -4.037114e+01   3.149205e+01
  -4.707587e-01  -4.764316e-01
  -5.623357e+00  -2.405016e+00
   2.961590e+01   3.772554e+01
   1.954727e+01  -2.192811e+01
   2.928417e+00   4.963630e+01
  -3.963784e+01  -3.308709e+01
   4.229917e+01   1.030308e+01
  -1.502442e+01   4.958164e+01
   2.980820e+01  -2.973269e-01
   9.352151e+00   2.809041e+01
  -4.809456e+01  -1.818244e+01
  -5.744221e+01  -4.783018e+00
  -7.933651e+00  -2.251921e+01
  -1.374916e+01  -3.463927e+01
   2.453620e+01  -3.514175e+01
   6.256430e+00   6.357162e+00
   4.357171e+01  -3.437955e+01
   1.673895e+01   2.165564e+01
  -1.393763e+01  -1.169477e+01
   2.070361e+01   1.542519e+00
   2.621825e+01   5.550714e+00
  -3.286153e-01  -3.642436e+01
  -1.637446e+01   1.879076e+01
   1.073209e+00  -2.208759e+01
   7.676062e+00   3.009734e+01
  -3.644880e+01   2.203259e+01
  -1.891046e+01   1.283775e+01
  -8.724953e+01  -1.583536e+01
  -3.691683e+00   1.477965e+01
  -2.943874e+01  -5.323441e+01
   2.506227e+01   1.404536e+01
   6.882430e+00  -1.804822e+01
   2.802977e+00   3.197794e+01
   2.335447e+01  -1.644011e+00
  -8.171170e-01  -3.282368e-01
   1.635764e+01  -9.979127e+00
  -1.492014e+01  -2.039152e+01
   1.238295e+01  -1.332946e+00
  -1.786803e+01   4.834736e+01
  -2.965063e+01   3.273441e+01
  -2.480394e+01   2.243677e+01
  -6.282395e+00  -4.021908e+01
  -8.382803e+00   5.497495e+00
   5.568516e+01   1.234194e+01
