
 $NMID
 id='ANONYMOUS ', fmtdat='(2E16.6)'
 volume=1.0
 tramp=1.0
 $END
  -1.100637e+03  -6.674228e+01
  -8.834705e+02  -5.876885e+02
  -9.459002e+01  -7.663857e+02
   3.157222e+02  -4.465064e+02
   2.722481e+02  -9.031019e+01
  -1.269675e+01   3.627879e+01
  -1.056977e+02  -9.832824e+01
   1.507470e+01  -1.886538e+02
   2.443811e+02  -2.822344e+02
   2.877138e+02  -1.558697e+02
   1.994112e+02   2.130422e+02
   6.382216e+01   2.104594e+02
  -1.294241e+02   1.512069e+02
  -2.066034e+02  -2.152466e+01
  -3.485151e+01  -2.338311e+02
   5.176496e+01   6.700235e+01
   1.051314e+02   1.791013e+02
   7.914062e+01   1.933552e+02
  -1.070084e+02   6.999723e+01
  -2.037814e+02  -1.208022e+02
  -2.267282e+01  -1.669025e+02
  -1.399211e+01  -1.474104e+02
   2.090943e+02  -8.494649e+01
   7.826711e+01  -5.685979e+01
  -2.287850e+02  -9.144811e+01
  -5.443259e+01  -7.537944e+01
   1.896283e+02  -4.399654e+01
   2.440404e+02   1.238646e+02
   2.736898e+01   2.151045e+02
  -1.000525e+02  -1.259558e+01
  -9.111183e+01  -4.441572e+01
  -8.907712e+01  -8.064159e+01
   3.319457e+01  -1.385817e+02
   1.295169e+02  -1.795953e+01
   8.805563e+01   1.211592e+02
  -5.805017e+00   1.986582e+01
  -2.189667e+01   4.973501e+01
  -2.551139e+01   1.065128e+01
   1.218873e+01  -4.866901e+01
   2.898554e+01   6.951971e+01
   1.009012e+02   1.705760e+02
  -1.667092e+00   1.392300e+02
  -1.616448e+02  -6.752584e+00
  -2.185927e+01  -1.541780e+02
   1.068310e+02  -4.815610e+01
   1.545788e+02   9.711866e+01
   3.344436e+01   1.626880e+02
  -1.755199e+02   6.706980e+01
  -2.382216e+02  -9.725892e+01
  -3.166216e+01  -2.239401e+02
   1.417973e+02  -1.726920e+02
   2.092640e+02  -2.434482e+01
   1.358949e+02   9.784261e+01
  -6.408589e+01   6.528827e+01
  -1.263251e+02   3.540349e+01
  -3.831219e+01  -3.063087e+01
   5.098667e+01  -1.320738e+01
  -3.477917e+00  -3.784447e+00
  -2.800973e+01   2.399787e+01
  -1.172857e+02   9.398547e+00
  -1.194925e+02  -7.502229e+00
   4.031898e+01  -1.155694e+02
   8.083746e+01  -8.314494e+01
   1.169840e+02   4.074902e+01
   5.771334e+01   1.170007e+02
  -5.424723e+01   1.269174e+02
  -1.417862e+02   4.663492e+01
  -1.239186e+02  -7.770188e+01
  -8.396379e+01  -1.502258e+02
   3.044443e+01  -1.824288e+02
   1.020569e+02  -7.668057e+01
   6.354884e+01  -2.684636e+01
   3.223122e+01  -6.172410e+01
   6.643020e+01  -2.684562e+01
   7.279325e+01   1.432282e+01
   6.117330e+01   6.161595e+01
  -5.890744e+01   5.012550e+01
  -6.246920e+01   1.813230e+01
  -4.177997e+01  -7.421190e+01
   3.378225e+01  -4.344283e+01
   5.546074e+01  -1.877285e+01
   6.412424e+01   2.882607e+01
   4.992693e+01   1.124407e+02
  -6.529365e+00   1.593371e+02
  -5.043908e+01   2.091805e+01
  -9.051608e+01   3.094424e+01
  -3.706006e+01   3.436307e+01
  -6.533523e+01  -1.464699e+01
  -2.066988e+02  -1.238544e+01
  -8.326999e+01  -1.074657e+02
   2.555676e+00  -1.762962e+02
   1.601609e+02  -1.204901e+02
   1.385662e+02  -5.094320e+01
   1.276615e+02  -3.655160e+00
   4.106533e+01   7.479054e+01
   8.181057e+01   1.282096e+02
  -2.483601e+01  -1.713113e+01
   6.592962e+01  -1.656219e+01
   3.196012e+01  -7.557388e+00
  -3.338246e+01   1.083822e+02
  -1.078235e+01   2.249457e+01
  -5.328064e+01  -1.540323e+01
   5.132545e+01  -4.015962e+01
   2.879723e+01   1.490132e+01
   1.894395e+01   1.148800e+02
  -1.121959e+01   1.237882e+02
  -4.792201e+01   6.575667e+01
  -1.707544e+02   1.896810e+01
  -1.174861e+02  -1.061488e+02
  -6.278213e+01  -8.422219e+01
   6.189538e+01  -6.770610e+01
   3.851116e+01  -1.573390e+01
   1.218953e+00   3.115309e+01
  -4.064847e+01  -2.935106e+01
   9.535819e+00  -8.210890e+01
   1.727926e+01  -3.360908e+01
   4.627157e+01   3.171023e+01
  -2.247042e+00   3.610708e+01
   4.371480e+00  -2.707914e+01
  -4.057036e+01  -3.324097e+01
   8.526614e+01  -7.395507e+01
   1.079498e+02  -2.281429e+01
   1.176453e+02   1.067552e+02
   6.339976e+01   9.615591e+01
  -1.112814e+02   1.450894e+02
  -1.460479e+02   2.857308e+01
  -5.171391e+01  -1.116669e+01
   4.760299e+00  -6.391035e+01
  -6.516038e+00   2.999444e+01
  -5.836832e+01  -1.719184e+01
  -4.444450e+01   1.166943e+01
  -1.815852e+01  -2.821817e+01
  -1.682030e+00  -8.727276e+01
   3.582891e+01  -2.657120e+01
   2.325020e+01  -1.803117e+00
   1.382229e+01   4.614877e+01
  -1.425871e+00   2.527223e+00
  -8.474043e+01  -4.346047e+01
   6.048537e+01  -8.658018e+01
   8.212424e+01  -6.280895e+01
   9.053538e+01   2.527825e+01
   3.231215e+01   6.961012e+01
  -5.031920e+01   5.953033e+01
  -1.158176e+02   5.658781e+01
   4.183407e-01   2.297750e-01
   4.729688e+01  -2.073386e+01
  -2.033116e+01  -2.210333e+01
  -1.088738e+01  -4.110787e+00
  -1.104854e+01   2.974946e+00
   9.283923e+00  -3.455287e+01
   4.227897e+01  -2.096164e+01
   5.463798e+01   5.503025e+01
   3.439724e+00   7.416587e+01
  -1.235960e+01   7.013517e+01
  -1.009540e+02  -4.591437e+01
  -8.127847e+01  -1.154049e+02
   5.903227e+00  -9.407073e+01
   4.772813e+01  -4.336072e+01
   1.469310e+01   1.796766e+01
  -9.620215e+00  -1.808806e+01
  -2.181028e+01   3.730658e+01
   1.868089e+01  -2.741785e+01
   2.129981e+01  -1.621570e+01
  -1.391800e+01   2.243652e+01
   1.248819e+00   1.986111e+01
  -1.198278e+01   7.448396e+01
  -5.892195e+01   6.195075e+00
  -1.460288e+01  -2.023852e+01
   7.290567e+00  -8.297693e+00
   6.169357e+01   3.164504e+00
   2.300736e+01   6.309828e+01
  -3.944537e+01   4.652365e+01
  -6.589696e+01   1.138632e+01
  -8.185631e+01  -6.748462e+01
  -2.056802e+01  -4.671935e+01
  -2.723282e-01  -1.443598e+01
   7.543929e+01  -3.757082e+01
  -2.703031e+01  -2.036116e+01
   5.353327e+01  -3.152864e+01
   3.265233e+01  -5.605379e+01
   3.136567e+01   1.488146e+01
   6.995036e+01   3.089790e+01
   8.031762e+00   9.160699e+01
  -2.682135e+01   8.430990e+01
  -8.376552e+01   6.629741e+01
  -3.526035e+01  -6.821925e+01
  -1.642595e+01  -7.418365e+01
   2.083016e+00  -4.342525e+01
   3.241736e+01   3.834556e+01
   8.160100e+00   2.825348e+01
  -8.870151e-01  -7.329107e+00
   1.046339e+01   2.992846e+01
   5.412117e+01  -2.121678e+01
   3.810067e+01   2.557460e+01
   3.560041e+01   9.731637e+00
  -5.349669e+01  -9.045447e+00
  -5.958537e+01  -1.532974e+01
   2.796959e+00  -5.138273e+01
   4.932644e+01   2.916420e+01
   5.817914e+01   3.090861e+00
   1.151424e+01  -1.461307e+01
  -7.707654e+01   2.980287e+01
   1.374196e+01  -3.071979e+01
  -4.855519e+01  -4.055642e+01
   4.347322e+01  -4.746150e+01
   5.362231e+01  -3.515021e+01
   3.786903e+01   9.454810e+00
   8.173997e+01   3.478582e+01
   8.326303e+00   1.806382e+01
   7.139489e+01  -1.011861e+01
   8.144992e-01  -7.117740e+00
  -3.707046e+01   1.834293e+01
  -3.457173e+01   6.318145e+01
  -7.081912e+01   1.566245e+00
  -6.235288e+01  -4.052209e+01
   1.764281e+01  -6.478777e+01
   2.023100e+01  -6.968585e+01
   2.783635e+01  -2.614915e+01
   1.290832e+01   1.561585e+01
  -3.972048e+01   2.297120e+01
  -6.207879e+01  -2.255364e+01
   3.572237e+00  -2.607976e+01
   8.804569e+01  -3.056641e+01
   8.286258e+01   2.774727e+01
   5.381801e+01   2.881304e+01
   2.023953e+01   3.601921e+01
  -3.938582e+01  -7.144959e+01
   1.035854e+00  -3.330063e+01
   4.109379e+01   4.305787e+01
   4.001341e+01   2.459089e+01
  -1.939414e+01   6.889492e+01
  -5.682319e+01  -2.951653e+01
  -6.099476e+01  -4.749388e+01
  -1.542778e+01  -5.798392e+01
   3.482566e+01  -1.140160e+01
  -2.101552e+01  -2.169564e+01
  -2.348174e+01   1.114874e+01
  -2.069130e+01   2.336585e+01
  -5.079545e+01   2.558738e+01
  -6.882818e+00  -1.531979e+01
  -9.986967e+00   2.517531e+00
  -9.249645e+00  -2.705443e+01
  -3.492436e+01   5.058461e+01
  -5.184791e+01  -5.622331e+01
  -5.703273e+00  -3.526184e+01
   1.434152e+01  -2.678381e+01
   4.090451e+01  -2.251136e+01
   2.374475e+01   7.765037e+01
   1.867037e+01   5.005354e+01
  -1.128319e+01  -7.257054e-01
  -7.414701e+01  -1.568907e+01
  -3.827652e+00  -1.074603e+01
   1.438535e+01  -1.476503e+01
   4.553299e+00   1.203900e+01
   5.160557e+00   6.284772e+00
  -5.554853e+00  -3.550028e+01
   1.354307e+01  -5.217220e+01
   2.099791e+01   2.576266e-01
  -7.386699e+00   4.876368e+01
  -6.216667e+00   9.746324e+01
  -1.045677e+02   3.537441e+01
  -2.691577e+01  -1.974612e+01
  -2.799687e+01  -4.169403e+01
  -1.748035e+01  -4.621298e+01
   4.121086e+01   4.901463e+00
   7.469476e+00   2.243060e+01
  -2.100960e+01   2.789627e+01
  -1.922248e+01  -1.413109e+01
  -1.486362e+01  -1.227819e+01
   3.885609e+01  -1.143557e+01
   2.346313e+01   1.533570e+00
   1.062466e+01   3.925463e+00
  -4.520088e+01   2.087068e+01
  -2.639933e+01  -6.917933e+01
   4.868424e+01  -4.410894e+01
   1.414391e+01   2.300942e+01
   2.148902e+01   2.281311e+01
   1.381588e+00   6.020546e+01
  -6.248015e+00   7.208314e+00
  -3.678195e+01  -1.234859e+01
  -1.230153e+01  -4.520992e+01
   1.997328e+01  -5.463409e+01
   8.660744e-01  -1.713791e+01
  -1.774773e+01  -2.840909e+01
  -1.138799e+01  -1.012212e+01
  -2.935082e+01  -3.286688e+01
   2.678302e+01  -2.386335e+01
   2.971752e+01  -3.955960e+01
   2.523199e+01  -4.335301e+01
  -1.320479e+01   5.788457e+01
  -3.488271e+01   3.701830e-01
   2.085154e+01  -3.725293e+00
  -6.323195e+00  -1.555556e+01
   3.960304e+01  -6.438258e+01
  -9.034526e+00   1.737152e+01
   3.833025e+01   3.166463e+01
   9.434185e+00   1.702712e+01
   1.551780e+01  -2.326782e+01
   2.445854e+01  -4.532726e+01
   3.369771e-01   1.488712e+01
   2.060299e+01   6.285957e+00
   1.052339e+01  -2.844004e+01
  -4.878718e+01  -3.891665e+00
   4.731027e+00  -3.785274e+01
   6.282651e+01   6.520474e+00
   3.154746e+00   9.525354e+00
   3.696697e+01   4.153261e+01
  -1.348780e+01   9.760142e+01
  -1.292305e+01  -2.378518e+01
  -3.827223e+01  -4.876123e+01
   2.965367e+01  -1.834128e+01
  -1.058841e+01   4.134456e+00
   8.615452e-01  -3.262520e+00
   7.330527e+00   8.005691e+00
  -2.147577e+01  -2.497956e+01
  -1.485079e+01  -1.784807e+01
   4.303545e+01  -2.281378e+01
   1.045167e+01   2.311212e+01
   8.142918e+00  -4.100872e+01
  -3.075531e+01   1.883751e+01
