
 $NMID
 id='ANONYMOUS ', fmtdat='(2E16.6)'
 volume=1.0
 tramp=1.0
 $END
  -3.613742e+03   7.541964e+01
  -2.223771e+03  -2.040688e+03
   2.636400e+02  -2.297915e+03
   1.456982e+03  -1.230208e+03
   9.840416e+02   7.586380e+01
  -1.913027e+02   4.162759e+02
  -7.303586e+02  -9.260464e+01
  -1.312846e+02  -6.458763e+02
   4.868580e+02  -7.395148e+02
   7.550203e+02   7.410783e+01
   4.321520e+02   6.559342e+02
  -1.642197e+02   6.849227e+02
  -4.451599e+02   2.669291e+02
  -3.604363e+02  -5.156078e+02
   1.593422e+02  -6.727732e+02
   5.481149e+02  -3.213564e+01
   2.758101e+02   5.168715e+02
  -1.503606e+02   6.538533e+02
  -3.581943e+02   1.817076e+02
  -5.185470e+02  -2.647375e+02
  -1.232683e+01  -2.171888e+02
   2.407147e+02  -2.160946e+02
   2.014549e+02  -1.230984e+02
  -1.405359e+02  -6.955491e+01
  -3.282739e+02  -2.325688e+02
  -1.054103e+02  -3.717415e+02
   3.954229e+02  -2.667445e+02
   6.992551e+02   9.885223e+01
   3.981581e+02   4.530781e+02
  -3.043985e+02   3.211170e+02
  -6.102300e+02  -2.418536e+01
  -2.781332e+02  -3.479574e+02
   1.362177e+02  -3.408569e+02
   3.885715e+02  -1.913234e+02
   3.353340e+02   2.007509e+02
   2.486667e+01   3.671036e+02
  -1.143182e+02   1.813318e+02
  -2.584519e+01  -2.619704e+02
   1.437708e+02  -2.631891e+02
   3.247555e+02   9.211130e+01
   1.173513e+02   5.405781e+02
  -2.350565e+02   5.223914e+02
  -4.432678e+02  -6.109310e+01
  -1.947162e+02  -4.670841e+02
   1.445237e+02  -1.981085e+02
   2.991054e+02   2.992664e+02
  -2.092310e+01   4.587987e+02
  -4.632988e+02   3.820674e+01
  -5.437756e+02  -3.919377e+02
  -1.676037e+02  -4.943582e+02
   3.806350e+02  -3.191819e+02
   5.395010e+02   7.416982e+01
   2.866375e+02   3.151718e+02
  -1.293052e+02   3.141037e+02
  -3.307316e+02   7.205764e+01
  -1.222959e+02  -8.729111e+01
   8.892602e+01  -1.821544e+01
   9.637327e+01   1.514534e+02
  -1.266619e+02   1.300176e+02
  -2.930917e+02  -3.326898e+01
  -9.276136e+01  -1.551886e+02
   1.865902e+02  -2.047934e+02
   3.252212e+02  -4.017690e+01
   2.292241e+02   1.293749e+02
  -2.882699e+01   3.119106e+02
  -2.592433e+02   3.678229e+02
  -3.227630e+02   1.494818e+02
  -2.770143e+02  -1.386358e+02
  -6.669714e+01  -3.836902e+02
   8.163599e+01  -2.704741e+02
   6.441592e+01  -8.593767e+01
   1.281326e+01  -4.565350e+01
   1.279305e+02  -4.659615e+01
   2.420471e+02  -7.817601e+01
   2.339925e+02   7.239940e+01
   4.660011e+01   2.374586e+02
  -1.164052e+02   2.012940e+02
  -1.624368e+02   3.991521e+01
  -1.418158e+02  -2.175087e+02
  -5.675933e+00  -2.208752e+02
   2.296623e+02  -9.129279e+01
   3.566742e+02   1.672471e+02
   2.099469e+02   3.351801e+02
  -1.229274e+02   3.211224e+02
  -2.098369e+02   1.734036e+02
  -1.096253e+02   5.366433e+01
  -1.255228e+02   1.631812e+01
  -2.188333e+02   4.617812e+01
  -3.396024e+02  -4.038625e+01
  -3.233964e+02  -2.936612e+02
   2.163273e-01  -4.028699e+02
   2.967145e+02  -3.648331e+02
   4.548508e+02  -2.043410e+02
   2.638603e+02   9.748267e+01
   1.368622e+01   2.690873e+02
  -1.136151e+02   2.162548e+02
  -2.099426e+01   1.807282e+01
   7.050277e+01  -1.025975e+02
   1.948319e+02  -2.361872e+01
   8.305327e+01   1.424768e+02
  -1.255318e+02   1.135541e+02
  -1.171649e+02  -2.989793e+01
   3.077476e+01  -1.273933e+02
   1.857147e+02   3.081238e+00
   2.019232e+02   2.219509e+02
  -1.286944e+01   3.288576e+02
  -2.204652e+02   2.555789e+02
  -3.734646e+02  -3.631155e+01
  -3.114228e+02  -2.562125e+02
  -7.655107e+01  -3.003533e+02
   1.335750e+02  -1.103014e+02
   2.328928e+02   1.545335e+01
   4.199902e+01   2.199622e+01
  -4.857459e+01  -5.017818e+01
  -1.842086e+01  -1.013022e+02
   1.187708e+02  -2.631284e+01
   1.359327e+02   2.074518e+01
   4.883789e+01   3.501538e+01
  -1.012043e+02  -1.787089e+01
  -2.271797e+01  -7.935674e+01
   9.625772e+01  -6.172534e+01
   2.863166e+02   1.194844e+01
   2.462801e+02   1.394328e+02
   3.967926e+00   2.191464e+02
  -2.368910e+02   1.923017e+02
  -2.252874e+02   1.049565e+02
  -1.265429e+02  -4.242238e+01
   7.500100e+01  -1.069261e+02
   3.711912e+01  -1.933567e+01
  -5.388752e+01   1.272234e+02
  -1.836575e+02  -9.105334e+00
  -1.857595e+02  -8.818665e+01
  -4.151261e+01  -1.816516e+02
   1.259353e+02  -8.507233e+01
   1.221083e+02  -1.164524e+00
   6.794541e+01   1.588437e+01
  -7.253120e+01   5.296757e+00
  -5.757505e+00  -9.185209e+01
   1.172555e+02  -8.937171e+01
   2.291636e+02   1.130816e+01
   1.574605e+02   1.946557e+02
   1.266545e+01   2.256972e+02
  -1.608100e+02   1.523858e+02
  -2.029460e+02   3.311362e+01
  -8.755876e+01  -9.635916e+01
   3.395276e+01  -7.324202e+01
   7.191173e+01  -1.997485e+01
   4.522490e-01   5.745176e+00
  -3.227430e+01  -5.616502e-01
  -1.125191e+01  -3.909154e+01
   5.095377e+01  -4.371247e+01
   1.378041e+02   5.898097e+01
   3.330258e+01   1.268535e+02
  -9.048770e+01   1.071917e+02
  -1.881620e+02   5.004512e+00
  -1.434855e+02  -1.261396e+02
   1.865699e-01  -1.635325e+02
   1.108347e+02  -1.713739e+02
   1.056782e+02  -7.184643e+00
   8.350171e+01   1.298190e+01
   4.823795e+01   3.016256e+01
   5.500706e+01  -2.304783e-01
   6.229898e+01   4.494739e+01
   8.208733e+00   7.777263e+01
  -4.691287e+01   6.530569e+01
  -1.156600e+02   5.746338e+01
  -7.523563e+01  -5.479302e+01
   4.743582e-01  -8.715878e+01
   1.575274e+02  -1.190047e+02
   1.533468e+02   3.839913e+01
   6.217933e+01   2.156723e+02
  -1.113747e+02   2.496288e+02
  -1.835454e+02   7.282183e+01
  -2.448895e+02  -5.137310e+01
  -1.155537e+02  -1.292102e+02
  -5.202644e+00  -1.145023e+02
   5.048592e+01  -6.065792e+01
   4.943289e+01  -1.212609e+02
   5.959185e+01  -6.990033e+01
   8.275446e+01  -7.909796e+01
   1.678207e+02   4.440057e+01
   1.070044e+02   1.288224e+02
   4.187066e+01   2.679431e+02
  -1.077977e+02   1.439535e+02
  -1.637975e+02   4.452739e+01
  -1.070848e+02  -1.132920e+02
  -1.552455e+01  -1.392027e+02
   8.312206e+01  -1.003825e+02
   1.049011e+02   1.433591e+01
  -5.974783e+00   6.873843e+01
  -3.348355e+01   2.369395e+01
  -1.918701e+01   1.010393e+01
   1.217609e+02  -1.838365e+01
   9.995965e+01   6.879316e+01
  -5.691426e+01   4.184601e+01
  -1.372955e+02   5.472008e+01
  -1.458105e+02  -4.462865e+01
   1.612265e+01  -5.119335e+01
   8.591169e+01  -7.418344e+01
   9.258687e+01  -1.386645e+01
   2.650318e+01   2.893580e+01
  -3.419321e+01   1.492423e+01
  -3.065651e+01  -3.810220e+01
   4.146158e+00  -5.849179e+01
   6.669642e+01  -1.106068e+02
   8.912555e+01   2.151018e+01
   7.467254e+01   1.770567e+01
   1.530449e+01  -9.679976e+00
   4.893302e+01   2.280472e+01
   1.749136e+00  -9.025488e+00
   2.972267e+01   8.733106e+01
  -1.012231e+00   1.115858e+02
  -1.172075e+02   1.701681e+02
  -1.727210e+02   2.026464e+01
  -1.202609e+02  -7.453144e+01
  -5.335226e+01  -1.392748e+02
   6.120075e+01  -4.576944e+01
   1.843736e+01   4.072931e+01
  -6.680663e+01   4.266614e+01
  -9.258276e+01   2.490726e+01
   5.710333e+00  -7.999988e+01
   1.026353e+02  -4.693169e+01
   1.748822e+02  -1.405383e+01
   1.058735e+02   4.843931e+01
   2.419398e+01   6.616831e+01
  -8.420993e+01   8.533547e+01
  -2.906069e+01   8.861781e+00
   2.251546e+01   7.664472e+00
   3.653352e+01  -3.196488e+00
   7.953448e+01   1.512860e+02
  -7.111730e+01   1.221765e+02
  -1.382276e+02   7.357214e+01
  -1.251426e+02  -5.160096e+01
  -6.700331e+01  -2.272408e+02
   7.396272e+01  -1.389566e+02
   1.205487e+02  -3.543425e+01
   4.277449e+01   7.703327e+01
   2.481090e+01   5.884270e+01
  -3.260277e+01   5.423998e+00
  -5.600014e+00  -7.102768e+01
  -4.408317e+01  -2.778592e+01
  -3.931601e+01   3.688814e+01
  -2.630638e+01   1.246989e-02
  -5.873374e+01  -8.009163e+01
  -2.426545e+00  -9.210253e+01
   5.209165e+01  -4.780224e+01
   1.016132e+02   4.686081e+01
   1.048780e+02   6.692644e+01
   2.909600e+01   4.311813e+01
  -9.176462e+01   1.640705e+01
  -1.024245e+02   3.617072e+01
  -1.808750e+01  -1.441472e+01
   9.005724e+01   1.855281e+01
   6.639209e+01  -1.141917e+01
  -4.260513e+01   1.916720e+01
  -7.878629e+00  -8.769390e+00
   7.932914e+01   2.526498e+01
   5.515327e+01  -1.264401e+01
   6.628167e+00   3.693279e+01
  -1.220587e+02   6.928532e+01
  -1.744043e+02   3.927011e+01
  -1.154080e+02  -7.254870e+01
  -5.451383e+01  -1.423696e+02
   8.204355e+01  -8.862484e+01
   1.365565e+02  -6.400303e+01
   7.468777e+01   1.742970e+01
   6.194597e+01   1.943848e+01
  -1.248854e+01   1.570310e+01
   2.457645e+01   7.306727e-01
   3.673368e+01   3.762850e+01
  -4.358908e+01   8.888599e+01
  -1.196563e+01   4.442995e+01
  -5.025081e+01  -8.992113e+00
  -7.868538e+01  -7.657870e+01
  -6.042643e+01  -1.046612e+02
   6.411046e+01  -7.149903e+01
   8.001456e+01   5.752371e+01
   7.717615e+01   7.929999e+01
  -6.982651e+01   7.532231e+01
  -9.852916e+01   4.551936e+01
  -6.174804e+01  -2.215205e+01
   9.753878e+00  -6.445217e+01
   2.874513e+01  -1.310657e+01
  -6.133646e+00   1.029239e+01
  -4.525291e+01   3.389594e+01
   6.955288e+00  -1.307264e+01
   7.609292e+01  -5.441692e+01
   1.368791e+02  -2.693713e+01
   9.541729e+01   1.131126e+01
   3.621081e+00   8.708588e+01
  -2.015729e+01   7.389452e+01
  -3.493867e+01  -7.028280e+00
   7.075562e+00  -3.007854e+01
   6.194999e+01   2.290001e+01
  -1.978375e+01   3.229863e+00
   8.021122e+01   4.010855e+01
  -7.640452e+00   6.087237e+01
  -3.335575e+01  -1.579042e+01
  -2.682948e+01  -1.576617e+01
  -1.611179e+01  -2.365487e+00
   2.128865e+00  -1.349267e+01
   4.110789e+01   5.066674e+01
  -1.347199e+01  -5.424497e+01
   2.374947e+01  -5.230197e+01
   5.630855e+00   7.046202e+00
   7.058537e+01   2.138283e+01
   2.091735e+01   4.944560e+01
  -1.882774e+01   3.301490e+01
  -6.608745e+01  -1.106948e+00
  -1.994153e+01  -1.361869e+01
   5.009317e+01  -7.518436e+01
   8.027527e+01   4.167505e+01
   8.651254e+00   7.024937e+01
  -3.369390e+01   2.229970e+01
  -5.827932e+01   1.850077e+01
  -4.640389e+01  -1.768710e+01
   1.251397e+01  -4.000987e+01
   7.322228e+00  -2.278435e+00
  -3.538355e+01  -4.851139e+00
  -6.966649e+01   1.569924e+01
