
 $NMID
 id='ANONYMOUS ', fmtdat='(2E16.6)'
 volume=1.0
 tramp=1.0
 $END
   3.069560e+03   1.492126e+02
   1.983113e+03   1.573166e+03
   2.388630e+01   1.647424e+03
  -1.180693e+03   1.325871e+03
  -8.900544e+02   2.558588e+02
  -7.131025e+01  -1.927549e+02
   2.372356e+02   6.383103e+01
   1.909177e+01   5.881797e+02
  -4.867519e+02   4.614914e+02
  -5.231644e+02   1.262961e+02
  -4.281076e+02  -4.416009e+02
   4.574014e+01  -5.907989e+02
   2.282316e+02  -2.489954e+01
   2.168801e+02   4.139193e+02
  -1.875567e+02   4.879421e+02
  -4.164582e+02   4.580294e+01
  -2.630977e+02  -5.842255e+02
   7.246613e+01  -6.020655e+02
   6.555168e+02  -3.285797e+02
   4.557525e+02   1.091685e+02
   2.308087e+02   3.555458e+02
  -8.306409e+01   1.922329e+02
   1.770783e+01   7.821463e+01
   3.286437e+02  -1.751394e+00
   3.240122e+02   2.761542e+02
  -8.151886e+01   3.530354e+02
  -6.146147e+02   1.283447e+02
  -6.072851e+02  -7.677362e+01
  -1.986537e+02  -3.653778e+02
   3.460445e+02  -2.731579e+02
   4.193316e+02   6.976732e+01
   1.914303e+02   3.011136e+02
  -2.935893e+02   3.216172e+02
  -4.274086e+02   8.867915e+01
  -2.711193e+02  -1.602073e+02
  -3.150489e+01  -2.957168e+02
  -3.744024e+01  -1.961332e+02
  -1.075107e+02   1.085746e+02
  -1.532033e+02   1.298167e+02
  -1.513257e+02  -1.405616e+02
   4.837376e+01  -3.494823e+02
   2.621135e+02  -3.876472e+02
   2.553517e+02   3.780166e+01
   7.499365e+01   2.448908e+02
  -1.923468e+02   9.426675e+01
  -9.991415e+01  -3.241184e+02
   1.081948e+02  -3.594527e+02
   3.985577e+02   2.945912e+01
   4.749845e+02   3.439751e+02
   1.596147e+02   4.245110e+02
  -2.474808e+02   2.637421e+02
  -5.082148e+02  -7.878933e+01
  -3.317500e+02  -2.193267e+02
   4.782212e+01  -2.100074e+02
   2.760659e+02  -7.333947e+01
   2.221869e+02   4.924582e+01
  -2.570354e+01   5.299309e+01
  -6.731646e+01  -1.171595e+01
   6.398438e+01  -2.147155e+01
   1.838949e+02   1.255246e+01
   8.790954e+01   1.843208e+02
  -1.710813e+02   2.637166e+02
  -3.788824e+02   1.154478e+02
  -3.044340e+02  -1.664356e+02
   4.815204e+01  -3.495859e+02
   3.021199e+02  -3.520133e+02
   3.866872e+02  -1.178863e+02
   2.502551e+02   1.893607e+02
   6.172246e+01   4.196341e+02
  -5.821901e+01   2.994667e+02
  -4.028649e+01   1.697377e+02
  -9.006820e+01   8.732130e+01
  -1.715887e+02   8.960129e+01
  -2.707437e+02   9.596471e+01
  -1.868416e+02  -1.269044e+02
  -5.487385e+01  -2.544414e+02
   1.211362e+02  -1.782186e+02
   1.954730e+02   7.087482e+01
   1.058530e+02   2.557234e+02
  -8.658280e+01   2.531633e+02
  -2.850370e+02   2.677305e+01
  -3.623487e+02  -1.775472e+02
  -1.372075e+02  -3.055802e+02
   9.603173e+01  -2.508294e+02
   2.071304e+02  -1.896362e+02
   1.677985e+02  -1.146740e+02
   1.798865e+02  -8.039453e+01
   2.807803e+02  -5.103557e+00
   3.936015e+02   1.693098e+02
   3.190263e+02   3.322913e+02
  -5.922159e+01   4.058593e+02
  -3.933226e+02   3.965463e+02
  -4.595589e+02   1.587201e+02
  -2.552515e+02  -8.224985e+01
  -9.708412e+00  -2.440158e+02
   9.829874e+01  -1.806462e+02
  -2.131801e+01  -6.675172e+01
  -1.103232e+02   6.919118e+01
  -1.183257e+02  -4.718763e+01
   4.748566e+01  -1.662412e+02
   1.665522e+02  -1.151294e+02
   1.060540e+02   1.989824e+01
  -7.915074e+01   1.413721e+02
  -1.736386e+02  -1.883394e+01
  -9.164772e+01  -2.940251e+02
   1.317158e+02  -3.933365e+02
   2.805800e+02  -2.369884e+02
   3.659005e+02   1.155995e+02
   2.560730e+02   3.078023e+02
   2.400368e+01   2.677886e+02
  -1.096621e+02   1.107162e+02
  -1.372622e+02   5.001591e+00
  -7.030508e+00  -4.434873e+01
   6.968892e+01   1.174337e+02
   1.486211e+01   1.108676e+02
  -1.287578e+02   5.929220e+01
  -2.068004e+02  -2.176347e+01
   1.493913e+01  -3.995446e+01
   1.083689e+02   5.134212e+01
   5.670750e+01   1.116276e+02
  -1.942118e+02   1.389535e+02
  -3.024153e+02  -5.307365e+01
  -2.301232e+02  -2.149562e+02
  -9.788706e+00  -2.652531e+02
   1.930617e+02  -1.852780e+02
   2.995757e+02  -8.881744e+01
   1.373923e+02   5.831410e+01
  -2.076638e+01   8.508349e+01
  -1.693710e+01  -4.144736e+01
   4.243667e+01  -1.331400e+02
   1.966305e+02  -2.326590e+01
   1.750109e+02   1.362808e+02
   8.524877e+01   2.323193e+02
  -1.127037e+02   9.663819e+01
  -1.616367e+02  -3.979342e-01
   8.304661e-01  -3.265877e+01
   7.963673e+01  -1.847330e+01
  -1.247940e+00   9.823819e+01
  -1.000622e+02   1.482462e+02
  -2.086018e+02   6.410431e+00
  -1.664115e+02  -1.662054e+02
  -4.312797e+01  -2.033933e+02
   1.709236e+02  -1.987154e+02
   1.730169e+02  -2.980864e+01
   1.035492e+02   4.475107e+01
  -1.230187e+02   1.044520e+02
  -1.163843e+02   5.032230e+01
  -1.081133e+01  -3.303670e+01
   4.979964e+01  -3.014314e+00
   3.707961e+01  -2.568790e+00
  -9.007605e+01  -5.158037e+01
  -7.128053e+01  -1.070930e+02
  -1.522456e+01  -1.845038e+02
   1.543744e+02  -1.351647e+02
   2.467493e+02   3.604242e+01
   1.869167e+02   2.023735e+02
   1.229797e+01   2.363734e+02
  -9.940130e+01   1.473880e+02
  -1.453044e+02   1.118182e+01
  -1.344004e+02  -7.394094e+01
  -5.166551e+01  -2.072908e+01
  -5.278311e+01   1.153806e+01
  -7.948035e+01  -1.475922e+01
  -1.752280e+01  -7.668379e+01
   2.923574e+01  -1.216478e+02
   1.444368e+02  -5.112160e+01
   5.704439e+01   1.010267e+02
  -4.935501e+01   1.432643e+02
  -1.835082e+02   5.125445e+01
  -2.198583e+02  -1.143194e+02
  -5.720240e+01  -2.014279e+02
   1.330094e+02  -2.605382e+02
   2.836087e+02  -7.222107e+01
   2.127636e+02   1.368675e+02
   8.988754e+01   1.973138e+02
  -5.811361e+01   9.676620e+01
  -9.544813e+01   1.227218e+02
  -6.934792e+01   5.842183e+01
  -8.964450e+01   6.548241e+01
  -4.767197e+01   6.757215e+01
  -1.504612e+02  -1.152261e+01
  -1.379494e+02  -1.716696e+02
   1.592388e+00  -2.564414e+02
   8.744162e+01  -1.837003e+02
   1.355068e+02  -5.661246e+00
   1.182381e+02   1.364720e+02
   3.114766e+01   1.630366e+02
  -9.190715e+01   4.402200e+01
  -7.950411e+01  -5.794035e+01
   4.329602e+01  -8.754535e+01
   5.852363e+01  -1.578243e+01
  -3.080292e+01  -3.588973e+01
  -9.101752e+01  -1.080807e+01
   3.997313e+01  -2.998586e+01
   8.946420e+01   6.956581e+00
   1.986021e+02   6.030360e+01
   1.063948e+02   4.538638e+01
  -3.927324e+01   9.669683e+01
  -1.369978e+02   1.246608e+02
  -1.485224e+02   6.753669e+01
  -3.757327e+01  -8.639981e+01
   6.297832e+01  -6.542845e+01
   8.105490e+01   3.889257e+01
  -4.294436e+00   7.271078e+01
  -1.584096e+01   1.255642e+02
  -7.223376e+01  -2.999938e+01
  -4.272735e+01  -1.833843e+01
  -3.425812e+01  -6.720155e+01
  -9.304854e+01   5.944463e+01
  -6.159002e+01  -1.660846e+01
  -5.024545e+01  -1.368399e+02
   1.001214e+01  -1.452914e+02
   1.340938e+02  -1.390420e+02
   2.063017e+02  -1.882262e+01
   1.452601e+02   8.337499e+01
  -9.001871e+00   1.211680e+02
  -8.829032e+01   6.945165e+01
  -5.538561e+01  -4.895450e+00
   1.169980e+02   8.189308e-01
   1.284411e+02   3.146870e+01
   6.475721e+01   1.184372e+02
  -6.341433e+01   8.818852e+01
  -1.831262e+02   9.904668e+01
  -9.208216e+01  -8.439765e-01
  -3.550149e+01  -5.411145e+01
   3.516693e+00  -3.052601e+01
   2.565710e+01  -1.374435e+00
  -5.923101e+01   5.119652e+01
  -9.362301e+01  -6.713857e+01
   8.373005e+00  -1.810065e+02
   8.590452e+01  -1.424231e+02
   1.378106e+02  -1.581596e+01
   2.029026e+02   1.062199e+02
   4.201030e+01   1.775713e+02
  -7.082647e+01   1.371509e+02
  -1.144984e+02   1.063508e+01
  -4.543786e+01  -9.031863e+01
   5.919269e+01  -8.646518e+01
   3.280550e+01  -9.495849e+00
   2.528883e+01   5.307987e+00
   1.803071e+01  -2.103983e+01
   2.752301e+01   1.180189e+01
   1.041447e+02   6.084502e+01
   7.127188e+01   5.687812e+01
  -2.748944e+01   7.002369e+01
  -1.084986e+02   7.376725e+01
  -1.552967e+02   6.203729e-02
  -1.146299e+02  -1.077255e+02
   2.015784e+01  -1.001576e+02
   8.319763e+01  -4.442340e+01
   1.444686e+01   9.232309e+00
  -4.643022e+00   2.273920e+01
  -2.584436e+01   1.505939e+01
   9.102218e+00   6.795488e+00
   3.811108e+01  -8.375526e+00
   5.825915e+01  -1.363983e+01
  -7.430454e+01  -8.244722e+00
  -1.266416e+02  -2.259104e+01
   1.030340e+01  -1.104914e+02
   1.664231e+02  -1.339656e+02
   1.702873e+02  -5.809031e+01
   1.600386e+02   3.531267e+01
   7.816790e+01   1.677004e+02
  -1.886984e+01   1.780081e+02
  -1.218383e+02   1.020056e+02
  -7.772716e+01  -1.627406e+01
  -5.100321e+01  -1.101566e+01
  -7.506518e+00  -6.314266e+01
   1.135505e+01  -6.593611e+01
  -2.620770e+01  -1.445671e+01
   2.410027e+01  -8.637367e+01
   2.712880e+01  -8.488972e+01
   8.920397e+01  -1.473787e+01
   4.553937e+01   1.238196e+02
   1.712727e+01   9.848388e+01
  -3.199050e+01   1.303264e+01
  -1.119297e+02  -3.798275e+00
  -3.494139e+01  -1.367998e+02
   2.749417e+01  -7.719190e+01
   5.887137e+01   3.317767e+01
   6.264716e+01   4.299497e+01
  -1.358554e+01   4.918415e+01
  -3.511655e+01   1.837334e+01
   1.454822e+01   1.398791e+01
   3.112598e+01   4.046846e+01
  -1.841400e+01   2.579937e+01
  -5.973164e+01   4.348739e+01
  -1.566255e+02   4.141880e+01
  -8.045882e+01  -3.244779e+01
   2.645491e+01  -6.204274e+01
   5.415581e+01  -1.101238e+02
   5.452507e+01   2.616299e+01
   2.911838e+01   3.910826e+01
  -6.156224e+00   3.500768e+01
   2.281260e+01  -1.568729e+01
  -3.188915e+01  -4.981125e+01
   1.158923e+01  -3.898784e+01
   5.532289e+01  -3.776083e+01
   3.346470e+01  -2.392695e+01
   3.024325e+01  -1.921400e+01
   1.793942e+01   2.891907e+01
   3.422260e+00   8.805116e+00
  -3.591136e-01  -6.132717e+00
  -1.272658e+01   4.198927e+01
  -6.663432e+01   2.033511e+00
  -5.379433e+01  -6.196862e+01
   2.456879e+01  -6.426334e+01
   8.859875e+01  -1.945429e+01
   7.169761e+01  -9.811772e+00
   1.124516e+01   3.890658e+01
  -5.616164e+01   7.795220e+01
  -5.297216e+01   5.165792e+00
  -4.614054e+01  -3.666918e+00
   1.790058e+01  -3.590161e+01
   6.518955e+01   2.698102e+00
   5.767391e+01  -3.546765e+01
   1.032776e+01  -2.519322e+01
  -2.372566e+01   4.048816e+01
  -2.127846e+01   8.585955e+00
   7.000452e+01  -2.572322e+01
