
 $NMID
 id='ANONYMOUS ', fmtdat='(2E16.6)'
 volume=1.0
 tramp=1.0
 $END
   2.577965e+02  -5.212529e+01
   8.654892e+01   3.854372e+00
  -1.298519e+02   3.635872e+01
  -5.222945e+01  -1.965934e+01
   7.722638e+01   3.899040e+01
   1.617932e+01   1.701250e+01
  -5.303658e+01  -2.936590e+01
  -7.019852e+00   5.043914e+01
  -1.927279e+01  -6.346796e+00
  -6.222289e+01  -1.789864e+01
   4.784325e+01   1.846361e+01
  -3.936863e+00   3.982307e+01
  -2.990992e+01  -3.282153e+01
  -2.453787e+01  -6.936126e+00
   2.014114e+01  -1.080697e+01
   2.630131e+01  -1.701833e+01
  -5.491062e+01  -4.374944e+01
  -1.441981e+01   6.257019e+01
  -1.976678e+01  -1.921980e+01
  -4.738330e+00  -6.160262e+01
   3.774771e+01  -5.001345e-01
   2.160563e+01   9.047932e+01
  -6.487183e+01  -5.232271e+01
   1.408013e+01  -1.412496e+02
   3.393471e+01   8.457571e+01
  -4.142825e+00   7.813022e+01
  -2.712481e+01  -9.946229e+01
   3.781712e+01  -1.376100e+01
  -3.304307e+01  -1.291669e+00
  -8.802267e+00   1.932865e+01
   2.395155e+01   5.226901e+01
   3.229846e+01   1.859473e+01
  -1.294178e+01  -4.536621e+01
   1.682377e+00  -5.864944e+01
   1.666823e+01   2.435277e+01
  -2.643359e+01   1.253016e+01
   3.703136e+01  -2.633455e+01
  -2.504718e+01   1.159458e+01
   1.245005e+01  -2.867107e+00
   3.386047e+00  -6.617927e+01
   3.050606e+01   2.213581e+01
  -3.065304e+01   6.770923e+00
   3.351505e+01  -8.424659e+00
   2.522023e+01   2.030598e+01
   2.122695e-01   2.816935e+01
  -1.042617e+01  -4.293136e+00
  -3.895339e+01  -1.194282e+01
  -1.546833e+00   7.584060e+01
   1.415659e+01   2.320242e+01
   6.437309e+00   1.835043e+00
  -1.785783e+01   2.110670e+00
  -2.857049e+01  -1.797842e+01
  -6.045551e+01   1.576987e+01
   3.717110e+01  -1.056940e+01
  -9.880511e-01  -1.521668e+01
   6.367606e+00  -3.859714e+01
   1.010353e+01   8.045308e+00
  -1.292855e+01   1.011281e+01
   1.438377e+01   2.249605e+01
   2.730347e+00   3.046460e+01
  -1.501318e+01  -1.660040e-01
   1.650160e+00  -4.953238e+01
   3.492467e+01   1.679467e+01
  -1.836988e+01   3.440408e+01
   3.524383e+01  -8.391053e+00
   1.709663e+01   3.544731e+01
   1.049702e+01  -2.231435e+00
   4.783139e+00   2.252489e+01
   1.908259e+01   3.434248e+01
  -7.525484e+00   2.395793e+01
   1.179287e+01   1.626328e+00
  -9.893316e+00   1.903763e+01
  -2.018619e+01  -1.647763e+01
   2.050066e+01  -2.154263e+01
  -2.126711e+01   7.020915e+00
   2.195341e+00   1.595500e+00
   3.863447e+01   5.976364e+00
  -1.167680e+01  -1.249533e+01
   9.468008e+00   2.539238e+01
   4.383905e+01   7.596881e+00
  -7.158421e-01  -7.526774e+00
   1.346816e+01   1.215922e+01
   2.425222e+01  -4.648584e+01
  -8.975181e+00  -5.975772e+01
   1.950953e+01  -4.860939e+00
   1.919898e+01   4.539446e+00
   2.116785e+01   1.184711e+00
  -5.527640e+01  -7.736471e-01
   3.585172e+00   6.629580e+00
   4.323457e+01   4.622391e+01
   2.140872e+00   1.058618e+01
  -1.842970e+01   9.038806e-01
  -2.106800e+01   9.069907e+00
  -2.341935e+01  -6.346342e+00
  -1.548183e+00  -3.624765e+01
   2.470901e+01  -3.370654e+01
  -4.348620e+01  -1.501931e+01
   7.064737e+00   1.349540e+01
  -4.428615e+00   3.058754e-01
   5.599418e+00  -7.347902e+01
   5.535489e+00  -3.540794e+00
   2.764731e+01   3.776823e+01
   1.307600e+01   7.236694e+00
   5.826335e-01   1.020749e+00
  -2.981632e+00  -3.988834e+01
  -2.350379e+01   1.652138e+01
  -8.788994e+00  -1.028052e+01
   2.412519e+01  -9.076333e+00
  -1.587205e+01  -2.690312e+00
   2.537739e+01   4.172698e+01
  -4.257166e+00  -2.405878e+00
   1.395523e+01   2.238525e+01
   1.849648e+01  -1.735795e+01
   1.637843e+01   2.734515e+01
  -1.598047e+01   4.437954e+01
  -2.508064e+00  -3.709234e+01
  -1.433104e+01  -1.703246e+01
  -3.873787e+01   2.167438e+01
   1.602241e+01   1.189408e+01
  -2.998125e+00   2.285194e+01
  -2.567646e+01  -1.218622e+01
  -7.639237e+00  -4.373655e+01
  -1.572345e+00   1.715936e+01
  -2.453989e+00  -5.948523e+00
  -1.427026e+01  -1.429757e+01
  -1.165471e+01   2.523299e+01
  -3.113480e+01   2.760689e+01
  -2.761117e+01  -3.131803e+01
  -2.103319e+01  -1.893037e+01
   1.841436e+01  -4.605052e+01
  -1.698557e+01  -6.329213e-01
   3.095356e+01   2.181306e+01
   1.245348e+01  -1.875608e+01
  -1.302016e+01  -4.972407e+01
   2.584043e+01   2.751177e+01
   1.934590e+01   2.834059e+01
  -5.176723e+00   1.377161e+01
  -1.509093e+01   2.006359e+01
  -3.264933e+01  -2.714131e+01
   1.378570e+01   4.218997e+00
   4.147354e+00   8.927577e+00
  -3.535394e+01  -2.404219e+01
   9.739006e+00  -3.040334e+00
  -2.858095e+00  -1.840058e+01
   5.818702e+01  -3.633782e+01
   3.723594e+01  -3.860871e+01
   1.588080e+00  -2.765933e+01
  -4.413855e+01  -7.332973e+00
   4.884636e+01  -1.370837e+01
  -1.571009e+00   1.820366e+00
   3.897685e+00   5.304787e+00
   3.408820e+00   9.164613e-01
  -9.141291e+00  -8.246315e+00
  -2.542085e+01   7.759343e+00
   4.486516e+01  -4.282427e-01
   3.914305e+00   1.954547e+01
  -1.869584e+01   8.448651e+00
   7.874128e+00  -5.018691e+01
  -3.689929e+00  -5.460300e+00
  -5.285169e+00  -2.578463e+01
   3.130574e+00  -1.668694e+01
   1.771409e+00  -5.402088e+01
  -2.688895e+00  -1.315825e+01
  -1.293614e+01  -4.828403e+00
   1.602684e+01   2.083542e+01
  -2.167694e+01  -7.041909e+00
  -2.580250e+01  -3.419627e+01
  -4.038833e+00   5.362469e+01
   1.556020e+01  -3.733556e+00
   1.428803e+01   3.143056e+01
  -1.132941e+00  -3.748101e+01
   2.735301e+01   1.090387e+00
  -1.359972e+01  -1.042841e+01
   5.650043e+01   4.303920e+01
  -7.710367e+00  -7.230903e+00
   3.223206e+00  -9.217265e+00
  -1.156339e+01  -1.598645e+01
  -2.123857e+00  -4.318018e+01
   1.633389e+01   1.214816e+01
  -3.030107e+01   1.682023e+01
   2.548487e+00  -2.422924e+00
  -5.184769e+01  -1.128884e+01
   2.494718e+00   1.287643e+00
   2.409398e+01  -6.253966e+00
   1.943081e+01   9.594246e+00
   4.629673e+01   1.273770e+01
   1.156510e+01   5.549548e+01
   1.265823e+01  -4.271267e+00
  -5.718565e+00   2.440014e+01
   1.030426e+00  -2.408993e+01
   2.411279e+01   1.726404e+01
  -8.979626e+00  -7.040013e-01
   9.614914e+00  -1.606719e+01
  -3.036534e+01   5.215576e+00
  -2.812241e+00  -2.576299e+01
  -3.016452e+01   2.832422e+01
   8.714957e+00   3.970187e+01
  -3.843179e+01   1.628118e+01
   3.533861e+00  -2.429245e+01
   7.044585e+00   3.139979e+01
   3.453386e+01  -2.764649e+01
  -8.731163e+00   1.573375e+01
   3.602695e+00   2.139946e+01
  -2.996508e+00   1.099514e+01
   1.928627e+01   2.976910e+00
  -6.721646e+01  -5.731280e+00
  -3.234264e+00  -2.412884e+01
  -2.448167e+01   6.858273e+00
   1.146469e+01   3.176233e+01
  -1.568974e+01   4.812084e+01
  -2.020979e+01  -1.392797e+01
   1.316851e+01  -3.243133e+01
  -2.491099e+01  -1.930133e+01
  -8.913271e+00   5.289986e+01
   1.355501e+01   1.097496e+01
  -9.980915e+00   5.658711e+01
   2.216197e+01  -1.960660e+01
   9.610682e+00  -1.039161e+01
  -4.519164e+01   5.219772e+01
   1.264962e+01   3.132830e+00
  -7.263144e+00   5.785699e+00
   1.753022e+01  -7.060866e+00
  -4.547947e+01   6.007198e+00
  -6.580921e+00  -5.456888e+01
  -5.832847e+00  -2.844889e+00
  -3.825815e+01  -2.977831e+01
   4.340397e+00  -2.165231e+01
  -8.986628e+00   1.017369e+01
  -2.804722e+01   1.552329e+01
   1.521829e+01  -1.797654e+01
   2.223298e+01  -1.785017e+01
   1.195843e+01  -8.854137e+00
  -2.378774e+01   2.544035e+01
   2.898106e+01   1.436038e+01
  -1.596683e+01   4.296591e+01
  -4.665365e+00   6.288148e+00
   2.005283e+01  -2.487983e-01
  -5.030089e+00  -2.255970e+01
   2.954733e+01   3.454021e+01
  -4.746757e+00  -1.721542e+00
   1.791798e+01  -7.159331e+00
  -1.333662e+01   2.201749e+00
  -2.137249e+01   1.841787e+01
   3.703203e+01   2.858644e+00
  -2.404921e+01  -7.272266e+00
   3.740848e+00  -2.819124e+01
   3.102333e+01  -2.900126e+01
  -1.108270e+01  -2.304026e+01
  -2.455493e+01   3.421722e+01
   2.507040e+01  -5.359527e+01
   1.213431e+00  -2.193763e+01
   7.772582e+00   7.554242e+00
  -4.672246e+00   1.218918e+01
  -2.501680e+01  -1.899159e+01
   4.541391e+01  -2.922357e+01
  -2.257569e+01  -1.453783e+01
  -9.137982e+00   3.675133e+00
  -7.652429e+01   2.985670e+01
   3.933723e+01  -2.617124e+01
   1.842875e+00   2.433784e+01
   2.434225e+01   1.359711e+01
   4.903072e+00  -2.206992e+01
   2.585879e+01   5.421909e+01
  -1.519245e+01   4.075258e+00
  -2.871143e+01   4.456338e+00
  -3.249326e+01  -3.401307e+01
   2.120301e-01  -3.830779e+01
   1.592286e+01   2.468369e+00
   4.425287e+00  -1.250236e+00
  -1.532926e+01  -3.455452e+01
  -1.578478e+01  -2.451909e+01
   3.050557e+01   1.190866e+01
  -3.273066e+01  -2.720785e+00
   6.095742e+00  -2.802053e+00
   5.622404e+00   2.048437e+01
   1.311854e+01  -2.096229e+01
  -6.634941e+00  -5.492534e+01
  -2.599012e+01   7.779701e+00
   7.274829e+00   1.500274e+01
   2.982405e+00   3.118332e+00
   2.214019e+01   1.581678e+01
  -1.888546e+01   1.040142e+01
   2.364697e+01   1.809418e+01
  -4.111785e+01  -2.925920e+01
   1.375631e+01   2.017568e+01
   2.038911e+01  -7.183125e+00
   1.563429e+01   5.011102e+01
  -2.365925e+01   5.184436e+00
   1.850729e+00   8.208758e-01
  -2.196680e+01  -3.988172e+01
   1.475883e+01   1.059831e+01
  -1.419493e+01   2.702001e+01
   1.596363e+01   3.028165e+01
  -1.065604e+01  -9.171812e+00
  -4.948885e+01  -1.819226e+00
   2.604753e+01   2.060098e+01
  -3.380872e+01   6.849203e+00
  -9.049409e+00  -1.238822e+01
   3.967560e+01   3.083177e+01
   1.985474e+00   4.995110e+01
   2.922624e+01  -2.286650e+01
  -2.867786e+00   2.199330e+01
   2.537677e+01  -1.277860e+01
   4.586193e+01   1.228046e+01
  -1.675103e+01  -1.051428e+01
  -3.081143e-01  -1.902704e+01
  -1.939762e+01  -2.320933e+01
   6.301965e+00  -9.703441e+00
  -3.438430e+01  -1.994251e+01
   3.732660e+01  -1.343101e+00
  -4.644355e+01   3.552876e+01
   4.700743e+00  -5.580263e+00
  -2.991680e+01  -1.971173e+01
   4.539721e+01  -8.995140e+00
   9.619473e+00   2.073927e+01
   2.376329e+01  -1.446820e+01
   1.451032e+01  -4.794977e+00
   5.127929e+00   1.140940e+00
  -2.867175e+01   2.103425e+01
   5.232574e+00   1.808825e+01
