
 $NMID
 id='ANONYMOUS ', fmtdat='(2E16.6)'
 volume=1.0
 tramp=1.0
 $END
   3.132550e+03  -1.172966e+02
   1.977418e+03   1.643066e+03
  -2.764664e+02   1.972399e+03
  -1.451643e+03   1.012746e+03
  -7.268926e+02  -9.627831e+01
   7.555581e+01  -3.996322e+02
   4.279187e+02   9.484401e+01
  -9.885481e+00   6.125930e+02
  -5.171217e+02   5.004822e+02
  -6.104060e+02  -8.341635e+01
  -2.396860e+02  -5.783669e+02
   1.021617e+02  -6.230270e+02
   3.405854e+02  -1.930327e+02
   2.156032e+02   3.694912e+02
   5.919126e+00   4.881493e+02
  -3.595851e+02   8.905812e+01
  -2.514498e+02  -5.898383e+02
   1.471173e+02  -5.391974e+02
   3.382395e+02  -1.502241e+02
   3.972878e+02   2.173411e+02
   1.273953e+02   2.838953e+02
  -1.727266e+02   2.164643e+02
  -4.919672e+01   3.148801e+01
   1.530592e+02   1.430896e+02
   2.557583e+02   2.316523e+02
   1.693536e+01   3.341229e+02
  -4.269902e+02   1.880697e+02
  -5.847501e+02  -1.837107e+02
  -1.238360e+02  -4.333216e+02
   2.963016e+02  -2.837755e+02
   4.250512e+02   1.336034e+02
   1.190074e+02   2.703877e+02
  -2.366203e+02   4.012156e+02
  -3.716524e+02   5.653514e+01
  -2.803124e+02  -2.055578e+02
  -1.944141e+01  -2.596115e+02
   7.853277e+01  -1.326908e+02
  -9.007171e+00   1.086710e+02
  -1.710449e+02   1.924326e+02
  -2.434964e+02  -8.766526e+01
  -2.729689e+01  -4.857089e+02
   2.280467e+02  -3.968428e+02
   3.303844e+02  -8.563869e+00
   1.006266e+02   3.238998e+02
  -1.272630e+02   1.687185e+02
  -2.158007e+02  -2.151064e+02
   8.131840e+01  -3.228889e+02
   3.406689e+02  -3.673924e+01
   4.066187e+02   2.876679e+02
   1.349508e+02   3.801340e+02
  -2.161707e+02   2.217371e+02
  -4.356435e+02  -1.121910e+02
  -2.399564e+02  -2.332158e+02
   2.030252e+01  -2.407346e+02
   2.893256e+02  -5.142229e+01
   1.636838e+02   8.754436e+01
   4.639640e+00   1.175026e+02
  -6.065387e+01  -4.262247e+01
   7.686306e+01  -8.742095e+01
   2.077397e+02  -1.520160e+01
   1.005171e+02   1.700213e+02
  -1.269214e+02   1.701954e+02
  -2.228547e+02   9.187832e+01
  -1.895483e+02  -6.861891e+01
   3.615402e+01  -2.053967e+02
   2.460251e+02  -2.479807e+02
   2.747364e+02  -8.597626e+01
   2.005351e+02   5.435956e+01
   5.176204e+01   3.162470e+02
  -3.281881e+01   2.878587e+02
  -4.756768e+01   1.657449e+02
  -2.927613e+01   6.121215e+01
  -8.935812e+01   1.317734e+02
  -1.785926e+02   1.167769e+02
  -2.430027e+02  -5.727115e+01
  -1.416419e+02  -2.294928e+02
   2.503148e+01  -2.069489e+02
   9.552833e+01  -4.373496e+01
   1.141327e+02   2.349809e+02
  -3.230854e+01   2.546309e+02
  -1.974889e+02   8.594581e+01
  -2.391350e+02  -1.716582e+02
  -1.332229e+02  -2.487434e+02
   6.125456e+01  -2.304422e+02
   1.695926e+02  -1.016771e+02
   1.516662e+02  -6.519774e+01
   1.255057e+02  -5.671488e+01
   2.104942e+02   1.378994e+01
   3.149423e+02   1.010624e+02
   2.131605e+02   3.225937e+02
  -7.529987e+01   3.519252e+02
  -3.220215e+02   2.840367e+02
  -4.109819e+02   1.151916e+02
  -2.220612e+02  -1.052343e+02
   1.401597e+01  -1.674635e+02
   6.382690e+01  -1.498617e+02
   2.435183e+01   2.456949e+01
  -9.827831e+01   8.353911e+00
  -1.438235e+02  -6.591261e+01
   2.211543e+00  -1.347429e+02
   1.256129e+02  -6.447640e+01
   7.819765e+01   4.398843e+01
  -3.640776e+01   8.066496e+01
  -1.446383e+02  -4.630867e+01
  -6.788249e+01  -2.147964e+02
   5.899438e+01  -2.568295e+02
   2.146650e+02  -1.311818e+02
   3.085980e+02   7.492250e+01
   1.834870e+02   2.397578e+02
   3.895694e+01   2.503609e+02
  -1.492691e+02   1.435838e+02
  -1.798409e+02  -1.596561e+01
  -3.585855e+01  -6.580553e+01
   5.417107e+01   6.109871e+01
   1.357430e+00   1.155102e+02
  -1.051965e+02   6.210441e+01
  -1.258428e+02  -1.446564e+01
  -5.075539e+01  -5.861934e+01
   5.592726e+01  -6.127788e+00
  -1.136335e+01   6.641074e+01
  -1.285322e+02   3.087841e+01
  -2.911380e+02  -4.811490e+01
  -2.838134e+02  -1.736630e+02
   1.799822e+01  -2.359089e+02
   2.057053e+02  -1.602672e+02
   2.538396e+02  -5.962736e+01
   1.362164e+02   6.665987e+01
  -5.604471e+01   8.044380e+01
  -1.130737e+02  -1.888437e+01
   6.307644e+01  -8.548929e+01
   1.610179e+02  -7.013072e+01
   2.025951e+02   9.592249e+01
   4.364983e+01   1.526526e+02
  -6.205838e+01   1.336933e+02
  -9.978339e+01   3.351729e+01
  -1.646108e+01   1.946180e+01
   9.311434e+01   3.398060e+01
  -2.280292e+01   1.507025e+02
  -1.810876e+02   1.188288e+02
  -2.151257e+02  -4.933289e+01
  -1.960218e+02  -1.259007e+02
  -1.466125e+01  -1.958120e+02
   1.324843e+02  -1.222749e+02
   1.609975e+02   1.443867e+01
   1.031253e+02   9.807596e+01
  -4.264858e+01   1.120935e+02
  -7.839856e+01   6.277602e+00
   2.480593e+01  -2.832306e+01
   3.451558e+01   2.576073e+00
  -1.617680e+00  -1.643692e+01
  -5.311045e+01  -7.754065e+00
  -9.830332e+01  -1.667761e+01
  -5.771344e+01  -1.203124e+02
   1.499416e+02  -8.174783e+01
   1.724163e+02   4.144002e+01
   1.270874e+02   1.421971e+02
   6.355160e+00   2.088482e+02
  -9.610463e+01   1.271222e+02
  -1.432575e+02   6.913203e+01
  -1.192672e+02  -8.051133e+01
  -1.860555e+01  -6.745210e+01
  -8.490264e+01   1.492788e-01
  -4.961046e+01   3.017449e+00
   3.150639e+01  -7.615514e+01
   5.502113e+01  -6.250793e+01
   1.343047e+02  -6.973953e+01
   9.041088e+01   6.337766e+01
  -1.761737e+01   1.492176e+02
  -1.929694e+02   4.459132e+01
  -1.884132e+02  -4.474629e+01
  -6.773740e+01  -1.683557e+02
   7.826489e+01  -2.164386e+02
   1.831434e+02  -9.640978e+01
   1.727747e+02   1.004397e+02
   9.090359e+01   1.797564e+02
  -4.295080e+01   1.525168e+02
  -4.881402e+01   7.638238e+01
  -4.675431e+01   9.160469e+01
  -1.912752e+01   8.805107e+01
  -6.540108e+01   2.389940e+01
  -1.074723e+02  -8.924241e+01
  -1.169016e+02  -1.416637e+02
  -6.784951e+01  -1.611076e+02
   7.427655e+01  -1.648973e+02
   1.349113e+02  -2.342721e+01
   9.588544e+01   1.770846e+02
   9.229271e+00   1.466261e+02
  -4.704933e+01   4.469353e+01
  -1.488121e+01   1.716793e+00
   2.286699e+01  -2.597186e+01
  -1.629472e+00  -6.324152e+01
  -1.344425e+01  -1.636396e+01
  -8.136186e+01   8.487066e+00
  -4.950362e+01  -2.166876e+01
   5.019385e+01  -5.819155e+01
   1.194570e+02   1.610970e+01
   1.340521e+02   3.770956e+01
   1.762406e+01   7.580907e+01
  -1.429140e+02   5.000536e+01
  -1.609977e+02  -3.979443e+00
  -6.945314e+01  -6.914950e+01
   1.095468e+02  -3.810774e+01
   6.343246e+01  -4.834256e+00
   1.533131e+01   4.665274e+01
  -4.487062e+01   3.977864e+01
  -5.915026e+01  -2.925482e+01
  -4.814354e+01  -1.392682e+01
  -3.735886e+01   8.460766e+00
  -2.311674e+01  -4.147842e+01
  -1.791250e+01  -8.439055e-01
  -3.675078e+01  -1.376560e+02
   4.976621e+01  -1.507204e+02
   1.233805e+02  -9.137185e+01
   1.670091e+02  -2.166326e+01
   1.196282e+02   1.001993e+02
  -1.711697e+01   1.537407e+02
  -8.633726e+01   7.244318e+01
  -3.329187e+01  -4.832004e+00
   7.991074e+01  -5.374969e+00
   8.932870e+01   9.231079e+01
   2.336759e+01   9.938506e+01
  -1.014293e+02   7.509602e+01
  -1.252567e+02   7.938503e+00
  -1.193469e+02  -6.768717e+01
  -1.491205e+01  -8.009998e+01
  -7.516289e-03   1.943951e+01
   1.500918e+01   3.321874e+01
  -3.384760e+01   1.984519e+01
  -1.012749e+02  -3.031078e+01
  -1.690014e+01  -1.000513e+02
   7.621754e+01  -1.287961e+02
   1.444482e+02  -5.146797e+01
   1.161056e+02   7.783198e+01
   3.914092e+00   1.422621e+02
  -6.362178e+01   1.057420e+02
  -9.169428e+01  -1.711498e+01
   3.077120e+01  -9.056681e+01
  -1.401023e+01  -5.702950e+01
   3.722812e+01   1.383685e+01
   3.140500e+01   1.395903e+01
  -1.341876e+01  -3.300037e+01
   4.623392e+00  -5.762175e+01
   2.698744e+01   1.748331e+00
   3.931177e+01   7.990088e+01
   4.246282e+01   7.840401e+01
  -4.291960e+01   6.997276e+01
  -8.508798e+01  -2.180433e+01
  -9.056378e+01  -1.349257e+01
  -1.283639e+01  -2.220287e+01
   2.708529e+01  -1.327827e+01
   5.331228e+01   4.345647e+01
   3.536968e+01   1.040765e+01
   1.195005e+01  -1.866909e+01
  -3.200730e+01   5.145843e+00
   5.751593e+00  -3.109146e+01
  -4.903711e+01   1.799143e+01
  -8.071752e+01   7.502068e+00
  -5.294239e+01  -4.522529e+01
  -1.444316e+01  -1.115066e+02
   9.823789e+01  -3.509937e+01
   1.503741e+02  -3.598529e+01
   1.158304e+02   7.289153e+01
   5.526031e+01   1.030466e+02
  -6.342970e+01   1.289981e+02
  -1.112202e+02   3.662751e+01
  -5.093282e+01  -1.098894e+01
   5.957863e+01  -2.776062e+01
  -2.884766e+01   1.669015e+01
  -6.606893e+01  -3.017109e+01
  -7.589133e+01  -7.458171e+01
  -3.911863e+01  -1.290760e+02
   5.138623e+01  -6.971164e+01
   9.920117e+01   2.876054e+01
   5.267797e+01   1.101472e+02
  -1.541676e+01   1.068792e+02
  -4.899612e+01   4.169492e+01
  -7.858531e+01  -6.975881e+01
  -1.501758e+01  -1.106430e+02
   2.073942e+01  -1.784978e+01
   5.654737e+01   4.175874e+00
   2.944971e+01   4.899442e+01
  -2.457965e+01   6.504897e+01
  -1.406583e+01   3.680053e+01
   6.406713e+01  -4.041902e+01
   6.463912e+01  -1.177838e+01
   2.416870e+01   2.369311e+01
  -9.838653e+01   2.941167e+01
  -7.826591e+01  -3.398583e+00
  -9.007863e+01  -2.524676e+01
  -9.762290e+00  -1.145625e+02
   8.322166e+01  -1.362770e+01
   6.018012e+01  -5.343320e+00
  -6.016954e-01   3.296125e+01
  -1.506836e+01   2.857770e+01
  -8.136054e+00   1.332946e+01
  -3.830960e+01  -3.878433e+01
   2.971886e+01  -3.792562e+01
   1.140090e+01  -2.102543e+00
   3.323235e+01  -8.393541e+00
   5.717717e+01   9.848091e+00
   3.815770e+01  -3.035320e+01
   6.859564e+00   3.951995e+01
   1.556552e+01   5.466132e+01
  -1.220849e+01   8.080201e+01
  -2.068394e+01  -1.998402e+00
  -6.891307e+00  -2.595440e+00
  -7.800684e+00  -3.094879e+01
   2.868738e+01  -2.854121e+01
   3.667105e+01   3.170717e+01
   7.824385e+00   5.348695e+01
  -9.680151e+01  -1.063579e+01
  -3.248787e+01  -1.544225e+01
   2.953723e+01  -5.896357e+01
   5.543399e+01  -1.356607e+00
   4.067078e+01   1.396813e+01
  -7.621231e+00   4.950709e+01
  -7.796314e+01  -1.986035e+01
  -5.656578e+01  -7.466950e+01
   1.833575e+01  -5.045888e+01
   6.141543e+01  -1.129328e+01
