
 $NMID
 id='ANONYMOUS ', fmtdat='(2E16.6)'
 volume=1.0
 tramp=1.0
 $END
   7.644366e+02   1.881235e+02
   5.872694e+02   4.706020e+02
   1.380528e+02   5.329022e+02
  -1.802326e+02   4.208868e+02
  -2.175068e+02   7.737739e+01
  -4.075812e+01  -9.214031e+00
   6.770701e+01   1.099085e+02
   2.883795e+01   2.013184e+02
  -3.727133e+01   1.551796e+02
  -1.041009e+02   9.009006e+01
  -1.432633e+02  -1.088246e+02
  -7.777329e+01  -6.136545e+01
  -7.376236e+01   4.509426e+00
  -2.077341e+01   1.538586e+02
  -5.703606e+01   1.383072e+02
  -1.108462e+02  -3.760622e+01
  -1.204297e+02  -9.923694e+01
  -9.570648e+00  -2.087409e+02
  -1.569830e+01  -2.487567e+02
   8.398205e+01  -6.529396e+01
   1.888411e+01   1.555299e+02
   4.080100e+01   2.775628e+01
   1.024403e+01   3.208885e+01
   6.514321e+01  -2.411078e+00
   9.011256e+01   6.392320e+01
  -1.138141e+01   1.268944e+02
  -5.868731e+01   6.168641e+01
  -1.522145e+02  -1.840141e+01
  -4.509681e+01  -3.986107e+01
   5.679647e+01  -6.447772e+01
   8.830769e+01  -3.153563e+01
   6.893805e+01   2.164332e+01
  -3.217513e+01   1.101794e+02
  -1.178613e+02   7.528675e+01
  -8.849311e+01   2.127149e+01
  -6.027541e+01  -9.540467e+01
   1.673106e+01  -5.054138e+01
   1.647543e+01  -1.596504e+01
  -4.161857e+01   3.142163e+01
  -5.441627e+01   1.070483e+01
  -4.465534e+01  -4.851618e+01
   9.163080e+00  -8.312089e+01
   1.029139e+02   1.672837e+01
  -2.968997e+00  -8.390505e-01
  -3.549870e+01   6.519402e+01
  -9.541372e+01  -3.860368e+01
   7.055907e+00  -6.730416e+01
   1.232056e+02  -3.776158e+01
   2.014964e+02   3.859738e+01
   2.805851e+01   9.912544e+01
  -7.994088e+01   1.144422e+02
  -1.655706e+02  -3.057251e-01
  -1.289968e+02  -3.373989e+01
  -3.053209e+01  -4.125406e+01
   1.032031e+02   3.408512e+00
   2.603854e+01  -4.488791e+01
   6.425054e+01   1.489630e+01
   2.439357e+01  -4.661887e+00
   5.817911e+01  -2.583815e+01
   5.451083e+01   6.378068e+01
   2.719502e+01   4.986635e+01
  -7.960324e+01   7.095820e+01
  -1.132322e+02   7.303177e+01
  -8.971670e+01  -4.375709e+01
  -2.815530e+01  -6.802987e+01
   4.106754e+01  -8.472444e+01
   9.632281e+01  -8.914305e+01
   4.204870e+01   4.685716e+01
   1.156151e+01   3.629644e+01
   3.127521e+01   7.007738e+01
   4.006621e+01   4.547999e+01
   2.842254e+01   3.640098e+01
  -1.195930e+01   5.302350e+01
  -6.794956e+01   2.963438e+01
  -9.644635e+01  -7.364175e+01
  -1.753476e+01  -3.466622e+01
   3.476531e+01  -7.016091e+01
   6.366504e+01   5.357598e+01
   4.128995e+01   1.114061e+02
   1.934434e+00   9.154538e+01
  -9.628911e+01   2.238509e+01
  -1.124071e+02  -6.384493e+01
  -6.565739e+01  -1.214802e+02
  -3.293688e+01  -5.882731e+01
  -3.681834e+00  -5.491392e+01
   4.380921e+01  -6.812259e+01
   2.196331e+01  -2.515990e+01
   8.495092e+01  -1.749928e+01
   1.392828e+02   2.124502e+01
   7.468250e+01   8.189979e+01
   2.622407e+01   1.212152e+02
  -5.982429e+01   7.355454e+01
  -1.208234e+02   3.770639e+01
  -3.338899e+01  -4.853317e+00
   2.415398e+01  -4.453084e+01
  -1.952701e+01  -8.690157e+01
   1.478681e+01  -4.703166e+01
  -7.039006e+01  -1.926495e+01
  -4.608046e+01  -2.684076e+01
   2.717406e+01  -7.256491e+00
   4.458087e+00   6.600007e+00
   3.855836e+01  -2.708970e+01
   5.338866e+00   2.156971e+01
  -5.275188e+01  -1.548598e+01
   4.975182e+00  -1.269618e+02
   4.399083e+01  -8.034863e+01
   6.034065e+01  -6.508946e+01
   1.557281e+02   1.650522e+01
   1.224184e+02   1.001967e+02
   3.743635e+01   9.721585e+01
  -7.418431e+01   8.551208e+01
  -7.493085e+01   6.291702e+00
  -7.172272e+01  -1.050425e+01
   4.144716e+01   5.450030e+01
  -2.534422e+01   1.968819e+01
   2.703156e+00   4.303306e+01
  -2.709120e+01   1.101969e+01
   1.133301e+01  -3.501907e+01
   7.253968e+01   2.694632e+01
   7.445346e+01   2.385192e+01
  -5.263826e+01   2.085787e+01
  -6.706348e+01   6.027688e+01
  -8.519021e+01  -1.710621e+01
  -1.135809e+01  -6.597818e+01
   7.005395e+01  -4.023865e+01
   5.723886e+01  -4.587008e+01
   4.761581e+01   7.020883e+00
  -1.497365e+01   3.019773e+01
  -7.132120e+01  -1.565663e+01
  -3.014146e+01   8.878918e-01
   4.001096e+01  -3.027581e+01
   6.032612e+01  -6.759133e+00
   5.797809e+01   3.820814e+01
  -1.849822e+01   4.179040e+01
  -3.981331e-01   1.253326e+01
  -5.457268e-01   6.291145e+00
  -1.374008e+01  -1.739470e+01
   4.975393e+01   2.018414e+01
  -4.234368e+01   2.820663e+01
  -6.031705e+01   1.723541e+01
  -8.252684e+01  -9.713159e+00
  -7.730027e+01  -8.967048e+01
   7.428388e+00  -7.569354e+01
   5.167955e+01  -3.275177e+01
   1.515222e+01   2.162798e+01
  -9.102850e+00   6.891105e+00
  -2.922908e+01   4.389899e+01
  -2.772957e+01  -2.841365e+01
   1.496609e+01  -3.409491e+01
  -1.156510e+01   5.868985e+00
  -3.989342e+01   2.839628e+01
  -6.084653e+01   1.718446e+00
  -6.389597e+01  -5.252285e+01
   2.154921e+01  -7.983984e+01
   3.578114e+01  -2.185839e+01
   8.898785e+01  -1.803821e+01
   2.430293e+01   5.698563e+01
  -1.849382e+01   4.649307e+01
  -2.711750e+01   3.248723e+01
  -2.473494e+01  -3.101846e+01
   7.107677e+00   9.584538e+00
   2.936960e+01  -1.642061e+01
  -1.192311e+01   2.876573e+01
  -5.462522e+01   1.113531e+01
   2.035044e+01  -5.301265e+01
   2.180405e+01  -4.108350e+01
  -6.110417e+00  -2.940132e+00
   6.542824e+01   5.094810e+01
  -7.078754e+01   6.511570e+00
  -5.843817e+01   8.430713e+00
  -3.692687e+01  -7.577291e+01
   3.661107e+01  -4.581509e+01
   4.463452e+01  -7.256874e+00
   6.567058e+01   1.316727e+01
   1.802207e+00   4.386681e+01
  -3.291465e+01   4.096765e+01
  -6.719795e+01   3.410141e+01
  -1.406110e+01   1.084737e+01
  -3.705092e+00   2.746093e+01
  -1.695978e+01   9.720792e+01
  -4.524956e+01  -3.090967e+01
  -6.218096e+01  -2.403486e+01
  -6.282845e+01  -8.781931e+01
   1.679861e+01  -6.475080e+01
   7.955614e+01   2.129385e+01
   4.666512e+01   2.850101e+01
  -6.628399e+00   6.395681e+01
  -1.501038e+01   7.252344e+01
  -3.239820e+01  -3.935172e+00
  -9.268210e+00  -4.920371e+01
   3.773470e+01  -1.058525e+01
  -4.597471e+01  -8.236878e+00
  -2.149714e+01   3.017482e+01
  -1.781154e+01  -2.234559e+01
   1.820186e+01  -7.663270e+01
   5.178405e+01   5.701258e+00
   7.045135e+01   3.109668e+01
   2.553357e+01   2.535264e+01
  -5.484878e+01   5.802261e+01
  -8.566373e+01   1.695941e+01
  -3.907360e+01  -4.638175e+00
  -2.023940e+00  -3.456949e+00
   6.174738e+00   3.133741e+01
   1.212552e+01   1.038366e+01
  -1.898528e+01   4.369299e+01
  -2.137133e+01  -1.722679e+01
   2.905568e+01  -3.533376e+01
  -1.386409e+00  -2.907438e+01
  -6.175154e+00   4.482175e+01
  -2.914739e+01  -2.495202e+01
  -9.973494e+00   2.183479e+01
   9.633404e+00  -4.806315e+01
   2.655618e+01  -2.155730e+01
   4.877540e+01   3.893793e+00
   5.907740e+01   1.390476e+01
   5.258299e+00   5.088566e+01
  -2.851637e+00   3.001208e+01
  -6.995672e+01   3.002731e+01
  -3.553255e+01   1.378789e+01
   7.151493e+01  -1.501268e+01
   2.844714e+01   1.645095e+01
  -1.240386e+01   4.474459e+01
  -7.189017e+01  -1.434176e+01
  -1.382339e+01   1.200418e+01
  -1.681292e+01  -2.712205e+01
   3.132272e+01  -1.187674e+01
   1.160639e+01   3.181672e+01
  -2.292854e+01   4.088678e+01
  -3.773767e+01  -2.375968e+00
  -1.169009e+01  -4.523246e+01
   1.660189e+01  -6.357192e+01
   2.899436e+01  -3.450535e+01
   4.740957e+00  -9.838514e+00
  -3.154548e+00   8.026026e+01
   5.775140e+00  -7.002502e+00
  -3.142003e+01  -1.604154e+01
   5.402861e+00  -3.532605e+01
   2.450633e+01  -2.671586e+01
   2.178796e+01  -5.185210e+01
   8.895612e+00  -2.821344e+00
  -3.483449e+01  -8.496715e+00
  -3.652526e+00  -1.269891e+00
   5.636070e+01  -5.007773e+00
   2.350586e+01  -1.403351e+01
  -8.446997e+00   8.223796e-01
   1.292892e+01   2.843018e+01
  -1.375472e+01   1.732027e+01
  -7.735099e+00  -2.412939e+01
  -4.192270e+01  -4.117439e+01
   1.126392e-01  -9.830415e-01
   2.366886e+01  -3.217156e+00
   8.918381e+00   1.417631e+01
   2.683148e+01  -2.113379e+01
   4.234242e+01  -3.653011e+01
   3.413017e+01  -3.872383e-01
   1.288597e+01  -2.922153e+01
  -3.097648e+01   3.044666e+01
   3.763051e+00   4.027606e+00
  -2.812770e+01  -1.134393e+01
   6.948306e+01  -5.747846e+01
   6.424694e+01  -3.037187e+01
  -9.798856e+00  -5.805331e+00
  -1.112367e+01   8.041998e+00
  -1.145875e+01   4.061093e+01
   1.758201e+00   1.909575e+01
   2.324456e+01  -3.495436e+01
   4.776662e+01   1.871548e+01
  -1.287917e+01   1.403714e+01
  -8.520015e+00  -1.012079e+01
  -1.898518e+01  -2.995633e+01
  -3.676056e+01  -3.799109e+01
  -5.478145e+01  -1.746204e+01
   5.526085e+01  -2.042384e+01
   4.542468e+01   2.298403e+01
  -2.015022e+01   3.761778e+01
   7.066692e+00  -1.878148e+01
  -2.508688e+01  -3.608795e+01
   5.867840e+00  -2.436165e+01
   4.532014e+01  -3.853912e+00
   6.703562e-01  -2.376671e+00
   1.354356e+01   3.511635e+01
  -3.878100e+01  -3.797970e+01
   8.541337e+00   1.656670e+01
  -6.057438e+00  -4.283201e+01
   2.300574e+01  -4.624747e+01
  -8.033091e+00   4.434511e+01
  -3.074324e+01   2.322565e+01
  -6.190056e+01   2.317081e+01
  -2.178498e+01  -3.843333e+01
  -7.382351e+00  -2.227212e+01
   3.409634e+01  -1.223290e+01
   1.051523e+01   1.048230e+01
   1.731902e+01  -4.758136e+00
  -1.761535e+01  -1.740475e+01
  -1.179891e+01  -2.881639e+01
  -2.180177e+01  -1.211532e+01
  -2.286880e+01  -2.894038e+01
  -1.232161e+01  -1.244837e+01
  -2.840817e+00   1.277718e+01
   1.941691e+01  -2.570211e+01
   2.221017e+01   1.479005e+01
  -3.496097e+01   2.085869e+01
   2.708881e+00   9.843840e+00
   3.437334e+01   8.588344e+00
  -2.867307e+01   1.959259e+01
  -7.129456e+00  -5.543490e+00
  -2.184376e+01  -3.883459e+01
  -1.052662e+01  -5.865157e+01
   1.474958e+01  -3.549514e+00
  -8.820090e+00   1.953092e+01
  -6.681555e+01   4.579862e+01
  -7.554052e+01   6.938439e+00
  -4.345597e+01   2.027279e+01
   1.017317e+00   8.928839e+00
   3.052371e+01   2.632297e+00
   3.893441e+00  -1.281543e+01
  -1.220905e+01   3.068999e+01
   1.769933e+01  -9.542959e+00
   2.652574e+01   2.599647e+01
   5.299430e+01  -2.874970e+01
