
 $NMID
 id='ANONYMOUS ', fmtdat='(2E16.6)'
 volume=1.0
 tramp=1.0
 $END
   3.122074e+03  -1.978052e+01
   1.869662e+03   1.588668e+03
  -3.247144e+00   1.875329e+03
  -1.212014e+03   9.424042e+02
  -7.499462e+02  -1.551658e+02
   3.196871e+02  -3.635580e+02
   4.521803e+02   2.088923e+02
  -3.043920e+01   6.469963e+02
  -5.222534e+02   6.224727e+02
  -7.326228e+02   7.101366e-02
  -3.168999e+02  -6.276231e+02
   4.093580e+01  -6.457212e+02
   3.286923e+02  -3.775220e+00
   3.195504e+02   4.078976e+02
  -1.482840e+02   4.522241e+02
  -4.739581e+02   3.907275e+01
  -1.716277e+02  -4.589535e+02
   2.876170e+02  -4.733861e+02
   3.371958e+02  -6.611007e+01
   1.034685e+02   4.633244e+02
   2.987137e+01   3.612375e+02
  -5.197511e+01   2.109934e+02
  -5.964720e+01  -1.330446e+02
   1.926500e+02  -7.055783e+01
   2.604162e+02   1.270014e+02
   1.032798e+02   1.773135e+02
  -3.068887e+02   2.026002e+02
  -4.356907e+02  -1.240820e+02
  -3.473902e+02  -3.449579e+02
   2.855485e+02  -2.782878e+02
   4.177523e+02   8.214959e+01
   1.998906e+02   4.095336e+02
  -2.566709e+02   3.533916e+02
  -4.616286e+02   1.609038e+02
  -3.399215e+02  -1.298393e+02
  -1.418183e+02  -3.445841e+02
   1.198513e+02  -1.874098e+02
   2.430916e+01   1.057167e+02
  -1.067641e+02   2.916513e+02
  -2.487169e+02  -4.347828e+01
  -6.822746e+00  -4.714382e+02
   2.405434e+02  -4.437466e+02
   3.986707e+02  -4.533712e+01
   1.752633e+02   3.355807e+02
  -2.679135e+02   1.788643e+02
  -2.580326e+02  -2.225492e+02
   4.331211e+01  -3.760628e+02
   4.023362e+02  -1.456742e+02
   4.704140e+02   2.855099e+02
   1.694225e+02   4.213985e+02
  -2.645751e+02   2.482196e+02
  -5.328399e+02  -4.094141e+01
  -3.213963e+02  -2.400332e+02
   7.244082e+01  -2.406450e+02
   2.581921e+02  -3.339048e+01
   1.323443e+02   5.384558e+01
  -1.482112e+01   7.220243e+01
  -1.113130e+02  -1.354570e+02
   1.051542e+02  -1.084401e+02
   2.278260e+02   8.356645e+00
   5.825481e+01   1.342723e+02
  -1.083853e+02   2.176558e+02
  -2.664424e+02   9.019248e+01
  -1.714486e+02  -1.251002e+02
  -1.269652e+01  -2.565113e+02
   1.855742e+02  -3.166743e+02
   3.159486e+02  -1.939338e+02
   2.151014e+02   1.656093e+02
   3.117405e+01   2.647920e+02
  -6.897497e+01   2.315238e+02
   7.487651e+00   1.252154e+02
   4.502230e+00   4.348432e+01
  -9.149114e+01   1.289990e+02
  -1.987686e+02   9.419903e+01
  -2.228662e+02  -6.955065e+01
  -8.945127e+01  -2.254196e+02
   7.855420e+01  -1.859421e+02
   1.811102e+02   2.098690e+01
   1.610337e+02   1.893111e+02
  -6.096607e+01   2.117575e+02
  -2.104200e+02   5.948345e+01
  -2.582652e+02  -1.813469e+02
  -1.393734e+02  -2.868554e+02
   8.526809e+01  -2.400717e+02
   1.849107e+02  -6.575186e+01
   1.090363e+02  -2.110216e+01
   6.210208e+01  -8.397363e+01
   2.196013e+02  -9.080161e+01
   3.047860e+02   8.047055e+01
   2.176188e+02   2.544384e+02
  -4.523379e+00   3.587895e+02
  -2.834861e+02   2.880663e+02
  -3.640612e+02   1.203235e+02
  -2.667440e+02  -9.270331e+01
  -1.849758e+01  -1.914318e+02
   1.476315e+02  -1.554133e+02
   4.793090e+01   5.009849e+00
  -1.260350e+02   3.283501e+01
  -1.333990e+02  -4.675031e+01
  -9.233566e+00  -1.870067e+02
   1.198570e+02  -1.333245e+02
   1.486282e+02   6.570512e+01
   2.289838e+01   1.204818e+02
  -1.379755e+02   3.318909e+00
  -8.778869e+01  -2.012368e+02
   2.013652e+01  -2.353156e+02
   1.474123e+02  -1.554710e+02
   2.329209e+02   2.666263e+01
   2.404440e+02   1.883313e+02
   3.454510e+01   2.518890e+02
  -1.329706e+02   1.290424e+02
  -1.977331e+02  -2.381664e+01
  -4.832916e+01  -5.114712e+01
   8.346242e+01   2.411270e+01
   2.410755e+01   1.483806e+02
  -1.484427e+02   6.029451e+01
  -1.708901e+02  -5.969749e+01
   1.873365e+00  -6.516860e+01
   7.967236e+01  -4.988609e+01
   5.359922e+01   9.198327e+01
  -8.324949e+01   5.868048e+01
  -1.996334e+02  -1.249466e+01
  -1.711657e+02  -9.246617e+01
  -8.457494e+01  -1.885160e+02
   1.425739e+02  -2.057896e+02
   2.327511e+02  -1.111186e+02
   1.453133e+02   6.473718e+01
  -2.591749e+01   9.997976e+01
  -9.676462e+01   3.490049e+01
   2.266827e+01  -6.631047e+01
   1.412665e+02  -4.378992e+01
   1.700115e+02   9.641583e+01
   1.292337e+00   1.722542e+02
  -1.375281e+02   1.288107e+02
  -1.440693e+02   3.778237e+00
  -8.494349e+01  -4.390562e+01
   1.574968e+01  -7.002680e+01
   3.969810e+01   4.477165e+01
   4.120231e+01   3.987350e+01
  -1.575959e+02  -4.314092e+00
  -1.020589e+02  -1.146516e+02
  -1.297455e+00  -2.215781e+02
   1.823409e+02  -1.550317e+02
   2.190854e+02  -7.119068e+00
   5.172963e+01   1.006933e+02
  -6.805450e+01   9.163136e+01
  -5.857339e+01   7.977869e+01
  -4.298398e+01   7.138261e+00
  -7.588826e-01   2.488073e+01
  -4.844541e+01   4.272924e+01
  -1.009780e+02  -4.307556e+00
  -1.561293e+02  -4.090610e+01
  -4.088471e+01  -1.155297e+02
   6.896967e+01  -1.466444e+02
   1.924487e+02  -7.625532e+01
   1.779132e+02   8.237693e+01
   3.904712e+01   1.419655e+02
  -6.976832e+01   1.535868e+02
  -9.594989e+01   3.745343e+01
  -7.007390e+01  -2.348036e+01
   1.695199e+01  -8.340167e+01
  -8.039974e+01   1.281293e+01
  -5.913476e+01  -1.784229e+01
  -4.451693e+01  -3.575915e+01
   1.067895e+01  -9.534129e+01
   9.624276e+01  -7.469053e+01
   9.491132e+01   6.696789e+00
   5.067881e+01   8.233976e+01
  -1.544680e+02   6.692628e+01
  -1.885870e+02  -1.856373e+01
  -1.090868e+02  -1.548731e+02
   8.323599e+01  -1.447944e+02
   2.105853e+02  -1.049107e+02
   2.097737e+02   2.710933e+01
   1.042350e+02   1.080479e+02
   1.755446e+01   1.064867e+02
  -5.703821e+01   9.713787e+01
  -4.023720e+01   4.056578e+01
  -7.644952e+01   3.310963e+01
  -5.592527e+01   9.657779e+01
  -1.294423e+02   4.646743e+01
  -1.069615e+02  -1.481872e+02
  -3.738435e+01  -1.969880e+02
   9.561268e+01  -1.946008e+02
   1.021110e+02   1.456712e+00
   1.042575e+02   6.701617e+01
  -7.790067e+00   9.290314e+01
  -1.373267e+01   8.044195e+01
  -8.370893e+01   1.044399e+01
   3.704485e+01  -2.608605e+01
   1.940501e+01  -7.696732e+01
  -6.950016e+00   2.554813e+01
  -6.511963e+01  -2.935612e+00
  -7.863885e+01  -2.879888e+01
   5.129581e+01   1.174855e+00
   9.500372e+01  -4.274998e+01
   1.427120e+02   6.630625e+01
   1.828731e+01   5.270549e+01
  -9.113383e+01   2.681549e+01
  -1.428497e+02   5.010853e+00
  -1.365825e+01   9.111020e-01
   4.851865e+01  -8.190795e+01
   8.460203e+01   3.991561e+01
  -3.423563e+01   4.940527e+01
  -5.971302e+01   4.268878e+01
  -4.565632e+01   3.221041e+01
  -5.640915e+01  -2.735033e+01
  -5.160879e+01  -2.137554e+01
  -6.674749e+01  -2.095928e+01
  -3.346897e+01   6.823724e+00
  -6.490826e+01  -9.238615e+01
   5.505560e+00  -1.190738e+02
   1.235110e+02  -1.554957e+02
   1.293381e+02  -3.074075e+01
   7.942686e+01   4.390635e+01
   3.728615e+00   9.229033e+01
  -6.192548e+01   1.106077e+01
  -4.472646e+01  -3.611776e+01
   5.878718e+01  -3.448432e+01
   1.221130e+02   5.953063e+01
   6.828291e+01   9.548886e+01
  -8.335640e+01   1.222282e+02
  -1.646410e+02   3.607351e+01
  -8.945732e+01  -2.364303e+01
  -8.997965e+00  -6.471771e+01
   7.037905e+01  -6.201828e+01
   3.763195e+01   2.329903e+01
  -4.554364e+01   8.781358e+01
  -8.000691e+01  -2.103706e+01
  -6.679792e+01  -1.015333e+02
   1.266264e+02  -1.170267e+02
   5.981881e+01  -7.011072e+01
   9.144874e+01   9.369005e+01
  -3.188405e+01   9.525592e+01
  -8.649201e+01   1.029787e+02
  -1.309808e+02  -7.298244e+01
  -5.609602e+01  -1.051049e+02
  -6.545222e+00  -1.218171e+02
   6.495851e+01   1.011826e+01
   3.527437e+01   8.824129e+00
  -6.558531e+00  -1.116904e+01
  -7.887182e+00  -2.770313e+01
   4.888769e+01   1.274981e+01
   3.900151e+01   4.619711e+01
   4.914823e+01   6.457261e+01
  -1.558108e+01   9.381954e+01
  -1.332309e+02  -6.047884e+01
  -7.709626e+01  -1.993674e+01
   2.930323e+01  -4.239863e+01
   3.302335e+01   1.848902e+00
   7.315446e+01  -7.273547e+00
  -2.336850e+01  -1.177081e+01
  -3.071976e+01   1.354431e+00
  -5.843123e+01   4.082008e+01
   1.836420e+01  -6.590483e+01
   1.257975e+01  -1.396663e+01
  -4.655416e+01   4.579067e+01
  -6.442279e+01  -1.113920e+01
  -3.044648e+01  -7.205862e+01
   6.328609e+01  -1.073706e+02
   1.134624e+02  -8.546484e+01
   1.347268e+02   4.188709e+01
   5.852603e+01   1.510104e+02
  -8.359178e+01   1.277827e+02
  -9.402284e+01   4.630121e+01
  -5.226507e+01  -3.328255e+01
  -1.749699e+01  -4.940612e+01
   7.972759e+00  -4.124353e+01
  -7.051225e+00  -2.066557e+01
  -2.825023e+01  -3.656164e+01
   2.403406e+00  -8.215757e+01
   5.860311e+01  -2.948534e+01
   5.458934e+01  -1.095118e+01
   3.259064e+01   5.534993e+01
  -4.044557e+01   9.900940e+01
  -6.102160e+01  -3.077873e+00
  -9.464890e+01  -1.716865e+01
  -2.779953e+01  -1.092049e+02
   6.042940e+01  -4.482309e+01
   9.380683e+01   3.047355e+01
  -6.797474e-01  -2.501572e+00
   4.925426e+00   7.292435e+01
   5.298560e+00  -1.684674e+01
   4.248939e+01  -3.097617e+00
   5.729720e+01  -3.009721e+01
   2.516907e+01   2.684387e+00
  -3.696110e+01   4.045461e+01
  -1.011580e+02   7.075096e+01
  -6.719731e+01  -1.347221e+01
  -4.990278e+00  -6.511972e+01
   2.008455e+01  -5.159165e+01
   1.279760e+01   6.007291e+01
   4.015394e+01   7.835539e+01
  -9.767695e+00   3.846457e+01
  -4.492556e+01   2.023531e+00
  -8.943780e+00  -5.112396e+01
  -1.499864e+01  -5.541666e+01
   2.388040e+01  -3.484566e+01
   2.536601e+01   9.707534e+00
   1.796112e+01   1.326578e+01
  -1.505210e+01  -5.267477e+01
   1.282369e+01  -1.403907e+01
  -1.301531e+01  -4.386042e+00
   5.961206e+00   5.955149e+01
  -6.368229e+01   7.233645e+01
  -8.382630e+01  -1.390362e+01
  -1.349468e+01  -4.481059e+01
   3.493937e+01  -2.739897e+01
   5.443026e+01   3.499912e+01
  -2.179633e+00   6.241719e+01
  -3.254141e+01   3.384968e+01
  -6.005653e+01  -5.109799e+01
  -2.697554e+01  -4.803099e+01
   1.715713e+01  -5.052873e+01
   9.844329e+01  -1.674457e+01
   2.229507e+01   3.889041e+01
  -1.613632e+01   2.872042e+01
  -3.647166e+01  -5.112350e+00
  -7.610100e+00  -2.129859e+01
   1.680925e+01  -1.784503e+01
