
 $NMID
 id='ANONYMOUS ', fmtdat='(2E16.6)'
 volume=1.0
 tramp=1.0
 $END
   2.741538e+02  -3.596741e+01
   4.308297e+01   1.374256e+02
   2.504980e+01   3.242440e+01
  -1.831521e+00   9.889905e+00
  -5.362489e+00   2.666577e+01
   9.234564e+01   3.997331e+00
  -2.378958e+01   1.987172e+01
  -2.222395e+01  -4.135788e+01
  -1.279243e+01   6.134022e+00
  -1.406160e+01   1.283385e+00
  -2.203931e+00   4.401970e+00
  -2.628377e+01  -3.255872e+01
   1.093171e+01  -2.266719e+01
  -1.423345e+01   4.658770e+01
   1.796020e+01   2.133725e+01
   2.561035e+01  -4.039932e+01
   5.808481e+01   7.508955e+00
  -3.302606e+01  -6.265476e-01
   5.723195e+00  -4.948253e+01
  -4.048771e+01   2.467219e+01
   1.819800e+01  -8.269331e+01
  -1.048394e+01  -3.384872e+01
   3.958364e+00  -6.037893e+01
  -3.862652e+01  -8.065639e+01
   5.103399e+01  -2.834059e+01
   2.903445e+01   2.738776e+00
  -4.515472e+01  -8.198248e+01
  -1.928793e+00  -7.758274e+00
  -2.075082e+01  -4.782242e+01
   5.613860e+01   2.396753e+01
   1.563455e+01  -1.116374e+01
  -5.010094e+01  -7.183736e+00
  -2.975381e+01  -8.495494e-01
  -4.101557e-01   4.724749e+01
   3.272249e+01   1.834711e+01
  -4.942842e+01   1.629371e+01
  -1.514037e+01  -5.198314e+01
  -1.646396e+01   1.150483e+01
   4.449287e+01   4.067972e+01
   3.815503e+01  -1.211484e+01
   4.693321e+00  -1.361543e+01
   5.241700e+00  -1.431850e+01
  -4.208688e-02   5.231995e+00
   2.350136e+01   4.345074e+01
  -1.712474e+01  -2.601388e+01
   1.702453e+01  -1.192879e+01
   9.030156e+00  -4.449308e+01
   9.401079e+00   3.378798e+01
  -4.480929e+00   3.760910e+01
  -8.689015e+00  -1.320319e-01
   9.024933e+00   5.206298e+00
  -2.455211e+01  -1.885761e+01
   8.696772e+00  -1.606148e+01
  -1.729235e+00  -2.332318e+01
  -7.062995e+00  -5.842925e+00
   3.327520e+01  -2.290247e+01
   1.743321e+01  -1.562237e+01
   7.405280e+00   1.045844e+01
   1.289555e-01  -2.985154e+00
  -2.696612e+00   3.445168e+01
  -5.326307e+01  -6.810246e-01
  -8.177627e+00  -2.838833e+01
   3.727296e+00   4.912870e+00
  -3.534576e+01   4.330431e+01
   1.754536e+01   4.044366e+01
   1.290591e+01  -3.001940e+01
  -2.103157e+01  -2.647614e-01
   7.609613e-01  -3.075978e+01
   1.484114e+01   6.775593e+00
   2.433763e+01   5.181283e+01
   9.401158e-01  -5.228508e+01
   3.541263e+01  -3.496868e+01
   1.302747e+01  -4.120549e+00
  -2.867130e+01  -2.067548e+01
   2.342941e+01   8.457111e+00
  -2.822639e+00   3.523533e+01
  -7.573045e+00   4.064922e+01
  -1.169560e+01   5.150359e+00
   1.015425e+01   1.080947e+01
  -9.114519e+00  -3.337981e+01
  -2.949565e+01  -1.471366e+01
  -1.600412e+00  -2.918322e+01
  -4.120288e+01  -1.524077e+01
  -8.739674e+00  -1.749673e+01
  -1.526336e+00  -6.322939e+00
  -1.530306e+01  -1.921847e+01
   2.004741e+01   5.228368e+00
  -2.912523e+01   9.179895e+00
  -1.832931e+01   1.596821e+01
  -5.605782e+00   2.135451e+01
  -1.285045e+01   2.109938e+01
  -8.216339e-01   3.633007e+01
  -4.263769e+00  -2.918875e+01
   1.231084e+00   6.278951e+00
  -1.407238e+00  -6.316857e+00
  -1.658678e+00   1.481295e+00
  -1.354206e+01  -2.134709e+01
   3.381067e+01   1.372454e+01
   2.969479e+00  -2.601045e+01
   2.401968e+01  -3.454668e+01
   3.041346e-01  -3.738358e+01
   1.674228e+01   1.089302e+01
  -7.125949e+00   2.253090e+01
  -8.594484e+00   6.149464e+00
   1.386162e+01   1.614915e+00
  -1.653984e+01   3.545050e+01
   7.525188e-01   2.470810e+01
   1.693913e+01   2.378158e+01
  -2.706737e+00  -1.512041e+01
   2.514811e+01  -1.498822e+01
  -1.889745e+01  -1.163473e-02
  -1.674057e+01  -1.683068e+00
  -4.253123e+01   4.586383e+01
   3.197657e+01  -2.881718e+01
   3.378652e+01  -3.999174e+01
  -9.121806e+00  -7.037152e-01
   1.709223e+01   3.127980e+01
  -3.352905e+01  -8.242631e+00
   5.180332e+01   3.367200e+01
   8.908617e+00  -2.018758e+01
   2.163715e+00  -6.339206e+01
  -1.040366e+01   2.616727e+00
  -6.039895e+01  -4.566584e+01
  -1.479308e+01   1.546808e+01
  -1.853285e+01  -2.051292e+01
   1.948108e+01  -4.668996e+00
  -2.706949e+01  -4.115395e+01
   6.933037e+00   9.176724e+00
  -1.041477e+00  -1.148523e+01
  -9.328387e+00   4.046430e+01
   1.054476e+01   9.068889e+00
   4.235228e+01   1.212130e+00
  -5.547254e+00  -3.764117e+01
  -1.611285e+01  -5.298344e+00
   1.006059e+01   1.028056e+00
   4.039679e+01   2.427145e+01
  -2.474376e+01   9.842557e+00
  -3.655063e+01  -5.602788e+01
   7.957867e+00   7.075291e+00
  -4.887239e+01   1.103354e+00
  -3.830901e+00  -1.128820e+01
   1.633312e+01  -1.298984e+01
  -1.173927e+01   1.808597e+01
   2.819276e-01   2.662996e+00
   1.003250e+01   2.534544e+00
  -3.786012e+01   1.228868e+01
   2.334903e+01  -1.061322e+01
  -3.441764e+00   1.315676e+01
  -1.754754e+01   1.518191e+00
  -1.315701e+01   2.356263e+01
  -2.814549e+01   6.511588e+00
  -1.429770e+01   2.017146e+01
  -2.600689e+01  -1.529141e+01
  -7.759507e+00  -1.931575e+00
  -3.033400e+01  -1.920854e+00
   2.524439e+01   8.810491e-01
   7.094750e+00   4.591055e+01
  -4.352404e+00  -2.559071e+01
  -3.083454e+00  -3.827969e+01
  -2.351788e+01   3.585241e+01
  -3.629162e+01   3.579179e+01
  -7.781471e+00   1.118905e+01
   3.453859e+00   4.495614e+00
  -2.546754e+01   3.265610e+01
  -7.946577e+00   5.847985e+00
   4.873432e+01   2.453998e+01
   7.368752e+00  -3.384846e+01
   4.160843e+01   3.410946e+01
  -4.281540e+00   5.043247e+00
   3.324632e+01  -2.276121e+01
   1.548501e-01  -7.890081e+00
  -1.390830e+00  -2.871049e+00
   1.629052e+01  -5.184566e+01
   2.583793e+01   1.399601e+00
   1.773462e+01   1.417586e+01
   4.338736e+01   5.677131e-02
   3.656871e+01   1.497085e+01
   5.068781e+00   3.187091e+01
   4.956390e+01  -1.245392e+01
  -3.830023e+00  -3.086784e+01
   5.276354e+01   1.599896e+01
  -3.378751e+00  -1.827247e+01
   1.464369e+01  -2.216325e+01
  -1.110038e+01   8.279863e+00
   6.773966e+00  -9.512047e-01
  -2.097304e+01  -1.184833e+01
   2.064313e+01  -2.340954e+01
   6.007039e+00   1.111464e+01
   1.585131e+01  -3.667409e+00
  -4.602433e+01   3.902490e+01
   1.190608e+01  -1.449431e+01
   8.785892e+00  -6.503853e+00
   1.120940e+01  -1.079286e+01
  -2.653544e+01   1.107055e+01
  -2.006652e+01  -2.690198e+01
  -4.666327e+01  -1.133090e+01
   4.332021e+01   6.751854e+00
   1.779493e+00   2.376146e+01
   2.697922e+01  -3.708446e+01
  -1.218097e+01  -2.331217e+01
  -1.771107e+01   2.902785e+01
   1.059466e+01  -2.564695e+01
   1.125045e+01   1.663956e+01
  -7.863601e+00  -6.361889e+01
   2.244822e+01  -2.458943e+01
   1.013669e+01  -4.982493e+01
   4.110705e+01  -2.766116e+01
   5.871707e+00   9.746439e+00
  -3.587878e+01  -2.964174e+01
   1.795402e+01   2.371303e+00
   2.107189e+01  -1.669592e+01
   1.431292e+01  -4.076245e+01
  -2.202126e+01   3.049529e+00
   6.192023e+01   4.601316e+00
   3.250350e+01   1.821928e+00
   2.074483e+01  -4.168092e+01
  -1.024863e+01  -1.624436e+01
  -1.416906e+00   6.640654e+01
  -1.558159e+01  -2.401732e+01
   2.800734e+01   1.522953e+01
  -1.316999e+01   3.369844e+01
  -4.106797e+01   4.204361e+00
  -2.895038e+01   3.423145e+01
  -1.619462e+01   2.726723e+01
  -5.912751e+00  -2.732014e+01
  -1.036233e+01  -2.058517e+01
  -3.334981e+01   1.222388e+01
  -1.445409e+01  -3.186147e+01
  -1.837856e+00   3.944911e+01
  -2.768393e+01   7.263663e+00
   7.665213e+00   4.775462e+01
  -2.088660e+01  -1.243887e+01
   2.886321e+00   3.655653e+01
   1.729019e+01   2.006497e+01
   1.390631e+01   1.639705e+01
   1.260554e+01   3.888996e+01
   1.697556e+01  -6.660766e+00
  -2.143269e+01  -4.521146e+00
  -1.036029e+00   5.704389e+01
  -2.832496e+01   1.549508e+01
   4.664985e+01  -5.932643e+00
  -5.302854e+01   1.201931e+01
   1.489222e+01   1.241697e+00
  -1.014069e+01   2.068451e+01
  -1.784349e+01   2.695655e+01
   1.300745e+01  -6.208023e+01
   6.986075e+00  -1.775667e+01
  -1.421884e+01  -4.095696e+00
  -3.266974e+00  -8.406906e+00
  -4.825811e+00   4.478624e+00
   3.805817e+01  -3.475544e+00
   3.093121e+00   2.172229e+01
  -1.527164e+01  -8.678978e+00
   1.526257e+01   2.068994e+01
   2.821880e-01  -2.521092e+00
   5.150882e+01  -1.066446e+01
  -9.084267e+00   1.063864e+01
   1.099508e+01  -9.593417e+00
   1.425214e+01  -1.068826e+01
   2.507891e+01  -4.802281e+00
   7.177124e+00  -4.762333e+01
  -1.445831e+00   3.965658e+01
  -5.604070e+00   3.136851e+00
   3.138508e+01   1.219491e+01
  -3.464502e+01  -1.054954e+01
  -1.160204e+01   1.282797e+01
   4.027540e+01   2.511213e+01
  -2.244607e+00   1.397225e+01
  -2.314890e+01   4.160009e+00
  -2.163049e+01   1.861514e+01
   1.406548e+01   4.732015e+01
  -2.332920e+01   4.032122e+01
   3.006371e+01  -4.616192e+01
   2.736243e+01   1.398467e+01
   6.050226e+01  -3.143700e-01
  -2.692092e+01  -1.147335e+01
  -4.111253e+01  -1.493375e+01
   2.339867e+01  -3.260748e+01
   2.451222e+01   6.610069e+00
   6.025029e+01  -5.049279e+01
  -2.028860e+01   1.489802e+01
   2.601125e+00  -2.670896e+01
   6.153200e+01   2.501615e+01
  -4.128699e+01   8.158942e+00
   5.239623e-01  -1.757292e+01
  -1.837142e+01   2.030100e+01
   4.717906e+00  -4.112859e+01
  -8.214692e+00  -4.240660e+00
   3.820032e+00  -1.789406e+00
  -3.867529e+01  -2.172309e+01
  -7.089712e+00  -3.787478e+01
  -3.607918e+01   7.577958e+00
  -1.098413e+01  -5.096187e+01
  -2.458955e+00   2.847332e+01
   2.056128e+01  -9.130443e+00
  -8.617975e+00   5.704345e+01
   3.643533e+00  -1.331932e+01
   3.392070e+01   2.153076e+01
   1.115359e+01   1.110166e+01
  -2.871790e+01  -3.180326e+00
  -2.679849e+01  -1.988744e+01
   2.865135e+00   6.313250e+00
   2.386002e+01   5.643847e+00
   4.323195e+01   3.572134e+01
  -1.949691e+00  -1.735979e+01
  -5.551832e+01  -3.369749e+01
  -2.027296e+00   1.580018e+01
  -3.375017e+00   2.590326e+01
  -2.864235e+01   1.644404e+01
   4.779606e+01  -1.071677e+01
  -1.925817e+01  -3.259362e+01
  -3.541372e+01   2.887865e+01
  -3.998520e+01   1.882945e+01
   1.519054e+01   4.175200e+01
   1.463782e+01  -1.413991e+01
  -1.137681e+01   1.700765e+01
   1.279150e+01   8.370649e-01
  -3.536154e+01  -4.679294e+00
   4.656873e+00  -1.369424e+01
   3.696560e+01   2.797845e+01
