
 $NMID
 id='ANONYMOUS ', fmtdat='(2E16.6)'
 volume=1.0
 tramp=1.0
 $END
   2.448969e+03   1.074382e+02
   1.210397e+03   1.544787e+03
  -4.785187e+02   1.661829e+03
  -1.402039e+03   3.871087e+02
  -6.241697e+02  -4.786794e+02
   4.227641e+02  -3.993881e+02
   6.656275e+02   3.110778e+02
   9.144169e+01   6.330941e+02
  -5.871481e+02   4.552105e+02
  -4.524268e+02  -8.496450e+01
  -2.671648e+02  -4.376859e+02
   7.054776e+01  -5.314546e+02
   3.586398e+02  -7.772117e+01
   2.202779e+02   4.046625e+02
  -1.954765e+02   4.518467e+02
  -3.981735e+02  -4.627249e+00
  -2.545803e+02  -2.655919e+02
   3.334305e+02  -3.296945e+02
   3.828446e+02   1.194275e+01
   1.615381e+02  -8.319086e+01
   4.890257e+00   2.350773e+02
  -1.959785e+02   1.731514e+02
  -6.979236e+01   3.531247e+01
  -4.792132e+01   7.748183e+00
   2.393660e+02  -7.215364e+01
   1.155170e+02   1.538562e+02
  -2.108757e+02   3.329477e+02
  -4.584087e+02   4.327566e+01
  -2.381607e+02  -2.730782e+02
   2.469474e+02  -1.838706e+02
   3.518914e+02  -3.118442e+01
   1.677982e+02   2.026318e+02
  -1.204027e+02   3.091566e+02
  -3.079054e+02   7.872254e+01
  -1.414398e+02  -1.922686e+02
  -2.889561e+01  -2.531651e+02
   1.621136e+02  -1.711015e+02
   1.398368e+02   1.467408e+02
  -4.274775e+01   3.221319e+02
  -2.911899e+02   3.045506e+01
  -2.227778e+02  -3.409326e+02
   1.077880e+02  -3.198163e+02
   3.132187e+02   7.254580e+00
   1.125896e+02   2.373978e+02
  -1.820276e+02   2.044868e+02
  -2.201681e+02  -1.573189e+02
   7.613714e+01  -3.196873e+02
   2.771966e+02  -1.379159e+02
   2.964590e+02   2.170291e+02
   9.978801e+01   3.342533e+02
  -1.871999e+02   2.371263e+02
  -3.539000e+02   1.462630e+01
  -1.942547e+02  -1.793420e+02
   5.406651e+01  -2.213325e+02
   2.060029e+02  -1.583282e+01
   1.053716e+02   1.316705e+02
  -6.138603e+01   9.798354e+01
  -1.139500e+02  -9.759402e+01
   5.554891e+01  -1.128091e+02
   1.578559e+02   2.112025e+01
   7.128835e+01   1.688098e+02
  -1.564621e+02   1.473352e+02
  -1.731411e+02   1.536915e+01
  -1.067666e+02  -1.089461e+02
   1.724518e+01  -1.635780e+02
   1.561148e+02  -1.820990e+02
   2.322676e+02  -1.114307e+02
   1.978111e+02   8.049645e+01
   3.495249e+01   2.439768e+02
  -1.094015e+02   2.290838e+02
  -1.101527e+02   5.470108e+01
   1.622760e+01  -3.641870e+01
   4.802715e+01   1.630143e+01
  -9.434619e+01   5.054613e+01
  -1.473988e+02  -2.006316e+00
  -1.029805e+02  -1.643007e+02
   2.402027e+01  -1.417768e+02
   1.407668e+02   2.051791e+01
   1.280662e+02   1.272884e+02
   1.863238e+01   1.344814e+02
  -1.457051e+02   8.628665e+01
  -1.788815e+02  -6.467836e+01
  -5.166076e+01  -1.930642e+02
   7.118458e+01  -1.655222e+02
   1.519475e+02   3.496134e+01
   6.083629e+01   9.118479e+01
  -1.418115e+01  -2.227962e+01
   6.807452e+01  -4.378096e+01
   2.005623e+02  -4.181925e+01
   1.654795e+02   1.278642e+02
   2.978783e+00   2.099715e+02
  -2.006380e+02   2.019277e+02
  -2.362860e+02   8.323827e+01
  -1.367188e+02  -1.037179e+02
  -4.152875e+01  -1.601120e+02
   3.874412e+01  -1.443570e+02
   5.903919e+01  -2.459017e+01
   7.995375e+00   5.567973e+01
  -8.352508e+01   4.006165e+00
  -2.827322e+01  -4.253718e+01
   7.260290e+01  -8.698392e+01
   8.424614e+01   3.990055e+01
   4.610937e+01   1.050243e+02
  -1.393332e+02   4.820102e+01
  -1.039624e+02  -1.262886e+02
  -4.675117e+00  -1.636110e+02
   1.016660e+02  -1.029599e+02
   1.396253e+02   1.351305e+01
   9.809925e+01   7.035221e+01
   5.574987e+01   1.198324e+02
  -5.546797e+01   9.046496e+01
  -5.205512e+01   6.497220e+01
  -3.701592e+01  -1.648269e+01
   1.790689e+01  -1.184891e+01
   8.251899e-01   1.570305e+01
  -3.521926e+01   7.321629e+01
  -5.480924e+01   5.634931e+01
  -5.063399e+01  -3.949563e+00
   5.081711e+01  -3.308090e+01
   6.409957e+00  -3.221520e+00
  -6.557797e+01  -1.803808e+01
  -1.091335e+02   2.226421e+01
  -1.263223e+02  -8.923742e+01
  -5.047965e+01  -1.149369e+02
   9.186966e+01  -1.188955e+02
   1.604982e+02  -8.558084e+01
   7.882733e+01   6.450825e+01
   3.690147e+01   6.371885e+01
  -8.121038e+01  -5.254243e+01
  -1.403152e+01  -7.475504e+01
   6.803023e+01  -6.426990e+01
   1.046970e+02   1.702485e+01
   4.866103e+01   1.298351e+02
  -4.130069e+01   9.870082e+01
  -6.352161e+01   1.268126e+00
  -3.190174e+01  -3.590685e+01
   7.759571e+00  -8.107694e+00
   1.089302e+01   3.427470e+01
  -2.575608e+01   9.007169e+01
  -9.283782e+01   4.471484e+01
  -8.865432e+01  -4.340693e+01
  -2.073791e+01  -8.667214e+01
   1.216280e+02  -1.221078e+02
   7.760597e+01  -2.025889e+01
  -3.919314e+01   4.792929e+01
  -5.153266e+01   6.252752e+01
  -7.279624e+01  -1.257978e+01
   7.073036e+00  -8.323656e+01
   7.161656e+00  -4.763256e+01
   2.581967e+01   1.307473e+01
  -2.247542e+01  -1.079213e+01
  -2.654409e+01  -4.684664e+00
   4.312527e+00  -5.803393e+01
   5.021161e+01  -1.144422e+02
   1.176490e+02   6.384245e+00
   1.024108e+02   9.255167e+01
   9.487142e+00   1.742799e+02
  -9.722234e+01   1.128024e+02
  -9.114816e+01  -3.711614e+01
  -3.914043e+01  -6.895098e+01
  -1.761574e+01  -3.687569e+01
   2.559323e+00  -1.671114e+01
  -3.791634e+01   3.841620e+01
  -7.466182e+00  -1.799758e+01
   7.138321e+01  -4.399177e+01
   8.514652e+01   3.725312e+01
   4.745812e+01   3.020501e+01
  -2.055607e+01   8.126372e+01
  -7.839061e+01   4.833004e+01
  -1.350488e+02  -4.754329e+01
  -5.343302e+01  -8.917024e+01
   1.434552e+01  -1.363033e+02
   1.346179e+02  -1.120254e+02
   1.165878e+02   3.565702e+01
   5.980636e+01   5.843616e+01
  -2.405649e+01   5.624323e+01
  -6.477442e+01   4.384833e+01
  -8.954882e+01   1.460485e+01
  -1.937817e+01   4.336705e+01
  -4.939033e+01   9.294047e+01
  -1.049896e+02  -3.318288e+01
  -2.015556e+01  -3.558503e+01
  -6.556102e+01  -1.328002e+02
   6.480132e+01  -7.112932e+01
   8.695244e+01  -2.121209e+01
   8.375969e+01   6.550019e+01
  -3.296877e-01   8.183653e+01
  -8.620308e+01   6.814095e+01
  -4.812219e+00  -4.228270e+01
   1.233027e+01  -6.472642e+01
   4.008460e+01  -3.183848e+01
   3.317237e+00  -2.800883e-01
  -9.291616e+01   1.513835e+01
  -3.990997e+01  -3.148858e+01
  -1.047996e+01  -4.604897e+01
   7.721848e+01   3.136327e+01
   6.346705e+01   1.121985e+01
  -1.566315e+01   2.062752e+01
  -8.571624e+01   8.829838e+01
  -8.294294e+01   2.028108e+01
  -6.254316e+01   2.219557e+01
   2.465382e+01  -3.174258e+01
   5.731776e+01  -4.696137e+01
  -2.473429e+00   5.168930e+01
  -3.294659e+01   5.909111e+01
  -1.601831e+01  -4.046271e+00
  -3.057178e+01  -5.542812e+01
   7.128879e-01  -7.026884e+01
  -8.483667e+00  -3.858510e+01
  -8.813722e+00  -2.139850e+01
   1.475712e+01  -7.902655e+01
   4.231377e+01  -9.516960e+01
   9.007584e+01  -6.048921e+01
   1.013911e+02   7.112000e+00
   2.040489e+01   5.815348e+01
   1.614765e+01   6.773934e+01
  -9.781093e+01  -1.412969e+01
  -5.221079e+01   8.878894e+00
   6.784492e+01   2.841313e+01
   7.226508e+01  -8.816608e+00
   5.057635e+01   3.933195e+01
  -7.665542e-01   3.496787e+01
  -8.912405e+01   4.957429e+01
  -6.708707e+01  -9.073364e+00
  -5.713939e+01   1.401182e+00
   4.437225e+01  -4.775333e+01
   6.973656e+01   4.995056e+01
  -4.399879e+01   2.319129e+01
  -4.094288e+01   3.929757e+00
  -6.876890e+00  -5.750848e+01
   1.405547e+01  -7.655062e+01
   3.926303e+01  -8.453703e+01
   8.050354e+01   4.307168e+01
   1.207182e+01   9.977843e+01
  -1.330332e+01   5.925222e+01
  -5.618344e+01   3.758759e+01
  -5.143436e+01  -2.765656e+01
   1.082249e+01  -7.710949e+01
   3.803526e+01  -3.031674e+01
   2.036185e+00   5.227241e+01
   1.092098e+01   7.035431e-01
   4.320959e+01  -2.785981e+00
   4.750568e+01   1.834215e+01
   3.570269e+01   3.810821e+01
  -1.406839e+00   4.416493e+01
  -2.191286e+01   9.311301e+00
  -1.159386e+02  -2.363050e+01
  -3.612731e+01  -1.315364e+01
   1.280243e+00  -2.771313e+01
   7.485724e+01   6.790440e+01
   7.140563e+01   2.067125e+01
   1.913625e+00  -1.561462e-01
  -7.910984e+00   1.679014e+01
  -4.105497e+01   4.060553e+01
  -7.030052e+00   9.268440e+00
  -3.515146e+00   7.252225e-01
  -6.103726e+01  -3.140732e+01
  -9.243219e+01  -1.318291e+01
  -2.815482e+01  -3.039308e+01
   6.961484e+01  -4.867764e+01
   7.003137e+01  -4.033098e+00
   7.788197e+01   3.242678e+01
  -1.461286e+01   1.025237e+02
  -3.348616e+01   9.621092e+01
  -4.412493e+01  -1.508450e+00
  -1.251095e+01  -5.726383e+01
  -8.393199e+00  -2.931239e+00
   1.513900e+01   4.582643e+00
  -3.707657e+01  -5.062650e+00
  -1.139946e+01  -2.059968e+01
  -2.221729e+01  -6.648832e+01
   1.406426e+01  -3.388198e+01
   5.547362e+01   3.662084e+00
   8.684927e+01   6.960798e+01
  -7.524222e+00   4.587029e+01
  -8.707731e+01  -3.695748e+00
  -7.457622e+01  -3.643328e+01
  -2.086426e+01  -8.684563e+01
   4.243487e+01  -4.082283e+01
   5.976545e+01   1.992699e+01
   2.240502e+01   5.100461e+01
  -8.268065e+01   9.919851e+00
  -3.060067e+01   2.304687e+01
   2.334943e+01   1.634990e+01
  -5.461391e+00   1.562920e+01
   8.003038e+00   2.588085e+01
  -3.735108e+01   1.206039e+01
  -1.037634e+02   1.770124e+01
  -5.080344e+01  -1.765503e+01
   5.776354e+01  -4.791680e+01
   5.584305e+01  -3.389976e+01
   1.987877e+00  -5.296348e+01
  -1.783288e+01   2.918678e+01
  -8.058839e-01   5.241140e+01
  -1.879512e+01  -2.234579e+01
  -3.770928e+01  -6.861004e+01
   3.966556e+01  -1.412337e+01
  -8.461766e+00  -2.894480e+01
   3.875287e+01   3.112283e+01
  -4.656640e+00  -3.306852e+01
  -3.031323e+01  -3.134397e+01
  -3.014233e+01  -5.564554e-01
  -1.544693e+01   2.198888e+01
   1.989471e+01   7.220722e+01
   4.571724e+00   2.568144e+00
  -3.741282e+00  -4.856900e+01
  -1.445824e+01   6.694211e-01
   8.037441e+01  -1.098123e+00
   1.156039e+02   2.678753e+01
   4.645446e+01   2.752444e+01
  -6.313593e+00   2.392302e+01
  -4.809765e+01  -3.971606e+01
  -2.824142e+01  -1.242894e+01
   4.002176e+01  -9.762894e+00
   5.743863e+01  -4.051858e+01
   2.707970e+01  -7.286988e-01
  -5.781963e+01   5.301800e-01
   7.518652e+00  -2.324053e+01
   1.318958e+01   1.336652e+01
   8.224286e+01  -2.864161e+01
