
 $NMID
 id='ANONYMOUS ', fmtdat='(2E16.6)'
 volume=1.0
 tramp=1.0
 $END
   2.718146e+03   1.223855e+01
   1.898149e+03   1.108493e+03
   3.657726e+01   1.525746e+03
  -9.969443e+02   1.236669e+03
  -9.179899e+02   5.844517e+02
  -2.356237e+02   2.440106e+01
   1.699113e+02   5.466356e+01
  -5.437677e+01   3.802886e+02
  -4.001840e+02   4.481688e+02
  -5.761376e+02   9.926658e+01
  -4.037226e+02  -3.419304e+02
  -1.732285e+02  -4.292349e+02
   3.050886e+02  -2.310107e+02
   1.635245e+02   2.332685e+02
  -1.070973e+02   5.058841e+02
  -4.296948e+02   1.161050e+02
  -1.959196e+02  -4.128540e+02
   5.612062e+01  -5.331403e+02
   5.367319e+02  -3.885877e+02
   5.664927e+02   2.021229e+02
   1.440367e+02   2.800156e+02
  -1.545903e+02   1.073396e+02
  -6.234915e+01   1.717233e+02
   2.535628e+02   8.982964e+01
   2.392027e+02   3.881213e+02
  -8.831863e+01   2.616593e+02
  -5.190708e+02   4.610915e+01
  -6.108533e+02  -1.910328e+02
  -2.097452e+02  -1.993366e+02
   3.404159e+02   2.706811e+01
   3.355248e+02   1.143967e+02
   1.296170e+02   2.890774e+02
  -3.174721e+02   2.603896e+02
  -5.166842e+02   4.154341e+00
  -2.654850e+02  -1.549695e+02
  -1.002847e+02  -3.076070e+02
  -9.123763e+00  -1.719612e+02
  -1.259599e+02  -4.221050e+00
  -1.656551e+02   1.900616e+01
  -1.502938e+02  -2.179150e+02
   1.378579e+02  -3.163959e+02
   2.285741e+02  -3.121212e+02
   2.403150e+02   1.104167e+02
   1.068812e+00   1.832397e+02
  -9.353934e+01  -2.112918e+01
  -5.122343e+01  -3.030561e+02
   1.697827e+02  -3.201996e+02
   3.910194e+02   5.600750e+01
   3.999840e+02   3.717488e+02
   1.271765e+02   4.121614e+02
  -2.835801e+02   1.843185e+02
  -4.304208e+02  -7.440904e+01
  -2.827941e+02  -1.514485e+02
   1.751940e+01  -1.352919e+02
   2.128189e+02  -1.141719e+02
   1.839666e+02  -6.747887e+01
  -1.090595e+00  -4.723298e+01
  -3.684252e+01   3.488118e+01
   1.095007e+02   2.292840e+01
   1.632503e+02   3.788271e+01
   5.131068e+01   1.730690e+02
  -1.560377e+02   2.287941e+02
  -3.403094e+02   8.026077e+01
  -3.036508e+02  -1.486420e+02
   1.221252e+01  -4.314875e+02
   3.410297e+02  -3.789687e+02
   4.049319e+02  -9.928445e+01
   2.890573e+02   1.632241e+02
   3.606766e+01   3.198185e+02
  -2.890049e+01   2.922019e+02
   4.026401e+00   2.183493e+02
  -4.218700e+01   1.064509e+02
  -2.125300e+02   1.097382e+02
  -2.234392e+02   1.639825e+01
  -1.802965e+02  -1.736035e+02
  -4.144832e+01  -2.050133e+02
   1.365489e+02  -8.378194e+01
   9.616143e+01   8.194204e+01
   7.833860e+01   2.214573e+02
  -9.800619e+01   1.870141e+02
  -1.904591e+02   2.190016e+01
  -2.239298e+02  -1.693769e+02
  -8.202028e+01  -2.929059e+02
   4.310142e+01  -2.780453e+02
   1.395859e+02  -1.483423e+02
   1.544513e+02  -6.769979e+01
   2.156674e+02  -1.779773e+01
   3.205290e+02  -6.438027e+01
   4.012920e+02   6.133004e+01
   2.555579e+02   2.451971e+02
  -5.789542e+01   4.428625e+02
  -3.688788e+02   3.985329e+02
  -4.347090e+02   1.334125e+02
  -1.904480e+02  -1.112310e+02
  -2.099959e+00  -1.972487e+02
   9.956300e+01  -1.528919e+02
  -5.979878e+01  -4.994869e+01
  -1.051624e+02  -4.624641e+01
  -1.167525e+02  -9.299566e+01
   7.514557e+01  -1.602144e+02
   1.240038e+02  -5.244108e+01
   7.963681e+01   5.704656e+01
  -2.195264e+01   1.066917e+02
  -1.418054e+02  -8.775593e+00
  -1.146110e+02  -1.879589e+02
   3.698634e+01  -3.041172e+02
   2.236558e+02  -2.052256e+02
   2.904208e+02   4.995900e+01
   2.183271e+02   2.676199e+02
   6.089961e+01   2.715658e+02
  -5.561883e+01   7.059827e+01
  -1.401471e+02   1.607973e+01
  -8.639406e+00   1.994914e+01
   4.767770e+01   1.061573e+02
  -7.943149e+01   1.125275e+02
  -1.600983e+02   3.329670e+01
  -1.421962e+02  -6.801345e+01
   3.539241e+00  -8.067842e+01
   1.004032e+02  -4.633271e+00
   5.611996e+01   7.102964e+01
  -1.600015e+02   7.385315e+01
  -2.854269e+02  -4.731552e+01
  -3.034148e+02  -1.767612e+02
   3.819982e+00  -2.515543e+02
   1.897742e+02  -1.995587e+02
   2.365620e+02  -3.860168e+01
   1.347385e+02   7.270568e+01
  -3.100141e+01   6.042407e+01
  -8.031220e+01  -6.847547e+00
   5.445435e+01  -4.220238e+01
   1.744608e+02   2.142299e+01
   1.555885e+02   1.212988e+02
   2.643508e+01   2.018411e+02
  -1.593343e+02   1.094003e+02
  -1.409838e+02  -2.369104e+00
  -6.472332e+01  -6.047934e+01
   7.315480e+01  -2.459894e+01
  -4.905112e+00   6.047607e+01
  -7.113234e+01   4.275776e+01
  -1.660672e+02  -3.095523e+01
  -8.754971e+01  -1.994494e+02
   5.634841e+01  -1.806435e+02
   1.826846e+02  -9.936129e+01
   1.015416e+02  -4.805267e+00
   1.062819e+01   8.477333e+01
  -1.023999e+02   2.678394e+01
  -8.816497e+01   1.080365e+01
   9.256566e+00  -1.856768e+01
   6.477093e+01  -1.878732e+01
  -1.033985e+01   1.107809e+01
  -1.273223e+02   1.244498e+01
  -1.060256e+02  -1.094168e+02
   3.218647e+00  -1.270316e+02
   1.205888e+02  -1.120501e+02
   2.333298e+02   5.661639e+00
   1.822853e+02   1.858139e+02
  -3.846512e+00   2.307192e+02
  -1.104168e+02   1.526786e+02
  -1.257425e+02   2.550064e+01
  -4.685885e+01  -6.566059e+01
  -1.431996e+01  -7.129016e+01
   9.932374e+00   5.713702e+01
  -5.838814e+01   3.452211e+01
  -1.847097e+01  -3.898265e+01
   2.557169e+00  -1.790234e+02
   1.399430e+02  -8.887229e+01
   1.085035e+02   2.087972e+01
  -3.254410e+00   1.344799e+02
  -1.698571e+02   1.053767e+02
  -2.124790e+02  -7.289317e+01
  -6.304256e+01  -1.904830e+02
   1.532584e+02  -2.111642e+02
   2.110982e+02  -5.144293e+01
   1.942760e+02   8.591647e+01
   5.646872e+01   1.579595e+02
  -3.761274e+01   1.255615e+02
  -8.337251e+01   5.853281e+01
  -4.711283e+01   7.389160e+01
  -8.600585e+01   7.648517e+01
  -6.869882e+01   7.781499e+01
  -8.978142e+01  -5.769233e+01
  -6.274508e+01  -1.960151e+02
  -2.940802e+00  -2.491665e+02
   1.360732e+02  -1.511034e+02
   1.491019e+02   5.959068e+01
   1.002592e+02   1.374960e+02
  -2.130584e+01   1.328052e+02
  -8.548389e+01   3.858699e+01
  -1.005931e+02  -5.834533e+01
  -1.957398e+01  -4.755679e+01
   5.390920e+01  -3.977257e+01
  -4.953162e+01  -5.062633e+01
  -6.406532e+01  -4.613338e+01
  -1.847049e+01  -5.942936e+01
   1.355205e+02  -3.970960e+01
   1.888149e+02   3.050786e+01
   2.039397e+02   9.428709e+01
  -3.304159e+01   1.192168e+02
  -1.411826e+02   9.327225e+01
  -1.361855e+02   2.325251e+01
  -6.389021e+01  -6.890807e+01
   6.121832e+01  -1.653402e+01
   7.539684e+01  -1.316680e+01
  -5.243905e+00   6.623062e+01
  -3.946605e+01   7.771370e+01
  -5.515138e+01  -2.353414e+01
  -5.518274e+01  -9.562458e+01
   1.278243e+01  -2.342770e+01
  -3.772756e+01   5.927179e+00
  -4.292320e+01   2.996542e+01
  -2.945458e+01  -7.463311e+00
   5.757157e+01  -1.246591e+02
   1.029353e+02  -1.439285e+02
   1.584746e+02  -1.021035e+02
   1.057576e+02   1.004095e+02
  -2.470525e+00   1.288463e+02
  -8.840951e+01   1.299765e+02
  -1.379213e+01   3.861517e+01
   8.664835e+01  -2.518602e+01
   8.824866e+01   8.385000e+00
   5.729897e+01   1.275473e+02
  -9.879953e+01   1.128922e+02
  -1.765782e+02   3.017422e+01
  -1.141534e+02  -2.227182e+01
  -2.086858e+00  -6.268144e+01
   5.010913e+01  -5.638519e+01
   3.296923e+01   4.728882e+01
  -6.409700e-01   1.201421e+01
  -6.648117e+01  -2.888905e+00
  -4.483803e+01  -1.183785e+02
   5.084038e+01  -1.295049e+02
   1.302450e+02  -6.042598e+01
   1.065391e+02   7.007914e+01
   1.987258e+01   1.392925e+02
  -7.088721e+01   1.245357e+02
  -3.189359e+01  -2.666763e+01
  -6.185947e+01  -1.046819e+02
   1.145916e+01  -9.497823e+01
   5.566832e+01  -1.428310e+01
   4.617700e+01   2.433818e+01
   3.084478e+01   1.720465e+01
   9.437291e+00  -1.532726e+01
  -1.347301e+01   4.447700e+01
   7.096709e+01   1.160551e+02
  -2.215206e+01   5.415998e+01
  -4.776205e+01   9.112432e+00
  -1.130472e+02  -9.826334e+01
  -9.198332e+01  -8.965830e+01
  -5.418131e+00  -6.216968e+01
   7.616501e+01  -2.413260e+01
   9.337591e+01   2.148542e+01
   9.700321e+01  -2.620693e+00
  -1.772124e+01  -5.195814e+00
  -1.544768e+00   2.562733e+01
   7.994150e+00  -1.435642e+01
  -3.860189e+01   2.876627e+00
  -6.257779e+01   8.989341e+00
  -5.267977e+01   1.500481e+01
  -2.610402e+01  -6.193867e+01
   1.141535e+02  -6.149020e+01
   7.915637e+01  -5.720332e+01
   1.312281e+02   4.435703e+01
  -8.717705e+00   1.450810e+02
  -4.434285e+01   1.349735e+02
  -1.009044e+02   9.362359e+01
  -3.356982e+01  -1.403233e+01
  -4.980549e+01  -4.565573e+01
  -4.237402e+01  -3.004393e+01
  -4.403264e+01  -5.754308e+01
  -1.823584e+01  -8.492368e+01
   1.828434e+01  -7.678751e+01
   5.464589e+01  -7.533404e+01
   6.752092e+01  -1.295931e+01
   6.363056e+01   1.297761e+02
   5.271669e+00   1.523057e+02
  -8.949233e+01   2.264028e+01
  -8.155289e+01  -5.300786e+01
  -9.129165e+01  -9.736060e+01
   2.236696e+01  -4.798959e+01
   4.053788e+01   6.220013e+01
   4.012500e+01   1.198247e+02
  -2.644639e+01   1.102600e+02
   9.370425e+00  -2.613801e+01
  -2.570107e+01  -1.035249e+01
   6.526996e+01  -1.179630e+01
   1.179155e+01   2.956678e+01
  -8.884843e+01   1.076346e+02
  -1.310287e+02   9.814141e+01
  -7.377526e+01  -5.538531e+01
   3.563919e+00  -7.924216e+01
   9.171083e+01  -9.215010e+01
   5.064672e+01  -2.177919e+01
   4.807908e+01   6.323442e+01
  -3.449378e+01   5.799729e+01
  -5.624973e+01   2.135897e+01
  -2.989986e+01  -1.518375e+01
   7.674574e+00  -3.566549e+00
   4.380147e+01  -3.070338e+00
   1.589251e+01   3.120158e+01
  -2.586778e+01  -1.505708e+01
  -2.688131e+01  -4.556360e+01
  -3.921201e+01  -4.816474e+01
   7.982791e+00   1.658508e+01
  -1.023768e+01   4.077569e+01
   2.410978e+01   4.307576e+01
   1.325856e+01   3.234457e+01
  -4.542726e+00  -4.203952e+01
   4.626760e+01  -1.508379e+01
   4.254171e+01   9.205545e+01
  -2.386568e+01   7.207984e+01
  -3.598934e+01   5.068208e+00
  -9.976863e+01  -3.649324e+01
  -7.640166e+01  -8.686123e+01
   4.290274e+01  -1.040340e+02
   6.037960e+01  -2.457251e+01
   3.155677e+01  -2.885706e+01
   1.913383e+01  -2.320660e+01
  -4.286159e+01  -4.108813e+01
   1.778014e+01  -3.546643e+00
   5.511886e+01   3.272414e+01
