
 $NMID
 id='ANONYMOUS ', fmtdat='(2E16.6)'
 volume=1.0
 tramp=1.0
 $END
   6.903531e+02  -1.122227e+02
   3.000740e+02   3.564851e+02
  -7.752839e+01   2.642691e+02
  -2.805788e+02   1.246843e+02
  -5.145479e+01  -1.216247e+02
   1.675526e+02  -1.469490e+02
   1.105734e+02   7.815863e+00
   8.824584e+01   7.106447e+01
  -8.539958e+01   8.650356e+01
  -9.563404e+01  -5.387007e+01
   3.145053e+01  -1.300324e+02
   1.312342e+01  -9.641348e+01
   1.521519e+02  -1.049098e+02
   5.632668e+01   5.014035e+01
  -5.708309e+01   4.935563e+01
  -8.470278e+01   5.403785e+00
   2.725433e+01  -1.901512e+02
   1.153092e+02  -1.817353e+02
  -6.500058e+01  -8.972589e+01
   5.231637e+01  -6.091136e+01
   7.201524e+01   1.082714e+02
  -1.152652e+01   8.387897e+01
  -6.782276e+01   2.867520e+01
  -3.597515e+01  -3.414174e+01
  -2.105352e+01   2.583020e+01
  -2.186919e+01   1.009835e+02
   2.420594e+01   9.915030e+01
  -1.369363e+02  -5.010963e+01
  -1.206801e+00  -9.232767e+01
   1.365640e+01  -8.516694e+01
   1.648303e+02   1.368781e+02
  -1.157872e+01   9.702124e+01
  -1.109707e+02   5.028748e+01
  -1.046936e+02  -3.201711e+01
  -7.416846e+01   3.371997e+01
   2.948687e+01  -9.201976e-01
  -3.568936e+00  -7.683638e+01
   5.020555e+01  -2.849575e+01
  -7.223370e+01   1.406448e+01
  -5.241884e+01  -1.980206e+00
  -3.585891e+01  -9.781920e+01
  -1.661215e+00  -4.629750e+01
   1.644215e+01   2.901521e+01
  -6.307665e-01   3.579783e+01
   1.171824e+00   2.196403e+01
  -6.064637e+01  -6.748716e+01
   1.337984e+01  -3.457554e+01
   7.375407e+01   1.361505e+01
   4.599451e+01   7.388178e+01
  -4.331547e+01   9.522934e+01
  -7.115588e+01   1.581377e+01
  -1.459563e+01  -7.413348e+01
  -8.437675e+00  -5.098850e+01
   1.943251e+01  -7.251088e+00
   6.060994e+01   5.740907e+01
  -2.860594e+01   3.603239e+01
   6.319074e+00  -2.512056e+01
  -3.760121e+01  -4.035418e+01
   2.520742e+01   1.426217e+01
   4.430387e+01   2.929811e+01
  -1.114875e+01   1.819659e+01
  -5.226452e+01   5.417348e+01
  -4.665421e+01  -1.906899e+01
  -2.962290e+01   3.274603e+01
  -1.225479e+01  -3.596200e+01
   3.648588e+01  -1.423897e+01
   4.017947e+01  -1.824742e+00
   5.648254e+01   4.655843e+01
   1.539220e+01   5.314677e+01
  -3.133165e+01   4.951890e+01
  -3.091606e+01   2.906310e+01
  -3.379923e+01  -5.567403e+01
   1.009204e+00  -4.412859e+00
  -3.835869e+01  -4.029659e+01
  -4.878858e+01   1.673978e+01
  -3.175910e+01   2.814045e+00
   1.382171e+01  -3.319458e+01
   2.902332e+01   2.499673e+01
   1.949088e+00   2.551134e+01
  -4.090582e+01   6.261724e+01
  -6.374773e+01   1.951040e+01
  -4.933459e+01  -1.400799e+01
  -7.121829e+01  -2.931009e+01
   2.289897e+00  -3.275215e+01
   1.148059e+01  -5.889986e+01
  -4.696897e+00  -1.945902e+01
  -1.488130e+01  -5.898405e+01
   1.286892e+01  -2.166816e+01
   4.310030e+01   2.681516e+01
   2.951991e+01   3.893456e+01
   3.204821e+01   1.696153e+01
  -8.038677e+01   7.982860e+01
  -9.850923e+01   1.554553e+01
  -1.036875e+02  -3.852106e+01
   1.587683e+01  -3.747994e+01
   2.602461e+01  -7.024203e+01
  -1.818189e+01  -1.391409e+01
  -5.312546e+01  -9.682878e+00
  -3.575342e+01  -1.288389e+01
   3.482661e+01  -4.670100e+01
   4.496234e+01  -4.975754e+01
   2.409183e+01  -1.797695e+01
  -2.162899e+01   3.792794e+01
  -3.914695e+01   2.324804e+01
  -2.045522e+01  -3.499235e+01
  -1.020133e+01  -6.678317e+01
  -1.427040e+01  -6.152163e+00
   3.986206e+01  -1.225271e+01
   5.398559e+01   3.647630e+00
  -1.447535e+01   1.069965e+01
   1.765549e+01  -2.836940e+00
  -1.899954e+01  -9.488599e+00
   4.076361e+01  -4.693300e+01
   1.338213e+00   2.174950e+01
   2.626232e+01   2.993946e+01
  -2.690501e+00   4.167049e+01
   2.252363e+01   1.147353e+01
  -3.664723e+01  -5.234209e+01
  -2.317571e+01   1.992419e+01
  -1.074280e+01   3.866161e+01
  -6.630126e+01   2.390608e+01
  -5.241975e+01  -4.010104e+01
  -4.220002e+01  -7.258151e+01
   1.219625e+01  -3.202364e+01
   7.096405e+01   3.547589e+00
   5.503349e+01  -3.854122e+01
   1.779266e+01  -1.254852e+01
  -4.326250e+01  -1.212093e+00
   1.016064e+01   2.930551e+00
   2.892724e+01   3.299279e+01
   2.288889e+01  -3.998147e+01
   1.869103e+01   2.566511e+00
  -7.620295e+00   3.945028e+00
   8.186924e+00   1.990298e+01
  -8.985943e+00  -3.412490e+01
   3.326424e+00   5.919923e+00
   2.156634e+01   3.305708e+01
  -2.446994e+01   4.213455e+01
  -1.337716e+01   3.000628e+01
   1.345646e+01   2.112295e+01
  -2.453342e+01  -3.123699e+01
   9.487084e+00  -6.243171e+01
   4.013213e+01  -7.909171e+00
   4.631614e+01   2.302376e+01
  -3.636582e+01  -2.113090e+01
  -3.455619e+01   1.463664e+01
  -3.449267e+01  -1.586784e+01
  -6.354926e+00  -2.812449e+01
   6.789291e+00  -1.149230e+01
  -3.288125e+00  -1.136661e+01
  -2.182071e+01  -1.980729e+01
   4.324723e+01  -2.354900e+01
   3.503426e+01  -2.570043e+01
   4.384811e+01  -3.435639e+01
   7.069136e+01   2.514948e-01
   2.899867e+01   1.213952e+01
  -1.283128e+01  -2.501930e+01
   7.484342e+00   3.910997e+01
   1.467119e+01  -2.132643e+01
   4.214841e+01  -2.146726e+00
   8.308291e+00   1.817775e+01
  -3.946622e+01   2.335019e+01
  -2.618602e+01   7.371931e+00
  -1.608552e-03  -1.248771e+01
   1.591067e+01   1.364862e+01
   3.398081e+01  -3.076135e+01
  -2.367000e+01  -4.645178e+00
   6.246393e+00  -1.533485e+01
  -1.534650e+01  -9.816095e+00
   2.619218e+01  -2.417385e+01
   1.913195e+01  -1.076912e+01
   1.644377e+01  -2.457717e+01
   5.440307e+01  -1.318661e+01
   4.036706e+01   6.047786e+01
   5.467992e+01   5.339883e+01
  -6.802416e+00   2.967005e+01
  -9.951025e+00   5.527657e+01
  -9.299577e+00   3.756513e+01
   1.367524e+01  -2.144297e+00
  -5.389976e+01  -5.979223e+00
  -4.201012e+01   1.156449e+01
  -2.708237e+01  -8.815075e+00
  -1.488748e+01  -3.917864e+01
  -2.041027e+01  -1.751840e+01
  -2.259134e+01   1.177752e+00
  -2.668786e+01   2.568865e+01
  -4.076819e+01   1.896468e+01
  -7.682884e+01   9.168028e+00
  -3.749995e+01  -1.807659e+01
   2.602674e+01   2.291443e+00
   1.362780e+01  -3.157424e+01
  -3.842195e+01  -2.275288e+01
   1.710008e+01  -8.592224e+00
  -3.165886e+01   1.202496e+01
  -2.460877e+01  -3.156320e+01
   7.381409e+00   8.508368e+00
   5.931813e+01   8.693724e+00
  -3.496290e+01   1.523311e+01
  -5.567403e+01  -1.742886e+00
  -5.437572e+01   3.389795e+01
  -1.439169e+01   1.595326e+01
  -2.315251e+01  -2.316591e+01
   3.680594e+00  -3.128033e+01
   5.375896e+01   4.239593e+01
  -1.396696e+01  -1.243433e+01
   9.855834e-01   3.337347e+00
   1.882370e+01  -2.828384e+01
   4.824762e+01  -6.442699e+00
  -1.284909e+00   8.355776e+00
  -2.291354e+01   9.785163e+00
   7.111665e+00  -2.792972e+01
   4.416461e+01   2.251381e+00
   4.827697e+01  -4.410035e+01
   4.958103e+00   3.687033e+01
   1.346224e+01   1.030928e+01
   4.566846e+01   2.588706e+01
  -3.099242e+01   1.576805e+01
   1.413866e+01   3.954387e+01
   6.850720e+00   1.241890e+00
   5.970404e+01   8.199558e-01
   7.579207e+00   2.077329e+01
  -2.233143e+00  -3.181250e+01
  -2.533489e+01  -2.673641e+01
   4.289501e+00  -2.420399e+01
  -4.233680e-01  -1.897133e-01
   3.419979e-01  -4.662368e+01
  -1.805799e+01   5.512702e+01
   2.099843e+01   1.167561e+01
   1.202619e+01   3.281642e+01
   1.955120e+01   7.733429e+00
   2.796505e+01  -2.372743e+01
   5.164116e+01  -5.848658e+01
   1.589575e+01   2.982665e+00
  -4.733401e+01   1.532593e+01
  -1.412631e+01   1.287889e+01
   5.740356e+01   1.111021e+01
  -2.468089e+01   6.756933e+00
  -1.250282e+01   4.535116e+00
   4.667560e+01   8.408975e-01
   4.182928e+00   5.364354e+00
  -1.303170e+01   2.540987e+01
   1.100660e+01  -1.639892e+01
   3.372375e+01  -2.897699e+01
  -2.607030e+01  -4.021666e+01
   2.681945e+01   6.339551e+00
  -1.897432e+01   2.913721e+01
  -1.757557e+01  -2.062618e+01
  -9.533829e+00  -3.253892e+01
  -2.343922e+01   2.199482e+01
   1.255587e+01   1.832457e+01
   1.030842e+01   1.222698e+01
   4.514515e+00  -4.646415e-01
  -1.963586e+01   5.892787e+00
   2.068145e+01  -7.464634e+00
   1.031224e+01  -3.340008e+01
  -5.604213e+01   4.838486e+01
   3.001171e+01  -4.476275e+01
  -4.592366e+01   3.953645e+01
  -4.289915e+01   5.216950e+00
   3.354527e+01   7.087900e+00
   4.135054e+01  -2.640563e+01
  -3.179898e+00   3.194596e+01
   2.848170e+00  -6.282831e+00
  -6.598918e+00   4.264343e+01
  -1.552878e+01   2.099979e+01
   6.717217e+00  -4.281940e+01
   1.668144e+01  -2.321502e+01
   1.022336e+01   7.156491e+00
   4.406759e+00   1.276753e+01
   5.711309e+01  -2.699204e+01
  -5.912505e-01  -1.759057e+01
   2.310782e+01  -2.021341e+01
   2.021467e+01   7.067904e+00
   1.106558e+01   3.433069e+01
  -3.405264e+01   1.843087e+01
  -2.904629e+01   3.243873e+01
  -1.144408e+01  -1.878697e+01
   2.092762e+01   5.071893e+00
   4.449572e+00   7.251169e+00
  -1.170527e+01  -1.950919e-02
   3.980244e+01   8.512976e+00
  -2.780115e+01   2.589652e+01
   3.088442e+00   1.581293e+01
   4.828767e+01  -2.895066e+01
   5.971458e+01  -5.016504e+01
  -1.460962e+01   2.151782e+01
  -2.764161e+01  -8.157510e+00
  -2.760170e+01   2.258955e+01
  -1.705815e+01  -2.029240e+01
  -4.880674e+01   6.136009e+00
   9.879058e+00  -9.460301e+00
   6.612892e+00   3.214041e+01
  -1.707356e+00   2.120411e+01
  -2.338298e+01   5.581087e+01
  -8.711128e+00   6.560140e+01
   1.385616e+00   1.078508e+01
   3.290610e+01  -1.012037e+01
   1.732553e+01   4.087405e+01
  -2.400840e+01   1.117056e+01
   6.179151e+00   2.462752e+00
  -2.015033e+00  -5.828392e+00
  -2.449792e+01   2.394432e+00
  -6.672727e+00   5.144478e+01
   2.610261e+01   6.383400e+00
  -1.984979e+01  -4.185421e+00
  -4.574820e+01   1.063115e+01
  -9.004219e-01  -1.210771e+01
   4.866338e+01  -3.905366e+01
   1.455667e+01   8.451242e+01
  -1.440882e+01   3.900387e+01
  -1.814994e+01   4.780948e+00
   2.470170e+00  -2.684532e+01
   1.276089e+01  -3.604369e+01
   2.164487e+00  -2.103441e+01
   5.364863e+01   1.104591e+01
  -4.867624e+01   1.014578e+01
  -1.177858e+01   2.714416e+01
  -2.187973e+01   2.957828e+01
   3.071657e+01  -1.633540e+01
   3.487195e+01   1.189901e+01
