
 $NMID
 id='ANONYMOUS ', fmtdat='(2E16.6)'
 volume=1.0
 tramp=1.0
 $END
  -1.959360e+02   2.954539e+01
  -5.549728e+00  -7.287887e+01
   3.150197e+01  -9.664686e+00
  -3.818423e+01  -2.738616e+01
   5.512944e+01   4.260626e+01
   2.921811e+01  -3.146069e+00
  -3.770280e+01   2.336285e+01
   4.654233e+01  -8.092089e+00
   4.757717e+01   6.588259e+00
  -1.378526e+01  -1.402692e+01
  -6.089204e+00  -7.818741e+00
  -2.141006e+00  -8.115498e+00
   1.634508e+01   2.525262e+01
  -3.357680e+01   2.331845e+01
   7.355309e+00  -1.364700e+01
  -4.514011e+01   3.133937e+01
   2.194096e+00  -8.170887e+01
   2.303885e+01   3.906296e+01
   1.533321e+01  -4.308705e+01
   1.663680e+01   1.434517e+01
  -6.507015e+01  -9.433345e+00
   6.040989e+01   1.853842e+01
  -1.988121e+01   1.390088e+01
  -1.633846e+01   9.514259e+00
   2.354657e+01   3.486447e+01
  -6.396812e+00   1.338582e+01
  -1.041806e+01  -2.386660e+01
   8.872409e+01   6.475714e+01
  -1.349262e+01  -4.151183e+01
  -5.509850e+01  -1.569871e+01
   2.563806e+01  -1.850449e+00
  -2.941358e+00  -2.528668e+01
  -7.269223e+00   5.135118e+01
   2.994745e+01   2.576650e+01
   5.474329e+00   2.363710e+01
   9.136351e+00   2.524840e+01
   6.025322e+01   2.511633e+01
   3.264814e+01   4.395623e+01
  -3.163255e+01   1.461101e+01
   2.041521e+01   2.270714e+00
   2.415704e+01   2.198512e+01
   2.003101e+01  -9.690686e+00
  -7.322772e+00  -5.961478e+00
  -4.397617e+01   4.085619e+01
   1.227423e+01  -2.275783e+01
   1.958270e+01   1.672087e+01
   1.047938e+01   8.152263e+00
  -1.310509e+01  -2.677279e+01
  -2.334068e+00  -1.152605e+01
  -2.471224e+01   2.272750e+01
  -2.185528e+01   1.188670e+01
   1.050470e+00   2.250962e+01
   2.567632e+01  -1.634955e+01
   7.856763e+00  -2.434911e+01
  -5.662896e+01   1.362727e+00
  -2.919237e+01   7.630310e+00
  -4.551459e+01   2.990150e+01
  -6.306673e+00  -1.381569e+01
  -9.343796e+00   4.007788e+00
   2.422700e+01   4.445429e+00
  -2.229307e+01   4.742268e+00
   4.752862e+00  -1.363233e+01
  -2.272410e+01  -2.839018e+01
   7.131938e-01   6.470501e+01
   7.319586e+00  -6.611119e+00
  -1.284670e+01  -1.094950e+01
   1.168771e+00   5.128612e+01
  -6.660385e+00  -2.060741e+01
  -3.178442e+01  -1.712334e+01
  -3.352318e+00  -7.283558e+00
  -2.574035e+01  -6.553758e+00
  -1.759821e+01   2.385609e+01
  -1.702483e+01   1.756498e+00
  -3.305626e+01   1.212066e+01
  -3.842028e+01   3.241627e+01
   3.552139e+01  -2.272555e+01
   3.845412e+01  -3.101278e+01
   2.826792e+01  -2.066844e+01
  -5.080865e+01   2.246167e+01
  -2.319493e+01  -8.548061e+00
   1.312782e+01   2.864830e+01
   2.645153e+01  -8.763530e+00
  -1.175081e+01   7.080628e+00
   1.663554e+01   2.047990e+01
  -1.251279e+01   4.414607e+00
   1.297954e+01   1.746658e+01
   1.034936e+01   2.065938e+01
   2.137206e+01  -1.003816e+01
  -1.857444e+01   1.759832e+01
  -1.493793e+01   2.867333e+01
  -8.421005e+00  -1.288158e+01
  -8.519368e+00  -4.297351e+01
  -4.323203e+00  -1.080577e+01
   1.632940e+01  -3.485732e+01
  -1.349513e+01   2.547876e+01
   4.473980e+01   4.908392e+01
  -4.527428e+00   9.887903e+00
   3.108277e+01   3.840601e+01
   3.548401e+01  -4.496241e+00
   4.662755e+01   2.581527e+01
  -1.107903e+01   4.155377e+00
   1.721294e+01  -3.818255e+01
  -3.461038e+01   7.456036e+00
  -1.574775e+01  -4.453473e+01
  -3.503999e+01   3.669436e+01
  -8.489158e+00   3.494368e+01
  -1.376127e+01   3.858449e+01
   2.241022e+00  -2.848985e+01
   3.453423e+01  -5.180230e+01
  -1.502217e+01   4.843542e-01
   1.809094e+01  -3.869797e+01
   2.925498e+01  -2.999349e+01
   1.311270e+01   9.541929e+00
  -3.787710e-01   3.895515e+01
  -2.783766e+00   4.742180e+01
   4.564881e+01   2.669211e+01
   1.396880e+01   4.143479e+01
   3.186544e+01  -2.638188e+00
  -4.581630e+00  -3.061748e+01
   3.155551e+01  -3.262297e+00
   2.290293e+01   2.203023e+01
  -2.271760e+01  -2.073440e+01
  -5.191525e+00   4.038681e+01
  -2.273867e+01   1.022419e+01
  -5.265722e+01   1.517600e+01
   2.369457e+01  -1.388243e+00
   3.168901e+01  -7.095576e+00
   1.953911e+01  -1.775471e+01
   1.644671e+00  -1.736873e+01
   1.109650e+01  -2.647465e+01
   1.853532e+00  -1.748158e+01
  -5.253908e+01  -1.113678e+01
  -5.158191e+01  -1.325454e+01
   1.033603e-01   2.903234e+00
   1.481425e+00  -1.484709e+01
   1.929834e+01  -2.567460e+01
  -1.587162e+01   4.133853e+01
  -2.374328e+01  -2.647773e+00
   2.482783e+01   3.923431e+00
   2.357678e+01  -1.242481e+01
  -4.922104e+00   6.558638e+00
  -3.309661e+01   2.768442e+01
   5.833667e+00  -1.968748e+01
  -1.389019e+01   2.040921e+01
  -2.219709e-01   8.851308e+00
   1.761114e+01   1.914451e+01
  -1.384299e+01   3.161166e+01
  -6.827352e-01  -9.584200e+00
  -2.142547e+00   1.275750e+01
  -1.141274e+01  -1.297839e+01
   4.705436e+01   3.336765e+01
   1.194114e+01  -4.808714e-01
   2.860435e+01   2.020232e+01
   3.100809e+01   3.810166e+01
  -3.775944e+01  -2.868481e+01
   2.095372e+01   2.588175e+01
  -2.990835e+01   2.533067e+01
   1.980433e+01  -1.407919e+01
   1.610379e+01   3.460145e+01
  -1.122964e+01   2.508931e+01
   3.115655e+01  -2.541956e+01
   2.499546e+00  -9.169763e+00
   7.350531e+01  -1.586951e+01
  -4.675122e+01   5.445817e+01
  -5.319507e+00  -1.813953e+01
   1.892495e+01   1.019577e+01
  -2.262714e+00  -1.715206e+01
   3.106448e+01  -2.138315e+01
  -1.537858e+01   1.935193e+00
   1.378334e+01  -1.112523e+00
   2.244058e+01  -2.096786e+01
  -1.303835e+01   6.031911e+00
  -4.425846e+01   2.162158e+01
  -3.298033e+01   6.402118e+01
  -6.365096e+00  -4.302504e+01
  -3.604267e+01  -1.836193e+01
  -1.112932e+01  -2.037418e+01
  -3.912422e+01  -6.701019e+00
   1.160586e+01   2.293737e+01
  -1.035560e+01   5.827223e+00
  -4.267182e+01   2.306934e+01
  -2.509070e+01   2.820201e+01
  -7.348345e-01   9.435870e+00
   1.558574e+01   2.471746e+01
   3.421555e+00  -3.088534e+01
   4.578433e+00   2.379906e+01
   2.216565e+01  -8.426526e+00
  -4.384229e+00   3.132529e+01
   1.270621e+01   1.435613e+01
   4.894186e+01  -3.470271e+01
   1.946537e+01   4.037014e+00
  -9.681266e+00  -5.441478e+01
   5.077716e+01   2.405325e+01
   1.453051e+01   7.651321e+00
  -1.090889e+01   3.810574e+01
   4.975695e+00   2.722405e+01
  -2.178452e+01  -1.868013e+01
   2.247292e+01   4.376400e+01
  -1.688619e+01   2.263262e+01
   2.638142e+01   1.382511e+01
  -3.555678e+00  -1.432985e+01
  -1.392895e+01   9.332118e+00
   5.227315e+01   1.300496e+00
   1.894259e+01   2.937588e+01
  -4.325810e+01   4.318008e+00
  -2.795470e+01   1.446505e+01
  -1.222111e+01  -8.003221e-01
   1.801300e+01   2.844641e+00
   1.925875e+01  -6.068614e+00
   2.491795e+01   2.984584e+00
  -2.276298e+01  -1.139716e+01
  -4.774805e+00  -4.470826e+01
  -2.562238e+01  -2.006995e+01
  -4.534130e+01   7.549113e+00
   8.157515e+00  -9.757366e+00
  -1.394813e+00  -1.022318e+01
  -6.860557e+00   3.457837e+00
   4.998294e+01   5.405689e+00
   8.669828e+00  -5.822597e+01
  -2.830824e+01   4.908609e+00
  -2.059057e+01   1.054794e+01
   2.519448e+01   3.193425e+01
   1.774870e+01   3.184829e+01
   9.979586e-01   2.627550e+01
   4.123400e+01   3.675969e+01
  -3.570779e+00   1.279040e+01
   3.220284e+01   5.444234e+01
   4.053626e+00   3.440757e+01
  -6.976016e+00   1.054615e+01
   2.992398e-02   5.940294e+01
  -4.052982e+01   6.401474e+01
   3.909783e+01   3.443918e+01
  -1.790187e+01   2.718902e-01
  -4.837218e+00   3.561190e+01
   6.289986e+00   1.925240e+01
   8.210416e+00   4.358071e+00
   1.347115e+01   9.253080e+00
   9.954033e+00   1.629580e+01
   6.869809e+00  -2.721859e+01
  -3.372400e+00  -2.170455e+00
  -5.328293e+01  -2.048495e+01
   1.466489e+01  -4.157927e+01
  -1.520423e+01   1.472776e+01
  -2.712652e+01  -2.831853e+01
  -1.527338e+01  -1.490996e+01
  -2.222205e+01   3.576460e+01
  -1.835694e+01   1.153532e+01
   2.931805e+01  -3.433191e+00
   1.830121e+01  -1.915961e+00
  -7.538539e+00   1.633081e+01
   4.144170e+01  -1.238982e+01
  -1.759500e+00  -1.553045e+01
   3.446889e+01  -3.749793e+00
  -1.529417e+00  -5.217608e+00
   2.987821e+01   2.925089e+01
  -3.690587e+01  -4.776991e+01
  -2.527398e+01   2.861546e+00
  -1.972485e+01  -1.133425e+01
   1.613671e+01   4.047096e+00
   2.076083e+01  -3.968913e+00
  -7.648556e+01   1.807563e+01
  -1.251540e+00   2.130493e+01
  -3.512414e+01  -1.544363e+01
  -2.625917e+01   1.596992e+01
   3.937029e+00  -5.977232e+00
   4.749041e+00  -1.290811e+01
  -2.196735e+01  -8.180535e+00
  -8.231920e+00  -1.181355e+01
   1.070016e+01  -1.473077e+01
  -4.815039e+01  -1.480685e+01
   1.385199e+01   2.900229e+00
   3.167625e+01  -3.466131e+01
   5.526660e+00   3.022177e+01
   5.217702e+01  -4.439446e+00
   5.569540e+00   8.490845e+00
   1.605719e+01  -6.412091e+01
   5.921840e+01  -3.086232e+01
  -2.892022e+01  -1.975697e+01
   1.680031e+01  -4.221659e+01
  -5.208773e+01  -4.099158e-01
  -3.788561e+01  -4.351505e+01
   2.927074e+01   2.265559e+01
   1.606080e+00  -1.209910e+01
  -5.094406e+00  -1.423565e+01
  -1.765739e+01   1.737971e+01
   3.292839e+01  -1.113313e+01
   3.244545e+01   3.006833e+01
  -5.944477e+00  -4.821334e+01
  -2.715315e+00  -8.464403e+00
  -1.752121e+00  -1.118117e+01
   1.746180e+00  -1.530678e+01
  -1.363346e+01  -1.887601e+01
  -5.124375e+00  -4.231906e+01
  -3.520156e+01  -1.394363e+01
  -3.188378e+00   3.395163e+00
  -2.447384e+01  -1.349895e+01
   4.487614e+01   4.215143e+01
  -1.133892e+01   2.758001e+01
  -3.021899e+00   2.634240e+01
   1.189245e+01  -2.664203e+01
   1.485417e+01  -4.846033e+00
  -3.992857e+01  -2.830984e+01
   4.212797e+00  -4.634726e+00
   2.765021e+01   3.047027e+01
   1.052060e+01  -8.908710e+00
   9.897571e-01   9.588304e+00
   3.990103e+00   3.175631e+01
  -2.091478e+00  -8.732834e-02
   1.087269e+01  -1.502643e+01
   2.453613e+01  -9.306801e+00
   1.540360e+01   1.752831e+00
  -4.945526e+00   3.488870e+01
  -1.207168e+01  -2.238161e+01
   5.711653e+01   3.355960e+00
  -1.219973e+01   6.117131e+00
   4.875376e+01   2.923359e+01
   9.611736e+00   5.613763e+00
   3.422949e+01   2.018903e+01
  -8.197443e+00   3.173543e+01
   3.377317e+00  -1.849965e+01
