
 $NMID
 id='ANONYMOUS ', fmtdat='(2E16.6)'
 volume=1.0
 tramp=1.0
 $END
   1.264668e+03   1.524692e+02
   9.369709e+02   6.255362e+02
  -4.871785e+01   6.927408e+02
  -5.394552e+02   5.891015e+02
  -4.213095e+02   1.104343e+02
   4.140433e+01  -1.735827e+02
   1.896008e+02   7.879787e+01
   2.759527e+01   2.374626e+02
  -1.673626e+02   3.047538e+02
  -1.859824e+02   1.362492e+02
  -2.545038e+02  -2.372446e+02
  -5.880197e+01  -3.707911e+02
   7.665754e+01  -8.778404e+01
   8.229050e+01   1.734903e+02
   3.770738e+01   2.663452e+02
  -1.677061e+02   9.895160e+01
  -2.148766e+02  -1.516002e+02
  -2.927678e+01  -2.312028e+02
   3.297969e+02  -1.747472e+02
   2.740180e+02  -7.341815e+01
   5.915733e+01   1.756387e+02
  -3.801841e+01   6.672984e+01
  -9.586063e+00  -1.473870e+01
   3.190465e+01   6.704109e+00
   1.114999e+02   1.706277e+02
   7.077100e+01   1.174223e+02
  -1.478719e+02  -2.972389e+01
  -1.707795e+02  -5.393980e+01
  -7.880002e+01  -1.482794e+02
   1.831572e+02  -3.268027e+01
   1.818422e+02   1.294191e+02
   1.461574e+02   2.034816e+02
  -4.893000e+01   1.707058e+02
  -1.931746e+02   5.916753e+01
  -1.533708e+02  -4.075541e+01
  -6.797099e+01  -1.507577e+02
   5.700656e+01  -1.814473e+02
   1.470324e+01   1.305316e+01
  -5.337299e+01   6.036236e+01
  -7.386067e+01  -4.193546e+01
  -2.498676e+01  -1.960335e+02
   1.126617e+02  -1.915183e+02
   1.767697e+02  -6.864410e+01
   1.241604e+02   5.787023e+01
  -3.228618e+01   6.296277e+01
  -3.113373e+01  -5.159509e+01
   3.024572e+01  -1.068239e+02
   1.721319e+02   3.411986e+00
   2.030882e+02   1.663717e+02
   7.219125e+01   2.478587e+02
  -1.806859e+02   1.342875e+02
  -2.530827e+02  -3.933222e+00
  -1.637367e+02  -1.074359e+02
   6.526005e+00  -8.644066e+01
   1.130551e+02  -5.282578e+01
   1.052981e+02  -8.990247e+00
   1.558438e+01  -1.781285e+01
  -3.238919e+01   9.158321e+00
  -3.346075e+00  -5.081523e+01
   4.586243e+01   2.480676e+00
  -4.101807e-01   8.810868e+01
  -8.389587e+01   1.161770e+02
  -1.323285e+02   7.088134e+01
  -1.105870e+02  -4.368857e+01
   6.942124e+00  -2.221587e+02
   1.400190e+02  -2.098182e+02
   1.550619e+02  -1.022661e+02
   1.130333e+02   8.832844e+01
   4.305930e+01   1.379328e+02
  -7.949108e+00   1.791938e+02
   7.798038e+00   9.587232e+01
  -8.200796e+00   1.128167e+02
  -4.618858e+01   6.905115e+01
  -1.067625e+02   3.986864e+01
  -1.391383e+02  -4.047185e+01
  -6.132667e+01  -1.111226e+02
   8.146818e+01  -5.075962e+01
   1.123441e+02   1.147180e+01
   6.714998e+01   1.070044e+02
  -1.008931e+01   1.173151e+02
  -1.075525e+02   7.313998e+01
  -1.472104e+02  -5.364304e+01
  -8.762142e+01  -1.359821e+02
  -3.232940e+00  -1.253412e+02
   4.452725e+01  -9.505720e+01
   1.042215e+02  -3.045613e+01
   1.365383e+02  -4.797351e+01
   1.894035e+02  -2.207254e+00
   1.744998e+02   4.799986e+01
   1.574832e+02   1.397263e+02
  -3.598990e+01   2.365913e+02
  -1.838389e+02   2.121383e+02
  -2.527465e+02   9.411325e+01
  -1.414836e+02  -8.444970e+01
  -3.607695e+01  -1.259869e+02
   2.139653e+01  -1.515243e+02
   6.127938e+01  -6.281908e+01
  -2.333353e+01  -5.990773e+00
  -3.686168e+01  -4.520359e+00
   1.804436e+01  -5.919478e+01
   3.614042e+01  -7.628497e+01
   7.512334e+01   4.819681e+01
  -2.290813e+01   5.877866e+01
  -9.091594e+01   4.307137e+00
  -6.924773e+01  -1.147996e+02
   1.346172e+01  -1.301913e+02
   6.538820e+01  -6.008141e+01
   1.387309e+02   3.353918e+01
   1.401112e+02   1.437451e+02
   1.304875e+01   7.887182e+01
  -8.029993e+01   5.737651e+01
  -9.215797e+01  -2.389484e+01
  -7.549495e+01  -8.506781e+00
  -1.107870e+01   1.618670e+01
   2.674986e+01   1.855244e+01
  -1.789712e+01   4.806742e+01
  -4.679947e+01  -5.986436e+00
   3.047357e+00  -1.433016e+01
   6.670878e+01   3.753078e+01
   6.900390e+01   5.317279e+01
  -9.698412e+01   2.191360e+01
  -1.740054e+02  -5.538316e+01
  -1.185693e+02  -6.043677e+01
  -7.150519e+00  -1.637244e+02
   1.330720e+02  -9.717929e+01
   1.540978e+02  -3.171626e+01
   6.911414e+01   6.803780e+01
  -2.286478e+01   3.999722e+01
  -6.136766e+01   1.450232e+01
   8.716112e+00  -3.847566e+01
   8.590749e+01  -1.930451e+00
   6.329641e+01   5.138563e+01
  -1.902555e+01   6.864652e+01
  -8.276038e+01   2.975386e+01
  -5.263013e+01  -3.626477e+01
   2.650661e+01  -6.549890e+00
  -4.417511e+00   2.941346e+01
  -6.430753e+00   5.718431e+01
  -3.015963e+01   1.136114e+02
  -8.842251e+01  -2.518307e+01
  -5.665097e+01  -4.327810e+01
  -1.810430e+01  -1.077024e+02
   1.098590e+02  -5.183867e+01
   1.001514e+02   6.854323e+00
  -3.412710e+01   6.699916e+01
  -4.649221e+01   3.447858e+01
  -2.794415e+01   3.150037e+01
  -1.677865e+00  -1.570204e+00
   2.143606e+01  -2.584434e+01
   8.009299e-01   1.581458e+01
  -4.832288e+01   1.641811e+01
  -5.270160e+01  -3.619090e+01
  -1.502326e+01  -9.105418e+01
   6.965472e+01  -1.038009e+02
   1.138361e+02  -5.148439e+01
   7.619798e+01   6.732993e+01
   2.464811e+01   1.035286e+02
  -2.684634e+01   4.421089e+01
  -3.717957e+01   2.242788e+01
  -4.727674e+01   1.490379e+00
   1.270456e+01   1.502443e+01
  -3.548909e+01   1.650204e+01
  -7.735940e+01  -4.819319e+01
  -2.246734e+01  -1.665190e+01
  -2.530103e+01  -5.607869e+01
   2.386230e+01  -2.313749e+01
   3.848848e+01   3.915160e+01
   1.804660e+01   6.309116e+01
  -4.610813e+01   9.575108e+01
  -6.821668e+01  -9.240109e+00
  -4.650095e+01  -1.039500e+02
   7.228086e+01  -6.892355e+01
   1.232040e+02  -5.609021e+01
   4.549049e+01   9.121174e+01
   5.910271e+01   4.928606e+01
  -5.921834e+01   4.021457e+01
  -4.087040e+00   2.746618e+01
  -3.718499e+00   1.545956e+01
   4.949298e+00   7.420357e+00
  -8.954468e+00   6.261931e+01
  -3.253153e+01  -3.286560e+01
  -2.613218e+01  -1.218724e+02
   7.272568e-02  -6.087231e+01
   8.721272e+01  -8.181061e+01
   1.082009e+02   1.473036e+01
   8.406605e+01   4.806276e+01
   1.119853e+00   7.915576e+01
  -3.488037e+01   4.216498e+01
   3.338776e+01   1.594173e+01
  -3.792253e+01   9.222797e+00
   1.965629e+01  -2.580625e+01
   1.374955e+01   1.309229e+01
  -1.066325e+01  -1.658576e+01
  -4.094787e+01  -3.946691e+01
  -1.331610e+01  -2.882679e+01
   9.082019e+01  -3.941071e+01
   5.915495e+01   3.695729e+01
  -1.366857e+01   3.798009e+01
  -9.644661e+01  -2.617986e+01
  -2.805473e+01   1.140487e+01
   2.132179e+01   2.458836e+01
   5.810932e+01  -1.461732e+01
   3.756373e+01   4.127503e+01
  -1.576511e+01  -3.221135e+00
  -6.656260e+00  -1.340898e+01
  -2.555445e+01   3.174092e+01
   1.591652e+01   1.774365e+01
  -3.375140e+01  -1.967221e+00
  -5.754006e+01   2.020827e+01
  -1.929017e+01  -1.896338e+01
  -7.833292e+00  -3.628364e+01
   6.806177e+00  -5.836066e+01
   6.051616e+01  -2.985253e+01
   1.164762e+02   1.713075e+01
   3.050183e+01   6.861960e+01
   1.591265e+00   3.537072e+01
  -5.275937e+01   1.566171e+01
  -4.839782e+01   1.213599e+01
  -3.022138e+01  -2.213961e+01
   4.068789e+01   3.067516e+01
   4.071423e+01   4.114234e+01
  -8.575546e+01   5.241513e+01
  -1.210164e+02   3.465782e+01
  -5.224306e+01  -3.186840e+01
  -2.205447e+00  -2.820918e+01
   5.417535e+01   6.435774e+00
   3.896756e+01   2.769949e+01
  -3.783681e+01  -2.656504e+01
  -3.061095e+01  -3.459199e+00
  -1.790117e+01  -5.708247e+01
   2.920204e+01  -2.094125e+01
   5.663708e+01   5.977998e-01
   3.884588e+01   4.531612e+01
   1.744425e+01   7.631958e+01
  -3.772435e+01   5.679855e+01
  -5.067069e+01   1.242331e+01
  -8.649096e+00  -7.231395e+01
   3.899715e+01  -1.173543e+01
   4.381018e+01   1.581955e+01
   4.600986e+01   1.839029e+01
  -1.976333e+01  -1.146483e+01
  -1.819464e+01   3.410517e+01
  -2.987491e+01  -1.814987e+01
   2.571198e+01   3.992914e+01
   6.788954e+01   3.392651e+01
  -4.032460e+01  -3.766859e+00
  -6.303045e+01  -9.317074e+00
  -8.200451e+01  -1.714813e+01
  -1.408474e+01  -1.435114e+01
   4.162102e+01   8.498926e-01
   1.166531e+01  -3.370473e+01
  -5.973039e+00  -7.350724e+00
  -7.247350e+00   1.433388e+01
  -8.011067e+00   1.918290e+01
  -1.938478e+01  -3.630271e-01
   7.746895e+00  -7.177730e+00
  -6.400282e+01   3.850051e+01
  -3.904468e+01  -9.029437e+00
  -1.346198e+01  -4.388866e+01
  -2.029912e+01  -8.777113e+01
   7.940166e+01  -1.339271e+01
   2.923827e+01   1.743197e+01
   4.945131e+01   3.177212e+01
  -1.855593e+01   5.288044e+01
  -4.797030e+01   2.511613e+01
  -7.506959e+01  -2.489543e+01
  -1.336473e+01  -8.916061e+00
   9.438612e+00   2.088623e+01
  -8.056489e+00  -6.352644e+00
  -7.519954e+00  -3.354391e+01
   2.121669e+00  -2.684455e+01
   2.708845e+01   4.900910e+00
   3.198316e+01   1.797514e+00
   5.120076e+01   3.362941e+01
  -1.259028e+01   9.176323e+01
  -7.570409e+01  -3.976590e+00
  -5.243412e+01  -1.565097e+01
   9.385184e+00  -5.711477e+01
   1.342949e+01  -1.071527e+01
  -7.084862e+00  -1.738226e+01
  -1.049467e+01   4.522572e+01
  -4.710070e+01   1.715102e+01
   2.328472e+01   1.339156e+01
   3.817016e+01   3.108943e-01
   4.940878e+01  -2.958437e+01
   1.552096e+00   4.672456e+01
  -9.057419e+01   4.917252e+00
  -5.379257e+01   4.488041e+01
  -3.750990e+01   6.208162e+00
  -3.033108e+01  -3.011618e+01
   2.020273e+01  -6.037590e+01
   3.813423e+01  -4.988609e+00
   1.581349e+00  -2.492668e+01
  -3.013437e+01   2.157384e+01
   4.587045e+01   4.287432e+00
   3.960060e+01  -7.094374e+01
  -7.109630e+00  -2.984379e+01
   3.681968e+01  -1.641894e+01
  -1.462757e+01   3.040317e+01
   2.766436e+01  -2.058127e+01
   7.924444e+00  -1.325823e+01
  -1.679856e+00   4.784245e+01
   7.327679e+00   3.063350e+01
   2.808685e+01   4.610382e+01
  -1.827037e+01   1.823044e+01
  -3.787870e+01  -5.010998e+00
   1.300415e+01  -1.835467e+01
   2.941485e+01  -1.699659e+01
   7.040143e+00   1.905287e+01
   8.877860e+00   3.117325e+01
   2.607801e+01  -1.569885e+01
  -1.254996e+01   9.796925e+00
  -5.377212e+01  -3.734088e+01
  -2.301895e+01  -4.658115e+01
   2.149474e+01  -5.386257e+00
   1.580189e+01  -2.433286e+01
   1.278992e+00  -1.517209e+00
  -3.484540e+01  -1.452590e+01
   2.131808e+00   4.329538e+01
   2.702143e+01  -8.388331e+00
