
 $NMID
 id='ANONYMOUS ', fmtdat='(2E16.6)'
 volume=1.0
 tramp=1.0
 $END
   1.811302e+03  -1.424967e+01
   1.059321e+03   6.311324e+02
   1.609481e+02   8.128996e+02
  -5.280198e+02   7.069268e+02
  -5.780688e+02   3.173281e+02
  -3.854021e+01  -8.494714e+01
   1.527770e+02   1.151937e+02
   1.449436e+02   2.223760e+02
  -1.914437e+02   3.953589e+02
  -3.001231e+02   7.076146e+01
  -2.838841e+02  -2.039960e+02
  -7.078032e+01  -3.238800e+02
   1.680899e+02  -7.600155e+01
   1.443268e+02   2.699381e+02
  -1.733990e+01   2.389028e+02
  -1.778457e+02   3.745007e+01
  -2.016779e+02  -1.497740e+02
  -4.053608e+01  -3.576729e+02
   2.648320e+02  -2.124557e+01
   1.326193e+02   1.705298e+02
  -5.167414e+01   3.025006e+02
  -1.310080e+02   2.467036e+02
   1.038589e+01   8.155678e+01
  -1.964881e+00   1.020029e+02
   1.334329e+02   2.169478e+02
   2.063898e+00   2.676488e+01
  -1.529506e+02  -9.437238e+01
  -3.465338e+02  -1.404953e+02
  -1.858349e+02  -7.086948e+01
   9.432866e+01  -1.090386e+02
   2.627512e+02   6.738996e+01
   3.955172e+01   1.511328e+02
  -1.533060e+02   1.030957e+02
  -2.902638e+02   1.081983e+02
  -3.151696e+02  -2.498635e+01
  -1.425485e+02  -1.512439e+02
  -1.211431e+02  -7.618147e+01
  -9.639469e+01   1.443282e+01
  -7.681475e+01   3.842177e+01
  -1.571178e+01  -1.866277e+02
   2.501538e+01  -2.748364e+02
   1.546901e+02  -2.454121e+02
   1.359935e+02  -5.587492e+01
  -9.280006e+00   7.045614e+01
  -4.190766e+01  -1.798152e+01
  -3.297666e+01  -1.403498e+02
   9.240602e+01  -1.620552e+02
   2.567487e+02  -4.847949e+01
   2.262434e+02   1.772348e+02
   9.756279e+01   2.349449e+02
  -1.314052e+02   1.211321e+02
  -2.249368e+02  -5.734842e+01
  -1.531862e+02  -1.147334e+02
  -2.374714e+00  -1.461323e+02
   1.576283e+02  -1.007230e+02
   1.532870e+02  -4.874510e+01
   6.237061e+01  -4.170731e+01
   2.811066e+01  -3.383613e+01
   4.791744e+01   4.015805e+01
   1.218681e+02   7.572213e+01
   7.503199e+01   1.091970e+02
  -4.402320e+01   1.568481e+02
  -2.079284e+02   1.026069e+02
  -1.697078e+02  -4.633573e+01
  -5.515472e-01  -1.800247e+02
   1.433079e+02  -2.244454e+02
   2.029641e+02  -1.047540e+02
   1.232904e+02   5.630702e+01
   4.117080e+01   1.661169e+02
   9.370438e+00   2.590047e+02
  -7.152502e+00   1.333007e+02
  -3.475436e+01   1.055546e+02
  -1.125605e+02   8.002603e+01
  -1.180524e+02  -4.341839e+01
  -1.023101e+02  -6.229330e+01
  -3.381916e+01  -1.399224e+02
   8.181343e+00  -9.448676e+01
   7.909563e+01   4.840077e+01
   2.432587e+01   1.240693e+02
  -4.074665e+00   8.912465e+01
  -1.498359e+02  -6.345059e+00
  -1.754774e+02  -7.140571e+01
  -7.214350e+01  -1.739755e+02
   1.267568e+01  -1.362185e+02
   7.267373e+01  -9.775236e+01
   9.910827e+01  -6.755768e+01
   1.231755e+02  -5.746790e+01
   2.047390e+02   2.414138e+01
   2.429409e+02   9.350488e+01
   1.420844e+02   1.859562e+02
  -3.523676e+01   2.282644e+02
  -2.408820e+02   2.124911e+02
  -2.651079e+02   1.184229e+02
  -1.243418e+02  -2.976375e+01
   1.307097e+01  -1.483820e+02
   4.279840e+01  -1.037844e+02
  -1.457977e+01  -4.101911e+01
  -8.078357e+01  -9.162507e+00
  -5.661448e+01  -3.715323e+01
   1.512464e+01  -6.761862e+01
   4.880789e+01  -3.932667e+01
   8.790891e+01   1.322825e+01
  -2.895668e+01   5.142649e+01
  -1.059288e+02  -4.395780e+00
  -1.020066e+02  -1.421505e+02
  -1.836249e+01  -1.923063e+02
   1.064904e+02  -1.014940e+02
   2.083524e+02   2.681966e+01
   1.730533e+02   1.205146e+02
   7.026872e+01   1.409220e+02
  -5.140935e+01   8.011209e+01
  -6.486024e+01   3.034986e+01
  -9.935752e+01   1.197270e+01
   2.173293e+01   6.565614e+01
  -2.911643e+01   4.344356e+01
  -7.808569e+01   2.234781e+01
  -6.211975e+01  -5.660407e+01
   1.303072e+01  -4.032282e+01
   7.538066e+01   1.953270e+01
  -2.234804e+01   4.338903e+01
  -1.456583e+02   4.261466e+01
  -1.979691e+02  -2.083819e+01
  -1.921571e+02  -6.859098e+01
  -4.936373e+01  -1.605638e+02
   1.032515e+02  -1.266089e+02
   1.187531e+02  -8.665651e+01
   2.206019e+01  -6.903533e+00
  -1.086262e+01   2.668200e+00
  -4.731903e+01  -1.233975e+00
   7.872155e+01   8.073821e+00
   1.365372e+02  -2.904304e+01
   8.283076e+01   4.301849e+01
   1.645287e+01   1.037275e+02
  -8.022284e+01   1.002632e+02
  -8.648163e+01   4.374530e+01
  -3.336550e+01   3.491394e+01
   3.980095e+01   8.459403e+00
   3.149112e+01   4.724229e+01
  -6.994783e+01   8.886270e+00
  -1.185897e+02  -2.495973e+01
  -9.862134e+01  -7.816042e+01
   6.755463e+00  -5.829011e+01
   5.886379e+01  -6.845068e+01
   8.214781e+01   2.105763e+01
   6.941462e+01   4.084911e+01
  -2.404078e+01   4.566074e+01
  -4.398429e+01   4.499307e+01
   3.872311e+01  -3.823269e+01
   2.492968e+01   3.164115e+01
  -3.748167e+01   3.076728e+01
  -4.861226e+01   1.635503e+01
  -3.785391e+01  -6.259637e+01
   5.963139e+01  -9.323658e+01
   1.004481e+02  -1.087147e+02
   1.327466e+02  -3.612296e+00
   9.222801e+01   1.066878e+02
  -5.839877e+00   8.101078e+01
  -7.122438e+01   1.035089e+02
  -8.159811e+01   5.523505e+00
  -4.188335e+01  -1.868081e+01
  -6.788292e+00  -3.637431e+01
   9.560666e+00  -5.880109e+00
  -8.102687e+01   6.326504e-01
  -3.684083e+01  -7.151084e+01
   4.114565e+01  -4.546578e+01
   8.431586e+01  -9.801340e+00
   6.225254e+01   9.183621e+00
  -1.150657e+01   7.168205e+01
  -1.217421e+02   5.943816e+01
  -1.666614e+02  -1.130066e+02
  -2.095366e+01  -1.656408e+02
   7.137404e+01  -1.753038e+02
   1.530430e+02  -4.310700e+01
   1.406701e+02   5.492273e+01
   6.575976e+01   1.099303e+02
  -5.908391e+01   7.601444e+01
  -7.313629e+01   5.299302e-02
  -5.560266e+01   2.470093e+01
  -5.856130e+01   6.179135e+01
  -5.778651e+01   3.216894e+01
  -8.757396e+01  -4.395758e+01
  -9.563003e+01  -9.496025e+01
  -2.650650e+01  -1.789036e+02
   3.433449e+01  -1.052660e+02
   8.530283e+01   1.846346e+01
   5.012088e+01   5.873366e+01
   1.997089e+01   7.155807e+01
  -3.431017e+01   5.700442e+01
  -6.257695e+01  -1.931644e+01
   1.506138e+01  -7.054655e+01
   7.418541e+01  -3.183394e+00
   3.471544e+01   3.048993e+01
  -2.417309e+01   1.163775e+01
  -4.460878e+01   3.067937e+01
   3.109909e+01  -4.261050e+01
   9.860886e+01  -3.026934e+01
   7.389297e+01   2.999750e+01
  -2.629772e+01   8.379952e+01
  -9.030798e+01   6.779168e+01
  -9.575711e+01  -2.408036e+01
  -4.381686e+01  -6.111957e+00
   4.160806e+01  -2.231938e+01
   1.501566e+01   1.934490e+01
  -6.048582e+00   4.333038e+01
  -2.610573e+01   5.881977e+01
  -6.370495e+01   7.010987e+01
  -5.178280e+01   1.883478e+01
  -3.904238e+01   1.306559e+00
  -1.427749e+01  -2.645955e+01
   3.395637e+01  -1.678769e+01
  -1.974564e+01  -7.709991e+01
   3.296132e+01  -1.141599e+02
   7.939701e+01  -5.583444e+01
   1.363095e+02  -2.461582e+01
   7.209876e+01   1.200138e+02
  -2.461238e+01   4.821820e+01
  -2.978795e+01   6.290010e+01
  -1.741481e+01   1.557365e+01
   6.724371e+01  -4.072611e+01
   5.612356e+01   1.207539e+01
   2.645130e+01   6.663856e+01
  -5.995600e+01   8.695740e+01
  -1.233065e+02   1.021415e+01
  -6.711857e+01  -2.613443e+01
  -3.248615e+01  -6.346528e+01
   5.622419e+01  -3.616405e+01
  -6.119947e+00  -1.036234e+01
  -1.424336e+01   2.444367e+01
  -9.161138e+01  -1.227652e+01
  -1.426635e+01  -9.058532e+01
   1.958260e+01  -1.269635e+02
   1.061315e+02  -3.689294e+01
   9.926419e+01   4.108709e+01
   2.470013e+01   8.460384e+01
  -5.649503e+01   7.983373e+01
  -6.177396e+01  -1.766413e+01
  -1.811190e+01  -8.308464e+01
  -3.022508e+01  -8.781164e+01
   2.534252e+01  -4.565729e+01
   3.680682e+01  -8.159573e+00
   3.537091e+01  -1.033647e+01
   2.641548e+01   1.106684e+01
   2.497272e+01  -3.299173e+01
  -8.675989e-01   9.105283e+01
  -1.036275e+01   3.789926e+01
  -1.450874e+01   4.293718e+01
  -9.319570e+01   1.232838e+01
  -4.996628e+01  -5.160982e+01
  -1.127559e+01  -2.652599e+01
   3.396016e+01  -2.128183e+01
   6.033572e+01   2.952924e+01
   1.389862e+01   1.474795e+00
  -4.438980e+01  -8.221875e+00
  -9.579722e+00  -2.597352e+01
  -3.510130e+01  -1.954905e+01
  -7.573458e+01   1.419612e+01
  -6.005291e+01   4.752613e+01
  -7.356445e+01  -9.428780e+00
   1.868581e+01  -1.296898e+01
   3.278998e+01  -4.094681e+01
   9.478368e+01  -4.124847e+01
   9.629852e+01   7.947227e+01
   2.116431e+01   1.545391e+02
  -3.537911e+01   7.460411e+01
  -6.369081e+01   3.613508e+01
  -6.826499e+01  -2.530085e+01
  -5.547750e+01  -2.673751e+01
  -1.509924e+01  -1.851917e+01
  -5.743760e+01  -2.991599e+01
  -1.476471e+01  -5.689011e+01
   1.611935e+01  -9.263915e+01
   7.626209e+01  -4.240407e+01
   7.175473e+01   1.957423e+01
   7.092633e+01   2.550569e+01
   4.782933e+00   1.067645e+02
  -3.169982e+01   6.865498e+01
  -8.370411e+01  -6.349820e+01
  -3.939663e+00  -3.942615e+01
  -6.801123e+00   7.346882e+00
   2.307630e+01  -3.575628e+01
   1.191748e+01   3.770888e+01
  -3.530674e+01   5.703881e+01
  -3.329947e+01   4.799208e+01
  -8.224108e+00  -1.403629e-01
   2.741264e+01   4.231947e+01
   1.379675e+01   4.023212e+00
  -2.241177e+01   3.374100e+00
  -5.472545e+01   3.525278e+01
  -2.324887e+00  -2.101121e+01
  -8.998273e+00  -1.973613e+01
   7.627541e+01  -3.595986e+01
   2.264739e+01  -5.120721e+01
  -1.009713e+01  -3.253310e+01
   1.480953e+00   4.793110e+00
  -1.617532e+01  -4.750047e+00
  -1.938004e+01  -7.771475e+00
   5.469559e+01  -1.335862e+01
   1.318199e+01   7.113450e+00
   1.384503e+01   1.047087e+01
  -1.664967e+01   7.334899e+00
   3.198118e+01   5.109151e+01
   5.744542e+01   8.985212e+00
   2.504905e+01  -4.840966e+00
  -3.488920e+00   7.517744e+01
  -5.391234e+00  -2.945133e+01
  -3.030683e+01   1.876778e+01
   8.836027e+00  -3.564519e+01
   3.784448e+01   9.094990e+00
  -1.756191e+00   9.197688e+00
   3.686638e+01   2.018265e+01
  -9.316250e+01  -4.328889e+00
  -1.023328e+02  -4.482789e+01
  -2.835896e+01  -3.171565e+01
   3.050649e+00  -6.338227e+01
   5.195724e+01  -5.084731e+01
   2.154314e+01  -2.425592e+01
  -2.228627e+01  -1.291339e+01
  -1.394576e+01   2.173727e+01
   7.163336e+00   1.274873e+01
   3.835650e+01   8.025301e+00
