
 $NMID
 id='ANONYMOUS ', fmtdat='(2E16.6)'
 volume=1.0
 tramp=1.0
 $END
  -1.245206e+03   7.901200e+01
  -9.038347e+02  -6.786760e+02
   2.423182e+01  -9.328940e+02
   4.405149e+02  -4.394967e+02
   3.690469e+02  -1.719719e+02
   7.520003e+01   4.847477e+01
  -5.493685e+01  -7.755422e+01
   9.700757e+00  -1.910014e+02
   2.272832e+02  -2.734197e+02
   3.102788e+02   1.469199e+01
   1.380841e+02   2.729459e+02
  -7.239959e+01   9.376226e+01
  -1.690544e+02   1.328996e+01
  -6.714263e+01  -1.730523e+02
   6.478613e+01  -2.655933e+02
   1.616632e+02  -7.548737e+01
   1.987065e+02   1.925367e+02
  -1.295320e+02   1.557917e+02
  -1.457262e+02   2.105783e+02
  -2.100985e+02   4.711498e+01
  -5.807103e+01  -7.519297e+01
   1.857108e+02  -1.285211e+02
  -3.147228e+01   9.874739e+00
  -1.959031e-01  -6.564245e+01
  -3.289333e+01  -1.075704e+02
   5.537792e+01  -1.576032e+02
   1.005941e+02  -7.035001e+01
   2.142689e+02   1.668796e+02
   1.141549e+02   1.498778e+02
  -1.881500e+02   1.021691e+02
  -2.401879e+02  -1.170136e+02
  -1.594172e+01  -1.932321e+02
   2.205564e+02  -1.276489e+02
   2.371115e+02  -3.280443e+01
   7.247423e+01   4.853315e+01
   5.804826e+00   1.682671e+02
  -4.239151e+01   1.077446e+02
   2.648234e+01  -2.053024e+01
   1.066667e+02  -7.073065e+01
   8.339505e+01   5.245161e+01
   6.057600e+00   2.225104e+02
  -8.585575e+01   1.262830e+02
   6.142693e-01  -5.062006e+01
  -4.568232e+01  -1.429908e+02
  -4.587417e+01  -7.404689e+00
   4.248594e+01   1.292816e+02
  -1.360719e+01   2.109080e+02
  -1.556624e+02  -2.866564e+01
  -1.831033e+02  -1.439087e+02
  -7.753183e+01  -1.122765e+02
   1.201132e+02  -5.033706e+01
   2.068085e+02   1.587326e+01
   6.758842e+01   3.639454e+01
  -6.645222e+01   4.588521e+01
  -1.002531e+02   4.054656e+01
  -3.567414e+01  -5.026356e+00
   2.103075e+01  -2.112511e+01
  -3.636898e+01  -7.368206e+00
  -7.694516e+01  -2.742979e+00
  -9.664586e+01  -1.960965e+01
  -5.147864e+01  -7.410335e+01
   5.934226e+01  -7.298475e+01
   1.547180e+02  -3.910635e+01
   8.921276e+01   7.924676e+00
   2.263922e+01   9.483114e+01
  -6.027409e+01   1.307573e+02
  -1.149940e+02   1.798673e+01
  -9.675492e+01  -5.231403e+01
  -4.442546e+01  -1.221673e+02
   6.470099e+00  -8.171148e+01
  -1.236954e+01  -6.606666e+01
  -7.818901e+00  -2.765613e+01
   3.607999e+01  -4.890367e+01
   9.413690e+01  -6.538742e+01
   7.668040e+01   8.547546e+00
   3.506032e+01   4.273037e+01
  -4.211473e+01   1.092208e+02
  -5.684535e+01  -3.502761e+01
  -9.495824e+00  -6.288319e+01
   5.815102e+01  -4.572753e+01
   8.519342e+01   2.611090e+01
   9.330362e+01   6.744577e+01
   4.746795e+01   6.114144e+01
  -2.745064e+00   4.532620e+01
  -6.216648e+01   3.010605e+01
  -4.368099e+01   5.416852e+01
  -7.171099e+01  -4.761149e+00
  -1.088387e+02   3.368088e+01
  -1.561078e+02  -4.154415e+01
  -1.307737e+02  -1.230254e+02
  -2.441917e+01  -1.698690e+02
   1.560448e+02  -1.384331e+02
   2.182274e+02  -4.660388e+01
   1.651741e+02   4.907528e+01
   8.336170e+00   1.092281e+02
  -5.517099e+01   4.106570e+01
   6.936634e+00   1.980088e+01
   4.428822e+01  -2.139271e+01
   1.192151e+01   1.698512e+01
  -9.111136e+00   4.199545e+01
  -1.614012e+01   4.789165e+01
  -5.103078e+01   9.133995e+00
   2.199824e+01  -4.998363e+01
   6.133127e+01  -3.048201e+01
   4.432861e+01   3.001002e+01
   1.828387e+01   1.094992e+02
  -8.781712e+01   7.262714e+01
  -9.245757e+01  -1.172277e+01
  -8.920708e+01  -7.249902e+01
   1.602282e+01  -9.565130e+01
   3.230400e+01  -5.470032e+00
   7.501079e+01  -1.892050e+01
  -2.430629e+01   7.540447e+00
  -1.623102e+01  -7.359672e+01
  -3.543451e+01  -5.974062e+01
   1.242301e+01  -1.668271e+01
   2.598522e+01   3.148042e+01
  -1.286925e+01   2.197757e+01
  -3.751876e+01  -4.188758e+01
  -1.388763e+01  -2.450537e+01
   5.748183e+01  -5.109879e+01
   1.294700e+02   3.686058e+01
   1.412420e+02   5.689588e+01
   4.178109e+01   6.305465e+01
  -9.741477e+01   3.934454e+01
  -9.306590e+01   2.448690e+01
  -3.017422e+01  -3.485084e+01
   5.278882e+00  -3.086492e+01
  -6.981838e-01   2.276341e+01
  -9.024616e+01   2.867290e+01
  -8.069474e+01   3.306377e+01
  -9.405576e+01  -8.470548e+01
   6.663409e+00  -7.065717e+01
   5.239652e+01  -3.245827e+01
   5.425247e+01   1.856047e+01
  -6.674025e+00   2.474690e+01
   1.782448e+00  -7.380389e+00
  -6.917730e+00  -9.537202e+01
   6.409975e+01  -3.927523e+01
   7.520621e+01   4.240013e+01
   5.484290e+01   5.920656e+01
  -3.721254e+00   5.753762e+01
  -4.518369e+01   4.129317e-01
  -8.999140e+01  -6.581646e+01
  -1.111119e+01  -3.075357e+01
   4.958087e+01  -9.289407e+00
   1.615022e+01  -1.801154e+01
  -1.186202e+01   6.951261e+00
  -7.696617e+01  -2.905459e+01
  -4.695956e+00  -6.558669e+01
   6.502252e+01  -1.789959e+01
   5.351410e+01   5.461996e+00
  -1.511058e+01   6.298283e+01
  -6.457855e+01   3.647236e+01
  -5.729104e+01   1.415991e+01
  -5.382791e+01  -9.530348e+01
   1.523305e+01  -3.959523e+01
   3.314631e+01  -8.153284e+01
   8.128383e+01   2.330014e+01
   5.078612e+01   1.220409e+01
   3.418671e+01   5.920826e+00
   3.006216e+01  -2.840430e+01
   1.839532e+01  -5.274797e+00
   1.791284e+01   7.602841e+01
   3.578045e+00   4.323075e+01
  -2.698524e+01   3.773009e+00
  -7.163804e+01  -3.427372e+01
  -2.957904e+01  -7.361144e+01
   7.703238e+01  -3.245039e+01
   5.314063e+01   4.395594e+01
   4.755643e+01   1.144399e+02
  -3.947671e+01   6.752525e+01
  -6.805579e+01   6.232249e+01
  -9.072176e+01  -5.670600e+01
  -5.066958e+00  -6.259597e+01
   4.341710e+01  -7.242924e+01
   4.323696e+01  -8.424211e+01
   5.507555e+01  -2.184965e+01
  -4.266337e+00  -3.091872e+01
   5.385787e+01  -1.171312e+01
   3.704809e+01  -2.098485e+01
   5.379475e+00   6.698917e+01
  -2.050873e+01   2.289688e+01
  -2.766856e+01   6.682635e+01
  -5.683771e+01  -2.421395e+01
  -5.452884e+01  -6.361342e+01
   4.479280e+01  -5.671428e+01
   2.018405e+01  -1.814524e+01
   3.346439e+01   7.403581e+00
   2.841937e+00  -1.482651e+00
  -1.457472e+01  -9.985073e+00
   3.507487e+01  -2.119174e+01
   1.426664e+01   2.363296e+00
  -1.241121e+01   3.595037e+01
  -3.153034e+01   2.462842e+01
  -2.145145e+01   1.552016e+01
  -4.849792e+01  -5.329316e+01
   2.755475e+01  -1.025066e+01
   2.821148e+01  -1.596599e+01
   4.770792e+01   1.540624e+01
  -4.264407e+01  -1.998320e+01
  -4.746272e+01  -9.160035e+00
  -3.905716e+01  -4.193613e+01
   1.752051e+01  -4.585298e+01
   2.171844e+01  -4.823717e+01
   6.682636e+01   3.651256e+00
   1.829224e+01   5.437920e+01
   2.398723e+01   1.939442e+01
   3.182071e+01   2.131618e+01
   4.981541e-01   1.396747e+01
   1.415146e+01   4.253779e+01
  -1.434886e+01   1.399020e+01
  -8.271491e+01   2.774664e+01
  -4.438238e+01  -1.751268e+01
  -3.229874e+01  -3.586356e+01
   1.715509e+01  -6.135007e+01
   2.755928e+01  -4.948883e+01
   5.473533e+01  -8.046320e+00
  -4.233784e+01   1.655419e+01
  -3.538870e-02  -1.163131e+01
  -5.574720e+01   3.623393e+00
   2.086328e+01  -6.008868e+01
   4.029235e+01  -2.239381e+00
   4.306754e+01   6.836496e+01
  -2.015242e+01   5.988839e+01
  -6.354637e+01   1.334624e+01
  -1.559053e+01   1.751805e+01
   1.105741e+01  -3.173410e+01
   6.744500e+01   1.767026e+01
   2.359364e+01   3.086199e+01
  -1.380619e+01   6.820434e+01
  -9.796977e+01   1.646131e+01
  -7.795237e+01   9.376524e+00
  -3.408365e+00  -1.133999e+02
   2.386809e+01  -7.127745e+01
   6.829961e+01  -3.065917e+01
   2.913418e+01   3.133923e+01
   1.144715e+01   4.535735e+01
  -2.105326e+01  -1.590673e+01
  -3.689788e+00   2.266738e+01
   9.459598e+00  -2.675277e+01
   1.762610e+01   4.075016e+01
  -4.803502e+01  -2.845535e+00
  -3.602342e+01   1.122615e+01
  -3.208109e+01  -1.448350e+00
   1.390325e+01  -1.531714e+01
   2.362213e+01   1.699815e+01
   3.434547e+01   3.415823e+01
   1.917246e+01   4.704479e+01
  -1.046639e+01   1.351359e+00
   2.102257e+01  -7.805327e+00
   2.149124e+01   9.353037e+00
   4.855390e+01   1.149098e-01
  -1.981290e+01   4.616745e+00
  -4.941250e+01  -3.482605e+01
   3.263623e+01  -1.844049e+01
  -1.324330e+00  -6.614544e+00
  -1.257449e+01   1.390778e+01
  -6.089019e+00   1.143700e+01
  -2.674794e+01   1.470392e+01
  -7.659182e+01   6.093686e+01
  -4.130841e+01  -4.129246e+01
  -6.841254e-01  -5.378770e+01
   3.125431e+01  -5.889162e+01
   4.969788e+01  -6.880782e+01
   6.678628e+01   2.129469e+01
   2.152653e+01  -2.097886e+01
   2.206111e+01   3.724738e+01
   1.759923e+01   1.995743e+01
  -1.757361e+01   3.033564e+01
   2.162116e+01   1.329247e+01
   7.834369e+00   3.522398e+01
  -5.083638e+01   1.226356e+01
  -1.244975e+01  -5.962404e+01
  -2.199798e+01  -2.547521e+01
  -6.076375e+01  -4.311667e+01
   2.300719e+01   4.872771e+01
   3.037105e+01   2.395538e+01
  -8.627449e+01  -4.368585e-02
  -3.302579e+01   9.612256e+00
  -5.196657e+01  -1.482758e+01
   5.712703e+00  -3.804906e-01
   8.581533e+00  -1.351347e+00
   1.366798e+01   2.002290e+01
   7.335989e+00   3.440492e+01
   1.160533e+01   6.601110e+00
   2.905238e+01  -1.174633e+01
   9.297048e+01  -3.467835e+01
   2.068810e+01   1.318223e+01
   1.518980e+01   9.474914e+01
  -2.001576e+01  -1.578774e+00
  -7.060536e+01   2.712464e+01
  -2.039037e+01  -2.051443e+01
   6.033651e+01   6.321376e+00
  -3.190227e+01  -3.146943e-01
   3.484329e+00   9.932034e+00
  -1.117660e+01   2.205800e+01
  -2.365213e+01  -8.887693e+00
  -1.232145e+01  -8.408552e+00
  -3.445495e-01  -2.159970e+01
  -1.588468e+01   5.323387e-02
   1.515318e+01  -2.442782e+01
   1.148928e+01  -1.804683e+01
   3.151604e+00   8.359126e+00
   2.079229e+01  -3.163805e+00
   3.794116e+01   1.908517e+01
  -1.027337e+01  -1.191627e+01
  -1.842948e+01   2.553646e+01
  -2.447425e+01   5.998678e+01
   3.784463e+01  -1.321228e+01
   2.877518e+01  -3.878261e+01
   3.840101e+01  -6.816757e+00
  -2.111954e+01   2.084757e+01
  -1.289133e+01   5.973697e+00
  -5.180020e+01   1.105962e+01
  -2.570370e+01   1.333744e+01
   2.626223e+01  -2.521414e+01
  -6.894913e+01  -2.599332e+01
  -1.053060e+01   3.133703e+01
  -2.732669e+01   1.776296e+01
