
 $NMID
 id='ANONYMOUS ', fmtdat='(2E16.6)'
 volume=1.0
 tramp=1.0
 $END
   7.149579e+02   1.969300e+02
   3.592196e+02   1.689880e+02
  -8.110080e+01   9.985673e+01
  -2.070599e+02   3.580100e+02
  -9.921041e+01   1.597578e+02
   6.482945e+01  -6.812122e+01
  -2.018985e+01  -6.374743e+01
  -4.469529e+01  -3.994623e+00
  -1.188831e+02   1.020470e+02
  -1.175496e+02   7.932747e+01
  -3.766127e+01  -2.116133e+01
   3.125812e+01  -1.508298e+02
  -1.034155e+02  -4.103803e+01
   2.856511e+01  -7.213264e+01
  -2.283199e+01  -1.413130e+01
   7.937964e+00  -1.311730e+02
  -4.327077e+01  -1.157508e+02
  -1.319280e+02  -9.464656e+01
  -1.687273e+01  -7.236720e+01
   1.234622e+02   7.337334e+01
   1.497023e+02  -7.246397e+01
   1.457354e+02  -8.480887e+01
  -1.246232e+01   5.233532e+01
   1.719066e+01  -3.236409e+01
   7.222459e+01   9.842072e+01
  -1.729800e+01   2.477064e+01
  -5.612342e+01  -1.188201e+02
  -1.487248e+02  -4.127939e+00
   6.146355e+00  -2.841818e+01
   1.052184e+02   5.376560e+01
   1.191940e+02   7.153635e+01
   4.705226e+01   6.823211e+01
  -8.356096e+00   9.286443e+01
  -8.126399e+01   1.322137e+01
  -9.061939e+01  -1.058550e+02
  -9.676770e+00  -2.080234e+01
  -3.853571e+01  -1.283243e+02
  -1.463044e+00   3.830342e+01
  -1.379583e+01   4.327532e+00
   3.822098e+01   9.256026e-01
   4.081534e+00  -5.161062e+01
  -2.444656e+01  -6.674080e+01
   2.784556e+00  -3.465136e+01
   3.369004e+01  -2.567211e+01
  -4.548238e+00  -2.619829e+01
   7.620414e-01  -5.137773e+01
   1.985392e+01  -1.836328e+01
   1.827384e+01   3.584821e+01
   5.487974e+01   6.211177e+01
   2.059137e+01   3.853537e+01
  -3.729638e+01   2.317831e+01
  -8.940043e+01  -7.896777e+00
  -1.298614e+01  -2.532260e+01
  -6.888360e+01  -2.136701e+01
   2.372107e+01   3.559800e+00
   1.330534e+01  -2.072307e+01
  -3.068040e+01   2.327851e+01
   2.938484e+01  -1.754276e+00
  -1.185748e+01   2.807314e+00
   1.156617e+01   3.889428e+01
  -9.752808e+00   7.178728e+01
  -2.284401e+01   1.536137e+01
  -6.007118e+01   2.339093e+01
  -3.037231e+00  -3.226822e+01
   3.376102e+01  -7.539115e+00
   3.442679e+01  -8.590628e+01
   4.988319e+01   2.152784e+01
   5.376794e+01  -8.546964e+00
   2.285282e+01   5.780965e+01
   3.491769e+01   4.926696e+01
   3.937733e-01   4.899856e+01
  -2.119182e+01  -5.998297e+00
  -4.129988e+01   3.233068e+01
   2.047994e+01  -1.874437e+01
  -4.618081e+01  -6.668579e+01
   2.662039e+01  -5.988338e+01
   7.019378e+00  -1.874136e+01
   6.136582e+01   1.302590e+01
   2.367511e+01   3.808579e+01
   3.238131e+01   1.404244e+01
  -5.004040e+01   1.615651e+01
  -4.010896e+01  -9.818090e+01
  -2.004532e+00  -3.439289e+01
   2.918734e+01  -7.011124e+01
  -4.647009e+00  -3.959533e+01
   9.523645e+01   1.096451e+01
   4.679194e+01  -1.365255e+00
   1.545910e+01   9.258019e+00
   8.976040e+01   5.839161e+01
   3.862224e+01   7.126258e+00
  -1.743160e+01   7.872764e+01
  -4.785233e+01   1.798366e+01
  -6.239840e+01   4.119111e+01
  -2.624635e+01  -1.013770e-02
   3.740214e+01   1.403741e+01
   2.392908e+01  -4.007627e+01
  -3.510294e+01   2.854342e+01
  -4.674347e+01  -3.409601e+01
  -1.773061e+01  -5.935702e+00
   3.442058e+00  -8.531235e+01
   2.343062e+01  -1.417106e+01
   4.042964e+01  -1.288080e+01
   3.919800e+01   5.181384e+01
   2.602205e+01  -4.617721e+01
  -5.483701e+01  -8.227119e+01
   1.922022e+01  -4.254970e+01
  -3.272740e+00   1.050950e+01
   7.483896e+01   3.270373e+01
   7.633426e+01   5.941148e+01
  -2.861501e+01   5.007435e+00
  -5.733875e+01   5.041276e+01
  -3.520718e+01  -1.396382e+01
   6.082757e+00  -1.179532e+01
   3.326417e+00   1.963283e+01
  -7.299539e+00   3.875093e+01
  -3.498324e+01   1.165422e+01
   2.989917e+01   5.312632e+01
  -1.487835e+01  -3.393584e+01
   1.166182e+01  -5.538867e+00
  -6.525567e+00   1.047289e+01
  -5.769427e+00   5.312901e+00
  -6.190961e+01  -3.666802e+01
  -5.814514e+01  -7.154956e+00
   3.971238e+01  -4.086136e+01
   7.959216e+01  -3.124601e+01
   4.131562e+01   2.006803e+00
   6.476045e+01  -5.226030e+00
  -1.085008e+01  -1.417066e+01
   2.742409e+01  -2.646508e+01
  -2.366107e+01  -1.008645e+01
   3.926195e+01  -7.452127e+00
   1.213516e+00   2.635342e+01
   2.050909e+01   2.647166e+01
  -2.709492e+01   1.194434e+01
  -1.236644e+01   2.121355e+01
  -1.299800e+01  -1.467824e+01
   5.692995e+01   4.403965e+01
  -3.270086e+01   4.669668e+00
  -4.423003e+01   3.582494e+01
  -1.431696e+01  -2.789013e+01
  -4.800506e+01  -7.012697e+00
   1.534697e+01  -4.317879e+01
   6.427525e+01  -1.542013e+01
  -6.821715e+00   5.594832e+01
   4.836069e+01   5.682849e+01
  -4.526834e+00   1.530353e+00
  -4.411064e+01   2.425097e+01
   6.146220e+00   8.176072e+00
   9.783752e+00  -2.760877e+01
  -1.983570e+01  -2.518136e+01
  -3.081561e+01  -1.402724e+01
   1.421777e+01  -2.579319e+01
   2.364329e+01  -1.776974e+01
   7.494003e+01  -4.140086e+01
   5.264938e+01   3.015025e+01
   3.740095e+01   5.152599e+01
   6.355385e+00   4.802222e+01
  -4.612798e+00   4.136364e+01
  -2.622430e+01  -2.820131e+00
  -4.030344e+01  -4.415817e+01
   4.104174e+00  -1.404402e+01
  -1.043602e+01   2.096106e+01
   1.582711e+01  -2.630447e+00
   3.283944e+01   2.246119e+00
   2.559057e+01  -3.647220e+00
   4.366352e+01  -1.749763e+01
  -1.556647e+00   6.235830e+01
  -1.507738e+01   6.058849e+01
  -5.589401e+01  -5.462873e+00
  -2.972853e+01  -1.943599e+01
  -8.491153e+00  -4.141023e+01
   2.060298e+01  -6.591939e+01
   4.273599e+01   2.618364e+00
   6.275547e+01   2.617342e+01
   2.344394e+01  -2.731796e+01
   1.281484e+01   2.629353e+01
  -2.602488e+01   3.771646e+01
  -1.087406e+01   3.092073e+01
  -1.146557e+00   2.022339e+01
  -3.069854e+01  -1.087581e+01
   1.812934e+01   5.001643e+00
   2.671880e+01  -5.124625e+01
  -1.072594e+00  -5.235327e+01
  -9.583242e+00  -4.360788e+01
   1.260533e+01   2.868205e+01
  -3.521139e+01   3.587684e+01
   9.496022e+00   6.940981e+01
  -1.450506e+01   5.888434e+01
   1.787888e+01  -1.336972e+01
  -4.968750e+00   2.256925e+01
  -2.662487e+01  -4.260093e+01
  -3.267159e+01  -2.455199e+01
  -4.810783e+00  -3.865693e+01
   1.085685e+01   1.602058e+01
   2.419918e+01   1.139307e+01
   8.143303e+01   4.080827e+01
   5.415739e+01   3.664453e+01
  -2.463852e+01   3.062799e+01
  -5.399831e+01   6.474156e+01
  -5.801964e+01   3.434866e+01
   2.363714e+01   5.806869e+01
   7.242686e+00  -2.397516e+01
   2.138398e+01   1.653800e+01
  -5.423074e+00   1.511040e+01
   1.251036e+01  -1.733731e+01
  -1.008617e+01   2.296295e+01
  -1.131802e+01   4.558022e+01
  -1.836799e+01   1.240912e+01
   1.696268e+01   1.163939e+01
  -3.923037e+01   1.425621e+01
  -1.644619e+01  -3.877762e+01
  -9.584266e+00  -2.714745e+01
  -1.047611e+01  -3.268365e+01
   2.722197e+01  -1.209615e+01
   3.427937e+01  -3.728417e+00
   1.999736e+00   4.216004e+01
  -3.660514e+01   1.667755e+01
  -1.881179e+01   2.921798e+00
   4.004612e+01   7.763854e+00
   6.766908e+01  -5.490631e+00
   1.141144e+01  -6.205248e+00
  -3.980763e+01   6.714186e+00
  -3.403245e+01   3.495120e+01
   3.578173e+00  -1.071527e+01
   1.055387e+01  -1.038062e+01
  -7.647612e-01   1.494226e-01
   3.116505e+01   8.342881e+00
  -1.004641e+01   3.253356e+01
  -4.609847e+01   1.866099e+01
   1.310995e+01  -3.340002e+01
   3.811102e+00  -1.228150e+01
  -1.105506e+01   2.325936e+01
   3.117870e+01  -7.419072e+00
  -2.527549e+01   6.242004e+01
  -2.496902e+01   1.353579e+01
  -2.595032e+01  -3.707491e+01
  -1.446407e+01  -1.656424e+01
  -9.285962e+00  -3.658776e+01
   5.235862e+01   3.175179e+01
   9.298001e+00   1.206637e+00
  -1.782774e+01  -2.552361e+00
  -6.717487e+00  -2.431882e+01
  -3.714093e+01  -1.122024e+01
  -1.671013e+01   2.155372e+01
   9.365728e+00   4.562550e+01
   2.488165e+01  -1.238031e+01
  -1.353473e+01  -4.993451e+01
  -1.160979e+01  -3.491001e+01
  -1.585527e+01   7.248254e+00
  -2.843643e+00  -5.071242e+00
  -1.648645e+00   2.227429e+01
  -9.707705e+00   2.292712e+01
   1.655328e+01   6.305172e+00
   3.504420e+01   1.443471e+01
  -3.779399e+00  -3.676007e+01
  -1.962026e+01  -2.106846e+01
   6.972372e+00  -3.562009e+01
  -6.835878e+01   3.805021e+00
   1.940561e+00  -8.938132e+00
   6.157567e+01  -5.324798e+01
   3.504834e+01  -2.515047e+01
   4.322167e+01  -2.353600e+01
   3.273005e-01   2.246328e+01
   4.500800e+00   3.289082e+01
  -1.034294e+01  -2.404244e+00
   3.745162e+01   8.762244e+00
  -4.901408e+00   5.663523e+00
   5.900893e+00  -1.017084e+01
   3.735226e+01   2.380498e+01
   3.036498e+01  -8.076204e+00
   1.649438e+01  -1.994598e+01
   1.931985e+01   1.144202e+01
   3.765509e+01   6.550691e+01
   3.405985e+01   2.112555e+01
   2.328967e+01  -8.925085e+00
  -4.445919e+01   1.521833e+01
  -4.892040e+01  -2.943472e+00
  -3.248871e+01  -1.723273e+01
  -1.052672e+01  -2.006218e+00
   1.120085e+01   1.973048e+01
  -1.263025e+01   1.833713e+01
  -7.497172e+00  -6.547081e+00
   1.917291e+01   1.080445e+01
   2.135949e+01  -7.909758e-02
   1.672282e+01   2.352487e+01
  -3.835389e+01   1.489801e+01
  -1.716414e+01   7.219297e+00
  -4.261177e+01   2.731800e+01
  -1.642811e+01  -2.417666e+01
   1.411669e+01  -2.309850e+01
   6.102055e+00  -2.652342e+01
   1.332546e+01   4.457118e+01
  -3.878623e+01   4.004309e+01
  -1.190101e+01  -4.868902e+00
   1.236214e+01   2.375998e+01
   7.846985e-01  -4.004902e+00
   2.503776e+00   6.891701e+00
  -1.059980e+01  -2.555452e+00
   1.648829e+01  -3.532397e+01
  -2.316962e-01  -1.934819e+01
  -1.012722e+01   4.419886e+00
   2.271874e+01   1.993887e+01
  -2.970694e+01   3.063912e+01
   8.519223e+00  -4.273768e-01
  -2.025988e+01  -1.717478e+01
   5.232517e+00  -4.731090e+01
   8.461132e+00  -2.074640e+01
   1.193579e+01   8.398329e-01
   2.566931e+00   1.781402e+01
  -5.862911e+00  -7.454294e+00
  -3.147071e+00   2.804182e+01
   1.912247e+01  -2.603275e+01
   3.890040e+01  -7.532824e-01
  -2.127066e+01  -2.320162e+01
   2.973790e+01  -1.915100e+01
   3.888133e+01   1.611846e+01
  -8.685457e+00  -3.611492e+00
   3.666857e+01   3.258265e+01
   4.801028e+01   2.860931e+00
   4.142087e+01  -2.808403e+01
