
 $NMID
 id='ANONYMOUS ', fmtdat='(2E16.6)'
 volume=1.0
 tramp=1.0
 $END
   9.625731e+02   8.776308e+01
   5.573731e+02   5.410169e+02
   9.203928e+01   6.292231e+02
  -2.541478e+02   4.838941e+02
  -3.896943e+02   1.098998e+02
  -1.319795e+02  -1.073838e+02
   5.118903e+01   4.540328e+01
   7.637097e+01   1.185525e+02
  -7.298994e+01   1.962307e+02
  -1.811099e+02   3.519887e+01
  -1.411476e+02  -2.445700e+02
  -1.018356e+02  -1.097715e+02
  -8.378297e+01  -1.585609e+02
  -2.018707e+01   8.143417e+01
  -8.116407e+01   1.700958e+02
  -1.822471e+02   1.064398e+02
  -1.370167e+02  -1.556781e+02
  -6.961073e+01  -1.281858e+02
   1.655618e+02  -1.739581e+02
   1.827714e+02  -6.105335e+01
   6.489516e+01   6.281613e+01
  -7.538977e+01   5.049088e+01
   1.937230e+01   8.236762e+01
   1.039974e+02   2.766671e+01
   7.424824e+01   4.804484e+01
  -7.846616e+01   1.167288e+02
  -1.787504e+02   4.045559e+01
  -3.765813e+01  -1.091652e+02
  -1.427410e+02  -1.499841e+02
   1.139525e+02  -6.834550e+01
   8.993839e+01   1.793565e+00
   6.958001e+01   1.478946e+02
  -4.755414e+01   1.043472e+02
  -1.731143e+02   9.011867e+01
  -6.065970e+01  -6.911424e+01
  -4.600417e+01  -7.221931e+01
   6.651540e+01  -1.581206e+01
  -2.571397e+01   6.327218e+01
  -6.324290e+01   4.181469e+01
  -5.971913e+01   1.937755e+01
  -4.273133e+00  -6.547654e+01
   4.924654e+01  -1.016706e+02
   3.500832e+01   1.439740e+01
   3.646158e+01   6.091416e+01
   9.204492e+00   4.883983e+01
  -1.821188e+01  -6.838687e+01
  -7.958638e-01  -1.423321e+02
   1.198538e+02  -2.058158e+01
   8.063161e+01   1.216820e+02
   5.209743e+01   1.669488e+02
  -6.185153e+01   1.245547e+02
  -1.590035e+02  -2.399640e+01
  -9.605795e+01  -7.777779e+01
  -3.508346e+00  -5.391556e+01
   9.881608e+01  -4.471306e+01
   4.750171e+01  -2.719839e+01
  -4.218902e+01   2.219658e+01
  -3.208102e+01  -3.845963e+00
   1.502902e+01  -3.025105e+01
   8.200442e+01  -1.232603e+01
   1.245684e+02   1.960612e+01
  -1.475749e+01   4.859331e+01
  -7.679591e+01   6.038158e+01
  -1.036834e+02   1.047104e+01
   1.622646e+01  -1.393747e+02
   8.369833e+01  -1.192149e+02
   1.435631e+02  -3.267921e+01
   8.839227e+01   6.825333e+01
   1.802243e+01   1.389491e+02
  -1.710827e+00   1.319858e+02
   3.100541e+01   7.346594e+01
   3.640847e+01   2.510266e+01
  -5.769006e+01   4.475473e+01
  -5.110502e+01   9.102992e+01
  -8.762319e+01   3.274985e+00
  -9.630412e+01  -5.609564e+01
  -3.199221e+01  -5.934403e+01
   2.291655e+01  -2.331478e+01
   4.457735e+01   4.710971e+01
  -2.160077e+01   3.753195e+01
  -6.214338e+01   2.049826e+01
  -1.073772e+02  -5.988923e+01
  -8.473200e+01  -4.763085e+01
   6.712257e+00  -7.905998e+01
   6.105009e+01  -5.128979e+01
   7.243603e+01  -6.277231e+01
   5.966385e+01  -5.436205e+01
   1.011448e+02  -2.585185e+01
   1.394933e+02   3.613470e+01
   9.035737e+01   9.562598e+01
   2.461422e+01   1.765131e+02
  -1.332783e+02   1.125884e+02
  -1.883092e+02   7.869927e+01
  -1.302239e+02  -9.953095e+00
  -1.241024e+01  -6.163677e+01
   4.444278e+01  -1.187162e+02
   3.643916e+01  -9.849323e+00
  -1.963512e+01   1.336262e+01
  -3.601634e+01  -2.866390e+00
  -9.647553e+00  -1.714230e+01
   3.018135e+01  -4.033272e+00
   2.962010e+01   1.693178e+01
  -6.376969e+00  -1.618743e+00
  -7.899433e+01  -4.629157e+00
  -3.806169e+01  -9.011357e+01
   8.729705e+00  -1.199095e+02
   7.936504e+01  -1.121113e+01
   1.001951e+02   8.620326e+01
   8.675238e+01   1.224441e+02
  -9.766730e+00   9.231617e+01
  -7.317344e+01   4.580851e+01
  -3.944659e+01  -1.293518e+01
  -2.031971e+01  -1.637360e+01
   2.302248e+01   1.892211e+01
   2.193082e+00   2.967993e+01
  -2.517161e+01  -4.831911e-01
  -7.578049e+01  -1.148031e+01
  -3.473532e+01  -2.062248e+01
   4.156789e+01   3.221499e+01
  -3.898470e+01   3.595494e+01
  -6.978608e+01   6.864785e+01
  -1.099872e+02  -1.357435e+01
  -8.235789e+01  -4.102191e+01
  -7.418790e+00  -8.472192e+01
   7.715987e+01  -9.287968e+01
   9.272656e+01  -3.443703e+01
   3.927123e+00  -1.346571e+01
  -3.330479e+01   3.668021e+01
  -2.551819e+01  -3.821704e+00
   1.214646e+01  -4.936737e+01
   5.763894e+01  -2.550809e+00
   5.891647e+01   4.178215e+01
   2.395696e+01   2.514730e+01
  -4.514316e+01   4.077437e+01
  -3.878886e+01  -2.186881e+01
   3.184315e+01  -1.612633e+01
   2.279933e+01   1.016355e+01
   4.445495e+01   1.541692e+01
  -3.661214e+01   4.601059e+01
  -8.172972e+01  -1.490152e+00
  -1.083080e+02  -7.523915e+01
  -1.181070e+01  -8.426663e+01
   1.610362e+01  -7.573793e+01
   9.840915e+01   2.869262e+01
   1.718202e+01   2.957264e+01
  -6.797749e+01   3.096841e+01
  -3.738493e+01   1.595135e+01
   1.680368e+01   1.088617e+01
   4.169588e+01  -1.864116e+01
  -1.911225e+00   3.788165e+01
  -4.736487e+01   3.944922e+01
  -2.912597e+01  -5.661116e+01
  -2.159746e+01  -6.988828e+01
   5.672641e+01  -5.927233e+01
   8.148223e+01  -5.553055e+01
   8.404624e+01   2.410427e+01
   9.681741e+00   7.863013e+01
  -9.666216e+00   1.046850e+02
  -6.019098e+01   2.298915e+01
  -2.893090e+01  -2.277488e+01
  -4.884230e+01   1.146091e+01
  -1.478276e+01   1.885093e+01
  -2.353461e+00   1.541148e+01
  -4.279754e+01   4.990663e+00
   2.656660e+01  -5.120264e+01
   2.898218e+01  -1.944347e+01
   3.582981e+01  -3.380046e+01
   4.222363e+01   2.745461e+01
  -3.489721e+01   5.710528e+01
  -6.210488e+01  -1.664788e+01
  -6.333561e+00  -4.306682e+01
   1.812434e+01  -5.213947e+01
   4.510370e+01   4.580669e+00
   1.069656e+02   5.510359e+01
  -1.929828e+01   9.069439e+01
  -9.131908e+00   1.859256e+01
  -2.087291e+01   1.344655e+01
  -3.551812e+01   2.228210e+01
   6.919802e+00   3.450511e+01
  -5.318360e+01  -1.384316e+01
  -1.938602e+01  -2.084102e+01
  -9.597566e+01  -7.870886e+01
   2.481800e+01  -1.092162e+02
   6.213631e+00  -4.427901e+01
   7.959969e+01  -3.521425e+01
   8.180674e+01   2.010697e+01
  -3.505266e+01   4.297849e+01
  -1.729533e+01   3.936112e+00
   1.696908e+00   8.622695e+00
   3.092608e+01  -2.379615e+01
   1.519010e+01  -1.993505e+01
  -3.182984e+01   1.136173e+01
  -3.212208e+01  -9.386010e-01
   3.316402e+01   2.211845e+01
  -1.671135e+00  -3.965233e+01
   9.070592e+01   4.762443e+01
   3.903222e+01   1.535167e+01
   1.009401e+01  -1.215821e+01
  -4.309300e+01   1.619364e+00
  -3.353463e+01  -3.903249e+01
  -2.670617e+01  -1.839634e+01
  -2.208668e+00  -9.575847e+00
   3.898117e+01   3.215192e+01
   3.042122e+01   2.222417e+01
  -6.337655e+00   3.190642e+01
  -3.481894e+01  -1.243139e+01
  -3.186324e+01  -1.922343e+01
  -2.608392e+01  -6.744955e+00
   2.935985e+00  -2.798495e+01
  -2.514534e-01   2.472656e+01
  -1.555372e+01  -2.891404e+01
   5.261858e+00  -2.410285e+01
   6.627942e+01  -3.649217e+01
   4.639189e+01  -2.457653e+01
   3.411978e+01   7.364941e+00
  -1.418796e+00   6.698781e+01
  -4.506550e+01   1.891494e+01
  -2.591635e+00   4.144424e+00
   9.466305e+00  -1.994102e+01
   1.694813e+01  -3.726958e+01
   5.168150e+01   2.717746e+01
  -1.500435e+01  -3.010447e+00
  -3.925089e+01  -6.834615e-01
  -4.633095e+01  -1.961313e+00
  -1.600937e+01  -2.401182e+01
   3.067270e+01  -1.932697e+01
  -5.086546e+00   2.197145e+01
  -4.465888e+00  -9.620885e+00
  -5.907873e+01  -3.169516e+01
   3.938856e+00  -1.060478e+01
  -1.013038e+01  -6.473590e+01
   4.419749e+01  -1.333588e+01
   4.489375e+01   4.430366e+01
  -2.230849e+00   2.977749e+01
  -4.908866e+01   2.802424e+01
  -3.888072e+01  -1.745083e+01
  -3.860477e+01  -6.389560e+01
   8.625786e+00  -5.758909e+01
   1.222615e+01  -5.911389e+00
   3.533702e+01   4.008912e+01
   2.943196e+01   2.984221e+01
   1.438057e+01  -3.324503e+01
   1.473988e+01   2.622806e+01
   2.107248e+01   6.105647e+01
  -1.217163e+00  -7.047181e+00
  -2.488893e+01   3.608492e+01
  -5.328403e+01  -2.014148e+01
  -7.145678e+01  -3.087087e+01
   5.340477e+00  -2.540497e+01
  -1.293321e+01  -1.703467e+01
   5.893844e+01   8.265710e+00
   2.018783e+00   2.923848e+01
  -1.827685e+01   9.398906e+00
   7.854404e+00   1.901987e+01
  -4.654621e+01  -7.520948e+00
   2.697605e+01  -1.140882e+01
   5.620482e+00  -8.601058e+00
  -1.647290e+01  -1.243681e+01
   2.381796e+00  -8.339721e+00
   4.911629e+01  -2.140264e+01
   1.241906e+02  -3.934196e+01
   3.487346e+01   6.220291e+01
   2.304782e+01   7.179350e+01
  -2.333782e+01   4.893851e+01
  -8.622188e+01  -3.223534e+00
  -3.142601e+01  -7.098420e+00
  -2.353004e+01  -1.012161e+01
   8.149815e+00  -2.366213e+01
  -2.025127e+01  -1.448444e+01
  -2.978617e+01  -4.537773e+00
  -3.908369e+00  -5.468024e+01
   4.974188e+01  -5.115463e+01
   5.094693e+01  -4.708806e+01
  -1.900970e+01   3.018811e+01
  -2.456054e+01   4.321769e+01
  -8.595076e+00   2.950005e+01
  -8.148840e+00  -3.278466e+01
   3.480230e+01  -2.826740e+01
   1.944357e+01  -1.542912e+01
   4.467922e+01  -2.481357e+01
   2.057857e+00  -9.877919e+00
  -3.379357e+01   2.689853e+01
   4.755967e+01  -5.338973e+00
  -8.419852e+00   1.487611e+01
   3.635195e+00   1.139435e+01
   4.570067e+01   2.050695e+01
  -1.045083e+01   5.211578e+01
  -5.877296e+01   5.605790e+00
  -3.982728e+01   1.128633e+00
  -2.969137e+01   1.720687e+00
   7.794994e+00  -1.052963e+01
  -2.762032e+01  -3.068849e+01
   7.051536e-01  -3.317819e+01
  -1.378550e+01   4.911798e+01
   3.182958e+01  -2.153680e+01
  -1.771680e+01  -6.236787e+00
   1.949070e+01  -5.387164e+01
   1.931490e+01  -9.894725e+00
   3.372930e+01  -4.980740e+00
  -3.510259e+01   1.915185e+01
   2.468616e+01   5.505841e+00
  -2.867635e+01  -1.771655e+01
   2.025420e+01  -8.543136e-01
  -1.924634e+00   4.997398e+01
   1.158220e+01   1.868676e+01
   9.240540e+00   9.045657e+00
  -2.467439e+01   4.399586e+00
  -6.282929e+00  -6.050115e+00
   1.830081e+01  -1.771176e+01
   3.857458e+01   1.227689e+01
  -3.177489e+01   1.108157e+01
  -8.874242e+01  -2.248927e+01
  -2.850782e+01  -3.240740e+01
   1.085708e+01  -1.903237e+01
   8.504475e+01  -8.556213e+00
  -1.451882e+00   2.558744e-01
  -4.207689e+01   3.041414e+01
  -4.076387e+01  -3.692270e+01
  -2.251036e+01  -2.244365e+01
  -9.102209e+00  -3.649687e+01
