
 $NMID
 id='ANONYMOUS ', fmtdat='(2E16.6)'
 volume=1.0
 tramp=1.0
 $END
   4.087351e+02  -5.495438e+01
   2.720628e+02   2.028231e+02
  -1.947591e+01   2.420571e+02
  -1.589041e+02   1.433070e+02
  -5.087535e+01  -1.032078e+01
   2.078293e+01   4.111716e+01
  -1.723308e+01   7.430864e+01
   1.177021e+01   6.972534e+01
  -4.843504e+01   2.912646e+01
  -1.949689e+01  -1.221425e+02
   1.826778e+01  -5.984109e+01
  -3.386621e+01  -8.813189e+01
   5.717396e+01  -9.069507e+01
  -3.984672e+00  -4.291165e+01
   8.440129e+01   6.483600e+01
   2.650302e+01   2.167833e+01
   2.489759e+01  -1.020651e+02
  -2.063869e+01   4.487687e+00
  -1.799932e+01  -9.523253e+01
   6.205100e+01   3.664333e+01
   7.918491e+00   2.639944e+01
  -3.297170e+01   6.530569e+01
  -4.901706e+01   4.775882e+01
  -1.982646e+01   5.933832e+01
   3.120101e+01   4.278257e+01
  -2.146662e+01  -2.438200e+01
  -3.332152e+00   5.957756e+00
  -6.243828e+01   1.573357e+01
  -2.686877e+01   3.336720e+01
   1.842642e+01   3.150309e+01
   6.962383e+01  -2.435504e+01
   5.252626e+01   5.229672e+01
   8.545222e+00  -1.283547e+01
  -3.101539e+01   2.556635e+01
  -2.846121e+01  -3.564085e+01
  -1.074922e+01  -5.570080e+01
   3.508004e+01  -5.183694e+01
   1.177171e+01   2.420898e+01
   1.080576e+01   2.313337e+01
  -2.645789e+01  -8.312288e+01
  -3.209894e+01  -8.763605e+01
   3.078612e+01  -1.168194e+02
   4.593396e+01   6.850412e+00
   4.740968e+01   4.692337e+01
   1.558023e+01   2.139007e+01
   2.156951e+01  -1.540897e+01
  -1.706439e+01  -4.976642e+01
   4.612844e+01   1.983844e+01
   4.549410e+01   2.549772e+01
   5.244612e+01   9.853646e+01
  -5.917495e+01   4.222259e+01
  -6.463180e+01  -3.670998e+01
  -1.049292e+01  -2.025899e+01
   1.067941e+01  -4.060538e+01
   4.562423e+01  -4.139880e+01
  -9.621671e-01  -2.766559e+01
   8.380941e+00   3.105977e+00
  -4.653261e+01   5.248826e+01
   8.633689e-01  -2.478085e+01
   6.733736e+01   3.352291e+00
  -6.475848e+00   1.477553e+01
  -3.784253e+01   1.023272e+01
  -1.695683e+01   4.162240e+00
   1.571553e+01  -7.848306e+00
   3.864896e+00  -2.714584e+01
  -2.922163e+01  -9.928824e+01
   5.034087e+01  -4.707675e+01
   2.100794e+00   2.655341e+01
   2.004469e+01   4.228174e+01
   1.896659e+01   4.697897e+01
  -1.091715e+01   7.873182e+00
   3.659784e+01   3.413050e+01
  -4.049315e+01   5.122845e+01
  -3.020303e+01   3.739363e+00
  -2.725079e+01   2.984128e+01
  -2.719935e+01  -2.018881e+01
  -6.147165e+01  -2.155526e+01
  -2.761037e+01  -1.593875e+01
   2.256803e+01  -2.098725e+01
   6.959619e+00   6.218346e+00
  -1.342690e+01   1.241620e+01
  -2.927594e+01   9.937596e+00
  -3.422842e+01  -4.991111e+01
  -7.682413e-01  -2.140641e+01
  -3.729323e+00  -1.617788e+01
   1.926769e+01  -4.725057e+00
   2.617811e+01   1.868654e+01
   6.959328e+01   2.349337e+01
   4.337493e+01   7.787500e+01
   3.564386e+01   3.288411e+01
   1.162614e+01   5.383425e+01
  -8.582935e+01   9.271946e+01
  -5.639385e+01   2.772154e+01
  -3.668340e+01  -1.936352e+01
  -6.477692e+01  -1.339693e+01
  -2.792433e+01  -3.869879e+01
  -2.449215e+01  -5.436095e+00
   6.234083e+00  -1.772151e+01
  -9.783159e+00  -3.011061e+00
   2.549452e+01  -3.097919e+01
   4.945023e+01  -4.610527e+01
   2.518244e+01   2.450553e+01
   1.550322e+01  -2.674339e+01
  -2.111733e+01  -9.855487e+00
   8.457431e+00  -2.858198e+01
   1.020370e+01  -3.713515e+01
   3.561039e+01  -2.745292e+01
   9.877005e+01  -1.361331e+01
   7.299619e+01   2.733986e+00
  -5.667644e+00   4.573971e+01
   1.814118e+01   3.662625e+01
   2.539397e+01   4.538112e+00
   6.254570e+00  -4.333458e+01
   2.125356e+01   2.811991e-01
   2.290628e+01   1.320312e+01
   1.027298e+01  -1.001685e+01
  -1.914315e+01  -2.342836e+01
   4.064209e+01   3.643094e-01
  -1.956812e+01   9.678103e-02
   3.117770e-01   1.267744e+01
  -4.447505e+01   4.728741e+00
  -3.947184e+01  -3.323630e+01
   1.009638e+01  -1.070638e+01
   1.573835e+01  -2.950543e+01
   2.155257e+01  -4.593185e+01
   3.800298e+01  -3.364472e+01
  -1.607813e+01   1.504482e+01
   4.773577e+00   4.182747e+01
  -1.895249e+01  -1.767666e+01
   2.945976e+01  -3.328912e+01
  -3.749219e+00   2.016576e+01
   2.278386e+01   3.311710e+01
   1.717018e+01   5.118692e+01
  -2.467005e+01   6.474702e+01
   5.346186e+00   2.574958e+01
  -3.302229e+01   5.750127e+01
  -1.794421e+01   1.138814e+01
  -2.193229e+01   2.885447e+01
  -2.362217e+01   8.215419e+00
  -6.140258e+01  -6.536543e+00
  -3.615018e+01   1.398691e+01
  -6.697548e+00  -4.530287e+01
   1.105970e+01  -2.612495e+01
   4.251052e+01  -4.124726e+01
  -1.514385e+01   7.359627e+00
   2.910852e+01   4.059517e+01
   1.011830e+01   2.064033e+01
   2.216691e+01   1.064035e+00
  -2.377494e+01   4.712529e+01
   1.136976e+01  -1.133160e+01
   2.110479e+01   4.850701e+00
  -8.501447e+00  -2.986657e+01
   4.974669e+01  -2.786623e+01
   2.147107e+00   3.259169e+01
   6.393768e+01  -1.588502e+01
   2.183553e+01   4.571077e+01
   3.013847e+01   3.113880e+01
  -4.447488e+01   6.802026e+01
   3.445751e+01  -2.200154e+01
  -2.097613e+01   1.285786e+01
   6.657557e+00  -6.328625e+00
  -3.000670e+01  -3.849622e+00
  -1.063259e+01  -4.243973e+01
  -2.557913e+01  -2.590124e+00
   3.999402e+01   6.428768e+00
   3.355361e+00  -6.986234e+01
   3.202006e+01  -2.081517e+01
   5.996226e+00   1.624178e+01
  -4.085344e+01   4.771082e+01
   1.863911e+01  -2.357034e+01
  -1.880873e+01   2.079573e+01
   1.562086e+01  -2.627868e+01
   7.908413e+00  -1.035942e+01
   4.668865e+01   1.641896e+01
   3.477350e+01   4.981605e+01
  -3.214168e+01   2.862526e+01
  -1.969814e+01  -1.476835e+01
   1.847079e+01   2.302275e+01
  -2.947435e+01   1.576629e+01
  -1.051551e+01  -6.121163e+00
  -3.861439e+01   1.031011e+01
  -4.657671e+01   2.134484e+01
   2.300188e+01  -3.457052e+01
   8.200908e+00   1.275545e+01
  -2.284600e+01   1.377360e+01
  -1.479635e+01   4.984778e+00
  -1.725838e+01   3.670830e+01
  -6.723351e+00   3.664908e+01
   1.924093e+01  -1.360976e+01
   3.670235e+00  -3.303106e+01
  -1.252710e+01   5.192601e+01
  -5.982778e+00   3.189201e+01
   4.669081e+00  -5.138729e+01
  -3.622803e+01  -2.459855e+01
   3.317294e+01   1.592506e+01
   5.142668e+01  -2.314828e+01
   6.580114e-04   5.949216e+00
  -1.728533e+01   1.048559e+01
  -5.628143e+00  -2.828967e+01
  -2.170833e+01  -1.233233e+01
  -2.794021e+01  -2.011333e+01
   5.702230e+01   4.724184e+01
  -1.832225e+01  -2.137036e+01
   2.976758e+01   9.495258e+00
   2.213324e+01   6.481509e+01
   4.973738e+01  -1.404379e+01
   1.204659e+01   1.985620e+01
  -6.491765e+01   2.085055e+01
  -1.304171e+01  -1.676147e+00
  -1.610044e+01  -4.125467e+01
   4.054087e+00  -4.256148e+01
   7.803222e+01  -2.996119e+01
   6.588019e+00  -3.917347e+01
   5.268480e-01   1.371964e+00
   4.615561e+01  -5.062702e+01
   1.721372e+01   3.979123e+01
  -2.348644e+01  -2.420228e+01
   1.719106e+01   4.961157e+01
   3.798300e+00   1.800441e+01
  -1.616941e+01   4.455748e+00
  -1.500389e+01   4.242977e+01
   3.632483e+01   1.667037e+00
  -2.823423e+01   1.902816e+00
  -3.157837e+00   2.309939e+01
  -4.464784e+00   7.278440e+00
   8.325203e+00  -2.197109e+01
  -9.563593e+00  -1.513926e+01
  -1.507729e+01   1.892944e+01
  -2.391346e+01   3.952770e+01
   2.571206e+01  -3.953892e+01
   4.815339e+00  -2.883559e+01
  -3.421959e+00  -2.915721e+01
   4.382373e+01   8.833714e+00
   3.593424e+01   2.003041e+01
  -2.303827e+01   3.756023e+01
  -4.401833e+01   3.522544e-01
   2.569073e+01  -3.840193e+01
  -1.670227e+01   1.574704e+01
   1.539512e+01   1.455924e+00
  -1.162922e+01   8.266577e+00
   4.890250e+00   8.668662e+00
  -1.908422e+00   4.325789e+01
   7.874792e+01   1.563920e+01
  -2.859107e+01  -3.631135e-01
   2.627961e+01   9.571376e+00
   3.562557e+00   9.998518e+00
   1.771779e-01  -4.932431e+01
  -2.491244e+01  -4.538885e+01
   4.146924e+01   2.304867e+01
   8.084649e+00   1.141015e+01
   6.557794e+00   4.486438e-01
   4.532567e+00  -3.616416e+00
  -2.377295e+01   7.265246e+00
  -3.429172e+01  -8.914956e+00
  -3.720626e+01   3.128689e+01
   2.409312e+00   8.188816e+01
  -2.701664e+01   4.558269e+00
   7.063320e+00   5.693035e+01
  -3.874672e+01  -3.262269e+01
   6.660957e+01  -3.165925e+01
   4.114957e+01  -7.257554e+00
   3.365147e+01   5.521405e+00
   4.184851e+01   1.049897e+01
   2.174302e+01  -3.362722e+01
   4.674949e+01  -7.052590e+00
  -8.334326e+00   4.838393e+01
   7.423662e+00  -4.664757e+01
   7.875510e+00  -2.802869e+01
  -4.043607e+00   2.281109e-02
   1.662553e+01   8.538944e+00
   2.004560e+01  -3.522735e+01
   1.255612e+01   1.364999e+01
   9.985634e+00   1.316328e+01
  -8.059914e+00   2.965532e+01
  -1.980178e+01   5.912602e+00
   2.258264e+01  -1.027364e+00
  -8.397453e+00   7.321988e+00
   7.162495e+00  -5.890735e+00
   3.120421e+01   1.642684e+01
   2.468249e+01  -7.945120e+00
   1.050527e+01   3.087229e+01
   1.339060e+01  -5.637213e+00
   8.937773e+00   5.668528e+00
   1.011913e+01   2.187206e+01
  -1.030341e+01   2.029688e+00
  -2.523408e+01   2.299713e+00
   1.322644e+00   2.866639e+01
   5.689506e+00  -2.222453e+01
  -2.758436e+01   3.392330e+00
   2.598756e+01   9.028503e+00
   1.792105e+01   6.834556e+00
   3.552023e+01  -6.783240e+00
  -2.283329e+01   2.833760e+01
  -1.412818e+01   8.322432e+00
  -5.184981e+01  -6.215838e+00
  -1.421652e+00   1.148212e+01
   2.891940e+01   4.380066e+00
   1.684711e+01  -1.982841e+01
   1.305064e+01  -4.771826e+01
   3.506146e+01   2.395020e+01
   2.584185e+01   9.639663e+00
   1.121431e+01   4.227176e+00
   1.632591e+01   5.460860e+01
   1.058833e+01   3.102268e+01
  -1.984017e+01   9.330528e+00
  -2.272326e+01   1.460804e+01
  -1.580916e+01  -4.498703e+01
  -1.378114e+01   5.981303e-01
   4.857456e+01   4.806856e+00
  -2.286080e+01   3.696887e+00
   2.990955e+01   1.138956e+01
  -4.355167e+00   2.554428e+01
   1.000222e+01   1.138879e+01
   2.962977e+01  -1.003254e+01
   1.554856e+01  -2.576011e+00
   8.842111e+00  -2.194200e+00
  -4.832241e+00   7.352667e+00
  -4.297424e+01  -3.886958e+00
   5.086659e+01  -3.016023e+01
   4.068156e+01   3.292427e+00
