
 $NMID
 id='ANONYMOUS ', fmtdat='(2E16.6)'
 volume=1.0
 tramp=1.0
 $END
   1.445365e+03   1.016933e+02
   1.004313e+03   5.609650e+02
   1.243326e+02   8.528462e+02
  -4.462048e+02   8.340597e+02
  -5.281971e+02   3.358046e+02
  -1.589021e+02  -1.242520e+01
   8.546307e+01  -4.199413e+01
   3.853256e+01   1.256146e+02
  -2.378632e+02   2.050166e+02
  -2.669916e+02  -2.300129e+00
  -1.969915e+02  -2.519928e+02
  -2.690561e+01  -3.476496e+02
   1.320750e+02  -1.162819e+02
   1.721734e+02   1.232681e+02
  -1.714770e+01   1.791444e+02
  -2.472635e+02   9.331348e+01
  -2.216312e+02  -2.476017e+02
   4.834722e+01  -3.337398e+02
   1.305302e+02  -3.135805e+02
   3.012548e+02   4.449000e+01
   7.504064e+01   1.660180e+02
  -7.792776e+01   1.324793e+02
   7.313333e+00   7.956382e+00
   1.791278e+02   8.168911e+01
   6.427625e+01   1.567650e+02
  -7.537142e+01   1.498761e+02
  -2.584968e+02   5.169786e+01
  -2.848147e+02  -6.872384e+01
  -5.650527e+01  -1.000929e+02
   1.234565e+02  -6.198878e+01
   1.316695e+02   7.915749e+01
   3.569001e+00   8.473784e+01
  -1.605285e+02   2.152562e+02
  -2.303014e+02   5.380749e+01
  -1.587629e+02  -4.601454e+01
  -9.891396e+01  -1.250563e+02
  -5.529366e+01  -7.761233e+01
  -4.171878e+01   1.836893e+01
  -4.470140e+01   3.992059e+01
  -1.081897e+02  -6.412080e+01
  -1.106657e+01  -1.968855e+02
   2.102391e+01  -1.815416e+02
   7.777219e+01  -8.002344e+01
   6.194067e+01   1.071685e+02
  -3.029158e+01  -7.473518e-01
  -5.375928e+01  -1.291847e+02
   5.772353e+01  -1.749068e+02
   2.085693e+02  -7.859514e+01
   2.190102e+02   1.535386e+02
   1.251315e+02   2.194053e+02
  -7.954467e+01   1.476690e+02
  -2.190523e+02  -2.146827e+01
  -1.549092e+02  -7.783335e+01
   2.523753e+00  -6.012427e+01
   1.271907e+02  -5.318167e+01
   8.839996e+01  -1.334002e+01
   2.984517e+01  -4.194364e+00
  -1.944892e+01   1.682576e+01
   5.309550e+01   1.228205e+01
   9.617647e+01  -7.518621e+00
   8.341135e+01   1.048364e+02
  -5.512651e+01   1.493801e+02
  -1.959222e+02   3.853946e+01
  -1.162556e+02  -7.232746e+01
  -1.776932e+01  -2.186980e+02
   1.841917e+02  -1.701085e+02
   2.215931e+02  -3.575809e+01
   1.639231e+02   1.129147e+02
   3.720074e+01   1.395548e+02
  -8.377876e-01   1.321702e+02
  -2.800864e+01   1.177142e+02
   2.330393e+00   9.469668e+01
  -1.322031e+02   9.557366e+01
  -1.260804e+02   3.830331e+01
  -1.445879e+02  -5.668773e+01
  -2.760682e+01  -1.327942e+02
   9.743239e+01  -1.292930e+02
   1.102153e+02  -1.314366e+01
   5.373879e+01   1.612658e+02
  -7.996681e+01   1.454871e+02
  -1.763991e+02   4.090199e+01
  -2.008322e+02  -5.580006e+01
  -1.096940e+02  -1.590210e+02
   2.789802e+01  -1.241897e+02
   4.429649e+01  -1.284405e+02
   4.617359e+01  -6.542150e+01
   7.614797e+01  -8.503707e+01
   1.605892e+02  -3.532620e+01
   2.635559e+02   5.605992e+01
   1.649822e+02   1.678417e+02
  -1.477644e+00   2.960256e+02
  -2.191957e+02   2.271025e+02
  -3.065943e+02   1.051287e+02
  -1.872053e+02  -9.165143e+01
  -3.510656e+01  -1.767866e+02
   4.865531e+01  -8.022337e+01
   6.799708e+01   2.501294e+01
  -4.683756e+01   1.132038e+01
  -1.545917e+01   7.838979e+00
  -2.498526e+01  -3.206754e+01
   2.518833e+01  -1.542090e+01
   2.420188e+01  -5.132234e+00
  -4.426806e+01   4.895130e+01
  -1.603839e+02   5.691184e+01
  -9.626295e+01  -8.526077e+01
  -1.044467e+01  -1.892469e+02
   1.638901e+02  -1.572942e+02
   1.918484e+02  -2.496851e+00
   1.442137e+02   1.210128e+02
   4.671737e+01   1.481878e+02
  -5.031744e+01   7.716230e+01
  -6.865183e+01   3.389869e+00
  -4.807225e+01   2.505718e+01
   4.279868e+00   4.616515e+01
  -5.010875e+01   7.245675e+01
  -5.249493e+01  -1.979818e+01
  -7.915682e+01  -2.919345e+01
  -1.641123e+01  -5.194652e+01
   7.072710e+01   1.466159e+01
   8.270029e+01  -2.472424e-01
  -5.433772e+01   4.865045e+01
  -1.543325e+02  -1.399490e+01
  -1.609991e+02  -3.985147e+01
  -3.014504e+01  -1.692408e+02
   6.755761e+01  -1.431904e+02
   1.089876e+02  -6.168009e+01
   6.124031e+01  -2.172103e+00
  -2.053165e+01  -6.665067e+00
  -2.355413e+01  -2.044147e+01
   1.003132e+02  -4.403537e+01
   1.163908e+02  -4.724379e+01
   1.538280e+02   3.932013e+01
   5.797003e+00   8.896533e+01
  -4.315496e+01   9.914989e+01
  -9.792700e+01   1.515330e+01
  -2.502429e+00  -3.108728e+01
   1.917607e+01  -3.280967e+01
   1.412147e+01   7.124837e+01
  -4.895367e+01   8.946578e+01
  -7.420193e+01   3.667339e+01
  -9.534523e+01  -5.416651e+01
  -3.558405e+01  -9.348033e+01
   8.263313e+01  -8.300133e+01
   6.739039e+01  -3.862989e+01
   4.321469e+01   3.484807e+01
  -5.154460e+01   4.662517e+01
  -5.731255e+01   3.805883e+01
  -5.014174e+01  -5.034114e+01
   5.159920e+01  -3.489280e+01
  -8.027327e+00   1.233946e+01
  -7.765927e+00  -1.002438e+01
  -2.235563e+01  -3.088635e+01
   3.746868e+01  -6.013503e+01
   1.089341e+02  -7.577151e+01
   1.648082e+02  -5.685256e-01
   1.127301e+02   1.123389e+02
  -4.395981e+01   1.032128e+02
  -4.260753e+01   1.004658e+02
  -7.104141e+01   2.326865e+01
  -3.202172e+01  -3.592385e+00
  -2.953582e+01  -2.760078e+01
  -1.397471e+01  -9.112221e+00
  -2.252733e+01   4.397559e+00
  -1.004434e+01  -2.281247e+01
  -8.096607e+00  -6.088958e+01
   2.655524e+01  -6.224915e+01
   9.066166e+01   3.725878e+01
   1.790861e+01   4.772150e+01
  -1.001723e+02   8.078601e+01
  -1.515219e+02  -7.994127e+01
  -4.658783e+01  -1.110180e+02
   9.740023e+01  -1.072042e+02
   1.850356e+02  -1.068108e+02
   1.472369e+02   2.794905e+01
   2.809194e+01   1.206532e+02
   1.947880e+01   6.359205e+01
  -2.317499e+01   5.061241e+01
  -5.253773e+01   4.999343e+01
  -1.424074e+01   5.017186e+01
  -4.650836e+01   5.429485e+01
  -6.324086e+01  -6.236690e+01
  -4.400733e+00  -6.630668e+01
   5.059074e-01  -1.186887e+02
   3.002326e+01  -9.275222e+01
   1.099555e+02  -2.200970e+01
   7.665904e+01   5.602804e+01
  -1.715222e+01   7.830327e+01
  -5.321776e+01   3.064416e+01
  -3.720043e+01  -5.995528e+00
   3.703746e-01  -1.370085e+01
   3.423553e+01  -8.254051e+00
  -3.276251e+01   8.769778e+00
  -5.390979e+01   6.660530e+00
  -3.031584e+01  -9.849187e-01
   4.218207e+01  -1.629613e+01
   1.082085e+02   1.265606e+01
   8.912298e+01   8.243298e+01
  -4.578795e+01   7.048950e+01
  -6.133503e+01   3.392264e+01
  -7.004649e+01   5.584820e+00
  -4.882274e+01  -3.752259e+01
   3.818657e+01  -2.916472e+01
   2.253330e+01   2.263406e+01
   4.480215e+01   1.160838e+01
  -3.036643e+01   7.302348e+01
  -3.543781e+01  -2.014856e+00
  -3.229055e+01  -1.920690e+01
  -4.649948e+01  -1.759256e+01
  -6.420350e+01   1.155927e+01
  -1.514277e+00  -3.273211e+01
  -1.491525e+01  -1.909862e+01
  -3.339345e+01  -9.030286e+01
   7.536687e+01  -8.609434e+01
   1.109633e+02  -1.599963e+01
   8.492301e+01   9.053887e+01
  -3.089500e+01   7.528780e+01
  -7.084267e+01   2.843605e+01
  -4.007938e+01   8.092674e+00
   1.133413e+02  -9.868862e+00
   4.717572e+01   3.521088e+00
   3.614638e+01   5.557652e+01
  -3.042300e+01   6.344697e+01
  -1.148850e+02  -1.359048e+01
  -1.098157e+02  -7.873366e+01
   2.892244e+01  -5.117046e+01
   3.221102e+01  -2.518574e+01
   1.540195e+01  -2.892837e+01
  -1.713847e+01   2.962957e+00
  -7.944220e+01  -3.983909e+01
  -3.301510e+01  -7.693153e+01
   3.886580e+01  -6.387840e+01
   1.281989e+02  -7.012336e+01
   8.477379e+01   4.736608e+01
   7.434192e+00   1.125031e+02
  -6.789246e+01   4.049775e+01
  -8.184423e+01  -3.309896e+01
  -8.325458e-01  -6.737832e+01
   6.046259e+01  -6.793985e+01
   3.805615e+01  -5.282164e+01
   3.274356e+01   2.615439e+01
   4.270320e+00  -7.089761e+00
  -3.285772e+01   1.245620e+01
   6.861931e+01   3.199150e+01
   4.650506e+01   5.376471e+01
   1.308413e+01   9.629677e+01
  -6.448184e+01   4.123975e+01
  -8.174347e+01  -6.466667e+00
  -7.776404e+01  -1.903166e+01
  -4.640766e+01   8.824607e-01
  -3.949251e+00  -5.660601e+01
   5.847789e+01   5.696134e+01
   2.377146e+01  -1.049382e+01
  -2.309940e+01   2.058958e+01
   2.973825e+01  -1.250664e+01
   1.506876e+01   2.879670e+01
   7.437238e+01  -4.729826e+00
   9.008610e+00   2.586282e+01
  -2.181084e+01  -1.855409e+00
  -3.933508e+01   2.121700e+01
   6.362579e+01  -7.949009e+01
   5.586617e+01  -4.939204e+01
   1.149997e+02   5.511167e+01
   2.803736e+01   9.417726e+01
  -8.167044e+01   8.759681e+01
  -1.157958e+02   5.045062e+01
  -8.294570e+01  -4.921821e+01
  -1.646503e+01  -2.721970e+01
   4.009682e+01  -5.789678e+01
  -1.123295e+01  -5.237380e+01
  -1.938957e+01  -2.766817e+00
   2.415739e+01  -3.549987e+01
   5.465467e+01  -6.444935e+01
   2.085396e+01   1.684162e+01
   3.709827e+01   3.485233e+01
   2.246856e+01   6.614060e+01
  -6.224969e+01   4.730163e+01
  -5.913342e+01   1.560751e+00
  -4.580999e+01  -2.885737e+01
   3.736150e+00  -7.679823e+00
   7.801766e+01  -2.094910e+01
   4.670647e+01   1.888375e+01
  -1.917915e+01  -8.505161e+00
  -4.679602e+01   2.355989e+01
   3.275302e+01   3.415198e+01
   4.694121e+01  -4.992806e+01
   5.782533e+01  -1.024861e+01
  -2.816505e+01   2.274697e+01
  -6.139461e+01  -1.870310e+01
  -1.975764e+01  -5.412029e+00
   2.701023e+01  -4.109605e+01
   4.649966e+01  -2.847042e+01
  -1.355637e+01   2.310305e+01
  -1.969809e+01   3.612549e+01
  -1.044781e+01   4.976769e+01
  -4.410452e+01   1.089819e+01
   1.545110e+01  -9.249377e+00
  -2.586104e+01  -4.940949e+01
   3.406884e+01   8.185246e+00
  -1.968114e+00  -3.346068e+00
  -8.869101e+00   2.648129e+01
  -2.524332e+01  -1.156603e+01
  -1.227507e+01  -6.112549e+01
   4.298773e+01   8.906041e+00
   3.910238e+00   4.181260e+01
  -1.507805e+01   1.560956e+01
  -3.794600e+01  -1.108215e+01
  -6.057325e+01  -5.933871e+01
   2.873017e+01  -1.729133e+01
   7.013449e+01   3.269808e+01
   1.706122e+01   4.808291e+01
  -5.044163e+00   2.800372e+01
  -9.805075e+01  -4.087977e+00
  -4.675837e+01  -4.730990e+01
   2.975565e+01   8.267586e+00
   6.504587e+00  -1.615113e+01
   2.487937e+01   1.466138e+01
  -1.713040e+01   1.310892e+01
  -3.558526e+01  -6.048186e+00
   3.894526e+01  -2.268597e+01
   3.820834e+01   8.147248e+00
