
 $NMID
 id='ANONYMOUS ', fmtdat='(2E16.6)'
 volume=1.0
 tramp=1.0
 $END
   9.556987e+02   6.714425e+01
   7.548588e+02   4.486385e+02
  -2.106220e+01   5.955280e+02
  -4.196879e+02   4.616262e+02
  -2.472087e+02   1.797721e+02
   6.878517e+01   2.164491e+01
   1.652253e+02  -1.796521e+01
  -6.269884e+01   1.186850e+02
  -1.768086e+02   1.120231e+02
  -1.011949e+02  -6.479637e+01
  -1.437516e+02  -1.364254e+02
  -6.625205e+01  -1.663836e+02
   1.052357e+02  -7.843482e+01
   1.649987e+02   9.289612e+01
  -6.119309e+01   9.241341e+01
  -1.036829e+02  -1.905813e+00
  -1.134558e+02  -1.062186e+02
   1.260644e+02  -1.748496e+02
   1.905941e+02  -1.513072e+02
   1.230750e+02   1.011893e+02
   1.299172e+02   1.279753e+02
   1.317849e+02   1.563219e+01
   1.276410e+01   6.908661e+01
   6.252130e+01   4.335128e+01
   1.700562e+02   8.383528e+01
   1.722821e+01   2.346467e+02
  -1.291920e+02  -4.047806e+01
  -1.874794e+02  -1.199472e+02
  -1.045575e+02  -3.684752e+01
   1.053461e+02   9.951404e+00
   1.532931e+02   1.375967e-01
   6.809047e+01   7.390257e+01
  -1.250620e+02   1.663876e+02
  -2.430588e+02   1.325930e+02
  -1.564186e+02  -2.375807e+01
  -1.883731e+01  -1.160456e+02
  -5.922886e+00  -4.730779e+01
  -9.317272e+00   8.172795e+01
  -1.122269e+02   6.177710e-01
  -9.914675e+00  -5.601718e+01
   3.425436e+00  -1.593201e+02
   7.426444e+01  -1.791900e+02
   7.974217e+01   4.417320e+01
   3.267124e+01   4.125087e+01
  -8.150762e+01   1.124272e+01
  -3.900812e+01  -9.362070e+01
   7.482535e+01  -9.270799e+01
   1.395023e+02  -7.399286e+00
   1.966890e+02   1.294248e+02
   5.494832e+01   1.349231e+02
  -9.260883e+01   7.636409e+01
  -1.889770e+02  -1.611312e+01
  -1.118565e+02  -8.009292e+01
  -2.064571e+01  -6.405920e+01
   7.676821e+01  -7.072795e+00
   3.058263e+01   2.299995e+01
   2.889576e+01   5.317072e+01
   7.209766e+01  -1.069594e+01
   8.424933e+01  -5.823834e+01
   9.147476e+01   2.227120e+01
   5.128447e+01   9.498964e+01
  -5.282270e+01   1.151356e+02
  -1.515744e+02   6.269278e+01
  -1.004521e+02  -6.586322e+01
  -5.471942e+01  -1.328232e+02
   1.089030e+02  -1.286314e+02
   1.367821e+02  -9.507940e+01
   8.365262e+01   7.974597e+01
   7.789882e+01   1.253038e+02
  -2.236042e+01   1.520707e+02
   4.096227e+01   1.261230e+02
  -2.805392e+01   6.659753e+01
  -9.130241e+01   5.276855e+01
  -1.190792e+02   1.704063e+01
  -9.115767e+01  -6.462431e+01
  -1.875894e+01  -9.725209e+01
   7.997522e+01  -7.129005e+01
   9.215622e+01   1.520539e+01
   2.962276e+01   8.089137e+01
  -1.452396e+01   1.012378e+02
  -1.128203e+02  -2.584207e+00
  -9.817613e+01  -5.358784e+01
  -2.472782e+01  -7.527547e+01
   4.245540e+01  -7.425421e+01
   2.577182e+01  -2.312961e+01
   1.641963e+01  -5.946340e+01
  -1.094061e+01  -3.153170e+01
   8.954536e+01  -2.121332e+01
   1.594645e+02   2.404308e+01
   1.315835e+02   1.572240e+02
   5.436854e+00   1.675651e+02
  -1.480160e+02   1.056114e+02
  -1.574979e+02   5.594149e+01
  -5.678209e+01  -7.504579e+01
   1.314809e+01  -8.865656e+01
   4.840427e+01  -4.829683e+01
   3.736906e+01   4.469348e+00
  -8.485688e+01   3.416703e+01
  -5.097751e+01   9.440343e+00
  -2.164033e+01  -5.056643e+01
   4.250812e+01  -5.313967e+01
   2.288080e+00   4.900485e+01
  -1.355702e+01   5.654430e+01
  -3.319640e+01   1.034561e+00
  -7.194447e+01  -6.035618e+01
   2.829371e+01  -1.083766e+02
   7.641622e+01  -5.768193e+01
   1.864844e+02   4.426286e+01
   9.857113e+01   9.492773e+01
  -2.338246e+01   1.093927e+02
  -5.765172e+01   5.854450e+01
  -8.084371e+01   1.589570e+00
  -4.506291e+00  -4.842796e+01
   2.559084e+01  -1.388554e+01
  -2.465762e+00   4.151550e-01
  -7.154032e+01   2.663113e+00
  -5.853396e+01  -4.557608e+01
   1.518776e+01  -2.314518e+01
   3.752751e+01   1.664579e+00
   1.883914e+01   2.443426e+01
  -5.190289e+01   4.582814e+01
  -9.275052e+01   1.641615e+00
  -3.907544e+01  -8.213837e+01
  -2.219528e+01  -1.483028e+02
   1.117111e+02  -9.410501e+01
   1.348745e+02   5.093490e+00
   7.249747e+01   7.990715e+01
   2.206244e+01   2.057495e+01
  -5.582731e+01  -4.653519e+01
   2.536471e+01  -3.438399e+01
   3.961988e+01  -1.886301e+01
   4.380541e+01   3.657106e+01
  -1.588266e+01   8.201405e+01
  -7.450938e+01  -2.381965e+01
  -2.926377e+01  -4.147177e+01
  -3.484440e+01  -2.995290e+01
   7.065965e+01   3.441778e+01
   3.672478e+01   7.734984e+00
  -4.346107e+01   3.390479e+01
  -4.793481e+01   1.492661e+01
  -8.301845e+01  -3.546716e+01
  -3.480297e+00  -7.226796e+01
   3.978328e+01  -6.362425e+01
   2.587439e+01  -3.314547e+01
   4.675634e+01   8.330180e+00
  -5.216036e+01   2.642851e+01
  -1.208461e+01  -1.040942e+00
   2.242542e+01  -2.605505e+01
  -3.495378e+00  -2.162844e+01
   1.337985e+01   5.512952e+00
  -5.938556e+01   5.782633e+00
  -2.725942e+01  -7.278331e+00
  -1.430148e+01  -6.311735e+01
   9.837420e+01  -7.959232e+01
   7.672392e+01   6.679366e+00
   9.143812e+01   5.489072e+01
   9.563938e+00   6.915840e+01
  -6.352090e+01   3.698960e+01
  -1.169815e+02  -1.038812e+01
  -3.563464e+01  -2.640325e+01
  -4.910133e+01  -6.464698e+01
   7.060712e+00  -1.335081e+01
  -2.164214e+01  -3.162504e+01
  -2.955485e+01  -7.846020e+00
   1.353301e+01   2.084884e+00
   5.811449e+01  -5.111225e-01
   2.111645e+01   8.512794e+01
  -4.336813e+01   7.905477e+01
  -1.035397e+02   3.232925e+01
  -8.303751e+01  -5.901286e+01
  -1.273581e+01  -7.432956e+01
   8.635270e+01  -4.406520e+01
   1.104639e+02   5.123503e-01
   5.497033e+01   6.506720e+01
   3.472914e+01   4.987895e+01
  -6.034036e+00   1.126934e+02
   3.962920e+00  -1.334324e+01
  -3.529844e+01   2.721791e+01
  -5.148535e+01   6.305570e+00
  -1.007116e+02   1.821153e+01
  -5.764827e+01  -6.606371e+01
  -1.424218e+01  -1.679624e+01
   1.359222e+01  -3.917585e+01
   8.885129e+00  -1.938591e+01
   3.933586e+01   2.405518e+01
   2.250689e+01   3.722463e+01
  -2.067822e+00   5.852278e+01
   2.480546e+00   8.078504e+01
  -3.550819e+01   2.024326e+01
   2.597242e+01   1.448535e+01
   6.564461e+01  -4.238108e+01
   2.490418e+01   1.027663e+01
  -8.927413e+00   1.541566e+01
  -1.259159e+01  -4.428619e+01
   6.592329e+01  -2.118024e+01
   6.262113e+01  -5.441870e+00
   8.450939e+01   1.250328e+02
  -1.149666e+01   1.707561e+01
  -9.345268e+01   3.022043e+00
  -5.741009e+01  -4.139249e+01
  -1.028525e+01  -4.068250e+01
   4.834157e+00  -3.776383e+01
   4.605546e+01  -4.451507e+01
  -1.272164e+01   7.096412e+01
  -1.087711e+01   5.884754e+01
  -2.526038e+01   1.084053e+01
  -7.339673e+00  -1.322989e+01
  -4.072343e+01  -5.286114e+01
  -8.785565e-02   3.296520e+00
   4.368748e-01  -3.060455e+01
  -3.281071e+01  -4.082795e+01
  -9.358282e+00  -6.497851e+01
   8.286181e+01  -8.232619e+01
   2.715596e+01  -5.460030e+00
   2.978762e+01   4.365062e+01
  -2.424946e+01   4.037590e+01
  -1.904177e+01   2.677313e+01
   2.173801e+01  -8.532091e+00
   2.026657e+01  -3.744382e+00
   5.303396e+01  -8.139049e+00
  -3.809373e+00   4.750574e+01
  -4.779907e+01   2.685465e+00
  -7.047937e+01   1.338246e+00
  -5.526453e+01  -6.177987e+01
  -2.618633e+01  -4.429052e+01
   2.170581e+01  -4.274552e+01
  -4.594494e+01  -3.390126e+01
  -4.271779e+00   5.479547e+00
  -4.069314e+01  -3.822584e+01
  -2.504642e+01  -6.201354e+01
   3.109247e+01  -4.001606e+01
   8.583415e+01  -2.718372e+00
   7.212715e+01   1.110240e+02
   9.032229e-01   7.726053e+01
  -4.424624e+01   8.073391e+01
  -4.411322e+01  -1.929075e+01
  -5.521343e+01  -8.724667e+01
  -1.534427e+01  -4.741662e+01
   3.989678e+01  -7.459685e+00
   4.060110e+01   2.160666e+01
  -7.736851e+00  -2.443507e+01
  -2.615085e+01  -6.756156e+01
   1.929712e+01   1.594682e+01
  -1.574619e+00   5.317481e+01
  -1.853785e+01   5.832606e+01
  -9.284322e+01   4.180324e+01
  -5.878034e+01  -1.825421e+01
  -8.125501e+01  -5.860140e+01
  -3.071993e+01  -1.242597e+01
   4.228273e+01   4.187860e+01
   1.948296e+01   7.391886e+00
   4.241518e+01   3.282055e+01
   4.036485e+01  -4.688049e+00
   4.562118e+01   2.270312e+01
   8.229413e+01   1.512433e+01
   3.437135e+01  -2.090794e+00
  -1.256466e+01   3.440313e+01
   8.363900e+00   2.895432e+01
   3.419876e-01  -2.362620e+01
   9.341531e+00  -8.746133e+01
   4.519514e+01  -2.174878e+01
   5.865202e+01   5.577497e+01
  -2.254282e+01   3.913814e+01
  -4.226809e+01   6.286184e+01
  -2.349682e+01   6.269354e+01
  -1.536169e+01  -2.481662e+01
   1.852552e+01  -2.090318e+01
  -2.136548e+01  -5.655756e+00
   1.396509e+01   4.088711e+00
  -2.298967e+01   1.427834e+01
   2.616749e+00  -3.502249e+01
  -2.440902e+01  -3.169936e+01
   2.700811e+01   2.581727e+00
   1.210548e+01   1.164062e+01
  -3.002532e+01   9.100677e+00
  -2.707933e+01   1.757849e+01
  -2.569735e+01  -1.091354e+01
   3.791295e+01  -3.393489e+01
   3.666334e+01  -3.083320e+01
   5.403860e+01   2.218918e+01
  -5.429889e+00   1.964149e+00
  -4.262398e+01  -1.816345e+01
  -3.691190e+01  -3.381131e+01
  -2.757382e+01   4.562647e+01
   7.144315e+01   5.768855e+01
   3.252696e+01   2.641749e+01
   1.366204e+01   5.513652e-01
  -3.608982e+01   2.601404e+01
  -4.763228e+01   2.649660e+01
  -5.376358e+00  -9.411996e+00
   2.926806e+01  -2.880409e+01
   5.235153e+00  -8.430792e+00
   4.791073e+00   1.487019e+01
  -1.789020e+01   9.917581e+00
  -1.142825e+01  -1.936514e+01
   6.242061e+00  -1.803451e+01
  -1.407661e+01   2.284227e+01
   1.753199e+01   4.009658e+01
  -2.926091e+01  -4.697468e+01
  -7.033230e+00  -1.835884e+01
  -2.243920e+00  -3.511584e+01
  -2.043608e+01  -4.613892e+01
   2.868034e+00   7.161394e+00
  -2.968425e+01   2.496890e+01
  -2.102731e+01  -9.792879e+00
  -9.182409e+00  -6.836862e+01
  -3.959041e+00  -2.747190e+01
  -2.670637e+01  -1.961630e+01
   4.842862e+01   2.981988e+01
   3.069354e+01   6.807687e+01
  -3.328741e+01   3.018666e+01
  -3.341287e+01  -5.025815e+01
  -5.228476e+01  -6.312554e+01
   7.637693e+00  -3.590890e+01
   4.793854e+01  -5.052545e+01
   1.662900e+01  -2.745877e+01
   1.125212e+01   3.007236e+01
   3.739042e+01  -6.761916e+00
   2.964779e+01  -2.938058e+01
  -6.107340e+00  -1.362149e+01
