
 $NMID
 id='ANONYMOUS ', fmtdat='(2E16.6)'
 volume=1.0
 tramp=1.0
 $END
   1.996926e+03  -1.023003e+02
   1.404974e+03   1.313763e+03
  -1.441625e+02   1.584756e+03
  -7.037081e+02   9.076264e+02
  -7.385879e+02   2.342308e+02
  -1.592438e+02  -5.574323e+01
   2.481926e+02  -1.727927e+01
  -8.348393e+00   3.876077e+02
  -3.113780e+02   4.508905e+02
  -4.875384e+02   4.877449e+01
  -2.908899e+02  -3.609862e+02
   1.721642e+01  -4.617973e+02
   3.381333e+02  -1.359034e+02
   2.849943e+02   6.014224e+01
   3.002865e+01   3.858434e+02
  -3.630796e+02   7.295087e+01
  -2.361438e+02  -3.462065e+02
  -5.150729e+01  -5.052512e+02
   4.183886e+02  -2.129607e+02
   3.353027e+02   9.832618e+01
   2.216298e+01   1.744558e+02
  -1.386190e+02   2.927520e+02
   9.672047e+00   1.445177e+02
   8.339623e+01   2.124088e+01
   1.759263e+02   2.050444e+02
  -8.590901e+01   2.309280e+02
  -3.575851e+02   1.593211e+02
  -2.667423e+02  -7.402527e+01
  -7.717583e+01  -2.222638e+02
   1.974330e+02  -1.224026e+02
   3.945452e+02   1.535848e+02
   7.344913e+01   2.690605e+02
  -2.591112e+02   3.183253e+02
  -2.919065e+02   3.862661e+01
  -1.615692e+02  -1.473177e+02
  -5.064019e+00  -1.626931e+02
   2.862995e+00  -5.695781e+01
  -1.005934e+02   3.044897e+01
  -1.234821e+02   6.884973e+01
  -1.078800e+02  -1.474632e+02
   5.098548e+01  -3.241633e+02
   2.132812e+02  -3.210820e+02
   1.831543e+02  -1.483956e+01
   3.547263e+01   2.398475e+02
  -8.777411e+01   7.905027e+01
  -3.983628e+01  -1.525474e+02
   6.880708e+01  -2.833620e+02
   2.628376e+02  -6.266479e+01
   3.202495e+02   3.208146e+02
   1.244582e+02   3.487620e+02
  -1.938362e+02   2.202779e+02
  -3.606537e+02  -7.885547e+01
  -2.417141e+02  -2.462189e+02
  -2.627282e+01  -1.711955e+02
   1.854513e+02  -6.236625e+01
   1.760626e+02   7.734985e-01
   4.074010e+01   4.868992e+01
  -1.620923e+01  -4.287281e+01
   2.825673e+01  -1.414229e+01
   1.784434e+02   5.641711e+01
   1.146972e+02   9.121544e+01
  -1.191385e+02   1.469690e+02
  -2.118295e+02   1.121005e+02
  -1.811718e+02  -1.533068e+01
   1.981973e+00  -1.963932e+02
   2.119098e+02  -2.518001e+02
   2.281387e+02  -9.807814e+01
   1.491688e+02   1.511117e+02
   4.693222e+01   2.612321e+02
  -5.270196e+01   2.047517e+02
  -4.990544e+01   7.829678e+01
  -7.185608e+01   6.842925e+01
  -1.264577e+02   5.995334e+01
  -1.292994e+02   3.845509e+01
  -1.306794e+02  -6.412083e+01
  -2.590848e+01  -1.785927e+02
   5.617067e+01  -1.325032e+02
   1.383075e+02   2.530925e+01
   6.534385e+01   2.267860e+02
  -4.222564e+01   1.942696e+02
  -1.639418e+02   4.300015e+01
  -2.236305e+02  -9.554280e+01
  -1.069080e+02  -1.972179e+02
   3.317155e+01  -1.859642e+02
   1.222763e+02  -8.686062e+01
   8.771456e+01  -4.608545e+01
   1.105693e+02  -4.083343e+01
   1.755764e+02  -2.291541e+01
   3.032880e+02   7.901727e+01
   1.811786e+02   2.363770e+02
  -1.749582e+01   2.945353e+02
  -2.614150e+02   2.162279e+02
  -3.430684e+02   8.871852e+01
  -2.254946e+02  -9.203253e+01
  -3.397203e+00  -2.257362e+02
   8.161805e+01  -1.345886e+02
   1.920264e+01   1.744766e+01
  -8.263108e+01  -2.157019e+01
  -8.970827e+01  -8.317314e+01
   3.136281e+01  -1.164803e+02
   5.832833e+01  -1.340767e+02
   6.733134e+01   9.456604e+00
  -2.347646e+01   7.590194e+01
  -1.256900e+02   1.602047e+00
  -9.614485e+01  -1.832695e+02
   3.090809e+01  -2.919991e+02
   1.861898e+02  -1.494551e+02
   2.836180e+02   5.467344e+01
   1.819701e+02   1.503041e+02
  -1.934479e+00   1.906438e+02
  -7.926708e+01   1.089778e+02
  -1.317888e+02   4.007675e+01
   2.175867e+01   1.246510e+00
   6.598114e+01   7.340562e+01
  -5.305708e+01   1.123107e+02
  -1.806302e+02   6.537327e+01
  -1.543309e+02  -4.746687e+01
  -4.741813e+00  -6.171442e+01
   3.915292e+01  -2.715063e+01
   3.813620e+01   6.743893e+01
  -9.059324e+01   8.089591e+01
  -1.938338e+02  -1.397539e+01
  -1.813746e+02  -1.043987e+02
   1.362005e+01  -2.121206e+02
   1.690825e+02  -1.584742e+02
   1.896512e+02  -3.918559e+01
   8.310423e+01   9.209780e+01
  -9.174528e+00   1.702664e+01
  -4.140260e+01  -7.563178e+00
   5.627311e+01  -5.106177e+01
   1.468072e+02  -4.468593e+01
   1.361676e+02   9.195858e+01
   8.139981e+01   1.926766e+02
  -7.726829e+01   9.354203e+01
  -1.025490e+02  -3.430978e+01
  -1.683414e+01  -4.279212e+01
  -5.836771e+00   1.248649e+01
  -1.746848e+01   1.480841e+02
  -5.841004e+01   5.946313e+01
  -1.940113e+02   2.601853e+01
  -1.283145e+02  -8.278785e+01
   3.518792e+00  -1.564051e+02
   6.596661e+01  -1.257090e+02
   8.964952e+01   2.016991e+01
   4.438379e+01   3.556829e+01
  -8.810813e+01   5.524978e+01
  -5.236784e+01   3.459953e+01
   2.271406e+01   3.532849e+01
   4.379466e+01   2.387192e+01
  -2.889362e+01   2.849344e+01
  -5.553144e+01   1.111185e+01
  -8.429614e+01  -7.866292e+01
  -2.247131e+01  -1.379429e+02
   9.109282e+01  -1.196855e+02
   1.650542e+02   6.654913e+01
   1.059886e+02   1.206064e+02
   5.613166e+01   1.181753e+02
  -7.206804e+01   4.488929e+01
  -1.108543e+02   2.359291e+01
  -3.636723e+01  -3.090636e+01
  -7.256214e+00  -3.426858e+01
  -3.030694e+01   5.063264e+00
  -1.953310e+01   6.661168e+00
  -2.110103e+01  -6.537839e+01
   2.178732e+01  -8.637117e+01
   1.005972e+02   2.579144e+00
   8.891246e+01   5.181053e+01
   1.284494e+01   9.340620e+01
  -8.911399e+01   1.347868e+02
  -2.062959e+02   9.936715e+00
  -1.090422e+02  -1.499740e+02
   5.324066e+01  -2.066847e+02
   1.442445e+02  -7.143158e+01
   1.504662e+02   1.093784e+02
   1.009565e+02   1.380697e+02
  -1.497561e+01   4.906261e+01
  -7.696013e+01   5.628490e+01
  -5.738275e+00   6.560276e+01
  -8.194506e+01   5.872767e+01
  -1.025759e+02   3.851258e+01
  -1.414483e+02   2.082532e+00
  -9.387197e+01  -1.170721e+02
   1.820360e+01  -2.319444e+02
   1.104824e+02  -1.535350e+02
   1.177400e+02   4.424123e+00
   1.060919e+02   1.158005e+02
   6.214017e+01   1.461275e+02
  -5.481429e+01   8.088043e+01
  -5.940748e+01   9.275560e+00
  -4.531125e+01  -3.232053e+00
   1.990354e+01  -5.546200e+01
  -1.351703e+01  -3.622507e+01
  -4.230507e+01  -3.421753e+01
  -3.054714e+00  -3.456149e+01
   1.001076e+02  -4.224140e+01
   1.431661e+02   2.145363e+01
   7.038946e+01   5.503133e+01
  -4.307058e+01   8.880965e+01
  -8.165737e+01   6.216674e+01
  -1.020855e+02   3.090384e+01
  -3.835621e+01  -6.628165e+01
   4.073207e+01  -5.526999e+01
   3.013300e+01   2.697145e+01
  -2.992311e+01   6.589850e+01
  -2.713214e+01   5.105848e+01
  -3.259769e+01  -3.805810e+01
  -2.527431e+01  -2.504439e+01
  -3.432863e+01  -1.830241e+01
  -3.688943e+01   3.281279e+01
  -6.944271e+01   8.793914e+00
  -4.363350e+01  -5.321292e+01
   7.882836e+00  -1.388583e+02
   1.020665e+02  -8.890485e+01
   1.473131e+02  -4.385271e+01
   1.377913e+02   9.249734e+01
  -3.780793e+01   1.205109e+02
  -1.059501e+02   1.468193e+00
  -7.229455e+01  -5.843302e+01
   1.053028e+01  -2.762218e+00
   1.901221e+01   2.353698e+01
   3.351088e+01   1.585534e+01
  -1.440246e+00   4.653401e+01
  -1.001056e+02  -4.971361e+00
  -8.745712e+01  -6.398526e+01
  -2.159877e+01  -4.536415e+01
   2.699014e+01  -3.455291e+01
  -1.091519e+01   6.179254e+01
  -5.368104e+01   5.662039e+01
  -1.090189e+02   5.597929e+00
  -3.212692e+01  -8.746896e+01
   5.444424e+01  -1.230555e+02
   1.346659e+02  -9.752840e+01
   8.899828e+01   8.262065e+01
  -2.549249e+01   1.355851e+02
  -4.974829e+01   3.328722e+01
  -9.138461e+01  -4.512366e+01
  -3.380582e+01  -8.553853e+01
   1.914960e+01  -6.465823e+01
   5.888556e+01  -3.365386e+01
   3.047483e+01  -5.816342e-02
  -1.620725e+01  -3.708267e+01
  -3.050450e+01  -3.127864e+01
   4.297453e+01  -1.228559e+01
   8.107048e+00   7.092622e+01
   5.487554e-01   7.916270e+01
  -7.994486e+01   1.760069e+01
  -1.244020e+02  -7.568551e+01
  -1.172242e+02  -7.328161e+01
   1.844104e-01  -8.360672e+01
   3.937395e+01  -5.467010e+01
   7.155449e+01   2.629436e+01
   1.312661e+01  -5.041222e+00
  -6.845592e+00  -6.583732e+00
   1.259040e+01   2.026474e+01
   4.692803e+01  -1.385319e+01
   2.562565e+01  -3.244664e+01
  -2.918209e+01  -8.639093e+00
  -4.757123e+01  -3.743127e+01
  -2.648401e+01  -6.910016e+01
   6.361049e+01  -7.858756e+01
   1.586652e+02  -5.915734e+01
   9.016086e+01   3.544170e+01
   8.696726e+00   1.203643e+02
  -4.078509e+01   1.024306e+02
  -4.386029e+01   6.926112e+01
  -7.077992e+01  -3.813114e+01
  -1.111986e+01  -2.717721e+01
  -4.279704e+00   7.967489e+00
   1.624825e+01  -2.934349e+01
  -9.577581e+00  -4.168186e+01
   3.172686e+00  -6.680722e+01
   5.022983e+01  -5.026252e+01
   7.633569e+01  -2.556705e+01
   3.236387e+01   1.136687e+02
  -5.137519e+01   1.151420e+02
  -2.053813e+01  -1.184296e+01
  -5.959635e+01  -8.174162e+01
  -9.805721e+00  -7.415909e+01
   9.241697e+01  -1.012527e+01
   5.416584e+01   3.068288e+01
   1.548814e+01   9.037023e+01
  -3.201580e+01   7.781417e+01
  -2.027531e+01   4.109914e+01
  -1.653334e+01  -9.222137e+00
   5.121746e+01   8.201401e+00
   3.116171e+01   3.252977e+01
  -6.051704e+01   2.992403e+01
  -8.497025e+01   6.838279e+00
  -7.515913e+01  -5.427763e+00
   1.078437e+01  -3.161411e+01
   8.691656e+01  -5.176110e+01
   1.055393e+01   3.861278e+01
  -1.749292e+01   4.143084e+01
  -6.660409e+00   3.983349e+01
  -4.952783e+00  -3.981808e+01
   3.036593e+01  -6.856476e+01
   2.780393e+01  -6.459309e+01
   1.828194e+01   2.883968e+01
   2.093841e+01   5.389500e+01
  -7.082020e+00  -4.108320e+00
  -4.461581e+01   2.612642e+01
  -1.621450e+01   3.997111e+01
   3.184262e+00   5.558918e+01
  -1.011313e+01   4.288916e+01
  -5.519219e+01   2.007640e+01
  -3.836530e+01  -2.570975e+01
   3.243010e+00  -9.174410e+01
   5.501441e+01  -1.576998e+01
   6.178704e+01   3.695348e+01
  -3.132290e+00   3.988275e+01
   1.392533e-01   2.901503e+01
  -1.081333e+02   1.495791e+00
  -1.160084e+02  -8.561536e+01
   4.700175e+00  -4.214649e+01
   4.803944e+01  -1.740865e+01
   5.562551e+00   1.927701e+01
   1.189708e+01   1.422465e+00
   2.183106e+01   1.075254e+01
   4.969238e+01  -2.899088e+01
   5.121988e+01  -1.463596e+01
