
 $NMID
 id='ANONYMOUS ', fmtdat='(2E16.6)'
 volume=1.0
 tramp=1.0
 $END
   3.053790e+03   4.986760e+01
   1.872461e+03   1.691233e+03
  -3.757185e+01   1.924144e+03
  -1.093557e+03   1.209196e+03
  -9.608707e+02   1.748454e+02
  -2.250343e+02  -8.387837e+01
   3.084304e+02   1.164953e+02
   9.784344e-01   6.421500e+02
  -3.110558e+02   6.167776e+02
  -5.743275e+02   1.967763e+02
  -4.473899e+02  -4.172380e+02
  -2.660502e+01  -5.667599e+02
   2.850561e+02  -1.551319e+02
   2.784493e+02   4.586745e+02
   5.062598e+01   4.359636e+02
  -4.157092e+02   2.152023e+02
  -2.354848e+02  -4.862471e+02
   1.359200e+02  -6.287216e+02
   3.219391e+02  -3.139823e+02
   4.276533e+02   4.422928e+01
   7.572417e+01   1.724126e+02
  -1.426526e+02   2.766969e+02
   1.328136e+01   8.325633e+01
   1.762294e+02   6.888266e+01
   2.346833e+02   2.139689e+02
  -6.638995e+01   3.432666e+02
  -4.263319e+02   2.429767e+02
  -6.526878e+02  -2.252099e+02
  -1.319744e+02  -2.718112e+02
   2.643608e+02  -1.429252e+02
   4.503442e+02   2.001217e+02
   1.541392e+02   4.483709e+02
  -2.779170e+02   3.032798e+02
  -4.242812e+02   9.295878e+00
  -2.963828e+02  -9.474838e+01
  -7.339765e+01  -2.946030e+02
  -6.756276e+01  -1.625707e+02
   1.424539e+01   4.845706e+01
  -1.656816e+02   1.472745e+02
  -9.931351e+01  -9.196546e+01
   1.284700e+01  -4.042189e+02
   2.003396e+02  -3.727760e+02
   2.811397e+02   3.491158e+01
   9.740072e+01   3.560467e+02
  -8.427454e+01   1.470818e+02
  -1.793257e+02  -2.889747e+02
   7.243927e+01  -3.319668e+02
   3.936337e+02  -6.331604e+00
   4.353874e+02   3.394361e+02
   1.309597e+02   4.670458e+02
  -2.889075e+02   1.877595e+02
  -4.329308e+02  -4.995866e+01
  -2.984323e+02  -1.527524e+02
   3.794346e+01  -1.951078e+02
   1.852976e+02  -8.592452e+01
   1.568326e+02  -1.741994e+00
   5.597271e+00   1.166427e+01
  -4.698184e+00  -1.904137e+01
   1.548871e+02  -8.418431e+01
   1.939995e+02  -2.022719e+01
   1.195267e+02   1.811642e+02
  -1.392428e+02   2.545775e+02
  -3.051050e+02   1.351861e+02
  -2.236091e+02  -9.964942e+01
  -9.869087e+00  -2.615382e+02
   3.227230e+02  -2.689499e+02
   3.650960e+02  -1.049430e+02
   2.391591e+02   1.161291e+02
   4.204303e+01   3.086048e+02
  -6.171612e+01   3.632089e+02
  -3.551363e+01   2.236138e+02
  -1.061151e+02   1.530601e+02
  -1.847708e+02   1.073093e+02
  -2.225458e+02   3.020955e+01
  -2.282330e+02  -1.409470e+02
  -8.530131e+01  -1.983930e+02
   3.818907e+01  -1.763372e+02
   1.525000e+02   1.961803e+01
   1.955223e+02   2.472203e+02
  -9.437068e+00   2.584317e+02
  -2.206967e+02   1.029166e+02
  -3.359069e+02  -1.447310e+02
  -2.247184e+02  -2.967879e+02
  -1.265279e+01  -2.799625e+02
   1.212409e+02  -1.701561e+02
   1.719892e+02  -8.710501e+01
   1.771588e+02  -2.473750e+01
   2.626340e+02  -1.365043e+01
   3.558731e+02   1.133696e+02
   2.368124e+02   2.829478e+02
  -4.056714e+01   4.222462e+02
  -3.395988e+02   3.731892e+02
  -4.535507e+02   2.022677e+02
  -2.727396e+02  -7.449236e+01
  -5.959786e+01  -2.351577e+02
   1.112689e+02  -2.055319e+02
   1.110432e+01  -4.537126e+01
  -1.219472e+02   5.647761e+01
  -1.515500e+02  -2.034675e+01
  -5.835550e+01  -8.466784e+01
   4.904507e+01  -5.604310e+01
   9.757396e+01  -1.330415e+01
  -3.874818e+01   7.270962e+01
  -1.536402e+02  -6.470284e+01
  -1.690393e+02  -2.085828e+02
   1.860982e+01  -3.203399e+02
   1.973213e+02  -1.786954e+02
   3.909120e+02   3.131085e+01
   2.664368e+02   2.227915e+02
   1.013457e+02   2.345951e+02
  -1.270390e+02   1.620211e+02
  -1.813737e+02   3.866465e+01
   2.633087e+01   4.631210e+00
   6.548196e+01   5.099747e+01
  -3.171817e+01   9.659580e+01
  -1.304227e+02   8.796608e+01
  -1.451640e+02  -4.383222e+01
  -7.187965e+01  -5.661558e+01
   6.312733e+01  -1.086716e+01
   1.051698e+02   6.966540e+01
  -1.240354e+02   6.261011e+01
  -2.422196e+02  -3.633725e+00
  -2.613660e+02  -1.386022e+02
  -4.864292e+01  -1.884760e+02
   2.069212e+02  -1.569326e+02
   2.682599e+02  -9.458870e+01
   1.427835e+02   7.022350e+01
  -6.443946e+01   1.307130e+02
  -5.385870e+01   1.259075e+01
   1.926191e+01  -3.770860e+01
   1.924266e+02  -9.300273e+01
   1.816188e+02   5.779901e+01
   7.607124e+01   1.837254e+02
  -1.553088e+01   1.366524e+02
  -1.301960e+02   2.480963e+01
  -8.404485e+01  -6.197582e+01
   4.943011e+01  -1.435959e+01
   3.720083e+01   1.173206e+02
  -5.842150e+01   7.715108e+01
  -1.584261e+02   8.252995e+01
  -1.990295e+02  -1.344310e+02
  -1.557027e+01  -1.529368e+02
   1.476298e+02  -1.283151e+02
   1.467611e+02   1.424103e+01
   2.005974e+01   8.656259e+01
  -5.914779e+01   7.074376e+01
  -9.282000e+01   3.735643e+01
   1.314163e+01  -4.034837e+01
   6.767385e+01   5.705923e+00
   1.243532e+01  -1.180379e+01
  -1.189867e+01   2.783541e+01
  -1.090425e+02  -4.785064e+01
  -3.667019e+01  -1.654548e+02
   9.695693e+01  -1.144235e+02
   2.323424e+02  -6.372713e+00
   1.970624e+02   1.027891e+02
  -2.333598e-01   1.784512e+02
  -1.045337e+02   1.599849e+02
  -9.877064e+01   1.781817e+01
  -7.429917e+01  -1.019846e+02
  -2.312259e+01  -1.240734e+02
   4.649117e+00  -2.928504e+00
  -1.459866e+01   1.591916e+01
  -4.172478e+01  -6.883699e+00
   5.324762e+01  -5.711921e+01
   1.033728e+02  -1.066582e+01
   6.972067e+01   4.505011e+01
  -2.314169e+01   1.477039e+02
  -1.594918e+02   8.869803e+01
  -1.402929e+02  -8.191011e+01
  -1.307441e+02  -2.336585e+02
   5.182586e+01  -1.914446e+02
   2.465364e+02  -6.835758e+01
   2.641760e+02   6.107622e+01
   6.156922e+01   1.360927e+02
  -3.112727e+01   1.644966e+02
  -8.124310e+01   6.752740e+01
  -1.097320e+02   6.957173e+01
  -8.942893e+01   7.849567e+01
  -6.040238e+01   3.904299e+01
  -9.817612e+01  -1.231679e+01
  -7.029717e+01  -1.221305e+02
   1.556627e+01  -1.928173e+02
   1.176696e+02  -1.019431e+02
   1.546613e+02   1.711544e+01
   1.213679e+02   1.437838e+02
  -1.337849e+00   1.508428e+02
  -5.769715e+01   2.561578e+01
  -6.729472e+01  -9.622868e+00
  -2.319088e+01  -5.517025e+01
   6.405335e+01  -1.076085e+01
  -4.782455e+01   7.488189e-01
  -6.383278e+01  -2.800562e+01
  -4.145131e+01  -1.663458e+01
   8.938351e+01  -5.907027e+01
   1.823179e+02   2.909025e+01
   1.364893e+02   7.346321e+01
  -7.656094e+00   1.370731e+02
  -1.420681e+02   1.196978e+02
  -1.685017e+02   6.179655e+01
  -4.156300e+01  -6.746306e+01
   3.900851e+01  -6.330095e+01
   9.812054e+01   6.330147e+00
   2.358965e+01   6.490630e+01
  -3.222063e+01   7.554430e+01
  -6.999667e+01   4.597926e+01
  -7.896315e+01  -8.101913e+01
  -6.873947e+01  -3.405896e+01
  -3.607599e+01  -6.023822e+00
  -8.466890e+01  -8.040160e+00
  -8.283427e+01  -5.536440e+01
   3.930411e+01  -1.341381e+02
   1.534294e+02  -1.457981e+02
   1.374459e+02  -2.168654e+01
   1.390206e+02   1.138103e+02
  -4.644374e+00   1.669001e+02
  -7.002932e+01   8.414664e+01
  -1.041399e+02   1.866689e+01
   3.619780e+01   5.025594e+00
   1.462572e+02   1.251467e+01
   3.113006e+01   7.705402e+01
  -1.224752e+02   1.070839e+02
  -2.293002e+02   2.553571e+01
  -1.200274e+02  -2.057498e+01
  -3.621002e+01  -1.112582e+02
   6.326877e+01  -6.676568e+01
   5.663849e+01  -4.696966e+00
  -5.111769e+01   1.925586e+01
  -9.416857e+01   6.363775e+00
  -2.102054e+01  -8.309935e+01
   8.364934e+01  -1.313330e+02
   1.635428e+02  -4.650264e+01
   1.237297e+02   6.588599e+01
  -1.737028e+01   1.794217e+02
  -7.945915e+01   1.651670e+02
  -4.322613e+01  -3.837295e+01
  -3.072554e+01  -1.548350e+02
  -1.598143e+01  -8.919550e+01
   6.826997e+01   3.194880e+01
   3.400573e+01   7.138618e+01
   1.405695e+01   4.069496e+01
  -3.275780e+01   4.299728e+00
   4.446297e+01  -2.824070e+01
   6.271324e+01   9.711629e+01
   6.746109e+00   1.476801e+02
  -7.443104e+01   4.385378e+01
  -1.515025e+02  -6.163828e+01
  -1.311901e+02  -7.290036e+01
  -4.178043e+01  -7.299507e+01
   1.281624e+02  -4.599623e+01
   1.324213e+02  -1.309919e+00
   6.373411e+00   8.564276e+00
  -1.118538e+01   3.178852e+01
  -6.324402e+01   6.400337e+00
  -1.031973e+01  -2.751013e+01
  -1.864984e+00  -1.556303e+01
  -5.809210e+01   7.573766e+01
  -5.816397e+01  -8.889307e+00
  -4.502933e+00  -9.414978e+01
   3.197532e+01  -9.224647e+01
   1.371345e+02  -8.392460e+01
   1.470766e+02   5.061034e+01
   7.808383e+00   1.182903e+02
  -6.348497e+01   1.748267e+02
  -4.460644e+01   2.175217e+01
  -4.807388e+01   9.794647e+00
  -3.945310e+01  -6.241949e+01
  -1.644261e+01  -6.060069e+01
   7.334953e+00  -3.051664e+01
  -5.816087e+01  -7.678096e+01
  -6.179428e+01  -9.688781e+01
   2.526113e+01  -8.358224e+01
   6.889153e+01   7.431433e+00
   1.094223e+02   7.493838e+01
   4.639776e+00   1.113671e+02
  -8.868002e+01   1.568088e+01
  -1.240124e+02  -7.333707e+01
  -9.824646e+01  -9.224222e+01
   4.944321e+01  -4.745371e+01
   7.891895e+01   2.856871e+01
   5.353863e+01   2.784966e+01
  -5.593967e+01   5.155731e+00
  -1.644093e+01  -1.306304e+01
   2.827791e+01  -3.173879e+01
   7.491351e+01  -2.128173e+01
   9.031033e+01   2.417765e+01
  -3.111728e+01   8.480911e+01
  -6.865272e+01   3.367504e+01
  -6.893049e+01  -4.558508e+01
   9.935703e+00  -9.089278e+01
   2.511509e+01  -1.221358e+02
   3.578121e+01  -4.478807e+01
   1.991484e+01   5.005298e+01
  -2.362158e+01   5.731537e+01
  -3.908090e+01   7.399717e+00
  -3.560469e+01  -2.245432e+01
  -3.978869e+00  -3.532755e+01
   6.368482e+01   7.188043e+00
   3.425014e+01  -1.666918e+01
  -3.821254e+01   3.470758e+01
  -1.856826e+01  -2.696317e+01
  -2.477897e+01  -9.794068e+00
   1.520105e+01   3.376735e+00
   5.487109e+01   3.262787e+01
  -2.566493e+01  -6.806774e+00
  -7.587994e+00  -2.182678e+01
   2.679668e+01   1.085923e+01
   2.391449e-01  -1.780576e+01
   2.035174e+01   6.868859e+01
  -6.298830e+00   7.359303e+01
  -1.760852e+01   1.676149e+01
  -9.160811e+01  -4.030911e+01
  -7.770908e+01  -4.669754e+01
   7.373954e+00   1.836628e+01
   6.121681e+01  -4.039792e+01
  -1.417695e+00   1.747840e+01
  -6.387743e+01  -5.218869e+01
  -6.954170e+01  -3.995693e+01
   2.950236e+01  -3.646154e-01
   1.122499e+02  -1.564741e+01
