
 $NMID
 id='ANONYMOUS ', fmtdat='(2E16.6)'
 volume=1.0
 tramp=1.0
 $END
   3.134829e+03  -1.476439e+02
   2.372838e+03   1.561740e+03
   2.834502e+02   1.916290e+03
  -1.350213e+03   1.495408e+03
  -1.078036e+03   3.434150e+02
  -3.185252e+02  -8.081082e+01
   1.339015e+02  -1.346778e+02
   5.115068e+00   4.136061e+02
  -3.766150e+02   5.083111e+02
  -5.815638e+02   1.310420e+02
  -4.165439e+02  -4.078460e+02
  -5.311799e+01  -6.030648e+02
   2.075634e+02  -1.486279e+02
   3.134848e+02   3.798901e+02
  -3.809756e+01   5.593171e+02
  -3.352326e+02   1.231230e+02
  -2.383551e+02  -4.990387e+02
   9.048972e+01  -6.294710e+02
   4.988174e+02  -4.386694e+02
   3.613268e+02   1.741460e+00
   1.987850e+02   4.252569e+02
  -7.504417e+00   3.181338e+02
   7.990615e+01   4.832597e+01
   2.547687e+02   8.286446e+01
   3.257427e+02   2.865773e+02
  -1.818466e+01   3.791928e+02
  -4.699879e+02   9.433268e+01
  -6.501168e+02  -1.691169e+02
  -2.174188e+02  -2.797785e+02
   3.408689e+02  -8.393519e+01
   5.865883e+02   1.712236e+02
   1.927662e+02   3.579671e+02
  -3.067021e+02   3.714043e+02
  -4.902693e+02   1.677525e+02
  -3.916573e+02  -1.706938e+02
  -1.265595e+02  -2.992966e+02
  -9.078402e+01  -2.200118e+02
  -1.224699e+02   5.297395e+01
  -1.134011e+02   1.641490e+02
  -3.176987e+01  -9.505387e+01
   4.384784e+01  -4.611901e+02
   1.923792e+02  -4.391156e+02
   2.073842e+02  -2.699490e+01
   1.171230e+02   3.623617e+02
  -9.276785e+01   1.576146e+02
  -1.591499e+02  -2.997035e+02
   9.201931e+01  -3.783889e+02
   4.276757e+02  -7.159480e+01
   5.209164e+02   3.796780e+02
   2.548443e+02   4.529422e+02
  -3.304369e+02   2.457693e+02
  -5.719566e+02  -1.007056e+01
  -3.734516e+02  -2.293350e+02
   1.563697e+01  -1.728124e+02
   2.756327e+02  -1.015091e+02
   2.037096e+02  -8.406672e+01
   6.002048e+01   1.327855e-01
   1.017076e+01   1.205197e+01
   5.881806e+01  -1.980180e+01
   2.193930e+02   2.809461e+01
   9.860241e+01   1.716804e+02
  -1.717695e+02   3.049424e+02
  -3.699154e+02   1.465472e+02
  -3.365869e+02  -1.638265e+02
  -2.563712e+01  -3.721409e+02
   3.145816e+02  -4.742928e+02
   4.370900e+02  -2.521418e+02
   2.848504e+02   1.350255e+02
   7.595767e+01   3.887533e+02
   5.846221e+01   3.798633e+02
   4.704364e+01   2.398585e+02
  -4.261523e+01   1.546170e+02
  -2.283569e+02   1.047590e+02
  -3.115582e+02   3.562320e+01
  -2.098215e+02  -1.013353e+02
  -8.179309e+01  -2.669432e+02
   1.379604e+02  -2.223891e+02
   2.178996e+02   5.625852e+01
   1.451679e+02   3.411072e+02
  -6.050942e+01   2.961300e+02
  -2.649974e+02   4.252306e+01
  -3.724946e+02  -1.681933e+02
  -2.104591e+02  -2.864265e+02
   3.533780e+00  -2.524422e+02
   1.536787e+02  -2.141635e+02
   1.853876e+02  -1.560322e+02
   2.305355e+02  -1.221449e+02
   3.606636e+02   5.021837e+00
   4.540305e+02   1.166546e+02
   3.269164e+02   2.873180e+02
  -3.160464e+00   4.835941e+02
  -4.274060e+02   4.474810e+02
  -4.978827e+02   2.174783e+02
  -3.354868e+02  -7.901253e+01
  -1.170958e+01  -2.588034e+02
   5.938249e+01  -1.751514e+02
  -2.077170e+01  -5.237573e+01
  -1.384166e+02   5.489857e+01
  -1.297775e+02  -3.547841e+01
   1.556754e+01  -5.216400e+01
   1.140713e+02  -9.343157e+01
   5.927952e+01   2.695428e+01
  -1.013914e+02   1.142159e+02
  -1.592933e+02  -1.666850e+01
  -1.804904e+02  -1.945670e+02
  -3.100237e+01  -3.827282e+02
   2.411897e+02  -2.694229e+02
   3.743837e+02   4.066165e+01
   2.843686e+02   2.702584e+02
   8.432173e+01   2.874468e+02
  -1.231625e+02   1.577824e+02
  -1.517966e+02   1.698517e+01
  -4.125273e+01  -1.655164e+00
   4.642871e+01   5.506652e+01
  -1.027106e+01   1.316049e+02
  -1.908769e+02   5.414289e+01
  -1.203374e+02   5.219561e+00
  -1.033596e+01  -5.951858e+01
   6.875762e+01   1.252188e+01
  -1.024596e+01   5.133968e+01
  -2.054863e+02   7.085736e+01
  -3.448256e+02  -4.591307e+01
  -2.700239e+02  -2.310185e+02
  -4.591908e+00  -3.323964e+02
   2.365176e+02  -2.691054e+02
   3.056486e+02  -9.944985e+01
   1.835543e+02   1.715931e+01
  -7.223203e+00   7.027446e+01
  -3.631422e+01   8.764547e+00
   8.590439e+01  -8.744954e+01
   1.795947e+02   2.094021e+01
   1.927504e+02   1.595955e+02
   8.906226e+01   1.943212e+02
  -3.041699e+01   9.086918e+01
  -1.475022e+02   5.087465e+01
  -2.430984e+01   4.819719e+00
   2.741554e+01   9.774950e+01
   4.387585e+01   1.252420e+02
  -1.378687e+02   1.394714e+02
  -2.538189e+02   1.428505e+01
  -1.925986e+02  -2.258606e+02
  -9.792110e+00  -2.521232e+02
   1.655625e+02  -1.655217e+02
   1.550903e+02  -7.355087e+00
   1.098617e+02   9.838966e+01
  -5.335825e+01   6.920449e+01
  -7.061656e+01  -1.931109e+01
  -1.908722e+01   1.049507e+01
   3.563132e+01   5.000716e+00
  -3.849456e+00   2.084323e+01
  -1.046554e+02  -1.835363e+01
  -1.320066e+02  -1.120013e+02
  -4.444649e+00  -2.203301e+02
   1.516953e+02  -1.061389e+02
   3.036852e+02   6.396643e+00
   2.401190e+02   2.143069e+02
   6.054006e+00   2.304789e+02
  -1.096049e+02   1.847710e+02
  -1.322171e+02   2.612771e+01
  -5.683812e+01  -6.159535e+01
  -6.093091e+01  -5.728945e+01
  -1.031554e+01   1.379448e+01
  -1.204411e+02   2.746153e+01
  -7.162702e+01  -9.192529e+01
   3.533021e+01  -6.695684e+01
   1.496129e+02  -1.099403e+02
   1.327832e+02   5.467872e+01
  -7.232832e+01   1.322711e+02
  -1.863765e+02   1.116456e+02
  -2.717449e+02  -9.480279e+01
  -8.139975e+01  -2.897839e+02
   1.107422e+02  -2.801125e+02
   3.085681e+02  -1.093873e+02
   2.434134e+02   8.784963e+01
   1.382906e+02   1.494645e+02
  -3.581563e+01   1.349116e+02
  -9.897616e+01   1.050289e+02
  -5.928750e+01   8.886293e+01
  -1.022559e+02   1.271551e+02
  -1.076248e+02   1.034368e+02
  -1.038225e+02   2.609987e+01
  -1.301108e+02  -1.450895e+02
  -3.764998e+01  -2.480459e+02
   8.041265e+01  -1.600128e+02
   1.703651e+02   3.757193e+01
   1.668514e+02   1.162660e+02
  -6.615427e+01   1.297754e+02
  -1.127927e+02   7.392353e+01
  -8.067494e+01  -6.184442e+01
   5.964950e+00  -7.203317e+01
   1.543691e+01  -4.474237e+01
  -6.524560e+01   9.887935e+00
  -8.810005e+01  -8.628664e+01
  -4.941061e+01  -6.063028e+01
   8.733124e+01  -6.679374e+01
   1.611346e+02   2.168367e+01
   1.692161e+02   1.016236e+02
   8.897723e+00   1.098257e+02
  -1.411820e+02   8.065957e+01
  -1.803569e+02  -3.038871e+01
  -7.012723e+01  -5.294915e+01
   9.682446e+01  -1.261990e+01
   9.227447e+01  -2.152534e+01
   6.594044e+01   1.148942e+02
  -7.650493e+01   5.396212e+01
  -9.306258e+01   2.663658e+01
  -1.717637e+01  -2.246674e+01
  -5.078560e+01  -5.548403e+01
  -2.747402e+01   9.432091e+00
  -1.221040e+02   2.296512e+01
  -5.486985e+01  -5.711797e+01
   3.517267e+01  -1.124772e+02
   1.386900e+02  -2.007727e+02
   1.862005e+02  -4.995279e+01
   1.062768e+02   1.357699e+02
  -2.540289e+01   1.365546e+02
  -1.266998e+02   7.085608e+01
  -4.406892e+01  -2.703827e+01
   3.597661e+01  -6.821561e+01
   1.261568e+02   2.336243e+01
   5.237631e+01   9.761442e+01
  -8.842380e+01   6.456912e+01
  -1.526853e+02   1.977445e+01
  -1.406882e+02  -6.794799e+01
  -7.562299e-01  -6.758583e+01
   8.046808e+01  -5.364297e+01
   2.351762e+01   6.653145e+01
  -3.411928e+01   5.273799e+01
  -1.155266e+02  -2.780025e+01
  -8.232293e+01  -1.684720e+02
   6.929461e+01  -1.615151e+02
   1.428894e+02  -6.514009e+01
   1.513467e+02   8.939480e+01
   4.565615e+01   2.030287e+02
  -1.145316e+02   1.184348e+02
  -8.282716e+01   7.135637e+00
  -1.922303e+01  -8.346734e+01
   6.575831e+01  -7.647491e+01
   1.175427e+02  -1.947635e+01
   2.389252e+01   2.491068e+01
  -3.848157e+01  -4.792531e+01
  -1.385164e+01   3.633175e+00
  -1.733984e+01   1.133171e+01
   1.069167e+02   7.867590e+01
   4.345324e+01   9.144659e+01
  -4.070608e+01   2.191554e+01
  -1.710360e+02  -4.096250e+01
  -9.502756e+01  -7.520801e+01
  -3.406256e+01  -5.464751e+01
   8.723033e+01  -4.593212e+00
   6.281417e+01   1.926809e+01
   2.605013e+01   1.915061e+01
  -1.053454e+01   3.463120e+00
   4.128051e+01  -1.772144e+01
   5.663477e+01  -4.033372e+01
   1.948363e+00  -3.267423e+01
  -6.029070e+01   3.300793e+00
  -7.972339e+01  -5.231358e+00
  -4.260119e+01  -6.434339e+01
   8.082614e+01  -1.701980e+02
   2.051898e+02  -8.781064e+01
   1.606709e+02   3.236026e+01
   9.032330e+01   1.825691e+02
  -8.355855e+01   1.809561e+02
  -1.306694e+02   7.548264e+01
  -1.015530e+02  -2.538482e+01
  -2.308309e+01  -4.806015e+01
  -2.605543e+01  -8.806052e+00
  -7.246862e+00  -7.785011e+00
  -9.561186e+01  -1.044386e+01
  -4.371422e+01  -3.309540e+01
   7.189268e-01  -4.426142e+01
   6.567372e+01   1.414216e+01
   6.421612e+01   1.073549e+02
   8.581189e+00   1.150974e+02
  -8.024913e+01   6.760575e+01
  -1.041859e+02  -6.067890e+01
  -7.796707e+01  -1.401622e+02
   5.137149e+00  -8.647171e+01
   1.572001e+02  -1.482195e+01
   5.270267e+01   8.828297e+01
  -4.823708e+01   6.050516e+01
  -2.175181e+01   2.004099e+01
  -1.406229e+01   1.840217e+01
   5.099755e+01  -1.157303e+01
   5.106158e+01   5.049571e+01
  -7.729573e+01   1.017474e+02
  -5.487022e+01   6.072721e+01
  -1.107216e+02   3.166139e+00
   5.654546e+00  -1.072672e+02
   8.023300e+01  -3.335624e+01
   2.835250e+01   2.028574e+00
   2.197902e+01   8.519912e+01
  -3.182092e+01   6.478951e+01
  -1.535662e+01  -4.925928e+01
  -8.907046e+01  -1.548066e+01
   1.263893e+01  -6.061673e+01
   4.345084e+01   1.636234e+01
  -2.895477e+00   8.702138e+00
   1.270088e+01  -1.543258e+01
  -6.858837e+00  -4.660902e+01
  -2.822379e+01  -1.985594e+01
   9.756302e+00  -1.713062e+01
  -6.884553e+00   6.310173e+01
  -4.830534e+01   4.084066e+01
  -5.516406e+01  -8.158188e+00
  -3.268158e+01  -1.253483e+02
   6.601854e+01  -7.074454e+01
   5.188856e+01   4.382760e+01
   6.381517e+01   3.243857e+01
  -5.505288e+01   5.835700e+00
  -1.488031e+02   2.039102e+01
  -4.032642e+01  -3.859452e+01
   4.768592e+01  -3.977874e+01
   5.466402e+01  -5.480256e+01
   1.437663e+01   1.755228e+01
   7.084813e+00  -1.421362e+01
  -3.897978e+01  -5.251691e+01
   4.728369e+01  -6.519918e+01
   4.746712e+01  -2.873515e+01
