
 $NMID
 id='ANONYMOUS ', fmtdat='(2E16.6)'
 volume=1.0
 tramp=1.0
 $END
  -9.401538e+02   5.374267e+01
  -6.232006e+02  -1.809431e+02
   5.298214e+01  -4.176907e+02
   4.191032e+02  -3.676081e+02
   2.211907e+02  -1.374164e+02
   1.206593e+01  -2.431319e+01
  -1.123512e+02   1.474740e+01
   3.255569e+01  -1.694482e+02
   1.735720e+02  -1.524884e+02
   1.536966e+02  -4.982152e+01
   1.117658e+02   6.718074e+01
  -4.693564e+01   6.820751e+01
  -9.973824e+01  -2.279978e+01
  -2.821134e+01  -1.643668e+02
   1.086232e+02  -1.022781e+02
   2.225504e+02  -5.752986e+01
   1.302958e+02   2.007134e+01
  -1.213835e+02   7.929767e+01
  -1.894169e+01   1.308704e+02
  -1.226906e+02  -1.226874e+02
   6.658082e+01  -8.620414e+01
   7.749316e+01  -6.451595e+01
   1.180526e+02  -2.293835e+01
  -4.673891e+01  -5.133806e+01
  -5.977103e+00  -1.090878e+02
  -2.393975e+01  -4.010948e+01
   2.623373e+02  -2.925672e+01
   2.323859e+02   4.324346e+01
  -1.227048e+01   1.198216e+02
  -4.805148e+01   3.880172e+01
  -1.881201e+02  -1.106205e+02
  -8.757722e+01  -7.837124e+01
   8.054664e+01  -1.585176e+02
   1.608135e+02  -1.181127e+01
   1.151742e+02   8.800687e+01
  -2.953909e+01   5.632731e+01
   1.324260e+01   5.196119e+01
   1.414281e+02  -3.481197e+01
   7.326194e+01  -6.844511e+01
   3.690639e+01   9.651095e+01
  -6.925181e+00   1.911035e+02
  -3.637688e+00   8.625402e+01
  -8.762687e+01  -1.928637e+01
  -2.462360e+01  -7.265829e+01
   1.726546e+01   1.015335e+01
   5.279030e+01   7.524709e+01
  -5.781181e+01   1.230375e+02
  -1.074272e+02  -3.260438e+01
  -1.234593e+02  -1.209224e+02
  -7.032882e+01  -1.195844e+02
   7.216356e+01  -5.626478e+01
   1.188551e+02   1.668571e+01
   1.082232e+02   3.860018e+01
  -7.950773e+00   3.267207e+01
  -6.944200e+01   1.020945e+01
   1.361701e+01   5.740166e+01
  -2.462704e-01   2.297271e+01
  -7.435755e+01  -3.559934e+01
  -1.265608e+02  -1.565328e+01
  -5.582939e+01  -2.648448e+01
   1.088355e+01  -4.732540e+01
   4.582028e+01  -8.006568e+01
   7.365151e+01  -7.390648e+01
   3.389056e+01   1.798347e+01
   3.658835e+01   6.600999e+01
   1.684561e+00   9.211613e+01
  -7.147504e+01   5.205252e+01
  -4.118029e+01  -1.696927e+01
  -5.795317e+01  -1.094855e+02
   1.650836e+01  -6.348211e+01
  -3.847779e+01   6.571140e+00
   3.829630e+01  -4.553011e+01
   5.326584e+01  -7.512751e+01
   8.696689e+01  -2.531810e+01
   6.110702e+01   5.385150e+01
   5.046810e+00   5.845165e+01
  -1.565552e+00   5.723627e+01
  -5.417567e+01  -4.165176e+01
  -3.783751e+01  -4.463294e+01
   6.880074e+01  -9.549379e+01
   1.004718e+02   2.324902e+01
   6.284681e+01   5.708727e+01
   1.723104e+01   1.066647e+02
   8.617608e+00   6.753710e+01
  -4.773709e+01   4.658938e+01
  -6.916501e+01   1.272741e+01
  -2.527301e+01  -2.346202e+01
  -9.578560e+01  -2.099961e+01
  -1.088735e+02   2.786389e-01
  -1.350656e+02  -2.799778e+01
   2.056834e+01  -7.501205e+01
   1.070392e+02  -1.264768e+02
   1.210442e+02  -4.046560e+01
   5.312604e+01   1.711332e+01
  -1.030285e+01   6.408239e+01
  -1.059666e+01   7.117406e+01
  -2.479301e+01  -1.850129e+01
   6.382448e+01  -3.623972e+01
   7.875447e+01   2.003761e+01
  -1.348407e+01   2.987956e+01
  -2.321105e+01   2.020128e+01
  -4.205593e+01  -2.885296e+01
   1.018342e+01  -4.302406e+01
   5.159397e+01   1.020020e+00
   6.370155e+00   7.307611e+01
  -2.906938e+01   8.308563e+01
  -5.302754e+01   4.259607e+01
  -9.488339e+01  -4.996249e+01
  -6.213184e+01  -8.176371e+01
   3.583340e+00  -6.676715e+01
   9.380062e+01  -5.006107e+01
   3.398433e+01   2.806909e+01
   1.630274e+01   2.608816e+01
  -4.095637e+00   3.686059e+00
   2.942552e+01  -2.427803e+01
   1.222082e+01   3.296159e+01
   2.111427e+00  -2.307399e+00
   1.578218e+01   5.930541e+01
  -6.435738e+01  -7.949923e-01
  -2.126751e+01  -3.549887e+01
   5.240682e+01  -7.620192e+01
   1.066923e+02  -7.669690e+00
   1.022539e+02   5.510834e+00
   2.000121e+01   4.377322e+01
  -4.220073e+01   2.893044e+01
  -7.132185e+01   2.056606e+01
  -9.760453e+01  -3.554798e+01
   4.171795e+01  -1.431661e+01
   1.255309e+01  -2.529861e+01
   5.527832e+01   1.916812e+01
  -4.876519e+01  -1.988669e+01
  -5.633099e+01  -5.876512e+01
   7.977828e+00  -4.909714e+01
   2.837775e+01  -4.208750e+01
   2.983525e+01   3.893509e+01
   3.855663e+00   4.732041e+01
   1.505830e+01   9.779978e-01
  -1.565755e+01  -6.967781e+01
   5.093326e+01  -7.699270e+01
   5.115440e+01  -1.707376e+01
   6.417805e+01  -1.039009e+01
   1.776878e+01   5.630147e+01
   1.848449e+01   5.042014e+01
  -4.551610e+01  -4.839503e+01
   1.594553e+01  -8.149972e+00
   4.377035e+01  -2.917649e+01
  -9.884847e+00   2.509839e+01
  -6.396945e+00  -1.081355e+00
  -1.264593e+01  -2.623801e+01
  -3.359699e+01   9.037646e+00
   2.374082e+01   1.193407e+00
   8.967986e+01   4.023866e+00
   1.853188e+01   4.525689e+01
  -7.967113e+00   4.666082e+01
  -7.975462e+01  -1.995233e+01
  -4.140241e+01  -4.471223e+01
   1.458260e+01  -5.482317e+01
   5.587000e+01  -8.539859e+01
   7.933617e+01  -9.073943e+00
   4.428948e+01   1.722865e+01
   3.172557e+01   5.516138e+01
   3.983130e+01  -3.770099e+01
   4.087176e+01   4.319287e-01
   4.388809e+01   2.932066e+01
  -5.816572e+01   5.455195e+01
   3.195362e+01   4.531809e+00
  -2.831926e+01   7.848863e+00
   1.943417e+00   1.814277e+01
   1.698234e+01  -1.504276e+01
   5.727635e+01   2.115323e+01
   6.043260e+01   4.677661e+01
  -1.129504e+01   5.399664e+01
  -8.184225e+00   1.744227e+01
  -4.435882e+01  -6.616834e+00
  -3.229186e+01  -4.933760e+01
   5.508270e+01  -3.807936e+01
   4.064668e+01   1.826174e+01
  -1.713402e+01   4.051080e+00
   9.805274e+00  -1.066834e+01
   1.271562e+01  -4.287455e+00
  -1.589217e+01   2.067259e+01
   5.805989e+01   4.811133e+01
  -2.056157e+01   3.588577e+01
  -6.049983e+01   2.900281e+01
   5.740917e-01   2.370970e+01
  -2.151087e+01  -3.896128e+01
   1.230984e+01  -1.846182e+01
   3.793236e+01   7.302376e+00
   2.003201e+01   1.371186e+00
   9.834532e+00   1.914100e+01
  -5.395582e+00   5.962668e-01
  -9.127483e+00   2.353326e+01
   4.429182e+01   3.688373e+01
   3.235396e+01   6.037262e+00
  -4.673571e+01   3.786620e+01
  -6.086607e+01   9.092263e+00
  -2.367805e+01  -5.603761e+01
   1.605703e+01  -5.628327e+01
   6.497372e+01   2.801959e+00
   2.208377e+01   3.519136e+01
   8.718942e+00   1.100770e+01
   4.212731e+01   5.068857e+01
  -5.349146e+01  -5.308965e+01
  -1.338561e+01  -4.636474e+00
  -7.059566e+00   2.158191e+00
   4.894274e+01   1.851864e+01
   1.655590e+01   3.816432e+01
   3.845659e+00   3.705340e+01
   9.320376e-02   2.899879e+01
   3.083454e+01   9.952586e+00
   1.833957e+01   5.025962e+00
   1.926397e+00   5.870044e+01
  -4.259828e+01   3.214158e+01
  -4.350819e+01   3.359660e+01
  -1.045086e+01   2.253139e+01
  -1.527554e+01  -3.331488e+01
   1.311026e+01  -2.703812e+01
   1.893668e+01   1.360683e+01
  -1.721609e+01   5.502179e+01
   4.015796e+00  -2.432626e+01
  -3.571162e+01  -3.448428e+01
  -3.175924e+01  -1.392171e+01
   5.546403e+01  -5.898332e+01
   6.128587e+00   3.385564e-01
   2.579363e+01   4.330212e+01
  -5.227784e+01   1.095211e+01
  -2.235498e+01   4.774603e+00
  -5.776240e+00   4.509573e+00
   2.537949e+01  -1.751062e+01
   3.413381e+01   7.077183e+00
   2.110925e+00   2.592174e+01
  -4.276594e+01   6.434514e+01
   9.661323e+00  -2.271630e+01
  -1.190927e+01  -7.413344e+01
   1.044836e+01  -3.011603e+01
   4.431903e+01  -1.773229e+01
   1.472808e+01   3.811461e+01
   2.666686e+01   8.515672e+01
  -4.347214e+01   2.038219e+00
  -2.071326e+01  -7.893751e+00
   2.434654e+01  -7.131427e+01
  -8.671148e-01  -1.707878e+01
  -2.105488e+00   1.344426e+01
  -3.163502e+01  -5.475463e+01
  -4.256133e+00  -3.072971e+01
   3.395975e+01  -9.884569e+00
  -4.697736e+00   3.393391e+01
   1.720956e+01   3.415900e+01
  -9.093616e+00   3.498529e+01
  -5.958923e+01   4.481794e+01
  -5.300185e+01   1.943013e+01
   1.456942e+01  -1.043428e+00
  -4.320067e+01  -3.250355e+01
  -8.750823e+00  -1.288573e+01
   4.032227e+01   1.004521e+01
  -1.947224e+01  -1.654678e+01
   2.833504e+01   7.164310e+00
   2.318036e+01  -1.940485e+00
   2.714611e+01   3.692317e+01
  -3.376403e+01   2.757812e+01
  -7.052955e+01   1.681814e+01
  -5.386280e+01  -4.061203e+00
  -1.482716e+01  -2.471394e+01
   2.542308e+01  -6.771411e+01
   4.985545e+01   2.765083e+00
   6.287929e+01   8.867303e+00
  -1.589207e+01   3.394895e-01
  -1.015517e+01   2.359992e+01
  -4.383564e+00  -3.114360e+00
   1.497201e+01   2.740288e+01
   2.780954e+01   3.706787e+01
   1.682646e+01   2.158745e+01
  -9.178301e+00  -3.040929e+01
  -8.453745e+00  -2.195173e+01
  -3.719211e+01  -3.419019e+01
  -3.704551e+00   9.473813e+00
   2.068986e+01   3.653297e+00
   3.466904e+01   1.633680e+01
   3.036566e+01  -7.690553e+00
  -3.202339e+01   6.896865e+00
  -9.392818e+00  -1.505372e+01
  -1.265301e+01  -5.009099e+01
   2.201773e+01  -3.175975e+01
   4.749696e+01  -5.122764e+01
  -1.365444e+01  -2.464745e+01
   1.537898e+01   3.171696e+01
   1.113406e+01  -1.339591e+01
   8.352565e+00  -3.775383e+01
   2.058695e+01  -1.293885e+00
   7.774985e+00   4.253218e+01
  -4.025621e+01   4.464355e+01
  -2.773369e+01  -2.009335e+00
  -3.024009e+01  -4.540106e+01
  -3.602608e+01   1.910073e+01
  -6.798594e-01  -1.646196e-01
   4.915842e+01   4.333689e+01
   2.742892e+01   2.101593e+00
   2.961605e+01   7.341235e+00
   4.243328e+00  -1.311987e+01
   4.122024e+01  -7.512447e+00
  -8.578474e+00   4.663779e+00
   3.180296e+01  -1.107592e+01
   3.361228e+01   2.380813e+01
  -9.298622e+00   1.416007e+01
  -8.895308e+00  -2.929008e+01
  -5.428115e+00  -2.705861e+01
  -5.792967e+00   1.499256e+01
  -2.109633e+01   2.835052e+01
  -3.513571e+00   8.133244e+00
   2.804901e+01   3.103192e+01
   1.065047e+01  -2.109469e+01
   5.230739e+01  -3.169041e+01
   3.476829e+00   1.865687e+01
   1.458931e+01  -9.896815e+00
   2.557680e+01   2.125688e+01
  -1.239998e+01   2.307916e+01
   6.484946e+00   8.038225e-01
  -3.369324e+01  -4.358314e+01
  -1.710199e+01  -1.156961e+01
   2.356531e+01   6.565949e+00
