
 $NMID
 id='ANONYMOUS ', fmtdat='(2E16.6)'
 volume=1.0
 tramp=1.0
 $END
   1.270343e+03  -1.245493e+02
   1.088548e+03   7.789479e+02
   9.454493e+01   1.071461e+03
  -6.344249e+02   6.957322e+02
  -5.518943e+02   1.482690e+02
  -5.694023e+01  -1.155111e+02
   2.309005e+02   1.411683e+02
  -1.050492e+01   2.965749e+02
  -2.824588e+02   2.128929e+02
  -3.319940e+02   8.856449e+01
  -2.189142e+02  -1.988829e+02
   2.190115e+01  -3.490783e+02
   2.515408e+02  -1.651291e+02
   1.516910e+02   2.150000e+02
  -7.545850e+01   2.309290e+02
  -1.330732e+02  -1.913128e+01
  -1.741066e+02  -2.306909e+02
   1.163851e+02  -4.184183e+02
   2.793733e+02  -1.025311e+02
   2.458456e+02   4.845730e+01
   1.593033e+02   2.168506e+02
   1.980378e+01   2.001778e+02
  -7.662741e+01   5.421747e+00
   1.225938e+02   5.603436e+01
   8.606692e+01   1.157968e+02
   2.743897e+01   1.205289e+02
  -1.709177e+02   3.032052e+01
  -2.148591e+02  -1.090684e+02
  -5.022186e+00  -1.415238e+02
   1.096508e+02  -8.542474e+01
   1.890175e+02   6.329089e+01
   4.686957e+01   1.767894e+02
  -1.000722e+02   1.455778e+02
  -1.897670e+02   1.958254e+01
  -1.818261e+02  -5.418626e+01
  -5.887953e+01  -9.603483e+01
  -6.761875e+01  -2.105506e+01
  -7.787179e+01   3.458239e+01
  -5.063787e+01  -3.518282e+01
  -5.074908e+01  -1.773004e+02
   5.095148e+01  -2.421980e+02
   1.070478e+02  -1.432418e+02
   1.575283e+02  -1.938313e+01
   9.902577e+01   1.265484e+02
  -2.720778e+01   3.975225e+01
  -6.337079e+01  -1.184417e+02
   1.093202e+02  -1.059016e+02
   2.397637e+02   8.719845e+00
   2.157988e+02   2.123695e+02
   6.320971e+01   2.775166e+02
  -1.857922e+02   1.445190e+02
  -2.883338e+02  -3.271044e+01
  -1.591466e+02  -1.351684e+02
   2.265376e+01  -1.401183e+02
   1.523958e+02  -3.394122e+01
   1.154131e+02   2.146708e+01
   6.260356e+00   1.393694e+01
  -4.277803e+01  -1.561247e+01
   1.266848e+01  -1.542616e+01
   1.431741e+02   3.057980e+01
   1.001251e+02   1.236841e+02
  -6.169428e+01   1.508151e+02
  -2.275241e+02   9.014169e+01
  -1.710799e+02  -3.201101e+01
  -2.966184e+01  -1.290459e+02
   1.512342e+02  -1.999165e+02
   2.069035e+02  -8.525115e+01
   6.804991e+01   6.031229e+01
   1.443242e+01   1.581134e+02
   1.561547e+01   1.700076e+02
   6.267054e+00   1.125010e+02
  -2.817545e+01   6.709968e+01
  -8.513463e+01   4.383988e+01
  -1.244274e+02   2.958268e+00
  -1.445132e+02   4.879573e+00
  -7.217959e+01  -1.024795e+02
   3.097807e+01  -1.344710e+02
   9.818006e+01  -3.749896e+01
   5.354678e+01   1.130670e+02
  -3.965837e+00   1.011313e+02
  -1.085420e+02   1.016456e+02
  -1.769539e+02  -7.265840e+01
  -7.636896e+01  -1.422469e+02
   3.401120e+01  -1.535946e+02
   2.722899e+01  -1.272684e+02
   5.607360e+01  -8.790192e+01
   8.117674e+01  -7.718160e+01
   1.497394e+02  -1.398500e+01
   2.141562e+02   6.513922e+01
   1.791934e+02   9.972219e+01
  -1.695871e+00   2.110887e+02
  -2.143827e+02   1.842414e+02
  -2.184895e+02   5.474639e+01
  -1.637756e+02  -7.312475e+01
  -1.801234e+01  -1.885242e+02
   2.471448e+01  -1.204376e+02
   5.736467e+01  -1.459195e+01
  -6.286514e+01   3.613655e+00
  -8.571231e+01  -5.027320e+01
   2.289933e+01  -5.711589e+01
   6.464673e+01  -1.684147e+01
   7.579955e+01   9.653317e+00
   3.035344e+00   3.092530e+01
  -1.387812e+02  -2.548184e+01
  -1.340007e+02  -1.162775e+02
  -7.748596e+00  -1.932270e+02
   1.200537e+02  -1.146734e+02
   1.982235e+02   3.839794e+01
   1.861970e+02   1.355209e+02
   3.749883e+01   1.559565e+02
  -4.554592e+01   7.245084e+01
  -1.030580e+02   2.323519e+01
  -2.560115e+01  -2.616673e+01
   3.059252e+01   5.776372e+01
  -4.460341e+01   1.402851e+02
  -7.401923e+01   5.022422e+01
  -1.043549e+02  -5.169155e+01
  -4.818708e+01  -1.998846e+01
   7.668530e+01  -2.216786e+01
   4.262384e+01   3.388847e+01
  -3.320649e+01   1.860843e+01
  -1.474528e+02   2.157701e+01
  -1.402542e+02  -8.181292e+01
  -4.638206e+01  -9.308111e+01
   7.887400e+01  -5.257904e+01
   1.510369e+02  -6.079686e+01
   1.125679e+02   4.105513e+01
  -4.335927e+01   3.913952e+01
   1.954708e+01  -4.097425e+01
   5.939235e+01  -4.369408e+01
   1.074671e+02   2.680333e+01
   1.084328e+02   9.510140e+01
   1.226693e+01   1.034725e+02
  -7.365444e+01   7.924147e+01
  -8.038866e+01   1.799719e+01
   4.409989e+00  -3.332066e+01
   3.952788e+01  -3.496069e+01
   4.216667e+00   1.618871e+01
  -2.680141e+01   4.231780e+01
  -1.272192e+02   1.613453e+01
  -8.836668e+01  -6.055835e+01
  -6.118397e+00  -1.317558e+02
   1.584453e+01  -1.316497e+02
   6.245179e+01  -1.534281e+01
   2.367778e+01   7.718476e+01
  -5.061939e+01   6.203718e+01
  -5.115311e+01  -4.654841e+01
   2.849729e+00  -3.536110e+01
   1.293318e+01  -8.819287e+00
   3.615311e+01  -6.805101e+00
  -2.112803e+01   3.740937e+01
  -7.220770e+00  -2.403590e+01
  -2.597533e+01  -1.029111e+02
   1.106607e+02  -9.651571e+01
   1.129430e+02   8.849807e+00
   9.394116e+01   6.519234e+01
   1.544915e+01   1.384232e+02
  -8.516412e+01   1.048832e+02
  -5.605521e+01   1.018346e+01
  -4.835351e+01  -4.560520e+01
  -2.308941e+01   2.505503e+01
  -1.568265e+01  -1.094573e+01
  -3.475367e+01   3.155507e+01
  -3.509008e+01   3.304558e+01
  -1.564848e+01  -8.107546e+01
   1.359382e+02  -7.343276e+01
   2.171908e+01   3.626478e+01
  -2.263045e+00   3.187875e+01
  -6.261595e+01   5.682832e+01
  -1.451955e+02  -7.188032e+01
  -5.417570e+01  -1.632686e+02
   7.497044e+01  -1.142457e+02
   1.332107e+02  -2.411975e+01
   1.343123e+02  -2.185999e+01
   7.309090e+01   1.080916e+02
  -6.560262e+01   5.376506e+01
  -4.318520e+01   5.076310e+01
   3.518599e+01   6.049975e+01
  -3.172048e+01   4.790390e+01
  -4.477288e+01   3.642447e+01
  -4.998002e+01   9.501237e+00
  -5.682220e+01  -1.317278e+02
  -1.409395e-01  -1.528416e+02
   6.534215e+01  -3.486755e+01
   1.167803e+02   3.006510e+01
   1.146593e+02   8.840157e+01
   1.017545e+01   6.955357e+01
  -8.050270e+01   2.426858e+01
  -4.053909e+01   6.193795e+00
  -1.902089e+01  -4.688874e+01
   7.100573e+00  -6.217120e+00
  -4.904941e+01   8.092952e+00
  -3.081773e+01  -1.869487e+01
  -3.349424e+01  -4.600399e+00
   4.424006e+01  -3.932599e+01
   6.455076e+01  -4.225890e+00
   5.524672e+01   3.498259e+01
  -5.072205e+00   2.887023e+01
  -8.093572e+01   1.635398e+01
  -1.065406e+02   9.049252e+00
  -4.100909e+01   5.729301e-01
   3.140609e+01   7.852816e+00
   4.229173e+01   2.665641e+01
   2.128286e+01   3.931030e+01
   5.324918e+00  -1.742980e+01
  -4.290724e+01   1.571829e+01
  -1.431316e+01  -6.562462e+01
   1.676744e+01  -8.443356e+01
   1.778667e+00  -3.262952e+01
  -6.673927e+01   3.585479e+01
  -4.304471e+01  -2.375940e+01
   1.002774e+01  -6.337090e+01
   1.352756e+00  -9.198572e+01
   9.129323e+01  -6.509116e+01
   9.162584e+01   3.509206e+01
   3.979983e+01   3.143026e+01
  -5.687522e+01   5.813490e+01
  -4.096065e+01   2.230129e+00
  -2.852855e+00  -7.243639e+00
   5.065895e+01   4.288018e+01
   1.182499e+01   7.988594e+01
  -8.795016e+01   5.223763e+01
  -8.586855e+01   1.903023e+01
  -7.233551e+01  -8.021296e+00
  -8.123942e+00  -4.687124e+01
   8.221025e+00   2.649097e+00
   2.891016e+01   9.650434e+00
  -1.562988e-02   2.189738e+01
  -3.172099e+01  -3.320203e+01
  -3.411449e+01  -1.163253e+02
   4.919226e+01  -1.017730e+02
   1.247596e+02  -4.390547e+01
   5.717783e+01   7.735549e+01
   5.225149e+01   8.367979e+01
  -3.425981e+01   7.628044e+01
  -7.577584e+01  -1.377186e+01
  -4.874217e+01  -5.344630e+01
   1.467477e+01  -6.514337e+01
   3.086470e+01  -3.304215e+00
   3.464021e+01  -3.211644e+01
   5.162062e+01   1.215808e+01
  -1.132965e+01  -3.348144e+01
   1.728991e+01   3.935891e+00
   2.867227e+01   1.483682e+01
   1.336171e+00   3.419358e+01
  -2.696178e+01   8.114565e+01
  -5.098144e+01   2.281521e+01
  -1.202274e+02  -3.988398e+01
  -6.622789e+01  -1.175858e+01
   2.758032e+01  -2.474414e+01
   2.234351e+01   2.399101e+00
   2.239238e+01  -5.867774e-01
  -5.261437e+01   2.223890e+01
  -1.528404e+01  -3.302750e+01
  -4.485017e+00  -2.898556e+01
   6.521918e+00   3.621322e+01
  -3.731477e+01  -2.463257e+01
  -5.559567e+01  -1.635109e+01
  -1.789492e+01  -4.739411e+01
   1.054142e+02  -4.020297e+01
   1.121982e+02  -7.187434e+01
   8.277462e+01   2.455995e+01
  -4.808124e+00   9.585628e+01
  -8.181119e+01   5.335811e+01
  -2.817797e+01   3.777738e+01
  -3.374283e+01   7.750785e+00
  -2.411685e+01  -2.586226e+01
  -2.342291e+01   2.816339e+01
  -4.629506e+01   2.096405e+01
  -3.978663e+01   5.529226e+00
   2.312785e+01  -7.397909e+01
   4.977698e+01  -8.239258e+00
   3.549018e+01  -1.217574e+00
   6.643968e+01   7.438332e+01
   1.450115e+01   5.718655e+01
  -4.871094e+00   2.801482e+01
  -5.036563e+01  -2.200171e+01
  -1.026291e+01  -3.271078e+01
   1.357596e+01  -4.161138e+01
   4.208642e+01   5.414323e+00
   1.105467e+01   3.598511e+00
   8.801605e+00   1.520910e+00
  -1.602240e+01  -2.702146e+01
   6.741005e+00   3.944369e+00
   5.675021e+01   1.383706e+01
  -1.043294e+01   2.828173e+00
  -2.279912e+01   1.187521e+01
  -9.674212e+00   5.144967e+00
  -2.260532e+01  -1.464098e+01
   1.104597e+01  -3.909589e+01
   3.508385e+01  -6.797599e+01
   6.294079e+01  -4.560382e+01
  -1.537556e+01  -8.185986e+00
  -2.431395e+01   1.176603e+01
  -2.920957e+01  -1.649240e+01
  -3.131347e+01  -4.699049e+01
   1.360467e+01  -3.216075e+01
   2.346242e+01   1.676333e+00
  -7.732214e+00   6.604480e-01
   3.386461e+01  -1.705205e+01
   1.562270e+01  -3.756679e+01
  -7.770738e+00  -1.539721e+01
   6.058779e+01   8.088596e+00
   4.446408e+00   6.083986e-03
   3.272980e+01   1.814454e+01
   2.841528e+00   1.797851e+01
  -3.385446e+01  -1.032501e+01
  -5.005530e+00  -1.211094e+01
   6.073128e+00   2.629321e+01
  -1.324103e+01   5.531062e+01
  -3.063915e+01   4.970661e+01
  -2.649041e+01   8.251626e+00
  -9.467499e+00  -1.835321e+01
   3.438065e+01  -1.178728e+01
   1.860296e+01   2.150918e+00
  -8.573183e+00  -4.709029e+01
   1.381342e+01  -2.839311e+01
  -1.631315e+01  -2.023461e+01
   1.424172e+01  -1.130345e+01
  -4.056866e+00  -2.003897e+01
