
 $NMID
 id='ANONYMOUS ', fmtdat='(2E16.6)'
 volume=1.0
 tramp=1.0
 $END
  -1.963139e+03  -3.314325e+01
  -1.335372e+03  -1.076430e+03
  -4.630165e+01  -1.394030e+03
   7.090733e+02  -7.427477e+02
   6.558367e+02  -1.870552e+02
   1.453083e+02   8.755346e+01
  -1.793123e+02   5.753301e+01
  -4.367151e+01  -3.761663e+02
   3.815271e+02  -3.814676e+02
   3.912736e+02  -1.634000e+01
   2.563185e+02   3.102691e+02
   3.843860e+01   3.357875e+02
  -1.487997e+02   1.455698e+02
   4.557824e+01  -2.033629e+02
  -3.297852e+01  -2.944582e+02
   1.748946e+02  -2.935348e+01
   2.071367e+02   3.785899e+02
  -2.601760e+01   3.537992e+02
  -1.320388e+02   1.195475e+02
  -2.843619e+02  -7.860870e+01
  -2.469306e+02  -1.673384e+02
  -8.687191e+01  -2.153462e+02
   6.977048e+01  -4.750369e+01
  -6.663105e+01  -6.525673e+01
  -1.310459e+02  -7.610851e+01
  -2.792405e+01  -1.681213e+02
   2.522557e+02   2.175629e+01
   3.846859e+02  -1.847345e+01
   2.085602e+02   1.265010e+02
  -2.733374e+02   1.300290e+02
  -3.201869e+02  -1.320622e+02
  -1.259685e+02  -3.231759e+02
   1.452412e+02  -1.438745e+02
   3.643793e+02  -1.015968e+02
   2.504196e+02   7.980705e+01
   1.471933e+02   2.389612e+02
  -2.632388e+01   2.016328e+02
   3.694494e+00  -6.238692e+01
   4.812189e+01  -7.573162e+01
   3.502250e+01   3.279712e+01
   7.519899e+00   2.188318e+02
  -1.083474e+02   2.656290e+02
  -1.724195e+02   4.506422e+01
  -5.491724e+01  -1.663827e+02
   1.175513e+02  -5.303158e+01
   1.614244e+02   1.852536e+02
  -1.046089e+02   2.485043e+02
  -2.911983e+02   3.257595e+01
  -2.907201e+02  -2.655031e+02
  -1.754622e+02  -2.872648e+02
   1.933570e+02  -1.799648e+02
   3.281966e+02   4.685100e+00
   2.656698e+02   1.539534e+02
  -3.768787e+01   1.258885e+02
  -2.109275e+02   5.932373e+01
  -1.504167e+02  -5.356008e+01
   3.200907e+01  -7.118917e+01
   7.868635e+01  -2.873782e+01
  -5.621033e+01   6.253771e+01
  -1.369172e+02  -6.114688e+01
  -6.448334e+01  -1.107437e+02
   1.066816e+02  -1.272532e+02
   2.341172e+02  -8.139922e+01
   1.892805e+02   2.557795e+01
  -3.007357e+01   1.807628e+02
  -1.586442e+02   2.516133e+02
  -2.340306e+02   1.455165e+02
  -1.787685e+02  -8.876297e+01
  -7.607487e+01  -2.331182e+02
   1.242852e+01  -2.432200e+02
   3.705732e+01  -7.948454e+01
   1.473087e+01  -1.115208e+02
   4.558513e+01  -9.145130e+01
   2.026974e+02   1.644023e+00
   1.576369e+02   6.540036e+01
   5.756751e+01   1.786203e+02
  -9.928835e+01   1.517488e+02
  -1.366966e+02  -4.188559e+00
  -7.401544e+01  -1.534999e+02
   5.049192e+01  -1.512452e+02
   1.287424e+02  -2.959498e+01
   1.822864e+02   1.082020e+02
   1.051073e+02   1.818902e+02
  -5.467294e+01   1.643924e+02
  -1.182221e+02   1.072140e+02
  -7.560395e+01   4.447348e+01
  -7.209665e+01   1.957266e+01
  -1.613610e+02   4.191911e+01
  -2.136093e+02  -3.249362e+01
  -2.121980e+02  -1.847309e+02
  -4.448938e+01  -2.298480e+02
   1.786584e+02  -2.847716e+02
   2.505200e+02  -1.538722e+02
   1.894884e+02   6.806580e+01
   8.095307e+00   8.986623e+01
  -6.783093e+01   1.194693e+02
   1.137712e+01   1.391193e+01
   4.637012e+01  -3.590048e+01
   1.054651e+02   4.282771e+01
   3.730792e+01   1.266307e+02
  -1.034523e+02   8.763087e+01
  -1.462890e+02  -6.527152e+01
  -7.741071e+00  -1.165406e+02
   5.923431e+01  -4.371372e+01
   1.585794e+02   1.704276e+02
   3.556428e+01   2.285339e+02
  -1.289905e+02   1.487689e+02
  -2.634717e+02  -3.852291e+01
  -1.868645e+02  -1.496785e+02
  -3.090830e+01  -1.694058e+02
   5.792711e+01  -9.988733e+01
   1.315709e+02  -5.419536e+00
   1.437732e+01   1.984380e+01
  -6.481355e+01  -1.493250e+01
   1.111629e+01  -9.591476e+01
   5.807019e+01  -3.302236e+01
   1.251804e+02  -4.774559e+01
   2.423839e+01  -1.226968e+01
  -7.154846e+01  -2.413023e+01
  -2.937037e+01  -4.899086e+01
   1.243502e+02  -8.232085e+01
   2.012138e+02   2.855562e+01
   1.491458e+02   1.519418e+02
  -1.080081e+00   1.341662e+02
  -1.380476e+02   1.278995e+02
  -1.847683e+02  -4.708847e+00
  -9.938095e+01  -3.718143e+01
   4.334871e+01  -4.974264e+01
   7.894871e+01   4.590526e+01
  -8.528578e+00   2.862553e+01
  -1.441770e+02   1.944787e+01
  -1.038864e+02  -7.780632e+01
  -4.439035e+01  -1.235960e+02
   5.654748e+01  -6.706853e+01
   1.429970e+02   4.912248e+01
  -9.694200e+00   6.497126e+01
  -1.021685e+02  -1.542278e+01
  -5.587607e+01  -1.401300e+02
   7.401726e+01  -3.208754e+01
   1.208693e+02  -1.109988e+01
   1.082147e+02   4.398809e+01
  -1.395569e+01   1.337108e+02
  -6.919390e+01   6.371407e+01
  -9.664893e+01   1.399082e+01
  -1.137445e+01  -6.041605e+01
   5.429094e+00  -1.032786e+02
   4.062203e+01  -4.463933e+01
  -2.298532e+01   8.300420e+00
  -2.063908e+01  -3.032374e+01
   4.138781e+00  -5.657721e+01
   8.883637e+01   1.827810e+01
   6.936370e+01   6.570678e+01
   3.463384e+01   1.409950e+02
  -7.376309e+01   1.018174e+02
  -1.579323e+02   5.390247e+00
  -1.645479e+02  -1.150640e+02
  -6.510051e+01  -1.903853e+02
   9.236080e+01  -1.198596e+02
   8.712824e+01   5.011548e+00
   7.541936e+01   1.802088e+01
   2.243102e+01   5.390500e+01
  -1.215145e+00  -8.129683e+00
   5.346277e+01  -7.881681e+00
  -2.725546e+00   5.962753e+01
  -2.767022e+01   7.280300e+01
  -7.003312e+01   4.352366e+01
  -6.571466e+01  -2.037574e+01
   3.021424e+01  -6.903657e+01
   1.028185e+02  -9.974142e+01
   1.852069e+02   4.244137e+01
   6.350930e+01   1.312998e+02
  -5.627690e+01   1.104058e+02
  -1.791468e+02   7.561599e+01
  -1.671402e+02  -5.655262e+01
  -7.623200e+01  -8.602814e+01
  -6.346520e+00  -1.011104e+02
   2.693206e+01  -4.791953e+01
   4.795017e+01  -7.699392e+01
   1.141438e+01  -7.669461e+01
   1.250648e+02  -5.281836e+01
   1.115029e+02   1.943735e+01
   7.919676e+01   9.880397e+01
  -8.001767e+00   1.382319e+02
  -1.087469e+02   1.542594e+02
  -1.048867e+02   9.268774e+00
  -7.723093e+01  -9.472635e+01
  -1.126194e+01  -1.524276e+02
   4.660208e+01  -6.717799e+00
   2.077273e+01  -1.643887e+00
  -3.169680e+01   4.993179e+01
  -2.569009e+01  -2.975619e+01
   4.034682e+01   1.846617e+01
   4.189254e+01  -1.897492e+01
   4.944189e+01   3.793087e+01
  -1.256562e+01   3.494214e+01
  -9.811797e+01  -1.809019e+01
  -8.930669e+01  -2.919209e+01
  -1.613699e+01  -7.128566e+01
   1.047698e+02  -2.835054e+01
   1.128714e+02   3.279236e+01
   5.694752e+01   9.229308e+01
  -4.728313e+01   1.220737e+01
  -9.615031e+01   1.982970e+01
  -1.022412e+01  -3.472569e+01
   1.013723e+01  -3.021403e+01
   6.477947e+01  -2.583170e+00
   2.983044e+01   4.268526e+01
   4.969155e+01   5.396849e+01
   1.942113e+01  -2.186775e+00
   5.132606e+01  -3.101945e+01
   4.337617e+01  -4.987362e+00
  -2.870108e+01   1.159161e+02
  -9.351363e+01   7.492163e+01
  -1.025893e+02   6.950455e+01
  -9.430598e+01  -5.709968e+01
   6.440731e+01  -1.009198e+02
   2.917314e+01  -6.180310e+01
   2.058660e+01  -3.229924e+01
  -4.397934e+01  -2.857247e+01
  -5.946003e+01   3.103512e+01
  -7.740522e+00  -5.166090e+01
   6.224959e+01  -5.138939e+01
   6.956081e+01  -1.275966e+01
   8.506129e+01   3.540346e+01
   7.983821e+00   2.646523e+01
  -1.673013e+01   3.392449e+00
  -3.652132e+01  -6.233124e+00
   4.126686e+01   9.294065e+00
  -4.689147e+00   3.372976e+01
   2.885559e+01   7.816870e+01
   2.093492e+01   4.534320e+01
  -1.237927e+02   3.695137e+01
  -5.197931e+01  -5.048855e+01
  -1.601548e+01  -1.294141e+02
   5.605927e+01  -1.013297e+02
   2.932184e+01   1.303987e+01
  -2.108892e+00   9.114000e+01
  -1.555331e+01   4.668654e+01
  -5.745989e+00   6.830152e+00
  -6.224606e+01  -3.680200e+01
  -8.500873e-01  -1.835806e+01
   3.205920e+01  -9.322752e-01
  -1.862886e+01  -1.157505e+01
  -4.339688e+01  -3.198575e+01
   4.431242e+01  -6.438666e+01
   4.908969e+01  -6.404164e+00
   8.674362e+01   1.687089e+01
   5.759398e+01   5.050535e+01
  -1.393342e+01   7.675358e+01
  -3.152693e+01   6.497923e+01
  -1.259624e+02  -1.149382e+01
  -1.366569e+00  -2.295394e+01
   5.680411e+01   1.886547e+01
  -7.730889e+00  -2.924485e+01
  -4.518968e+01   1.949713e+01
  -1.148717e+01  -1.626002e+01
   5.079103e+01   2.999570e+01
   6.230751e+01   4.026678e+01
   3.963706e+01   6.132517e+01
  -7.167928e+01   8.065581e+01
  -9.718969e+01   5.847962e+00
  -8.025575e+01  -3.351418e+01
  -4.025172e+01  -8.255699e+01
   2.438404e+01  -9.996252e+01
   5.917210e+01  -8.601249e+01
   3.395397e+01   2.624658e+01
   3.337554e+01  -1.985178e+01
   1.798453e+01  -1.303880e-01
  -1.543395e+00   1.849262e+00
  -2.817969e+00   3.377419e+01
   1.835177e+01   4.470067e+01
  -2.842592e+01   5.760439e+01
  -3.888861e+01  -1.464966e+01
  -3.960218e+01  -8.286257e+01
  -1.510144e+01  -4.729834e+01
   9.543856e+01  -4.803738e+01
   8.717350e+01   7.311968e+01
  -5.924221e+00   6.534143e+01
  -3.722732e+01   1.998532e+01
  -7.563197e+01   1.400279e+01
  -3.056747e+01  -3.202628e+01
  -3.654975e+01  -2.379616e+01
   2.339053e+01  -1.197786e+01
  -1.183837e+01  -5.226370e+01
  -2.734015e+01  -1.616323e+01
  -2.441041e+00  -3.687429e+01
   5.714138e+01  -9.066197e+01
   1.088380e+02   1.831335e+01
   9.245244e+00   1.482445e+01
  -3.058863e+00   1.033703e+02
  -8.868418e+01   7.466145e+01
  -3.224163e+01  -1.531586e+01
   9.683347e+00  -4.592018e+01
  -2.151348e+01  -3.177206e+01
   3.779642e+01   1.456350e+01
   3.126690e+01  -1.728181e+01
  -2.426373e+01   5.934128e+01
  -4.956076e+00  -6.917106e+01
   2.118438e+00   1.646292e+00
  -5.585754e+00   1.177380e+01
   1.227010e+01   1.544356e+01
  -2.835546e+01   2.187864e+01
  -1.677156e+00  -3.505826e-01
   1.041307e+01  -4.970322e+01
  -1.429023e+01  -1.306742e+01
   1.951975e+01   3.097828e+01
   5.613933e+01   6.195421e+00
   3.094590e+00   2.369668e+01
  -9.561909e+00  -2.546193e+01
  -3.220307e+01  -2.356877e+01
  -1.781952e+01  -3.016886e+00
   6.855615e+00  -5.701455e+00
   3.107963e+01   4.528753e+01
   1.188522e+01  -2.552254e+01
   5.323248e-01  -2.489082e+01
   2.862671e+01   1.677376e+01
   2.777263e+01  -2.473300e+01
   4.764257e+01  -1.406889e+01
  -2.547402e+00   2.873952e+00
  -1.709516e+01   6.711102e+00
