
 $NMID
 id='ANONYMOUS ', fmtdat='(2E16.6)'
 volume=1.0
 tramp=1.0
 $END
   2.521588e+03  -6.750679e+00
   1.892993e+03   1.333092e+03
   9.121375e+01   1.887634e+03
  -8.656014e+02   1.080102e+03
  -8.002054e+02   7.277723e+01
  -2.515081e+02  -1.539957e+02
   3.003831e+02   1.520768e+02
   1.012202e+02   4.132237e+02
  -4.289802e+02   5.084881e+02
  -5.918443e+02   1.156172e+02
  -4.276015e+02  -4.169410e+02
  -8.104125e+01  -6.288262e+02
   1.200891e+02  -2.638824e+02
   3.520719e+02   2.933595e+02
  -1.230517e+02   5.100154e+02
  -3.500446e+02   1.352730e+02
  -2.329868e+02  -3.494161e+02
   2.490856e+02  -3.818758e+02
   3.906037e+02  -2.233650e+02
   3.410479e+02   2.192188e+02
   9.948687e+01   3.374498e+02
  -8.935045e-01   1.608098e+02
  -1.401654e+02   1.021257e+02
   1.308269e+02   1.574901e+02
   1.797011e+02   3.253899e+02
   4.730194e+01   2.955595e+02
  -3.484285e+02   1.082033e+02
  -5.640460e+02  -1.991691e+02
  -2.366127e+02  -3.071203e+02
   2.070680e+02  -1.247753e+02
   4.198361e+02   8.945728e+01
   1.302201e+02   3.562887e+02
  -2.575440e+02   3.083647e+02
  -3.900957e+02   2.350569e+02
  -3.266633e+02  -1.236245e+02
  -1.208257e+02  -3.265712e+02
  -1.213287e+00  -1.721833e+02
   8.374012e+00   6.094577e+01
  -6.801926e+01   1.600642e+02
  -1.715310e+02  -9.567127e+01
  -7.652539e+01  -4.081669e+02
   1.367625e+02  -3.298068e+02
   2.364250e+02  -2.276350e+00
   7.808220e+01   1.984715e+02
  -1.061845e+02   6.338568e+01
  -1.399959e+02  -2.198792e+02
   9.216468e+01  -3.297099e+02
   3.319552e+02  -4.237657e+01
   4.248580e+02   3.819030e+02
   1.603816e+02   4.367074e+02
  -2.179415e+02   2.045663e+02
  -4.616087e+02  -5.225408e+01
  -2.976675e+02  -1.412246e+02
   1.072823e+02  -8.534385e+01
   2.705136e+02  -5.288041e+01
   1.671910e+02   7.220946e-01
  -1.449379e+01  -3.299525e+01
  -5.124355e+01  -8.264508e+01
   9.251257e+01  -1.177739e+01
   2.531768e+02   9.039899e+01
   1.767607e+02   2.535505e+02
  -8.542865e+01   2.038646e+02
  -3.160937e+02   1.138698e+02
  -2.904747e+02  -7.519397e+01
   5.787521e+00  -3.534587e+02
   3.057091e+02  -3.594859e+02
   3.298266e+02  -1.627303e+02
   2.177725e+02   1.576727e+02
   1.110971e+02   3.404310e+02
   3.198229e+00   2.943694e+02
  -2.834426e+01   1.353123e+02
  -5.324984e+01   1.017808e+02
  -7.807914e+01   9.866677e+01
  -2.149522e+02   1.059318e+01
  -2.371968e+02  -6.683857e+01
  -3.594447e+01  -1.722076e+02
   1.325401e+02  -1.428684e+02
   1.746032e+02   2.273854e+01
   1.264307e+02   2.472938e+02
  -7.423455e+01   2.319535e+02
  -1.868541e+02   9.833196e+01
  -2.751894e+02  -1.479903e+02
  -1.484014e+02  -3.358754e+02
   5.763073e+01  -2.566884e+02
   1.342159e+02  -1.226550e+02
   1.441693e+02  -5.448117e+01
   1.376873e+02  -2.645900e+01
   2.219564e+02  -2.962630e+01
   2.996838e+02   5.152661e+01
   2.453404e+02   2.397773e+02
   1.365594e+01   3.660596e+02
  -3.736398e+02   3.388196e+02
  -4.655656e+02   1.478791e+02
  -2.690283e+02  -9.178442e+01
  -1.006095e+01  -2.596305e+02
   6.810026e+01  -1.871424e+02
   1.406877e+01  -1.719645e+01
  -1.213588e+02   7.815328e+01
  -5.992211e+01  -4.030616e+01
   1.830370e+01  -1.422658e+02
   1.254750e+02  -1.527402e+02
   9.246599e+01   5.403718e+01
  -5.940555e+01   1.227206e+02
  -1.816683e+02   3.090934e+01
  -1.375246e+02  -1.995744e+02
   3.232540e+01  -3.101112e+02
   2.634448e+02  -2.271881e+02
   2.920377e+02   4.648886e+01
   2.633437e+02   2.656426e+02
   2.086844e+01   2.672163e+02
  -1.322333e+02   9.034543e+01
  -1.135641e+02   1.071984e+01
  -2.010206e+01  -3.549365e+01
   8.387467e+01   5.490183e+01
  -3.397479e+01   1.315839e+02
  -1.373991e+02   1.008913e+02
  -1.698187e+02  -4.588507e+01
  -5.201849e+01  -7.107649e+01
   4.521888e+01   1.047687e+01
   5.371985e+01   1.050850e+02
  -1.547691e+02   8.153518e+01
  -2.379867e+02  -5.364231e+01
  -2.343711e+02  -2.192258e+02
  -6.965269e+00  -2.828349e+02
   1.953292e+02  -2.485496e+02
   2.479916e+02  -5.855419e+01
   1.269775e+02   7.730553e+01
  -1.764805e+01   1.003025e+02
  -3.987627e+01  -3.939764e+01
   2.248617e+01  -9.248795e+01
   1.767028e+02   1.189624e-01
   1.320008e+02   1.360525e+02
   3.573669e+01   2.294458e+02
  -1.045890e+02   1.121997e+02
  -1.079951e+02  -1.509779e+01
  -5.367927e+01  -4.932112e+01
   3.061219e+01   5.929728e+01
   1.201009e+01   1.241792e+02
  -3.989998e+01   6.394064e+01
  -2.065055e+02  -4.241056e+00
  -1.698596e+02  -1.609284e+02
  -4.548649e+00  -2.134408e+02
   1.476348e+02  -1.364442e+02
   1.553597e+02   2.409510e+01
   1.137840e+01   7.161100e+01
  -6.057903e+01   5.905417e+01
  -8.268787e+01  -1.199080e+01
   4.764547e+01  -1.464330e+01
   3.477677e+01   2.568642e+01
   2.157395e+01   2.715216e+01
  -1.191497e+02   3.890360e+01
  -1.045273e+02  -8.191166e+01
   3.118459e+01  -1.980550e+02
   1.935300e+02  -1.636791e+02
   2.315393e+02   2.593703e+01
   1.511135e+02   1.658458e+02
  -3.005788e+01   2.365974e+02
  -1.208322e+02   1.431727e+02
  -1.170110e+02   5.489455e+01
  -6.714137e+01  -1.827848e+01
  -6.025176e+01   1.965622e+00
  -4.634427e+01   1.960884e+01
  -1.155519e+02   4.950793e+00
  -8.687899e+01  -1.246660e+02
   4.603632e+01  -1.471777e+02
   1.204511e+02  -7.406524e+01
   1.777558e+02   5.482877e+01
  -3.664145e+01   1.412895e+02
  -1.489678e+02   1.152297e+02
  -1.882629e+02  -6.386604e+01
  -2.849197e+01  -1.862752e+02
   1.396056e+02  -1.548449e+02
   2.696836e+02  -3.505833e+01
   2.367075e+02   7.927157e+01
   5.572322e+01   1.510539e+02
  -2.972111e+01   1.291176e+02
  -1.057491e+02   4.578114e+01
  -8.130408e+01   8.558370e+01
  -3.905399e+01   1.079961e+02
  -6.084270e+01   1.100313e+02
  -1.774541e+02   3.725950e+00
  -9.929941e+01  -1.406565e+02
   2.960854e+00  -2.205776e+02
   1.086604e+02  -1.425477e+02
   1.533499e+02   7.448562e+01
   8.664758e+01   1.006993e+02
   1.937508e+01   1.078377e+02
  -6.397370e+01   1.021393e+02
  -7.404766e+00  -1.727932e+01
   3.432038e+01  -7.823126e+01
   2.511333e+01  -2.392886e+01
  -7.442552e+01  -7.684356e+00
  -9.114057e+01   2.145422e+01
  -8.225982e+01  -2.152910e+01
   3.960521e+01  -8.617139e+01
   1.695170e+02  -1.385376e+01
   1.836589e+02   6.683971e+01
  -1.323291e+01   6.731543e+01
  -1.581802e+02   6.208659e+01
  -1.121305e+02   6.207845e+00
  -2.551859e+01  -4.243821e+01
   5.434627e+01  -8.011724e+00
   8.581121e+01   3.073498e+01
   5.020548e+01   8.976578e+01
  -3.990456e+01   1.393062e+01
  -9.034247e+01  -5.697572e-01
  -7.951737e+01  -3.885425e+01
  -5.449593e+01  -4.119215e+01
  -5.737423e+01  -3.415320e+01
  -1.079618e+01  -2.822065e+01
  -5.429893e+01  -9.319139e+01
   3.675751e+01  -1.679844e+02
   9.482248e+01  -1.096300e+02
   1.970861e+02  -4.527179e+01
   1.031560e+02   8.054215e+01
  -8.349968e+00   1.362525e+02
  -1.068868e+02   5.323673e+01
  -2.577972e+01  -3.298056e+00
   5.566510e+01  -5.722151e+00
   1.311973e+02   4.456487e+01
   3.260915e+01   1.101719e+02
  -1.209238e+02   8.968120e+01
  -1.556215e+02   3.427154e+01
  -1.353515e+02  -4.572189e+01
  -7.351800e+00  -1.064185e+02
   4.534186e+01  -6.756417e+01
   4.809904e+01  -1.491197e+01
  -4.014774e+01   5.404813e+00
  -1.055742e+02  -2.079246e+01
  -2.928581e+01  -1.525109e+02
   1.170801e+02  -1.301474e+02
   1.419770e+02  -4.698353e+01
   7.121765e+01   8.351736e+01
  -7.887951e-01   1.802454e+02
  -3.146358e+01   1.386813e+02
  -1.094014e+02   2.781420e+01
  -6.504380e+01  -5.451826e+01
   4.439526e+01  -6.958137e+01
   8.090322e+01  -1.679494e+01
   7.430731e+01   8.245274e+00
  -7.375771e+00   2.057018e+01
  -2.080869e+01  -3.569766e+01
  -2.046564e+01   1.052786e+01
   1.800855e+01   1.031735e+02
   5.639708e+01   1.519546e+02
  -8.555523e+01  -2.795921e+00
  -1.236309e+02  -6.269532e+01
  -1.071214e+02  -6.883697e+01
   1.398074e+00  -3.607152e+01
   4.102059e+01   1.888562e-01
   5.276253e+01  -2.234850e+01
   1.048460e+01  -1.259156e+01
  -2.361041e+01   4.910886e+01
   4.465744e+00  -2.742232e+01
   1.926157e+01  -1.418501e-01
   1.398139e+01  -2.192041e+01
  -7.701414e+01  -2.759041e+01
  -1.090872e+02  -4.316763e+01
  -4.201664e+01  -6.765661e+01
   1.137798e+02  -9.546068e+01
   1.945066e+02  -6.883380e+01
   1.073587e+02   1.471525e+01
   2.502740e+01   1.030856e+02
  -4.003507e+01   1.397582e+02
  -1.145075e+02   8.138040e+01
  -1.016689e+02  -3.484266e+00
  -1.051481e+01   3.089361e+01
  -3.613584e+01  -2.976302e+00
  -2.035083e+01   4.488000e+01
  -5.336601e+01  -6.778974e+01
  -5.235548e+01  -1.008094e+02
   2.320578e+01  -6.074682e+01
   7.999386e+01  -3.276963e-04
   5.689399e+01   9.172271e+01
   8.715349e-01   1.272324e+02
  -7.483338e+01   6.265669e+01
  -7.998067e+01  -9.362250e+01
  -4.843931e+01  -8.561865e+01
   3.253556e+01  -6.391862e+01
   1.424007e+02  -2.215232e+00
   5.668087e+01   4.335754e+01
  -3.515471e+01   2.665879e+01
  -5.108651e+01   3.192653e+01
   3.999145e+01   2.186990e+01
   3.582175e+01   7.970025e+00
   3.460709e+01   4.637971e+01
  -6.945801e+01   6.788205e+01
  -1.131234e+02   3.261538e+01
  -6.803290e+01   3.139576e+00
  -4.461561e+01  -8.819275e+01
   5.593123e+01  -6.785280e+01
   1.150534e+01  -4.119881e+01
   3.331069e+01   1.751232e+01
  -4.095505e+01  -2.060529e+01
  -3.593679e+01  -5.583115e+01
  -4.436836e+01  -6.038208e+01
  -1.928520e+00  -2.664143e+01
  -1.200492e+01   1.777229e+01
  -1.146838e+01  -1.209511e+01
   1.287274e+01   2.028050e+01
   2.539149e+01  -6.102510e+01
   3.646772e+01  -1.139717e+01
   1.261779e+01   2.059240e+01
  -1.286667e+01   9.548719e+01
  -4.867879e+01   2.556729e+01
  -4.446428e+01  -4.190274e+01
   7.638690e+00  -1.110456e+02
   2.904236e+01  -4.096969e+00
   6.706976e+01   3.351110e+01
   5.036771e+01   2.753818e+01
  -7.668215e+01  -1.516165e+01
  -1.010621e+02  -2.083095e+01
  -5.063319e+01  -3.554598e+01
   2.961451e+01  -2.159758e+01
   1.106163e+02  -3.206183e+01
   1.007606e+01  -1.512979e+01
  -5.726417e+01  -9.252112e+00
  -2.873364e+01  -3.702798e+01
   1.002268e+01  -6.870963e+01
   8.450786e+01  -4.442074e+01
