
 $NMID
 id='ANONYMOUS ', fmtdat='(2E16.6)'
 volume=1.0
 tramp=1.0
 $END
  -2.246602e+03  -5.617647e+00
  -1.716804e+03  -1.244213e+03
  -9.540006e+01  -1.625209e+03
   6.995722e+02  -9.978384e+02
   7.498875e+02  -2.755249e+02
   6.216720e+01   2.851036e+02
  -1.599216e+02   2.293283e+01
  -1.534028e+02  -5.172252e+02
   3.732977e+02  -4.837175e+02
   6.467291e+02  -7.694471e+00
   3.973569e+02   4.905739e+02
   4.464352e+01   5.169190e+02
  -3.287423e+02   7.689271e+01
  -3.349662e+02  -1.877425e+02
   1.580079e+02  -4.813522e+02
   3.764821e+02  -1.215469e+02
   3.009108e+02   4.974204e+02
   2.071168e+01   4.881000e+02
  -2.920497e+02   3.162023e+02
  -4.756353e+02  -1.869518e+02
  -1.341422e+02  -2.794209e+02
   2.027777e+02  -2.541590e+02
   5.950100e+00  -1.581887e+02
  -1.142411e+02  -3.730934e+01
  -2.419464e+02  -8.931741e+01
   7.964125e+01  -2.544096e+02
   3.392292e+02  -1.776635e+02
   3.655881e+02   1.485981e+02
   1.109693e+02   2.708358e+02
  -2.579016e+02   1.641856e+02
  -3.369150e+02  -1.483449e+02
  -1.055360e+02  -2.512869e+02
   1.954573e+02  -2.934360e+02
   3.720635e+02  -3.673120e+01
   2.525271e+02   1.603485e+02
   6.938186e+01   2.359225e+02
   1.457146e+01   7.197968e+01
   1.430796e+01  -5.145667e+01
   1.846962e+02  -6.648841e+01
   1.700163e+02   3.796239e+01
   2.234672e+01   3.970263e+02
  -2.297766e+02   3.272871e+02
  -2.817933e+02  -2.626217e+01
  -8.448874e+01  -2.373721e+02
   1.406463e+02  -1.443767e+02
   1.367188e+02   1.796982e+02
  -8.881515e+01   3.009290e+02
  -3.516290e+02   7.166187e+01
  -3.843153e+02  -2.799445e+02
  -1.208275e+02  -4.026678e+02
   2.686294e+02  -1.698710e+02
   4.008804e+02   7.669042e+01
   2.336161e+02   2.526890e+02
   3.461447e-01   1.768008e+02
  -2.264831e+02   6.439660e+01
  -1.994571e+02  -4.183619e+01
  -5.831830e+01  -7.166006e+01
  -4.715650e+00  -5.744571e+00
  -1.144389e+02   2.371287e+01
  -1.863027e+02  -6.643695e+01
  -1.323028e+02  -1.435050e+02
   1.259620e+02  -1.862910e+02
   3.079389e+02  -9.267348e+01
   2.451400e+02   6.319814e+01
   1.463444e+01   2.809012e+02
  -2.481977e+02   2.954368e+02
  -3.044883e+02   1.602679e+02
  -2.320818e+02  -1.411343e+02
  -2.826192e+01  -3.129387e+02
   1.596452e+01  -3.043945e+02
   3.737803e+01  -1.707399e+02
   5.089862e+01  -7.086753e+01
   1.197583e+02  -5.450290e+01
   1.751187e+02   4.125112e+00
   1.449038e+02   1.436614e+02
   2.908636e+01   2.635702e+02
  -6.586553e+01   1.611972e+02
  -1.165388e+02  -3.017937e+01
  -8.081422e+01  -2.361059e+02
   2.276217e+01  -2.429926e+02
   1.591275e+02  -5.760501e+01
   2.192670e+02   1.592774e+02
   1.299104e+02   2.045366e+02
  -8.669864e+00   2.205960e+02
  -7.093906e+01   1.414052e+02
  -1.246316e+02   7.590079e+01
  -1.588047e+02   8.987709e+01
  -2.209810e+02   7.881242e+01
  -3.172037e+02  -4.694789e+01
  -2.645157e+02  -2.258277e+02
   4.396448e+00  -3.182043e+02
   2.881276e+02  -2.832234e+02
   3.372996e+02  -1.081354e+02
   2.299861e+02   6.925604e+01
  -5.673728e+01   1.661628e+02
  -8.924924e+01   1.672499e+02
  -5.873049e+01  -1.056824e+01
   8.354042e+01  -7.059974e+01
   1.258134e+02  -9.338725e-02
   2.489590e+01   8.766463e+01
  -8.754505e+01   9.762894e+01
  -3.330522e+01  -4.112725e+01
   5.506933e+01  -8.081507e+01
   1.548849e+02  -2.818657e+01
   9.200303e+01   2.066730e+02
  -3.323575e+01   2.860366e+02
  -1.903891e+02   2.445264e+02
  -2.399970e+02  -3.746534e+01
  -2.364891e+02  -2.244719e+02
  -9.767140e+01  -2.734175e+02
   4.733065e+01  -1.257995e+02
   1.099082e+02  -2.607077e+01
   6.833314e+01   1.324182e+01
   6.553232e+00  -5.472186e+01
   3.909083e+01  -8.378117e+01
   9.367898e+01  -4.306741e+01
   1.305775e+02   1.263664e+01
   2.223620e+01   4.302986e+01
  -9.390362e+00  -1.058701e+01
  -3.648060e+01  -8.931188e+01
   1.452998e+02  -4.201601e+01
   2.271388e+02   3.019720e+01
   1.651755e+02   1.192913e+02
   2.952367e+01   2.092186e+02
  -1.585821e+02   1.757401e+02
  -1.897959e+02   1.050369e+02
  -7.989741e+01  -2.990799e+01
   6.048303e+01  -7.493028e+01
   5.585430e+01  -2.546035e+01
  -2.185729e+01   7.655960e+01
  -1.092584e+02   1.131573e+01
  -1.208568e+02  -5.578658e+01
  -5.620331e+01  -1.449201e+02
   1.234134e+01  -5.436840e+01
   7.895662e+01   1.800118e+01
   5.216524e+01   4.269326e+01
  -1.795953e-02  -6.146525e+01
   5.203449e+01  -7.968501e+01
   5.056121e+01  -8.551055e+01
   1.312278e+02  -2.971448e+00
   9.315784e+01   7.090568e+01
   2.770391e+01   1.868946e+02
  -8.801112e+01   8.364161e+01
  -9.993681e+01  -8.823524e+00
  -3.451633e+01  -3.563029e+01
   3.429791e+01  -7.019714e+01
   8.967342e+00   2.210663e+01
   6.719718e+00   4.167079e+01
  -2.491987e+01   1.483685e+00
   3.848795e+01   6.027020e+00
   9.491998e+01   7.602866e+00
   4.678164e+01   4.368814e+01
  -3.003672e+01   1.267654e+02
  -1.518668e+02   9.894173e+01
  -2.098483e+02  -5.773551e+01
  -1.639806e+02  -1.312360e+02
  -2.630485e+01  -1.658628e+02
   4.539903e+01  -1.305433e+02
   1.185145e+02  -2.895240e+01
   9.423157e+01   2.216885e+01
   6.063836e+01  -1.052921e+01
   3.757445e+01   7.913179e+00
   8.664920e+01  -2.321175e+01
   3.454602e+01   3.245106e+01
  -4.409783e+01   9.573733e+01
  -8.114673e+01   3.576807e+01
  -8.255687e+01  -4.958522e+01
   1.634365e+01  -1.046380e+02
   1.090468e+02  -4.274596e+01
   1.823745e+02   7.474957e+01
   8.576130e+01   1.654121e+02
  -1.083530e+02   1.374178e+02
  -2.168473e+02   5.949384e+01
  -2.148715e+02  -3.093033e+01
  -5.867916e+01  -1.116217e+02
   2.786423e+01  -1.562312e+02
   9.308558e+01  -9.067684e+01
   3.866645e+01  -1.147248e+02
   2.669994e+01  -9.072432e+01
   8.277734e+01  -7.702967e+01
   1.235154e+02   5.751783e+01
   5.148843e+01   1.248487e+02
  -3.819061e+01   1.584932e+02
  -4.767096e+01   1.141040e+02
  -1.138575e+02   2.821971e+01
  -6.910231e+01  -1.016750e+02
  -2.015341e+01  -1.460730e+02
   3.373856e+01  -1.250545e+02
   5.338133e+01   6.379739e+01
   2.157285e+01   3.923743e+01
   2.954923e-01   2.862403e+01
   2.618679e+01   3.005733e+01
   4.135973e+01   4.293693e+01
   3.806694e+01   5.331708e+01
  -6.918602e+01   4.538454e+01
  -1.337000e+02  -1.371996e+01
  -6.611084e+01  -7.475658e+01
   7.992857e+00  -8.328326e+01
   5.904868e+01  -9.191603e+01
   8.023030e+01  -1.076331e+01
   5.943621e+01   8.006774e+01
  -4.021201e+01   6.573604e+01
  -3.477345e+01  -1.706194e+01
   7.426617e+00  -5.779896e+01
   1.033429e+01  -5.383112e+01
   5.172285e+01  -6.349358e+00
   4.106934e+01   4.306498e+01
   1.106135e+02   5.558621e+00
   5.092594e+01   1.328072e+01
   2.582511e+01  -1.481736e+01
   1.778133e+00   3.053013e+01
  -2.627552e+01   1.680807e+02
  -6.716925e+01   1.033725e+02
  -1.266655e+02   3.834628e+01
  -1.300355e+02  -8.095449e+01
   3.080622e+01  -1.197728e+02
   7.024060e+01  -1.537812e+01
   7.021355e+01   6.629112e+00
  -5.286759e+01  -7.371263e-01
  -8.896960e+01  -1.649418e+01
  -1.090770e+02  -9.133619e+01
   1.410283e+01  -1.124752e+02
   1.490191e+02  -2.117456e+01
   1.072067e+02   8.086426e+00
   2.800453e+01   6.913034e+01
  -9.187424e+01   4.305917e+01
  -3.311511e+01   1.237227e+01
   6.661520e+01  -1.072546e+01
   7.040381e+01   3.994694e+01
   1.814762e+01   6.495540e+01
  -1.169660e+02   4.461654e+01
  -1.253976e+02   8.789196e+01
  -7.588254e+01  -1.011263e+02
   9.868626e+00  -2.021287e+02
   6.203093e+01  -7.594717e+01
   8.087643e+01   1.664100e+01
   7.025343e+01   1.279639e+02
  -4.978946e+01   7.134372e+01
  -4.989594e+01  -1.556948e+01
  -1.736507e+01  -1.413581e+01
   2.085319e+00  -1.859383e+01
  -1.597107e+01   1.673284e+01
  -2.878755e+01   5.245518e+00
  -6.668922e+01  -6.542412e+01
  -6.376825e+01  -1.531602e+02
   4.057053e+01  -1.079876e+02
   1.330515e+02   4.197255e+01
   8.293127e+01   1.021575e+02
   4.014678e+01   9.917907e+01
  -6.381268e+01   5.535881e+01
  -7.444364e+01  -4.268806e+00
  -1.201264e+01  -2.535174e+01
  -1.768712e+01  -3.661587e+01
  -1.402867e+01  -1.334530e-01
  -4.189552e+01   4.733545e+01
  -2.977411e+01  -2.539044e+01
   6.282153e+01  -3.933005e+01
   5.471348e+01   2.469807e+00
   7.340638e+01   2.508727e+01
  -7.399376e+01   8.311816e+01
  -9.931267e+01   4.522097e+01
  -1.142464e+02  -4.249749e+01
  -1.371647e+01  -1.223209e+02
   8.541696e+01  -8.490124e+01
   9.697378e+01  -5.001229e+01
   4.161128e+01   6.057950e+01
   6.234062e+00   2.963202e+01
  -2.048488e+01  -2.771508e+01
  -2.894380e+00  -8.434709e-01
  -1.251132e+01   4.047215e+01
   4.315069e+01   3.887313e-01
   1.765170e+01   6.463779e+01
  -8.943349e+01   2.776653e+01
  -4.542465e+01  -3.492779e+01
   8.773102e-01  -7.476941e+01
   8.958786e+01  -5.220685e+00
   6.923925e+01   4.718638e+01
   2.194120e+01   8.627391e+01
  -6.255161e+01   6.996785e+01
  -6.799945e+01   1.601618e+01
  -1.836332e+01  -3.363177e+01
   6.455919e+01  -3.248392e+01
   2.058394e+01   1.931714e+01
  -3.943209e+01   3.306653e+01
   5.501686e+00  -9.671312e+00
  -1.670456e+01  -3.556770e+01
   9.706105e+01  -5.246929e+01
   5.913213e+01  -5.598733e+01
   6.319594e+01   1.612954e+01
  -2.906251e+01   9.085729e+01
  -8.389001e+01   5.523871e+01
  -3.056760e+01  -2.749680e+01
   1.817764e+01  -2.142096e+01
   3.369277e+01  -2.778065e+01
   1.929731e+01   5.334722e+00
   1.807536e+01   4.574565e+01
  -3.595895e+00   6.573733e+01
  -7.951779e+01  -1.398643e+01
  -2.936128e+01  -2.434148e+01
  -4.972873e+01  -2.701504e+01
  -5.718660e+01  -1.110859e+01
  -4.388103e+00   6.887690e+00
   1.092130e+01  -3.457523e+01
  -2.998537e+01  -4.583687e+01
   6.748394e+01  -1.812787e+01
   5.701491e+01   6.009302e+01
   1.426374e+01   3.508224e+01
   2.942370e+00   2.283965e+01
  -5.675932e+01   3.445129e+00
  -1.053353e+01  -7.734966e+01
   3.765817e+01  -3.126158e+01
   1.073108e+02  -2.328761e+01
   7.195379e+01   3.960545e+01
  -2.120076e+01   4.575816e+01
  -4.692407e+01   2.053173e+01
  -2.866271e+01  -2.279680e+00
   3.867554e+01   4.354498e+01
   2.458865e+01   3.312997e+01
  -4.442035e+01  -2.798455e+01
  -9.059512e+01   3.331939e+01
