
 $NMID
 id='ANONYMOUS ', fmtdat='(2E16.6)'
 volume=1.0
 tramp=1.0
 $END
  -2.226654e+03  -3.091694e+02
  -1.737192e+03  -1.184359e+03
  -3.126765e+02  -1.459603e+03
   8.326908e+02  -1.293234e+03
   7.162430e+02  -4.615528e+02
   1.621592e+02   7.187265e+01
  -1.401491e+02   1.029849e+02
  -1.717678e+02  -4.362424e+02
   2.831102e+02  -4.956745e+02
   4.689906e+02  -3.492179e+01
   4.423583e+02   4.140162e+02
   1.640380e+02   5.757230e+02
  -1.685702e+02   3.656284e+02
  -1.074274e+02  -2.579812e+02
   4.834691e+01  -3.756724e+02
   3.242196e+02  -1.176146e+02
   1.205513e+02   4.165417e+02
  -1.250407e+02   4.834875e+02
  -3.843071e+02   3.095172e+02
  -4.453752e+02  -1.034787e+02
  -2.088531e+02  -2.440499e+02
  -3.460824e+01  -2.589683e+02
  -9.910896e+01  -7.494043e+01
  -2.499773e+02  -1.188643e+02
  -1.327260e+02  -3.097916e+02
   4.166314e+01  -1.631181e+02
   4.011991e+02  -4.224595e+01
   5.463678e+02   1.597849e+02
   2.099051e+02   2.338708e+02
  -3.443522e+02   1.443707e+02
  -5.596441e+02  -1.879131e+02
  -2.059773e+02  -3.916143e+02
   1.723422e+02  -1.924969e+02
   3.116091e+02  -1.268829e+02
   3.208691e+02   8.121247e+01
   1.355308e+02   2.746150e+02
   3.392047e+01   1.685991e+02
  -7.480337e-01  -7.223130e+01
   1.997539e+02  -1.005346e+02
   2.040617e+02   1.531584e+02
  -5.719385e+01   3.784740e+02
  -2.374405e+02   3.847115e+02
  -2.525949e+02   2.583285e+01
  -8.336882e+01  -2.405000e+02
   1.280395e+02  -1.035751e+02
   1.629676e+02   1.723293e+02
  -1.222093e+02   3.152668e+02
  -3.927487e+02   7.807040e+01
  -3.998659e+02  -3.334424e+02
  -1.885105e+02  -5.014882e+02
   2.561391e+02  -2.788328e+02
   4.205628e+02   5.908012e+01
   3.012847e+02   2.603008e+02
  -8.155778e+00   2.431267e+02
  -2.159121e+02   5.272498e+01
  -2.009781e+02  -5.114546e+01
  -4.540384e+01  -1.844799e+01
   2.944996e+01   1.881861e+01
  -1.278039e+02   6.020165e+01
  -1.809939e+02  -4.580273e+01
  -7.431205e+01  -1.843120e+02
   1.099236e+02  -1.774788e+02
   3.378491e+02  -1.103003e+02
   2.126984e+02   3.862627e+01
  -3.895005e+01   2.554258e+02
  -2.293718e+02   3.088548e+02
  -3.673055e+02   9.416876e+01
  -1.167462e+02  -1.368817e+02
   3.690335e+01  -3.006522e+02
   5.467833e+01  -2.421199e+02
  -1.435652e+01  -1.894130e+02
   2.319774e+00  -1.153905e+02
   1.229849e+02  -1.299323e+02
   1.698255e+02   2.384692e+01
   1.878028e+02   1.088234e+02
   5.318488e+01   2.297282e+02
  -1.102421e+02   1.062828e+02
  -1.483290e+02  -1.581744e+02
  -9.591456e+01  -3.116835e+02
   3.680792e+01  -2.471076e+02
   1.685757e+02  -3.699697e+01
   2.393407e+02   1.582027e+02
   1.805727e+02   3.208465e+02
  -2.451428e+01   2.217561e+02
  -2.020290e+02   1.303249e+02
  -1.350417e+02   9.568762e+01
  -2.063287e+02   8.936659e+01
  -2.480752e+02   4.416611e+01
  -3.530049e+02  -1.113082e+02
  -2.244425e+02  -2.666178e+02
   4.553650e+01  -3.489541e+02
   3.268322e+02  -3.336671e+02
   3.976444e+02  -1.584051e+02
   2.290049e+02   8.892535e+01
   1.709032e+00   2.281286e+02
  -1.995852e+01   1.544200e+02
   1.261141e+01   6.266251e+01
   1.357322e+02  -3.089955e+01
   9.711159e+01   4.260391e+00
   8.772750e+00   9.409992e+01
  -4.909432e+01   1.242943e+02
  -3.289925e+01  -3.856378e+01
   3.173019e+01  -1.170418e+02
   1.532326e+02  -2.327449e+00
   1.115451e+02   2.423083e+02
  -2.389442e+01   2.240080e+02
  -2.152939e+02   1.343061e+02
  -2.828359e+02  -9.692555e+01
  -2.122336e+02  -2.189601e+02
  -5.089324e+01  -2.269202e+02
   1.123031e+02  -1.316821e+02
   1.266561e+02  -3.663209e+01
   4.020488e+01  -2.438498e+01
  -1.191038e+01  -1.051614e+02
   3.506971e+00  -1.074210e+02
   8.487456e+01  -1.458590e+01
   1.257339e+02   4.466453e+01
   1.382016e+01   6.681477e+01
  -3.952685e+01   2.361100e+01
  -9.947627e+01  -7.490317e+01
   1.319323e+02  -7.986781e+01
   2.308094e+02   3.625109e+00
   1.930458e+02   1.670169e+02
  -5.941891e+00   1.630883e+02
  -1.749073e+02   1.519383e+02
  -2.279841e+02   6.833231e+01
  -1.285092e+02  -3.676130e+01
   2.109960e+01  -7.162055e+01
   7.607562e+01   3.063776e+01
  -2.614626e+01   1.383772e+02
  -1.530359e+02   5.204918e+01
  -1.334714e+02  -9.756607e+01
  -2.146842e+01  -1.907029e+02
   6.249535e+01  -1.279760e+02
   1.436311e+02  -1.223964e+00
   3.464178e+01   3.337343e+01
  -4.992645e+01  -2.436233e+00
  -5.285574e+01  -7.795633e+01
   5.608750e+01  -1.159668e+02
   2.082577e+02  -1.101953e+01
   1.228402e+02   1.164596e+02
   7.148257e+01   1.920474e+02
  -1.242306e+02   1.282530e+02
  -1.680198e+02   4.446771e+01
  -9.567217e+01  -1.081722e+02
   1.653081e+01  -6.102043e+01
   1.242558e+01   1.539058e+01
  -2.919445e+01   3.514336e+01
  -3.619179e+01  -7.454748e+00
   4.245169e+00  -7.234531e+01
   4.064775e+01  -2.762056e+01
   1.615098e+02   7.767427e+01
   1.157924e+01   1.631140e+02
  -1.256726e+02   1.435702e+02
  -1.968334e+02   2.686003e+01
  -1.479795e+02  -1.310264e+02
   1.234593e+00  -2.175283e+02
   1.588494e+02  -1.045337e+02
   1.188430e+02  -2.484191e+01
   7.158685e+01   4.324258e+01
   1.936913e+01   1.041702e+02
   2.156475e+01   4.628720e+01
   4.403313e+01   2.550834e+00
   3.313699e+01   4.367074e+01
  -3.309564e+01   6.120228e+01
  -1.485513e+02   4.511106e+01
  -1.071170e+02  -8.069056e+01
   1.594600e+01  -1.293004e+02
   1.278370e+02  -2.032150e+01
   1.832921e+02   5.249895e+01
   3.095126e+01   1.670885e+02
  -1.144983e+02   1.891898e+02
  -2.169329e+02   7.544765e+01
  -1.848697e+02  -1.195983e+02
  -5.133848e+01  -1.562335e+02
   3.230478e+01  -1.071380e+02
   9.537768e+01  -5.516431e+01
  -1.597977e+01  -8.209563e+01
   4.695560e+01  -8.062108e+01
   1.123830e+02  -8.876013e+01
   7.083689e+01   2.190604e+01
   6.264053e+01   1.506554e+02
  -2.799538e+01   1.871071e+02
  -1.220491e+02   1.778777e+02
  -1.547504e+02  -3.045545e+01
  -8.707525e+01  -1.208379e+02
   4.161208e+01  -1.575027e+02
   8.943593e+01  -1.311520e+02
   8.714908e+01   3.156087e+01
   4.596663e+00   6.502530e+01
  -1.482046e+01   6.900980e+01
  -2.620825e+00   2.152234e+01
   5.306422e+01   7.492115e+00
   7.645913e+01   4.210963e+01
  -5.762922e+01   4.172749e+01
  -1.894977e+02  -5.705330e+01
  -9.856804e+01  -1.748106e+02
   1.970225e+01  -7.299458e+01
   1.791199e+02  -8.762199e+01
   1.373138e+02   5.690416e+00
  -1.071626e+00   9.031895e+01
  -1.245371e+02   4.623801e+01
  -5.258640e+01  -2.369484e+01
  -4.850786e+00  -7.539459e+01
   8.437357e+01  -4.805733e+01
   4.086971e+01  -2.981824e+01
   3.193911e+01   3.554968e+01
   4.680422e+01   8.682609e+01
   3.462474e+01  -1.976312e+01
   1.234766e+02  -1.743286e+01
   4.950596e+01   1.796947e+01
  -2.742739e+01   1.104352e+02
  -1.087038e+02   1.244137e+02
  -1.561630e+02   3.805971e+01
  -1.178716e+02  -9.276019e+01
  -5.538606e+00  -1.360200e+02
   9.116418e+01  -3.819182e+01
   7.464320e+01   4.500467e+01
  -6.125799e+01  -1.047309e+01
  -8.112219e+01  -5.805713e+01
  -4.655520e+01  -8.444701e+01
   6.336259e+01  -8.559818e+01
   1.403399e+02   2.544579e+01
   1.056750e+02   4.646093e+01
   8.055448e+00   6.400928e+01
  -9.206992e+01   9.332858e+01
  -4.959019e+01  -4.213356e+01
   2.459295e+01  -4.595235e+00
   7.825111e+01  -6.951569e+00
   5.344999e+01   7.913314e+01
  -1.058112e+02   1.306482e+02
  -1.755233e+02   1.508916e+01
  -7.112776e+01  -7.505358e+01
   5.055864e+01  -1.526962e+02
   6.794624e+01  -8.371822e+01
   6.341519e+01  -2.131646e+00
   3.496500e+01   7.701934e+01
   1.108229e+01   1.085394e+02
  -9.650062e+01   8.821303e+00
   3.147725e+01  -4.266459e+01
  -1.854608e+01  -1.029829e+01
   1.053210e+01   1.319545e+01
  -1.590527e+01  -4.689491e+00
  -1.993727e+01  -6.266322e+01
  -2.786084e+01  -6.459765e+01
   4.719956e+01  -1.632145e+01
   1.427529e+02   3.501325e+01
   1.016952e+02   1.102725e+02
  -3.236271e+01   6.008847e+01
  -3.896113e+01   3.934488e+01
  -9.546304e+01  -3.343259e+01
  -2.332726e+01  -5.610301e+01
   4.291057e+00  -9.247113e+01
   4.863149e+01  -2.857286e+01
   1.589831e+01  -2.509691e+01
  -3.621690e+00   3.970124e+01
   3.301608e+01   2.578765e+01
   1.007993e+02   2.517534e+01
  -2.905297e+01   7.725730e+01
  -8.805514e+01   7.960611e+01
  -1.649276e+02   9.621456e+01
  -8.365792e+01  -4.371999e+01
  -4.940346e+01  -1.763884e+02
   1.347596e+02  -1.301325e+02
   8.653949e+01  -3.348658e+01
   3.254836e+01   4.625696e+01
   7.026640e+01   3.228119e+01
   5.287453e+01   1.740520e+01
   2.082952e+00   7.222835e+00
   1.408754e+01   5.948931e+01
   3.503135e+01   6.366947e+01
  -6.908888e+01   2.791624e+01
  -7.946594e+01  -8.412722e+01
  -5.954792e+01  -1.275151e+02
  -5.216508e+01  -1.167057e+02
   2.151821e+01  -7.636170e+01
   1.172885e+02   5.463302e+01
   1.440461e+01   9.490285e+01
  -7.249538e+01   5.371350e+01
  -5.122519e+01   1.069665e+01
  -8.381313e+01  -4.697733e+01
  -1.278543e+01  -3.428431e+01
   2.449906e+00  -2.732479e+01
   2.290663e+01   1.410484e+01
  -6.168157e+01   5.349568e+00
  -2.094651e+01   1.930793e+01
   8.908775e+01  -3.981789e+01
   9.441208e+01   1.199016e+00
   4.115340e+01   6.574757e+01
  -1.502226e+01   6.497699e+01
  -3.858637e+01   7.999824e+01
  -4.929865e+01  -1.281143e+01
  -3.210289e+01  -4.571076e+01
   4.971715e+01  -1.427205e+01
   6.824756e+01  -1.919339e+00
   2.172854e+00   8.770234e+01
  -5.628900e+00   2.002168e+01
  -3.167003e+01   1.659777e+01
  -3.860937e+01  -5.647435e+01
  -2.445516e+00  -4.216783e+00
   1.464295e+01   7.826703e+01
   1.183995e+01   3.179645e+01
   1.641174e-01  -4.244092e+01
  -4.430258e+01  -3.860299e+01
   3.461732e+00  -4.738214e+01
   4.588732e+01   3.036552e+01
   5.580857e+01   3.611031e+01
  -4.682321e+01   4.252643e+01
  -2.624260e+01  -2.072227e+00
   1.623033e+01  -2.043340e+01
   5.819977e+01  -5.898614e+01
   1.023587e+02  -2.734581e+01
   3.128745e+01   2.513350e+01
  -3.216098e-01   7.830608e+01
  -6.977498e+01   3.273516e+01
  -5.990632e+01   1.066589e+01
   5.469086e+00  -4.888737e+01
   5.251064e+01   9.641231e+00
  -9.263322e+01  -2.178840e+01
  -3.221586e+01   5.176147e+00
