
 $NMID
 id='ANONYMOUS ', fmtdat='(2E16.6)'
 volume=1.0
 tramp=1.0
 $END
  -2.225479e+03   2.729565e+02
  -1.755862e+03  -1.080977e+03
  -2.677169e+02  -1.447736e+03
   8.774026e+02  -1.052739e+03
   9.587561e+02  -4.377623e+02
   3.693069e+02   4.319076e+01
  -1.405381e+02   6.765301e+01
  -1.530538e+02  -3.889529e+02
   2.436445e+02  -4.972528e+02
   4.032420e+02  -7.113899e+01
   3.640224e+02   2.832004e+02
   1.422917e+02   5.577061e+02
  -2.794213e+02   7.721366e+01
  -2.633775e+02  -2.642557e+02
  -1.112440e+02  -4.456380e+02
   4.023521e+02  -2.267387e+02
   2.748988e+02   2.786993e+02
  -6.630027e+01   4.342983e+02
  -4.252149e+02   5.320504e+02
  -5.383225e+02   8.224925e+01
  -7.008639e+01  -2.699856e+02
   9.180321e+01  -1.838838e+02
   6.853769e+01  -2.192406e+02
  -6.033458e+01  -2.918995e+02
  -2.367876e+02  -2.250838e+02
   7.146943e+01  -2.705611e+02
   4.227898e+02  -6.439868e+01
   4.881002e+02   2.119674e+02
   1.531547e+02   2.186953e+02
  -2.146387e+02   1.434299e+02
  -3.578588e+02  -1.068300e+02
  -6.157973e+01  -2.573977e+02
   2.335508e+02  -2.620179e+02
   2.509354e+02  -6.415568e+01
   2.166891e+02   1.226005e+02
   7.251806e+01   2.447255e+02
   7.064611e+01   7.899798e+01
   9.479493e+01  -6.941991e+00
   1.215765e+02   2.589935e+00
   5.941787e+01   1.332244e+02
  -1.026105e+01   3.695349e+02
  -1.321350e+02   2.609959e+02
  -2.347665e+02  -3.507450e+01
  -8.639523e+01  -1.842902e+02
   4.239846e+01  -7.824933e+01
   8.911860e+01   1.444738e+02
  -7.301715e+01   3.254745e+02
  -3.702276e+02   6.319807e+01
  -3.972918e+02  -2.347131e+02
  -1.589447e+02  -3.463535e+02
   2.514312e+02  -2.335732e+02
   4.127981e+02   5.262206e+01
   2.715958e+02   1.141577e+02
  -1.158680e+01   1.847468e+02
  -2.259365e+02   1.112825e+02
  -1.727248e+02   8.111685e+01
  -5.915972e+01  -7.612775e+00
   3.735072e+01  -3.744797e+01
  -7.788681e+01  -9.624627e-01
  -1.671488e+02  -2.580123e+01
  -1.036368e+02  -1.021539e+02
   1.051870e+02  -2.377576e+02
   3.390538e+02  -1.577893e+02
   3.024068e+02   1.021539e+02
  -8.257620e+00   2.978034e+02
  -2.983820e+02   3.825725e+02
  -3.257340e+02   1.471398e+02
  -1.818354e+02  -1.283770e+02
  -5.286895e+01  -2.633183e+02
  -2.258750e+01  -2.133264e+02
  -1.994788e+01  -1.750560e+02
   6.179518e+01  -9.919716e+01
   1.580030e+02  -1.030778e+02
   2.115752e+02  -5.247893e-01
   1.368960e+02   1.118005e+02
   5.017122e+01   2.141755e+02
  -9.475680e+01   1.394599e+02
  -1.494847e+02  -8.665141e+00
  -1.180654e+02  -2.025452e+02
   4.801688e+01  -2.062032e+02
   1.972839e+02  -6.023824e+01
   2.481830e+02   1.340324e+02
   1.825717e+02   2.227031e+02
  -6.096146e+01   2.041852e+02
  -1.296890e+02   1.692821e+02
  -7.847923e+01   1.334724e+02
  -2.042429e+02   6.044040e+01
  -2.141212e+02   2.637179e+01
  -3.326151e+02  -7.089008e+01
  -2.458236e+02  -2.781866e+02
   1.903873e+01  -3.654891e+02
   3.208780e+02  -2.695563e+02
   4.027413e+02  -7.189051e+01
   1.668388e+02   1.540925e+02
  -2.056752e+01   1.969939e+02
  -1.009199e+02   1.139844e+02
  -4.920322e+01   3.473147e+01
   9.116525e+01  -3.370003e+01
   7.343020e+01   3.321320e+01
   1.182321e+01   7.821368e+01
  -9.094448e+01   6.222879e+01
  -9.201530e+01  -1.013691e+02
   1.469222e+01  -1.618028e+02
   1.632593e+02  -2.259036e+01
   1.676779e+02   2.004632e+02
   7.412699e+00   3.015312e+02
  -2.218153e+02   1.791073e+02
  -3.078157e+02  -4.594328e+01
  -2.069243e+02  -2.062822e+02
  -4.003849e+01  -2.386761e+02
   1.668998e+02  -9.417108e+01
   7.667367e+01   9.668852e-01
   4.896214e+00   1.591969e+00
  -5.045761e+01  -2.310452e+01
   1.985664e+01  -5.762304e+01
   1.162999e+02  -3.544747e+01
   9.593613e+01  -6.395728e+00
   9.842094e+00   2.203035e+01
  -8.221041e+01   1.567446e+01
  -5.846656e+01  -5.468379e+01
   1.377232e+02  -8.930932e+01
   2.225073e+02   2.473087e+01
   2.028628e+02   1.431407e+02
   3.000672e+01   2.251015e+02
  -2.465742e+02   1.508576e+02
  -2.069184e+02   1.687856e+01
  -1.155970e+02  -1.217439e+02
   1.933830e+01  -6.232721e+01
   8.902249e+01   3.073902e+01
   2.906409e-01   1.063320e+02
  -8.419627e+01  -1.758691e+01
  -1.470646e+02  -4.604194e+01
  -3.981333e+01  -1.545856e+02
   4.174144e+01  -9.004961e+01
   1.014961e+02   9.640367e-01
   3.367165e+01   5.756100e+01
  -6.065066e+01   1.415236e+01
  -3.212519e+01  -1.214794e+02
   9.501582e+01  -1.260001e+02
   1.618953e+02  -3.959641e+01
   1.050044e+02   1.433379e+02
  -5.926292e+00   2.323475e+02
  -1.552633e+02   1.288943e+02
  -7.392321e+01   2.684319e+01
  -7.166571e+01  -1.047773e+02
   4.533470e+01  -6.942672e+01
   4.466672e+01   4.805474e+00
  -3.157548e+01   5.988077e+01
  -8.649950e+01  -1.957033e+01
  -3.228223e+01  -4.049529e+01
   7.958778e+01  -7.483786e+01
   1.249640e+02   1.018305e+02
   1.771442e+01   1.644323e+02
  -1.014269e+02   1.339269e+02
  -1.941252e+02   3.492519e+01
  -1.816837e+02  -1.624360e+02
  -6.959635e+01  -1.504767e+02
   9.707572e+01  -1.395645e+02
   1.056419e+02   3.222682e+01
   1.239928e+02   4.111532e+01
   4.957576e+01   5.309173e+01
   7.777145e+01   3.066664e+01
   4.878105e+01   1.577444e+00
   3.953016e+01   5.288246e+01
  -8.568207e+01   8.043168e+01
  -1.254089e+02   5.028066e+01
  -1.039207e+02  -6.136915e+01
   2.745380e+01  -1.254768e+02
   1.298585e+02  -1.090155e+02
   2.133872e+02   7.472376e+01
   6.007469e+01   1.945684e+02
  -1.379559e+02   1.823247e+02
  -2.324922e+02   6.457231e+01
  -1.980757e+02  -1.121247e+02
  -4.058242e+01  -1.470814e+02
   4.146489e+01  -1.041069e+02
   6.645974e+01  -4.268549e+01
   3.087070e+01  -1.499155e+01
  -3.525957e+00  -9.952599e+01
   9.292468e+01  -6.399519e+01
   1.172852e+02   5.128820e-01
   8.270512e+01   1.128824e+02
   2.543059e+00   1.964139e+02
  -9.221352e+01   1.078091e+02
  -1.540126e+02  -2.209261e+01
  -1.037901e+02  -9.499098e+01
   4.430013e+01  -1.410689e+02
   6.141176e+01  -2.352742e+01
   2.717398e+01   1.392315e+01
  -3.024665e+00   6.770079e+01
  -5.599954e+01   3.090182e+01
   5.008893e+01  -1.801114e+01
   8.449515e+01  -1.761779e+01
   6.664640e+01   2.830197e+01
  -3.406636e+01   4.017851e+01
  -1.478255e+02   2.916024e+01
  -1.194526e+02  -8.295070e+01
   1.812851e+01  -9.389276e+01
   1.276150e+02  -5.912975e+01
   1.472995e+02  -1.633117e+00
   2.607808e+01   8.500122e+01
  -5.230306e+01   5.703315e+01
  -7.742387e+01   1.394624e+01
  -1.759644e+01  -8.423758e+01
   5.196958e+01  -1.109112e+02
   4.195612e+01   4.339299e+01
   6.569354e+01   2.340873e+01
   4.468427e+01   1.513672e+00
   3.938802e+01  -3.925949e+01
   9.463801e+01  -2.364259e+01
   4.362934e+01   8.588371e+01
   1.953869e+01   1.398490e+02
  -5.589027e+01   1.172405e+02
  -1.896046e+02  -2.164060e+00
  -1.172042e+02  -1.041290e+02
   8.968889e+00  -1.317325e+02
   6.950066e+01  -5.437445e+01
   1.121031e+02   2.494426e+01
  -2.267720e+01   1.877285e+01
  -1.175999e+02   2.306128e+01
  -8.275305e+01  -4.285248e+01
   6.176442e+01  -1.034457e+02
   1.275437e+02  -5.540277e+01
   7.368960e+01   6.625967e+00
   8.013954e+01   5.002032e+01
  -6.815544e+01   3.989594e+01
  -1.643277e+01   1.891658e+01
  -1.683865e+00  -3.716933e+01
   1.012036e+02   4.887615e+01
   3.347141e+01   1.106151e+02
  -5.715088e+01   1.632986e+02
  -1.284276e+02   4.331352e+01
  -1.542935e+02  -9.876635e+01
  -2.826926e+01  -1.652640e+02
   2.347262e+01  -7.396868e+01
   9.305412e+01   3.348860e+01
   6.569672e+01   5.849988e+01
  -4.451146e+00   5.747457e+01
  -1.402858e+01  -5.999007e+00
  -2.486426e+01  -3.598433e+01
   3.818252e+01  -1.518182e+01
   3.086425e+00   3.809719e+01
  -8.329345e+01  -3.569991e+01
  -8.515637e+01  -6.424260e+01
  -2.876397e+01  -8.411268e+01
   5.056161e+01  -3.154559e+01
   1.168235e+02   9.701580e+00
   1.174178e+02   6.395032e+01
   3.690269e+01   1.007525e+02
  -1.261006e+02   2.786570e+01
  -9.124740e+01  -3.620362e-01
  -6.336863e+00   2.159835e+00
   2.895377e+01  -6.645108e+01
   3.109181e+01  -8.034635e+00
  -3.393250e+01   2.063210e+01
  -9.453696e+00  -1.725616e+00
   1.180857e+01  -1.927330e+01
   1.040725e+02  -8.987692e+00
   2.115219e+01   9.783123e+01
  -7.636588e+01   1.559833e+02
  -1.456177e+02   9.730229e+01
  -1.596794e+02  -5.759237e+01
  -8.559245e+01  -1.597752e+02
   7.437217e+01  -1.695950e+02
   8.794292e+01  -4.459551e+01
   5.133873e+01  -3.357257e+00
  -1.390844e+01   2.244900e+01
   3.565018e+01   2.491262e+01
  -7.788210e+00  -3.355500e+01
   2.270805e+01   1.692055e+01
   4.391051e+01   2.167956e+01
  -3.976424e+01   6.218539e+01
  -5.735857e+01  -3.436216e+01
  -8.542990e+01  -8.070443e+01
  -5.275570e+01  -8.188972e+01
   3.251992e+01  -6.947819e+01
   1.179753e+02   4.484170e+01
   8.142142e+01   1.002726e+02
  -7.244477e+01   4.973388e+01
  -8.198441e+01  -4.850955e+01
  -8.851360e+01  -5.183968e+01
   6.686580e-01  -4.772911e+01
   6.524206e+01  -6.399222e+01
  -3.755255e+01  -3.233295e+01
  -4.761457e+01   4.232926e+01
   6.104250e+00  -9.989722e+00
   6.783519e+01  -1.058238e+02
   1.317780e+02   1.445935e+01
   8.355959e+01   3.347119e+01
  -2.119568e+01   7.056840e+01
  -2.950106e+01   8.276658e+01
  -6.821284e+01  -7.479290e+00
  -2.100325e+01  -5.108881e+01
   7.328894e+00  -6.200039e+01
   6.549960e+01  -6.562884e-01
   3.411999e+01   6.999131e+01
  -2.989467e+01   2.924969e+01
  -3.991842e+01  -1.884886e+01
  -6.969009e+01  -9.174509e+01
  -1.392158e+01  -3.554596e+01
   1.128347e+01   2.470268e+01
   1.690387e+01  -2.380480e+01
  -5.321326e+01  -5.729453e+01
  -3.807889e+01  -6.666771e+01
  -3.523993e+00  -7.871832e+01
   5.749505e+01   3.048205e+00
   5.696062e+01   8.423791e+01
  -7.419821e+00   5.206312e+01
  -5.408533e+01   6.517085e+00
  -7.160299e+01  -7.825193e+01
   2.957380e+01  -2.497317e+01
   6.223105e+01  -5.418641e+01
   8.555659e+01   4.443942e+01
  -1.438988e+01   6.719112e+01
  -7.054962e+01   9.304541e+01
  -2.857293e+01  -2.060798e+00
  -9.494236e+00  -1.125198e+01
   2.514939e+01  -4.070842e+01
  -3.096815e+00   6.159348e+01
  -5.263423e+01   1.145965e+00
