
 $NMID
 id='ANONYMOUS ', fmtdat='(2E16.6)'
 volume=1.0
 tramp=1.0
 $END
   3.981602e+02   8.253248e+01
   2.161549e+02   1.195265e+02
   9.235319e+01   2.211839e+02
  -3.964158e+01   2.679504e+02
  -1.104839e+02   1.909243e+02
   2.862460e+01   7.665858e+01
   8.132793e+01   9.050222e+01
   7.674167e+01   1.096909e+02
  -3.076889e+00   1.715773e+02
  -1.707472e+02   1.526680e+02
  -8.386194e+01   1.614372e+01
  -8.075296e+01  -3.538314e+01
   2.762740e+01  -5.679216e+01
   5.299881e+01   1.817170e+01
  -1.887971e+01   6.406553e+01
  -5.185194e+00  -4.543221e+01
  -6.352740e+01  -3.709240e+01
  -2.107270e+01  -6.235301e+01
   1.267856e+02   3.585265e+01
   3.119310e+01  -3.306749e+00
   1.567397e+01  -1.837104e+01
  -6.421403e+01   4.262477e+01
   8.323444e+00  -1.064028e+02
  -3.829440e+01   6.967683e+01
   3.357801e+01   1.101832e+02
  -4.781746e+01   3.270216e+01
  -1.387716e+02   3.227163e+01
  -1.155416e+02  -1.274652e+02
  -5.433115e+01  -8.447358e+01
  -3.026955e-01  -1.662044e+01
   1.571552e+01  -1.059492e+01
  -2.645971e+01   4.396831e+01
  -4.088627e+01  -7.322247e+01
  -5.193394e+01  -3.737808e+01
   1.184319e+01  -3.946524e+01
   2.327967e+01  -2.663335e+01
   5.653981e+01   3.254236e+01
  -2.374650e+01   6.931693e-01
  -1.969331e+01   3.290370e+01
   2.023437e+01   1.670430e+01
   2.163924e+00  -1.327112e+01
  -9.346942e+00   1.893038e+01
   7.125625e+00  -4.797784e-01
   1.591163e+01   4.929770e+01
  -2.325035e+01   2.199455e+01
  -1.140661e+01  -4.836140e+01
   1.010891e+01  -4.496282e+01
   3.179651e+01   2.086017e+01
   3.472849e+01   7.304436e+01
   2.513180e+01   3.726506e+01
  -3.253022e+01   1.224277e+01
  -6.290744e+01  -9.312344e+00
  -4.337545e+01  -2.085423e+01
  -7.803307e+00  -3.210293e+01
   3.722185e+01  -3.056539e+01
   2.777421e+01  -2.082490e+01
   7.781453e+00   2.334655e+01
   5.089615e+01   1.631363e+01
  -1.788409e+01   6.283363e+00
   4.885048e+00  -2.677169e+00
   3.394941e+00  -7.024557e+00
   2.023537e+00   2.103577e+01
  -4.227828e+01   2.703546e+01
  -8.956199e+00  -5.361424e+00
  -3.164541e+01  -4.201633e+01
  -1.246906e+01  -2.354245e+01
   7.961184e+01  -4.986031e+01
   4.048570e+01  -6.469906e+00
   4.096733e+00   1.176967e+01
  -2.015463e+01   3.187838e+01
   2.928983e+01   4.253091e+00
   1.381639e+01   3.874537e+01
  -2.205741e+01   8.463107e+01
  -3.778431e+01   7.944877e+00
  -2.302647e+01  -1.061487e+01
   1.478784e+01  -3.992998e+01
   4.608787e-01  -2.909080e+01
   1.543613e+01   9.493561e+00
   2.030162e+01   6.924190e+00
   1.093438e+01   5.675962e+00
  -5.880627e+00  -7.341787e+00
   4.277581e+00  -1.645127e+01
   7.695760e+00  -1.389153e+01
  -4.118931e+01   3.874291e+00
   3.834355e-01   2.897161e+00
   1.976469e+00  -1.264536e+01
   7.926799e+00  -1.442371e+01
   1.943896e+01   4.605523e+00
   8.494954e+01   5.193783e+01
   6.494503e+01   1.231991e+00
  -2.327296e+01   9.425509e+01
  -5.296241e+01   6.306356e+01
  -5.181817e+01   5.100038e+01
  -9.316902e+00  -3.951802e+01
   5.021969e+00  -4.756328e+01
   4.255131e+00  -3.075150e+01
  -5.588296e+01   5.363910e+01
  -5.442984e+00   5.304276e+01
  -2.987309e+01  -6.494274e+01
  -1.209550e+01   1.660389e+01
   2.689485e+01  -4.549506e+00
   4.072952e+00   5.343988e+01
   6.014199e+00   4.578852e+01
  -3.449849e+01   1.061106e+01
  -3.116916e+01  -1.596745e+01
   1.930328e+00  -6.764631e+01
   2.421792e+01  -3.571350e+01
   2.420310e+01   1.332149e+01
   6.755096e+00  -4.701873e+00
  -3.945581e+01   2.473929e+01
  -2.374081e+01   3.223714e+01
  -1.583113e+01  -2.758993e+01
  -1.397454e+01  -1.766373e+01
   2.020292e+01  -2.552451e+01
   1.351848e+01   4.888786e+00
   1.350277e+01   2.206918e+01
   2.339398e+01  -1.931806e+01
  -2.136675e+01  -7.511178e+00
   2.164120e+01   1.034045e+01
  -1.826568e+01   3.505386e+01
  -1.779609e+01   2.804087e+01
  -5.793339e+01  -1.460845e+01
  -4.737715e+01  -5.720005e+01
  -3.508412e+01  -3.314500e+01
   4.707906e+01   9.082521e+00
   1.192534e+01   3.004341e+01
   2.637711e+01  -8.308759e+00
  -5.294903e+01  -2.174736e+01
  -4.619584e+01   2.701117e+01
   8.999792e+00  -2.777511e+01
   4.289810e+01  -4.911458e+00
   2.929175e+01  -5.124473e+01
  -2.401681e+01   1.226084e+01
  -4.033618e+01  -1.067392e+01
  -3.211335e+00   3.693995e+01
   4.580842e+00  -7.082500e-01
   7.264801e+00   8.856562e+00
  -3.066652e+01   1.377235e+01
   2.391304e+01   1.397405e+01
  -6.290081e+01  -1.154830e+01
  -3.997001e+01   5.658641e-01
   2.600155e+01  -3.907632e+01
   5.724042e+01  -4.885315e+01
   1.910361e+01  -2.394547e+01
   2.960914e+01  -2.534827e+01
  -6.161100e+00   3.068112e+01
  -7.520165e+00   2.346024e+01
  -8.526536e+00   2.144763e+01
  -8.554245e+00  -2.776752e+01
  -1.543405e+01   2.433735e+01
   1.212755e+01  -2.089242e+01
   2.438667e+00  -2.312079e+01
   2.405362e+01  -1.127138e+01
   4.928522e+01  -3.954369e+00
   7.816298e+01   2.253661e+01
   1.858614e+00   4.582985e+01
  -2.502437e+01   5.645578e+01
  -2.562378e+01   2.571051e+01
  -6.526580e-01  -4.743418e+00
   2.471255e+01  -2.967593e+01
   6.935855e+00  -2.658627e+01
  -2.673748e+01   9.672090e+00
  -1.114965e+01   5.672329e+00
  -2.268450e+01  -2.010579e+01
  -9.002701e+00  -9.058353e+00
   3.296842e+01   4.631867e+01
   3.852410e+01  -1.256163e+01
  -2.512714e+01   2.928332e+01
  -2.203268e+00  -3.784698e+01
  -9.350925e+00  -2.487636e+01
   2.081277e+01  -5.398171e+01
   6.135122e+01   4.604111e+00
   5.876658e+01   2.370260e+01
   2.226411e+01   4.373544e+01
   1.005418e+01   1.357702e+01
  -3.683066e+01   4.116568e+01
  -4.239233e+01  -3.212213e+00
  -2.158614e+01  -4.672360e+00
  -3.387584e+01   9.366442e+00
   3.891513e+00  -1.879916e+01
  -2.256575e+00  -2.444470e+01
   8.548127e+00  -3.148770e+01
   1.229370e+01   1.501611e+01
   2.091018e+01   3.681542e+00
  -1.000279e+01  -1.952920e+01
   5.554018e+00   2.039406e+00
  -3.997376e+01  -1.757125e+01
   6.647324e+00  -8.764416e+00
  -2.636033e+01  -8.394870e-01
   3.002048e+01   3.603080e+00
   7.610877e+00  -1.736696e+01
   3.484842e+01   1.166873e+01
   4.443969e+00   4.472587e+00
  -2.565436e+01   1.625435e+01
   9.469430e-01  -6.477019e+00
   8.825727e+00  -8.403634e+00
   1.060757e+01  -1.500244e+01
  -2.705973e+01   3.729866e+01
   1.957047e+01   1.102957e+01
  -2.659642e+01  -7.857106e+00
  -1.271815e+01  -5.531075e+01
   3.395051e+01  -3.854296e+00
  -3.695883e+00   2.849413e+01
   3.870586e+01   4.348324e+01
  -1.076268e+01   3.467350e+01
  -5.939981e+00  -1.023276e+01
  -3.998024e+01  -1.561590e+01
  -5.347446e+01  -1.552676e+01
  -1.565997e+01  -1.738571e+01
  -1.060344e+01   3.593771e-02
   2.586620e+01  -1.605523e+01
   3.670044e+01  -5.977915e+01
   2.263411e+01   7.644481e+00
   1.642489e+01   7.858725e+01
   2.382694e+01   2.283171e+01
  -4.615260e+01   3.771124e+01
  -1.808958e+00  -5.650625e+01
  -2.433964e+01  -3.116739e+01
   3.351749e+01  -1.400114e+01
   2.107679e+01  -2.726285e+01
   1.366403e+01   1.858551e+01
  -1.834911e+01  -8.552325e+00
  -7.722817e+00   1.286367e+01
  -2.338304e+01  -6.129174e+01
  -7.588340e+00  -1.240836e+01
  -3.190732e+01  -7.869170e-01
   3.390444e+01  -1.165672e+01
   6.162846e+01  -3.074853e+00
  -4.046472e+01  -4.353229e+01
  -2.261017e+01  -2.841210e+01
   1.564871e+01  -2.979201e-01
   4.119628e+01  -9.752752e+00
   9.733933e+00  -1.772295e+01
   2.354352e+00   6.706686e+00
  -1.156495e+01   3.659707e+01
  -4.682165e+01   8.596289e-01
  -2.410174e-01  -1.589744e+01
   8.623473e+00   3.302712e-01
   3.949779e+01  -6.323848e+00
   1.005586e+01  -2.288884e+01
  -1.857271e+01   2.073641e+01
  -1.254633e+01  -2.814437e+01
  -3.595039e+01  -1.257683e+01
  -5.865586e-01   1.917715e+01
  -5.736561e+01  -1.893793e+01
  -6.532936e+01   1.147810e+01
   1.348709e+00  -8.940086e+00
   6.742807e+00  -3.656304e+01
   1.992682e+01  -9.371875e+00
   4.345597e+01   3.924761e+00
   1.475269e+01   2.337663e+01
   2.386140e+01   2.190557e+01
   1.283040e+00   4.478166e+01
  -1.315214e+01   5.473275e+00
   4.433873e+00  -1.819520e+01
   8.852400e+00   1.631185e+01
  -4.814862e+01  -2.979038e+01
  -2.626009e+01   8.594130e-01
   1.485440e+00   1.340773e+01
   6.095901e+01   2.479131e+01
   2.224793e+01  -2.507240e+00
   4.298496e+00   8.186818e+00
  -5.902824e+01   1.144766e+01
  -3.214146e+01   1.521886e+01
  -3.030786e+01   2.768173e+01
  -1.642747e+01  -4.820280e+01
   7.950898e+00  -2.889944e+01
  -2.357309e+01  -4.712490e+00
  -2.657201e+01  -2.503718e+00
  -2.075306e+01  -4.523295e+00
   4.517723e+01  -3.726219e+01
  -1.939282e+01   8.580164e+00
  -1.550554e+01   1.184166e+01
  -2.057766e+01   9.728229e+00
  -9.647961e+00   3.181931e+01
  -1.775128e+01   9.631604e-01
  -3.410292e+00  -1.443643e+01
  -4.388840e+01  -1.671340e+01
  -1.846837e-01   3.544498e+00
   4.492768e+01   2.735339e+00
   1.444578e+01   4.329127e+01
  -1.909017e+01   2.852140e+01
   2.436736e+01  -1.611048e+00
   3.232881e+01   1.933218e+01
   3.622153e+01   3.515689e+00
  -3.627878e+01  -1.084688e+00
  -4.636026e+01  -1.188447e+01
  -4.692880e+01  -1.037319e+01
  -4.286894e+01   5.775615e+00
  -2.325069e+01   4.810417e+00
  -4.964030e+01   1.512691e+01
   6.156809e+00  -2.986106e+01
  -2.048305e+00   2.642188e+01
  -4.516736e+00   4.651725e+00
  -2.460480e+01  -3.420741e+01
  -2.439834e+01  -3.275812e+01
   2.446155e+01  -2.722596e+00
   1.084124e+01   2.569431e+01
   2.663263e+01  -2.958512e+01
  -1.258350e+01  -1.739563e+01
  -2.213773e+01  -2.251605e+01
  -3.235121e+01   4.575778e+00
  -2.278989e+01   7.487297e+00
   2.251835e+01  -2.319916e+01
   1.448492e+01   5.655685e+00
   1.248461e+01  -1.353183e+00
   3.908054e+01   4.739712e+00
  -8.769840e+00   4.251616e+00
  -5.138546e+00  -8.138566e+00
   2.167845e+01   2.885173e+01
  -2.248434e+01   6.743868e+00
  -1.313354e+01   8.597777e+00
  -1.188071e+01   1.635107e+01
   3.177950e+01  -9.007048e+00
   4.146452e+01  -1.473908e+01
   2.352653e+01  -3.280062e+00
  -1.791137e+00   1.612537e+01
   6.595048e+00   1.901788e+01
   2.096371e+01   8.707110e+00
  -4.051087e+01   7.304967e+00
