
 $NMID
 id='ANONYMOUS ', fmtdat='(2E16.6)'
 volume=1.0
 tramp=1.0
 $END
  -2.029242e+03   2.263611e+01
  -1.275160e+03  -9.175792e+02
  -1.465369e+01  -1.244015e+03
   6.000613e+02  -8.630734e+02
   5.788536e+02  -4.207806e+02
   1.686302e+02   1.145377e+02
  -2.100637e+02   1.732992e+02
  -8.998794e+01  -2.524404e+02
   1.215724e+02  -3.967125e+02
   2.805916e+02  -1.062681e+02
   3.585233e+02   1.194769e+02
   2.160583e+01   4.543690e+02
  -1.882831e+02   3.292295e+02
  -2.263387e+02  -1.144243e+02
   9.682562e+00  -2.554304e+02
   3.192757e+02  -5.370560e+01
   1.097467e+02   3.014800e+02
  -2.033224e+01   4.569578e+02
  -1.441625e+02   2.035712e+02
  -2.354250e+02  -5.768591e+01
  -4.817339e+01  -3.123620e+02
  -9.649383e+01  -9.366680e+01
   4.963688e+00   9.267634e+00
  -1.537808e+02  -9.065867e+01
  -2.447967e+02  -3.218040e+02
   2.173143e+01  -2.915694e+02
   1.210097e+02  -4.933862e+01
   3.265279e+02   1.655660e+02
   8.332404e+01   1.364639e+02
  -1.747313e+02  -4.010209e+01
  -2.374726e+02  -5.858397e+01
   1.398629e+01  -1.120670e+02
   2.030341e+02  -1.516169e+02
   2.463345e+02  -1.258343e+02
   1.180450e+02   8.118567e+01
  -5.769995e+01   1.351728e+02
  -3.577519e+01   7.915145e+01
   3.915062e+01  -2.912056e+00
   1.045208e+02  -3.034945e+01
   7.078952e+01   7.153659e+01
   4.199933e+01   2.324096e+02
  -9.464230e+01   2.351223e+02
  -1.779720e+02  -3.044020e+01
  -1.021293e+02  -9.664735e+01
   9.246416e+00  -2.035029e+01
   6.900385e+01   2.012265e+02
  -8.821860e+01   1.323474e+02
  -2.649964e+02  -4.011718e+01
  -2.810898e+02  -2.215710e+02
  -8.924469e+01  -2.549077e+02
   2.010490e+02  -1.093463e+02
   3.323721e+02   3.144973e+01
   1.822220e+02   1.072486e+02
  -3.985777e+01   1.019516e+02
  -1.557901e+02   7.859347e+01
  -1.398610e+02   5.256976e+01
   1.937731e+01   1.080369e+01
  -1.541159e+01  -4.482879e+00
  -5.874100e+01  -2.404205e+01
  -1.319672e+02  -8.289776e+01
  -9.620310e+01  -1.107378e+02
   6.100953e+01  -1.083401e+02
   2.380370e+02  -1.156262e+02
   1.858409e+02   4.533553e+01
   2.078116e+01   1.975947e+02
  -2.290381e+02   2.132360e+02
  -2.324748e+02   7.708388e+01
  -1.361975e+02  -1.262761e+02
   1.164091e+01  -2.008770e+02
  -6.948493e+00  -2.068982e+02
   4.987660e+00  -1.239077e+02
   5.375588e+01  -8.734588e+01
   1.436669e+02  -2.909567e+01
   1.583777e+02  -1.522275e+01
   1.091790e+02   9.377087e+01
  -2.207723e+00   1.507815e+02
  -9.950004e+01   1.016040e+02
  -1.476361e+02  -1.699829e+01
  -6.401895e+01  -1.373942e+02
   4.607990e+01  -1.420948e+02
   1.374043e+02  -9.984208e+01
   2.251236e+02   4.166348e+01
   1.391661e+02   1.440069e+02
  -1.465129e+01   2.210939e+02
  -1.004397e+02   1.095007e+02
  -6.748540e+01   1.072648e+02
  -5.281212e+01   7.129123e+01
  -1.981347e+02  -9.475475e+00
  -2.460591e+02  -6.447800e+01
  -2.409913e+02  -1.633036e+02
  -2.791302e+01  -2.516185e+02
   2.374567e+02  -2.200391e+02
   3.087265e+02  -8.856565e+01
   1.532642e+02   5.429678e+01
   8.768180e-01   1.106158e+02
  -5.535379e+01   9.283477e+01
  -2.117547e+01   4.547342e+01
   5.950897e+01   2.398871e+01
   5.385936e+01   7.797535e+01
  -3.206537e+01   1.129050e+02
  -1.213761e+02   7.836973e+01
  -6.326292e+01  -4.151834e+01
  -8.148809e+00  -7.120162e+01
   1.310476e+02   1.317636e+01
   1.136612e+02   8.696108e+01
   7.456338e+01   1.987593e+02
  -1.794127e+02   1.187464e+02
  -2.394561e+02  -5.798126e+00
  -1.725662e+02  -1.922029e+02
  -2.183259e+01  -1.271152e+02
   6.433094e+01  -4.829594e+01
   8.214465e+01  -2.706431e+01
   1.726254e+01   1.561045e+01
  -2.258845e+00  -2.734336e+01
  -1.116272e+01  -3.308706e+01
   7.028060e+01  -2.010269e+01
   6.580093e+01   8.124973e+00
   1.634733e+01   7.255685e+01
  -6.365529e+01  -1.759771e+01
  -2.786897e+00  -4.668577e+01
   1.069155e+02  -7.604050e+01
   1.485632e+02  -7.261301e+00
   1.698638e+02   1.261733e+02
   4.132274e+01   2.128257e+02
  -1.260384e+02   2.083118e+02
  -1.374725e+02   5.000341e+01
  -1.106350e+02  -2.950110e+01
  -6.324503e+00  -5.394048e+01
  -1.431870e+01  -3.440881e+01
  -4.537013e+01   1.097470e+01
  -8.774213e+01  -3.566890e+01
  -1.160645e+02  -2.790148e+01
  -6.359581e+01  -9.277916e+01
   7.770007e+01  -6.821942e+00
   5.540205e+01  -1.942807e+01
   7.663573e+00  -1.228260e+01
  -3.857453e+01  -3.999956e+01
  -2.228632e+00  -1.183919e+02
   9.746592e+01  -8.679087e+01
   1.581900e+02  -3.891033e+01
   1.401742e+02   7.621790e+01
   1.219292e+01   1.788094e+02
  -9.957095e+01   1.073631e+02
  -1.232467e+02  -7.947386e+00
  -8.348289e+01  -8.610748e+01
   2.716507e+01  -6.891529e+01
   2.942970e+01   7.215072e+00
   8.726755e+00   3.364755e+01
  -4.080149e+01   1.803473e+01
   1.679650e+01  -3.989532e+01
   1.309041e+01  -4.708390e+01
   7.784587e+01   7.353138e+01
   1.536036e+01   1.351457e+02
  -1.021346e+02   1.328687e+02
  -1.669111e+02   8.303342e+00
  -1.271291e+02  -8.291175e+01
  -9.389434e+01  -1.657759e+02
   2.605320e+01  -1.375130e+02
   1.023854e+02  -2.051595e+01
   1.706270e+01   2.921830e+01
   3.641138e+01   2.522657e+01
   4.021333e+01  -2.530833e+01
   6.941204e+01  -3.475425e+00
   7.215606e+01   1.807809e+01
  -2.430938e+01   7.777129e+01
  -2.294248e+01   8.140210e+01
  -7.875132e+01   1.070509e+01
   1.244119e+01  -6.149177e+01
   1.046021e+02  -4.548892e+01
   1.476362e+02   2.673035e+01
   3.376067e+01   1.621723e+02
  -7.388270e+01   1.520692e+02
  -1.351647e+02   8.156528e+01
  -1.523476e+02  -1.262376e+01
  -7.992628e+01  -5.943035e+01
   3.813882e+00  -1.432111e+02
   3.561344e+01  -6.675185e+01
   3.381891e+01  -7.754174e+01
   5.936488e+01  -8.513916e+01
   5.779527e+01  -3.685970e+01
   8.314637e+01   5.626785e+01
   9.098693e+01   1.323655e+02
   2.842919e+01   1.156184e+02
  -9.466022e+01   8.749589e+01
  -1.326118e+02   2.633393e+01
  -1.005823e+02  -9.784789e+01
   1.086421e+01  -1.537402e+02
   6.434786e+01  -3.026014e+01
   3.496657e+01   8.031963e+00
   4.602704e+01   3.625787e+01
  -1.913602e+01  -4.467619e+00
   1.792958e+01   3.717468e+01
   6.408734e+01   4.390338e+01
   3.652363e+01  -2.697570e+00
  -3.479694e+00   6.187878e+01
  -1.531489e+02  -8.454090e+00
  -7.067209e+01  -7.065487e+01
  -6.822779e+00  -1.836057e+01
   5.405552e+01  -4.236090e+01
   8.750164e+01  -1.085834e+01
   4.842240e+01   3.097261e+00
  -5.190089e+01   2.452712e+01
  -7.765902e+01  -1.351568e+01
   4.627324e+00  -5.365716e+01
   1.509412e+01  -9.150082e+01
   8.905101e+01   2.162331e+01
   5.121348e+01  -3.221470e+01
   5.897919e+01   3.888359e+01
   1.846276e+01  -7.665265e+00
   4.264742e+01   1.617806e+01
  -1.667199e+01   5.933194e+01
   7.621570e+00   1.062090e+02
  -9.372374e+01   8.992807e+01
  -1.223632e+02   2.825836e+01
  -4.553539e+01  -2.397507e+01
  -6.378576e+00  -1.072746e+02
   2.744554e+01  -7.085169e+01
   3.670895e+01   7.431484e+01
  -4.996276e+01  -3.213768e+01
  -7.609218e+01  -3.931680e+01
  -7.603978e+01  -1.256766e+02
   8.975802e+01  -1.254029e+02
   1.185633e+02  -4.424007e+01
   1.025651e+02   3.158511e+01
   1.438378e+01   4.335336e+01
  -3.914385e+01  -6.613139e-01
  -6.663560e+01   1.763574e+01
   4.944036e+01   3.399982e+00
   1.159723e+02  -7.406295e-01
   4.987825e+01   6.400803e+01
  -7.251104e+01   1.150853e+02
  -9.050195e+01   1.701064e+01
  -6.629266e+01  -7.405132e+01
  -9.904248e+00  -1.147630e+02
   4.190569e+01  -5.005751e+01
   7.943628e+01  -6.093594e+00
   2.362748e+00   6.230915e+01
  -3.567637e+01   3.158180e+01
  -1.006857e+02   1.978461e+00
  -2.754344e+01  -2.006267e+00
  -1.824141e+01   4.774110e-01
  -5.024835e+01  -2.386134e+01
  -4.852492e+01  -6.661020e+00
  -4.197206e+01  -7.847422e+01
  -6.858454e+01  -1.072488e+02
   1.803843e+01  -9.329787e+01
   8.874004e+01   4.079507e+01
   1.126080e+02   5.665439e+01
   5.990592e+01   6.812860e+01
  -7.907914e+01   1.729608e+01
  -3.423404e+01  -4.083821e+01
  -4.306332e+01  -4.073156e+01
   2.114090e+01  -1.920137e+00
   2.825396e+01   8.296387e+00
  -4.027143e+01   3.209321e+00
  -2.069823e+01   7.301256e+00
   2.800171e+01   3.986016e+01
   5.319754e+01  -6.776148e+00
   3.280519e+01   5.520030e+01
  -7.714890e+01   1.377825e+02
  -9.463654e+01   3.058921e+01
  -9.717319e+01  -7.922761e+00
  -5.860478e+01  -1.279538e+02
   5.836030e+01  -1.076077e+02
   9.178214e+01  -4.883959e+01
   6.714668e+01   2.899149e+01
   5.956027e+01   4.459123e+01
   1.887713e+01   1.593809e+01
   1.237138e+01   2.358169e+01
   1.878832e+01   1.032775e+01
   4.755534e+01   4.712744e+01
  -1.218333e+01   6.529083e+01
  -2.204530e+01   2.077510e+01
  -8.364496e+01  -3.054132e+01
  -5.155276e+01  -6.885148e+01
   3.974579e+01  -4.230492e+01
   1.038699e+02   1.502769e+01
   5.563801e+01   6.922283e+01
  -1.074585e+01   7.289168e+01
  -3.074977e+01   7.340243e+00
  -3.389615e+01  -1.950174e+01
   1.569109e+01  -4.082487e+01
   6.932676e+01  -6.770107e+01
  -8.409198e+00   1.357178e+01
  -5.263661e+01   2.143951e+01
  -8.672173e+00  -3.325169e+01
   7.424416e+01  -4.999668e+00
   6.996458e+01  -1.434907e+01
   5.204382e+01  -6.732898e+00
  -2.364714e+01  -7.542266e+00
  -3.259867e+01   3.021764e+01
  -9.266902e+00   4.090255e+01
   3.647999e+01  -2.750170e+01
   2.548370e+01  -5.717025e+01
   1.995236e+00  -2.227516e+01
   3.353302e+01   1.154046e+01
   1.293814e+01   2.119207e+01
   3.405939e+01   1.904918e+01
  -4.610965e+01  -4.761664e+01
   2.758992e+01   3.484773e+00
  -4.473817e+01   2.685903e+01
   1.742991e+01   3.025364e+01
  -6.215412e+00  -2.167062e+01
  -1.702057e+00  -6.289317e+01
   2.102509e+00  -3.597548e+01
  -1.034679e+01   2.378715e+01
  -1.852042e+01   2.088673e+01
  -3.455988e+01   5.416447e+00
  -5.370240e+01  -5.226231e+01
  -1.292973e+01  -3.655345e+01
   3.293822e+01  -3.256713e+01
   6.235220e+01  -7.462664e+00
   7.350886e+01   4.596519e+01
  -2.968306e+01  -3.395634e+00
  -1.834020e+01   4.696801e+01
   8.768661e-01   4.548036e+01
   3.997754e+01  -1.124988e+01
   4.249691e+01  -5.897307e+00
  -8.087337e+01  -1.041203e+00
  -3.754146e+01  -3.494308e+01
