
 $NMID
 id='ANONYMOUS ', fmtdat='(2E16.6)'
 volume=1.0
 tramp=1.0
 $END
   3.213089e+03   6.639333e+00
   2.140840e+03   1.686265e+03
  -2.564865e+02   1.962245e+03
  -1.554207e+03   1.148582e+03
  -7.306953e+02   1.460426e+02
   2.452993e+02  -3.670924e+02
   3.630351e+02   1.322609e+02
   1.534958e+02   6.211347e+02
  -4.664317e+02   7.400397e+02
  -5.563003e+02   1.678307e+02
  -3.550161e+02  -5.901477e+02
  -1.043266e+01  -5.455129e+02
   2.284320e+02  -3.249435e+01
   3.086190e+02   5.636652e+02
  -3.580978e+01   6.081278e+02
  -4.156968e+02   6.511524e+01
  -3.046892e+02  -2.945200e+02
   1.544941e+02  -5.460090e+02
   4.404613e+02  -2.762239e+02
   5.290639e+02   2.835672e+02
   1.502619e+02   3.427597e+02
  -1.740819e+01   2.561791e+02
  -1.223209e+02   1.662654e+01
   1.099065e+02   3.138427e+01
   2.974202e+02   2.742686e+02
   1.641829e+02   3.647189e+02
  -4.320398e+02   2.319784e+02
  -6.038811e+02  -1.038714e+02
  -2.599183e+02  -3.436058e+02
   2.550134e+02  -2.360351e+02
   4.881133e+02   1.433264e+02
   1.677662e+02   4.072207e+02
  -3.555810e+02   3.385990e+02
  -5.066703e+02   1.584989e+02
  -3.265376e+02  -1.723786e+02
  -4.182819e+01  -3.555746e+02
   6.514997e+01  -2.382240e+02
  -3.671332e+01   1.586096e+02
  -1.243339e+02   2.487574e+02
  -2.419983e+02  -8.994964e+01
  -1.364298e+02  -4.823058e+02
   2.206267e+02  -4.344820e+02
   3.854261e+02   2.516371e+00
   1.475481e+02   3.540889e+02
  -2.057164e+02   8.276454e+01
  -2.358496e+02  -3.539706e+02
   1.195662e+02  -4.305495e+02
   4.664702e+02  -7.626661e+01
   5.535494e+02   3.454802e+02
   2.194959e+02   4.690161e+02
  -2.879498e+02   2.994002e+02
  -5.607902e+02   9.438663e+00
  -3.611904e+02  -2.327985e+02
   4.372038e+01  -2.395641e+02
   3.004433e+02  -7.177955e+01
   2.121605e+02   5.822620e+01
  -3.138687e+01   2.608741e+01
  -8.586918e+01  -1.088209e+02
   9.605111e+01  -1.562404e+02
   2.338713e+02   6.511352e+01
   1.193650e+02   2.783032e+02
  -1.834309e+02   2.761101e+02
  -3.445717e+02   6.264515e+01
  -3.041957e+02  -1.816643e+02
   6.425341e+00  -3.194053e+02
   3.275443e+02  -3.295422e+02
   3.885554e+02  -1.447996e+02
   2.212499e+02   1.809968e+02
   2.399141e+01   3.640005e+02
  -6.317111e+01   2.880413e+02
  -6.340352e+00   1.144299e+02
   1.472995e+00   6.842730e+01
  -1.141477e+02   7.973986e+01
  -2.278129e+02   9.333371e+01
  -2.567789e+02  -5.599030e+01
  -1.198624e+02  -2.556771e+02
   1.073557e+02  -1.833482e+02
   2.390703e+02   8.499047e+01
   1.662297e+02   2.584661e+02
  -1.752465e+01   2.222161e+02
  -2.596119e+02   1.177456e+02
  -3.319397e+02  -1.096325e+02
  -1.719341e+02  -2.705269e+02
   7.402591e+01  -2.071773e+02
   1.503685e+02  -1.420847e+02
   1.094431e+02  -9.953916e+01
   1.198768e+02  -4.770197e+00
   2.702350e+02  -1.810196e+01
   4.148392e+02   6.318125e+01
   2.984440e+02   2.855681e+02
  -4.434071e+01   4.916985e+02
  -3.619245e+02   3.935948e+02
  -4.587768e+02   1.807767e+02
  -3.087395e+02  -8.917850e+01
  -5.987535e+01  -2.189055e+02
   9.610244e+01  -1.460249e+02
   2.203401e+00  -3.201523e+01
  -9.648465e+01   3.547802e+00
  -1.087870e+02  -7.324781e+01
  -2.874905e+01  -1.881930e+02
   1.380830e+02  -1.289136e+02
   1.442576e+02   4.501625e+01
  -2.175774e+01   1.305893e+02
  -1.611499e+02   2.448879e+01
  -1.811222e+02  -1.788198e+02
   3.491270e+01  -3.339010e+02
   2.586348e+02  -1.767488e+02
   3.252916e+02   8.367852e+01
   2.401977e+02   2.229195e+02
   2.856591e+01   2.744675e+02
  -1.098820e+02   1.394059e+02
  -1.720800e+02   8.028493e+00
  -1.831878e+01   1.386352e+00
  -1.421890e+01   8.056279e+01
  -2.573218e+01   9.884495e+01
  -1.100060e+02   5.274437e+01
  -1.497873e+02  -3.614874e+00
  -2.927035e+01  -4.514155e+01
   3.329202e+01  -5.155961e+01
   1.991778e+01   6.130999e+01
  -1.145459e+02   8.094349e+01
  -2.552408e+02   1.060947e+00
  -2.257456e+02  -2.004799e+02
  -3.199726e+01  -2.473787e+02
   2.086069e+02  -1.921714e+02
   2.722383e+02  -9.872706e+01
   1.351197e+02   5.187767e+01
  -2.271518e+01   7.476677e+01
  -4.815357e+01   7.715100e+00
   3.083358e+01  -4.217160e+01
   9.604153e+01  -3.209711e+01
   1.917356e+02   4.887742e+01
   5.736203e+01   1.538416e+02
  -1.272062e+02   1.387211e+02
  -9.332400e+01   1.410732e+00
  -6.868739e+01  -7.055869e+01
   3.996791e+01  -8.340907e+00
   5.740462e+00   8.989706e+01
  -7.684910e+01   1.313165e+02
  -2.130354e+02  -8.373647e+00
  -1.637413e+02  -9.537716e+01
  -2.879310e+01  -2.111518e+02
   1.666734e+02  -1.893895e+02
   1.299259e+02   9.718684e+00
   4.051980e+01   1.228690e+02
  -1.279940e+02   8.651974e+01
  -5.058782e+01   3.480032e+01
   6.488794e+00  -4.107336e+01
   7.149504e+01  -4.302838e+01
  -4.733664e+01   4.783946e+01
  -1.155564e+02  -5.371855e+00
  -1.421605e+02  -1.006816e+02
  -2.928086e+01  -1.525161e+02
   1.613271e+02  -1.422374e+02
   2.610605e+02  -1.753979e+01
   1.962744e+02   1.668396e+02
  -4.353446e+00   2.490066e+02
  -6.864016e+01   1.478346e+02
  -7.581860e+01  -2.160775e+01
  -5.668272e+01  -7.829972e+01
  -3.761004e+01  -2.056283e+01
  -1.157829e+01   4.690318e+01
  -5.686536e+01   3.239766e+01
  -2.383838e+01  -3.781861e+00
   4.521830e+01  -8.634108e+01
   1.264364e+02  -7.633766e+01
   1.078273e+02   4.807403e+01
  -6.409679e+00   1.242160e+02
  -1.798974e+02   9.138652e+01
  -2.393581e+02  -6.476992e+01
  -5.313235e+01  -2.256026e+02
   1.232235e+02  -2.251053e+02
   2.365628e+02  -1.129714e+02
   2.265879e+02   1.354162e+02
   1.272297e+02   1.830788e+02
  -7.241467e+01   1.453510e+02
  -1.021700e+02   8.025695e+01
  -8.934867e+01   1.607279e+01
  -6.931366e+01   8.143212e+01
  -6.301576e+01   1.044787e+02
  -1.162105e+02   3.008159e+00
  -1.353645e+02  -1.302825e+02
   3.093319e-01  -1.669246e+02
   1.127891e+02  -1.795744e+02
   1.489115e+02  -9.801133e+01
   9.974696e+01   1.303016e+02
   1.812717e+01   1.953164e+02
  -5.677970e+01   9.790779e+01
  -6.388966e+01  -2.176962e+01
   1.384087e+01  -1.708731e+01
   4.293259e+01  -7.658933e+01
  -5.061640e+01  -2.035747e+01
  -8.628294e+01   2.282648e+01
  -7.528722e+01  -1.814918e+01
   4.890230e+01  -7.417365e+01
   1.472235e+02   3.461393e+00
   1.435570e+02   2.351391e+01
   2.869286e+01   9.354410e+01
  -1.286251e+02   8.658726e+01
  -9.553485e+01   5.991648e+01
  -7.529772e+00  -2.680903e+01
   7.388832e+01  -1.471068e+01
   1.021393e+02   5.157907e+01
   1.703559e+01   8.355986e+01
  -5.837696e+01   8.372476e+01
  -9.143967e+01   2.588529e+01
  -4.370703e+01  -1.042814e+00
  -3.477436e+01  -5.542322e+01
  -3.299430e+01  -6.586997e+00
  -7.546747e+01   1.920745e+00
  -7.783676e+01  -7.284181e+01
   4.930838e+00  -1.279000e+02
   1.048173e+02  -1.318124e+02
   1.515627e+02  -4.298775e+01
   1.411662e+02   9.922974e+01
  -4.288574e+01   1.269893e+02
  -1.138628e+02   4.061355e+01
  -6.629020e+01  -2.221069e+01
   2.906751e+01  -2.041241e+01
   1.546505e+02   3.621610e+00
   9.038677e+01   6.713820e+01
  -2.812956e+01   1.388493e+02
  -1.712133e+02   7.122272e+01
  -1.399014e+02   4.304564e+01
  -8.250782e+01  -6.266498e+01
   6.882353e+01  -8.503898e+01
   6.565978e+01   2.437682e+01
  -3.586685e+01   2.661654e+01
  -6.993360e+01  -3.902328e+01
  -1.709915e+01  -6.470115e+01
   7.987977e+01  -1.701723e+02
   1.247335e+02  -7.043111e+01
   9.216877e+01   6.704582e+01
   6.852433e+01   1.703804e+02
  -7.002956e+01   1.166868e+02
  -1.367756e+02   1.276425e+01
  -7.382929e+01  -1.086382e+02
   3.913867e-01  -1.025882e+02
   3.062992e+01  -4.108991e+00
  -2.242855e+01   2.199289e+01
  -3.736071e+00  -1.962557e+01
  -1.378891e+01  -1.047375e+00
   2.631008e+01  -1.552084e+01
   5.206496e+01   4.371990e+01
   4.399260e+01   8.055735e+01
   1.944292e+01   5.557739e+01
  -1.126189e+02  -1.118830e+01
  -1.338738e+02  -2.731561e+01
  -5.653102e+01  -4.518566e+01
   5.349716e+01  -3.473617e+01
   5.163755e+01  -7.481248e+00
  -2.377335e+01  -1.027367e+01
  -6.738776e+01  -1.843775e+01
  -4.973601e+01  -1.553174e+01
   1.206407e+00   3.361426e+00
  -2.668755e+01   1.352328e+01
  -5.441640e+01  -1.516744e+01
  -5.279263e+01  -5.075249e+01
   1.421862e+01  -8.263226e+01
   1.110068e+02  -1.620141e+02
   1.631889e+02  -7.458083e+01
   2.161886e+02   5.741710e+01
   5.233217e+01   1.269233e+02
  -3.564617e+01   1.377891e+02
  -9.672352e+01   8.163351e+01
  -5.523421e+01  -1.254357e+01
  -2.661408e+01  -5.358857e+01
  -2.584303e+01  -1.711042e+01
  -3.998459e+01  -1.768123e+00
  -7.740628e+01  -7.094212e+01
  -4.961547e+01  -7.353095e+01
   1.370694e+00  -7.598158e+01
   5.049283e+01   4.004834e+01
   9.423229e+01   7.334361e+01
   2.303449e+01   1.082726e+02
  -6.800258e+01   6.195627e+01
  -1.280294e+02  -3.167287e+01
  -6.780073e+01  -9.402720e+01
   6.463707e+01  -5.407111e+01
   9.313685e+01  -2.796696e+00
   5.315099e+01   7.525382e+01
  -4.328997e+01   6.165738e+01
  -1.536740e+01   2.690375e+01
   4.867745e+01  -4.304619e+01
   5.700958e+01  -3.309532e+00
   7.039766e+01   5.109148e+01
  -3.615791e+01   6.948318e+01
  -8.889039e+01   5.403849e+01
  -1.041521e+02   9.180455e-01
   5.889552e+00  -1.032929e+02
   4.104360e+01  -1.275917e+02
   6.500540e+01  -5.327568e+01
   9.104421e+00   5.626303e+01
  -3.205466e+01   3.837710e+01
  -1.442005e+01   4.774395e+00
  -1.290452e+01  -2.463105e+01
   3.640421e+01   1.938342e+01
   5.123647e+01   4.293217e+00
   8.651368e+01   3.066280e+01
  -1.625631e+01   3.579420e-01
  -5.167287e+01  -5.007687e+00
  -5.858893e+00   2.347426e+01
   3.874574e+01  -1.343584e+01
   3.661038e+01   2.312710e+00
  -1.931911e+01  -5.279074e+00
  -3.665792e+01  -8.667923e+01
  -3.251686e+00  -7.506969e+01
   9.623074e+00  -6.572021e+01
   8.979794e+01   4.568090e+01
   5.553158e+01   5.130546e+01
  -3.732505e+01   2.838595e+01
  -1.014354e+02   1.489444e+01
  -4.817839e+01  -1.816305e+01
   2.745237e+00   9.767966e+00
   5.400159e+01  -3.152737e+01
   2.503928e+01  -5.574836e+01
  -2.164600e+01  -1.299904e+01
  -5.707703e+01  -3.414619e+00
   2.185997e+01   3.841447e+00
   8.027793e+01  -1.360313e+01
