
 $NMID
 id='ANONYMOUS ', fmtdat='(2E16.6)'
 volume=1.0
 tramp=1.0
 $END
   2.400646e+03  -1.959115e+02
   1.748595e+03   1.331953e+03
  -1.178604e+02   1.654638e+03
  -1.080705e+03   1.096067e+03
  -9.348985e+02   8.291405e+01
  -1.425116e+01  -1.252846e+02
   1.225411e+02   4.537863e+01
   1.806198e+01   3.863149e+02
  -2.841136e+02   3.700742e+02
  -4.892079e+02   5.539720e+01
  -4.378510e+02  -3.815317e+02
  -5.042343e+01  -4.544008e+02
   1.878626e+02  -1.414903e+02
   2.235855e+02   3.652049e+02
  -1.489833e+02   4.475498e+02
  -1.564925e+02   7.311723e+01
  -3.595663e+02  -4.169360e+02
   1.135520e+02  -6.257142e+02
   5.647708e+02  -2.408684e+02
   3.386142e+02   1.133291e+02
   4.230684e+01   3.215434e+02
  -1.363299e+02   1.709494e+02
   7.036315e+01   2.829662e+01
   1.127087e+02   6.470299e+01
   2.307228e+02   3.509864e+02
  -1.269838e+02   3.797014e+02
  -5.012112e+02   1.214400e+02
  -4.951063e+02  -1.087233e+02
  -1.148721e+02  -4.359403e+02
   2.896195e+02  -2.958487e+02
   4.627625e+02   7.223620e+01
   1.704417e+02   2.490759e+02
  -1.708177e+02   3.519332e+02
  -3.229203e+02   1.174154e+02
  -2.577085e+02  -1.501481e+02
  -5.484051e+01  -2.502247e+02
   4.126420e+01  -1.834165e+02
  -9.592048e+00   9.762751e+01
  -1.728615e+02   8.904035e+01
  -1.703286e+02  -2.046527e+02
  -3.418752e+01  -3.838496e+02
   2.403087e+02  -3.294334e+02
   3.483235e+02   6.862605e+00
   1.220190e+02   2.198019e+02
  -1.533134e+02   1.326534e+02
  -1.023559e+02  -1.969769e+02
   1.062806e+02  -2.730560e+02
   3.632085e+02  -2.013292e+01
   4.046457e+02   2.957933e+02
   9.187631e+01   4.000119e+02
  -2.564290e+02   2.301035e+02
  -4.406047e+02  -4.843482e+01
  -2.728064e+02  -2.516827e+02
   4.633272e+01  -1.474303e+02
   2.263006e+02  -2.520534e+01
   1.564508e+02   1.677300e+01
   5.075823e+00   3.027497e+00
   6.565047e+00  -8.399870e+01
   1.348376e+02  -2.892972e+01
   1.919068e+02   5.112225e+01
   9.851395e+01   1.756716e+02
  -1.295051e+02   2.184645e+02
  -3.041075e+02   1.243256e+02
  -2.182872e+02  -1.389975e+02
   2.834012e+01  -2.869689e+02
   2.256637e+02  -2.721852e+02
   2.807272e+02  -1.007839e+02
   1.586828e+02   1.446796e+02
   1.241682e+01   2.538183e+02
  -4.714172e+00   2.185654e+02
  -4.091254e+00   1.330041e+02
  -4.649670e-01   1.324218e+02
  -1.258928e+02   1.199334e+02
  -1.851419e+02   6.909530e+01
  -1.562435e+02  -1.022577e+02
  -7.915388e+01  -1.970742e+02
   8.874362e+01  -9.591767e+01
   1.432009e+02   4.771875e+01
   1.173646e+02   2.467427e+02
  -5.336430e+01   2.062384e+02
  -2.174911e+02   5.012943e+01
  -2.695003e+02  -2.198283e+02
  -1.537521e+02  -3.054232e+02
   4.191225e+00  -2.074256e+02
   1.464232e+02  -1.330632e+02
   1.178296e+02  -4.407890e+01
   1.071870e+02  -4.628917e+01
   2.125684e+02  -4.885325e+01
   3.758944e+02   1.263423e+02
   3.080740e+02   2.817585e+02
  -6.504913e+01   3.898134e+02
  -3.137775e+02   2.866994e+02
  -4.510343e+02   1.055007e+02
  -2.033166e+02  -1.108123e+02
  -5.302468e+01  -2.244352e+02
   3.960121e+01  -1.459859e+02
   1.639993e+01  -5.396112e+01
  -1.260396e+02   3.764528e+01
  -9.425730e+01  -6.727546e+01
  -2.981267e+01  -1.093264e+02
   6.946843e+01  -9.527715e+01
   6.042081e+01   5.772375e+01
   3.502013e+00   1.257106e+02
  -1.067404e+02  -1.369880e+01
  -1.097833e+02  -2.001721e+02
  -6.568352e+00  -3.308989e+02
   2.432935e+02  -2.020032e+02
   3.007308e+02   8.554871e+01
   1.958160e+02   2.437897e+02
   8.488012e+00   2.253617e+02
  -1.151037e+02   1.059561e+02
  -1.168115e+02  -2.823029e+01
   1.679737e+01  -4.422752e+01
   4.002006e+01   3.518031e+01
  -1.698537e+01   7.605958e+01
  -8.942726e+01   3.592226e+01
  -9.854250e+01  -9.082106e+00
  -9.054799e+00  -6.583584e+01
   2.657534e+01  -6.591863e+00
   3.919911e+01   7.610427e+01
  -1.318995e+02   6.776314e+01
  -2.574891e+02  -3.250452e+01
  -2.160787e+02  -1.493873e+02
  -4.903890e+01  -2.524564e+02
   1.441922e+02  -1.743421e+02
   2.157655e+02  -1.013332e+02
   1.343801e+02   4.321848e+01
  -5.088849e+01   8.572636e+01
   1.944500e+01  -3.419081e+01
   7.485885e+01  -8.452819e+01
   1.206164e+02   1.407367e+01
   1.461048e+02   1.223298e+02
   2.878412e+01   1.482126e+02
  -6.991207e+01   9.596966e+01
  -8.591318e+01  -3.559026e+01
  -2.529655e+01  -4.201520e+01
   6.230736e+01  -1.646949e+01
   4.508051e+01   1.300777e+02
  -7.147780e+01   1.422156e+02
  -1.790220e+02   7.355547e+00
  -1.351370e+02  -9.511339e+01
   1.585382e+01  -1.583953e+02
   1.418217e+02  -1.133559e+02
   1.231115e+02  -3.426517e+01
   3.049097e+01   6.089970e+01
  -7.607002e+01   4.611815e+01
  -7.042722e+01  -6.510828e+00
   7.663222e+00  -1.645285e+01
   7.516378e+01  -1.498465e+01
   3.793108e+00   5.499897e+01
  -3.687506e+01   6.458551e+00
  -1.144626e+02  -6.304325e+01
  -4.173514e+01  -1.572765e+02
   1.282391e+02  -1.334744e+02
   2.079085e+02  -1.501773e+01
   1.494489e+02   1.258488e+02
   3.464039e+01   1.665930e+02
  -7.652307e+01   1.509386e+02
  -1.193662e+02   2.612781e+01
  -5.866805e+01  -3.295759e+01
   1.294235e+01  -4.230296e+01
  -1.185308e+01   2.430182e+01
  -7.207468e+01   4.470088e+01
  -7.964755e+01  -3.369404e+01
   3.193594e+01  -5.747486e+01
   1.138624e+02  -9.361707e+01
   9.989293e+01  -4.680153e+00
  -6.832378e+00   1.497130e+02
  -1.647052e+02   9.279980e+01
  -1.758958e+02  -3.628717e+01
  -1.016408e+02  -1.755488e+02
   1.412507e+02  -1.853800e+02
   1.845755e+02  -3.963365e+01
   2.000848e+02   4.579719e+01
   7.164825e+01   1.457040e+02
  -6.943531e+01   1.596885e+02
  -4.747583e+01   5.990861e+01
  -2.518505e+01   4.475317e+01
  -2.171490e+01   6.730204e+01
  -1.041855e+02   7.995664e+01
  -1.390359e+02   2.728502e+01
  -1.038581e+02  -1.489295e+02
  -2.595370e+01  -2.041596e+02
   4.709259e+01  -1.695771e+02
   1.555840e+02  -5.238482e+00
   1.006008e+02   1.616397e+02
   7.676782e+00   1.166178e+02
  -9.043981e+01   5.016349e+01
  -1.030736e+02  -4.610714e+01
   1.602031e+01  -3.664448e+01
   2.296436e+01  -5.120072e+01
  -1.029881e+01  -2.641539e+01
  -2.839054e+00  -7.461690e+00
   3.794258e+01  -5.167552e+01
   5.046610e+01  -2.506097e+01
   9.117720e+01   2.429186e+01
   7.796068e+01   2.388815e+01
   2.411468e+01   8.460333e+01
  -7.934961e+01   1.170109e+02
  -1.576752e+02   1.666031e+01
  -5.654767e+01  -5.442746e+01
   4.584766e+01  -4.456788e+01
   8.758497e+01   1.723642e+01
   9.258666e+00   7.011000e+01
   1.411580e+00   4.142333e+01
  -6.222813e+01   2.870286e+01
  -5.661487e+01  -7.232685e+01
  -1.917662e+01   3.140910e+00
  -2.214887e+01  -1.450820e+01
  -5.212426e+01   3.547487e+00
  -5.253495e+00  -9.610331e+01
   2.500178e+01  -9.961195e+01
   1.231526e+02  -9.934960e+01
   1.558974e+02  -6.268048e+01
   7.902083e+01   8.707223e+01
   3.373269e+01   5.919285e+01
  -1.092633e+02   1.321684e+01
  -6.605193e+01   1.033569e+01
   7.134797e+01  -1.793696e+01
   1.105283e+02   6.690044e+01
   8.406709e+01   1.196768e+02
  -2.764079e+01   1.061607e+02
  -1.763159e+02   6.126820e+01
  -1.026622e+02  -9.563996e+00
  -1.945788e+01  -2.883920e+01
   4.430990e+01   1.905685e+01
   4.011391e+01  -1.405249e+01
  -9.323658e+01   6.765608e+00
  -1.001543e+02  -5.679081e+01
  -4.809617e+01  -7.827105e+01
   9.453383e+01  -1.382935e+02
   1.447639e+02  -8.261034e+00
   3.600868e+01   7.363503e+01
   2.174042e+01   1.784933e+02
  -5.268483e+01   1.104652e+02
  -8.239020e+01  -6.933631e+00
  -9.074530e+01  -1.160341e+02
   3.335081e+01  -9.419144e+01
   7.245776e+01  -2.719910e+01
   5.165249e+01   1.929280e+00
   2.750996e+01   2.699944e+01
   4.968629e+01   7.259060e+00
   4.370000e+01   2.550767e+01
   7.196832e+01   8.059893e+01
  -6.605466e+00   7.369664e+01
  -4.561761e+01   7.643918e+01
  -1.289351e+02  -4.357082e+01
  -8.673077e+01  -7.106750e+01
  -3.073814e+01  -3.218045e+01
   7.132564e+01  -3.534664e+01
   8.366572e+01   6.842423e+00
   2.378516e+00  -1.681461e+01
  -1.463431e+01   2.371330e+01
   1.661177e+01  -1.561450e+01
   3.208040e+01   8.366301e-01
   7.910213e+00  -7.323545e+00
  -1.162812e+02   2.904995e+01
  -8.728069e+01  -5.709552e+00
  -4.246437e+01  -7.660835e+01
   6.945451e+01  -7.564231e+01
   1.728228e+02  -4.551549e+01
   1.415251e+02   4.219545e+01
   2.691232e+01   1.379947e+02
  -5.224400e+01   1.248691e+02
  -9.521272e+01   4.521952e+01
  -8.148520e+01  -3.118483e+01
  -4.244796e+01  -4.192100e+01
  -8.092921e+00   1.109569e+01
  -5.926277e+01   1.492141e+01
  -1.211292e+01  -1.861285e+01
   6.285571e+00  -9.866214e+01
   4.760162e+01  -8.652686e+01
   8.291280e+01   9.264002e+00
   1.367126e+02   8.435597e+01
   1.572029e+01   7.357340e+01
  -6.469737e+01  -1.374516e+01
  -6.203958e+01  -3.801544e+01
  -1.211362e+01  -7.325240e+01
   7.800352e+01  -6.494479e+01
   5.356415e+01  -1.034426e+01
   7.807809e+01   3.814933e+01
  -7.201106e+01   4.623708e+01
  -1.563349e+01   2.805660e+01
   2.411712e+01   2.458987e+01
   6.169522e+01  -3.373339e+01
   3.306388e+01   2.702403e+01
  -9.914148e+01   4.297914e+01
  -9.800736e+01   4.367710e+01
  -6.175803e+01  -2.856234e+01
   1.316439e+01  -8.618986e+01
   7.795997e+01  -2.793819e+01
   8.162014e+01  -2.141188e+01
  -2.864505e+01   5.721626e+01
  -2.626215e+01   5.192264e+01
  -6.355398e+01   3.178315e+00
  -5.419197e+01  -6.410450e+01
  -2.312639e+01  -6.795205e+01
   3.161030e+01  -2.391975e+01
   7.680771e+00   6.230088e+01
   5.854402e+01   3.618785e+00
   2.372358e+01  -2.614417e+01
  -3.901971e+01  -3.523729e+01
   3.404817e+01  -6.989197e+00
   3.557216e+01   7.020509e+01
  -1.198375e+01   4.153157e+01
  -7.363193e+01  -3.792220e+01
  -3.745294e+01  -4.772173e+01
   3.933686e+01  -1.064207e+01
   5.193599e+01   4.545793e+01
   2.342773e+01   4.529831e+01
  -7.723851e+01   5.909743e+01
  -1.128082e+02  -1.097357e+01
  -4.818008e+01  -1.514818e+01
   2.280749e+01  -4.223861e+01
   1.850204e+01  -6.867334e+01
   1.508830e+00  -1.598287e+01
  -2.239874e+01  -6.583666e+00
  -5.069463e+01  -2.129465e+01
   2.388792e+01  -1.289504e+00
   3.800704e+01  -2.387101e+01
