
 $NMID
 id='ANONYMOUS ', fmtdat='(2E16.6)'
 volume=1.0
 tramp=1.0
 $END
   7.625675e+02  -5.874703e+01
   6.721617e+02   4.662347e+02
   1.478482e+02   6.567253e+02
  -2.606944e+02   4.713006e+02
  -2.988110e+02   1.867507e+02
  -1.677770e+02   1.942468e+01
  -9.844485e+00  -2.603373e+01
   1.463985e+02   1.831853e+02
  -6.676530e+00   2.840796e+02
  -1.625547e+02   1.424627e+02
  -1.991303e+02  -1.118654e+02
   2.745484e+01  -2.347156e+02
   1.764411e+02  -9.463441e+01
   1.764305e+02   1.824762e+02
  -5.308076e+01   2.314238e+02
  -9.615158e+01   6.181731e+01
  -8.382163e+01  -9.861898e+01
  -2.653055e+01  -2.281282e+02
   1.832930e+02  -1.310554e+02
   2.083814e+02   8.741072e+01
   9.464950e+01   2.211927e+02
  -3.478421e+01   1.062730e+02
   7.917918e+01   7.037142e+01
   5.604987e+01   3.377146e+01
  -2.762640e+00   4.948125e+01
  -2.977796e+01   5.667049e+01
  -1.674649e+02  -1.214099e+00
  -1.661130e+02  -6.955020e+01
  -4.572322e+01  -9.314159e+01
   1.058690e+02   4.253918e+01
   9.341263e+01   1.161050e+02
   1.785040e+01   1.165453e+02
  -1.132514e+02   1.196080e+02
  -1.566574e+02   1.249208e+01
  -1.599162e+02  -4.431319e+01
  -1.299898e+02  -5.265166e+01
  -6.357067e+01  -5.757878e+00
  -9.120361e+00   4.108945e+01
   4.155548e+00   5.714401e+01
  -5.303806e+01  -8.270032e+01
   3.812750e+01  -1.071591e+02
   8.779701e+01  -5.935899e+01
   8.471888e+01   6.152919e+01
  -3.670167e+01   8.643956e+01
  -5.299773e+01   3.314036e+01
  -7.184984e+01  -1.007409e+02
   3.908810e+01  -1.278471e+02
   1.452475e+02  -6.246050e+00
   1.367084e+02   7.867043e+01
   1.187451e+01   1.150014e+02
  -9.005437e+01   3.852074e+01
  -9.338776e+01  -1.195403e+01
  -7.110623e+01  -2.731939e+01
  -1.019958e+01   1.861572e-01
   3.986766e+01  -7.888431e-01
   3.271477e+01   3.096052e+01
   3.940603e+01  -4.140681e+01
  -1.473166e+01  -1.565038e+01
   3.515797e+01  -1.664738e+01
   5.844748e+01   2.942936e+01
   2.071986e+01   1.761397e+01
  -4.844003e+01   7.842913e+01
  -1.361161e+02   6.843152e+01
  -7.891142e+01  -5.151123e+01
   2.084765e+01  -1.086224e+02
   1.824691e+02  -1.345421e+02
   1.710855e+02  -8.749102e+00
   7.936372e+01   7.807024e+01
  -1.975233e+01   1.326575e+02
   1.567346e+01   9.720443e+01
   8.105514e+00   8.313595e+01
   9.018317e+00   7.602593e+01
  -4.222535e+01   7.517971e+01
  -9.472269e+01   2.251968e+01
  -7.754410e+01  -6.175062e+01
  -2.437776e+01  -1.408059e+02
   8.039401e+01  -8.624717e+01
   2.757930e+01   2.291270e+01
   5.898601e+01   5.678811e+01
   2.709026e+01   5.582961e+01
  -1.856913e+01  -2.934959e+01
  -7.275568e+01  -8.810511e+01
  -2.985174e+01  -6.555798e+01
  -1.487463e+00  -5.980763e+01
   1.380785e+01  -3.283144e+01
   1.400457e+01   5.109383e+00
   7.926277e+01  -3.184150e+00
   8.760945e+01   3.011377e+01
   1.454163e+02   1.683901e+00
   1.625159e+02   9.195664e+01
  -3.061426e+01   1.268315e+02
  -1.116302e+02   1.211160e+02
  -1.381554e+02   7.194519e+01
  -7.103283e+01  -4.575633e+01
   5.042486e+01  -3.365611e+01
   4.926072e+01  -5.589690e+01
  -4.219903e+01  -2.136925e+01
  -8.927975e+01  -5.678952e+00
  -4.437408e+01  -3.967169e+01
  -3.364645e+00  -3.604122e+01
  -1.396511e+01  -3.684319e+01
   1.060103e+01  -2.041604e+01
  -7.962678e+00  -1.942670e+00
  -2.579152e+01  -4.116037e+01
   9.429675e+00  -9.659144e+01
   1.493978e-01  -1.105265e+02
   1.052017e+02  -5.018708e+01
   1.295953e+02   7.682920e+01
   9.954909e+01   1.208350e+02
  -1.087262e+01   8.067822e+01
  -7.350053e+01   4.846078e+01
  -4.730400e+01   2.089963e+01
  -1.606053e+01   2.895888e+01
   4.900014e+00  -4.530592e+00
  -1.021337e+01   3.003533e+01
  -3.502705e+01   3.093660e+01
  -1.582273e+01  -2.811031e+01
   1.044855e+01   1.507706e+01
  -6.961770e+00   1.110116e+01
  -3.512603e+01   2.899860e+01
  -7.845023e+01   6.060425e+01
  -1.130202e+02  -2.543083e+01
  -1.024321e+02  -1.228789e+02
  -2.556681e+01  -1.605672e+02
   7.243104e+01  -6.627313e+01
   5.471991e+01  -4.909582e+01
   4.447141e+01  -1.527857e+01
   4.162083e+01  -1.101761e+01
   1.971308e+01  -1.270006e+01
   3.046635e+01  -3.843784e+01
   5.588778e+01   6.801224e+01
   4.772237e+01   7.040635e+01
   3.220058e+00   7.707177e+01
  -4.872021e+01   5.192917e+01
  -3.589351e+01   3.208293e+01
   1.661252e+01   3.332562e+01
   2.159880e+01  -3.105820e+01
   2.200763e+01   5.068510e+01
  -6.643886e+01   2.703160e+01
  -1.225547e+02   4.082143e+00
  -6.737521e+01  -2.267607e+01
   2.868962e+01  -3.372777e+01
   5.545066e+01  -6.384842e+01
   4.904627e+01  -2.171249e+01
  -1.109707e+01   1.747414e+01
  -5.069091e+01   1.747268e+01
  -4.641892e+01   3.382654e+00
   5.290483e+01  -1.499389e+01
   2.215328e+01   2.715938e+01
  -8.081091e+00  -1.168606e+01
  -4.462376e+01   5.658432e+01
  -2.709879e+01  -3.333105e+01
   1.478167e+01  -2.178418e+01
   4.969553e+01  -6.803547e+01
   7.080057e+01  -1.758087e+01
   1.127226e+02   9.280503e+01
   5.755630e+01   8.679548e+01
  -3.891520e+01   3.275358e+01
  -5.391418e+01  -3.884532e+00
  -5.802077e+01  -2.501028e+01
  -2.956801e+01   1.420889e+00
  -3.839716e+01  -1.111744e+01
  -5.350270e+01  -4.001692e+01
  -1.866283e+01   2.437120e+00
   6.996755e+00  -2.657434e+01
   3.298127e+01  -1.035640e+01
   3.635320e+01   6.404365e+01
   5.675261e+00   1.545872e+01
  -4.277668e+01   6.977939e+00
  -9.482728e+01  -3.764605e+01
  -4.269330e+01  -4.427149e+01
   9.372679e+01  -6.123142e+01
   4.251068e+01  -2.353912e+01
   7.178691e+01   7.270468e+01
  -3.349002e+00   2.607957e+01
  -4.065380e+01   1.205285e+01
  -1.881087e+01  -5.303551e-01
  -1.213016e+01   1.437469e+01
   2.226030e+01   2.811106e+01
  -5.443885e+01   2.753358e+01
  -8.220602e+01  -1.192791e+01
  -3.277109e+01  -5.607100e+01
   3.700312e+01  -8.366075e+01
   9.226695e+01  -4.862430e+01
   1.415344e+02  -4.635457e+01
   5.614679e+01   5.925582e+01
   2.662106e+01   8.791684e+01
  -4.372798e+01   5.624443e+01
  -6.718081e+01  -1.686452e+01
   4.204268e+01   1.261265e+01
   6.340451e+00  -2.221933e+01
   5.369688e+01   3.454682e+01
  -4.441645e+01  -3.329443e+01
  -4.179193e+01   3.715758e+01
   1.787172e+01  -5.267385e-01
   3.615778e+01   3.315859e+01
   7.583753e+01   5.095213e+01
  -2.269995e+01  -2.082141e+01
  -8.993588e+01   1.923697e+01
  -5.474210e+01  -1.777570e+01
  -2.087984e+01   6.860524e+00
   6.731241e+01  -4.849855e-01
   5.076528e+01  -2.449071e+01
   5.139880e+00   2.867301e+01
   3.628709e+01   3.067052e+01
   3.498531e+00  -1.115205e+01
  -3.511333e+01  -3.565359e+01
  -3.924289e+01  -2.897635e+00
  -2.889856e+01   4.282070e+00
  -1.792495e+01  -2.064137e+01
  -2.588533e+01  -4.525015e+01
  -9.931541e+00  -5.707331e+01
   2.797266e+01  -3.802469e+01
   4.865093e+01   1.122657e+01
   1.069857e+02   2.516672e+01
  -4.979900e+00   7.588992e+01
  -6.043882e+01   5.144998e+01
  -2.749857e+01  -1.339010e+01
  -5.122123e+00  -8.690378e+00
   4.260713e+01  -1.904200e+01
   5.168441e+00  -3.751066e+00
  -6.513784e+01   2.550578e+01
  -6.505477e+01   2.904681e+01
  -7.478895e+01  -2.526935e+01
  -1.311889e+01  -5.166799e+01
   3.566463e+01  -4.855357e+01
   2.539774e+01   8.709112e-01
  -1.623932e+01  -5.726489e+00
  -2.834616e+01   1.984207e+01
  -4.709546e+00  -6.275307e+01
   3.996609e+01  -8.612087e+01
   5.765210e+01  -4.794054e+01
   3.356088e+01   3.821785e+01
   1.347096e+01   4.278336e+01
   3.738474e+01   7.387948e+01
   6.642000e+00   1.846588e+01
  -3.671652e+01  -4.892552e+01
   2.903805e+01  -7.255258e+01
   3.834850e+01  -2.914189e+01
   1.088844e+01   5.268374e+01
   1.486900e+01  -1.637135e+01
   1.340483e+01   2.800609e+00
   3.830013e+01   4.932632e+01
   2.067910e+01   5.807065e+00
  -1.848156e+01   1.437998e+01
   1.318805e+01  -6.568246e+00
  -7.626713e+01  -3.395813e+00
  -7.527708e+00  -1.717645e+01
  -4.977812e+01   2.351228e+01
   5.984804e+00   4.745178e+00
  -1.687550e+00  -3.435758e+00
  -2.700210e+01  -1.271723e+01
  -1.269821e+01   2.025950e+01
   1.574777e+01   5.055373e-01
   5.073806e+01  -3.770876e+01
  -4.867685e+00   2.457151e+01
  -1.707299e+01  -1.491400e+01
  -6.861125e+00   2.741341e+00
  -9.070583e+00   1.067692e+01
   2.387862e+01  -3.192899e+01
   7.889470e+01  -1.120856e+01
   6.172643e+01   3.142256e+01
  -3.209412e+01   8.640448e+01
  -3.374091e+01   5.145694e+01
  -8.002676e+01   2.733762e+01
  -1.089301e+01  -5.740603e+00
  -1.768088e+01  -3.922074e+00
  -3.011535e+01   9.004111e+00
  -3.675432e+01  -2.391073e-01
  -3.359771e+01  -8.260557e+00
  -2.663203e+01  -5.647861e+01
   2.478455e+01  -2.912512e+01
   7.971513e+00   9.518602e+00
  -2.786649e+01   2.303697e+01
   2.578892e+00   7.277378e+01
   1.740498e+01   2.433969e+01
  -7.123081e+01  -2.464936e+01
  -2.966637e+01  -5.180849e+01
  -2.162122e+01  -2.593242e+01
   3.802010e+01   2.272600e+00
  -2.855514e+01   3.129028e+01
  -5.189319e+01   1.871095e+01
  -1.909273e+01   4.254598e+01
   3.818807e+01  -1.115365e+00
  -9.547372e-01  -2.813492e+01
  -2.383155e+01   3.115765e+01
  -1.042297e+02   5.519331e+01
  -2.300713e+01   5.652600e+01
  -3.184050e+00   6.138049e+01
   1.176147e+01   2.948054e+00
  -1.462456e+01  -1.879388e+01
  -6.254360e+00  -2.622649e+01
  -5.192920e+01   2.779799e+00
  -2.948561e+01  -1.883229e+00
  -3.826126e+01   1.582759e+01
  -5.716640e+00  -1.210973e+01
  -2.534400e+01  -1.375869e+01
   4.600530e+01   1.456271e+01
   4.082518e+01   1.084182e+00
   4.603161e-02   1.552410e+01
  -2.160609e+01  -1.263296e+01
   2.614509e+01  -9.353605e+00
   4.298045e+01   2.453878e+01
   6.042564e+01   5.950876e+00
   1.168220e+01   6.813159e+01
  -8.604489e+00  -1.614312e+01
  -2.077646e+01  -3.079228e+01
   2.076646e+01  -2.891530e+01
  -6.636179e-01   1.377084e+01
   1.625608e+01   3.625702e+01
  -2.401277e+01   1.481624e+01
  -2.344167e+00  -4.366347e+01
  -2.929294e+01   2.922888e+00
   1.256065e+01  -2.399179e+01
   6.356078e+00   3.777809e+01
   3.281420e+01   2.209529e+01
  -1.111115e+00  -8.413960e+00
  -1.963239e+01  -3.587769e+01
  -1.225360e+01  -3.243398e+01
   3.063371e+01   2.411937e+01
