
 $NMID
 id='ANONYMOUS ', fmtdat='(2E16.6)'
 volume=1.0
 tramp=1.0
 $END
   6.526423e+02  -5.942068e+01
   3.838318e+02   1.722575e+02
   1.358015e+02   3.672532e+02
  -2.828130e+02   1.884582e+02
  -1.022970e+02   6.090038e+01
  -5.822432e+01   2.460445e+01
   5.335468e+01  -7.473429e+00
   1.553578e+01   8.626100e+01
   1.523377e+01   8.668973e+01
  -8.569101e+01   6.776428e+00
   6.660761e+00  -7.181701e+01
  -4.982098e+00  -8.185743e+01
  -7.698426e+01   1.359226e+01
  -4.714918e+01  -1.198386e+01
  -2.166514e+01   1.212912e+02
  -1.326657e+02   6.840663e+01
  -1.562079e+02  -3.115016e+01
   3.348981e+01  -1.967249e+02
   3.586006e+01  -5.772748e+01
  -4.394295e+01   5.118150e+01
   3.576074e+01   8.924894e-01
  -6.827046e+01   5.244649e+01
  -6.547239e+01   1.077003e+02
  -9.295700e+01   6.147791e+01
   7.576305e+01   3.552082e+01
  -3.450552e+01   8.321863e+01
  -1.683676e+02   1.069120e+01
  -1.491816e+02  -5.703562e+01
   1.178506e+01  -1.352560e+02
  -5.317479e+01   6.408940e+01
   5.174756e+01   6.328441e+01
   8.329166e+01   1.723579e+01
   4.945342e+01  -1.364994e+01
  -1.943017e+01  -3.641631e+01
  -4.393013e+01  -5.932812e+01
   2.329415e+01   4.166636e+01
  -1.013063e+01  -2.223636e+01
  -7.350314e+01  -1.433635e+01
  -1.682763e+01  -8.487960e+00
  -1.065165e+00   4.486674e+00
   4.817382e+00  -6.946863e+01
   3.227902e+01  -3.984864e+01
   4.277346e+01   1.552461e+01
  -6.431273e+00   4.134683e+01
  -1.110762e+01   5.473686e+01
  -7.452826e+00  -4.390377e+01
   3.600993e+00  -1.167461e+01
  -2.601685e+01   2.486102e+01
   4.325392e+00   9.456819e+01
   2.916468e+01   1.576728e+01
  -2.425523e+01   1.894972e+01
  -3.794525e+01  -4.721071e+01
  -2.499926e+01  -4.531003e+00
   3.396968e+01  -1.092767e+01
   1.492647e+01   3.804840e+01
   2.544522e+01   4.662113e-01
  -1.600455e+01  -5.356973e+00
  -4.173884e+01  -7.482536e+00
   4.560541e+00   3.490227e+01
   6.862819e+01   1.303176e+01
  -8.631557e+00  -3.532839e+00
   2.708563e+01   2.624574e+01
  -6.014588e+01   4.026984e+01
  -3.900467e+01   1.936363e+00
  -4.263640e+01  -1.630843e+01
   3.371841e+01  -1.494196e+00
  -1.870411e+00  -9.264931e-01
  -1.135118e+01   9.324906e+00
  -1.649494e+01   5.487808e+00
  -5.249345e+00  -2.123851e+01
  -5.028677e+00  -5.566932e+00
   1.070243e+01   1.705780e+01
  -2.999291e-02   1.058480e+01
  -9.578542e+00  -4.588667e+00
  -3.582131e+01  -8.916496e+00
  -1.255155e+01   3.461158e+01
   1.700741e+01  -5.664064e+00
   4.852898e+00   2.398094e+01
  -2.622012e+01  -2.546240e+01
  -4.257697e+00  -1.880546e+01
  -3.470028e+01   3.408578e+01
  -8.332369e+00  -1.470564e+01
  -3.177461e+01  -3.163675e+01
   6.244115e+00  -3.185308e+01
  -2.274887e+00  -2.463689e+01
   1.760592e+01   6.867315e+00
   2.010089e+01   3.130682e+01
   1.743056e+01  -2.865768e+01
   7.085671e+01   4.118226e+00
   3.392042e+01   1.126308e+01
   7.752833e+00   3.735264e+01
  -4.044471e+01   8.507060e+01
  -7.939695e+01   1.015108e+01
  -2.135100e+00  -2.415715e+00
   3.658343e+01   1.331990e+01
  -2.800003e+01  -2.586430e+00
   3.384800e+01  -5.118520e+00
  -3.123783e+01   5.574057e+00
  -1.257206e+01  -1.199686e+01
  -7.705156e+00  -3.408124e+00
   3.089476e+01  -1.510680e+01
  -6.627242e+00   9.312677e+00
  -1.995761e+01  -2.935939e+00
   1.013042e+01   3.685269e+01
   2.002027e+00   1.800592e+01
   5.843892e+00  -3.175875e+01
   2.461063e+01  -3.945074e+01
   1.943187e+01  -3.497100e+01
   5.125941e+01   5.149418e+01
   2.611646e+01   5.795725e+01
  -2.206289e+01   2.071936e+01
  -2.054995e+01  -2.380800e+01
   1.914540e+01   1.239952e+01
  -1.668621e+00   3.466518e+00
   8.809092e+00   1.326783e+00
  -4.794459e+00   2.818805e+01
  -1.241698e+01   2.556806e+00
  -8.084416e+00  -2.841668e+01
   2.359328e+01   1.723802e+01
   3.970164e+00  -1.952146e+01
   1.021131e+01  -1.273871e+01
  -1.452729e+01   2.881434e+00
   5.579802e-01  -2.138844e+01
  -2.279678e+00   7.414936e-01
   3.999089e+01   1.540849e+01
  -5.987456e+00  -1.220123e+01
   2.743702e+01   9.955589e+00
   1.173522e+01   3.822747e+01
  -1.635019e+01   1.336519e+01
  -1.770514e+01   3.201686e+00
  -2.288480e+01   4.342731e+00
   9.294356e-01   2.436260e+01
  -3.889252e+01   1.986367e+01
   2.750361e+00  -1.746514e+01
  -4.476356e+01  -2.313134e+01
  -4.662987e+00  -2.520739e+01
   4.493883e+01   7.547107e+00
   3.904097e+01  -3.151462e+00
  -2.716112e+01   4.067772e+01
  -1.494864e+01   8.302029e+00
  -2.714538e+01  -4.077522e+01
   1.169752e+01  -1.033041e+01
   2.987624e+01   8.470841e-01
   1.170382e+01  -2.202348e+01
   2.072907e+01   1.068787e+01
  -2.139822e+01   7.108633e+00
  -1.131626e+01  -2.044933e+01
  -1.193103e+01  -5.708102e+00
   1.103766e+01  -1.019531e+01
   4.459254e+00   1.304925e-01
  -9.297081e+00  -1.332035e+01
  -1.764418e+01   8.166927e+00
  -4.441700e+01  -5.531806e+01
   1.262708e+01  -3.194406e+01
   1.534284e+01   1.947345e+00
   4.579666e+01  -1.129839e+01
   2.137219e+01  -1.416005e+01
  -2.465106e+01   1.850410e+01
  -2.135977e+01   1.131788e+01
   1.139467e+01  -6.940252e+00
  -1.559196e+01   6.990295e+00
   1.989428e+01  -3.480922e+01
   4.648672e+00  -2.550466e+01
  -2.247589e+01   3.737961e+00
   8.270542e+00  -1.934134e+01
   4.101251e+01  -1.844102e+00
   2.681694e+01   3.134461e+00
  -9.959250e-01   6.819258e+00
  -1.629671e+01  -1.685332e+01
  -1.789545e+01   1.636984e+00
  -4.744229e+01   6.187755e+00
   2.951333e+01   1.487604e+01
   6.794119e+01  -1.044569e+01
  -2.623276e+00   1.104041e+01
  -3.409588e+00   1.741905e+01
  -4.844374e+00   2.640130e+01
  -1.742195e+01   1.629497e+01
  -7.993886e+00   3.234046e+01
  -9.517783e+00   2.949029e+00
   6.663291e+00   2.470820e+01
   1.264209e+01   1.908136e+01
  -1.084253e+01  -2.198824e+01
  -4.974790e-01   9.982285e+00
   4.883445e+01  -8.941789e+00
   2.809709e+01  -2.779216e+01
   1.506241e+01   4.550459e+01
   5.238169e+00   4.244089e+01
  -1.194603e+01  -2.990956e+01
   8.775348e+00   1.519505e+00
   1.176499e+01   1.246974e+01
   1.775040e+01  -7.614650e+00
   7.407641e+00   7.963701e+00
  -2.615933e+01  -2.443123e+01
  -4.810071e+00  -1.955006e+01
   3.808554e+01   9.514713e+00
   5.164248e+01   3.167246e+01
   5.544579e+01   9.207055e+00
   2.063046e+00  -1.429650e+01
  -5.397394e+01   1.618389e+01
  -2.742628e+01  -2.278108e+01
   1.738992e+01  -2.393853e+00
   1.660079e+01   3.986889e+01
   2.654338e+01   2.938321e+01
   3.425331e+00  -1.548165e+01
  -3.308446e+01   3.725881e+01
  -3.853844e+01   3.757988e+01
  -2.170732e+01  -5.724733e-01
   2.723957e+01   1.709770e+01
   2.475917e+01  -3.759653e+01
  -3.554477e+01  -5.338220e+00
  -2.493938e+01  -9.570187e+00
   3.045200e+01  -6.056240e+00
   2.784272e+01  -3.177858e+01
   5.848355e+01   1.203449e+01
   1.319621e+01   1.550489e+01
  -1.050893e+01   2.325564e+01
  -2.186761e+01   1.080495e+01
  -3.567835e+01   2.380072e+01
   1.492402e+01  -3.064423e+01
   2.517583e+01  -2.416679e+01
  -2.126825e+01   3.620715e+00
  -5.013009e+01   2.428553e+01
  -3.427274e+01   1.967893e+01
  -1.952620e+01  -2.952554e+00
  -8.501872e+00   1.111865e+01
  -1.731003e+01  -2.808300e+01
  -8.164790e+00  -1.798616e+01
   2.316709e+01  -6.393881e+00
  -5.927740e+00  -6.564035e+00
  -1.937310e+01  -1.259563e+01
   6.322897e+01  -3.346022e+01
  -4.223490e+01  -2.229181e+01
   6.361444e-01   2.850388e+01
  -1.418846e+01   3.400529e+01
  -3.736005e+01   3.494940e+01
  -1.640561e+01   3.067861e+01
  -5.061170e+01  -1.144611e+01
   2.075949e+01  -8.688144e+00
  -1.138039e+01  -4.382302e+01
  -2.211545e+01  -2.348715e+01
  -1.670866e+00   1.064938e+01
  -6.320332e+00   5.807412e+00
   4.346067e+01  -3.066439e+01
   1.150371e+01   2.792774e-01
   1.539935e+01   1.379616e+01
  -1.934505e+01   7.344654e+00
  -2.446034e+01  -1.279153e+01
  -1.347121e+01   1.460599e+01
  -9.532325e+00  -1.512279e+01
  -3.786252e+00   1.600161e+00
  -7.416881e+00   6.680882e-01
  -6.108877e+00   3.838143e+01
   1.044935e+01   2.164745e+01
  -3.270787e+01   4.119758e+01
   4.108638e+01   9.712040e+00
   2.058279e+01  -3.898106e+01
  -3.298058e+01   2.502241e+01
  -7.836663e+00  -1.298151e+01
  -4.845390e+00  -3.190280e+01
   3.062068e+01   3.761163e+00
   4.886307e+01  -3.608530e+01
   3.493888e+01   1.630093e+01
  -3.709690e+00   3.635574e+01
   7.705284e-01   4.089250e+01
  -3.309997e+01  -8.487884e+00
  -3.052924e+00   2.478582e+01
  -2.390158e+00  -3.911876e+01
  -1.603827e+01  -3.717757e+01
   2.477350e+00  -3.841564e+00
  -5.353257e-01  -2.798919e+01
   6.959751e+01  -1.485473e+01
   3.151876e+01  -3.638408e+01
   2.532885e+01  -5.302950e+00
  -3.605555e+01  -6.872796e+00
  -2.308525e+01  -1.349081e+01
  -1.152543e+01  -2.247350e+01
   1.469426e+01  -1.052269e+01
  -3.506222e+00  -4.026891e+01
   1.774675e+01  -4.472931e+00
   1.765085e+01  -1.777518e+00
  -4.194389e+01   4.104541e+01
   9.402395e+00  -2.080323e+01
  -1.558748e+01  -1.056439e+01
   3.159610e+01   2.834471e+00
  -4.166066e-01   2.543850e+00
  -1.920906e+01  -1.113097e+01
  -1.582611e+01   4.575153e+00
   1.895948e+00   9.554127e+00
  -1.182083e+01  -2.268582e+01
  -1.598669e+01  -2.426318e+01
   2.773351e+01  -4.147393e+01
   4.134852e+01   3.708242e-01
  -1.257919e+01   5.716974e+01
   1.534951e+01   3.314693e+01
  -1.070920e+01  -1.182410e+01
   2.034676e+01  -1.110959e+00
  -6.734007e+00  -3.453533e+01
   3.759928e+01   1.839676e+01
  -4.148986e+00  -3.686562e+01
   4.308785e+01   6.815148e-01
   2.469170e+01  -3.737172e+00
   1.241518e+01  -6.688219e+00
  -1.492369e+01   2.691740e+01
   4.264330e+00   5.523963e+01
  -1.714786e+01  -1.649908e+01
  -8.099816e+01  -1.258848e+01
  -3.161785e+01  -3.233311e+01
  -6.451077e+00   1.231627e+01
   3.868486e+01   4.681427e+01
  -3.709494e+01   1.416003e+01
   1.317894e+01  -1.079353e+00
   6.143051e+00  -1.200123e+01
   1.270154e+01  -2.743431e+01
   2.599307e+00  -2.368146e+01
  -3.322829e+01  -4.506864e+01
  -3.487129e+01  -2.809264e+00
  -1.437943e+01   8.061729e+00
  -6.751524e+00   7.083266e+00
   3.394480e+01  -1.032739e+01
   2.080041e+01  -1.929787e+01
