
 $NMID
 id='ANONYMOUS ', fmtdat='(2E16.6)'
 volume=1.0
 tramp=1.0
 $END
   2.006988e+02   1.722909e+01
   9.890645e+01   9.906202e+01
   7.566088e+01   2.453984e+01
  -3.500037e+01   4.266102e+01
   1.873158e+01   1.218617e+01
   4.872332e+01   5.439614e+01
  -4.554313e+00   6.027801e+01
   3.467278e+01   2.208826e+01
   1.201699e+01  -4.849469e+00
   5.896778e+01  -2.741846e+00
  -4.527658e+01  -3.755461e+01
  -3.437693e+01  -6.650960e+01
  -3.147651e+01  -3.915441e+01
   6.288103e+00   8.243948e+01
  -8.451203e+00  -1.737641e+00
   5.480589e+01  -5.452915e+01
   8.023997e+00  -4.808358e+01
   2.678343e+01  -4.340168e+01
   1.791341e+01   5.352476e+01
   1.708136e+01  -5.215851e+01
   3.913612e+01   7.468378e+01
   3.294132e+01  -3.827245e+01
   9.186547e+01   6.374323e+01
   6.410647e+01  -8.792493e+01
   8.309233e+01   1.992896e+01
  -2.828888e+01   1.326054e+01
  -2.137364e+01   1.470308e+01
  -1.153610e+01   3.104661e+01
  -8.420449e+00  -3.377045e+01
  -4.520656e+00  -1.066109e+01
  -3.000855e+01  -2.730106e+01
  -6.553395e+00   4.816892e+01
  -4.330864e+01   2.519997e+01
  -7.645177e+01   4.265078e+01
  -2.703069e+01  -3.524673e+00
  -6.944925e-01   1.146501e+00
  -7.250003e+00  -1.545292e+01
  -1.171581e+01   2.655474e+01
  -6.750982e+01   3.357121e+01
   1.431938e+01  -3.388380e+01
   2.800234e+01  -7.464546e+00
   7.892272e+01  -5.526863e+01
   4.529830e+01   3.188801e+01
   4.614915e+00   8.512644e+00
  -1.805920e+01   1.540925e+01
  -7.231939e+01  -5.090993e+01
  -1.472423e+01  -4.132553e+01
   4.049730e+01  -3.608584e+01
   8.398679e+01   6.941175e+00
   2.738664e+01   4.587264e+01
  -5.043210e+01   1.689445e+01
  -5.880845e+01   7.081396e+00
  -2.909924e-01  -2.557837e+01
   3.554607e+01  -8.672957e+00
   3.253496e+00   7.632291e-01
   7.234040e+00   3.216149e+01
  -1.280647e+01  -3.296857e+00
  -9.446139e+00  -5.177630e+01
   3.201341e+01  -2.317980e+01
  -1.498751e+01   8.397910e-01
  -3.520288e-01   9.657576e+00
  -6.143648e+00   8.255749e+00
  -2.740081e+01  -2.789522e+01
  -2.434034e+01   1.576296e+01
   1.259643e+01  -4.015457e+01
   4.925118e+01  -2.520061e+01
   5.637428e+01  -9.131383e+00
  -5.566768e+00   2.379726e+01
  -2.802404e+01   3.992936e+01
   2.091044e+01   2.787576e+01
   1.581734e+01   6.834425e+00
   9.894552e+00  -2.078915e+01
   2.236093e+01  -8.109851e+00
  -4.225925e+01   1.238363e+01
  -2.264966e+00  -1.798660e+01
  -6.359185e+00  -6.499708e+01
  -4.176746e+00   4.482900e+00
   5.599572e+01   2.004191e+01
   7.848047e+00   6.048241e+01
  -1.828919e+01   2.671470e+01
  -4.867151e+01  -1.700362e+01
  -3.192339e+01  -3.815774e+01
   1.193456e+01   6.992303e+00
   3.357242e+00  -2.279528e+01
   2.299280e+01   2.049925e+01
   3.832667e+00  -6.381030e+00
   1.402561e+01   8.183596e-01
   1.877279e+01  -1.451166e+01
  -1.157259e+01  -9.292911e+00
   3.113446e+01   3.726735e+01
  -3.106262e+01   3.293210e+00
  -3.266919e+00   1.137462e+01
   2.682299e+00  -3.333476e+01
   3.614753e+01   3.228303e+01
   4.670378e+01  -3.937473e+00
  -2.155667e+01  -2.918536e+00
   9.252611e+00  -7.531418e+01
  -3.255585e+01   6.958968e+00
   2.224804e+00   4.728587e+01
   2.658734e+01   3.141092e+01
   1.887891e+01   9.953460e-01
   5.717311e+01  -2.494648e+00
  -2.116427e+01  -4.826758e+00
  -2.377492e+01   4.880816e+01
  -2.900518e+01   2.788516e+01
  -5.478153e+01  -9.067827e+00
   5.284821e-01   1.261587e+01
  -3.238820e+01   2.108391e+01
  -2.676445e+00   2.637917e+01
   1.217587e+01   1.011374e+01
  -1.983889e+01  -2.004042e+01
   3.250106e+01   9.578926e+00
  -1.508500e+01   1.728344e+01
   3.985657e+01   3.924174e+00
   1.040857e+01   1.435698e+01
   1.115185e+01  -8.433550e+00
  -4.712196e+01   6.595395e+00
  -1.500521e+01  -1.754316e+01
   7.923369e+00  -2.180071e+01
  -2.770639e+01  -4.516674e+01
   5.635598e+00  -8.449136e+00
  -5.318577e+01  -1.238680e+00
  -1.200027e+01   1.701657e+00
   4.143168e+01  -1.529843e+01
   3.537126e+01   7.805096e+00
   2.140042e+01  -1.932050e+01
   3.235629e+01  -1.039611e+01
  -1.917037e+01   4.448931e+01
  -1.045040e+00   3.538483e+01
   1.276068e+01  -7.295053e+00
   3.868059e+01  -1.254469e+01
   4.632606e+01  -2.414861e+01
  -1.899652e+01   3.461714e+01
  -1.497608e+01   1.626403e+01
  -2.202823e+01  -1.798516e+01
  -1.028647e+01   2.263476e+01
   8.005488e+00   5.242152e+00
  -3.315098e+01   2.432616e+00
   8.232430e+00   7.115944e+00
  -3.622125e+01  -1.086190e+01
  -2.292807e+01  -5.658898e+00
  -2.666775e+01   2.345585e+01
   9.642234e+00  -7.736530e+00
   1.088054e+01  -5.913268e+00
  -1.572551e+01  -3.162176e+00
  -1.130094e+01   5.402157e+00
  -2.291446e+01   1.529353e+01
   3.512212e-01   1.401319e+01
  -2.200398e+01  -3.664810e+01
  -1.513111e+01  -4.286844e+01
  -1.977901e+01  -1.254151e+01
   2.205374e+01  -3.323543e+01
   1.168259e+01   1.500487e+01
  -8.016328e+00  -4.503990e+01
  -7.298602e+00  -2.355301e+01
   2.240984e+01  -4.094082e+01
  -1.440320e+01   1.477725e+01
   8.936078e+00   3.059155e+00
  -2.663462e+01   2.935866e+01
  -1.759073e+00  -5.479005e+00
  -1.191937e+00  -1.759532e+01
  -2.729653e+01  -2.380281e+01
   1.374754e+01   3.939866e+01
   3.940690e+01   1.633905e+00
   1.017173e+01   3.232057e+01
   4.071409e+01   1.566871e+01
   2.317479e+01  -1.577477e+01
  -8.078763e+00   1.986767e+01
   3.703817e+01  -1.529997e+01
  -5.506752e+01   1.012525e+01
   2.915631e+01   3.623797e+01
  -8.252402e+00   3.416380e+00
   2.146380e+01  -1.390101e+01
   1.516900e+01  -2.818829e+01
   1.716936e+01  -1.350449e+01
  -6.078313e+00  -9.061992e+00
   1.272293e+01   1.051921e+01
  -2.158111e+01   5.041892e+01
  -1.503896e+01   1.496898e+01
  -2.903840e+01   3.261289e+01
   9.622051e+00   1.323627e+01
  -2.189749e+00  -7.959754e+00
  -4.077849e+00  -2.470652e+01
   2.740136e+01   7.018513e+00
  -1.728631e+01   2.566696e+01
   4.748010e+01   1.651017e+01
   2.148605e+01  -5.029329e+01
  -2.126159e+01   2.300370e+01
   1.422306e+01   2.512979e+01
  -6.073344e+00   4.614000e+01
   6.926891e+00   3.909257e+01
   1.421409e+01  -2.605566e+01
  -2.042384e+01  -2.148422e+01
   2.408074e+01   3.857207e+01
  -5.612467e+00   1.027323e+01
   1.340879e+01   1.904174e-01
   1.686647e+01   1.645707e+01
   1.685416e+00   2.187053e+01
  -4.809813e+01   3.637013e+01
  -3.318092e+01  -3.752252e+01
   1.082697e+00   2.273666e+01
  -9.251944e+00   4.867295e+00
  -2.737299e+01   1.738253e+01
   7.256062e+00  -8.208448e+00
  -3.930151e+01  -6.254549e+00
  -3.054633e+01  -1.711756e+01
   2.157089e+00  -1.243865e+01
  -2.973374e+01   2.782418e+01
   5.562968e+01   4.788273e+01
   6.872730e+00  -1.417710e+01
  -4.245019e+00  -1.652250e+00
   3.022107e-01  -4.334247e+01
  -2.483589e+01  -3.444373e+01
   1.503800e+00   1.434250e+01
   3.255606e+01   1.212523e+01
  -4.554743e+00  -7.808616e+00
  -2.379541e+01  -4.588004e+01
   6.683157e+00  -1.528243e+01
   1.434286e+01  -2.774535e+01
   2.283140e+01  -3.207239e+01
  -5.496973e+00   2.121190e+01
  -1.018153e+01   2.596666e+01
  -3.970404e+01  -1.945038e+01
   1.905203e+01  -4.383507e+01
   6.227948e+00  -1.311616e+01
  -3.546202e+01   4.689898e+00
  -1.473076e+01  -2.455689e+01
   2.432168e+01   2.438649e+01
  -2.201171e+00  -3.095995e+01
  -1.968027e+00  -2.762493e+01
  -1.285863e+00   1.136622e+01
   1.253236e+01  -2.287428e+00
  -7.285277e-01  -1.009550e+00
   6.191916e+00  -2.039981e+01
  -1.851783e+01  -2.419255e+01
  -3.534989e+01  -3.432474e+01
  -9.010987e+00  -2.930518e+01
   1.190484e+01  -4.419576e+01
   1.865474e+01  -1.332270e+00
  -1.845631e+01  -1.145127e+01
  -1.383462e+01   5.785401e+00
  -1.859981e+01   3.574683e+00
  -1.373680e+01   5.319931e+01
  -6.342065e+00   1.045191e+01
  -1.462025e+00   4.746512e+01
  -1.682815e+00   1.696968e+01
   3.733770e+01   2.358735e+01
   9.605772e+00  -4.213324e+00
   4.221259e+00  -2.567681e+01
  -4.018445e+01  -1.423354e+00
   4.417583e+01  -1.500077e+01
   4.567450e+01  -9.627222e+00
  -2.435184e+01  -3.892178e+00
  -1.014885e+01   1.241322e+00
  -2.303649e+01  -1.937997e+01
  -8.822806e+00   4.050324e+00
  -2.040027e+01  -1.315440e+00
  -7.243122e+00   2.693499e+01
  -1.348518e+00   4.318556e+01
  -2.224469e+01   6.113645e+00
   1.581207e+01  -4.560532e+00
   7.974934e+00   2.286332e+01
   3.192774e+01  -2.892829e+01
  -7.746928e-01   2.264542e+01
  -5.792930e+01   1.847893e+01
  -2.113688e+01   2.567159e+01
  -2.383134e+01   6.531241e+00
   2.309017e+01  -1.070164e+01
  -4.244108e+01  -4.291655e+01
   4.971677e+01  -2.499381e+01
  -1.078251e+01  -3.355177e+01
   2.692335e+01  -1.359472e+01
  -3.972256e+01  -3.768607e+01
   7.162199e+00   6.371610e+00
  -2.699972e+01   1.669126e+01
   2.258565e+00   1.978642e+01
  -3.778809e+01  -5.599323e+00
  -3.188459e+01  -3.357498e+01
  -4.087522e+01   1.706888e+00
   1.202180e+01   4.012627e+01
  -1.170125e+01   2.442191e+00
   6.308890e+01   5.216613e+00
  -2.145164e+01   1.684190e+01
   4.527288e+01   2.727014e+00
   5.665972e+00  -6.453140e+00
  -2.835261e+01   3.633696e+00
   4.031632e+01   2.556765e+01
   1.697789e+01   2.510410e+01
  -1.195382e+01   4.932593e+01
   3.625565e+01  -2.810452e+01
   4.468576e+01   1.343446e+01
  -1.918607e+01   1.293237e+01
  -1.447514e+01  -1.484401e+01
   8.736033e+00   2.448282e+01
  -4.504531e+01   3.058540e+01
  -2.889109e+00   9.080154e-01
  -2.199696e+01   1.715072e+01
  -2.942732e+01   1.259899e+01
  -2.596000e+01   4.412802e+01
   1.380411e-01  -1.198316e+01
  -2.423684e+01  -3.962007e+01
   1.800240e+01   1.069738e+01
  -1.056968e+01  -2.278335e+01
   9.164857e+00   4.501164e+01
   8.028433e+00  -1.347654e+01
   2.092764e+01   6.614075e+00
  -2.381299e+00   1.667775e+01
  -9.648885e+00  -1.516464e+01
  -4.286333e+01   5.085833e-01
   1.962755e+01  -4.597976e+00
  -2.261788e+01  -2.981653e+01
   2.138356e+01  -1.142846e+01
  -2.487509e+00  -2.496080e+00
   1.638634e+01  -1.563259e+01
   4.911838e+01  -3.224173e+01
  -2.940617e+01  -4.158900e+00
   1.578017e+01  -4.233795e+00
  -2.035757e-01   3.423410e+01
   1.019584e+00  -1.186459e+01
   2.591681e+01  -2.931360e+01
