
 $NMID
 id='ANONYMOUS ', fmtdat='(2E16.6)'
 volume=1.0
 tramp=1.0
 $END
   4.114298e+03  -7.932046e+01
   2.464646e+03   2.255304e+03
  -4.925045e+02   2.342625e+03
  -1.826457e+03   8.589125e+02
  -1.043374e+03  -6.561804e+02
   4.553277e+02  -5.295796e+02
   7.849979e+02   3.405354e+02
   8.658880e+01   8.897833e+02
  -5.749848e+02   5.734220e+02
  -8.127996e+02  -7.396733e+01
  -5.250308e+02  -7.732306e+02
   2.498389e+02  -7.144899e+02
   5.587622e+02  -1.582393e+02
   3.835574e+02   6.249629e+02
  -2.968589e+02   6.989887e+02
  -4.778043e+02  -3.637460e+01
  -3.204532e+02  -6.315546e+02
   2.538235e+02  -5.914033e+02
   5.804923e+02  -1.817887e+02
   4.134385e+02   3.433142e+02
   5.610729e+01   4.712725e+02
  -3.149275e+02   2.167114e+02
  -1.437379e+02   6.875702e+01
   2.688240e+02   2.532013e+02
   3.766498e+02   1.294224e+02
  -1.361286e+01   3.606765e+02
  -4.914284e+02   3.076980e+02
  -7.206186e+02  -8.382807e+01
  -3.799873e+02  -4.052121e+02
   3.410329e+02  -4.327188e+02
   5.745627e+02   3.183490e+01
   3.356196e+02   4.629404e+02
  -2.114241e+02   4.507104e+02
  -5.152168e+02   1.760792e+02
  -4.130135e+02  -1.032450e+02
  -9.410909e+01  -4.200357e+02
   5.812119e+01  -2.580124e+02
   1.589025e+02   1.146131e+02
  -1.454882e+02   3.293237e+02
  -3.804537e+02  -1.302080e+02
  -1.782925e+02  -6.713309e+02
   2.724519e+02  -6.413614e+02
   5.225533e+02   4.619530e+00
   2.771410e+02   4.647779e+02
  -2.056250e+02   2.566397e+02
  -3.022090e+02  -2.930790e+02
   8.139119e+01  -5.825205e+02
   4.921220e+02  -1.511874e+02
   5.407582e+02   4.152522e+02
   1.689778e+02   5.436810e+02
  -3.412139e+02   3.078586e+02
  -5.330012e+02  -9.292122e+01
  -2.832219e+02  -3.534057e+02
   1.247667e+02  -3.471318e+02
   4.179366e+02  -1.388636e+00
   2.159844e+02   1.565852e+02
  -1.163477e+02   8.842519e+01
  -1.805530e+02  -1.304593e+02
   1.315148e+02  -2.117465e+02
   2.458333e+02   3.064574e+01
   1.628354e+02   2.984855e+02
  -1.439392e+02   2.120466e+02
  -3.059870e+02   7.705723e+01
  -1.745677e+02  -1.137198e+02
   3.066745e+01  -2.319815e+02
   1.988083e+02  -3.229741e+02
   3.003056e+02  -1.935672e+02
   2.160026e+02   1.197040e+02
   7.567361e+01   3.916550e+02
  -6.322009e+01   3.551728e+02
  -8.787189e+01   6.585232e+01
  -3.723212e+01   1.259329e+01
  -8.219938e+01   1.038192e+02
  -1.934923e+02   1.335285e+02
  -2.814223e+02  -5.939270e+01
  -1.197486e+02  -3.094950e+02
   8.897426e+01  -2.742620e+02
   2.166328e+02   2.278294e+01
   1.359844e+02   2.549000e+02
  -6.877970e+00   2.290491e+02
  -2.335516e+02   6.612865e+01
  -3.055112e+02  -1.487594e+02
  -1.888833e+02  -2.802349e+02
   4.792515e+01  -2.988017e+02
   1.833007e+02  -1.563843e+02
   1.364623e+02  -4.205624e+01
   9.257251e+01  -2.398624e+01
   2.213350e+02  -6.476295e+01
   3.986600e+02   5.483820e+01
   3.444912e+02   3.090593e+02
   4.253542e+01   4.613106e+02
  -3.727242e+02   3.957565e+02
  -5.087203e+02   1.904457e+02
  -3.712988e+02  -1.123771e+02
  -8.107378e+01  -2.441854e+02
   1.417586e+02  -2.031580e+02
   4.085150e+01  -5.471630e+01
  -1.372636e+02   9.295891e+01
  -1.635138e+02  -5.793606e+01
  -4.019562e+01  -2.045228e+02
   1.476146e+02  -1.764510e+02
   1.472662e+02   7.574350e+00
  -3.571689e+01   1.320011e+02
  -1.334931e+02  -1.266119e+01
  -1.752639e+02  -2.184490e+02
   3.386962e+01  -2.892451e+02
   2.495059e+02  -2.229131e+02
   3.917804e+02   2.163632e+01
   2.959601e+02   1.898080e+02
   7.595508e+01   2.650332e+02
  -1.135980e+02   1.838013e+02
  -1.435307e+02   3.919500e+01
  -4.752313e+01  -4.128248e+01
   5.597289e+01   2.847958e+01
   1.392773e+01   8.774724e+01
  -1.441083e+02   8.513981e+01
  -1.767746e+02   4.799539e+00
  -8.169150e+01  -5.785105e+01
   7.126074e+01  -9.376041e+01
   6.090973e+01   4.273425e+01
  -1.224402e+02   4.987179e+01
  -3.050275e+02   1.855748e+01
  -2.535163e+02  -1.652988e+02
  -8.541384e+01  -2.379117e+02
   1.504090e+02  -2.862720e+02
   2.366295e+02  -1.770107e+02
   1.352368e+02   6.108399e-01
   5.207422e+01   1.228079e+02
  -4.271929e+01   1.834909e+01
   3.035613e+01  -1.098770e+02
   1.770750e+02  -1.148670e+02
   2.773777e+02   6.046337e+01
   1.675250e+02   1.944092e+02
  -1.967448e+01   1.993122e+02
  -1.361882e+02   8.405775e+01
  -1.122277e+02  -3.678239e+01
   1.157463e+01   1.026619e+01
   4.327810e+01   8.452063e+01
  -2.898467e+01   1.659458e+02
  -1.855257e+02  -1.644664e+01
  -1.536585e+02  -6.878920e+01
  -1.792017e+01  -2.178547e+02
   1.752591e+02  -1.640486e+02
   2.018216e+02  -6.450090e+00
   6.604965e+01   8.535684e+01
  -5.425287e+01   8.063171e+01
  -1.008410e+02   3.141892e+01
  -7.230163e+00   7.885097e-02
   4.330955e+01  -3.221340e+01
  -1.657417e+01  -4.955339e+01
  -4.010601e+01  -8.273950e+00
  -4.914149e+01  -7.728280e+01
  -3.715097e-02  -1.328877e+02
   1.212276e+02  -1.067168e+02
   1.777808e+02  -6.572823e+01
   1.881174e+02   1.381153e+02
   7.289684e+01   2.084439e+02
  -5.367977e+01   1.948829e+02
  -1.133001e+02   3.524194e+01
  -6.843186e+01  -1.515832e+01
  -4.295945e+01  -3.789469e+01
  -4.148235e+01  -2.404548e+01
  -1.258419e+01  -4.641328e+00
  -5.979289e+01   1.875407e+00
   2.749634e+01  -3.464611e+01
   1.086933e+02  -5.017333e+01
   5.666415e+01   1.840236e+01
  -4.941703e+01   1.224020e+02
  -1.227003e+02   6.127613e+01
  -1.891594e+02  -2.981602e+01
  -1.576745e+01  -2.197885e+02
   7.613802e+01  -2.452975e+02
   2.338429e+02  -4.129438e+01
   2.892966e+02   6.818707e+01
   1.117081e+02   1.820303e+02
  -1.123019e+01   1.703685e+02
  -1.464417e+02   8.642228e+01
  -1.015416e+02   5.321498e+01
  -5.559828e+01   8.339459e+01
  -4.515338e+01   6.458936e+01
  -1.318822e+02  -1.838286e+01
  -1.323951e+02  -1.803691e+02
  -3.220196e+01  -2.536445e+02
   1.036102e+02  -1.899938e+02
   1.969558e+02  -1.277424e+01
   1.350059e+02   1.395589e+02
   1.154044e+01   1.729689e+02
  -6.251137e+01   6.710393e+01
  -7.517084e+01  -2.116495e+01
   4.781306e+00  -6.766468e+01
   5.494129e+01  -3.963782e+01
  -1.100071e+00  -2.728872e+01
  -5.780267e+01  -2.314287e+00
  -7.936502e+01  -7.466311e+01
   3.167541e+01  -7.408990e+01
   8.215081e+01  -2.309807e+01
   1.787691e+02   3.514901e+01
  -1.399502e+01   5.883136e+01
  -1.254101e+02   6.414088e+01
  -1.372098e+02   6.809239e+00
  -1.168091e+01  -3.531248e+01
   8.714891e+01  -5.483620e+01
   3.328186e+01   1.751008e+01
  -2.669876e+00   1.985916e+01
  -9.168664e+01   9.509397e+01
  -6.573719e+01  -7.076004e+00
  -7.792285e+01  -2.236512e+01
  -5.854294e+01   1.705675e+01
  -5.480489e+01  -4.097657e+01
  -8.433069e+01  -1.886842e+01
  -6.518843e+01  -1.113487e+02
  -1.253953e+01  -2.025768e+02
   7.406212e+01  -1.845158e+02
   2.097208e+02   4.172950e+00
   1.685911e+02   1.181757e+02
   3.441632e+01   1.180294e+02
  -7.773351e+01   4.825575e+01
  -5.736888e+01   1.969717e+01
   5.632664e+00  -1.526968e+01
   1.233766e+02   4.632869e+01
   5.463107e+01   6.649081e+01
  -1.200767e+02   7.508968e+01
  -2.053372e+02   9.564122e+01
  -1.415848e+02  -5.629143e+01
  -4.682923e+01  -6.695803e+01
   7.813364e+01  -9.001108e+01
   4.735783e+01   7.146572e+00
  -5.588651e+01   2.533976e+01
  -9.011693e+01  -4.588818e+01
  -5.159459e+01  -1.153015e+02
   1.129819e+02  -1.673148e+02
   2.223795e+02  -1.115062e+02
   1.460164e+02   9.997457e+01
   4.562502e+01   1.992110e+02
  -1.143462e+02   1.726414e+02
  -1.449284e+02  -1.224695e+01
  -4.816985e+01  -1.281004e+02
   2.082979e+01  -1.048126e+02
   7.398162e+01  -1.091828e+01
   5.217167e+01   7.625169e+01
  -1.495703e+01   5.169747e+01
  -3.336241e+01  -2.348061e+01
   4.098966e+01  -2.612834e+01
   8.711344e+00   8.082985e+01
   1.805338e+01   1.006786e+02
  -3.572379e+01   6.567217e+01
  -1.048684e+02  -3.978995e+01
  -1.892382e+02  -9.413866e+01
  -4.983182e+01  -2.844646e+01
   1.169008e+02  -3.212104e+01
   3.818539e+01  -2.492041e+00
   1.563426e+01  -2.515938e+00
  -5.436653e+01   4.329148e+01
  -2.902137e+01  -5.890783e+00
   2.885737e+01  -6.955889e+00
  -4.123096e+00   1.569468e+01
  -6.573847e+01   2.353014e+01
  -1.271187e+02  -1.683822e+01
  -4.405156e+01  -9.728089e+01
   8.703237e+01  -1.438817e+02
   1.574502e+02  -5.788067e+01
   1.220733e+02   9.482908e+01
   1.627162e+01   1.505476e+02
  -6.129084e+01   1.373965e+02
  -9.895096e+01   1.077368e+01
  -3.480859e+01   3.010765e+01
  -1.839141e+01  -2.824099e+01
  -1.412218e+01   2.489933e+00
   5.638497e+00   2.725604e+00
  -8.247213e+01  -7.293569e+01
  -1.648860e+01  -9.831615e+01
  -1.042102e+01  -8.548496e+01
   5.286552e+01   4.495582e+01
   1.015085e+02   4.457739e+01
   1.919432e+01   1.033413e+02
  -5.496506e+01   8.902582e+00
  -1.163394e+02  -1.618657e+01
  -2.176166e+01  -9.700371e+01
   6.202614e+01  -3.350131e+01
   1.231413e+02   3.771397e+01
   9.869242e+01   8.367645e+01
  -5.751359e+01   7.308527e+01
  -5.450369e+01   3.861664e+01
   3.325569e+01   6.287576e+00
   3.496767e+01   7.513376e+00
   4.069051e+01   2.485240e+01
  -8.729786e+01   5.073801e+01
  -1.019796e+02   3.047468e+01
  -5.566749e+01   3.701687e+01
   3.516317e+01  -6.799069e+01
   6.526806e+01  -7.519423e+01
   1.574953e+01  -1.965346e+01
  -2.391038e+01   3.486403e+01
   4.023417e+01   1.023867e+02
  -3.476534e+01   3.225321e+01
   6.614893e+00  -2.413798e+01
  -4.084321e+01  -3.801588e+01
   3.587180e+00   1.650825e+01
   4.111469e+01   4.449325e+01
   3.194729e+01  -1.731467e+00
   3.154277e+00  -1.541006e+01
  -9.036307e+01  -1.607158e+01
  -1.117654e+01   4.144867e+01
  -1.639507e-01   1.548957e+01
  -3.563317e+01   2.779258e+00
  -2.364967e+01  -6.402495e+01
   8.879801e-02  -4.440664e+01
   4.825607e+01  -7.890450e+00
   6.971729e+01   3.059762e+01
   3.827886e+01   7.815901e+01
  -6.929334e+01   1.247878e+01
  -1.399152e+02  -4.111961e+01
  -1.609964e+01  -5.347914e+01
   5.031722e+01  -4.663085e+00
   9.928303e+01  -1.615299e+01
   3.502495e+01  -1.517779e+01
  -5.914136e+01  -1.575055e+01
  -2.750457e+01   1.216756e+00
   4.781047e+01  -5.751341e+01
   7.272146e+01  -5.063670e+01
