
 $NMID
 id='ANONYMOUS ', fmtdat='(2E16.6)'
 volume=1.0
 tramp=1.0
 $END
  -2.386089e+03   1.664411e+02
  -1.763052e+03  -1.409065e+03
   2.740994e+02  -1.528722e+03
   1.119341e+03  -9.008068e+02
   5.748511e+02  -1.837423e+02
  -5.771778e+00   1.164573e+02
  -2.727197e+02  -1.202632e+02
   3.382354e+01  -3.845620e+02
   4.666921e+02  -4.990742e+02
   6.461405e+02  -1.025564e+02
   4.167191e+02   3.756718e+02
   3.783293e+01   5.046527e+02
  -1.306663e+02   1.806116e+02
  -2.284899e+01  -2.811794e+02
   7.438126e+01  -3.607625e+02
   2.898752e+02  -1.112241e+02
   6.405308e+01   3.838228e+02
  -7.505071e+01   4.053779e+02
  -5.336914e+02   1.851675e+02
  -2.436092e+02  -1.080884e+02
  -1.517598e+01  -1.798734e+02
   1.372673e+02  -5.173651e+01
  -2.471763e+01   1.249776e+02
  -1.918116e+02   1.265319e+01
  -2.355919e+02  -2.869223e+02
  -2.407318e+01  -2.636750e+02
   3.387180e+02  -1.707493e+02
   4.160820e+02   2.327393e+02
   1.301798e+02   2.329152e+02
  -1.992465e+02   8.754426e+01
  -3.210651e+02  -5.501090e+01
  -5.742811e+01  -2.733924e+02
   2.623283e+02  -2.171155e+02
   3.379897e+02  -1.283289e+02
   2.438419e+02   1.930818e+02
   8.371429e+01   2.831205e+02
  -4.141870e+01   6.594208e+01
  -1.845794e+00  -9.745431e+01
   1.169803e+02  -8.621756e+01
   1.851872e+02   1.917199e+02
   4.132445e+01   3.290432e+02
  -1.437996e+02   2.994875e+02
  -2.154103e+02   2.506458e+01
  -1.157130e+02  -2.280176e+02
   1.101010e+02  -8.414660e+01
   9.693875e+01   2.216715e+02
  -1.083665e+02   2.880353e+02
  -3.545864e+02   7.287896e+01
  -3.827277e+02  -2.596675e+02
  -1.396781e+02  -4.134895e+02
   2.619462e+02  -2.839815e+02
   4.455538e+02  -3.401543e+01
   2.755744e+02   1.853735e+02
  -9.759470e+00   2.360369e+02
  -1.615970e+02   1.136628e+02
  -1.568373e+02   8.847116e+00
   5.172149e+00  -8.121439e+00
   1.009576e+01   1.242256e+01
  -1.050468e+02   3.404401e+01
  -1.493463e+02  -2.303346e+01
  -6.854399e+01  -1.593237e+02
   1.349099e+02  -1.803763e+02
   2.587529e+02  -1.258841e+02
   2.209025e+02   8.317190e+01
  -1.928384e+01   2.711785e+02
  -2.455988e+02   3.639818e+02
  -3.051781e+02   1.640947e+02
  -1.898125e+02  -1.318325e+02
  -4.084255e+00  -2.674411e+02
   2.791722e+01  -2.603143e+02
  -2.660680e+01  -9.528268e+01
  -3.917488e+01  -6.884765e+01
   1.192187e+02  -9.079404e+01
   1.619788e+02  -5.622127e+01
   1.671829e+02   4.351112e+01
   7.402925e+01   1.925231e+02
  -1.030678e+02   1.716667e+02
  -1.272497e+02  -3.541522e+01
  -1.318373e+02  -2.060216e+02
   7.881233e+01  -2.443742e+02
   2.302506e+02  -1.094242e+02
   2.770012e+02   1.071735e+02
   1.765429e+02   2.348818e+02
  -1.319709e+01   2.141290e+02
  -7.317935e+01   1.941177e+02
  -6.616966e+01   9.571297e+01
  -1.084767e+02   1.083124e+02
  -2.860756e+02   7.473079e+01
  -3.853765e+02  -8.805565e+01
  -2.862089e+02  -2.029519e+02
   4.619757e+01  -3.261570e+02
   3.450558e+02  -2.607127e+02
   4.075718e+02  -1.141852e+02
   2.105041e+02   1.227408e+02
  -2.263741e+01   2.193061e+02
  -1.112641e+02   1.295489e+02
  -1.595407e+01   4.216391e+00
   6.235111e+01  -1.745230e+01
   1.153840e+02   4.985287e+01
   1.475815e+01   9.510114e+01
  -1.093833e+02   9.676497e+01
  -9.357946e+01  -6.797114e+01
   2.476676e+01  -1.171897e+02
   1.825853e+02  -7.891496e+00
   1.700614e+02   2.052580e+02
  -5.218100e+01   3.376501e+02
  -2.590552e+02   2.137729e+02
  -3.365863e+02  -7.941801e+01
  -2.150485e+02  -2.413859e+02
  -2.610934e+01  -2.469247e+02
   1.076526e+02  -7.643330e+01
   1.079923e+02   7.521619e+01
   3.532249e+01   4.043874e+00
  -5.027809e+01  -3.478052e+01
   3.361317e+01  -1.164212e+02
   8.387118e+01  -3.611932e+01
   1.455914e+02   5.492677e+01
   1.605310e+01   1.603592e+01
  -8.494965e+01  -2.463114e+01
  -5.064303e+01  -1.040171e+02
   1.001216e+02  -6.716649e+01
   3.046177e+02   2.484193e+00
   2.003399e+02   1.315390e+02
   2.646959e+01   2.542496e+02
  -1.916589e+02   1.969581e+02
  -2.636582e+02   7.014098e+01
  -1.003374e+02   8.666120e+00
  -1.320049e+01  -4.447605e+01
   1.246336e+01   7.664575e+00
  -6.491077e+01   4.268674e+01
  -1.321741e+02  -5.816933e+01
  -1.469272e+02  -1.269393e+02
  -4.076992e+01  -2.019701e+02
   8.590097e+01  -1.024319e+02
   9.024395e+01  -4.586123e+00
   7.538436e+01   4.780993e+01
  -2.001818e+01  -4.010370e+00
   3.138786e+01  -1.277272e+02
   1.118783e+02  -1.043627e+02
   1.836880e+02   2.196270e+01
   1.956572e+02   1.623532e+02
  -5.596315e+01   1.986652e+02
  -1.533387e+02   1.246798e+02
  -1.534374e+02   4.976948e+01
  -5.773613e+01  -7.913884e+01
   7.309878e+01  -7.655976e+01
   3.604403e+01  -3.651521e+01
  -3.653851e+01   4.850274e+01
  -5.172383e+01   5.681539e+01
  -3.439200e+00  -2.181827e+01
   5.945105e+01  -2.629799e+01
   9.587162e+01   4.348586e+01
   3.599824e+01   1.146057e+02
  -8.986700e+01   1.165923e+02
  -2.013403e+02   3.006615e+01
  -1.748902e+02  -1.338659e+02
  -3.149903e+01  -1.916915e+02
   8.192746e+01  -1.249793e+02
   1.056718e+02  -2.560550e+01
   6.837373e+01   2.932712e+01
   7.166989e+01  -1.599918e+01
   4.722640e+01  -8.077767e+00
   7.056561e+01  -6.170743e+01
   3.489395e+01   8.571824e+01
  -2.547957e+01   7.225451e+01
  -1.121525e+02   1.122106e+02
  -1.132822e+02  -6.819025e+01
  -3.462480e+00  -8.402572e+01
   1.363333e+02  -7.151534e+01
   1.396800e+02   6.769029e+01
   7.795677e+01   1.607347e+02
  -1.397324e+02   1.909950e+02
  -2.259347e+02   7.861767e+01
  -1.789266e+02  -7.203113e+01
  -7.178994e+01  -1.484430e+02
  -2.327359e+00  -1.229608e+02
   4.147647e+01  -8.088637e+01
   4.897999e+01  -8.197045e+01
   6.384465e+01  -1.303147e+02
   9.174339e+01  -9.018333e+01
   1.072014e+02   2.646364e+01
   1.171165e+02   1.706157e+02
  -3.745801e+00   2.039189e+02
  -1.022361e+02   1.453003e+02
  -1.107612e+02  -1.157167e-01
  -9.086704e+01  -7.976333e+01
  -2.185672e+01  -1.021243e+02
   5.592525e+01  -3.988655e+01
   3.800680e+01   8.233989e+00
  -3.166458e+01  -1.638880e+01
  -3.364104e+01   8.604028e+00
   7.791615e+01   1.428304e+01
   1.151401e+02   5.582161e+00
   3.461501e+01   7.237657e+01
  -4.989666e+01   3.222672e+01
  -2.132055e+02   1.518335e+01
  -1.498875e+02  -7.009051e+01
  -4.167768e+01  -8.518712e+01
   1.054370e+02  -6.586309e+01
   1.282816e+02   2.191213e+01
   6.181529e+01   3.922493e+01
  -5.367526e+01   7.067052e+01
  -4.749534e+01  -2.897828e+01
  -3.115926e+01  -8.558197e+01
   3.671389e+01  -9.542542e+01
   6.574327e+01  -4.204674e+00
   8.638005e+01   4.666874e+01
   8.880074e+01   1.573180e+01
   7.234831e+01   1.869067e+01
   4.757051e+01   1.801170e+01
   3.631883e+01   1.529543e+01
  -2.459427e+01   8.953272e+01
  -1.310418e+02   7.378773e+01
  -1.177982e+02   4.852693e+01
  -8.881672e+01  -1.306108e+01
   2.143025e+01  -5.679880e+01
   7.053727e+01  -5.624512e+01
   3.150002e+01   1.209997e+01
  -4.375139e+01   8.461936e+00
  -1.114567e+02  -6.080745e+01
  -4.280364e+01  -1.034342e+02
   1.102971e+02  -8.287751e+01
   1.667696e+02  -3.344540e+01
   1.978394e+02   4.376926e+00
   4.355569e+01   7.510774e+01
   1.092037e+00   5.909436e+01
  -3.030387e+01   9.651221e+00
   4.333425e+00  -3.320186e+00
   2.847748e+01   4.342533e+01
   6.537183e+01   9.531370e+01
  -3.174947e+01   1.344173e+02
  -9.105612e+01   5.138835e+01
  -1.364602e+02  -5.810619e+01
  -3.694405e+01  -1.260141e+02
   8.004251e+01  -1.306404e+02
   6.095280e+01  -1.694922e+01
   2.945670e+01   2.348346e+01
   1.425432e+01   1.111289e+02
  -5.915241e+00   1.353979e+01
   3.781118e+00  -1.521955e+01
  -3.080624e+01  -1.242582e+01
  -2.540689e+01   3.013579e+01
  -1.241106e+01  -5.304044e+01
  -6.623937e+01  -8.608217e+01
  -2.248589e+01  -8.016076e+01
   4.515331e+01  -2.337246e+01
   1.064704e+02   1.654135e+01
   1.274278e+02   6.284986e+01
   3.147289e+01   5.233332e+01
  -7.837127e+01   5.015159e+01
  -1.122127e+02   2.481255e+01
   4.252339e+00   2.514887e+01
   5.391775e+00   1.382818e+00
   4.041911e+01  -3.289608e+01
   2.461547e+00   1.848792e+01
   4.670006e+01   6.440728e+00
   8.983404e+01   4.201750e+01
   6.158515e+01   2.376270e+01
  -1.028454e+01   8.489610e+01
  -9.328421e+01   8.043379e+01
  -1.939040e+02   6.766010e+01
  -9.878454e+01  -1.394697e+00
  -1.185847e+01  -1.459533e+02
   7.052225e+01  -1.817294e+02
   8.035997e+01  -9.765065e+01
   6.780159e+01  -5.643452e+00
   8.096776e+01   3.537412e+01
   2.386943e+01  -3.558558e+00
   2.679303e+01  -1.875341e+01
   3.467292e+01   4.413525e+01
   4.737651e+01   9.224975e+01
  -4.633137e+01   7.749312e+01
  -9.075137e+01   2.377761e+01
  -6.739498e+01  -5.346397e+01
  -4.765158e+01  -8.666228e+01
   5.304361e+01  -2.347458e+01
   1.191126e+02   8.515220e+01
   6.807919e+00   6.392522e+01
  -5.070164e+01   5.663804e+01
  -5.343081e+01   2.843809e+01
  -4.964034e+01  -5.798956e+01
   2.581468e+01  -4.660591e+01
  -2.048580e+01  -4.914714e+01
   5.876274e+00  -7.274726e+00
  -2.775034e+01  -2.625466e+01
  -4.372111e+01  -5.033398e+01
   8.526268e+01  -9.080256e+01
   9.241689e+01  -7.609081e+00
   6.187184e+01   4.245481e+01
  -2.031203e+01   5.938986e+01
  -1.754625e+01   6.980680e+01
  -7.966847e+00   1.331463e+01
   6.384239e+01  -5.580881e+01
  -2.011104e+01  -5.707746e+00
   2.219926e+01   4.749677e+01
   1.603062e+01   2.927431e+01
  -7.126883e+00   2.561037e+00
  -2.537608e+01  -4.119923e+01
  -4.573858e+00  -4.805822e+01
   1.340896e+01  -3.044665e+01
   3.055744e+00   2.650610e+01
  -5.730869e+01   4.157337e+00
  -2.691918e+01  -1.011449e+01
  -3.403624e+01  -7.501411e+01
   7.198147e+01  -1.341686e+01
   9.244696e+01   9.615068e+00
   3.278490e+01  -1.599952e-01
  -2.962830e+01   2.571889e+01
  -2.064033e+01  -2.896868e+01
   2.717585e+01  -4.685899e+01
   4.787684e+01  -3.909161e+01
   6.385057e+01  -1.005021e+00
   5.073012e+01   3.147941e+01
  -5.328507e+01   6.439522e+01
  -5.479340e+01  -2.500827e+01
   1.228112e+01  -1.097027e+00
   2.214875e+01  -8.425885e+00
  -2.421848e+01  -1.608872e+01
  -2.114085e+01   4.701562e+01
  -7.308446e+01  -1.227763e+01
