
 $NMID
 id='ANONYMOUS ', fmtdat='(2E16.6)'
 volume=1.0
 tramp=1.0
 $END
   2.106891e+03   2.111410e+02
   1.187631e+03   7.805622e+02
   2.436018e+02   1.037322e+03
  -5.154214e+02   1.000176e+03
  -4.080084e+02   4.451659e+02
  -2.023385e+02  -7.276307e+01
  -1.539629e+01   3.487591e+01
   1.592022e+02   1.369516e+02
  -1.487388e+02   3.322983e+02
  -3.338724e+02   1.428015e+02
  -2.288359e+02  -3.329834e+02
  -2.103588e+02  -2.877619e+02
   5.120147e+01  -1.256325e+02
   2.948403e+01   2.228911e+02
  -3.059447e+01   3.098256e+02
  -2.365176e+02   1.114226e+02
  -1.739764e+02  -2.483915e+02
  -2.638797e+01  -4.127711e+02
   1.970180e+02  -2.033371e+02
   2.112774e+02   8.429657e+01
   3.124884e+01   1.236478e+02
   6.953258e+01   7.906938e+01
  -1.578128e+01   7.085227e+01
   1.330189e+02   6.820382e+01
   1.362540e+02   2.519112e+02
   4.817962e+01   2.335612e+02
  -2.325131e+02   5.434665e+01
  -2.803640e+02  -1.452330e+02
  -5.079178e+01  -1.307639e+02
   1.214188e+02  -3.815884e+01
   2.954245e+02   4.892777e+01
   4.069753e+01   2.864121e+02
  -1.451212e+02   8.506613e+01
  -2.687408e+02   1.177098e+02
  -1.388221e+02  -4.268202e+01
   2.482755e+01  -1.419827e+02
  -6.961589e+01  -9.524952e+01
  -7.320624e+01  -4.708235e+01
  -1.337079e+02   5.427285e+01
  -4.078374e+01  -7.602999e+01
   6.790815e+01  -1.987815e+02
   7.869452e+01  -1.632107e+02
   1.500570e+02   4.531982e+00
   1.700450e+00   1.376735e+02
  -3.868855e+01   2.508165e+01
  -9.974106e+00  -1.107674e+02
   6.734546e+01  -1.431429e+02
   2.303955e+02  -2.266941e+01
   2.118666e+02   1.420037e+02
   1.223469e+02   2.256543e+02
  -1.512477e+02   1.111643e+02
  -2.338637e+02   3.178393e+01
  -2.238124e+02  -8.955350e+01
  -7.856318e+00  -9.176627e+01
   1.387611e+02  -3.631439e+01
   9.917733e+01  -2.259213e+01
   8.032511e+01  -9.323840e+00
  -3.569091e+01  -6.545946e+00
   2.604479e+01  -4.960634e+01
   1.056849e+02   3.975234e+01
   4.654106e+01   7.580323e+01
  -6.061795e+01   7.949276e+01
  -1.716045e+02   5.620412e+01
  -1.836669e+02  -3.173717e+01
   5.194132e+01  -1.909870e+02
   1.609273e+02  -2.172248e+02
   1.990519e+02  -1.324627e+02
   1.157519e+02   8.154614e+01
   3.125990e+01   1.677160e+02
   3.225166e+01   1.431118e+02
   3.062450e+01   9.633996e+01
   5.427551e+00   1.206813e+02
  -1.066347e+02   9.530645e+01
  -1.099228e+02   3.062894e+01
  -1.093628e+02  -6.219881e+01
  -4.692646e+01  -1.254025e+02
   4.014775e+01  -6.663601e+01
   6.874912e+01   5.038255e+01
   6.910193e+01   1.216469e+02
  -3.693841e+01   1.502868e+02
  -1.598749e+02   4.284095e+01
  -1.795644e+02  -9.190962e+01
  -1.022658e+02  -1.525891e+02
   3.704639e+01  -1.509103e+02
   9.018273e+01  -1.025928e+02
   1.270763e+02  -5.536988e+01
   1.311598e+02  -4.199936e+01
   1.841434e+02   3.643350e+01
   2.238199e+02   9.120439e+01
   1.713749e+02   2.141075e+02
  -2.551105e+00   2.737506e+02
  -2.618276e+02   2.489950e+02
  -2.435556e+02   7.330791e+01
  -1.462614e+02  -4.356776e+01
   1.116695e+01  -1.397604e+02
  -1.833614e+00  -8.749098e+01
  -4.915942e+01  -6.444673e+01
  -5.423969e+01   1.927168e-01
  -3.006297e+01  -3.389532e+01
   4.732574e+01  -6.027081e+01
   5.145728e+01  -2.198825e+01
  -4.318320e+00   1.857931e+01
  -5.653508e+01   1.572230e+01
  -1.324652e+02  -2.463388e+01
  -1.098531e+02  -1.226625e+02
   2.227487e+01  -1.924456e+02
   2.219516e+02  -1.302403e+02
   2.363339e+02  -1.333345e+01
   1.964340e+02   1.422525e+02
   1.209266e+00   1.729151e+02
  -9.413688e+01   7.373307e+01
  -6.630213e+01  -3.368355e-01
   6.063361e+01   4.830627e+01
   3.337876e+01   6.565324e+01
   6.506363e-01   4.923352e+01
  -1.158254e+02   1.719219e+01
  -1.110757e+02   1.470537e+01
  -4.700578e+01  -2.678027e+01
   6.494083e+01   1.149995e+01
  -4.040144e+00   5.805609e+01
  -1.246070e+02   3.587687e+01
  -1.895534e+02  -3.826884e+01
  -1.612843e+02  -1.021675e+02
  -3.149237e+01  -1.880540e+02
   1.042933e+02  -1.243306e+02
   1.184274e+02  -6.165496e+01
   1.077021e+02  -3.366587e+01
  -2.232441e+01   3.350356e+01
  -7.892599e+00   1.063201e+00
   3.241850e+01  -6.023671e+01
   1.299462e+02  -6.342127e+00
   1.204554e+02   6.657172e+01
   1.867918e+01   1.027435e+02
  -6.698902e+01   5.999264e+01
  -4.147139e+01   4.480024e+01
  -2.046439e+01   1.687392e+01
   1.786563e+01   4.707009e+01
  -7.334311e+00   7.218650e+01
  -7.168174e+01   3.943641e+01
  -1.237918e+02  -1.950609e+01
  -5.261081e+01  -7.538584e+01
   2.276437e+01  -7.201067e+01
   1.177651e+02  -6.687577e+01
   7.024515e+01  -3.467766e+01
   3.905613e+01   1.703415e+01
  -6.643388e+01  -1.228496e+00
  -6.237042e+00  -1.413266e+01
  -8.266481e+00  -2.324376e+01
   5.006329e+01   3.001617e+01
   1.887130e+01   5.751167e+00
  -4.408168e+01   8.518420e+00
  -6.886810e+01  -1.056486e+02
  -1.013551e+01  -2.864894e+01
   9.899740e+01  -5.183848e+01
   1.632804e+02   3.041254e+01
   7.091239e+01   8.965363e+01
  -5.746895e+00   8.456695e+01
  -4.619338e+01   5.518310e+01
  -9.053155e+00   3.016580e+01
  -3.603648e+01   8.437907e-01
  -4.533671e+01   3.727963e+00
  -4.354895e+01   1.618708e+00
  -2.792547e+00   5.506309e+00
  -3.804782e+01  -4.694504e+01
   9.168189e+00   7.206540e+00
   7.667357e+01  -4.380199e+01
   5.936267e+01   7.403342e+01
  -3.759130e+01   7.396542e+01
  -8.044874e+01   8.527883e+01
  -1.008614e+02  -1.034526e+02
  -7.150634e+01  -1.160249e+02
   1.044827e+02  -9.789236e+01
   1.439242e+02  -3.703129e+01
   1.249048e+02   7.304957e+01
   4.342177e+01   1.311398e+02
  -7.696512e+01   6.655537e+01
  -2.415447e+00   3.052871e+01
  -6.053274e+01   2.802742e+00
  -2.343438e+01   4.968985e+01
  -6.102479e+01   8.155133e+00
  -3.647164e+01   2.072182e+01
  -4.346313e+01  -1.238289e+02
   2.755103e+01  -1.136630e+02
   4.581207e+01  -7.540236e+01
   1.086953e+02   1.731907e+01
   7.418011e+01   3.247779e+01
   2.844752e+01   1.119803e+02
  -7.025452e+00   1.013880e+02
  -3.649636e+01   1.484983e+01
   4.867170e-01  -3.402004e+01
   3.429479e+00  -2.278490e+01
  -2.533583e+01   1.381661e+00
  -6.001048e+01  -5.110013e+01
  -4.236094e+01  -4.810964e+01
   1.511708e+01  -2.669754e+01
   1.062746e+02  -2.803706e+01
   8.587827e+01   2.897936e+01
  -4.009581e+00   2.616474e+01
  -5.905927e+01   7.044860e+01
  -9.751287e+01  -1.568497e+01
  -3.536101e+00  -1.763842e+01
   4.252093e+01  -6.613991e+01
   5.703938e+01  -4.023887e+00
  -6.713535e-01   2.039064e+01
  -3.552591e+01   7.952517e+01
  -5.400825e+01  -3.989894e+01
  -2.500565e+01  -3.078410e+01
  -7.774637e+01  -1.687871e+01
  -2.687999e+00  -1.437709e+01
  -2.767253e+01   3.927494e+00
  -1.190811e+01   5.216928e+00
   1.794751e+01  -7.076258e+01
   8.302719e+01  -8.990588e+01
   1.363513e+02  -4.760635e+01
   1.348212e+02   3.926623e+01
  -4.421275e+00   7.401660e+01
  -7.777283e+00   5.648883e+01
  -5.505238e+01   4.038868e+01
   5.675544e+01  -2.584418e+01
   3.978872e+01   4.697203e+01
   3.991787e+01   8.893099e+01
  -3.885435e+01   3.149843e+01
  -9.983594e+01   6.459750e+01
  -1.457539e+02  -7.462884e+00
  -3.928997e+01  -4.157032e+00
   4.634317e+01  -9.465791e+01
   3.798423e+01   1.374416e+01
  -1.687634e+01   3.946862e+01
  -5.792314e+01  -8.635363e+00
  -2.877084e+01  -4.901685e+01
   3.373356e+01  -1.033746e+02
   7.536275e+01  -3.126352e+01
   9.365546e+01   3.468694e+01
   6.351498e+00   1.573236e+02
  -4.162084e+01   1.007586e+02
  -5.145002e+01  -4.947571e+01
  -3.856409e+01  -5.437386e+01
   8.627696e+00  -6.511826e+01
   1.641478e+01  -5.134841e+00
   3.022014e+00   5.722138e+01
  -2.065989e+01  -3.940791e+01
  -2.941991e+00  -2.752868e+01
   2.123785e+01  -1.657450e+00
   8.246379e+01   8.131359e+01
   3.537739e+01   6.453399e+01
  -9.938716e+00   1.546859e+01
  -9.498813e+01  -9.373725e+00
  -7.517761e+01  -7.228144e+01
   7.519018e-01  -2.148590e+01
   4.981351e-01   8.830722e+00
   6.419901e+01  -1.651503e+01
   1.201206e+01  -1.508360e+01
  -3.360312e+01   1.640872e+01
   1.663478e+01   5.402834e+00
  -4.162004e+00   3.148869e+01
  -1.505653e+01  -9.955062e+00
  -6.153921e+01   5.657307e+01
  -3.323034e+01  -2.990462e+01
  -4.634334e+01  -4.680246e+01
   4.871438e+01  -7.535835e+01
   9.184785e+01  -6.409669e+01
   7.866357e+01   2.411721e+01
   1.841473e+01   1.046088e+02
  -6.554102e+01   7.644681e+01
  -4.165013e+01   1.348261e+01
  -8.312297e+01  -1.119489e+00
  -2.388210e+01   3.647061e+01
  -2.967133e+01  -1.552637e+01
   4.204491e+00   1.934652e+01
  -3.834942e+01  -4.655011e+01
   7.982775e+00  -6.032864e+01
   2.333344e+01  -1.037515e+02
   4.432214e+01   1.118766e+01
   1.001300e+02   8.873212e+01
   1.604750e+01   1.660522e+02
  -3.538451e+01   7.853562e+01
  -6.307168e+01  -3.015697e+01
  -5.888126e+01  -1.085091e+02
   7.312879e+00  -1.439416e+01
   8.259713e+01   3.031510e+01
   2.965638e+00   3.535768e+01
  -3.299188e+01   4.484996e+01
  -3.483068e+01   3.721978e+01
   6.781827e+01  -5.068975e+01
   1.159839e+01   2.477316e+01
  -4.221089e+00  -8.789238e+00
  -7.282274e+01   7.937956e+01
  -8.913926e+01   4.654005e+01
  -3.178607e+01  -1.842335e+00
   5.498018e+01  -8.116511e+01
   5.476350e+01  -6.053268e+01
   2.084407e+01   1.280727e+00
   1.281067e+01   2.291824e+01
  -1.681755e-01   4.173691e+01
  -6.124026e+01   4.152418e+01
  -2.058119e+01  -5.434102e+01
  -3.492912e+01  -9.324602e+00
   6.275172e-02  -4.333484e+01
   3.893240e+01   8.275988e+01
   1.067982e+01   3.318298e+01
  -2.553218e+00   3.008166e+01
   1.765616e-01   6.475400e+01
   4.754264e+00   1.870953e+01
   6.159211e+01   4.407231e+01
  -5.090095e+00   1.357857e+01
  -3.104916e+01   2.241817e+01
   1.069847e+01   1.581496e+01
   2.329926e+00   2.697393e+00
   5.550072e+01  -1.104142e+01
  -5.690704e+00  -4.863442e-01
   2.066359e+00   4.203288e+01
  -4.694907e+01   1.519847e+01
  -6.434685e+00   9.636186e+00
   3.089048e+01  -4.482762e+00
   4.037752e+01   1.237716e+01
   1.675179e+01   9.209203e+00
  -5.547181e+01   2.619014e+00
  -6.130699e+01  -1.595537e+01
   3.326744e+01   3.967588e+01
   1.149034e+01  -4.027568e+01
