
 $NMID
 id='ANONYMOUS ', fmtdat='(2E16.6)'
 volume=1.0
 tramp=1.0
 $END
   1.879451e+03  -1.286288e+02
   1.385176e+03   1.002375e+03
   1.425610e+02   1.294561e+03
  -6.322361e+02   8.224797e+02
  -7.449848e+02   1.621102e+02
  -5.714514e+01  -2.048139e+02
   2.344171e+02  -4.160192e+01
   6.685055e+01   2.438458e+02
  -1.925390e+02   4.804197e+02
  -3.199645e+02   2.950283e+02
  -2.902104e+02  -2.302767e+02
  -9.067386e+00  -3.410761e+02
   1.409980e+02  -8.294141e+01
   1.271045e+02   2.280278e+02
  -3.869304e+01   4.449022e+02
  -2.033829e+02   1.584650e+02
  -3.256966e+02  -3.051384e+02
  -1.025382e+02  -5.509091e+02
   3.403938e+02  -1.858396e+02
   3.708186e+02   2.756772e+02
   1.361947e+02   1.919221e+02
   5.384461e+00   2.386245e+02
   3.020741e+01   6.085303e+01
   1.089561e+02   7.876647e+01
   1.213882e+02   2.839736e+02
  -3.785236e+01   1.876144e+02
  -3.758727e+02   1.024004e+02
  -3.126232e+02  -9.969059e+01
  -1.862194e+02  -2.115121e+02
   1.546984e+02   3.074708e+01
   2.670197e+02   4.209003e+01
   1.018503e+02   2.593473e+02
  -1.676563e+02   1.887614e+02
  -3.320288e+02   1.118044e+02
  -2.159975e+02  -1.288529e+02
  -1.664843e+02  -1.433299e+02
  -2.517780e+00  -7.814694e+01
  -1.104892e+02   6.087781e+01
  -1.469092e+02   9.588419e+01
  -1.396200e+02  -1.546138e+02
   1.022706e+01  -2.756398e+02
   1.808708e+02  -2.555185e+02
   2.266536e+02  -4.022938e+01
   2.873786e+01   1.428409e+02
  -1.331884e+02   4.130376e+01
  -1.061276e+02  -2.423111e+02
   1.092934e+02  -2.507754e+02
   3.364194e+02  -4.258870e+01
   3.947775e+02   2.351273e+02
   1.370159e+02   3.107091e+02
  -1.833118e+02   2.113161e+02
  -3.841753e+02  -2.160682e+01
  -2.452786e+02  -1.468438e+02
   1.874333e+00  -1.746011e+02
   2.277699e+02  -8.325276e+01
   1.670707e+02   1.046256e+01
   5.337731e+01   4.246008e+01
  -2.028536e+01  -1.956125e+01
   4.703346e+01  -1.255234e+01
   1.272506e+02   2.714926e+00
   6.272360e+01   9.193442e+01
  -1.407461e+02   1.939751e+02
  -2.505553e+02   1.354925e+02
  -2.362174e+02  -7.838334e+01
   7.406273e+00  -2.743934e+02
   1.890636e+02  -2.936838e+02
   2.911208e+02  -1.443272e+02
   1.511303e+02   9.102864e+01
   6.165128e+01   2.397954e+02
  -1.143982e+01   1.620800e+02
  -1.259091e+01   8.496847e+01
  -4.962634e+01   9.704448e+01
  -1.063999e+02   1.205973e+02
  -1.422315e+02   3.048768e+01
  -1.560842e+02  -1.249791e+02
  -3.117525e+01  -1.640158e+02
   6.586875e+01  -1.203060e+02
   8.933688e+01   6.601372e+01
   6.551182e+01   1.534072e+02
  -4.428395e+01   1.678638e+02
  -1.745018e+02   4.631575e+01
  -2.515506e+02  -1.318433e+02
  -9.157113e+01  -2.009297e+02
   5.880326e+01  -1.856603e+02
   1.344497e+02  -1.058755e+02
   9.746030e+01  -6.417040e+01
   9.901480e+01  -2.420133e+01
   1.877078e+02  -2.516358e+01
   2.826795e+02   3.314447e+01
   2.233505e+02   1.832183e+02
  -4.199815e+01   3.063997e+02
  -2.349789e+02   3.050543e+02
  -3.044549e+02   1.570601e+02
  -1.739978e+02  -7.339652e+01
   2.981720e+01  -1.970008e+02
   8.720761e+01  -1.341069e+02
   2.723497e+01   1.581550e+01
  -1.235849e+02   5.316567e+01
  -1.092458e+02  -2.830985e+01
  -2.682105e+01  -1.211010e+02
   8.650135e+01  -7.539632e+01
   5.812476e+01   6.366953e+01
  -1.168532e+01   7.455704e+01
  -7.042617e+01  -1.281240e+01
  -1.089279e+02  -1.851237e+02
   1.036333e+01  -2.487497e+02
   1.255397e+02  -1.656609e+02
   2.313194e+02   5.119954e+01
   1.817249e+02   1.899789e+02
   4.604297e+01   1.800145e+02
  -1.131424e+02   9.499571e+01
  -1.252124e+02  -3.793568e+01
  -1.686047e+01   1.442343e+01
   6.414239e+01   1.200085e+01
   3.037739e-01   7.498192e+01
  -8.230017e+01   4.104417e+01
  -1.059126e+02  -1.020199e+01
  -5.180263e+01  -2.556855e+01
   8.649237e+01  -1.955810e+01
   6.040553e+01   1.114249e+02
  -8.825593e+01   6.472191e+01
  -2.439799e+02  -3.462857e+01
  -1.694940e+02  -1.217371e+02
  -2.239123e+01  -1.784737e+02
   1.359823e+02  -1.522974e+02
   1.643390e+02  -5.256995e+01
   7.467191e+01   3.190322e+01
  -1.770110e+01  -5.211242e+00
  -4.353649e+01  -4.061187e+01
   3.697139e+01  -5.672141e+01
   1.294749e+02  -8.493279e+00
   1.234554e+02   4.613807e+01
   8.072200e+01   9.439119e+01
  -2.645051e+01   7.560766e+01
  -5.388877e+01   1.577722e+01
  -2.657349e+01  -1.512381e+01
   1.273632e+01  -1.158166e+01
  -2.305452e+01   5.709337e+01
  -5.299426e+01   1.330555e+02
  -9.713853e+01   4.974239e+01
  -1.175284e+02  -6.472910e+01
  -3.624036e+01  -1.190285e+02
   5.942666e+01  -1.430727e+02
   1.138604e+02  -2.237743e+01
   1.895501e+01   1.404742e+01
  -3.636561e+01   6.652514e+01
  -3.330977e+01   1.832104e+01
  -1.100562e+01   2.142500e+01
   7.885703e+00  -2.948087e+01
  -2.263839e+01  -2.949456e+00
  -6.687436e+01  -2.309132e+01
  -1.225340e+02  -7.961047e+01
   5.216363e+00  -1.386523e+02
   1.150524e+02  -1.231978e+02
   2.091346e+02   1.413505e+01
   1.235182e+02   6.170551e+01
   1.708378e+01   1.462649e+02
  -7.605635e+01   1.121753e+02
  -7.592534e+01   8.977468e+01
  -5.094471e+01  -9.097771e+00
  -4.273055e+01  -5.299582e+00
  -1.765792e+01   1.919312e+01
  -8.280703e+01  -2.792601e+01
  -6.556320e+01  -8.221916e+00
   2.743834e+01  -1.038217e+02
   1.355090e+02  -3.523870e+01
   5.836825e+01  -7.618865e+00
  -4.531622e+01   1.141174e+02
  -5.536934e+01   8.785922e+01
  -1.124655e+02  -1.032670e+02
  -6.677607e+01  -1.494403e+02
   4.741756e+01  -1.332372e+02
   1.780981e+02  -9.753932e+01
   1.744723e+02   3.445072e+01
   6.766599e+01   1.123713e+02
  -6.281120e+01   9.723870e+01
  -7.899119e+01   2.383043e+01
  -3.015891e+01  -2.898066e+01
   3.341867e+01   8.182978e+01
  -7.304466e+01   7.330966e+01
  -8.549407e+01   9.085963e+00
  -8.247246e+01  -9.320690e+01
  -5.232245e+01  -1.589313e+02
   3.077564e+01  -8.930160e+01
   7.193897e+01   1.869104e+01
   5.029213e+01   8.264715e+01
  -1.239221e+01   1.217948e+02
  -8.590685e+01   3.911949e+01
  -2.920921e+01  -5.468239e+01
   1.162402e+01  -1.263152e+01
   2.061565e+01  -4.251879e+01
  -7.454492e+00   2.615954e+01
  -5.470555e+01  -2.729930e+01
  -4.548948e+01  -1.597413e+01
   8.047074e+01   1.323563e+01
   1.356981e+02   9.715658e+00
   1.579430e+02   7.182068e+01
  -3.616738e+01   5.893544e+01
  -1.360781e+02   6.126003e+01
  -1.528996e+02   4.848652e+01
  -4.234437e+01  -5.132000e+01
   5.403768e+01  -7.858852e+01
   7.945378e+01  -3.511653e+01
   2.731750e+01   3.605394e+01
  -2.000601e+01   5.811295e+01
  -3.964154e+01  -1.510724e+01
  -3.579501e+01  -6.638554e-01
  -2.056287e+01  -9.901056e+00
  -2.792960e+01  -7.152884e+00
   5.437331e+00   3.299576e+01
  -1.874187e+01  -3.924102e+01
  -1.429275e+00  -8.937875e+01
   5.149856e+01  -5.864515e+01
   1.300533e+02   6.078085e+01
   1.058121e+02   1.168562e+02
  -1.333734e+01   1.115979e+02
  -7.707468e+01   3.941281e+01
  -9.405857e+01  -1.601192e+01
   1.651125e+01  -4.854711e+01
   1.015185e+02   7.798651e+01
   8.183439e+01   6.355993e+01
  -6.295273e+01   1.137072e+02
  -8.925939e+01   5.713132e+01
  -1.262839e+02  -3.292179e+01
  -6.676426e+00  -1.026871e+01
   3.068502e+01  -3.080413e+01
   2.801810e+01   1.909947e+01
  -6.139532e+01   7.809820e+00
  -9.415096e+01   2.093201e+01
   1.739885e+01  -7.362571e+01
   6.043095e+01  -1.063549e+02
   7.203727e+01  -6.445131e+01
   6.120604e+01   5.106537e+01
   6.959560e+01   1.478528e+02
  -4.113244e+01   6.536882e+01
  -6.845339e+01  -4.871528e+01
  -2.590296e+01  -1.008089e+02
  -1.261849e+01  -1.835291e+01
   4.370054e+01   4.266623e+00
   7.365495e+00   4.700515e+01
   3.775385e+01   1.012913e+01
  -3.393144e+01  -1.011851e+01
   9.664574e+00  -2.980581e+01
   3.150784e+01   7.453499e+01
   2.324441e+01   1.093164e+02
  -6.823739e+01   4.243945e+01
  -1.232303e+02  -5.373839e+01
  -1.161940e+02  -5.001987e+01
  -2.589335e+01  -5.205480e+01
   9.408312e+01  -2.339662e+01
   9.158072e+01  -1.305769e+00
   4.706254e+01   3.495250e+01
  -1.289565e+01   5.529472e+01
   7.397132e+00   4.529444e+01
  -8.398307e+00   3.337248e+01
   3.496282e+01  -6.546163e+00
  -4.121167e+01   2.030035e+01
  -7.205800e+01   1.794404e+01
  -1.142769e+01  -8.320940e+01
   5.391488e+01  -4.803595e+01
   1.803334e+02  -6.431740e+01
   1.043095e+02   5.349905e+01
   5.409963e+01   7.680444e+01
  -6.075947e+01   7.156531e+01
  -7.510553e+01   3.123294e+01
  -3.123944e+01  -1.635542e+01
  -3.020749e+01   4.709041e+01
  -3.003807e+01  -5.650125e+01
   9.407444e+00  -1.942329e+01
   1.111148e+01  -2.267711e+01
  -1.621291e+01  -7.315504e+01
   2.674130e+01  -4.301061e+01
   4.336640e+01   2.570904e+01
   3.613356e+01   6.643777e+01
  -3.065218e+01   5.222691e+01
  -6.926044e+01  -3.084536e+01
  -7.649018e+01  -5.699001e+01
  -2.021660e+01  -4.719857e+01
   4.978910e+01  -2.685330e+01
   7.602148e+01   4.273018e+01
   4.695590e+01   2.704758e+01
  -6.801058e+01   4.100059e+01
  -3.884737e+01   2.856425e+01
   2.122746e+01  -9.794012e-01
   4.075564e+01  -7.659311e-01
  -1.790148e+00   2.824203e+01
  -8.504674e+01   3.088437e+01
  -1.128907e+02  -6.407832e+00
  -2.213846e+01  -2.600267e+00
   3.029442e+01  -6.250459e+01
   9.786023e+01  -6.236957e+01
   5.107279e+01  -3.280843e+01
  -1.396487e+00   4.585876e+01
  -2.290808e+01   6.498430e+01
  -5.284007e+01   1.791911e+01
  -2.757300e+01  -7.311031e+01
   1.168771e+00  -7.769019e+00
   2.194502e+01  -5.520644e+00
   6.168027e+01   4.768681e+01
   7.321567e+00   5.804810e+00
  -2.527221e+01  -4.649978e+00
  -3.930549e+01   2.691069e+01
  -3.841028e+01   2.276050e+00
   2.583257e+01   2.721290e+01
  -1.632884e+01  -2.480268e+01
  -3.097799e+00  -6.805255e+01
  -1.795838e+01  -6.789316e+01
   1.469250e+00  -2.584576e+01
   3.450170e+01   3.611862e+01
   4.153729e+01   4.669353e+01
  -5.178687e+01   2.058459e+01
  -6.045112e+01  -2.269676e+01
  -3.261846e+01  -2.252378e+01
  -1.065333e+01  -4.406645e+01
   3.370569e+01  -4.919024e+01
   3.896671e+01  -2.657711e+01
  -6.456149e+00   1.644878e+01
   3.226519e+00  -2.663785e+01
   3.198165e+01   4.814474e+00
   5.631116e+01   3.321434e+01
