
 $NMID
 id='ANONYMOUS ', fmtdat='(2E16.6)'
 volume=1.0
 tramp=1.0
 $END
   4.596021e+03  -1.157280e+02
   2.568059e+03   2.746469e+03
  -7.076964e+02   2.760819e+03
  -2.177267e+03   8.370381e+02
  -8.031836e+02  -7.217487e+02
   6.804494e+02  -5.242936e+02
   8.816798e+02   6.123975e+02
  -2.880796e+01   1.051358e+03
  -8.592585e+02   6.873123e+02
  -8.508796e+02  -2.495411e+02
  -4.554244e+02  -9.012026e+02
   3.201534e+02  -8.286855e+02
   6.372647e+02  -1.747029e+02
   4.110158e+02   6.740678e+02
  -3.586682e+02   7.211568e+02
  -5.400310e+02  -5.343927e+01
  -5.560099e+01  -6.617373e+02
   5.408107e+02  -6.694470e+02
   5.155554e+02   3.914181e+01
   4.387664e+02   3.164226e+02
  -1.088414e+02   5.686897e+02
  -3.612014e+02   3.461497e+02
  -7.291869e+01  -9.973072e+01
   1.445197e+02  -6.499742e+01
   4.597851e+02   6.249890e+01
   9.301746e+01   4.128958e+02
  -5.096295e+02   4.277286e+02
  -8.556531e+02  -3.735576e+01
  -3.556805e+02  -6.067097e+02
   4.536463e+02  -4.314952e+02
   7.079872e+02   1.066274e+01
   4.282271e+02   4.651087e+02
  -2.127873e+02   5.456672e+02
  -6.070660e+02   1.746744e+02
  -3.984538e+02  -2.806789e+02
  -3.894686e+01  -4.698126e+02
   2.916076e+02  -3.271152e+02
   3.008109e+02   2.480808e+02
  -1.607353e+02   5.343155e+02
  -5.308650e+02   1.856100e+01
  -2.684172e+02  -6.898754e+02
   4.563533e+02  -6.967694e+02
   6.791485e+02   4.340010e+01
   2.185805e+02   5.806292e+02
  -3.577495e+02   3.615089e+02
  -4.501606e+02  -3.021361e+02
   8.962510e+01  -5.123465e+02
   5.741196e+02  -1.823235e+02
   5.916565e+02   3.637455e+02
   1.410420e+02   5.286028e+02
  -4.002842e+02   3.070125e+02
  -6.376207e+02  -5.739115e+01
  -4.029339e+02  -3.850468e+02
   1.510082e+02  -4.138928e+02
   4.303039e+02  -1.008079e+02
   2.272342e+02   1.502602e+02
  -1.588704e+02   8.844040e+01
  -1.477237e+02  -8.669625e+01
   2.126367e+02  -1.584209e+02
   3.123915e+02   1.459156e+02
   1.531497e+02   3.261413e+02
  -2.243658e+02   2.720959e+02
  -3.126156e+02   1.114528e+02
  -1.915973e+02  -5.598139e+01
   8.030439e+01  -1.559950e+02
   2.132954e+02  -2.496343e+02
   3.378373e+02  -1.577754e+02
   2.490967e+02   1.731740e+02
   3.582894e+01   4.503876e+02
  -1.236662e+02   3.614999e+02
  -1.588042e+02   3.889263e+01
  -1.084282e+01  -8.524771e+01
  -7.444551e+01   2.615787e+01
  -1.821689e+02   1.736714e+02
  -2.687726e+02  -2.184690e+01
  -1.887084e+02  -2.333624e+02
   4.353106e+01  -2.531901e+02
   2.525602e+02  -2.019957e+01
   2.014371e+02   2.121113e+02
  -2.101148e+01   2.685204e+02
  -2.646555e+02   8.820121e+01
  -3.258412e+02  -1.391016e+02
  -1.390858e+02  -2.815758e+02
   1.233891e+02  -3.193830e+02
   2.059417e+02  -1.202226e+02
   1.988369e+02  -1.215241e+01
   1.090592e+02  -2.722243e+01
   2.249929e+02   3.713562e+01
   3.423186e+02   1.248584e+02
   2.759104e+02   3.065056e+02
  -2.670576e+01   4.367322e+02
  -2.957688e+02   3.875498e+02
  -4.516619e+02   2.095564e+02
  -3.308114e+02  -7.416412e+01
  -9.789052e+01  -2.622452e+02
   8.715093e+01  -2.464823e+02
   1.070133e+02  -7.443395e+00
  -2.684190e+01   9.464003e+01
  -1.295977e+02   3.073790e+01
  -6.302585e+01  -2.056705e+02
   1.242152e+02  -1.546969e+02
   1.514837e+02   1.700187e+01
   3.176770e+01   1.543739e+02
  -1.580868e+02   7.676803e+01
  -1.645523e+02  -2.233336e+02
  -1.374420e-01  -3.002305e+02
   2.688350e+02  -1.817320e+02
   2.858356e+02   7.017933e+01
   2.310900e+02   2.710792e+02
   4.384566e+01   2.568746e+02
  -1.427462e+02   1.016344e+02
  -1.676970e+02  -4.841556e+00
  -2.226384e+01  -5.946916e+01
   4.751553e+01   1.231230e+01
   8.613700e+01   1.326688e+02
  -1.154692e+02   9.789314e+01
  -1.846663e+02   4.456015e+00
  -7.827949e+01  -3.163747e+01
   5.198890e+01  -5.376691e+01
   5.971630e+01   3.100294e+01
  -9.960118e+01   1.020176e+02
  -2.138607e+02   3.326411e+01
  -2.549346e+02  -1.108225e+02
  -8.317613e+01  -2.379432e+02
   1.415983e+02  -2.793605e+02
   3.046603e+02  -1.531150e+02
   1.523385e+02  -3.299082e+01
  -1.095160e+00   5.309300e+01
  -5.174748e+01   1.947824e+00
   6.646701e+01  -5.030743e+01
   1.698540e+02  -5.702147e+01
   1.903378e+02   7.962419e+01
   3.584860e+01   1.591296e+02
  -9.594290e+01   9.874604e+01
  -1.176503e+02   1.303005e+01
  -4.222810e+01  -7.929186e+01
   7.851829e+01   1.927348e+01
   4.928480e+01   1.111129e+02
  -9.497309e+01   1.108323e+02
  -1.819885e+02   3.444845e+01
  -1.559667e+02  -8.474659e+01
   2.653079e+00  -2.038662e+02
   1.610424e+02  -1.422152e+02
   1.840594e+02  -2.964047e+01
   3.137892e+01   1.245137e+02
  -7.235548e+01   1.674721e+02
  -7.522065e+01   3.259065e+01
  -2.957187e+01  -9.436132e+01
   3.646066e+01  -1.542109e+01
  -6.526350e+00   2.224122e+01
  -6.509763e+01  -3.741877e+01
  -1.033229e+02  -7.853010e+01
  -5.325836e+01  -1.450244e+02
   1.107699e+02  -1.135852e+02
   2.010114e+02  -2.197210e+01
   2.005571e+02   1.309066e+02
   7.370853e+01   2.108613e+02
  -1.051198e+02   1.927704e+02
  -1.674817e+02   3.673766e+01
  -9.806168e+01  -5.902904e+01
  -4.767752e+01  -6.682815e+01
  -3.870247e+01   1.725968e+01
  -4.359102e+01   1.899409e+01
  -7.704287e+01   6.251546e+00
   1.455357e+01  -4.573778e+01
   5.823212e+01  -1.744574e+01
   3.818585e+01   4.922951e+01
  -2.728122e+01   1.271303e+02
  -1.145925e+02   6.513506e+01
  -1.711192e+02  -5.765310e+01
  -8.533881e+01  -2.011517e+02
   6.540840e+01  -2.201777e+02
   2.341758e+02  -6.512684e+01
   2.153334e+02   6.699041e+01
   8.218820e+01   1.872800e+02
  -3.127821e+01   1.130716e+02
  -1.275903e+02   6.933549e+01
  -1.465923e+02   4.013800e+01
  -7.524319e+01   6.568332e+01
  -3.004280e+01   4.403317e+01
  -5.273614e+01  -9.559414e+00
  -7.617928e+01  -1.296202e+02
  -4.223491e+01  -1.762784e+02
   1.027178e+02  -1.057012e+02
   1.554373e+02   6.973669e+00
   1.372322e+02   1.198174e+02
   5.190197e+00   1.353080e+02
  -4.476666e+01   9.659231e+01
  -8.541502e+01   6.754777e+01
   1.098099e+00   2.420456e+01
   3.734108e+00  -7.487625e+01
  -5.588629e+01  -5.923334e+01
  -8.808743e+01  -5.119624e+01
  -2.295495e+01  -3.083377e+01
   1.154732e+02  -5.962866e+00
   1.377705e+02  -9.871434e+00
   1.148515e+02   5.094278e+01
   9.573436e+00   7.347785e+01
  -9.057670e+01   3.884428e+01
  -1.011459e+02   1.093282e+01
  -1.592755e+01  -6.859845e+01
   3.336640e+01  -2.396351e+01
   5.806777e+01   4.887711e+01
  -1.366744e+01   7.122803e+01
  -5.638648e+01   4.816203e+01
  -7.061321e+01  -1.873094e+01
  -3.333679e+01  -5.744692e+01
  -5.316474e+01  -1.012542e+02
  -2.084781e+01   8.375823e+00
  -5.027265e+01  -5.798855e+00
  -1.978190e+01  -5.232946e+01
   8.035807e+01  -9.941082e+01
   1.164103e+02  -7.494337e+01
   1.260197e+02  -3.671879e+00
   8.317506e+01   1.047711e+02
  -2.730330e+01   8.689433e+01
  -8.590248e+01  -4.739180e+00
  -2.913881e+01  -6.656758e+00
   7.139853e+01  -1.391069e+01
   1.156851e+02   3.196706e+01
   1.290916e+01   6.305589e+01
  -3.513612e+01   1.299465e+02
  -1.407524e+02   4.279125e+01
  -1.207322e+02  -2.967497e+01
  -1.244242e+01  -8.258132e+01
   4.948159e+01  -5.696797e+01
   1.926443e+01  -6.909041e-02
  -4.146752e+01   3.473810e+01
  -6.229253e+01  -2.942916e+01
  -1.775406e+00  -8.437369e+01
   7.479553e+01  -1.412603e+02
   1.285793e+02  -3.124076e+01
   8.755533e+01   1.022276e+02
   3.181010e+00   1.751810e+02
  -1.127691e+02   8.619328e+01
  -5.224729e+01  -5.937355e+01
  -3.493626e+01  -9.140483e+01
   2.466372e+00  -7.950414e+01
   6.863988e+01   2.058076e+01
   9.446617e+01  -5.467338e+00
   1.373866e+01  -1.234957e+00
  -1.864602e+01  -5.907432e+01
   3.256431e+00   2.355950e+01
   4.011651e+01   1.053740e+02
   5.539223e+01   6.221919e+01
  -1.614256e+01   1.496612e+01
  -1.588280e+02  -2.276988e+01
  -9.511334e+01  -6.612815e+01
  -3.825990e+01  -3.256800e+01
   6.003022e+01  -1.762613e+01
   3.834559e+01   2.912367e+01
  -9.652294e+00  -4.595295e+01
  -5.188371e+01  -5.608223e+01
  -1.057537e+01   1.019110e+01
   1.562583e+01   3.692498e+00
  -1.698561e+01   3.938849e+01
  -4.152703e+01  -7.029450e+00
  -1.079809e+02  -3.703274e+01
   2.387334e+01  -5.097563e+01
   1.146006e+02  -1.131528e+02
   1.755991e+02  -4.854232e+01
   9.329503e+01   1.010584e+02
  -3.722945e+01   1.071818e+02
  -8.629255e+01   1.320876e+02
  -5.493343e+01  -1.352937e+01
  -5.992895e+01  -3.875588e+01
   2.163755e+01  -5.999243e+01
  -3.064615e+01  -3.141436e+01
   6.255969e+00  -1.147068e+01
  -7.367788e+00  -5.384926e+01
   5.337949e+00  -8.005677e+01
   2.415699e+01  -5.654227e+01
   9.477484e+01   4.675945e+00
   6.126567e+01   1.479745e+02
  -1.278943e+01   1.139418e+02
  -1.138948e+02  -2.215627e+01
  -9.051416e+01  -7.660359e+01
  -1.158438e+01  -1.165011e+02
   3.742826e+01  -3.060825e+01
   3.364882e+01   5.534906e+01
  -2.062635e+01   8.112435e+01
   5.450241e+00   4.254398e+01
  -5.722849e+01   1.257910e+01
   5.046892e+01   1.069315e+01
   9.306229e+01  -2.320325e+01
   1.186659e+01   5.561845e+01
  -7.638101e+01   8.197797e+01
  -8.555399e+01   6.830121e+01
  -3.768451e+01  -3.675900e-01
  -2.595885e+01  -4.968795e+01
   2.947878e+01  -6.946144e+01
   6.398187e+01  -9.735550e+00
   1.828461e+01   5.511694e+01
  -2.239517e+01   6.699360e+01
  -2.454247e+01  -1.070906e+01
  -3.570233e+01  -5.585555e+01
   2.909295e+01  -3.691588e+01
   3.722607e+01  -9.107162e+00
   7.771524e+01  -1.281932e+01
   4.592562e+01  -2.083551e+01
   6.317063e-01   2.933187e+01
   2.902765e+01   1.926301e+01
  -3.143640e+01   5.283499e+01
  -1.538734e+01   2.657520e+01
  -3.929337e+01   1.330163e+01
  -1.873621e+01  -8.015018e+01
  -5.138897e+00  -7.244097e+01
  -1.680287e+01  -1.946764e+01
   7.239474e+01   2.964789e+01
   5.430704e+01   5.065850e+01
  -3.500791e+01   4.740134e+01
  -7.298126e+01  -5.304294e+01
  -4.684242e+01  -4.358753e+01
   1.163689e+01  -5.318664e+01
   1.914146e+01  -2.889875e+01
   2.049872e+01  -4.081791e+01
  -3.037699e+01  -4.170079e+01
   9.191127e+00  -3.843159e+01
   4.255241e+01   3.168216e-01
   6.707797e+01   2.018176e+01
