
 $NMID
 id='ANONYMOUS ', fmtdat='(2E16.6)'
 volume=1.0
 tramp=1.0
 $END
   3.069992e+03  -4.049054e+01
   1.895708e+03   1.579939e+03
  -1.906206e+02   1.555689e+03
  -1.170706e+03   9.899634e+02
  -8.559626e+02   2.602860e+02
  -1.089010e+01  -1.008988e+02
   2.584147e+02   7.253514e+01
   2.036134e+01   6.033335e+02
  -3.810826e+02   4.791905e+02
  -4.871693e+02   4.437859e+01
  -3.159749e+02  -4.800789e+02
  -1.054244e+02  -5.582751e+02
   2.366450e+02  -1.098096e+02
   2.719037e+02   3.438874e+02
  -4.699501e+01   5.997787e+02
  -4.119123e+02   8.600842e+01
  -3.612982e+02  -3.097842e+02
   2.324711e+02  -5.068916e+02
   3.661516e+02  -2.781936e+02
   5.112943e+02   1.009584e+02
   2.510051e+02   4.772630e+02
  -8.962524e+01   2.326943e+02
  -4.177090e+01   1.085362e+02
   8.681968e+01   8.912333e+01
   2.371791e+02   1.951789e+02
  -6.003287e+01   3.375799e+02
  -4.529714e+02  -6.457907e+00
  -4.247180e+02  -1.455504e+02
  -1.357273e+02  -2.519109e+02
   2.342729e+02  -2.448857e+02
   3.822937e+02   9.662852e+01
   7.800218e+01   2.504433e+02
  -1.599895e+02   2.557365e+02
  -2.707135e+02   8.717417e+01
  -2.421114e+02   2.676355e+01
  -1.001754e+02  -2.448847e+02
  -3.617614e+01  -2.039265e+02
  -1.031882e+02  -6.082810e+00
  -5.651362e+01   5.519192e+01
  -9.706292e+01  -8.310601e+01
   4.457334e+00  -3.713916e+02
   2.067788e+02  -3.231740e+02
   2.925612e+02   3.686733e+01
   1.377741e+02   2.119426e+02
  -1.405197e+02   1.554568e+02
  -1.234195e+02  -2.177641e+02
   8.844494e+01  -3.110854e+02
   3.608900e+02  -3.687927e+01
   3.485822e+02   3.280473e+02
   1.827465e+02   4.501648e+02
  -2.631603e+02   1.550998e+02
  -4.529192e+02  -6.106968e+01
  -2.819219e+02  -1.957096e+02
   2.465214e+01  -1.285823e+02
   2.142524e+02  -3.720299e+01
   1.693967e+02   3.395274e+01
   8.718238e+00   3.589067e+01
  -1.486210e+01  -4.285334e+01
   3.545059e+01  -7.833649e+01
   1.485713e+02   1.920967e+01
   8.085819e+01   1.350257e+02
  -1.358967e+02   1.708963e+02
  -3.084775e+02   9.561643e+01
  -2.452344e+02  -8.971550e+01
  -4.687605e+00  -2.524792e+02
   2.700061e+02  -3.767352e+02
   3.021044e+02  -1.539210e+02
   2.261835e+02   1.365425e+02
   3.468832e+01   3.140599e+02
  -7.788082e+01   2.444830e+02
  -4.760828e+01   1.475335e+02
   8.402696e+00   6.376159e+01
  -8.139481e+01   8.060650e+01
  -1.729584e+02   2.024130e+01
  -1.958653e+02  -7.996484e+01
  -9.084665e+01  -1.939484e+02
   8.541262e+01  -1.714324e+02
   1.503285e+02   2.296633e+01
   1.284415e+02   1.929206e+02
  -2.092679e+01   2.021505e+02
  -2.177066e+02   6.321805e+01
  -2.363348e+02  -1.620321e+02
  -1.507253e+02  -2.101552e+02
   2.500770e+01  -1.740541e+02
   1.054883e+02  -9.891890e+01
   9.295755e+01  -2.920088e+01
   1.542838e+02  -4.602605e+01
   2.412425e+02   3.356466e+01
   3.560919e+02   1.027119e+02
   2.679956e+02   2.601870e+02
  -7.494761e+01   3.384150e+02
  -2.756512e+02   3.037907e+02
  -4.249947e+02   1.522509e+02
  -1.928825e+02  -7.214092e+01
  -9.099884e+00  -1.798461e+02
   7.109121e+01  -1.720909e+02
  -4.362495e+01  -1.975559e+01
  -1.359008e+02   5.128757e+01
  -8.792732e+01  -3.708073e+01
   3.469758e+00  -1.802539e+02
   1.512480e+02  -1.127485e+02
   7.766380e+01   8.302584e+01
  -1.330914e+01   1.266720e+02
  -1.370142e+02   3.750922e+01
  -9.598481e+01  -2.266266e+02
   2.992546e+00  -2.728899e+02
   2.275393e+02  -1.787510e+02
   3.081849e+02   8.793362e+01
   2.174403e+02   2.014686e+02
   8.982661e+01   2.082132e+02
  -1.333431e+02   6.364169e+01
  -8.866656e+01  -9.589716e-01
  -3.565265e+01  -1.604503e+01
   9.064768e+01   7.138702e+01
  -4.682686e+01   1.446920e+02
  -1.261642e+02   8.805301e+01
  -1.573258e+02  -1.243317e+01
  -1.221519e+01  -5.774673e+01
   5.211870e+01   1.106953e+01
   9.596497e+01   6.374751e+01
  -1.127238e+02   1.178760e+02
  -2.550940e+02   2.817952e+01
  -1.962993e+02  -1.667530e+02
  -4.822949e+01  -2.323663e+02
   2.358708e+02  -1.800109e+02
   2.004293e+02  -1.096848e+02
   1.271963e+02   6.540710e+01
  -4.124572e+01   9.014233e+01
  -4.019810e+01   1.963555e+01
   6.150738e+01  -6.940805e+01
   1.822715e+02  -3.192352e+01
   1.354105e+02   1.126596e+02
   7.811727e+00   1.730150e+02
  -1.152489e+02   1.129379e+02
  -1.026213e+02   2.157113e+01
   1.372514e+01  -7.076831e+01
   4.424481e+01   2.446582e+01
   6.340683e+01   1.032111e+02
  -1.073824e+02   9.947605e+01
  -1.750388e+02   2.942563e+01
  -1.767559e+02  -1.205653e+02
  -5.345943e+01  -1.594516e+02
   1.255911e+02  -1.582909e+02
   1.453929e+02  -4.496766e+01
   2.559137e+01   1.533417e+02
  -3.539044e+01   8.266051e+01
  -8.332182e+01   2.011495e+01
  -3.779943e+00  -1.702958e+01
   5.195979e+01  -1.470454e+01
  -2.231476e+01   6.684304e+01
  -7.565374e+01   2.326611e+01
  -1.061674e+02  -3.829761e+01
  -2.401898e+01  -1.503566e+02
   1.202247e+02  -1.013083e+02
   1.898454e+02  -1.266484e+01
   2.039255e+02   1.472561e+02
   7.519847e+01   1.552601e+02
  -1.123606e+02   1.566842e+02
  -1.046213e+02   2.006477e+01
  -3.474312e+01  -3.030180e+01
  -1.519584e+01  -3.351982e+01
  -3.749143e+01   3.878395e+01
  -9.408965e+01   3.592521e+01
  -3.597431e+01  -5.886241e+01
   3.089132e+01  -7.566775e+01
   1.277656e+02  -8.199184e+01
   5.048356e+01   6.325779e+01
  -2.383543e+01   1.183911e+02
  -1.270270e+02   1.148268e+02
  -1.828392e+02  -5.950870e+01
  -8.070778e+01  -2.279631e+02
   1.095384e+02  -1.843657e+02
   2.242397e+02  -8.113913e+01
   1.906171e+02   4.332972e+01
   2.842331e+01   1.976110e+02
  -8.532523e+00   1.387270e+02
  -4.709890e+01   8.787430e+01
  -5.356833e+01   6.271162e+01
  -1.126779e+01   7.492933e+01
  -1.325574e+02   8.017309e+01
  -1.111581e+02  -3.799970e+01
  -9.869228e+01  -1.048611e+02
  -1.968376e+01  -1.887495e+02
   9.965471e+01  -1.245946e+02
   1.139518e+02  -1.317209e+01
   1.049982e+02   1.147831e+02
  -2.066350e+01   9.223027e+01
  -7.626726e+01  -8.512073e+00
  -8.669346e+01   4.130404e+00
   1.331263e+01  -1.000143e+02
   4.356129e+01  -6.047148e+01
   1.140960e+01  -1.537666e+01
  -7.147646e+01   1.623284e+01
  -3.595836e+01  -3.442022e+01
   1.878724e+01  -1.317793e+01
   1.089799e+02  -1.747082e+01
   6.324226e+01   7.053599e+01
  -3.361023e+01   1.023552e+02
  -1.015858e+02   9.837235e+01
  -1.302636e+02  -2.473182e+01
  -6.461918e+01  -9.356096e+01
   3.503662e+01  -6.518987e+01
   5.312162e+01   5.075995e+01
   4.924492e+01   1.063201e+02
  -3.009949e+01   8.328130e+01
  -6.198613e+01  -5.749765e+00
  -2.031797e+01  -6.945046e+01
  -6.898540e+01  -7.714597e+01
  -3.525644e+01  -1.578994e+01
  -4.571317e+01   1.902580e+01
  -4.257699e+01  -3.653688e+01
   5.262767e+01  -7.547203e+01
   9.801703e+01  -1.416486e+02
   1.394843e+02  -2.506000e+01
   9.849722e+01   6.177922e+01
  -1.500270e+00   1.312620e+02
  -8.306648e+01   6.720489e+01
  -6.155960e+01  -4.390898e+01
   1.978776e+01  -7.603670e+00
   6.826442e+01   2.618442e+01
   1.283048e+02   8.942539e+01
  -8.626074e+01   6.469695e+01
  -1.012831e+02   5.862551e+01
  -1.240411e+02  -2.378355e+01
  -5.678283e+01  -2.247853e+01
  -1.565120e+01  -2.326845e+01
   9.089510e+01  -1.300211e+01
  -3.217358e+01   2.282472e+01
  -8.152016e+01   1.574755e+01
  -4.188674e+01  -1.533036e+02
   6.249833e+01  -1.525060e+02
   1.823469e+02  -8.665797e+01
   7.765227e+01   4.644139e+01
  -9.355444e-01   1.226075e+02
  -7.024922e+01   1.454048e+02
  -9.220409e+01  -1.915812e+01
  -2.818275e+01  -5.711534e+01
  -1.610691e+01  -6.340201e+01
   1.331582e+01  -3.067000e+01
   7.327834e+01  -2.179223e+00
  -9.330047e+00  -6.718182e+00
  -2.160588e+01  -1.541315e+01
  -1.860577e+01  -1.631296e+01
   5.793258e+01   8.200742e+01
   2.730212e+00   7.720066e+01
  -5.717936e+01  -2.924136e+01
  -1.312715e+02  -5.081617e+01
  -9.556911e+01  -5.682635e+01
  -1.485326e+01  -2.398442e+01
   9.263991e+01   1.615891e+01
   8.566159e+01  -2.650218e+01
  -4.592604e+01  -1.933029e+01
   6.766962e+00  -1.253652e+01
  -1.661597e+01   8.823259e+00
   1.389279e+01  -7.044268e+00
  -1.729704e+01  -3.222092e+01
  -7.073154e+00  -2.003272e+00
  -8.706423e+01   1.633519e+01
  -4.035325e+01  -4.721366e+01
   8.404299e+01  -9.251202e+01
   1.540980e+02  -2.728175e+01
   1.351499e+02   1.550875e+01
   1.325872e+01   4.828315e+01
  -8.870371e+01   1.037879e+02
  -8.236569e+01   8.729197e+01
  -1.477347e+02  -1.707200e+01
  -1.253207e+01  -2.453535e+01
  -6.717307e+00  -1.091702e+01
  -2.039934e+01  -3.206792e+01
  -2.055345e+01  -1.972089e+01
  -3.278730e+01  -4.432486e+01
   4.080068e+01  -5.081260e+01
   9.544198e+01  -1.285202e+01
   5.694677e+01   8.264497e+01
  -1.474460e+01   1.332429e+02
  -4.303269e+01   5.297543e+00
  -8.322227e+01  -7.472701e+01
  -4.743008e+01  -1.071153e+02
   1.059811e+02  -6.793103e+01
   1.008333e+02   2.280619e+01
   5.878066e+01   3.965616e+01
  -3.137515e+01   7.584369e+01
  -5.300394e+01   3.357859e+01
  -7.909778e+00   2.563436e+01
   4.753486e+01  -8.588683e+00
   3.320951e+01   5.604812e+01
  -9.383372e+01   4.150347e+01
  -1.108350e+02   1.474764e+01
  -5.062861e+01  -4.733464e+01
  -4.301928e+00  -5.516095e+01
   4.982494e+01  -1.785292e+01
   2.947828e+01  -8.343738e+00
   3.732782e+01   4.863395e+01
  -3.070230e+01   7.195851e+01
  -2.195690e+01  -1.672392e+01
  -1.386237e+01  -4.955666e+01
   1.812648e-01  -2.727424e+01
   2.280736e+01   1.408021e+01
   3.135624e+01  -1.214841e+01
   5.068947e+01   2.506978e+01
   3.160299e+01  -2.404877e+01
  -1.236262e+01  -1.517240e+01
  -3.057762e+01   3.209150e+01
   6.424908e+00   3.720366e+01
  -5.192164e+01   2.478327e+01
  -1.354954e+00  -5.773295e+01
  -2.615518e+01  -8.427948e+01
   6.901622e+01   1.064953e+01
   6.843116e+01   1.316153e+01
   3.523859e+01   3.349314e+01
  -2.995400e+01   4.657874e+01
  -8.387084e+01   5.504591e+00
  -6.321690e+01  -6.874507e+01
   6.794754e+01  -9.373599e+00
   5.021987e+01  -4.029600e+01
   4.105159e+01   4.616980e+01
  -2.377224e+01  -3.576420e+00
  -6.023488e+01  -2.776160e+01
  -9.636609e+00   1.226328e+01
   6.718278e+01  -2.299852e+01
