
 $NMID
 id='ANONYMOUS ', fmtdat='(2E16.6)'
 volume=1.0
 tramp=1.0
 $END
   2.876022e+03   3.009169e+01
   1.749712e+03   1.203430e+03
  -3.324398e+01   1.634614e+03
  -1.052820e+03   1.021732e+03
  -8.878978e+02   3.018423e+02
  -1.720549e+01  -1.121062e+02
   3.295258e+02   1.786956e+02
   6.256138e+01   4.360106e+02
  -4.920058e+02   5.437465e+02
  -6.860208e+02   2.056350e+01
  -3.751245e+02  -4.211093e+02
   7.958559e+01  -5.952301e+02
   2.814747e+02  -1.188608e+02
   2.533934e+02   3.650473e+02
  -1.145891e+02   4.269149e+02
  -3.476863e+02   4.939017e+01
  -3.082301e+02  -4.379877e+02
   2.805479e+01  -4.700053e+02
   5.153452e+02  -2.130497e+02
   4.430981e+02   1.534343e+02
   1.926725e+02   2.487103e+02
  -1.988378e+02   2.472681e+02
  -9.146152e+01   7.562302e+01
   1.821477e+02   3.290389e+01
   3.058206e+02   1.962170e+02
   7.691611e+00   2.739006e+02
  -4.355757e+02   8.121813e+01
  -6.674125e+02  -1.352085e+02
  -1.662319e+02  -2.718145e+02
   2.752624e+02  -1.832002e+02
   4.441526e+02   4.810075e+01
   2.506834e+02   3.255363e+02
  -1.614906e+02   3.063475e+02
  -3.394102e+02   1.257014e+02
  -2.528972e+02  -2.045594e+02
   3.794340e+01  -2.467245e+02
   1.105631e+01  -1.366948e+02
  -6.887405e+01   1.529510e+02
  -1.804311e+02   1.381242e+02
  -1.807548e+02  -1.097081e+02
  -3.693077e+01  -3.728332e+02
   2.219092e+02  -3.295974e+02
   3.097863e+02   9.044661e+01
   9.343405e+01   3.222833e+02
  -1.875942e+02   9.039453e+01
  -2.170071e+02  -2.769399e+02
   8.503549e+01  -3.658417e+02
   3.520391e+02  -4.307366e+01
   3.828348e+02   3.651981e+02
   9.735446e+01   3.979882e+02
  -2.769164e+02   1.992399e+02
  -4.533723e+02  -8.317801e+01
  -3.003297e+02  -2.137487e+02
  -1.157039e+00  -2.079607e+02
   2.314388e+02  -7.691417e+01
   1.752673e+02   8.003596e+00
   4.793708e+01   6.416013e+01
  -2.990876e+01  -1.628221e+01
   3.010191e+01  -6.450050e+01
   1.238453e+02  -4.980270e+01
   9.509484e+01   8.441351e+01
  -1.130738e+02   1.842825e+02
  -2.322441e+02   1.280574e+02
  -1.808101e+02  -1.009026e+02
   2.274380e+01  -2.573107e+02
   2.299771e+02  -2.781174e+02
   3.098068e+02  -9.447948e+01
   1.447082e+02   1.050546e+02
   6.819646e+01   2.712840e+02
  -5.187049e+01   2.431617e+02
  -6.588171e+01   1.730316e+02
  -2.830705e+01   1.524340e+02
  -1.262756e+02   8.682243e+01
  -2.858050e+02   2.551595e+01
  -2.175899e+02  -9.537914e+01
  -7.856705e+01  -2.040355e+02
   9.707038e+01  -1.753207e+02
   2.080205e+02   1.015138e+01
   1.249151e+02   1.926927e+02
  -1.637359e+01   2.234170e+02
  -2.129988e+02   1.100209e+02
  -2.305873e+02  -1.063244e+02
  -1.057129e+02  -2.860617e+02
   3.904429e+01  -2.130748e+02
   1.321895e+02  -1.111461e+02
   1.126214e+02  -3.586452e+01
   9.307937e+01  -6.878130e+01
   2.859607e+02  -7.733853e+00
   3.838057e+02   7.891551e+01
   2.768643e+02   2.070390e+02
  -3.919530e+01   3.463847e+02
  -3.221721e+02   2.991496e+02
  -4.208237e+02   1.067364e+02
  -2.449440e+02  -2.865246e+01
   7.119829e+00  -2.205624e+02
   9.842265e+01  -2.213306e+02
  -4.903535e+01  -2.255667e+01
  -1.287508e+02  -2.928218e+01
  -9.606433e+01  -6.212879e+01
  -3.228926e+01  -1.632115e+02
   9.263964e+01  -8.247423e+01
   1.419733e+02   8.956533e+01
  -1.989482e+01   7.826572e+01
  -8.831969e+01  -2.594460e+01
  -1.192644e+02  -1.832796e+02
   1.526649e+01  -2.930353e+02
   2.425722e+02  -1.123946e+02
   3.149669e+02   9.909074e+01
   2.137932e+02   2.185181e+02
  -7.688551e-01   2.152206e+02
  -1.412069e+02   1.221520e+02
  -8.094666e+01  -1.567850e+01
  -1.356912e+01  -1.944352e+01
   2.821346e+01   3.691461e+01
  -4.893080e+00   1.156474e+02
  -8.368481e+01   1.108728e+02
  -8.378366e+01  -3.592296e+01
  -1.907938e+01  -6.324037e+01
   9.038901e+01   2.345491e+00
   3.830323e+01   3.234087e+01
  -1.384473e+02   8.384184e+01
  -2.643470e+02  -2.060602e+01
  -2.330142e+02  -1.657560e+02
  -3.136401e+01  -2.419191e+02
   2.113357e+02  -2.053492e+02
   2.963593e+02  -5.926195e+01
   1.474766e+02   6.518728e+01
   1.967452e+01   1.391663e+02
  -7.496191e+01   5.295599e+01
   3.100339e+01  -2.004556e+01
   1.318805e+02  -1.971330e+01
   1.397098e+02   1.260449e+02
   1.185870e+01   1.351792e+02
  -9.613153e+01   8.944399e+01
  -1.004155e+02  -2.916163e+01
  -8.190657e+00  -8.428821e+01
   5.369540e+01   3.148137e+01
   2.183034e+01   1.320792e+02
  -8.085940e+01   1.146810e+02
  -1.831353e+02   2.499155e+01
  -1.533832e+02  -1.170830e+02
   5.446662e+01  -2.337723e+02
   1.248637e+02  -1.272533e+02
   1.518382e+02  -7.515191e+00
   2.613695e+01   6.131723e+01
  -1.298546e+02   7.602850e+01
  -1.515440e+01   2.371916e+01
   3.425044e+01  -1.791909e+01
   6.859066e+01  -5.267610e+01
  -4.348610e+01   4.545447e+01
  -7.210869e+01  -4.401647e+00
  -1.030184e+02  -7.837867e+01
  -5.059707e+01  -1.148682e+02
   1.406336e+02  -1.386119e+02
   2.468202e+02   1.290701e+01
   1.806819e+02   1.377983e+02
   4.294224e+01   2.137604e+02
  -3.696310e+01   1.426186e+02
  -1.593429e+02   1.876421e+01
  -7.232702e+01  -5.418227e+01
   6.834283e+00   1.590711e+01
  -7.745324e+01  -8.622237e+00
  -7.819348e+01   1.666817e+01
  -1.979110e+01  -7.108049e+01
   7.578274e+00  -1.537736e+02
   9.249146e+01  -2.433346e+01
   8.103801e+01   3.171411e+01
  -3.571486e+01   1.229331e+01
  -1.792752e+02   5.790555e+01
  -2.055339e+02  -7.836304e+01
  -5.174008e+01  -1.767533e+02
   1.483544e+02  -2.008977e+02
   2.211201e+02  -4.812660e+01
   1.936626e+02   8.548452e+01
   4.721820e+01   1.243088e+02
  -5.409898e+01   1.627881e+02
  -1.334246e+02   1.316588e+02
  -4.677696e+01   8.906785e+01
  -1.014591e+02   4.965171e+01
  -7.114376e+01   3.748023e+01
  -1.022226e+02  -3.216053e+01
  -8.352461e+01  -1.376180e+02
  -1.226162e+01  -2.035593e+02
   8.414246e+01  -7.549637e+01
   1.191811e+02   2.695382e+01
   9.092980e+01   1.268540e+02
  -1.209502e+01   1.492035e+02
  -4.519297e+01   8.599211e+01
  -6.101864e+01  -2.070203e+01
  -1.214500e+01  -4.135471e+01
   4.912692e+01  -3.038770e+01
  -4.999117e+01   5.827994e+01
  -3.461208e+01  -1.139368e+01
  -1.800795e+01  -2.014605e+01
   7.277854e+01  -7.254849e+01
   1.341961e+02  -2.135332e+01
   1.037344e+02   7.149565e+01
  -2.617800e+01   8.095338e+01
  -4.683148e+01   6.767416e+01
  -9.553889e+01   4.845051e+00
  -3.869242e+01  -5.619570e+01
   8.595684e+01  -3.656808e+01
   5.389428e+01   4.022447e+01
   2.730214e+01   8.186464e+01
  -4.240112e+01   7.134136e+01
  -4.523715e+01  -3.063552e+01
  -4.771186e+01  -1.094736e+02
  -5.097768e+01   8.792837e+00
  -5.468441e+01   5.856685e+00
  -8.564214e+01  -2.300099e+01
   4.294971e+00  -4.578992e+01
   2.311621e+00  -1.421835e+02
   1.020585e+02  -8.387191e+01
   1.198103e+02  -5.570820e+01
   5.986261e+01   1.397216e+02
   7.324911e+00   9.004563e+01
  -8.284785e+01   7.869850e+01
  -4.591494e+01   3.591853e+01
   1.107412e+01  -2.439862e+01
   7.286322e+01   5.711477e+01
   1.201630e+01   7.475496e+01
  -3.996022e+01   3.931680e+01
  -1.448993e+02  -1.122489e+01
  -1.412568e+02  -8.762505e+01
  -2.490479e+01  -1.053947e+02
   8.143804e+01  -2.423834e+01
   6.454423e+01  -4.333736e+01
  -2.280741e+00   4.714948e+00
  -2.986231e+01  -1.847402e+01
   1.109698e+01  -1.008980e+02
  -1.526193e+00  -9.599914e+01
   1.368099e+02  -3.782247e+01
   1.124081e+02   8.956996e+01
   2.680175e+01   1.660242e+02
  -6.435625e+01   1.474264e+02
  -7.408544e+01  -5.118029e+01
  -6.382354e+01  -9.996423e+01
   6.806643e+00  -6.896910e+01
   2.526070e+01  -3.182711e+01
   3.522143e+01   4.860986e+01
   2.131140e+00  -3.299664e+01
   3.601270e+01  -3.246465e+01
   4.447432e+01  -8.614119e+00
   1.028202e+02   1.045280e+02
   1.198858e+01   1.123239e+02
  -7.523826e+01   4.750935e+01
  -8.073873e+01  -2.786724e+01
  -1.763936e+02  -1.857124e+01
  -4.619709e+01  -6.313048e+01
   4.978193e+01  -4.946331e+01
   8.501190e+01  -7.016164e+00
   3.224322e+01  -2.860089e+01
  -3.237002e+01   8.702100e+00
  -1.477415e+01   1.736457e+00
  -4.417791e+01  -9.514921e+00
  -3.419777e+00  -1.850340e+01
  -9.281332e+01  -2.456869e+01
  -5.625736e+01  -5.161828e+01
  -6.783409e+00  -1.018362e+02
   7.568419e+01  -9.931785e+01
   1.603405e+02  -5.349192e+01
   8.759505e+01   1.055725e+02
   3.436931e+01   1.167920e+02
  -7.017633e+01   9.850170e+01
  -1.060000e+02   6.330227e+01
  -1.061167e+02  -2.653232e+01
  -1.228709e+01  -6.391273e+01
  -3.659899e+00  -3.794260e+01
  -1.602652e+01   6.730005e+00
  -3.786694e+01  -5.035200e+01
  -2.233057e-02  -5.724712e+01
   1.661491e+01  -7.752757e+01
   6.897949e+01   3.974231e+01
   5.068792e+01   8.012379e+01
   3.591838e+00   7.994185e+01
  -5.172578e+01   1.317429e+01
  -1.034822e+02  -6.390677e+01
  -3.702305e+01  -7.279891e+01
   2.402276e+01  -6.080016e+01
   8.462281e+01  -2.805866e+01
   6.193145e+01   3.271377e+01
  -2.815199e+01  -1.641070e+01
   6.327142e+00   4.768495e+01
   2.110412e+01  -1.109991e+01
   5.140539e+01  -1.535588e+01
   4.516740e+01   4.639282e+01
  -1.076626e+02   1.053863e+02
  -7.131429e+01   8.468411e+01
  -3.243664e+01   2.286698e+01
   4.398823e-01  -9.350194e+01
   4.797348e+01  -7.315379e+01
   2.343633e+01  -4.605689e+00
   3.252316e+01   3.312114e+01
   1.425020e+01   5.837595e+01
  -3.048176e+01   1.292376e+01
  -4.034405e+01  -7.052016e+01
  -2.249899e+00  -2.438731e+01
   3.893933e+01   2.848660e+01
  -2.755714e+01   5.310446e+01
   1.291094e+01  -3.749989e+01
  -2.518712e+01  -4.112376e+01
  -1.676801e+01  -1.089333e+01
   5.015455e+01  -1.245866e+01
  -3.056951e+00   5.183556e+01
  -5.565143e+01   9.863768e+00
  -5.568700e+01  -2.453427e+01
  -1.915975e+01  -8.536982e+01
   2.517310e+01  -4.979074e+01
   4.271711e+01   3.142114e+00
   3.517154e+00   3.467277e+01
  -2.918028e+01  -1.167856e+01
  -6.947139e+01   4.014316e+00
  -3.608133e+01  -2.087799e+01
   4.132075e+01  -6.540519e+00
   5.635301e+01  -1.245280e+01
  -2.473688e+01   1.118107e+01
  -6.275984e+01  -1.832377e+01
  -5.088342e+01  -2.145294e+01
   4.193167e+01  -4.336761e+01
   7.928879e+01  -1.905190e+01
