
 $NMID
 id='ANONYMOUS ', fmtdat='(2E16.6)'
 volume=1.0
 tramp=1.0
 $END
  -2.305480e+03  -6.005093e+01
  -1.679223e+03  -1.166364e+03
  -2.481151e+02  -1.432687e+03
   8.131308e+02  -1.346309e+03
   6.761240e+02  -4.070022e+02
   1.164319e+02  -2.698148e+00
  -1.398484e+02   5.490464e+01
  -5.083313e+01  -3.302350e+02
   2.120239e+02  -3.342386e+02
   4.334062e+02  -1.674575e+02
   2.529991e+02   2.873376e+02
   9.131256e+01   4.785323e+02
  -9.931699e+01   2.070387e+02
  -1.827063e+02  -2.303578e+02
   1.195020e+02  -4.657014e+02
   2.614638e+02   8.958748e-01
   3.434921e+02   3.110402e+02
   1.568938e+01   4.408757e+02
  -2.410615e+02   3.082690e+02
  -2.746565e+02   2.594476e+01
  -2.063870e+02  -2.634348e+02
   3.115212e+01  -2.473584e+02
  -5.611136e+01  -1.297290e+02
  -1.318610e+02  -4.557556e+01
  -7.720011e+01  -2.478617e+02
   2.982552e+01  -2.881473e+02
   2.807677e+02  -7.048261e+01
   3.383949e+02   1.826033e+02
   9.010191e+01   1.831307e+02
  -1.699997e+02   6.205902e+01
  -3.706696e+02  -1.020876e+02
  -9.967182e+01  -2.742216e+02
   2.338727e+02  -1.783098e+02
   3.199029e+02  -9.515689e+01
   2.446832e+02   8.672202e+01
   4.249730e+01   1.882452e+02
   2.492773e+01   9.168146e+01
   1.050563e+02  -1.625281e+01
   1.520417e+02  -5.037609e+01
   1.259513e+02   1.341140e+02
  -6.822095e+01   2.993871e+02
  -1.775970e+02   2.777296e+02
  -1.533241e+02   6.340817e+01
  -2.364734e+01  -1.365324e+02
   9.054105e+01  -9.253654e+01
   5.261908e+01   1.597750e+02
  -1.433724e+02   2.320701e+02
  -3.099624e+02  -2.744702e+00
  -3.477003e+02  -2.951518e+02
  -9.626377e+01  -3.522584e+02
   1.756689e+02  -1.663775e+02
   3.590834e+02   4.878640e+01
   2.320462e+02   1.543459e+02
  -1.919765e+01   1.141769e+02
  -1.750209e+02   4.170723e+01
  -1.820749e+02  -3.847391e+01
  -5.932635e+01  -2.176885e+01
   4.034177e+00   2.484833e+00
  -2.607915e+01   3.413578e+01
  -6.802901e+01  -3.422084e+01
  -3.249142e+01  -1.485567e+02
   1.031609e+02  -1.893387e+02
   2.670819e+02  -1.157704e+02
   2.279868e+02   1.027149e+02
  -2.351285e+01   2.958186e+02
  -2.394796e+02   2.668396e+02
  -2.568266e+02   1.176643e+02
  -1.499622e+02  -1.690562e+02
   3.083340e+01  -2.548997e+02
   3.066390e+01  -2.194881e+02
   2.062685e+01  -1.190502e+02
   2.349421e+01  -5.674313e+01
   1.197175e+02  -8.583085e+01
   1.924235e+02  -1.009244e+01
   1.706974e+02   1.785432e+02
   7.015380e+01   2.423843e+02
  -5.966322e+01   1.180254e+02
  -1.861157e+02  -8.337498e+01
  -9.682218e+01  -2.058298e+02
   1.824568e+01  -1.483319e+02
   2.188587e+02  -1.846138e+01
   2.328912e+02   1.621408e+02
   1.097930e+02   2.182496e+02
  -7.818486e+00   1.921656e+02
  -8.169110e+01   9.650004e+01
  -8.281403e+01   7.149613e+01
  -1.806729e+02   1.094270e+02
  -2.570741e+02   9.739498e+01
  -3.261361e+02  -4.572611e+01
  -2.501604e+02  -1.908773e+02
   4.481042e+00  -3.381998e+02
   2.783244e+02  -2.606977e+02
   3.279430e+02  -1.257629e+02
   1.489631e+02   1.043675e+02
  -2.747288e+01   2.116141e+02
  -6.345265e+01   1.250177e+02
  -3.479058e+00   1.587666e+01
   4.355604e+01  -7.555037e+00
   4.840874e+01   1.834737e+01
  -1.583741e+01   4.968950e+01
  -5.989285e+01  -1.358906e+01
   3.350731e+01  -8.359370e+01
   6.688333e+01  -9.825947e+01
   1.140338e+02   2.884268e+00
   8.260320e+01   2.358361e+02
  -1.734422e+00   2.797852e+02
  -1.176242e+02   1.639558e+02
  -2.562713e+02  -5.205944e+01
  -2.041109e+02  -2.021568e+02
  -4.910407e+01  -2.275178e+02
   1.081830e+02  -9.765499e+01
   9.992494e+01   4.253809e+01
   1.508009e+01   5.752987e+01
  -2.812073e+01  -5.910231e+01
   1.313369e+01  -9.501611e+01
   7.549355e+01  -4.879856e+01
   1.126846e+02   3.209537e+01
   7.672602e+00   6.366789e+01
  -7.342613e+01  -1.171198e+01
  -3.859785e+01  -7.017966e+01
   7.889517e+01  -3.825149e+01
   2.270455e+02   2.726469e+01
   2.442375e+02   1.475779e+02
   9.833792e+00   1.562906e+02
  -1.478842e+02   1.232863e+02
  -1.883996e+02   2.561807e+01
  -6.729359e+01   3.742198e+01
   6.187296e+01  -1.939085e+01
   1.838422e+01   3.258342e+01
  -4.654665e+01   7.665480e+01
  -1.399059e+02   3.294525e+00
  -1.327009e+02  -9.360212e+01
  -4.638940e+01  -1.381008e+02
   4.716007e+01  -7.467028e+01
   7.236927e+01   2.877223e+01
   1.258824e+01   4.138120e+01
  -6.233556e+01  -2.512285e+01
  -7.126084e+00  -1.313029e+02
   9.790180e+01  -1.178996e+02
   1.629507e+02  -2.089025e+01
   1.216839e+02   1.252316e+02
   3.757174e+01   1.886751e+02
  -7.617755e+01   1.096058e+02
  -1.539164e+02   3.980224e+01
  -8.273158e+01  -6.629017e+01
   4.016203e+01  -6.262813e+01
   5.837689e+01  -7.198939e+01
   2.569131e+01   4.302469e+00
  -8.447092e+00   2.846580e+01
   9.510956e+01   9.178848e+00
   4.183215e+01   2.142089e+01
   1.154141e+02   8.363993e+01
   4.628128e+00   1.419200e+02
  -8.952365e+01   9.690882e+01
  -2.198034e+02   3.732077e+01
  -1.543003e+02  -1.146457e+02
  -3.023937e+01  -1.735244e+02
   6.661427e+01  -1.683703e+02
   1.109932e+02  -4.647488e+01
   8.496501e+01   5.944687e+01
   3.512245e+01   2.075033e+01
   4.706769e+01  -1.192876e+01
   4.138591e+01  -2.448354e+01
   9.880605e+01   3.979442e+01
  -4.958588e+01   6.917683e+01
  -1.027232e+02   7.039422e+01
  -9.448230e+01  -4.678472e+01
   2.139067e+01  -1.103325e+02
   1.386412e+02  -6.207848e+01
   1.744592e+02   4.289811e+01
   9.463819e+01   1.693200e+02
  -9.645104e+01   1.460838e+02
  -2.358738e+02   8.383931e+01
  -1.886610e+02  -5.520116e+01
  -1.070272e+02  -1.337132e+02
  -3.919392e+01  -8.347983e+01
   8.910578e+01  -1.129505e+02
   7.553750e+01  -6.901340e+01
   1.881038e+01  -8.010620e+01
   5.817665e+01  -1.078234e+02
   5.341006e+01   1.139809e+00
   9.652101e+01   8.193161e+01
   3.903567e+01   1.618840e+02
  -8.480112e+01   1.209352e+02
  -1.584050e+02  -1.672879e+01
  -1.286879e+02  -8.272468e+01
   2.474188e+00  -1.499387e+02
   3.070300e+01  -5.668222e+01
   2.206866e+01  -4.651802e+01
   3.364047e+01   1.803130e+00
   4.267797e-02  -9.156745e+00
   7.424182e+01   1.849979e+01
   6.294538e+01   4.436120e+01
   7.147281e-01   8.057280e+01
  -1.028050e+02   5.934528e+01
  -1.227893e+02  -1.276346e+01
  -1.193564e+02  -4.045208e+01
  -3.087371e+00  -8.894614e+01
   6.741609e+01  -3.565921e+01
   9.818661e+01  -1.393811e+01
   8.705871e+00   2.461964e+01
  -5.871202e+01   4.276337e+01
  -1.809914e+01  -6.516732e+01
   1.370585e+00  -5.250952e+01
   3.283992e+01  -8.818361e+01
   5.873790e+01   4.155476e+00
   5.495380e+01   3.499848e+01
   5.594593e+01  -8.116180e-01
   3.336599e+01   4.104074e-01
   8.275752e+01  -1.535501e+01
   5.952555e+01   9.874201e+01
   1.013017e+01   1.300783e+02
  -5.956709e+01   1.065879e+02
  -1.260083e+02   4.763510e+01
  -9.353617e+01  -8.343010e+01
  -2.737453e+01  -9.028999e+01
   5.859635e+01  -4.382114e+01
   2.771145e+01   2.390786e+00
  -8.879110e+01   6.211791e+00
  -9.953443e+01  -4.048449e+01
  -4.385887e+01  -1.221178e+02
   1.063493e+02  -1.155417e+02
   1.626543e+02  -3.539345e+01
   1.034534e+02   2.450007e+01
   8.487938e+00   9.359613e+01
  -4.143535e+01   7.267466e+01
   1.799907e+01   1.039701e+00
   4.450990e+01  -3.197290e+00
   1.199450e+02   2.444101e+01
   3.278100e+01   1.349483e+02
  -6.277464e+01   1.455758e+02
  -1.327702e+02   4.282176e+01
  -9.822879e+01  -7.882487e+01
  -1.533712e+01  -1.464134e+02
   7.448225e+01  -6.904045e+01
   8.693486e+01   8.477661e+01
   6.393902e+01   1.208581e+02
  -2.311452e+01   5.907407e+01
  -5.974080e+01  -1.592778e+01
   1.112664e+00  -4.569067e+01
  -2.678502e+01  -4.336589e-01
   2.530874e+01   4.249295e+01
  -7.757416e+00   4.335069e+00
  -2.760431e+01  -7.281417e+01
  -1.626805e+01  -1.178155e+02
   5.306597e+01  -1.782564e+01
   1.051143e+02   3.205184e+00
   1.588258e+02   1.007991e+02
   8.037524e+00   6.382000e+01
  -5.430419e+01   2.538730e+01
  -4.419926e+01   4.446171e+01
  -2.610428e+01  -1.621661e+01
  -1.047001e+01  -7.561729e+00
   1.986697e+01   1.550397e+01
  -9.046899e+00  -3.513736e+00
  -1.228526e+01  -1.766207e+01
   2.470808e+01   1.379961e+01
   1.944766e+01   1.263739e+00
  -4.805513e+00   4.151279e+01
  -7.868423e+01   8.830707e+01
  -9.551082e+01   2.058529e+01
  -7.856008e+01   6.433781e+00
  -6.344673e+01  -1.139636e+02
   6.876873e+01  -1.000450e+02
   9.775342e+01  -6.479403e+01
   5.669908e+01  -1.695349e+01
   4.146907e+00   4.321944e+01
  -6.773521e+00   1.925302e+01
  -3.134382e+00   2.496630e+01
  -6.988375e+00   4.667143e+01
   2.415829e+01   6.749998e+01
  -5.643517e+01   4.592437e+01
  -5.155300e+01  -3.625388e+01
  -6.215266e+01  -8.711027e+01
   5.359797e+00  -8.888266e+01
   7.347571e+01   1.028691e+01
   1.082279e+02   7.458600e+01
   7.510690e+00   7.382595e+01
  -4.598203e+01   5.199551e+01
  -8.107182e+01  -3.161318e+01
  -3.786015e+01  -8.347806e+01
   5.463383e+00  -2.060839e+01
   6.285602e+01  -1.447021e+01
  -1.756606e+01   4.176234e+01
  -8.882749e+01   5.186742e+00
  -4.545068e+00  -4.254207e+01
   3.300534e+01  -8.368341e+01
   7.352521e+01   1.066267e+01
   9.191541e+01  -8.584047e+00
   2.109694e+00   7.543168e+01
  -6.142210e+01   3.737171e+01
  -1.822024e+01  -3.395970e+01
   1.456660e+01  -4.840636e+01
   3.911321e+01  -1.672078e+01
   6.102074e+01   8.604583e+00
   6.396047e+01   6.652109e+01
  -4.745921e+00   3.640165e+01
  -1.951429e+01  -2.132679e+01
   1.730115e-01  -3.263632e+01
  -6.467916e+01   4.434808e+01
  -8.587818e+00   9.438360e-01
   1.651875e+01  -4.766931e+01
   2.494280e+01  -5.691996e+01
   4.134089e+01  -4.167145e+01
   4.962992e+01  -8.210041e-01
   1.519745e+01   8.093399e+01
   6.620979e-01   4.076761e+01
  -5.272395e+01   3.543273e+01
  -6.674153e+01  -3.792780e+01
  -4.910194e+01   1.082893e+01
   7.699375e+01  -2.687446e+01
   6.948472e+01  -3.626599e+01
   2.967941e+01  -1.683591e+01
  -1.823625e+01   6.423232e+01
  -7.278381e+01   1.711026e+01
  -4.496682e+01   3.077548e+01
  -4.431239e+00  -1.862770e+01
  -2.663439e+00  -1.466279e+01
  -2.968654e+01   3.443382e+01
  -2.656869e+01   5.091384e+01
