
 $NMID
 id='ANONYMOUS ', fmtdat='(2E16.6)'
 volume=1.0
 tramp=1.0
 $END
   2.578881e+03   2.873039e+00
   1.732332e+03   1.186011e+03
   1.631598e+02   1.702983e+03
  -9.990832e+02   9.262214e+02
  -6.880862e+02   1.986179e+02
  -9.930161e+01   4.295160e+01
   2.187675e+02   2.893406e+02
  -2.199393e+01   3.701647e+02
  -2.769376e+02   4.805504e+02
  -5.177133e+02   8.783962e+01
  -3.162290e+02  -2.919697e+02
   2.166971e+02  -4.343290e+02
   6.784979e+01  -5.573446e+01
   1.507673e+02   4.069575e+02
  -3.516161e+01   3.201881e+02
  -3.010540e+02   4.097846e+01
  -3.100253e+02  -3.933183e+02
  -1.466744e+02  -4.513573e+02
   3.011809e+02  -3.227571e+02
   1.993743e+02   1.214876e+01
   2.328462e+01   4.265685e+02
  -2.036820e+02   1.703668e+02
  -1.415869e+02   1.450518e+02
   1.092600e+02   1.775503e+01
   2.910201e+02   1.026071e+02
   3.622330e+01   2.784209e+02
  -5.794332e+02   1.906372e+02
  -5.645781e+02  -7.332608e+01
  -1.545068e+02  -3.517418e+02
   4.094646e+02  -1.365705e+02
   5.093968e+02   1.139462e+02
   1.630074e+02   3.686688e+02
  -1.626496e+02   2.704218e+02
  -3.391340e+02   7.301666e+01
  -2.016568e+02  -1.946439e+02
  -5.305576e+01  -2.150581e+02
   8.285395e+01  -2.002179e+02
  -3.284241e+01   8.628382e+01
  -1.310712e+02   2.081770e+02
  -2.197038e+02  -9.904310e+01
  -2.421877e+01  -4.702701e+02
   2.378153e+02  -3.738061e+02
   3.191872e+02   5.609907e+01
   4.329829e+01   2.819261e+02
  -2.205806e+02   1.540705e+02
  -2.211938e+02  -2.271766e+02
   6.611455e+01  -3.120269e+02
   3.432204e+02  -5.493171e+01
   3.995844e+02   3.050028e+02
   9.445107e+01   3.992490e+02
  -2.694385e+02   1.958306e+02
  -4.460964e+02  -1.233059e+02
  -1.853624e+02  -3.080478e+02
   1.183352e+02  -2.470621e+02
   2.641374e+02  -6.774939e+00
   1.181768e+02   1.016885e+02
   2.828718e+00   2.695747e+01
  -6.631252e+00  -5.574746e+01
   1.139445e+02   1.198271e+00
   1.418418e+02   5.402155e+01
   5.981225e+01   1.284251e+02
  -1.490336e+02   1.260611e+02
  -3.003332e+02   7.123657e+01
  -2.460524e+02  -7.921110e+01
   9.823605e+01  -2.600840e+02
   3.397931e+02  -2.714895e+02
   3.768055e+02  -7.237968e+01
   1.612301e+02   1.754672e+02
  -1.087168e+01   2.911223e+02
  -6.617274e+01   2.444430e+02
  -1.331884e+01   1.728376e+02
  -2.992701e+01   1.446875e+02
  -1.558484e+02   1.122029e+02
  -2.531155e+02   6.290950e+01
  -2.655637e+02  -1.100374e+02
  -1.401815e+02  -2.453324e+02
   8.207358e+01  -2.147055e+02
   1.421347e+02   7.210414e+00
   9.628896e+01   1.784007e+02
  -1.917282e+01   2.133594e+02
  -1.717236e+02   3.384809e+01
  -2.449951e+02  -1.100778e+02
  -1.145718e+02  -2.232590e+02
   2.227402e+01  -1.903446e+02
   1.155490e+02  -1.200136e+02
   1.227166e+02  -6.869574e+01
   1.332405e+02  -5.928578e+01
   2.382312e+02  -2.439109e+01
   3.197088e+02   8.191243e+01
   2.581208e+02   2.724654e+02
  -2.220686e+00   3.929811e+02
  -2.824418e+02   3.191059e+02
  -3.928278e+02   1.129790e+02
  -2.491353e+02  -5.196277e+01
  -4.474554e+01  -1.494386e+02
   6.385314e+01  -1.123137e+02
  -6.010391e+01  -8.048946e+01
  -1.727687e+02   5.955595e+00
  -1.517842e+02  -8.683372e+01
  -8.060123e+00  -1.437908e+02
   8.910125e+01  -8.823738e+01
   9.010350e+01   5.354790e+01
  -6.058486e+00   3.584361e+01
  -9.000044e+01  -8.340310e+01
  -8.030255e+01  -2.131924e+02
   3.078525e+01  -2.517230e+02
   2.434925e+02  -1.466685e+02
   3.276982e+02   4.628143e+01
   2.367387e+02   2.190920e+02
   5.314779e+01   2.063705e+02
  -9.673955e+01   1.020792e+02
  -5.848526e+01   5.165118e+01
  -6.394308e+01   8.116346e+01
   5.215658e+01   1.093991e+02
  -2.099253e+01   1.029905e+02
  -1.506798e+02   8.199432e+01
  -1.339197e+02  -1.374308e+00
  -8.535027e+01  -8.397805e+01
   6.338026e+01   1.065172e+01
   8.643212e+01   3.133826e+01
  -1.012308e+02   6.485910e+01
  -2.085708e+02   2.308391e+01
  -1.951221e+02  -1.335223e+02
   2.048346e+01  -2.281544e+02
   1.740463e+02  -1.623446e+02
   2.017158e+02  -8.904604e+01
   8.652493e+01   3.536339e+01
  -2.557402e+01   1.002544e+02
  -5.324089e+01   4.973163e+01
   4.885287e+01  -3.742200e+01
   1.762085e+02   1.387898e+00
   1.534628e+02   8.615233e+01
   4.450123e+01   2.299248e+02
  -6.526844e+01   1.510768e+02
  -1.088678e+02   4.643485e+01
  -6.727179e+01  -3.163534e+01
  -7.751100e-01   3.914120e+01
   5.286474e+01   5.105335e+01
  -1.018534e+02   1.104138e+02
  -2.269184e+02   3.752181e+01
  -1.831061e+02  -8.619515e+01
  -3.670602e+01  -1.125679e+02
   9.011309e+01  -1.303221e+02
   1.090971e+02  -7.896286e+01
  -2.179039e+01   1.262592e+01
  -1.175960e+01   7.319584e+01
  -6.944386e+01   9.396857e+00
  -8.777064e+00  -2.623281e+01
   4.457110e+01  -4.670361e+01
  -3.812617e+01   1.059335e+01
  -9.538979e+01  -6.424454e+00
  -1.005216e+02  -2.574132e+01
   3.009178e+01  -4.678416e+01
   1.294326e+02  -9.367217e+01
   1.894742e+02  -4.992328e+00
   1.316754e+02   9.053520e+01
  -4.239014e+01   2.184980e+02
  -8.938430e+01   1.314984e+02
  -6.618455e+01   2.067571e+01
  -6.619782e+01  -5.454674e+01
  -4.574892e+01  -3.454798e+01
  -2.955875e+01   5.883616e+00
  -1.160714e+02   3.882839e+01
  -2.931165e+01  -1.877665e+01
   7.435440e+00  -1.349669e+02
   9.089354e+01  -4.146630e+01
   6.053905e+01   5.308858e+00
  -2.364023e+01   1.360045e+02
  -1.471610e+02   8.309133e+01
  -1.636222e+02  -5.593484e+01
  -1.338255e+02  -1.771634e+02
   4.385913e+01  -1.788032e+02
   2.124905e+02  -1.974260e+01
   1.692864e+02   6.680211e+01
   3.965760e+01   1.564049e+02
  -4.259817e+00   1.385470e+02
  -8.543309e+01   7.399506e+01
  -9.156075e+01   1.705503e+01
  -6.873411e+01   3.610482e+01
  -6.598593e+01   2.377696e+01
  -9.030609e+01   7.383297e+00
  -6.530925e+01  -1.071230e+02
  -2.506678e+01  -1.424792e+02
   1.025762e+02  -1.223118e+02
   1.455847e+02  -4.822471e+01
   6.966077e+01   1.254021e+02
  -4.729427e+01   1.348964e+02
  -4.024841e+01   6.950600e+01
  -4.595640e+01   2.323571e+01
  -4.365038e+01   4.748589e-01
   2.363469e+01  -4.656310e+01
  -3.671827e+01   1.787868e+01
  -4.828417e+01   3.948879e+01
  -6.747937e+00  -2.521408e+01
   5.568175e+01  -4.857966e+01
   1.500638e+02  -1.032755e+01
   1.204434e+02   8.419922e+01
  -8.623576e+00   4.577256e+01
  -7.096747e+01   9.803895e+01
  -1.055043e+02   2.168893e+00
  -1.052588e+02  -4.164085e+01
   3.530790e+01  -4.113230e+01
   6.830601e+01   1.891032e+01
   4.320074e+01   8.891717e+01
  -1.929110e+01   6.426814e+01
  -9.853997e+01   1.099754e+01
  -1.761673e+00  -5.696120e+01
  -5.394582e+01  -3.669510e+01
  -7.269027e+01  -5.772679e+00
  -1.264195e+02   2.225752e+01
  -9.689527e+01  -4.484265e+01
  -9.614708e+00  -1.376985e+02
   9.193035e+01  -1.244606e+02
   1.632900e+02  -4.798818e+01
   1.716372e+02   5.827862e+01
   2.998423e+00   8.148302e+01
  -6.944021e+01   3.873674e+01
  -3.904980e+01  -2.990255e+01
   2.093699e+01   1.511992e+01
   1.280680e+02  -5.894768e+00
   7.633868e+01   6.186424e+01
  -1.198811e+02   1.079359e+02
  -1.790903e+02   6.818002e+01
  -1.294012e+02  -3.290304e+01
   5.203549e+00  -9.053200e+01
   8.329568e+01  -7.395368e+01
   4.778494e+01   1.076071e+01
  -1.393348e+01   7.252359e+01
  -4.125343e+01  -9.439924e+00
  -6.137751e+01  -1.205032e+02
   7.568033e+01  -2.021749e+02
   1.275865e+02  -3.536372e+01
   1.096667e+02   6.046303e+01
   3.895498e+01   1.788375e+02
  -6.523264e+01   1.102605e+02
  -6.765002e+01   7.134022e+00
  -3.755209e+01  -9.261814e+01
  -4.011081e+00  -8.188411e+01
   6.319147e+01  -1.226099e+01
   4.040322e+01   3.843019e+01
  -1.344495e+00  -2.749489e+01
  -2.362408e+01   3.419331e+01
  -4.720003e+00   3.921143e+01
   2.826409e+01   6.220523e+01
   1.845772e+01   5.059891e+01
   1.739464e-01   7.203945e+01
  -9.767010e+01  -8.469458e+01
  -1.281385e+02  -4.013888e+01
  -2.817402e+01  -3.048518e+01
   5.860830e+01   2.231156e+01
   4.672346e+01  -3.240263e+01
   4.562047e+00   3.810265e+01
  -4.582608e+01   2.216717e+01
  -2.168342e+01   4.747294e+01
   3.633945e+01   3.922471e-01
  -2.071205e+00  -2.689303e+00
  -7.048834e+01  -1.600367e+01
  -8.884930e+01  -3.095754e+01
   1.017843e+01  -1.005898e+02
   7.205677e+01  -1.337450e+02
   1.146872e+02  -5.662082e+01
   7.290985e+01   3.968271e+01
  -4.185145e+00   1.367799e+02
  -7.307179e+01   1.469163e+02
  -6.461845e+01   4.671970e+01
  -3.510461e+01   2.635084e+01
   3.438684e+01  -4.281843e+01
   5.400901e+01   2.026386e+01
   1.366629e+01   2.458140e+01
  -1.171799e+01  -4.933098e+00
  -1.898505e+01  -7.432927e+01
  -8.775272e+00  -2.268394e+01
   6.507252e+01  -4.522565e+01
   4.535739e+01   6.660533e+01
   1.961276e+01   6.636949e+01
  -1.029115e+01   4.029705e+01
  -6.392649e+01  -2.741529e+01
  -3.171915e+01  -8.285509e+01
   6.311078e+01  -2.577214e+01
   1.157577e+02  -2.104134e+01
   3.785196e+01   5.516914e+00
  -8.259148e+01   5.427814e+00
  -8.928084e+01   6.206851e+01
   4.506082e+01   5.509051e+01
   5.448684e+01  -5.170785e+00
   1.305656e+01   1.761569e+01
  -7.551664e+01   2.605937e+01
  -1.202041e+02   7.512148e+01
  -6.489280e+01   9.979615e+00
  -2.436539e+00  -5.669390e+01
   5.548205e+01  -7.406704e+01
   1.152108e+00  -4.750178e+01
   1.463430e+01   6.132178e+01
  -1.142858e+01   7.381482e+01
  -3.201463e+01  -3.176437e+01
  -1.326690e+01  -2.681972e+01
   5.396320e-01  -4.643924e+01
   2.595812e+01  -1.564018e+01
   5.424410e+01   4.331292e+01
   8.177389e+01   1.239435e+01
  -1.225074e+00   3.364522e+01
  -2.307418e+01  -4.763260e+00
   4.374323e+01   4.393067e+01
   3.329049e+01   4.690764e+01
  -9.348124e-01   2.116516e+01
  -1.541437e+01  -2.296424e+01
  -1.709942e+01  -3.204383e+01
   7.432923e+01  -9.899904e+00
   5.596198e+01   2.365810e+01
   7.105467e+00   4.467274e+01
  -5.302790e+01   3.681109e+01
  -6.506738e+01  -3.613334e+00
  -5.608663e+01  -3.236965e+01
   9.226917e+01  -1.282376e+01
   5.772377e+01  -2.088306e+01
   6.269871e+01  -1.931192e+01
  -3.837142e+01   1.763261e+01
  -3.662444e+01   3.272314e+01
   2.544373e+01  -9.181517e+00
   8.104057e+01  -2.157547e+01
