
 $NMID
 id='ANONYMOUS ', fmtdat='(2E16.6)'
 volume=1.0
 tramp=1.0
 $END
   3.531580e+03   3.207543e+02
   2.346438e+03   1.231664e+03
   2.054776e+02   1.944513e+03
  -1.169902e+03   1.531969e+03
  -9.339696e+02   4.785941e+02
  -2.056172e+02  -9.485408e+01
   2.006543e+02  -1.761299e+01
   9.581045e+01   3.914311e+02
  -4.305868e+02   5.850648e+02
  -6.328448e+02   9.355256e+01
  -3.841872e+02  -4.737191e+02
   7.900365e+01  -6.622867e+02
   1.745360e+02  -1.675257e+02
   3.841726e+02   3.115811e+02
  -9.585442e+01   6.021920e+02
  -4.311546e+02   2.183107e+02
  -2.502992e+02  -5.568380e+02
   6.016199e+01  -6.143582e+02
   2.156165e+02  -4.428076e+02
   5.077230e+02   1.743013e+02
   3.418471e+02   3.303887e+02
  -5.517603e+01   2.458458e+02
  -1.389653e+02   5.220785e+01
   1.310050e+02   1.807023e+02
   4.080525e+02   2.333781e+02
  -8.623876e+01   3.312915e+02
  -4.289068e+02  -3.408985e+01
  -4.648795e+02  -2.680836e+02
  -1.458489e+02  -2.694739e+02
   3.475375e+02  -9.178480e+01
   3.536238e+02   8.938680e+01
   1.050690e+02   3.796015e+02
  -2.367080e+02   3.142696e+02
  -4.287630e+02   1.321369e+02
  -2.618406e+02  -6.786805e+01
  -5.143458e+01  -2.541334e+02
   1.494000e+01  -2.121832e+02
  -6.860683e+01   3.315840e+01
  -1.820087e+02   4.686640e+01
  -5.552999e+01  -1.052007e+02
   6.436902e+01  -4.318715e+02
   2.423512e+02  -3.051712e+02
   2.988050e+02   5.838088e+00
   9.548738e+01   2.847961e+02
  -1.025318e+02   5.398289e+01
  -1.443534e+02  -2.233078e+02
   1.240280e+02  -3.948570e+02
   4.687522e+02  -4.852746e+01
   5.071385e+02   3.358522e+02
   1.469380e+02   5.221023e+02
  -2.706516e+02   2.954586e+02
  -4.540881e+02  -1.057866e+01
  -2.869003e+02  -1.824027e+02
  -2.032404e+01  -2.111055e+02
   2.054538e+02  -8.887992e+01
   1.524397e+02  -4.841236e+01
   2.472700e+01   7.069335e+00
  -4.552256e+01  -3.853468e+01
   1.126215e+02  -5.577480e+01
   2.349317e+02   5.493712e+01
   1.577443e+02   1.951571e+02
  -1.408165e+02   2.259411e+02
  -3.572567e+02   1.519887e+02
  -3.319600e+02  -8.664636e+01
  -6.465201e-01  -3.428702e+02
   3.715991e+02  -3.610479e+02
   4.124622e+02  -1.054029e+02
   2.144630e+02   1.738306e+02
   5.243505e+00   3.104321e+02
   3.275470e+01   3.065162e+02
  -2.442673e+01   1.803038e+02
  -2.238891e+01   1.844181e+02
  -2.152790e+02   1.553700e+02
  -2.898622e+02   3.709414e+01
  -2.227510e+02  -1.827673e+02
  -3.069857e+01  -3.163328e+02
   1.338285e+02  -2.195763e+02
   1.734440e+02   7.242527e+01
   1.318511e+02   2.799084e+02
  -6.327365e+01   3.134213e+02
  -2.879388e+02   9.913127e+01
  -3.362131e+02  -2.034752e+02
  -1.972053e+02  -3.511781e+02
   1.801665e+01  -2.265510e+02
   1.792972e+02  -1.875860e+02
   1.717243e+02  -1.270427e+02
   2.139434e+02  -1.094665e+02
   3.030998e+02  -9.150905e+00
   4.486780e+02   1.322845e+02
   3.733552e+02   3.645848e+02
  -2.129456e+01   4.791925e+02
  -3.759956e+02   3.837978e+02
  -5.247376e+02   1.766358e+02
  -2.731940e+02  -1.299035e+02
  -6.909496e+01  -2.862942e+02
   7.187287e+01  -1.943837e+02
   1.152118e+01  -7.051969e+01
  -7.918203e+01   8.761561e+01
  -1.031324e+02  -2.613030e+01
  -2.675325e+01  -1.265394e+02
   6.253345e+01  -1.084098e+02
   4.407249e+01   3.337109e+01
  -6.653543e+01   1.033953e+02
  -1.401833e+02  -3.815229e+01
  -9.117376e+01  -2.220003e+02
   1.217660e+01  -3.578390e+02
   2.040906e+02  -2.373856e+02
   3.518678e+02   6.284703e+01
   2.905844e+02   2.553970e+02
   4.230582e+01   2.961838e+02
  -1.372422e+02   1.087356e+02
  -1.404851e+02  -3.442577e+01
   2.553754e+01  -2.913484e+00
   4.524478e+01   5.145662e+01
  -2.479095e+01   9.202873e+01
  -1.100114e+02   8.972431e+01
  -1.144515e+02  -1.510269e+01
  -2.710636e-01  -1.029790e+02
   9.503662e+01  -4.564361e+01
   1.345142e+01   1.263070e+02
  -2.013104e+02   8.844958e+01
  -3.255348e+02  -1.058644e+01
  -2.569420e+02  -1.957499e+02
  -3.599718e+01  -2.743190e+02
   2.481393e+02  -2.399989e+02
   2.747036e+02  -1.000716e+02
   1.215938e+02   8.609277e+01
   9.856512e+00   1.158161e+02
  -4.047435e+01   2.740498e+01
   9.393113e+01  -5.446144e+01
   1.560499e+02  -3.114442e+01
   1.872329e+02   8.249221e+01
   3.071964e+01   1.487094e+02
  -5.199593e+01   1.297321e+02
  -1.142263e+02   1.926041e+01
  -3.757277e+01  -6.509925e+01
   5.586295e+01   2.932657e+01
  -4.862308e+00   1.186466e+02
  -5.482408e+01   1.191169e+02
  -1.379213e+02   4.960549e+01
  -1.759872e+02  -9.484406e+01
  -4.971526e+00  -2.106300e+02
   1.472450e+02  -1.452980e+02
   2.327148e+02   3.978827e+01
   8.591932e+01   1.340701e+02
  -7.204044e+01   8.843461e+01
  -4.230152e+01   2.426993e+01
  -3.435465e+01  -1.829900e+01
   3.143625e+01  -2.273752e+01
  -2.153827e+01   6.074805e+01
  -1.005275e+02  -4.164700e+01
  -7.160565e+01  -1.028280e+02
   5.390044e+00  -2.007582e+02
   1.385514e+02  -1.956266e+02
   2.351813e+02   1.446282e+01
   1.407100e+02   1.861799e+02
   3.903089e+01   2.490807e+02
  -6.860474e+01   1.958078e+02
  -1.283384e+02   3.042255e+01
  -8.934285e+01  -3.648764e+01
  -5.619030e+01  -1.289666e+01
  -5.300093e+01   1.588024e+01
  -6.884400e+01  -1.151580e+01
  -5.046500e+01  -5.489013e+01
   1.855624e+01  -1.581243e+02
   1.207408e+02  -4.679688e+01
   9.936908e+01   4.586791e+01
  -2.340260e+01   1.236901e+02
  -1.946512e+02   5.014875e+01
  -2.151961e+02  -4.915303e+01
  -1.076019e+02  -1.738915e+02
   1.220628e+02  -1.868394e+02
   2.187412e+02  -7.813630e+01
   2.428262e+02   8.669976e+01
   1.021200e+02   1.397740e+02
  -2.721114e-01   1.473805e+02
  -6.587690e+01   1.046873e+02
  -1.028591e+02   9.259811e+01
  -8.273261e+01   1.080302e+02
  -1.164946e+02   9.089516e+01
  -1.605790e+02   2.266975e+01
  -9.702106e+01  -1.624419e+02
   8.508974e+00  -1.839632e+02
   1.098119e+02  -2.089418e+02
   1.893115e+02   2.905741e+01
   1.569729e+02   1.274656e+02
   3.453128e+01   2.025059e+02
  -5.871017e+01   9.517469e+01
  -8.435530e+01  -3.935179e+01
  -1.139238e+01  -9.865655e+00
   8.369991e+00  -8.777679e+00
  -6.802809e+01  -1.461117e+01
  -9.688936e+01  -3.696238e+01
  -4.141709e+01  -5.352055e+01
   7.179083e+01  -2.856497e+01
   2.179856e+02   3.463408e+01
   2.054268e+02   5.625209e+01
  -3.060137e+01   1.084677e+02
  -1.033483e+02   6.012924e+01
  -1.603472e+02   2.744581e+01
  -8.123122e+01  -5.230354e+01
   5.987069e+01  -5.361585e+01
   7.489820e+01   8.040639e-01
   1.044604e+00   8.419804e+01
  -1.027362e+01   9.070567e+01
  -6.763553e+01   3.685325e+00
  -3.799398e+01  -5.687593e+01
   5.603467e+00  -8.521668e+01
  -3.617145e+01  -6.519730e+00
  -7.605770e+01   2.673038e+01
  -7.081593e+01  -7.523955e+01
   2.457948e+01  -1.863802e+02
   1.125060e+02  -1.443241e+02
   2.024480e+02  -5.010973e+01
   1.302314e+02   1.454836e+02
   2.742315e+01   1.636677e+02
  -4.774743e+01   1.212123e+02
  -1.012438e+02  -1.454402e+01
   4.029405e+01  -4.014840e+01
   1.332806e+02   1.984239e+01
   5.678333e+01   1.335817e+02
  -4.998436e+01   1.068022e+02
  -1.817883e+02   3.383535e+01
  -1.805263e+02  -2.450238e+01
  -3.938193e+01  -7.196505e+01
   4.308961e+01  -4.717088e+01
   5.326986e+01   6.516789e+00
  -3.499679e+01   4.315245e+01
  -1.036326e+02   8.569740e+00
  -3.611351e+01  -8.977137e+01
   5.525978e+01  -1.435451e+02
   1.473550e+02  -3.464501e+01
   7.778840e+01   8.610125e+01
  -1.250658e+01   1.912546e+02
  -7.452711e+01   1.096523e+02
  -7.269756e+01   1.524848e+01
  -2.455808e+01  -9.452780e+01
  -4.271046e+01  -7.154294e+01
   4.847106e+01   6.437058e+01
   3.004249e+01   5.879101e+01
   5.292967e+01   9.125653e+00
   8.615848e+00  -3.238790e+00
  -2.638101e+01   1.123146e+01
   1.432997e+01   7.100053e+01
  -2.362894e+01   9.329818e+01
  -4.694435e+01  -4.088320e+01
  -1.598154e+02  -3.429595e+01
  -1.294917e+02  -1.024363e+02
   1.629673e+01  -3.417946e+01
   7.244603e+01  -2.645845e+01
   8.346920e+01  -3.110893e+01
   5.247391e+01   5.531487e+01
  -2.245986e+01   1.302183e+01
  -6.427473e+00   3.451730e+01
   2.541518e+01   7.374188e+00
  -3.131695e+01  -2.086874e+01
  -6.572006e+01  -1.259100e+01
  -1.184218e+02  -1.732507e+01
  -2.286031e+01  -4.279520e+01
   6.969811e+01  -1.403404e+02
   1.483868e+02  -9.473823e+01
   1.432264e+02   1.819175e+01
   7.219898e+01   1.971771e+02
  -5.462871e+01   1.584095e+02
  -1.257901e+02   6.153285e+01
  -7.650538e+01  -4.216031e+01
  -5.434009e+01  -8.070572e+01
   2.497330e+01  -2.822977e+01
   2.256067e+01  -4.389291e+01
  -4.605641e+01  -7.534569e+01
  -1.430291e+01  -1.032349e+02
   1.215290e+01  -5.397467e+01
   1.211260e+02   2.657498e+01
   6.346066e+01   1.155771e+02
   2.521342e+00   1.228153e+02
  -1.023943e+02   6.308224e+01
  -1.117099e+02  -2.832886e+01
  -4.078993e+01  -8.426602e+01
   5.480487e+01  -6.984329e+01
   7.129889e+01  -9.843316e+00
   3.328512e+01   7.903017e+01
  -3.481435e+01   9.146701e+01
  -6.059879e+01   1.784244e+01
   2.471388e+01  -3.444478e+01
   6.250893e+01  -7.527109e+01
   1.938189e+01   1.239513e+01
  -4.874952e+01   5.353987e+01
  -7.716375e+01   2.937460e+01
  -1.029821e+02  -3.058585e+01
  -5.011455e+01  -1.267669e+02
   4.691980e+01  -7.835449e+01
   4.851511e+01   3.495436e+00
  -2.283031e+01   4.806621e+01
  -4.722457e+01   7.960412e+00
  -2.272218e+01  -8.326186e+00
  -4.059796e+00  -2.791173e+01
   3.725058e+01  -4.482672e+01
   1.467159e+01  -1.245274e+01
   5.723567e+01   1.226081e+01
  -3.576230e+01  -2.408581e+01
  -2.142110e+01  -1.921309e+01
  -5.036001e+00  -2.282801e+01
   2.039894e+01  -1.884946e+01
  -4.626382e+01   2.792320e+01
  -6.451742e+01   1.664607e+01
   7.198645e+00  -6.483297e+00
   1.298272e+01  -5.960541e+01
   1.741930e+01  -6.890564e+01
   7.274723e+01  -2.367296e+01
   5.014743e+01   8.367397e+01
  -3.518458e+01   9.161860e+01
  -9.746394e+01  -3.160224e+01
  -8.471524e+01  -6.002633e+01
   4.317680e+01  -3.420252e+01
   5.788567e+01  -5.901771e+01
  -2.860998e+00  -2.792556e+01
   3.253925e+01   4.883482e-01
  -3.173907e+01  -1.463080e+01
  -4.193303e+01  -1.300981e+01
   6.604685e+01  -2.217835e+01
