
 $NMID
 id='ANONYMOUS ', fmtdat='(2E16.6)'
 volume=1.0
 tramp=1.0
 $END
  -6.637372e+02  -1.146639e+02
  -3.952886e+02  -4.006135e+02
  -1.550405e+02  -4.734297e+02
   1.264420e+02  -4.015780e+02
   1.129676e+02  -1.574000e+02
   1.872999e+01  -3.480168e+01
  -1.312645e+01   4.849863e+00
  -5.430438e+01  -1.494018e+02
   9.053565e+01  -9.201258e+01
   1.016024e+02   3.399189e+00
   5.808341e+01   3.825048e+01
  -2.162678e+01   1.255588e+02
  -6.933606e+01   1.341997e+01
  -1.707413e+01  -9.907858e+01
   1.762556e+01  -1.348907e+02
   9.383598e+01  -6.394453e+01
  -1.553907e+01   7.645391e+01
  -4.713771e+00   9.073014e+01
  -1.366828e+02   3.113095e+01
  -5.627875e+01  -1.118599e+02
   2.619281e+01  -1.401531e+02
   2.337887e+01  -5.883288e+01
   9.099150e+01  -3.303020e+01
   2.655582e+01   2.835583e+01
   5.555098e+01  -3.999051e+01
   2.321750e+01  -8.059198e+01
   6.241403e+01  -4.505217e+01
   6.270597e+01   6.260463e+01
   7.018460e+01   2.869191e-01
  -4.366011e+01  -1.340417e+00
  -1.824585e+02  -1.835048e+01
  -1.305334e+02  -4.635766e+01
   1.082926e+01  -1.219155e+02
   1.842963e+01  -9.870144e+00
   1.027878e+02   4.786486e+01
   4.645320e+01   1.507978e+02
  -5.995987e+01   5.491263e+01
  -9.802039e+00   3.076477e+01
  -3.614611e+01   1.956449e+00
   1.641950e+01   3.394340e+01
  -7.844601e-01   6.587699e+01
  -2.607369e+01   3.844040e+01
  -3.728325e+01  -9.470960e-01
  -1.302115e+01  -2.168089e+01
  -1.333201e+01  -3.373172e+01
   4.221892e-01   7.233409e+01
  -2.302705e+01   4.545424e+01
  -9.233003e+01  -4.499692e+00
  -8.426432e+01  -6.499738e+01
  -4.600342e+01  -1.128467e+02
   6.135664e+01  -7.945269e+01
   8.336699e+01  -2.832720e+01
   1.008361e+02  -1.062598e+01
   4.945743e+01   8.349659e+01
  -1.348388e+01   9.277698e+01
  -5.402731e+00   2.466460e+01
  -2.583929e+01   3.108414e+01
  -3.182272e+01  -2.145631e+01
  -2.109457e+01   1.957350e+00
  -1.959818e+01   2.806271e+01
  -2.889179e+00   1.583698e+00
   3.604463e+01  -5.733344e+01
   7.134715e+01  -4.314008e+01
   7.545479e+01  -9.520183e+00
   2.113432e+01   6.655681e+01
  -5.775286e+01   1.122956e+02
  -7.539961e+01   6.943701e+01
  -7.417305e+01  -3.581985e+01
  -5.484522e+01  -1.133175e+02
   3.584866e+01  -1.059922e+02
   1.284858e+01  -6.206141e+01
  -1.759335e+00  -1.551815e+01
   3.919091e+00   1.232546e+01
   4.111466e+01  -5.238111e+01
   2.999106e+01   3.824588e+00
   4.653673e+01   7.166151e+01
  -4.814220e+01   3.247909e+01
  -5.905397e+01   5.840531e+00
  -5.083692e+01  -5.360587e+01
  -3.430246e+01  -5.678615e+01
   7.562504e+01  -2.982030e+01
   7.829243e+01   7.184847e+01
   9.671983e+01   6.640881e+01
   6.270737e+00   5.283780e+01
   2.057858e+01   4.601723e+01
  -5.412250e+01   5.405897e+01
  -3.555595e+01   4.512730e+01
  -2.781368e+01   4.005616e+01
  -7.998721e+01   2.872711e+01
  -1.096576e+02  -8.162498e+01
  -2.319928e+01  -1.179206e+02
   1.057389e+02  -1.322512e+02
   1.040825e+02  -5.398999e+01
   7.796368e+01   1.077451e+01
   1.497024e+01   7.317461e+01
  -6.609846e+01   6.182834e+01
  -3.681776e+01  -5.138811e+01
   1.529451e+01  -3.654522e+01
   6.026154e+01  -2.347866e+01
   5.629331e+00   6.157435e+01
   1.027063e+01   3.651140e+01
  -7.503304e+01   6.055866e+01
   1.918387e+01  -5.411336e+01
   4.671129e+01  -1.674355e+01
   2.386899e+01   3.734334e+01
   1.685685e+01   9.853861e+01
  -6.260713e+01   9.671492e+01
  -9.597609e+01   2.099287e+01
  -3.398493e+01  -7.739532e+01
   1.257932e+01  -9.479990e+01
   3.052754e+01  -3.291074e+01
   4.113293e+01   3.869231e+01
   3.796969e+01   4.107892e+01
  -3.376420e+01  -1.160301e+01
  -2.071972e+01  -1.985626e+01
  -1.317242e+01  -5.017463e+01
   6.479659e+01  -3.651630e+01
   2.677757e+01   7.162698e+00
  -2.494958e+01  -4.192349e+01
   8.210843e-01  -4.691717e+01
   2.612759e+01  -1.373306e+01
   8.543223e+01  -2.643685e+01
   8.287834e+01   2.749118e+00
   4.345881e+01   2.507477e+01
  -6.180662e+01   7.343303e+01
  -2.503525e+01   3.689793e+01
  -4.228409e+01  -1.210902e+01
   3.979108e+01  -3.551193e+01
   1.157757e+01  -3.237656e+01
  -2.004543e+01   6.383081e+01
  -8.839953e+01   6.662837e+01
  -8.546026e+01  -1.072864e+01
  -3.211253e+01  -7.776108e+01
   3.494366e+01  -3.989609e+01
   3.274946e+01  -3.943289e+01
  -1.219426e+01   1.589962e+01
   1.316642e+01  -2.854567e+01
   2.555407e+01  -3.517452e+01
   3.638174e+01  -5.963243e+01
   7.821506e+01  -5.031530e+00
   7.767714e+01   2.379249e+01
   2.636693e+01   9.789410e+01
  -4.584192e+01   5.934474e+01
  -7.281835e+01  -1.995828e+01
  -4.202228e+01  -2.682160e+01
   3.019738e+01  -1.853701e+01
   4.778543e+01   4.948164e+00
  -2.185923e+01   1.063295e+01
  -2.638582e+01  -1.862414e+01
   1.661617e-01  -3.509921e+01
   2.245156e+01   4.500296e+01
   5.576007e+00   1.011438e+01
   3.428979e+01   8.741319e+01
  -8.124489e+01   4.860265e+01
  -7.949153e+01  -5.131880e+01
  -6.965647e+01   1.561229e+01
  -6.242737e+00  -6.892289e+01
   2.073594e+01  -5.206905e+01
   5.274730e+01   1.577191e+01
  -6.748415e+00   2.312500e+01
  -5.312603e+01  -7.299928e+00
  -2.019458e+01   7.311678e+00
   3.411656e+01  -5.880324e+01
   7.773352e+00  -1.917941e+01
  -2.970103e+01   4.315652e+01
  -2.893289e+01   7.011191e+00
  -1.693172e+01  -3.815551e+01
   3.915585e+01  -9.935391e+00
  -1.632917e+00  -1.963956e+01
   2.060570e+01  -1.246134e+01
  -1.543946e+01   7.289177e+01
   9.501743e-01   1.033143e+01
  -5.446307e+01   3.010505e+01
  -4.627771e+01  -7.783585e+00
  -1.185208e+01  -5.514250e+01
  -3.211409e+01  -4.091859e+01
   5.210947e+00  -9.740124e+00
   5.215239e+01  -2.430561e+01
  -3.078049e+00  -7.856208e+01
   4.264171e+00   7.046423e+00
   3.955383e+01  -9.392424e+00
   6.532129e+00   5.256976e+00
  -4.649768e-01   3.276575e+01
  -3.430507e+01   4.010185e+01
  -3.484211e+01   4.056663e+01
  -1.589402e+01   2.172689e+01
   2.188787e+00  -5.347426e+01
   7.110483e+01  -3.943177e+01
   2.775277e+01   2.572980e+01
   6.454398e+00   3.619227e+01
  -1.110973e+01   1.569179e+01
  -4.131447e+01   1.823041e+01
   3.316685e+01  -5.277720e+01
   3.175380e+01   4.378646e+01
  -1.790378e+01   2.612969e+01
  -1.002503e+01   2.357267e+01
  -4.614119e+01  -1.440841e+01
  -1.416106e+01  -3.541914e+01
   5.071789e+01  -8.748073e+01
   3.135969e+01   3.182788e+01
  -1.001769e+01  -3.845629e+00
   1.443145e+01   2.160818e+01
  -5.638183e+01   1.601654e+01
  -1.610325e+01  -6.226838e+01
   4.429010e+01   1.065807e+01
   3.616714e+01   5.005251e+01
   1.628196e+01   6.185866e+01
   2.484181e+01   3.971523e+00
   3.256937e+01   7.327898e+00
   2.971480e+01  -3.201449e+01
   4.444933e+01   9.250116e+00
  -2.809899e+01   3.660130e+01
   7.239849e+00   6.134188e+01
  -6.973734e+01   2.963765e+01
  -4.105964e+01  -5.286667e+01
  -1.320838e+01  -3.926050e+01
   1.385063e+01  -3.231984e+01
   4.942757e+01  -1.951732e+01
   9.278147e-04   2.064068e+01
  -5.293402e+01  -9.013813e+00
  -3.018615e+01  -1.020345e+01
   1.041417e+01  -1.600237e+01
   6.596324e+01  -2.027170e-02
   3.214728e+01  -1.264647e+01
  -9.507994e+01   3.977813e+01
  -2.788594e+01   2.501004e+01
  -4.505440e+01   2.899146e+01
   2.200395e+01  -2.556820e+01
   4.138358e+01   3.836386e-01
  -2.748213e+00  -4.102423e+01
  -2.132594e+01   5.827286e+01
  -4.322270e+01   1.153296e+01
  -2.293190e+00  -5.165808e+01
  -4.899890e+01  -7.564104e+01
   1.601075e+01  -3.002003e+01
   2.021593e+01  -2.355296e+01
  -4.608583e+01  -1.105990e+01
   5.494863e+01   5.671906e+01
   7.380609e+00  -2.156558e+01
  -4.049594e+01  -2.228894e+01
   3.757813e+01   4.538367e+01
  -7.638912e+00   4.727657e+00
   9.658148e+00  -2.816397e+01
  -3.921832e+01   1.649826e+01
   1.310866e+01  -2.453695e+01
   1.779723e+01   1.940124e+01
   2.975377e+01  -4.003498e+00
   3.891576e+01   2.001002e+01
  -3.289806e+00   2.157915e+01
   1.954408e+01   4.661570e+01
  -2.178192e+01  -7.757137e+00
  -1.524016e+00  -3.153368e+01
  -4.619781e+00  -9.762803e+00
  -1.058481e+01   2.551674e+01
   1.194048e+01   6.222865e+00
  -7.638931e-01   3.545629e+01
   3.771880e+01  -3.582056e+01
   4.672034e+01  -2.408372e+01
   2.309930e+01  -1.271510e+01
  -6.926761e+00   3.549038e+01
  -2.939194e+01   1.480941e+01
  -2.206840e+01   2.956538e+01
   7.533408e+00   2.563058e+01
   5.388792e+00  -8.347979e+00
   1.146837e+01  -1.344304e+01
  -1.016658e+01   1.857740e+01
   4.834947e+01   3.130554e+01
  -3.280634e+01   1.786139e+01
   2.835220e+01   2.161016e+00
   3.787794e+01   3.638536e+00
   3.197645e+01   4.051127e+01
  -1.844694e+01   5.510648e+01
  -2.913430e+01  -5.457962e+00
  -5.390748e+01  -1.255668e+01
  -1.580636e+01   7.513438e+00
   3.084915e+01  -6.463930e-01
   1.527171e+01   3.594425e+01
   3.081984e+01  -1.233227e+01
  -7.389586e+00   1.603490e+01
  -1.065113e+01  -1.611767e+00
  -2.157618e+01  -8.475294e-01
   1.813999e+01   2.090902e+01
   2.639783e+01   9.361217e+00
   1.369239e+01  -2.071102e+01
  -4.853758e+01   8.555409e+01
  -2.163097e+01   2.763127e+00
   5.704282e+00  -2.836535e+01
   7.312428e+00  -3.785084e+01
   1.675117e+01   7.048910e-01
  -1.291369e+01  -7.868139e+00
   5.762903e-01   2.135731e+01
  -6.621166e+00   1.785835e+01
  -2.728602e+01  -1.981717e+01
  -2.456332e+01  -1.717912e+01
   7.269618e+00  -7.462627e+01
   3.722385e+00   9.746768e+00
  -1.393805e+01   6.301611e+01
   2.320278e+01   2.505651e+01
  -2.985639e+01   1.723457e+01
  -1.403481e+01  -1.234347e+01
   7.162183e+00  -6.212056e+01
  -2.087520e+01  -1.435579e+01
   2.045013e+01  -1.857419e+01
   1.115426e+01   2.401702e+01
   2.073986e+01  -3.625578e+01
   7.867012e-01   5.006220e+01
   7.765827e+00  -2.272927e+01
  -6.742788e-01  -1.244715e+01
  -7.062376e+01  -1.736187e+01
   2.732033e+01   2.116934e+01
  -5.255545e+00  -1.968174e+01
  -1.510455e+01  -3.920271e+01
   3.915062e+01  -4.210949e+00
  -1.291552e+00   1.247565e+01
   9.120778e+00   2.601145e+01
  -7.406491e-01   2.745071e+01
  -5.430219e+00   7.330797e+00
   1.934808e+00  -2.133398e+01
  -5.302412e+00   3.273879e+01
  -2.180260e+01  -4.154714e+01
