
 $NMID
 id='ANONYMOUS ', fmtdat='(2E16.6)'
 volume=1.0
 tramp=1.0
 $END
  -3.330384e+03  -7.143117e+00
  -2.112496e+03  -2.151508e+03
   7.467260e+02  -2.111985e+03
   1.849445e+03  -7.609806e+02
   6.120166e+02   4.509778e+02
  -5.805082e+02   4.783954e+02
  -7.205619e+02  -2.777081e+02
  -1.905619e+02  -8.241079e+02
   6.548581e+02  -5.862661e+02
   6.955509e+02   5.088400e+01
   3.549821e+02   6.101970e+02
  -1.572994e+02   8.451331e+02
  -4.980928e+02   1.935567e+02
  -2.703948e+02  -6.120718e+02
   1.626932e+02  -5.761157e+02
   5.154179e+02   6.450653e+01
   1.059295e+02   5.402684e+02
  -1.598233e+02   3.544766e+02
  -5.637087e+02  -6.269568e+01
  -2.957202e+02  -3.113885e+02
  -5.944569e+01  -2.424729e+02
   1.668731e+02  -2.044827e+02
   1.273884e+02   8.251648e+01
  -2.656557e+01   8.613547e+01
  -4.117431e+02  -7.067729e+01
  -1.348096e+02  -4.667484e+02
   3.881063e+02  -3.470415e+02
   6.388503e+02   1.216227e+02
   2.544803e+02   3.838725e+02
  -3.219537e+02   3.734666e+02
  -5.462805e+02  -6.048699e+01
  -3.416101e+02  -4.064367e+02
   2.164311e+02  -4.185559e+02
   4.659485e+02  -1.277934e+01
   3.064461e+02   1.905365e+02
   3.133063e+01   3.704359e+02
  -2.212049e+02   2.747316e+02
  -1.503394e+02  -1.808391e+02
   1.492868e+02  -3.120070e+02
   3.328431e+02  -1.135912e+02
   2.355961e+02   4.640095e+02
  -2.307365e+02   5.281037e+02
  -4.795342e+02   6.068966e+01
  -1.716028e+02  -3.980722e+02
   2.330087e+02  -2.091710e+02
   2.606524e+02   2.381901e+02
   1.465640e+01   3.950026e+02
  -4.696784e+02   1.423935e+02
  -4.791209e+02  -3.747225e+02
  -1.685848e+02  -5.280015e+02
   3.291026e+02  -3.054188e+02
   5.527888e+02   6.932973e+01
   3.824828e+02   3.517017e+02
  -4.352542e+01   3.174705e+02
  -3.351051e+02   6.762797e+01
  -1.832201e+02  -1.309404e+02
   6.017994e+01  -5.347998e+01
   1.168782e+02   1.250399e+02
  -1.367319e+02   1.934463e+02
  -2.597564e+02  -1.065175e+01
  -8.476630e+01  -2.427710e+02
   1.459038e+02  -2.032078e+02
   2.254148e+02  -7.579410e+01
   1.219565e+02   5.325182e+01
  -2.092521e+01   1.474290e+02
  -1.717960e+02   2.776348e+02
  -2.256985e+02   1.625651e+02
  -2.192606e+02  -1.038936e+02
  -5.353195e+01  -3.425012e+02
   1.180811e+02  -3.274807e+02
   1.568907e+02  -6.331249e+01
   5.841788e+01   3.872717e+01
   2.241446e+01   2.115790e+01
   1.421704e+02  -8.774932e+01
   1.812486e+02   2.774500e+01
   1.568581e+02   2.052453e+02
  -5.275261e+01   2.298479e+02
  -2.099588e+02   2.118798e+01
  -1.674220e+02  -2.137921e+02
  -3.663197e+00  -2.435084e+02
   1.768050e+02  -1.269066e+02
   2.922511e+02   7.324893e+01
   1.822711e+02   2.544989e+02
  -4.203342e+01   3.071114e+02
  -1.932941e+02   1.360497e+02
  -1.511935e+02   4.058001e+01
  -8.663474e+01   1.322404e+01
  -1.680745e+02   4.476648e+01
  -2.973870e+02  -3.766484e+01
  -2.581129e+02  -2.201027e+02
  -4.099215e+00  -3.735553e+02
   2.511697e+02  -3.453597e+02
   3.572821e+02  -1.667779e+02
   2.717195e+02   6.764616e+01
   1.848711e+01   1.946079e+02
  -6.284165e+01   1.540393e+02
  -3.712694e+00   3.266171e+01
   8.686640e+01  -6.112442e+01
   1.598423e+02   2.253309e+01
   1.847877e+01   1.901671e+02
  -1.200720e+02   1.280079e+02
  -1.408627e+02  -3.699030e+01
   2.762465e+01  -1.159165e+02
   1.468537e+02  -5.674272e+01
   1.208184e+02   1.672956e+02
  -1.680166e+01   2.758221e+02
  -1.780962e+02   1.861172e+02
  -2.754602e+02  -4.306835e+01
  -2.245564e+02  -1.819509e+02
  -2.916433e+01  -1.622091e+02
   5.595714e+01  -9.884745e+01
   9.561218e+01  -8.409947e+00
   5.300962e+01  -9.041628e-01
  -9.242450e+01  -9.334862e+00
  -5.547973e+01  -1.662687e+02
   5.006359e+01  -1.176290e+02
   1.362183e+02   2.849617e+01
   7.414796e+01   6.894609e+01
  -4.673655e+01   4.397528e+01
  -5.733125e+01  -7.884235e+01
   8.310946e+01  -9.356386e+01
   2.066361e+02  -9.600435e-01
   2.163041e+02   1.369484e+02
   7.540586e+01   2.276321e+02
  -1.034775e+02   1.739843e+02
  -1.889652e+02   8.710222e+01
  -1.446713e+02  -4.145191e+00
  -4.317438e+00  -9.483781e+01
   3.650629e+01   2.030650e+01
  -1.780697e+01   6.903928e+01
  -1.603308e+02   3.467928e+01
  -1.745757e+02  -7.031855e+01
  -9.507323e+01  -1.725063e+02
   6.485410e+01  -1.284403e+02
   1.218451e+02  -6.719765e+01
   3.692731e+01   3.518943e+01
   2.834461e+01  -3.165622e+00
  -4.734893e+01  -4.442113e+01
   5.195493e+01  -9.664302e+01
   1.487471e+02  -4.644147e+01
   1.304727e+02   1.345562e+02
  -1.459669e+01   1.754400e+02
  -1.774394e+02   1.092409e+02
  -1.770640e+02  -3.469556e+01
  -3.187577e+01  -1.310618e+02
   5.625693e+01  -8.339610e+01
   7.905429e+01   7.322837e+00
   5.249644e+01   1.648641e+01
   3.667608e+00   4.068093e+01
   6.619722e+00  -1.436893e+01
   6.496424e+01   3.299485e+01
   6.274135e+01   5.005739e+01
  -4.651747e+00   1.427393e+02
  -9.220558e+01   1.175484e+02
  -1.820871e+02  -2.627591e+01
  -1.497200e+02  -1.105786e+02
  -5.239592e+01  -1.522425e+02
   1.003443e+02  -1.285914e+02
   1.424529e+02  -2.079537e+01
   3.747704e+01   3.769877e+01
   3.361921e+01   3.151754e+01
   2.437833e+01   2.226450e+00
   4.499430e+01  -3.583849e+01
   3.900597e+01   9.674745e+00
  -5.706177e+01   5.982203e+01
  -8.221423e+01   1.222243e+01
  -2.764692e+01  -4.498721e+01
  -1.117665e+01  -8.814449e+01
   1.122652e+02  -7.593523e+01
   1.467710e+02   4.849649e+01
   5.746765e+01   1.388758e+02
  -7.732214e+01   2.136275e+02
  -1.974583e+02   9.448187e+01
  -2.216908e+02  -6.933468e+01
  -1.156796e+02  -1.343208e+02
   2.164863e+01  -1.324184e+02
   8.199357e+01  -8.970389e+01
   6.051983e+01  -6.777337e+01
   2.922483e+01  -7.785733e+01
   8.896887e+01  -7.033760e+01
   1.190305e+02   3.288074e+01
   9.183065e+01   1.279030e+02
   2.244029e+01   1.469211e+02
  -9.161397e+01   1.339556e+02
  -1.069959e+02  -3.785585e+00
  -7.905382e+01  -9.293362e+01
  -3.400560e+01  -1.339392e+02
   3.173330e+01  -6.416883e+01
   1.551157e+01   1.424349e+01
   1.108485e+01   3.021150e+01
   1.423027e+01   4.633036e+01
   4.910291e+01  -2.876087e+01
   3.034405e+01  -1.481014e+01
   2.715982e+01   6.610986e+01
  -3.944903e+01   1.010388e+01
  -1.565314e+02   6.522608e+00
  -5.377864e+01  -5.230808e+01
   2.612899e+01  -5.825250e+01
   1.295183e+02  -7.651644e+01
   1.119559e+02  -4.407878e+00
   2.664508e+01   7.309006e+01
   1.078709e+00  -1.665053e+01
  -1.074028e+02  -1.809078e-02
  -3.994095e+01  -7.144675e+01
   5.093190e+01  -6.690840e+01
   8.329645e+01   1.310891e+01
   5.096078e+01   4.814207e+01
   2.807547e+01   5.008748e+01
   1.143983e+01  -5.638206e+00
   6.734518e+01  -2.248656e+01
   1.664435e+01   4.500225e+01
  -3.514467e+00   9.716330e+01
  -9.151419e+01   1.153986e+02
  -1.248960e+02   3.789057e+00
  -1.237499e+02  -9.326870e+01
  -1.235607e+01  -1.317321e+02
   9.233512e+01  -5.990665e+01
   5.643836e+01   1.801767e+01
  -7.738641e-01   2.165505e+01
  -6.798711e+01  -4.730308e+01
  -2.653603e+01  -7.675600e+01
   9.524660e+01  -6.682700e+01
   1.432664e+02  -3.581063e+01
   7.807429e+01  -2.731749e+01
  -1.286114e+01   3.283437e+01
  -1.312738e+01   1.078337e+01
  -2.313774e+01  -1.477853e+01
   1.911804e+01  -1.827076e+01
   1.061352e+02   2.637382e+01
   4.572440e+01   5.962760e+01
  -8.163834e+01   1.302827e+02
  -1.157069e+02   4.091090e+01
  -1.091973e+02  -7.548152e+01
  -4.171093e+01  -1.469540e+02
   7.189578e+00  -1.036586e+02
   3.758689e+01  -8.112693e+01
   6.976162e+01   7.990883e+01
   5.023890e+00   3.442015e+01
  -5.285206e+01   2.316415e+01
  -3.985119e+01  -8.939521e+00
  -1.439159e+01   2.703403e+01
   5.338488e+00   2.686245e+01
  -6.813961e+01   2.149674e+01
   4.280524e+00  -4.960956e+01
  -9.364972e+00  -9.535853e+01
   1.357709e+01  -2.463851e+01
   6.766883e+01   3.090895e+01
   4.790590e+01   1.077116e+00
   2.000241e+01   2.586378e+01
  -6.449675e+01   4.254118e+01
  -3.665479e+01  -5.617051e+00
   4.127679e+01  -2.570474e+01
   2.398859e+01  -4.505666e+01
   4.785450e+01  -2.797158e+01
   1.080520e+00  -2.026398e+01
   7.948955e+00   1.227727e+01
   6.588370e+01  -1.569086e+01
   6.087932e+01   1.216865e+01
   3.397931e+01   7.433708e+01
  -9.560682e+01   8.883468e+01
  -1.269919e+02   5.795862e+00
  -7.915571e+01  -3.918380e+01
  -3.976107e+01  -1.083583e+02
   3.812833e+01  -9.426377e+01
   7.882229e+01   2.765998e+01
   6.863044e+01   8.338988e+00
   2.258065e+01   6.585722e-01
   1.599163e+00   5.484002e+00
   5.115734e+01   1.763752e+01
   2.491180e+01  -4.082740e+00
  -8.033436e+00   5.860509e+01
  -1.770578e+01   9.061895e+01
  -4.015838e+01   7.438385e+00
  -4.468247e+01  -8.388892e+01
   1.198251e+01  -9.603522e+01
   8.248503e+01   1.319099e+01
   1.117572e+02   7.349444e+01
   5.926729e+01   9.262533e+01
  -7.207191e+01  -2.302687e+00
  -1.135968e+02  -5.046812e+00
  -3.825935e+01  -4.888470e+01
  -2.282400e+01  -4.447296e+01
   1.081460e+01  -6.260274e+01
  -8.760878e-01  -3.134531e+01
  -5.923749e+01  -2.361918e+01
  -1.933278e+01   2.037798e+01
   6.615460e+01  -9.385030e+00
   9.139529e+01  -2.551804e+01
   1.658095e+01  -1.439583e+00
  -3.440255e+01   7.169456e+01
  -5.657369e+01   8.292331e+01
  -2.057371e+01  -1.078376e+01
  -1.895613e+01  -7.920390e+01
   1.818803e+01  -5.805006e+01
   3.532613e+01  -2.096729e+01
   2.907161e+01   3.404438e+01
   2.625794e+01   2.875780e+01
  -3.639030e+00   3.917074e+00
  -2.024024e+01   2.274607e+01
  -6.513364e+00  -2.069730e+01
  -1.345877e+01   6.216522e+00
   2.406843e+01  -1.372718e+01
  -1.804021e+01  -3.739695e+01
   8.235440e-01  -2.196072e+00
   2.045535e+01  -2.298715e+01
   5.493901e+01   3.300918e+01
  -1.039040e+00   5.784775e+01
  -7.303406e+01   3.285491e+01
  -4.105905e+01  -3.888003e+01
  -3.396266e+01  -4.046604e+01
   4.763463e+01  -2.678979e+01
   7.384178e+01  -6.910751e+00
   3.120247e+01  -1.605511e+01
   1.032628e+01   3.623061e+01
  -3.315903e+01   5.423016e+01
   7.828951e+00   4.620947e+00
   3.564701e+01   3.144476e+01
   2.524308e+01   2.763691e+01
  -5.391144e+00   5.178071e+01
  -8.092090e+01   3.189690e+01
