
 $NMID
 id='ANONYMOUS ', fmtdat='(2E16.6)'
 volume=1.0
 tramp=1.0
 $END
   3.393259e+03   4.173747e+01
   2.120101e+03   1.664416e+03
  -4.350964e+01   2.048534e+03
  -1.299123e+03   1.328534e+03
  -9.991143e+02   1.451875e+02
   1.997722e+01  -2.177742e+02
   4.313954e+02   9.424056e+01
   1.379713e+01   4.852549e+02
  -6.240792e+02   6.632913e+02
  -7.701618e+02   1.053028e+02
  -3.069228e+02  -4.821482e+02
   4.548168e+01  -6.558829e+02
   3.059603e+02  -1.313338e+02
   2.129710e+02   4.199959e+02
  -1.192540e+02   5.586306e+02
  -4.418209e+02  -7.741886e+01
  -1.306215e+02  -4.926818e+02
   1.170510e+02  -7.486388e+02
   5.104796e+02  -1.954679e+02
   4.339889e+02   1.050676e+02
   1.477286e+02   4.309658e+02
  -1.647149e+02   9.646350e+01
  -4.399868e+01   1.228383e+02
   2.019495e+02   2.073713e+02
   3.929743e+02   2.488591e+02
   1.684271e+02   4.617934e+02
  -4.921465e+02   3.170836e+02
  -6.052401e+02  -2.239387e+02
  -2.869129e+02  -2.307653e+02
   3.026043e+02  -1.726191e+02
   4.705327e+02   5.124028e+01
   1.632632e+02   3.838097e+02
  -2.564294e+02   3.304882e+02
  -4.732658e+02   1.303484e+02
  -2.556394e+02  -1.450329e+02
  -1.021593e+02  -3.669925e+02
   7.464651e+01  -1.174793e+02
  -1.560184e+01   1.155178e+02
  -1.854416e+02   2.115581e+02
  -2.940551e+02  -1.642322e+02
  -1.065444e+02  -5.470989e+02
   2.282663e+02  -4.867301e+02
   4.308115e+02   3.023017e+01
   2.118237e+02   3.159170e+02
  -1.335800e+02   1.951825e+02
  -1.954211e+02  -2.597015e+02
   8.240874e+01  -3.856221e+02
   4.712794e+02  -9.420912e+01
   4.710495e+02   4.015600e+02
   1.514823e+02   5.003758e+02
  -2.670791e+02   2.538008e+02
  -4.751074e+02  -8.819238e+01
  -3.307537e+02  -2.229693e+02
   4.377380e+01  -2.350408e+02
   3.058433e+02  -1.317375e+02
   2.570449e+02   5.474160e+01
  -3.740624e+01   6.400198e+01
  -1.329065e+02  -4.954739e-01
   4.639706e+01  -8.589313e+01
   2.419972e+02   3.984811e+00
   1.546748e+02   1.554936e+02
  -1.515684e+02   2.169893e+02
  -3.295740e+02   9.247808e+01
  -2.637345e+02  -6.668728e+01
  -4.510541e+00  -3.596763e+02
   3.007229e+02  -3.959655e+02
   3.849657e+02  -2.180012e+02
   2.863894e+02   1.835742e+02
   5.527455e+01   3.673763e+02
  -1.134260e+02   3.383183e+02
  -8.644918e-01   1.392108e+02
  -1.966685e+01   9.971834e+01
  -1.457855e+02   1.062764e+02
  -2.673798e+02   7.637498e+01
  -2.500017e+02  -1.117621e+02
  -1.257943e+02  -2.900814e+02
   1.082208e+02  -1.822160e+02
   1.791892e+02   2.233630e+01
   2.062883e+02   2.364780e+02
  -4.055573e+01   2.474914e+02
  -2.408149e+02   5.035722e+01
  -3.096002e+02  -1.820086e+02
  -1.581903e+02  -3.496912e+02
   1.082543e+02  -2.888904e+02
   1.603214e+02  -1.112758e+02
   1.743527e+02  -7.962473e+01
   2.007686e+02  -6.872514e+01
   3.151849e+02  -3.606573e+01
   3.860524e+02   1.058591e+02
   2.962241e+02   3.308391e+02
  -2.903420e+01   4.650301e+02
  -3.784745e+02   3.619987e+02
  -4.773582e+02   1.574242e+02
  -2.928827e+02  -1.306280e+02
  -4.144113e+00  -2.694635e+02
   1.270404e+02  -1.786583e+02
   1.168002e+02  -4.707874e+01
  -8.789906e+01   3.728656e+01
  -1.791585e+02  -8.585060e+01
  -5.649272e+01  -1.454268e+02
   1.350494e+02  -1.143340e+02
   1.211032e+02   3.290835e+01
  -4.626095e+00   1.218816e+02
  -2.152976e+02  -5.625721e+01
  -1.139627e+02  -2.353297e+02
  -9.127885e+00  -3.774253e+02
   1.901771e+02  -1.933299e+02
   3.585371e+02   5.815017e+01
   2.942533e+02   2.825056e+02
   7.116875e+01   2.389707e+02
  -1.138801e+02   1.806493e+02
  -1.731007e+02   7.334639e+00
  -3.212187e+01  -1.793169e+01
   4.253396e+01   3.788716e+01
  -4.149679e+00   5.183317e+01
  -1.153318e+02   2.899511e+01
  -1.397159e+02  -1.749429e+01
   7.386499e+00  -4.828298e+01
   9.081045e+01  -4.532294e+01
   5.771424e+01   7.390934e+01
  -1.125365e+02   1.550231e+02
  -2.690638e+02  -3.518790e+01
  -2.737571e+02  -1.612543e+02
  -1.203858e+02  -3.051462e+02
   1.813746e+02  -2.372110e+02
   3.036696e+02  -1.077513e+02
   1.399703e+02   3.126819e+01
  -5.369177e+00   7.621210e+01
  -5.776963e+01   2.506266e+01
   6.208729e+01  -7.136127e+01
   1.807906e+02  -7.834522e+01
   1.830371e+02   1.194065e+02
   1.187778e+01   1.936543e+02
  -1.166622e+02   1.088344e+02
  -1.814974e+02  -1.014032e+00
  -3.681896e+01  -5.682431e+01
   9.085154e+01   1.763340e+00
   4.254897e+01   1.081286e+02
  -8.754635e+01   1.123190e+02
  -1.874398e+02   9.624648e+00
  -1.948786e+02  -9.923671e+01
  -3.001159e+01  -2.031109e+02
   1.013313e+02  -1.569227e+02
   1.608407e+02  -3.041168e+01
   8.880689e+01   9.876937e+01
  -1.504556e+01   6.059742e+01
  -8.611425e+01  -4.749656e+01
   2.245318e+01  -2.450717e+01
   8.861475e+00   2.933952e+00
  -3.219573e+01   9.104337e+01
  -1.212292e+02   3.029915e+01
  -1.022154e+02  -1.225923e+02
  -7.685313e+01  -2.060045e+02
   1.356842e+02  -1.867359e+02
   2.129721e+02   7.378291e+00
   1.633721e+02   1.381218e+02
   6.085438e+01   1.978060e+02
  -6.160684e+01   1.755513e+02
  -1.563387e+02   2.042544e+01
  -7.488656e+01  -3.031666e+01
  -5.161063e+01  -6.966548e+00
  -9.210544e+01  -3.003355e+00
  -9.361270e+01  -4.518700e+01
  -8.026171e+01  -8.747867e+01
   6.603896e+01  -8.641649e+01
   1.243889e+02  -7.542262e+01
   1.394259e+02   3.351516e+01
  -2.013901e+01   1.534098e+02
  -1.555604e+02   1.183129e+02
  -2.301666e+02  -4.488001e+01
  -1.486244e+02  -1.992191e+02
   9.831248e+01  -2.287451e+02
   2.767346e+02  -1.132100e+02
   2.604377e+02   9.942304e+01
   1.310791e+02   1.408480e+02
  -3.262043e+01   1.131846e+02
  -6.259503e+01   4.607911e+01
  -3.328171e+01   5.646563e+01
  -1.173570e+01   9.883122e+01
  -5.953813e+01   1.257123e+02
  -1.447056e+02   4.331010e+01
  -1.411303e+02  -1.095260e+02
  -5.017355e+01  -2.541216e+02
   9.077799e+01  -1.587146e+02
   1.593610e+02  -3.287215e+01
   1.492299e+02   1.063463e+02
   2.771580e+01   1.406544e+02
  -7.239117e+01   6.561931e+01
  -7.857079e+01  -2.120529e+01
  -3.906358e+00  -1.555098e+01
   3.228957e+00   1.716653e+00
  -3.388089e+01   3.651050e+01
  -1.437557e+01  -6.412999e+01
  -4.293484e+01  -5.525145e+01
   6.695490e+01  -3.933126e+01
   1.922524e+02   1.454335e+01
   1.385917e+02   7.461435e+01
  -2.166875e+01   7.876831e+01
  -1.596529e+02   7.463823e+01
  -1.779881e+02   1.268792e+00
  -7.483953e+01  -3.758248e+01
   9.782301e+01  -4.791623e+01
   9.232856e+01  -1.077618e+00
   4.127017e+01   3.578543e+01
  -5.644075e+01   9.132665e+01
  -7.611692e+01   3.360914e+01
  -7.802519e+01  -6.087424e+01
  -4.493618e+01  -4.074671e+01
  -2.590507e+01  -7.959632e+00
  -3.854848e+01  -2.624627e+00
  -2.677719e+01  -6.284726e+01
   2.961471e+01  -1.079628e+02
   1.384796e+02  -7.761663e+01
   1.125199e+02   2.003596e+01
   1.361789e+02   1.394873e+02
  -1.362840e+00   1.466592e+02
  -8.053377e+01   4.139597e+01
  -8.767489e+01  -1.561733e+01
   6.158165e+01  -1.291520e+00
   8.459587e+01   4.069844e+01
   5.805944e+01   1.026776e+02
  -1.103763e+02   1.002439e+02
  -1.832297e+02   2.862549e+01
  -1.360243e+02  -2.655029e+01
  -3.344598e+01  -3.613456e+01
   8.709261e+01  -3.077054e+01
   1.475774e+01   5.622754e+00
  -7.606407e+01   3.848949e+01
  -1.075096e+02  -2.825150e+00
  -7.599038e+01  -1.349325e+02
   7.657530e+01  -1.904077e+02
   1.919637e+02  -8.244725e+01
   1.222333e+02   7.032930e+01
  -6.040319e+00   2.248835e+02
  -4.977662e+01   1.464398e+02
  -1.076857e+02  -1.476962e+01
  -3.784737e+01  -1.037273e+02
   8.377764e+00  -5.365431e+01
   4.647300e+01   8.667977e+00
   1.010849e+01   4.877114e+01
   1.189073e+01   1.388185e+01
  -2.039388e+01  -1.321265e+01
   2.055343e+01   3.386525e+01
   2.455855e+01   1.178784e+02
   8.899745e+00   1.136567e+02
  -1.909683e+01   2.405658e+01
  -1.567996e+02  -5.879888e+01
  -8.977876e+01  -8.196125e+01
  -2.703793e+01   2.414386e+01
   1.117191e+02  -3.923019e+01
   7.072483e+01   2.294803e+00
   2.779799e+01   2.301236e+01
  -2.567750e+01   1.694448e+01
  -1.496121e+01   5.734919e+00
   8.865238e+00   6.694295e+00
   4.787837e+00  -9.639557e+00
  -3.347375e+01   4.957111e+01
  -6.431924e+01  -2.267096e+01
   2.493624e+01  -6.930209e+01
   1.339597e+02  -1.212904e+02
   2.167606e+02  -2.182145e+01
   1.211229e+02   6.230059e+01
  -2.305044e+01   1.453135e+02
  -8.444089e+01   1.719822e+02
  -1.188256e+02   5.194394e+01
  -8.104759e+01  -1.701817e+00
   2.933808e+01  -1.527360e+01
   1.195106e+00  -3.734579e+01
  -3.464632e+00  -8.769434e+01
  -3.096526e+01  -2.119603e+01
  -5.550745e+01  -1.298808e+02
   3.648302e+01  -9.332405e+01
   8.277409e+01   4.719615e+01
   5.907679e+01   8.263942e+01
   3.268986e+01   9.518358e+01
  -4.030448e+01  -1.692124e+01
  -1.328316e+02  -5.889285e+01
   8.484304e+00  -9.911385e+01
   9.725212e+01  -4.052310e+01
   1.236329e+02   3.373368e+01
   2.067955e+01   6.531862e+01
  -4.666282e+01   7.115505e+01
  -7.191044e+01   1.446145e+01
   1.889676e+01  -7.919850e+00
   3.777439e+01  -3.374917e+01
   2.932017e+01  -1.014165e+01
  -8.890070e+01  -4.987144e+00
  -1.330402e+02   1.333227e+01
  -8.146983e+01  -3.153876e+01
  -1.361715e+01  -1.210610e+02
   5.186957e+01  -1.023244e+02
   7.437226e+01   2.795440e+01
   5.529578e+00   4.302422e+01
  -5.013984e+01   7.242807e+01
  -1.041962e+02   3.239515e+01
  -7.179217e+01  -5.711150e+01
   1.837290e+01  -5.227329e+01
   1.192116e+01   1.268473e+01
   2.936467e+01  -6.432702e+00
   5.478073e+01  -1.118079e+01
  -1.020081e+00   5.454353e+00
   2.493054e+00   1.015064e+01
  -2.150021e+01   6.402897e+01
  -4.747143e+01   3.893964e+01
  -6.242405e+00   2.506394e+01
  -1.498177e+01  -4.501987e+01
   1.345396e+01  -4.405756e+01
   6.021013e+01  -6.096589e+01
   3.373629e+01   5.334121e+01
   1.906969e+01   4.983156e+01
  -9.386434e+01  -5.024473e+01
  -5.343923e+01  -1.571297e+01
  -5.203147e+01  -2.626567e+01
   2.719926e+01  -3.772697e+01
   1.002779e+02  -6.545767e+01
   2.463775e+01  -8.813030e+00
  -5.079354e+01   2.445301e+01
  -6.311889e+01  -2.133830e+01
   8.935835e+00  -2.134749e+01
   9.498077e+01  -3.414344e+01
