
 $NMID
 id='ANONYMOUS ', fmtdat='(2E16.6)'
 volume=1.0
 tramp=1.0
 $END
  -3.458038e+03  -2.932869e-01
  -1.866920e+03  -1.723220e+03
   1.539808e+02  -1.952166e+03
   1.037582e+03  -1.035693e+03
   8.728842e+02  -1.113259e+02
   5.799892e+01   9.114750e+01
  -4.641405e+02  -2.091536e+02
  -7.689251e+01  -5.877394e+02
   4.757546e+02  -5.659289e+02
   6.817815e+02   1.877652e+00
   2.176015e+02   6.183060e+02
  -1.880651e+01   5.296474e+02
  -4.289991e+02   9.545585e+01
  -1.617072e+02  -3.928267e+02
   1.158368e+02  -4.940008e+02
   4.501158e+02  -1.382694e+02
   1.961285e+02   5.000704e+02
  -1.241954e+02   6.100741e+02
  -4.216381e+02   8.909532e+01
  -4.010237e+02  -3.133924e+02
  -1.363958e+02  -3.325347e+02
   7.964196e+01  -1.057328e+02
   1.954427e+01  -1.047018e+02
  -2.179299e+02  -2.086439e+02
  -2.263243e+02  -2.182627e+02
  -6.893284e+01  -2.437591e+02
   4.086592e+02  -6.419148e+01
   4.580716e+02   1.200957e+02
   2.306925e+02   2.274205e+02
  -3.514982e+02   2.132491e+02
  -4.503929e+02  -8.651663e+01
  -1.705086e+02  -3.432003e+02
   2.021453e+02  -2.753277e+02
   3.715186e+02  -9.033212e+01
   3.051106e+02   9.877989e+01
   1.019427e+02   3.278427e+02
  -2.918932e+01   1.604437e+02
   3.022514e+01  -8.949943e+01
   1.626340e+02  -1.765846e+02
   2.192006e+02   1.307089e+02
   3.546515e+01   5.019758e+02
  -2.299942e+02   3.992052e+02
  -2.935745e+02  -3.421533e+01
  -1.056942e+02  -3.092925e+02
   1.543698e+02  -1.062424e+02
   1.525232e+02   2.952407e+02
  -1.090395e+02   3.666829e+02
  -3.829368e+02   5.465260e+01
  -4.517510e+02  -3.315003e+02
  -1.516608e+02  -4.919146e+02
   2.966414e+02  -2.798263e+02
   4.685545e+02   8.471453e+01
   2.980921e+02   2.880187e+02
  -3.709460e+01   2.010040e+02
  -3.239736e+02   1.179411e+02
  -2.050795e+02  -5.992204e+01
   1.957459e+01  -5.586342e+01
   7.345924e+01   3.429947e+01
  -9.433661e+01   5.593590e+01
  -2.386553e+02  -6.190544e+01
  -9.966343e+01  -2.420714e+02
   1.742427e+02  -2.223440e+02
   3.588526e+02  -6.858233e+01
   2.263099e+02   1.334701e+02
  -1.701548e+01   3.247421e+02
  -3.076503e+02   3.309946e+02
  -3.745601e+02   9.460536e+01
  -1.731488e+02  -2.027549e+02
  -5.727668e+01  -3.402906e+02
   5.887756e+01  -3.231665e+02
   3.562912e+01  -1.378578e+02
   7.971266e+01  -1.121334e+02
   1.624449e+02  -8.875951e+01
   2.699134e+02   1.781186e+01
   1.952649e+02   1.357769e+02
   4.928468e+01   2.507839e+02
  -8.716911e+01   1.713201e+02
  -2.007298e+02  -3.847765e+01
  -9.811762e+01  -2.466163e+02
   4.272720e+00  -1.538197e+02
   1.939954e+02  -4.653400e+01
   2.714230e+02   1.352317e+02
   1.351665e+02   2.602294e+02
  -3.914353e+01   1.873072e+02
  -1.725931e+02   9.957045e+01
  -8.305372e+01   7.355314e+01
  -1.165117e+02   1.250226e+02
  -2.911203e+02   3.934285e+01
  -3.949429e+02  -1.007015e+02
  -3.082720e+02  -3.283932e+02
   6.209269e+01  -4.121466e+02
   3.457052e+02  -2.962418e+02
   4.064275e+02  -1.321870e+02
   2.565883e+02   1.072296e+02
  -3.316904e+01   1.424048e+02
  -7.883434e+01   1.323627e+02
   3.435685e+01   2.683679e+01
   1.355237e+02  -1.800058e+01
   1.191147e+02   7.046161e+01
  -6.605299e+00   1.162818e+02
  -9.980998e+01   1.192262e+02
  -1.164120e+02  -8.295833e+01
   3.578921e+01  -1.572316e+02
   1.146721e+02  -3.201188e+01
   1.681406e+02   2.314299e+02
   1.563714e+01   3.181934e+02
  -2.404933e+02   1.577159e+02
  -3.499655e+02  -8.100411e+01
  -2.404092e+02  -2.741104e+02
  -1.216685e+01  -2.523547e+02
   1.157753e+02  -1.553991e+02
   1.665952e+02  -1.181081e+01
   7.181176e+01  -3.810966e+00
  -6.457927e+00  -9.449585e+00
   5.384366e+01  -5.544651e+01
   1.428158e+02  -4.824962e+01
   1.362639e+02   3.577477e+01
   3.688826e+00   5.910874e+01
  -1.127708e+02  -1.792974e+01
  -4.628668e+01  -9.228916e+01
   1.641991e+02  -1.318052e+02
   3.034569e+02  -3.992060e+01
   2.281614e+02   1.517389e+02
   2.071919e+01   2.464093e+02
  -2.237354e+02   1.684823e+02
  -2.437751e+02   3.702841e+01
  -1.133886e+02  -2.995009e+01
   9.533719e+01  -9.021313e+01
   8.844035e+01   1.667760e+01
  -4.965967e+01   1.082585e+02
  -1.463247e+02   4.325413e+01
  -1.685242e+02  -1.096903e+02
  -8.006152e+01  -1.556568e+02
   5.636562e+01  -9.140170e+01
   1.036364e+02   9.599217e+00
   3.080815e+01   3.981814e+01
  -7.047539e+00  -7.028975e+01
  -2.799407e+01  -1.201972e+02
   9.610192e+01  -1.401528e+02
   2.112944e+02   1.139541e+01
   1.549832e+02   1.161979e+02
   1.435260e+00   1.699318e+02
  -1.360257e+02   1.723746e+02
  -1.589186e+02   1.566676e+01
  -6.824032e+01  -9.944837e+01
   6.759148e+01  -3.272903e+01
   2.258738e+01  -4.603084e+01
   1.269034e+01  -3.070231e+01
  -5.647831e+01   1.337894e+01
  -4.369534e+00   1.372117e+01
   5.163291e+01   9.570880e+00
   7.982954e+01   8.595243e+01
   1.006199e+01   1.624148e+02
  -1.461435e+02   1.020530e+02
  -2.128704e+02  -4.186427e+01
  -1.804003e+02  -1.670353e+02
  -3.189258e+01  -2.286261e+02
   1.164841e+02  -1.572082e+02
   1.467818e+02  -2.689834e+01
   5.675894e+01   3.213291e+00
   6.999506e+01   3.944336e+01
   7.030790e+01   1.562753e+01
   8.866518e+01   2.782027e+01
   4.856445e+01   8.537979e+01
  -7.609849e+01   1.360522e+02
  -1.417197e+02   6.036115e+01
  -1.547729e+02  -9.930591e+01
  -1.617389e+01  -1.166689e+02
   1.682226e+02  -8.660100e+01
   2.568708e+02   9.328747e+01
   8.851723e+01   1.995189e+02
  -8.810395e+01   2.168766e+02
  -2.233350e+02   6.684039e+01
  -2.106953e+02  -6.535446e+01
  -6.224795e+01  -1.544334e+02
   4.372628e+01  -1.320488e+02
   7.912822e+01  -6.092608e+01
   1.556424e+01  -6.144995e+01
   8.482866e+01  -6.491724e+01
   9.841107e+01  -2.341041e+01
   1.664409e+02  -3.585411e+00
   1.362642e+02   1.031324e+02
  -4.487931e+01   1.792440e+02
  -1.160222e+02   1.983630e+02
  -1.334285e+02   2.979095e+01
  -9.458267e+01  -1.182248e+02
  -7.301619e+01  -1.631375e+02
   6.687501e+01  -1.056941e+02
   7.334927e+01  -3.485136e+01
  -1.931327e+01   2.062167e+00
  -4.733773e-01   3.212169e+01
   3.369260e+01   4.750476e+00
   1.417502e+01   3.432255e+01
   1.697222e+01  -4.438520e+00
  -6.520964e+01   4.549616e+00
  -1.743752e+02   1.854660e+01
  -7.988525e+01  -6.877071e+01
  -8.120641e+00  -1.062253e+02
   1.425328e+02  -5.113993e+01
   1.202850e+02   1.102525e+01
   5.897523e+01   9.896595e-01
  -4.931245e+01   3.110818e+01
  -6.051717e+01  -1.277666e+01
   5.540558e+01  -1.019666e+02
   6.749748e+01  -8.230812e+01
   5.142633e+01   1.909151e+01
   6.011025e+01   3.281524e+01
   1.793960e+01   4.222910e+01
   3.989430e+01   8.529250e+00
   8.401065e+01   4.809480e+01
   2.316188e+01   8.454788e+01
  -7.519629e+01   1.486754e+02
  -1.580617e+02   1.398323e+02
  -1.674583e+02  -3.721070e+01
  -9.949399e+01  -1.056467e+02
   1.803766e+00  -1.387453e+02
   9.204844e+01  -6.862116e+01
   6.929355e+01   1.320143e+01
  -3.771778e+01   1.127268e+01
  -1.192138e+02  -3.699761e+01
  -3.328168e+01  -9.453427e+01
   3.656327e+01  -1.404247e+01
   1.686456e+02  -3.722022e+01
   7.966691e+01   5.773912e+01
  -6.537954e+01   5.764595e+01
  -2.890509e+01   5.938398e+01
  -9.198762e+00  -2.437228e+00
   6.908869e+01  -1.289513e+01
   1.255941e+02   1.925576e+01
   6.028509e+00   1.168228e+02
  -1.006218e+02   1.179567e+02
  -1.600169e+02   7.039553e+01
  -1.228506e+02  -6.833794e+01
   1.980576e+01  -1.954543e+02
   7.557596e+01  -1.472413e+02
   6.378849e+01  -1.506178e+01
   3.592054e+01   1.363154e+02
  -1.986379e+01   1.116871e+02
  -3.478514e+01   2.915744e+01
  -4.488367e+01  -9.917856e+00
  -4.444163e+01   5.881797e+01
   2.091640e+01   7.871678e+01
  -4.097612e+01  -6.558053e+00
  -9.031379e+01  -9.083459e+01
  -7.624058e+01  -1.467595e+02
   5.620965e+01  -9.301423e+01
   1.392233e+02  -9.166064e+00
   1.309125e+02   8.826484e+01
   3.682030e+01   4.136092e+01
  -8.568635e+01   1.239144e+01
  -6.422179e+01  -3.653224e+01
   1.181427e+01  -6.182499e+01
   3.196333e+01  -4.586673e+01
   2.772294e+01  -3.108650e+01
  -2.310419e+01  -1.760179e+01
   5.622803e+01  -3.189206e+01
   9.452346e+01   3.824071e+01
   5.179328e+01   2.596943e+01
   7.366214e+00   6.161936e+01
  -1.390384e+02   9.311521e+01
  -1.483729e+02   1.921482e+01
  -1.262680e+02  -5.840398e+01
  -6.073149e+00  -1.496012e+02
   9.378389e+01  -1.167687e+02
   9.210080e+01  -7.463793e+01
   8.582781e+01   3.781255e+01
   3.726952e+01   7.848211e+01
   2.379242e+01   5.454085e+01
  -1.771601e+01  -6.011284e-01
   1.043028e+01   5.461700e+01
  -1.667052e+01   4.666358e+01
  -5.723969e+01   4.585449e+01
  -1.096808e+02  -4.045646e-01
  -7.631329e+01  -1.099348e+02
  -1.384875e+01  -1.422048e+02
   9.229770e+01  -4.940886e+01
   1.333040e+02   8.423663e+01
   3.281735e+00   1.022180e+02
  -4.713962e+01   4.260893e+01
  -1.315164e+02  -6.345791e+00
  -6.314556e+01  -1.065217e+02
   4.744661e+01  -1.105815e+02
   8.005142e+01  -5.104663e+01
  -1.007476e+01  -5.661679e+00
  -6.111445e+01   1.778261e+01
   1.314952e+01  -4.823702e+00
   9.452664e+01  -9.071495e+01
   7.837526e+01  -3.605380e+01
   4.979531e+01   3.486834e+01
  -1.377988e+01   6.882580e+01
  -5.644971e+01   7.231102e+01
  -3.206912e+01   1.540245e+01
  -3.145127e+01  -5.175452e+01
   6.545316e+01  -5.107814e+01
  -7.472245e+00   2.940834e+01
   2.967383e+01   2.731685e+01
   1.620072e+00   6.213300e+01
  -2.885196e+01   2.748621e+00
  -9.935075e+00  -7.494391e+00
  -4.591279e+01  -2.056201e+01
  -1.292932e+01   2.940593e+01
  -4.048478e+01  -1.571049e+00
   3.199187e+00  -3.979568e+01
   7.708073e+00  -5.059057e+01
   5.161680e+01  -2.754508e+00
   3.317643e+01   3.001751e+01
  -2.699022e+01   3.119541e+01
  -1.807210e+01   1.888443e+01
  -6.752610e+01  -3.914805e+01
   2.803512e+01  -7.085584e+01
   7.994541e+01  -4.951548e+01
   1.239904e+02   3.197958e+00
   6.424339e+01   7.781749e+01
  -5.678664e+01   2.561583e+01
  -9.055877e+01   1.972072e+01
  -3.231200e+00   2.129321e+00
   2.193712e+01  -1.653134e+01
   1.905988e+01   5.218596e+00
  -6.486759e+01   7.091428e+01
  -9.316042e+01   2.938226e+01
