
 $NMID
 id='ANONYMOUS ', fmtdat='(2E16.6)'
 volume=1.0
 tramp=1.0
 $END
   2.679098e+03   1.694590e+02
   1.992765e+03   1.239679e+03
   1.776669e+02   1.677564e+03
  -9.515670e+02   1.401422e+03
  -8.249275e+02   5.182348e+02
  -2.181173e+02  -7.969717e+01
   2.461301e+02  -8.285729e+01
   6.761822e+01   4.070513e+02
  -3.098338e+02   5.177508e+02
  -5.868019e+02   1.066569e+02
  -4.205434e+02  -4.199201e+02
   4.707718e+01  -7.135115e+02
   1.311745e+02  -2.140857e+02
   2.443239e+02   3.361645e+02
  -8.159245e+01   4.515311e+02
  -3.010972e+02  -1.225853e+02
  -3.197111e+02  -5.853627e+02
   7.746597e+01  -7.224508e+02
   3.717562e+02  -2.113435e+02
   4.804006e+02  -2.544953e+00
   1.812912e+02   2.740856e+02
  -1.999715e+02   2.621111e+02
  -1.278934e+01   1.739108e+01
   2.670549e+02   2.034805e+02
   1.949285e+02   3.551253e+02
  -1.750529e+02   3.800370e+02
  -4.500290e+02   7.196056e+01
  -6.015078e+02  -1.523805e+02
  -2.011885e+02  -4.413437e+02
   3.007854e+02  -1.206199e+02
   5.141987e+02   1.165234e+02
   2.998225e+02   3.649431e+02
  -2.178807e+02   3.724181e+02
  -4.716067e+02   1.421019e+02
  -3.633361e+02  -1.303249e+02
  -1.861442e+02  -2.417780e+02
   4.272745e+01  -2.309216e+02
   3.993243e+01   7.803319e+01
  -1.837342e+02   1.212121e+02
  -1.860427e+02  -1.407498e+02
   3.361173e+00  -4.243693e+02
   2.757422e+02  -3.455856e+02
   3.095388e+02  -1.689678e+01
   1.302865e+02   3.175015e+02
  -1.260762e+02   1.916207e+02
  -2.031451e+02  -1.615697e+02
   9.352756e+01  -3.121180e+02
   4.028403e+02  -4.649757e+01
   4.541423e+02   2.790840e+02
   1.603664e+02   4.419430e+02
  -2.810633e+02   2.478955e+02
  -4.867213e+02  -1.230915e+01
  -3.023837e+02  -1.810758e+02
   7.124329e+00  -1.853718e+02
   2.425552e+02  -9.528838e+01
   2.336006e+02   9.889890e+00
   5.394504e+01   1.256414e+01
  -3.219338e+01  -3.921457e+01
   3.007368e+00  -1.268128e+02
   1.657441e+02   3.671646e+01
   1.249871e+02   1.811732e+02
  -1.489539e+02   2.734946e+02
  -3.550761e+02   1.507535e+02
  -3.362192e+02  -1.106891e+02
  -2.850538e+01  -3.402398e+02
   3.544386e+02  -4.266731e+02
   2.910720e+02  -1.655946e+02
   2.078300e+02   1.782008e+02
   1.323885e+02   3.155073e+02
   3.694110e+01   3.017320e+02
   2.954614e+01   9.624372e+01
  -6.350727e+01   1.332396e+02
  -1.977897e+02   1.204241e+02
  -2.470772e+02   8.784036e+01
  -2.317698e+02  -1.150133e+02
  -9.855452e+01  -2.810679e+02
   8.271225e+01  -1.567351e+02
   2.186233e+02   7.238137e+01
   2.092543e+02   2.386825e+02
  -3.534597e+01   2.643637e+02
  -2.744813e+02   4.667996e+01
  -3.773287e+02  -1.459096e+02
  -1.960449e+02  -2.469311e+02
  -7.885463e+00  -3.061013e+02
   1.279577e+02  -2.235525e+02
   1.427395e+02  -1.199529e+02
   1.744295e+02  -1.080002e+02
   3.132119e+02  -4.905777e+01
   4.248054e+02   6.646239e+01
   3.348687e+02   2.931722e+02
   1.306045e+01   4.429853e+02
  -2.960899e+02   4.748903e+02
  -4.769186e+02   2.437366e+02
  -2.741376e+02  -1.080834e+02
  -5.635347e+00  -2.621765e+02
   6.374996e+01  -2.377325e+02
   1.112065e+01  -6.186352e+01
  -9.377013e+01   7.098505e+01
  -8.632753e+01   9.322376e+00
  -7.424083e+00  -7.970706e+01
   6.877825e+01  -1.283730e+02
   7.866542e+01   4.762578e+01
  -5.111409e+01   1.104696e+02
  -1.469014e+02  -2.107038e+01
  -1.767820e+02  -1.600194e+02
   9.114788e+00  -3.474782e+02
   2.452149e+02  -2.403769e+02
   3.771526e+02   1.033517e+01
   3.194845e+02   2.472048e+02
   1.035093e+02   2.572258e+02
  -1.082516e+02   1.262662e+02
  -8.602269e+01   1.415782e+01
  -3.549572e+01   5.499281e-01
   5.292418e+01   6.083562e+01
  -7.643819e+00   1.527063e+02
  -1.553131e+02   7.566721e+01
  -1.461036e+02  -2.930981e+01
  -2.765030e+01  -5.744782e+01
   5.574523e+01   1.616901e+01
   9.083098e+01   7.397821e+01
  -1.241604e+02   1.463822e+02
  -2.732306e+02   5.859784e+00
  -2.226224e+02  -1.336379e+02
  -2.135954e+01  -3.046166e+02
   1.744322e+02  -2.110851e+02
   2.268237e+02  -6.943112e+01
   9.075925e+01   7.666898e+01
  -6.810907e+01   6.210802e+01
  -5.434920e+01   1.217859e+01
   7.437556e+01  -1.324228e+02
   1.735760e+02  -3.910937e+01
   1.252809e+02   1.237453e+02
   6.050919e+01   2.066956e+02
  -6.434946e+01   1.668648e+02
  -9.391277e+01   4.552019e+01
  -5.731010e+01  -2.104675e+01
   3.626405e+01   4.495903e+01
   1.776687e+01   8.325469e+01
  -1.132650e+02   1.053753e+02
  -2.349930e+02  -2.033217e+01
  -2.072328e+02  -9.199690e+01
  -5.067649e+01  -2.176042e+02
   1.933555e+02  -7.866433e+01
   2.152253e+02  -1.814491e+01
   3.074747e+01   8.464424e+01
  -9.960769e+01   7.790975e+01
  -8.314554e+01   2.325370e+01
  -7.828721e+01  -5.357029e+01
   4.283830e+01  -1.789589e+01
   5.214638e+01   2.159444e+01
  -5.872574e+01   3.598470e+01
  -9.772788e+01  -9.878447e+01
  -2.346139e+01  -1.391674e+02
   1.200366e+02  -1.226865e+02
   2.233706e+02   6.136692e+00
   1.838147e+02   1.994556e+02
   3.869647e+01   2.514823e+02
  -5.837671e+01   2.153122e+02
  -1.066437e+02   1.102552e+01
  -1.073804e+02  -3.809524e+01
  -1.846753e+01  -7.993913e+01
  -5.676367e+01  -1.546310e+01
  -8.419999e+01  -5.186416e+00
  -6.381333e+01  -1.246665e+01
   4.109877e+01  -9.515604e+01
   1.414341e+02  -1.079541e+02
   1.272793e+02  -3.549236e+00
   4.504120e+01   1.235948e+02
  -1.500107e+02   7.586071e+01
  -2.019337e+02  -4.216833e+01
  -8.418078e+01  -2.178711e+02
   1.279859e+02  -1.568325e+02
   2.374577e+02  -9.076320e+01
   2.221303e+02   9.555814e+01
   1.618902e+02   1.286307e+02
  -2.555190e+01   9.053238e+01
  -7.928651e+01   8.096977e+01
  -6.319171e+01   7.670031e+01
  -2.621394e+01   1.381284e+02
  -8.998664e+01   1.114628e+02
  -1.409625e+02   1.534206e+01
  -1.348203e+02  -1.315853e+02
  -1.023322e+02  -2.141881e+02
   9.430502e+01  -1.942711e+02
   1.994718e+02  -3.667199e+00
   9.834838e+01   1.653351e+02
  -1.554246e+01   9.655673e+01
  -5.270551e+01   6.346590e+01
   7.616082e-01  -1.921841e+01
   4.899724e+01  -1.030117e+02
   4.723359e+01  -5.352346e+01
   9.996853e+00   3.323196e+01
  -1.538793e+02  -2.756485e+01
  -5.171380e+01  -3.247796e+01
   2.882573e+01  -5.365977e+01
   1.399346e+02  -1.851192e+01
   1.257961e+02   6.469458e+01
   3.035969e+01   1.442559e+02
  -1.707618e+02   7.944968e+01
  -1.764610e+02   2.116254e+01
  -1.639251e+01   1.178973e+01
   4.709236e+01  -1.732848e+01
   6.624574e+01   4.534162e+01
  -1.032380e+01   1.066431e+02
  -8.990620e+01   9.105061e+01
  -1.172051e+02  -5.992581e+00
  -8.151436e+01  -6.934444e+01
  -4.217027e+01  -1.702011e+01
  -1.197599e+00  -2.031500e+01
  -6.063767e+01  -2.058866e+01
  -4.560754e+01  -4.647228e+01
   3.094455e+01  -1.234938e+02
   1.346931e+02  -1.437854e+02
   2.266311e+02  -4.671354e+01
   1.957012e+02   1.319368e+02
  -1.071495e+01   1.089831e+02
  -1.259145e+02   8.071256e+01
  -9.753733e+01   1.015556e+01
   4.981828e+01  -5.948525e+01
   1.395518e+02   1.894526e+01
   9.904207e+01   1.405933e+02
  -8.285319e+01   1.084498e+02
  -1.454951e+02   3.230922e+01
  -1.564296e+02  -4.663670e+01
  -6.775070e+01  -4.999705e+01
   2.034223e+01  -1.260495e+02
  -6.703875e-02  -1.120028e+01
  -3.819490e+01   1.916904e+01
  -7.316936e+01  -5.941830e+00
  -4.134886e+01  -1.460427e+02
   1.378866e+01  -1.509244e+02
   1.683878e+02  -5.607818e+01
   1.491874e+02   1.016303e+02
   5.504093e+01   2.457447e+02
  -8.179248e+01   1.394558e+02
  -7.378660e+01  -3.316088e+01
  -3.771958e+01  -1.212799e+02
  -2.352876e+01  -8.649901e+01
   2.165936e+01   1.586597e+01
   2.553604e+01   1.319535e+00
   2.993212e+01   3.009581e-01
   1.014375e+01  -2.383480e+01
   6.206772e+01   1.713069e+01
   6.539390e+01   7.652887e+01
   2.070434e+01   9.358386e+01
  -2.535304e+01   7.332693e+01
  -1.601855e+02  -3.588755e+01
  -1.691519e+02  -1.843413e+01
  -4.099099e+01  -4.763062e+01
   7.736519e+01  -3.116349e+01
   1.096398e+02  -1.614677e+01
   4.550423e+00  -3.973200e+01
  -5.206772e+01   1.051209e+01
  -4.335417e+01  -1.873299e+01
   1.048752e+01   3.184363e+01
  -8.487734e+00  -1.363749e+01
  -3.214964e+01   3.865697e+00
  -5.317802e+01  -6.861225e+01
  -4.968636e+01  -1.015659e+02
   7.541264e+01  -5.021961e+01
   1.850875e+02  -6.572672e+01
   1.738335e+02   1.111483e+02
   8.395505e+01   1.929584e+02
  -7.121225e+01   1.872636e+02
  -6.272768e+01   5.591774e+01
  -6.118895e+01  -1.735646e+01
  -1.511990e+01   4.001238e+00
  -2.079225e+01   8.110107e+00
   3.008473e+00   3.019548e+01
  -2.750059e+01  -5.826393e+01
  -2.198016e+01  -1.262797e+02
  -3.239619e-01  -1.044420e+02
   6.228171e+01   3.199044e+01
   6.618817e+01   7.407507e+01
   9.848102e+01   9.324774e+01
  -6.575110e+01   7.764981e+01
  -1.041311e+02  -4.481163e+01
  -4.959103e+01  -7.984670e+01
   2.503698e+01  -1.088050e+02
   1.012866e+02   4.622006e+00
   2.697127e+01   3.824005e+01
  -8.197436e+01   7.353327e+01
  -5.247528e+01  -8.774974e+00
   1.854976e+00  -4.341202e+01
   8.259053e+01  -2.957502e+01
   1.280007e+01  -5.671298e+00
  -2.908936e+01   5.473789e+01
  -1.570946e+02   4.463115e+01
  -5.693014e+01   3.287051e+01
   2.387536e+01  -5.610973e+01
   9.173280e+01  -3.917927e+01
   9.109789e+01  -2.118773e+01
   8.423513e-01   5.609462e+01
  -4.776977e+01   7.367962e+01
  -6.266949e+01   2.349666e+01
  -6.107576e+01  -6.501335e+01
   5.352591e+00  -5.081447e+01
   6.046105e+01   2.018705e+01
   6.643385e+01   6.732823e+01
   2.480756e+01   3.604998e+01
  -1.926330e+01  -1.498623e+01
  -2.308285e+01  -2.291695e+01
   1.253355e+01   1.007757e+01
   4.125167e+01   2.853027e+01
   2.730283e+01  -1.555803e+01
  -1.343729e+01  -1.540222e+01
  -2.353999e+01  -3.778063e+01
   4.100040e+01  -3.727982e+01
   3.968320e+01   4.235010e+01
   2.473799e+01   6.084303e+01
  -3.947421e+01   5.375390e+01
  -7.253089e+01  -3.771148e+01
  -8.274622e+01  -6.652952e+01
   6.795597e+00  -3.881691e+01
   6.449798e+01  -5.313938e+01
   1.456266e+01  -2.130762e+01
   7.488451e+00  -2.001132e+01
   6.652176e+00  -7.953710e+00
   4.518097e+01   3.141280e+01
   5.845881e+01   3.210748e+01
