
 $NMID
 id='ANONYMOUS ', fmtdat='(2E16.6)'
 volume=1.0
 tramp=1.0
 $END
  -5.865961e+02  -1.514314e+01
  -3.617604e+02  -1.936433e+02
   7.125523e+01  -3.480346e+02
   1.740617e+02  -1.972348e+02
   1.865345e+02   7.226557e+01
  -4.482158e+01   1.405799e+01
  -3.773301e+01  -6.103504e+00
   1.004160e+01  -4.638413e+01
   4.980981e+01  -1.519504e+02
   8.737077e+01  -6.190009e+00
   8.839626e+01   1.929877e+02
   4.583825e+01   1.643574e+02
  -9.559099e+01   4.463231e+01
  -1.308131e+02  -9.375905e+01
  -1.138754e+01   2.285919e+01
   1.250746e+02   8.446327e+01
   1.249719e+01   1.695227e+02
  -1.278156e+02   1.845514e+02
  -1.382425e+02   7.302407e+01
  -1.864766e+02   1.109028e+02
   5.120420e+01  -1.002900e+02
   3.688733e+01  -1.753498e+02
  -5.426306e+01   1.383669e+01
   5.080030e+01  -2.708164e+01
  -1.695330e+01  -1.441414e+02
   3.604700e+01  -6.361258e+01
   9.277813e+01   9.159013e+01
   6.547478e+01   9.789641e+01
   1.087369e+02  -2.292602e+01
   5.324430e+01  -2.292555e+01
  -4.850113e+01   3.563527e+00
  -2.191948e+01  -1.553536e+00
   5.955153e+01  -4.604085e+01
   8.502016e+01  -1.490025e+01
   1.212272e+02  -1.892184e+01
   2.290734e+01   7.840655e+01
   4.351287e+01   6.022315e+01
   4.854671e+01  -3.100039e+01
   3.580604e-01  -3.034055e+01
  -5.547940e+01   7.047150e+01
  -1.127563e+01   7.973173e+01
  -6.652080e+01   5.330584e+01
  -2.737906e+01   1.433366e+01
   5.545009e+00  -7.197221e+01
   3.832428e+01  -6.668180e+00
   4.298682e+01   7.122021e+01
  -5.784079e+01   5.809371e+01
  -1.776779e+02  -2.194637e+01
  -8.052828e+01  -6.262698e+01
  -6.342995e+01  -7.159857e+01
   3.622062e+01  -7.556479e+01
   7.358508e+01   5.767912e+01
   5.092157e+01  -2.659397e+01
  -1.370370e+01   7.174808e+01
  -6.439243e+01  -4.321483e+01
  -1.122065e+02   2.355760e+01
  -6.090156e+01   3.540004e+01
  -7.800733e+00   4.244199e+00
  -6.952172e+00  -2.288359e+01
  -3.463562e+01  -4.908753e+01
   4.575775e+01  -3.743804e+01
   1.204941e-01  -4.108528e+01
   4.664571e+01  -5.463786e+00
   7.648870e+01  -7.834048e+00
  -1.205186e+01   1.089420e+02
  -1.112539e+02   5.682487e+01
  -1.488072e+02  -2.404270e+01
  -1.845050e+01  -4.267355e+01
   5.869191e+01  -1.160187e+02
   7.303994e+01  -5.777931e+01
  -1.260990e+01  -6.430806e+00
  -2.864065e-01   4.456597e-01
   2.078001e+01   3.103696e+01
   5.935213e+01  -1.271693e+01
   6.476071e+01  -3.083120e-02
   1.158142e+01   2.515543e+01
  -9.875866e-01   2.100890e+01
  -8.028862e+01  -4.867195e+01
  -7.177969e+01  -2.012560e+01
   3.356802e+01  -1.111439e+02
   8.480618e+01   1.541256e+01
   3.388174e+01   4.028023e+01
   1.349251e+01   8.597283e+01
  -6.801323e+01   2.967698e+01
   2.209067e+01   1.490936e+01
  -3.498093e+01  -1.398974e+01
   2.405056e+01   2.725557e+00
  -6.314409e+01  -4.445745e+00
  -8.560516e+01  -8.020537e+01
  -4.748143e+01  -4.495153e+01
   2.216860e+01  -5.425345e+01
   9.358511e+01  -5.408532e+01
   1.046655e+02  -6.183665e+01
   3.308367e+00  -3.073696e+01
   1.136259e+01   1.314606e+01
  -5.889935e+01   6.655892e+01
   6.931546e+00   2.272210e+01
   1.135725e+01  -3.712178e+01
   5.710078e+01  -3.826325e+01
   2.392914e+00  -4.625612e+00
   1.592826e+01  -2.303376e+01
  -1.149297e+00  -3.186227e+01
  -9.327055e+00  -2.065676e+01
   5.457156e+01  -2.599637e+01
  -2.773903e+01   5.907904e+01
  -3.513157e+01   4.213961e+01
  -4.400032e+01   6.247906e+01
  -6.779973e+01  -6.921975e+01
  -2.855702e+01  -8.048470e+01
   1.342242e+01  -9.521734e+01
   5.135826e+01  -2.914169e+01
   4.432559e+01  -4.401729e+00
   3.153796e+00   4.404785e+01
  -2.857365e+01  -1.225828e+01
  -1.057109e+01  -2.417672e+01
   3.025856e+01  -1.886954e+01
   2.451321e+01   2.607413e+01
  -8.423290e+01  -2.117306e+01
  -1.761473e+01   5.792889e+00
  -1.761181e+01  -6.641057e+01
   8.704851e+01  -2.305565e+01
   8.998636e+01   1.299091e+01
   5.175250e+01   6.300011e+01
  -5.866645e+00   4.067679e+01
  -3.299938e+01   3.005035e+01
  -6.356422e+01  -2.919927e+01
  -6.444785e+01   8.991733e+00
   2.016012e+01  -3.474669e+01
   4.631131e+01  -6.490114e+00
   1.510303e+01   5.121769e+00
  -3.384822e+01   2.557907e+01
  -5.308175e+01  -7.042544e+00
   1.266493e+01  -2.831093e+01
   1.219553e+01  -3.589202e-01
   1.805194e+01  -1.637975e+01
   2.084524e+01  -3.110521e+01
  -4.696196e+01  -4.260469e+01
  -5.715266e-01  -3.521022e+01
   6.711176e+01  -7.710045e+01
   6.035125e+01  -2.151886e+01
   5.275148e+01   6.418367e+01
   9.924820e+00   4.946907e+01
  -5.752410e+01   1.016611e+02
  -7.975926e+01   1.549688e+01
   1.100342e+01  -2.087867e+01
  -1.792758e+01  -4.588233e+01
   2.590040e+01  -2.180406e+01
  -3.792448e+00  -4.212245e+00
  -7.536505e+00   1.955179e+01
   3.226413e+01  -3.045432e+01
   1.933252e+01   1.848701e+01
   2.716843e+01   1.031377e+01
  -1.908375e+01   7.324682e+01
  -5.064990e+01   8.216610e+01
  -5.970556e+01  -4.933627e+01
  -4.869564e+01  -7.671187e+01
   1.374295e+01  -8.056375e+01
   6.364997e+01  -5.923351e+01
   5.095197e+01   5.660208e+01
   8.930516e+00   3.259774e+01
  -7.313296e+00   3.558921e+01
  -1.754105e+01  -2.620090e+01
   5.786801e+01  -2.306153e+01
  -2.270276e+01   4.660826e+00
   1.814683e+00  -3.819094e+01
  -2.867026e+01   8.610601e+00
  -5.119641e+01   2.966034e+00
  -7.632431e+00  -5.234582e+01
   7.117565e+01  -2.191570e+01
   6.111473e+01   1.036364e+01
   3.506830e+01   6.293323e+01
  -4.604323e+01   5.693805e+01
  -9.591555e+01   1.028486e+01
  -7.435471e+01  -3.710642e+01
  -4.947777e+01  -6.571535e+01
   2.628225e+01   1.091939e+01
   5.509507e+01  -2.588218e+01
   1.602146e+00  -5.937166e+00
  -2.578115e+01  -1.565701e+01
  -1.577624e+01   3.462255e+01
   3.485013e+01   2.110683e+01
   6.779177e+01   5.258215e+01
  -1.215968e+01   6.787542e+01
  -3.136114e+01   7.199573e+01
  -6.249460e+01  -5.525610e+01
  -7.913981e+01  -6.406591e+01
   1.060609e+01  -4.253993e+01
   3.484154e+01  -5.330658e+00
   1.154019e+01   2.195227e+01
   3.671500e+01   1.753828e+01
  -1.298480e+01  -6.832311e+00
   1.388882e+01   1.197662e+00
   1.211993e+00  -5.636598e+00
   3.053985e+01  -1.952466e+00
  -2.629980e+01   1.823812e+01
  -7.947589e+01  -9.982880e+00
  -3.529555e+01   3.443106e+01
   3.642389e+01  -5.064432e+01
   5.384697e+01  -2.271929e+01
   2.833177e+01  -1.871615e+01
  -2.193306e+01   3.713437e+01
  -7.046072e+01  -1.156991e+01
  -3.894193e+00   3.246310e+00
  -2.769537e+01  -3.015128e+01
   2.702294e+01   1.365485e+00
   1.089809e+01   2.651471e+01
   1.860632e+01   8.753832e+00
   2.553585e+01  -9.511443e+00
  -2.504353e+01  -2.766510e+01
   1.507896e+01  -2.595305e+01
   4.235383e+01   1.320309e+01
   3.820212e+01   6.505504e+01
  -6.997090e+01   4.258964e+01
  -7.515709e+01   5.430122e+00
  -5.282187e+01  -3.850029e+01
   3.202060e+01  -2.849854e+01
   4.313534e+01  -1.751052e+01
  -1.074229e+00  -1.904698e+01
  -2.215768e+01   1.034942e+01
  -1.730434e+01   2.290102e+00
  -1.592076e+01  -3.430800e+01
   3.112790e+01  -2.838794e+01
   1.531695e+01  -4.146700e+01
   9.524281e+00   1.331447e+01
   3.259128e+01   3.183804e+01
  -4.875779e+01   1.293685e+01
  -3.094000e+01  -3.826943e+01
  -2.360935e+01  -1.164168e+01
   3.616449e+01   3.740333e+01
   6.803010e+00   2.167995e+01
  -4.429191e+01  -2.286052e+00
  -5.663866e+01  -6.022591e-01
  -3.871484e+01  -1.320004e+01
  -7.179053e+00  -2.092076e+01
   7.517465e+01  -1.390621e+01
   6.671784e+00   1.490853e+01
  -5.982927e+01   3.904989e+01
   3.982173e+01  -6.605020e+00
   7.649863e+00  -6.703005e+00
  -2.479596e+01  -1.809497e+01
   2.107370e+01   4.495721e+01
  -2.963306e+00   3.698275e+01
   2.775318e+01   8.612175e+00
  -2.021230e+01  -3.902834e+01
  -2.007027e+01  -6.896163e+01
  -7.953901e+00   2.106857e+01
   2.358748e+01  -4.242136e+00
   2.601425e+01  -5.485159e+00
  -4.340075e+01   2.092388e+01
  -3.882772e+01  -6.696101e+00
  -4.736299e+00  -3.762744e+01
   2.284034e+01   2.387300e+00
  -7.307652e+00   4.803710e+00
   2.398071e+01   3.154796e+01
  -2.018655e+01  -2.803444e+01
   5.688859e+00  -8.739230e+00
   2.218229e+01   2.236163e+01
   5.110905e+01  -4.762998e+01
   1.798695e+00   6.174874e+00
  -8.489316e+00   3.524198e+01
  -1.059219e+02  -8.893335e+00
  -2.654004e+01  -2.223060e+01
  -1.998387e+01  -9.880599e+00
   3.267817e+01   3.998768e+01
   2.195948e+01  -3.283248e+01
  -1.087987e+01   3.139408e-01
  -4.035060e+01  -2.044473e+01
  -2.719618e+00  -1.796687e+01
   1.399192e+01  -3.949271e+01
   4.441250e+01  -1.068704e+01
  -4.850138e+00  -2.426564e+01
  -3.467480e+01   1.363657e+01
   9.567183e+00   4.755429e+01
  -2.385135e+01  -2.529126e+01
   2.102066e+01  -2.339898e+01
   4.828376e+01   1.271026e+01
   1.568337e+01   3.533965e+01
   1.807262e+00   2.222122e+01
  -3.589452e+01  -4.559775e+01
  -3.761772e+01  -2.058732e+01
  -1.216743e+01  -2.937330e+01
   1.674115e+01  -4.116388e+01
   8.640973e+00   2.333392e+01
   3.577757e+00   1.223070e+01
  -3.111736e+01  -1.681219e+01
   3.040282e+01  -3.885871e+01
   2.270291e+01  -1.445445e+01
   5.621925e+01   5.655645e+00
   2.153699e+00   2.026670e+01
   6.351364e+00   2.418521e+01
   9.180430e+00   2.506627e+00
  -3.042764e+01  -1.369604e+01
  -1.951620e+01  -6.622101e+00
  -9.660788e+00   1.942773e+01
   2.623892e+01  -3.481277e+01
  -3.742722e+00  -3.960293e+01
   1.504979e+00  -6.218316e+00
  -7.880516e-01  -3.948809e+01
  -5.076658e+00  -2.454179e+00
   3.847407e+01   9.255783e+00
   1.647810e+01  -3.333259e+01
   1.769256e+01   3.014944e+01
   3.522144e+01   2.832315e+01
  -1.454644e+00  -2.076427e+01
   2.236265e+01  -1.952544e+01
  -2.057139e+01   7.821589e+00
   6.114351e+00   1.150023e+01
   1.219305e+01  -1.105821e+01
  -1.963102e+01   1.301959e+01
   1.715575e+01  -7.132318e+00
   2.147776e+01   3.207739e+00
   7.158982e+00   1.943436e+01
   5.658406e+01   5.316423e+00
  -1.927032e+01  -4.579045e+00
  -2.843216e+01   1.605619e+01
  -5.792308e+01  -1.386908e+01
  -3.065710e+01   9.741924e+00
  -2.672432e+01   7.300226e+00
  -2.264860e+00   3.151563e+01
  -2.505131e+01  -2.098343e+01
