
 $NMID
 id='ANONYMOUS ', fmtdat='(2E16.6)'
 volume=1.0
 tramp=1.0
 $END
   5.827344e+02   2.227734e+01
   3.335167e+02   2.183048e+02
  -1.158129e+02   1.602038e+02
  -1.936933e+02   1.189740e+02
  -1.053630e+02   7.792294e+01
  -9.813464e+00   6.014183e+01
   3.832875e+01  -6.007302e+00
  -1.128022e+01   1.355793e+01
  -4.711612e+01   5.921864e+01
  -1.362310e+02   2.121050e+00
  -1.144960e+01  -1.533232e+02
   3.286291e+01  -1.728443e+02
  -1.074655e+02   1.089042e+01
   3.462992e+01   1.387090e+02
  -2.033980e+01   8.293038e+01
   1.267637e+01  -1.880348e+01
  -8.165252e+01  -1.994606e+01
  -4.009322e+01  -1.658766e+02
   7.451795e+01  -1.114432e+01
   3.861599e+01  -1.871809e+01
  -3.256347e+00  -4.096657e+01
  -4.294080e+00  -8.578067e+01
  -1.061170e+02  -2.164948e+01
   1.373015e+01   3.978256e+01
   6.781505e+01   3.593136e+01
  -7.028611e+01  -4.914358e+01
  -2.757595e+01   4.415526e+01
  -4.473191e+01  -2.510340e+01
  -2.757552e+01  -5.756507e+00
   8.416020e+00   4.886108e+01
   1.011688e+02  -2.981214e+01
   9.644740e+01   5.419882e+01
  -4.554633e+01   2.640814e+00
  -6.342807e+01   1.280277e+01
  -7.050471e+01  -1.121101e+02
   6.588252e+00  -6.942364e+01
   4.714086e+01  -3.315515e+01
   5.157084e+01  -2.881438e+00
  -4.484986e+01   4.566510e+01
  -1.586140e+01  -1.052552e+01
  -3.231553e+00  -6.108854e+01
  -6.651623e+00  -8.713227e+01
   4.181874e+01   3.490235e+01
   2.889381e+01   3.761682e+01
   1.841824e+01   3.512320e+01
   2.292171e+00  -5.034300e+01
   7.032395e+01  -3.691514e+01
   8.095565e+01  -1.486131e+00
   8.925557e+01   3.018137e+01
  -4.900377e+00   4.649132e+01
  -2.418178e+01  -2.494531e+01
  -6.503853e+01  -4.313122e+01
  -1.455096e+01  -7.003713e+01
   3.038935e+01   2.137274e+01
   6.749313e+01   2.659595e+01
   5.044569e+01   2.507460e+01
  -3.050570e+01  -2.726095e+01
   1.514484e+01  -2.778160e+01
   4.833425e+01   1.812779e+01
   1.730157e+01  -3.997513e-01
   5.609937e+00   4.016867e+01
  -1.159912e+01   2.691495e+01
  -4.971451e+01   6.603262e+01
   1.160836e+01  -2.454444e+01
   3.026391e+01  -2.577005e+01
   2.926907e+01  -8.964428e+01
   4.719820e+01  -7.165508e+01
   2.118746e+01  -1.291846e+01
   2.725041e+00   4.291904e+01
   2.163153e+01   6.401370e+01
  -4.005080e+01   1.802722e+00
  -2.544545e+01   3.282186e+01
  -2.154612e+00   2.046656e+01
  -1.231535e+01   1.519288e+00
  -2.087659e+01  -3.664277e+01
   2.042299e+01  -2.645787e+01
   1.005492e+01  -3.575171e+01
   3.582694e+01   7.052841e+01
   9.583957e+00   6.410475e+01
  -2.807346e+01   9.330571e+00
  -3.256159e+01   1.770545e+01
  -3.107568e+01  -7.013857e+01
  -2.712554e+00  -4.209613e+01
  -9.125832e+00  -1.472085e+01
  -6.129965e+00  -1.023391e+01
   2.690307e+01  -4.883079e+01
   2.761348e+01  -7.218030e+00
   4.995478e+01  -9.354254e+00
   7.866860e+01   1.600820e+01
   4.039545e+01   2.896362e+01
   2.301486e+01   7.471394e+01
  -5.831332e+01   5.255794e+01
  -6.920357e+01   5.106711e+01
  -4.175244e+01  -5.605145e-01
   9.426421e+00  -9.054998e+00
   3.776415e+01  -6.330166e+01
   4.136086e+00   8.924123e+00
  -1.200106e+01  -4.117214e+00
  -6.486968e+01  -3.241203e+00
  -3.635999e+01  -2.941930e+01
   3.006197e+01  -5.545328e+01
   1.658053e+01  -3.068239e+01
   4.561194e+01   4.221092e+01
   9.758317e+00   1.810473e+01
  -2.070031e+01   1.170406e+01
   3.202796e+00  -2.863213e+01
  -6.507509e+00  -3.835434e+01
   1.746198e+01   2.194008e+01
   2.964694e+01   6.142652e+01
   1.783470e+01   4.026725e+01
  -1.616634e+01   4.788380e+01
  -2.286234e+01  -1.626029e+01
  -1.288924e+01  -2.705909e+01
  -1.198391e+01   2.023185e+01
  -7.671677e+00  -6.349896e+00
  -7.713922e+00  -3.059531e+01
  -1.867155e+01  -2.350257e+01
   1.349787e+00   5.807055e+00
   3.147033e+01   1.037205e+01
   1.043237e+01  -1.117052e+01
  -1.054460e+01  -2.836430e+01
  -2.161932e+01  -1.001349e+01
   1.889019e+01  -3.644510e+01
   2.387413e+01  -2.820705e+01
   2.842600e+01   2.101840e+01
   8.032418e+01  -3.488482e+01
   3.884889e+01  -1.259713e+01
   1.838240e+01   3.004812e+01
  -2.676339e+01  -2.180197e+01
   1.752060e+01  -2.407221e+01
   3.582897e+01  -5.491601e+01
   2.250729e+01  -2.246998e+01
   2.423390e+01   5.604410e+01
   2.875756e+01   5.284822e+01
   3.088474e+01  -4.805442e+00
  -5.031425e+01   2.115579e+01
  -2.152533e+01  -4.193750e+00
   9.938654e+00  -2.068134e+00
  -3.120893e+01   4.405889e+01
   1.450452e+01  -7.220838e-01
   1.125946e+01  -5.246598e+00
  -1.836694e+01   4.218211e+01
   1.403989e+01   2.004448e+01
  -1.261233e+01  -1.043189e+01
   2.283514e+01   1.065874e+01
  -8.784704e+00   2.318412e+01
  -2.620718e+00   8.407224e+00
  -1.730507e+01   1.384818e+01
   8.999299e+00  -1.462434e+01
   1.865237e+00  -3.582001e+01
  -1.059217e+01  -1.500094e+01
  -4.720581e+00  -4.444017e+00
  -1.649716e+01  -1.726765e+01
  -3.009275e+01  -3.555601e+01
   6.832394e+01   1.841947e+01
   1.476618e+01  -2.817371e+01
   3.002675e+01   3.778069e+01
  -2.712722e+01   5.380668e+01
  -2.189643e+01   2.143860e+01
  -2.807509e+01  -3.697865e+01
   1.755782e+01  -3.301555e+01
   2.934405e+01  -1.536105e+01
   2.196507e+01   2.781292e+01
   2.413773e+01   1.708876e+01
   2.961189e+01   1.762508e+01
  -3.394655e+01  -1.847885e+01
   8.411649e+00   2.468033e+01
   2.823238e+01  -9.048502e+00
   7.719279e+00   5.555633e+01
   6.893542e+00   2.622212e+01
  -4.559543e+00   2.012274e+00
  -9.708147e+00  -4.469370e+01
   6.818540e+01  -1.200165e+01
   4.757928e+01  -3.138594e+01
   2.994375e+01   1.842891e+01
  -6.347526e+00   5.347447e+01
  -1.739848e+01   3.178909e+01
  -3.249846e+01  -1.209655e+01
   1.746350e+01   2.364418e+01
   1.005367e+01   1.146034e+00
   7.671525e-01   1.086428e+01
  -8.626411e-01  -6.526219e+00
  -2.364824e+00  -2.290324e+01
  -3.945143e+01   4.869040e-01
  -4.853111e-01  -7.012557e+00
  -1.288013e+01   9.909011e+00
  -1.054834e+01   5.400330e+01
  -3.549745e+01   2.582244e+01
  -3.670917e+01   9.418433e+00
  -1.157936e+01  -6.766075e-01
  -1.885783e+01   1.258873e+00
  -2.407844e+01   2.025308e+00
   2.867319e+01   1.163840e+01
   2.189445e+01  -5.809440e+00
  -2.017917e+01  -1.331160e+01
   3.804867e+01  -4.041922e+01
   2.306331e+01  -7.548025e+00
  -1.133173e+01  -1.281236e+01
  -5.454657e+00   1.914601e+01
  -2.995120e+01   2.180257e+01
   2.554533e+01   1.008074e+01
  -2.601013e+00  -2.709736e+01
   2.686889e+01  -3.500211e+01
   3.039834e+01  -8.091484e-02
  -1.743949e+01   1.881048e+01
   1.836630e+01  -4.540987e+00
  -7.427851e+00  -2.170065e+00
  -3.217186e+01   2.670099e+01
   5.708099e+01   7.104072e+00
  -9.864403e+00  -1.974049e+01
  -5.296437e+00   1.381943e+01
  -3.433762e+00   2.788145e+00
   1.463413e+01  -5.603271e+01
   2.909079e+01   3.569735e+01
  -1.228333e+00   2.194379e+01
  -1.537482e+01   6.847652e+00
  -2.140527e+01   2.705606e+01
  -1.499039e+01   2.418513e+01
  -5.083736e+01   1.174386e+01
   1.151060e+01   1.283451e+01
  -1.375324e+01  -8.894431e+00
  -4.270179e+01   2.157087e+01
  -1.294493e+01   4.086509e+01
   1.635156e+00   2.269984e+01
  -2.374181e+01  -1.804979e+00
  -3.357010e+00  -1.436838e+01
   2.431370e+01  -1.665226e+01
   1.258709e+01  -8.015998e+00
  -8.948300e+00   1.710352e+01
  -1.510272e+01   2.009660e+01
   4.504268e+01  -7.965620e+00
   2.992805e+00   2.592563e+01
   1.785130e+01   2.910340e+01
  -7.564132e+00   1.104652e+01
  -5.428867e+01   2.902989e+01
  -3.478644e+01  -1.320409e+01
   8.111589e+00  -3.896999e+01
  -2.741561e+01   8.099728e-01
   2.175469e+01   5.562515e+01
  -2.808320e+01  -1.204440e+01
  -1.494195e+01   1.060165e+01
   8.223559e+00  -8.792213e+00
   6.551038e-01  -1.639364e+01
  -3.137380e+01  -4.102042e-01
   1.841739e+01   2.504822e+01
   3.708560e+01   2.121175e+01
  -1.367747e-01   1.637094e+00
   1.787431e+01   1.345445e+01
  -2.294738e+01  -4.560099e+00
   2.320456e+01   1.817167e+01
   4.577992e+01  -2.924268e+01
   3.582064e+01  -6.017722e+01
   6.395441e+00   1.312446e+01
  -2.526890e+01  -8.801388e+00
   4.316046e+01  -2.780100e+01
  -2.647871e+01   2.909675e+01
  -9.018562e+00   1.292134e+01
  -4.360195e+01  -2.721017e+01
  -4.293641e+00  -1.456277e+01
   8.736989e+00  -4.592512e+01
   1.722407e+01   7.859138e+00
   2.052853e+01   5.308382e+01
  -2.596739e+01  -1.987006e+01
  -8.336590e+01   2.508240e+01
  -5.108203e+00   4.452665e+01
  -2.325854e+01   6.895303e+00
  -2.338960e+01   3.166079e+01
   1.826597e+01   7.071508e+01
  -2.020638e+00  -2.932668e+01
   5.817566e+00   3.460458e+01
   1.936846e+00  -9.290606e+00
   1.193719e+01   2.141775e+01
   3.491930e+01  -3.011988e+01
  -9.766401e+00   9.517585e+00
  -3.173162e+01  -1.388854e-01
  -6.166306e+00  -1.362321e+01
  -5.636196e+00  -1.254667e+01
   4.733026e+00  -3.374135e+01
   1.206960e+01  -7.096628e+00
   1.683234e+01  -2.539685e+01
   1.155908e+01   4.574339e+00
  -4.627992e+01  -5.915323e+00
   1.083777e+01   6.016431e+00
   9.907315e-01  -1.812384e+00
  -3.071566e+01  -6.927657e+00
  -6.412872e-01   1.802977e+01
  -2.692148e+00   5.650711e+01
  -5.653765e+00  -3.054102e-01
  -1.311064e+01  -1.133078e+01
   2.077946e+01  -2.858640e+00
  -6.744248e+01  -2.504158e+01
   3.054028e+01  -1.504067e+01
   3.338710e+01  -1.532882e+01
   1.230620e+01   2.229247e-01
  -1.314751e+01   4.425265e+01
  -2.503683e+01  -1.295520e+00
  -2.385084e+01  -3.955112e+01
   2.323402e+01  -1.649244e+01
   2.696188e+00   4.742433e+00
  -1.832560e+00  -5.200855e+00
  -1.051995e+01   2.321139e+00
  -7.737765e-01  -5.379568e+01
   2.056854e+01  -4.825200e+00
  -1.264397e+01   2.342268e+01
  -9.274569e+00   5.058706e+00
  -8.279535e+00  -2.532363e+01
  -2.452128e+01   1.173090e+01
   7.972543e+00  -2.457800e+01
  -1.028146e+01   1.072205e+01
   3.442194e+01   1.377014e+01
  -2.278925e+01  -4.063047e+01
   2.997525e+00   4.261744e+00
  -3.821202e+01   4.242523e+01
   1.358465e+01   2.136213e+00
   1.080517e+01  -1.023985e+01
   2.565037e+01  -3.998475e+01
  -1.060514e+01  -2.278490e+01
   1.434287e+01   1.633379e+01
   1.871001e+01  -1.637466e+01
   2.451252e+01  -2.043473e+01
