
 $NMID
 id='ANONYMOUS ', fmtdat='(2E16.6)'
 volume=1.0
 tramp=1.0
 $END
   1.143977e+03   5.392973e+01
   6.868225e+02   8.254325e+02
  -1.735748e+02   9.576424e+02
  -5.775649e+02   3.247280e+02
  -2.061583e+02  -1.764432e+02
   1.779126e+02  -1.321855e+02
   2.137554e+02   2.151561e+02
  -3.694411e+01   3.759089e+02
  -2.728935e+02   2.368774e+02
  -2.867256e+02  -5.272835e+01
  -1.113188e+02  -2.469305e+02
   9.447542e+01  -1.953746e+02
   1.208619e+02  -1.934064e+01
   1.671504e+02   1.625438e+02
   2.665738e+01   2.965453e+02
  -1.589594e+02  -5.518090e+01
  -2.134230e+02  -3.056794e+01
   2.562102e+02  -2.299812e+02
   1.980706e+02  -4.491994e+01
   1.691527e+02  -2.698815e+01
   7.120242e+00   1.112134e+02
  -3.955081e+01   1.646860e+02
  -9.292646e+01  -4.549681e+01
   7.756262e+01  -4.944235e+01
   1.490042e+02   6.473693e+01
   8.757886e+01   1.667398e+02
  -5.200785e+01   7.483543e+01
  -1.299855e+02   3.464450e+01
  -1.701937e+01  -1.945669e+02
   8.917267e+01  -5.050429e+01
   1.502175e+02  -3.480191e+01
   1.393616e+02   1.261594e+02
  -2.982204e+01   7.904221e+01
  -1.128521e+02   8.798129e+01
  -7.094269e+01  -8.011312e+01
   6.141143e+01  -3.868614e+01
   5.082854e+01  -9.320636e+01
   4.456556e+01   8.553773e+01
  -2.018573e+01   5.801824e+01
  -9.524622e+01  -2.638634e+01
  -5.461313e+01  -1.780690e+02
   8.438539e+01  -1.238541e+02
   1.540248e+02  -2.479899e+01
   9.617114e+01   1.021736e+02
  -1.967910e+01   5.395317e+01
  -2.149761e+01  -7.239020e+01
   9.083743e+01  -1.069201e+02
   1.048614e+02   1.529156e+01
   7.731702e+01   1.081452e+02
  -6.460247e+00   1.061104e+02
  -7.779701e+01   5.693003e+01
  -1.089801e+02   2.386508e+01
  -8.765777e+01  -7.665895e+01
   2.100009e+01  -6.942193e+01
   5.362748e+01  -2.798423e+01
   6.513411e+00   2.916432e+01
  -7.348874e+01  -1.572076e+01
  -1.452200e+00  -1.656505e+01
   7.131813e+01  -3.495433e+01
   1.092442e+02   2.048802e+01
   3.085043e+01   5.094084e+01
  -5.091678e+01   7.813873e+01
  -8.487503e+01   7.626246e-01
  -9.354810e+01  -2.167568e+01
  -6.761346e+00  -1.062554e+02
   7.134291e+01  -6.332235e+01
   1.304217e+02  -6.300709e+01
   7.621087e+01   2.307176e+01
   1.492339e+01   1.200144e+02
  -1.327828e+01   1.254758e+02
  -5.440194e+01   8.968270e+01
  -2.963181e+01   3.720795e+01
  -5.324893e+01  -2.861550e+00
  -4.284438e+01  -1.418437e+01
  -5.926240e+01  -7.071457e+00
  -6.633441e+01  -2.794436e+01
   1.427816e+01  -4.905293e+01
   6.121802e+01  -5.776756e+00
   7.919102e+01   8.858462e+00
   2.945253e+01   4.413741e+01
  -4.920284e+01   5.337453e+01
  -6.828679e+01  -4.039503e+01
  -5.496527e+01  -7.733898e+01
   5.279074e-02  -7.693971e+01
   7.171112e+01  -3.161362e+01
   8.317538e+01  -5.005278e+01
   5.556554e+01   2.442341e+01
   7.022389e+01   4.565160e+01
   9.678741e+01   2.361614e+01
   8.353432e+01   1.023657e+02
  -1.386991e+01   6.413153e+01
  -9.131449e+01   1.196267e+02
  -1.090081e+02  -9.637636e+00
  -1.192182e+02  -3.309284e+01
  -2.293978e+01  -9.298518e+01
   3.913478e+01  -4.036094e+01
   4.272173e+01  -4.600632e+01
  -4.434926e+01  -2.483467e+00
  -3.431619e+01  -3.762906e+00
  -2.411450e+01  -3.487809e+01
   6.847980e+01  -4.155347e+01
   2.725229e+01   1.451265e+01
  -9.317722e+00   3.239019e+01
  -5.543798e+01   2.448665e+01
  -3.430044e+01  -5.142647e+01
   2.814865e+01  -7.281900e+01
   1.295286e+02  -4.069839e+01
   9.272655e+01   5.960773e+01
   8.780490e+01   7.790615e+01
  -1.917608e+01   8.764817e+01
  -3.289330e+01   6.158925e+01
  -1.122488e+02  -1.851387e+01
  -2.046507e+01  -1.594106e+01
   2.682027e+01   1.384159e+01
   4.719922e+00   2.753213e+01
  -2.267140e+01   5.307747e+00
  -2.184623e+01   2.489227e-01
   2.638052e+01  -3.682545e+00
   5.846451e+01  -5.253626e-01
  -3.608724e+01   3.836774e+01
  -5.287544e+01  -2.420178e-01
  -9.369723e+01  -1.379538e+01
  -7.287586e+01  -5.969965e+01
   1.218707e+01  -1.153485e+02
   6.029732e+01  -3.781973e+01
   9.987199e+01  -2.301037e+01
   2.407224e+00   1.273185e+01
   9.449047e+00  -1.895118e+00
  -2.049708e+01  -3.678912e+00
  -1.275004e+01  -4.009176e+01
   6.254645e+01  -2.229298e+01
   7.259942e+01   8.083863e+00
   2.522442e+01   8.184073e+01
   3.881029e+01   8.773752e+01
  -4.571035e+01   5.163476e+00
  -8.795815e+00   1.406276e+01
  -8.225098e+00   2.905008e+00
  -4.288224e+00   1.360420e+01
  -2.968117e+01   4.221433e+01
  -8.659510e+01  -2.144409e+01
  -6.431396e+01   4.140590e+00
   2.349144e+01  -4.748879e+01
   4.082417e+01  -1.272544e+01
   1.294454e+01  -8.835251e+00
  -7.191723e+00   1.354527e+01
  -7.251731e+01  -2.044605e+01
  -4.563140e+01  -3.097705e+01
   1.986744e+01  -2.408020e+01
   5.000890e+00  -8.936393e+00
   7.344334e+01   9.546500e+00
   2.319129e+00   2.641000e+01
  -1.099285e+01  -2.922077e+00
   2.146820e+01  -4.714399e+00
   1.486165e+01  -1.871143e+01
   3.143381e+01   3.040517e+01
   2.588300e+01   1.529450e+01
   2.641332e+01  -4.630088e+00
  -3.594404e+01   2.691232e+01
   5.545358e+00  -2.667344e+01
  -1.466126e+01  -3.546061e+01
   2.008228e+00   1.941599e+00
  -1.602428e+00   1.931167e+01
  -2.998614e-01  -1.615129e+01
   1.228504e+01   1.103933e+01
   3.031997e+01   1.355996e+01
   1.154424e+01   3.351163e+00
   1.692024e+01   4.638187e+01
   1.971769e+01   1.954846e+01
  -1.928368e+01   1.156863e+01
  -6.842893e+01  -2.096506e+01
   3.915333e+01  -4.129293e+00
   2.511278e+01  -3.069194e+01
   7.445988e+01  -2.368669e+01
   3.903077e+01   1.564481e+01
   6.002171e+01   3.654819e+01
  -1.946265e+01   3.289992e+01
   1.190409e+00   2.834824e+01
  -5.316070e+01   3.118716e+01
  -2.299062e+00   3.152826e+01
  -1.903054e+01   2.186122e+01
   5.134770e+01   3.814522e+00
  -8.708035e+00   1.149189e+01
   9.967016e+00  -4.880848e+01
   2.216171e+01  -2.041934e+00
   4.123789e+01   3.855050e+00
  -2.009938e+01   6.981082e+01
  -5.040731e+01   2.238493e+01
   1.701261e+00  -1.228534e+01
   1.944908e+01  -4.266303e+01
   4.956136e+01  -1.205822e+01
  -2.795583e+01  -6.713351e+01
   4.526975e+01  -4.155000e+00
  -3.930143e+01   1.908177e+01
   8.174549e+00   2.618622e+00
  -1.359974e+01  -6.221151e+01
   1.030671e+02  -2.229675e+01
   6.112926e+01   2.480842e+01
  -3.490357e+01   5.317638e+01
  -2.185573e+01  -3.029413e+01
  -2.511174e+01   1.453272e+01
  -3.414180e+01  -1.968946e+01
   3.355715e+00   6.000326e+00
   2.340915e+01  -1.419805e+01
   3.530711e+01   1.214313e+01
  -2.774132e+01  -2.433366e+01
  -4.329588e+01  -3.202234e+01
  -1.410536e+01   1.334128e+01
  -7.805129e+00  -5.363942e+00
  -2.288300e+00   1.468253e+01
  -2.399139e+01   2.299708e+01
  -4.890330e+01  -1.699181e+01
   3.970710e+01  -2.231932e+00
   1.253169e+01  -6.386211e+01
   5.132618e+01   1.061958e+01
   1.131028e+01   1.196715e+01
   4.295257e+00   5.923719e+01
  -4.367932e+01   6.915554e+01
   3.638441e+01   8.513517e+00
  -4.563062e+01   1.776321e+00
  -2.868250e+01   7.179935e+00
   7.956696e+00   3.831208e+01
  -4.935407e+00   8.859213e+00
  -4.580156e+01   2.752814e+01
  -5.417744e+01  -3.542108e+01
  -3.116516e+01  -2.661572e+01
   3.407335e+01  -1.527609e+01
   2.953361e+01   1.098626e+01
  -8.140561e+00   1.868961e+01
  -3.115514e+01   2.422248e+01
  -3.779144e+01  -5.410005e+01
   3.331222e+01  -4.324031e+01
   2.163307e+01  -2.299525e+01
   3.105637e+01   2.329515e+00
   1.169913e-01   3.849077e+01
  -6.997009e+00  -1.148851e+00
   1.591012e+01   1.022281e+01
   3.181509e+01  -7.988852e+01
   4.130373e+01  -1.894993e+01
   4.262669e+01   2.509109e+01
   3.744570e+01   6.365751e+01
  -4.659904e+00   8.376849e+00
   2.815609e+01   6.061198e+00
   3.421105e+01  -2.948387e+01
   5.941375e+01   3.699349e+01
   4.076415e+01   4.057639e+01
   1.648292e+01   3.347796e+01
   4.310383e+00  -9.474577e+00
  -7.998762e+00   3.190856e+01
  -5.978759e+00   3.351146e+00
   2.058702e+01   4.996488e+00
   3.846747e-01   1.554013e+01
   8.714933e+00   1.280232e+01
  -3.904915e+01  -1.093693e+01
  -2.484675e+01  -4.653838e+01
   1.423181e+01  -2.760561e+01
  -9.198356e+00  -7.429473e+00
   1.953315e+00   3.822581e+01
  -5.075820e+00  -1.596370e+01
  -2.676291e+00  -4.633238e+01
   1.141464e+01  -3.734252e+01
   3.261837e+00  -5.544316e+01
   3.192640e+00   2.819137e+01
  -1.697576e+01  -2.697311e+01
  -9.244851e-01  -2.549501e+00
  -3.887092e+01   3.260757e+01
  -5.328196e+00  -9.455804e+00
   7.449670e+00  -9.292639e+00
  -2.611198e+00   3.543997e+01
  -6.141427e+01  -2.635394e+01
  -5.596546e+01   5.422486e+00
  -2.639818e+01  -2.930033e+00
  -3.099860e+01  -2.228683e+01
  -1.590157e+01   3.811152e+01
  -1.213179e+01   4.280018e+01
  -3.184621e+01  -1.228153e+01
  -4.195596e+01   2.571348e+01
   1.602927e+01  -5.302162e+01
   7.943431e-01  -4.324527e+01
  -1.884044e+01   2.888053e+01
   7.254715e+01   3.968966e+01
   1.228233e+01   3.148233e+01
   1.482993e+01   7.720484e+00
   6.986770e+00   2.655043e+01
   3.137725e+01  -1.144611e+01
   3.368176e+00   1.558261e+01
  -4.302320e+00  -2.297279e+01
  -3.153036e+00   8.179192e+00
  -1.705930e+01  -1.332583e+01
  -2.614368e+01  -1.322196e+01
   1.667741e+01  -1.530703e+01
   3.844296e+01  -1.496420e+01
   4.629970e+01   9.632879e+00
   2.636283e+00   4.276566e+01
   9.304452e+00   2.926545e+01
   1.897590e+01   1.437448e+01
  -3.497360e+01  -3.296950e+01
  -2.015945e+00   6.908176e+01
  -1.466252e+00  -1.877909e+00
   1.157961e+01   1.191531e+01
   6.051874e+00   5.300555e+00
   4.723939e+01  -3.667172e+01
   3.126046e+01  -9.664454e+00
  -2.286148e+01   1.723350e+01
   2.102247e+00  -1.262503e+01
  -3.375618e+01  -1.420070e+01
  -4.847469e+01  -9.501546e+01
  -3.790799e+01  -2.544760e+01
   2.758823e+01  -2.111093e+01
   2.652428e+01  -1.608960e+00
  -5.851258e+00  -1.329175e+01
   1.130326e+01   1.024091e+01
  -2.695824e+01  -3.247496e+01
  -3.002594e+01   2.069015e+01
  -1.294046e+01   4.995225e+00
  -6.191836e-01   4.213962e+01
  -1.151082e+01   3.019374e+01
   2.457433e+01  -2.661327e+01
  -3.938697e+01   1.592381e+01
   5.175942e+01  -4.661275e+01
   2.229083e+01  -1.908814e+00
