
 $NMID
 id='ANONYMOUS ', fmtdat='(2E16.6)'
 volume=1.0
 tramp=1.0
 $END
  -3.139477e+03  -1.234464e+02
  -2.216254e+03  -1.584074e+03
   2.717826e+02  -2.156082e+03
   1.628538e+03  -9.723840e+02
   8.851259e+02   8.510167e+01
  -2.651778e+02   4.859733e+02
  -5.450140e+02  -2.273705e+02
  -1.489110e+01  -5.963373e+02
   5.684896e+02  -5.305086e+02
   7.157141e+02  -1.088244e+02
   4.469131e+02   6.346082e+02
  -5.771175e+00   7.169652e+02
  -4.969895e+02   8.611818e+01
  -1.536872e+02  -6.407456e+02
   2.801544e+02  -5.905212e+02
   5.608057e+02  -1.042521e+02
   3.601972e+02   6.097550e+02
  -3.187226e+02   6.768714e+02
  -5.900730e+02   1.377415e+02
  -4.561222e+02  -2.193437e+02
  -1.627016e+02  -3.218273e+02
   1.608310e+02  -1.938457e+02
   1.868150e+02   2.568823e+01
  -8.671120e+01  -6.844045e+01
  -3.413018e+02  -2.747921e+02
  -5.279315e+01  -4.451519e+02
   4.442440e+02  -3.025437e+02
   7.714121e+02   1.785456e+02
   3.511398e+02   3.897566e+02
  -3.618537e+02   3.455625e+02
  -5.111072e+02  -1.804221e+01
  -1.942989e+02  -3.136331e+02
   2.072462e+02  -3.820893e+02
   4.204688e+02  -1.823039e+02
   1.824075e+02   7.908256e+01
   9.402808e+01   3.829138e+02
  -1.733645e+01   2.106471e+02
  -4.264862e+01  -1.460257e+02
   1.455464e+02  -2.989999e+02
   2.786608e+02   8.896233e+01
   1.869374e+02   5.752270e+02
  -2.641421e+02   5.277203e+02
  -4.756634e+02  -5.757947e+01
  -1.964803e+02  -5.082571e+02
   2.540736e+02  -1.861680e+02
   3.030378e+02   2.731942e+02
  -1.042780e+02   4.212802e+02
  -3.860225e+02   4.469235e+01
  -4.564009e+02  -3.328847e+02
  -1.583408e+02  -4.375089e+02
   2.733701e+02  -2.302978e+02
   5.216514e+02   7.678962e+01
   3.959165e+02   2.730856e+02
  -4.554530e+01   3.041816e+02
  -3.489261e+02   1.204937e+02
  -2.952145e+02  -5.514683e+01
   5.054030e+01  -6.410222e+01
   2.030810e+01   5.433351e+01
  -1.734220e+02   1.379837e+02
  -2.834416e+02  -5.244595e+01
  -1.147547e+02  -1.735861e+02
   2.313653e+02  -2.179325e+02
   3.643961e+02  -1.110317e+02
   2.067187e+02   1.107740e+02
  -2.936655e+01   2.363712e+02
  -2.988611e+02   3.412067e+02
  -3.249838e+02   1.544177e+02
  -2.734885e+02  -1.268002e+02
  -7.648268e+01  -3.975972e+02
   2.242552e+00  -3.262902e+02
   6.241947e+01  -1.526827e+02
  -3.722294e+01  -7.956578e+01
   1.055714e+02  -7.989401e+01
   1.462693e+02  -4.076040e+01
   2.583870e+02   8.921433e+01
   1.434194e+02   2.002963e+02
  -2.974780e+01   2.103540e+02
  -1.449974e+02  -3.054217e+01
  -1.281541e+02  -2.184911e+02
   7.348007e+00  -2.489206e+02
   2.274933e+02  -1.172834e+01
   3.034190e+02   2.276452e+02
   1.411001e+02   3.606644e+02
  -6.238054e+01   2.716393e+02
  -2.528689e+02   1.026626e+02
  -1.976038e+02   6.607693e+01
  -1.378269e+02   4.219929e+01
  -2.436502e+02  -2.235577e+01
  -3.338058e+02  -1.176906e+02
  -2.566854e+02  -3.025017e+02
  -1.075750e+01  -4.155450e+02
   4.039086e+02  -3.663139e+02
   4.521895e+02  -1.829065e+02
   2.650918e+02   4.303728e+01
  -1.076507e+01   2.375794e+02
  -1.396025e+02   2.340397e+02
  -6.234029e+01   6.238917e+01
   1.238489e+02  -6.501205e+01
   1.355030e+02   1.727703e+01
   4.205910e+01   1.836664e+02
  -8.484133e+01   1.289392e+02
  -7.864871e+01  -4.895377e+01
  -2.061213e+01  -1.364920e+02
   1.376624e+02  -2.837013e+01
   1.600585e+02   2.177449e+02
  -3.387301e+01   2.894623e+02
  -2.434406e+02   2.040211e+02
  -3.534885e+02  -3.254332e+01
  -2.671310e+02  -2.650171e+02
  -8.365166e+01  -2.611961e+02
   1.638339e+02  -1.706113e+02
   1.711080e+02  -4.811969e+00
   7.144625e+01   2.339687e+01
  -3.278556e+01  -7.745041e+01
  -7.116285e-01  -1.268737e+02
   5.731010e+01  -1.098294e+02
   1.265022e+02   7.190830e+01
   5.047183e+01   9.353513e+01
  -6.997586e+01   4.932072e+01
   4.603005e-01  -1.043644e+02
   1.273247e+02  -6.271985e+01
   2.578981e+02   5.218582e+01
   2.107596e+02   1.478209e+02
  -1.742599e+01   2.608073e+02
  -2.422557e+02   2.501776e+02
  -2.480696e+02   1.101003e+02
  -1.208617e+02  -6.306539e+01
   7.879537e+01  -1.032339e+02
   5.549344e+01  -1.090126e+01
  -3.494426e+01   9.341276e+01
  -2.262082e+02   7.559728e+01
  -2.058957e+02  -1.191273e+02
  -8.651715e+01  -2.378420e+02
   9.071343e+01  -1.722416e+02
   9.900096e+01  -6.148679e+01
   4.058677e+01   1.008281e+02
  -5.381488e+01  -5.185573e+01
  -6.749718e+01  -8.093231e+01
   1.336497e+02  -1.149246e+02
   2.074704e+02   1.028284e+01
   1.753410e+02   1.093636e+02
   4.686062e+01   2.236267e+02
  -1.276277e+02   1.603069e+02
  -1.634314e+02  -3.336583e+00
  -9.979409e+01  -8.850619e+01
   1.950358e+01  -9.054286e+01
   1.220289e+02  -2.217430e+01
   5.170129e+01   5.112388e+01
  -8.068947e-01  -5.326767e+00
  -3.661732e+01   8.468104e+00
   6.403948e+01  -2.237551e+01
   7.234629e+01   9.101854e+01
   4.205475e+01   1.536808e+02
  -1.750744e+02   1.233275e+02
  -2.028520e+02   9.962947e+00
  -2.008633e+02  -1.470279e+02
  -2.840752e+01  -2.555764e+02
   1.096913e+02  -1.859170e+02
   9.989546e+01  -3.578848e+01
  -2.624840e+01   5.614570e+01
   5.977981e+01   4.783589e+01
   9.095493e+01  -4.384740e+01
   1.170767e+02  -3.665307e+01
   8.040289e+01   4.762344e+01
  -2.253398e+01   5.370679e+01
  -1.321999e+02   6.495916e+01
  -8.630102e+01  -2.656652e+01
   2.981880e+01  -9.202449e+01
   1.692433e+02  -6.013239e+01
   2.180562e+02   6.650687e+01
   9.939116e+01   1.883330e+02
  -1.392245e+02   2.127078e+02
  -2.402442e+02   5.558559e+01
  -2.368781e+02  -5.969066e+01
  -1.012981e+02  -1.597204e+02
   7.334348e+01  -1.217493e+02
   1.054360e+02  -2.617494e+01
   3.188639e+01  -3.025737e+01
   3.363250e+01  -8.385122e+01
   8.292384e+01  -1.400196e+02
   1.169688e+02   2.279479e+01
   1.144268e+02   1.486843e+02
   5.199916e+01   2.225868e+02
  -9.831088e+01   1.365674e+02
  -1.686288e+02   2.520797e+01
  -1.426689e+02  -1.386395e+02
  -1.460849e+01  -2.086256e+02
   8.965682e+01  -6.254250e+01
   6.792409e+01   3.678003e+01
  -3.113055e-01   3.376507e+01
  -1.824720e+01   1.001510e+02
   3.199867e+01   7.103815e-01
   6.869978e+01  -4.416116e+01
   4.607801e+01  -1.931188e+01
  -5.951997e+01   7.339165e+01
  -1.626466e+02   5.269556e+01
  -1.248362e+02  -2.326409e+01
  -2.978155e+00  -6.399726e+01
   1.090923e+02  -4.903949e+01
   1.280066e+02   9.868933e+00
   6.612238e+01   4.787584e+01
  -8.141592e+01   7.227003e+01
  -1.189882e+02  -4.002350e+01
   2.805299e+00  -7.809957e+01
   2.386263e+01  -6.613183e+01
   7.659013e+01  -8.807037e+00
   5.903026e+01   9.018924e+01
   5.347345e+01   6.026312e+01
   9.174149e+00   2.149927e+01
   3.559153e+00   2.078473e+01
   1.857416e+01   1.375906e+01
  -5.694877e+01   1.358718e+02
  -8.583892e+01   1.220536e+02
  -1.564962e+02   1.367949e+01
  -8.936794e+01  -1.017072e+02
  -6.714404e+00  -1.051537e+02
   1.101944e+02  -5.627007e+01
   2.290318e+01   1.080441e+01
  -4.220089e+00   3.394507e+01
  -8.346121e+01  -2.470489e+01
  -1.054383e+02  -1.069665e+02
   7.825713e+01  -1.296800e+02
   1.695184e+02  -5.266409e+01
   1.156807e+02   6.569694e+01
   3.338595e+01   1.192724e+02
  -4.426943e+01   1.019717e+02
  -2.732049e+01   2.718014e+01
   2.724094e+01  -2.030652e+01
   7.866825e+01   1.149569e+01
   9.461263e+00   1.153816e+02
  -5.942176e+01   1.782003e+02
  -1.432159e+02   4.576282e+01
  -1.313106e+02  -5.992427e+01
   2.619411e+00  -1.524401e+02
   3.055826e+01  -9.255929e+01
   5.728315e+01   3.004720e+01
   3.877031e+01   1.054768e+02
  -8.149469e+00   8.962022e+01
  -6.513776e+01   1.047642e+01
  -5.137088e+01  -5.798920e+01
   5.186127e+00   4.686983e+00
   9.184746e+00   1.447133e+01
  -3.173125e+01  -2.885060e+01
  -6.946835e+01  -5.627354e+01
  -2.065200e+01  -7.972755e+01
   2.943146e+01  -6.838404e+01
   1.744839e+02   9.118365e+00
   1.554417e+02   7.496390e+01
   3.636949e+01   7.475982e+01
  -7.823964e+01   5.852914e+01
  -7.439890e+01  -5.256971e+00
  -5.271747e+01  -5.675361e+00
   1.357410e+01   2.427398e+00
   1.837984e+01   2.169792e-01
  -6.652792e+00  -1.346580e+01
   8.719207e+00  -7.118953e+00
   4.828031e+01  -3.945644e+00
   7.709689e+01   6.188602e+01
  -8.683967e+00   1.310053e+02
  -1.315362e+02   9.985811e+01
  -1.931994e+02   5.178068e+01
  -1.493299e+02  -7.125854e+01
  -6.393618e+00  -1.886427e+02
   7.939071e+01  -1.871519e+02
   9.186682e+01  -1.088641e+02
   6.649959e+01   3.668113e+01
   6.194415e+01   1.823806e+01
   8.615765e+00   5.505085e+01
   3.961131e+01   2.407904e+01
   4.134988e+01   6.129644e+01
   1.101466e+01   9.701489e+01
  -7.640809e+00   5.173934e+01
  -6.876634e+01   3.552584e+00
  -1.019555e+02  -5.940313e+01
  -3.602166e+00  -7.085357e+01
   9.704659e+01  -2.060682e+01
   1.332074e+02   7.309465e+01
   3.042816e+01   1.512001e+02
  -3.775400e+01   2.285703e+01
  -8.788980e+01   1.611063e+01
  -4.736952e+01  -4.778317e+01
   2.598593e+01  -4.952120e+01
   3.381352e+01  -2.700663e+01
  -3.453662e+01   1.633488e-01
  -8.154103e+01  -5.555891e+00
  -2.576783e+01  -7.494519e+01
   1.023930e+02  -7.203713e+01
   1.018811e+02  -3.709111e+01
   5.436338e+01  -1.743344e+01
  -1.750388e+01   8.587044e+01
  -7.592273e+01   8.169600e+01
  -7.831812e+01   2.201826e+01
   9.099326e+00  -5.878974e+01
   2.830928e+01  -5.180310e+01
   2.461959e+01   3.556137e+01
   2.603806e+01   7.715107e+01
   2.597719e+01   4.851297e+01
  -1.740564e+01  -4.144353e+01
  -6.340318e+01  -4.246045e+01
  -4.072798e+01   2.834127e+01
  -2.981042e+01   6.601849e+01
   3.744940e+01   9.170276e+00
  -1.081567e+01  -2.646997e+00
   4.883784e-01  -6.180924e+01
   4.406667e+01  -9.166425e+00
   4.749037e+01  -3.847418e+00
   1.958564e+01   7.468869e+01
  -2.770149e+01   1.063340e+01
  -5.045346e+01  -4.244095e+00
   3.498699e+00  -6.732568e+01
   3.406212e+01  -4.239626e+01
   1.208036e+02   2.953018e+01
   1.968587e+01   4.834181e+01
  -4.862831e+00   4.816212e+01
  -1.328951e+01   7.812171e+01
  -5.320988e+01   4.146623e+01
   8.329193e+00   1.444743e+01
   2.617162e+01  -1.706148e+01
   3.422840e+01   1.568492e+01
  -6.188156e+01   3.188601e+01
