
 $NMID
 id='ANONYMOUS ', fmtdat='(2E16.6)'
 volume=1.0
 tramp=1.0
 $END
  -1.987766e+03  -1.127691e+02
  -1.678291e+03  -1.084128e+03
  -1.930111e+02  -1.218162e+03
   6.392759e+02  -9.462507e+02
   4.112809e+02  -1.691405e+02
  -8.608272e+01   8.428905e+01
  -1.665528e+02  -8.615816e+01
  -9.696335e+01  -3.338997e+02
   3.752620e+02  -3.608993e+02
   4.773847e+02  -7.538814e+01
   3.972499e+02   3.579867e+02
   1.158322e+02   5.317346e+02
  -1.383216e+02   2.412705e+02
  -1.629453e+02  -2.832972e+02
   1.465846e+02  -2.060174e+02
   1.738950e+02   1.793360e+01
   2.395145e+02   3.198177e+02
  -1.614233e+02   4.732475e+02
  -2.636758e+02   2.104479e+02
  -2.740858e+02  -1.006450e+02
  -2.039530e+02  -3.419711e+02
  -2.674705e+00  -2.413955e+02
  -9.219245e+01   4.617165e+01
  -1.225197e+02  -7.307864e+01
  -1.622206e+02  -1.132176e+02
   2.791348e+00  -1.490494e+02
   3.796082e+02   4.896785e+01
   4.559256e+02   3.151524e+02
   4.807135e+01   2.814830e+02
  -2.765410e+02   1.120447e+02
  -2.271431e+02  -1.657733e+02
  -6.177830e+01  -2.243179e+02
   2.272620e+02  -2.176160e+02
   3.851112e+02  -5.056303e+01
   3.001399e+02   6.082444e+01
   3.326409e+01   1.484419e+02
   3.867246e+01   5.681965e+01
   8.679868e+01   2.286154e+01
   1.073212e+02  -7.194295e+00
   9.159296e+01   1.315633e+02
  -9.315584e+01   3.184980e+02
  -2.022846e+02   2.112414e+02
  -1.856777e+02  -2.185541e+01
  -7.125964e+01  -1.203120e+02
   7.514590e+01  -1.598472e+01
   1.262700e+02   2.121502e+02
  -1.048208e+02   3.296647e+02
  -3.410384e+02   5.949561e+01
  -3.565018e+02  -2.311957e+02
  -1.166775e+02  -3.770970e+02
   2.166549e+02  -2.160131e+02
   3.226416e+02   1.965699e+01
   2.239419e+02   1.431909e+02
   3.155625e+01   1.586804e+02
  -9.368852e+01   1.024604e+02
  -1.771599e+02   6.638878e+01
  -8.835524e+01   1.279880e+01
  -3.499786e+01   4.612036e+01
  -8.041611e+01   5.280163e+01
  -1.335549e+02  -7.582535e+01
  -1.172674e+02  -1.226963e+02
   9.675757e+01  -1.737144e+02
   2.531836e+02  -9.421181e+01
   2.411654e+02   9.620494e+01
  -2.729661e+01   2.554601e+02
  -2.340364e+02   3.124380e+02
  -3.053379e+02   1.366855e+02
  -1.970733e+02  -1.091101e+02
  -3.922488e+01  -2.902582e+02
  -4.026912e+01  -2.887227e+02
  -1.553019e+01  -1.609497e+02
   4.858056e+01  -1.240438e+02
   8.830721e+01  -4.554487e+00
   1.990857e+02   5.842152e+01
   1.707666e+02   1.350385e+02
   8.046786e+01   1.716985e+02
  -5.777490e+01   1.144211e+02
  -1.218282e+02  -4.235316e+01
  -8.288088e+01  -1.591833e+02
   8.982727e+00  -1.448708e+02
   1.795225e+02  -1.792333e+01
   1.917193e+02   1.298993e+02
   1.065559e+02   2.082443e+02
   3.454134e+01   1.955053e+02
  -1.299068e+02   1.314350e+02
  -1.072108e+02   5.546601e+01
  -1.382023e+02   1.560361e+02
  -2.175306e+02   2.767364e+01
  -3.366693e+02  -8.009522e+01
  -2.909423e+02  -2.289007e+02
   2.181138e+01  -2.752327e+02
   2.968547e+02  -2.742608e+02
   3.728946e+02  -9.945493e+01
   2.199308e+02   1.656117e+01
  -1.919648e+01   1.427831e+02
  -7.850497e+01   8.868123e+01
   2.638376e+01   3.164213e+01
   8.125028e+01  -1.055567e+01
   1.318414e+02   4.704302e+01
   4.657902e+01   9.119658e+01
  -9.087285e+01   1.798199e+01
  -5.749125e+01  -5.070532e+01
   3.634676e+01  -1.048832e+02
   1.137880e+02   1.455311e+01
   9.124104e+01   2.161080e+02
  -5.247123e+01   2.711144e+02
  -1.319247e+02   1.703865e+02
  -3.083665e+02  -1.858745e+01
  -2.080348e+02  -2.173719e+02
  -4.334586e+01  -1.914466e+02
   8.109578e+01  -8.842565e+01
   1.658787e+02   1.465429e+01
   4.226967e+01   1.547273e+01
  -4.662428e+01  -5.759611e+01
  -2.873891e+01  -9.664663e+01
   8.670369e+01  -2.669430e+01
   1.033256e+02  -2.470336e+00
  -2.408290e+01   4.037758e+01
  -1.281875e+02  -2.809938e+01
  -8.248328e+01  -6.123955e+01
   1.269840e+02  -9.713766e+01
   2.469252e+02  -9.002248e-01
   2.927255e+02   7.623909e+01
   6.541867e+01   1.863876e+02
  -1.308641e+02   2.088085e+02
  -1.961716e+02   1.105377e+02
  -1.262615e+02  -2.938012e+00
   4.472320e+01  -4.802126e+01
  -4.781642e+00   2.418743e+01
  -4.567117e+01   5.646854e+01
  -1.180707e+02   1.162822e+01
  -1.562530e+02  -1.134585e+02
  -2.529732e+00  -1.099815e+02
   3.915461e+01  -1.113163e+02
   1.417390e+02   5.427270e+01
   1.947353e+01   6.614446e+01
  -3.247217e+01  -1.669655e+01
  -1.764773e+01  -1.168712e+02
   6.495173e+01  -1.206228e+02
   1.289667e+02  -8.674917e+01
   1.544061e+02   6.655845e+01
   4.151951e+01   1.697922e+02
  -9.708831e+01   1.201369e+02
  -1.554884e+02   8.088626e+01
  -3.720188e+01  -4.872987e+01
   1.547349e+01  -3.897065e+01
   7.449982e+01  -3.217387e+01
   5.490368e+00   1.200962e+01
  -3.971754e+01  -3.051865e+01
  -6.881623e+01  -7.630945e+01
   5.974229e+01  -2.584032e-01
   1.413984e+02   6.920066e+01
   2.114314e+01   1.391696e+02
  -1.153917e+02   1.365370e+02
  -1.759124e+02  -4.960338e+01
  -1.717095e+02  -1.035187e+02
   1.412881e+01  -2.027338e+02
   3.131676e+01  -1.097923e+02
   9.277675e+01  -1.909134e+01
   5.175935e+01   4.760746e+01
   8.918282e+01   5.484879e+01
   3.877876e+01  -2.262998e+00
   2.354159e+01  -5.152958e+00
   3.866771e+01   5.276271e+01
  -1.818553e+01   5.542850e+01
  -8.622194e+01   1.075445e+02
  -9.660775e+01  -2.355110e+01
   1.658333e+01  -7.823914e+01
   9.115169e+01  -6.992800e+01
   1.856443e+02   3.517328e+01
   8.673401e+01   1.632076e+02
  -8.340890e+01   1.442131e+02
  -1.894385e+02   5.215391e+01
  -1.703322e+02  -7.408949e+01
  -1.102363e+02  -1.324377e+02
   3.858435e+01  -1.292515e+02
   7.053659e+01  -5.808135e+01
   6.866302e+01  -2.353709e+01
   7.500710e+01  -5.478290e+01
   8.064222e+01  -6.237807e+01
   8.358267e+01  -2.366288e+01
   6.672669e+01   1.206688e+02
   8.931658e+00   1.580524e+02
  -6.807643e+01   1.164630e+02
  -1.521085e+02   1.034435e+01
  -7.324041e+01  -9.363863e+01
   6.561754e+00  -1.244459e+02
   4.974899e+01   1.247777e+01
   4.352576e+01   9.651406e-01
   1.382155e+01  -1.939654e+01
   9.283508e+00   1.047414e+02
   4.929953e+01  -1.846722e+01
   5.980798e+01   2.510970e+01
   3.056338e+01   1.064075e+01
  -6.616377e+01   9.664161e+00
  -1.524320e+02  -6.234637e+01
  -6.661556e+01  -7.029854e+01
  -2.109513e+01  -8.026118e+01
   1.443086e+02  -8.423729e+01
   1.416438e+02   2.540186e+01
   6.582291e+01   1.212107e+02
  -6.490650e+01   6.087081e+01
  -7.092346e+01  -1.106465e+01
  -4.752763e+01  -6.543072e+01
   2.648286e+01  -8.899816e+01
   8.113350e+01  -1.991576e+01
   7.183529e+01   4.652928e+01
   5.191213e+01   3.645886e+01
   5.666887e+01   4.127301e+01
   6.186467e+01   3.894466e+01
   4.035047e+01   1.150668e+02
  -7.978062e+01   1.269778e+02
  -1.246653e+02   1.108956e+02
  -1.600717e+02  -1.875990e+01
  -9.983694e+01  -7.625484e+01
   3.580487e+01  -1.330478e+02
   8.301335e+01  -6.083211e+01
   4.225870e+01   1.678514e+01
  -1.769407e+01   6.159035e+01
  -1.136876e+02  -3.013310e+01
  -4.034265e+01  -9.773193e+01
   1.017694e+02  -8.968451e+01
   1.216470e+02  -2.760580e+01
   8.807587e+01   8.189884e+01
   3.520179e+01   9.251945e+01
  -4.993169e+01   5.243546e+01
  -6.383864e+01  -4.005247e+01
   4.654703e+01  -6.422194e+01
   7.545220e+01   2.010869e+01
   4.499725e+01   7.659125e+01
  -2.733566e+01   1.489332e+02
  -1.123731e+02   8.798931e+01
  -1.171552e+02  -5.321653e+01
  -2.916819e+00  -1.729559e+02
   7.358708e+01  -1.507658e+02
   1.110988e+02  -1.339399e+01
   5.619278e+01   7.792770e+01
  -2.754429e+01   6.193070e+01
   2.434426e+00  -9.789187e+00
  -3.312031e+01  -3.348679e+01
  -1.086937e+01  -3.021336e+01
  -3.816202e+01   1.637341e+01
  -7.203052e+01  -1.379802e+01
  -8.485382e+01  -1.002149e+02
  -4.417990e+01  -8.652930e+01
   6.291918e+01  -2.564489e+01
   1.025650e+02   2.722133e+01
   9.822193e+01   4.945392e+01
   1.452905e+01   7.439292e+01
  -7.968727e+01   1.639513e+01
  -7.756600e+01  -7.427709e+00
   4.911278e+00  -1.599243e+01
   5.090866e+01  -4.685427e+01
   2.567883e+01   4.159398e+00
  -3.748721e+01   6.666290e+01
   6.918211e+00   6.521019e+01
   2.038071e+01   2.308110e+01
   1.369633e+02   5.151924e+01
   1.423544e+01   6.820593e+01
  -7.357688e+01   1.269613e+02
  -1.458053e+02   5.329267e+01
  -1.163457e+02   6.667669e+00
  -6.317217e+01  -1.380622e+02
   9.704480e+01  -1.509696e+02
   8.074717e+01  -7.035570e+01
   9.363219e+01   5.775279e+00
   3.420581e+01   6.500855e+01
   5.994093e+00   5.853960e+01
  -4.775638e+01   1.086272e+01
   9.838753e+00   4.452438e+01
   2.918309e+01   1.013723e+02
  -2.511993e+01   1.857161e+01
  -4.781058e+01  -6.125334e+00
  -8.220430e+01  -9.451351e+01
   3.156027e+00  -5.074636e+01
   7.590456e+00  -6.521952e+01
   4.223725e+01   4.039547e+01
   4.193501e+01   5.661214e+01
  -5.984504e+01   6.244098e+01
  -1.057395e+02  -3.664739e+01
   7.275566e+00  -5.508065e+01
  -4.768736e+00  -4.856543e+01
   3.325289e+01  -3.248568e+01
  -3.674320e+00  -3.137134e+01
  -3.655300e+01   2.085092e+01
   2.159149e+01   9.320758e+00
   4.605219e+01  -4.419572e+01
   8.787677e+01  -6.211030e+01
   3.745986e+01   1.840051e+01
  -6.816755e+00   3.277334e+01
  -4.733365e+01   5.935663e+01
  -3.385868e+01  -3.152755e+01
  -1.958333e+01  -6.913696e+01
   6.387581e+00  -5.520698e+01
   7.107969e+01  -9.715280e+00
   1.257981e+01   3.293369e+01
   1.338057e+01   6.142465e+01
  -9.866730e+01  -1.726024e+01
  -4.102252e+01  -4.229241e+01
  -3.376738e+01   1.972117e+01
   4.268949e+01  -3.211616e+00
  -1.930576e+01   4.639067e+01
  -1.690427e+01  -4.247241e+01
   1.798207e+00  -5.597439e+01
   9.467085e+01  -3.239261e+01
   3.888885e+01  -5.914609e+00
   2.337921e+01   5.458883e+01
  -4.592398e+01   2.444267e+01
  -5.087530e+01  -3.136803e+01
  -4.505454e+01  -6.510745e+01
   8.803142e+01  -6.062746e+01
   8.449913e+01   1.595851e+01
  -6.621381e+00   3.623558e+01
   2.651659e+01   5.471222e+01
  -4.299730e+01   2.590460e+01
   2.913299e+01   4.371162e+01
  -1.251197e+01   1.385975e+01
   5.126452e+01  -2.558886e+01
  -5.248200e+01   2.581100e+00
  -9.431774e+01   2.792613e+00
