
 $NMID
 id='ANONYMOUS ', fmtdat='(2E16.6)'
 volume=1.0
 tramp=1.0
 $END
  -1.798335e+03  -4.598299e+01
  -1.276612e+03  -8.634418e+02
  -3.031453e+02  -1.198413e+03
   6.215215e+02  -8.655559e+02
   6.629206e+02  -3.728415e+02
   2.498423e+02   5.805521e+01
  -1.888241e+02   1.201072e+02
  -1.498414e+02  -1.475330e+02
   1.851918e+02  -3.571908e+02
   3.801786e+02  -1.770373e+02
   3.673604e+02   2.822625e+02
   1.085810e+02   3.743197e+02
  -1.436216e+02   1.534437e+02
  -1.587869e+02  -2.125535e+02
   1.621118e+02  -4.172162e+02
   3.938295e+02  -6.197510e+01
   3.875260e+02   1.761833e+02
   1.395175e-02   4.354406e+02
  -3.022409e+02   1.930725e+02
  -3.588369e+02   4.900153e+01
  -2.002188e+02  -1.013185e+02
  -1.112505e+02  -2.426640e+02
  -2.475290e+01  -1.236381e+02
  -2.748447e+02  -1.161043e+02
  -1.370193e+02  -2.326581e+02
   1.129615e+02  -2.570428e+02
   3.344456e+02  -2.302986e+01
   4.031839e+02   2.287600e+02
   6.043721e+01   1.733390e+02
  -3.631395e+02   7.477569e+01
  -3.294295e+02  -1.533754e+02
  -1.131422e+02  -2.690973e+02
   1.922769e+02  -2.422856e+02
   3.337777e+02  -5.430082e+01
   1.243722e+02   8.623526e+01
   7.758746e+01   1.918959e+02
   9.495197e+01   5.800015e+01
   5.315595e+01  -2.117033e+01
   8.802274e+01  -3.364412e+01
   1.028169e+02   1.362623e+02
  -3.177830e+01   2.839364e+02
  -9.302214e+01   2.780461e+02
  -1.646929e+02   4.373884e+01
  -6.703633e+01  -1.151310e+02
   5.104890e+01  -2.072766e+01
   7.156098e+01   1.913184e+02
  -1.168330e+02   2.411020e+02
  -2.533830e+02   4.806331e+01
  -3.335118e+02  -2.841957e+02
  -8.574553e+01  -3.603941e+02
   1.843654e+02  -2.052864e+02
   3.409984e+02   2.807091e+01
   2.221670e+02   1.789203e+02
   3.146818e+01   1.311578e+02
  -1.091335e+02   1.146016e+02
  -1.384897e+02   2.698296e+01
  -6.872749e+01   1.391078e+01
  -4.818007e+01  -2.022104e+01
  -9.257870e+01  -2.149990e+00
  -1.090487e+02  -2.212961e+01
  -7.093929e+01  -1.464744e+02
   1.414078e+02  -1.996582e+02
   3.130444e+02  -1.177881e+02
   2.252141e+02   8.507038e+01
   3.094970e+00   3.414116e+02
  -2.448871e+02   3.081921e+02
  -3.354399e+02   1.076253e+02
  -2.028764e+02  -1.451160e+02
  -6.713277e+01  -2.292076e+02
   2.433193e+01  -1.766299e+02
  -7.223040e+00  -1.816341e+02
   2.934019e+01  -1.546649e+02
   1.584387e+02  -1.311655e+02
   1.810932e+02  -1.551547e+01
   1.675970e+02   1.001390e+02
   7.050775e+01   1.816115e+02
  -1.059366e+02   1.230356e+02
  -1.206726e+02  -2.381044e+01
  -4.954510e+01  -1.954288e+02
   1.223513e+02  -1.973182e+02
   1.726607e+02  -4.973056e+01
   2.285975e+02   1.402042e+02
   1.440416e+02   2.818588e+02
  -4.860639e+01   2.388533e+02
  -1.300603e+02   1.371261e+02
  -1.496290e+02   6.774372e+01
  -1.038349e+02   1.118161e+02
  -2.608312e+02   4.790176e+01
  -3.361664e+02  -1.043908e+02
  -2.505146e+02  -2.828879e+02
   7.477511e+01  -3.463916e+02
   2.780987e+02  -2.756488e+02
   3.800114e+02  -1.073857e+02
   2.131532e+02   8.764411e+01
   1.699071e+01   1.775144e+02
  -4.705883e+01   1.432437e+02
  -1.422327e+01   4.988289e+01
   4.682179e+01  -3.762025e+00
   9.355483e+01   8.625136e+01
  -4.616028e+01   1.149338e+02
  -1.164903e+02   2.906408e+01
  -9.677968e+01  -4.109566e+01
   3.446878e+01  -1.139973e+02
   1.167040e+02   1.782934e+00
   1.309371e+02   1.034780e+02
   3.256820e+01   2.575623e+02
  -1.862068e+02   1.736524e+02
  -3.082609e+02  -5.211963e+01
  -1.966809e+02  -2.242541e+02
   3.763787e+01  -1.563205e+02
   1.125867e+02  -5.869393e+01
   6.207635e+01  -1.463390e+01
  -3.092468e+01  -2.057184e+01
  -1.045720e+01  -8.473233e+01
   2.851284e+01  -1.024817e+02
   1.172748e+02  -4.201439e+01
   1.148793e+02   8.285064e+01
  -4.429253e+01   5.381510e+01
  -7.007572e+01  -1.691138e+01
   4.549683e+00  -1.078872e+02
   1.170877e+02  -9.454516e+01
   2.256423e+02   5.115401e+01
   1.652343e+02   1.641472e+02
   6.643342e+00   1.946381e+02
  -1.834126e+02   1.623247e+02
  -2.225304e+02   1.437304e+01
  -5.420612e+01  -5.768655e+01
   4.916508e+01  -4.560584e+01
   5.586836e+00   4.372943e+01
  -6.645781e+01   6.001774e+01
  -1.767061e+02  -9.376043e+00
  -8.661569e+01  -6.632509e+01
  -2.768356e+00  -1.018103e+02
   8.836800e+01  -7.602458e+01
   8.594300e+01   1.277014e+01
   1.400481e+01   3.774658e+01
  -4.575735e+01   4.944900e+00
  -1.344380e-01  -8.470378e+01
   5.734344e+01  -9.203823e+01
   1.643324e+02  -2.440552e+01
   1.233284e+02   1.078997e+02
   1.111664e+01   1.153828e+02
  -8.436241e+01   1.028994e+02
  -1.224486e+02  -8.078102e+00
   7.831300e+00  -2.814674e+01
   2.662047e+01  -3.687042e+00
   5.608482e+01   1.561027e+00
  -1.744671e+01   3.423943e+01
  -7.146141e+01  -1.540279e+01
  -2.086581e+01  -2.725384e+01
   7.467724e+01  -6.511570e+01
   8.664482e+01   2.713023e+01
   2.239287e+01   1.546822e+02
  -1.414978e+02   1.273952e+02
  -1.772709e+02   7.426671e+01
  -1.346586e+02  -7.445691e+01
  -4.408703e+00  -1.898206e+02
   4.617878e+01  -1.178684e+02
   6.091670e+01  -5.314344e+01
   3.606916e+01   6.434671e+00
   5.454258e+01   6.398119e+00
   6.848875e+01  -3.381836e+01
   5.287008e+01   3.927124e+00
   3.798348e+01  -1.382292e+00
  -3.839015e+01   8.788070e+01
  -1.305043e+02   2.831299e+01
  -8.222178e+01  -6.064065e+01
  -1.051489e-01  -1.158108e+02
   1.556170e+02  -3.281319e+01
   1.953165e+02   8.274389e+01
   2.715526e+01   1.935202e+02
  -1.277016e+02   1.557200e+02
  -2.349338e+02   3.030883e+01
  -1.678364e+02  -5.757172e+01
  -9.814144e+01  -9.869934e+01
   3.191654e+01  -9.466610e+01
   3.418403e+01  -3.854943e+01
   9.720112e+01  -5.212679e+01
   5.699212e+01  -8.821400e+01
   9.930393e+01  -6.766233e+01
   8.186742e+01  -1.348082e+01
   1.009123e+02   1.185394e+02
   1.962833e+01   1.951752e+02
  -4.014149e+01   1.237212e+02
  -5.008557e+01   1.096913e+01
  -4.647387e+01  -9.618461e+01
   3.153965e+01  -6.556372e+01
   3.526285e+01  -4.368379e+00
   3.675405e+00   4.755902e+01
  -5.539472e+01   3.381816e+01
   1.341832e+01  -1.511623e+01
   1.219089e+01  -1.913192e+01
   5.623271e+01  -1.211671e+01
   4.088005e+01  -7.093819e+00
  -6.258102e+01   2.855955e+01
  -1.562672e+02   1.203737e+01
  -9.876118e+01  -6.630732e+01
   9.801647e+00  -1.275105e+02
   9.645155e+01  -7.586679e+01
   9.382532e+01   1.317150e+00
   2.124572e+01   4.935005e+01
  -3.628867e+01   4.808921e+01
  -7.093449e+01  -1.623740e+01
  -3.454132e+01  -5.390841e+01
   1.974030e+01  -4.770867e+01
   4.239450e+01  -2.868275e+01
   9.744354e+01   6.631777e+01
   9.283220e-01   8.267400e+01
   1.464751e+01   4.740167e+00
   5.372739e+01  -4.995717e+00
   5.668206e+01   2.005919e+01
  -1.759124e+01   1.751451e+02
  -1.176833e+02   1.131949e+02
  -1.713801e+02   3.311477e+01
  -9.545283e+01  -9.629706e+01
  -8.084737e+00  -1.041965e+02
   4.978251e+01  -8.292909e+01
   1.005890e+02  -3.944293e+01
   1.370629e+01   5.449157e+01
  -1.141690e+02   2.707321e+01
  -1.105406e+02  -1.071430e+02
   4.960803e+01  -5.528884e+01
   1.039772e+02  -7.171379e-01
   8.377345e+01   1.068682e+01
   6.241822e+01   1.352385e+01
   4.400680e+00   7.250416e+00
  -2.766186e+01   5.785136e+01
   4.007570e+01  -4.408265e+01
   7.561703e+01   4.808534e+01
   3.692620e+01   8.532304e+01
  -7.223792e+01   1.158726e+02
  -1.330325e+02   5.809283e+01
  -1.062761e+02  -5.086685e+01
  -1.652613e+01  -1.894190e+02
   8.498244e+01  -9.220826e+01
   6.472332e+01  -1.969721e+01
   8.574069e+00   8.012708e+01
   6.726007e+00   4.695226e+01
  -5.381285e+01   8.259663e+00
  -7.749251e+00  -4.454210e+01
  -4.038840e+00  -4.226528e+00
   1.798002e+00   1.551109e+01
   1.277703e+01  -5.260352e+00
  -1.150436e+01  -8.094078e+01
  -9.391183e-01  -8.619957e+01
   2.521283e+01  -4.067117e+01
   6.117822e+01   2.859928e+01
   9.199987e+01   3.958327e+01
   2.037309e+01   6.835914e+01
  -5.963239e+01   6.646073e+01
  -4.572280e+01   1.857788e+00
   1.254734e+01   1.069057e+01
   5.156050e+01   8.649916e-01
   1.003958e+01   1.002904e+01
  -1.735939e+01   1.106511e+01
  -2.208185e+01   3.330895e+01
   4.654313e+01   7.629275e+00
   5.568839e+01  -2.625342e+01
   1.733245e+01   2.076381e+01
  -6.078736e+01   1.277516e+02
  -1.199803e+02   2.539176e+01
  -1.229081e+02  -3.377289e+01
  -2.191676e+01  -1.508975e+02
   2.801589e+01  -1.595843e+02
   1.102362e+02  -3.188760e+01
   5.734807e+01   4.669622e+01
   2.539013e+01  -1.105672e+01
   4.128273e+01  -2.933435e+01
   3.760246e+00  -7.857319e+00
  -1.352871e+01   2.566482e+01
   3.749231e+01   7.424561e+01
  -1.104590e+01   6.903551e+01
  -3.909467e+01   2.765421e+01
  -6.461270e+01  -1.075925e+02
  -2.397989e+01  -9.111835e+01
   5.863916e+01  -5.037374e+01
   7.901110e+01   5.021168e+01
   1.558695e-01   1.080345e+02
  -6.419092e+01   8.264327e+01
  -1.094210e+02   1.206082e+00
  -8.210773e+01  -7.004306e+01
   1.521213e+01  -9.008088e+01
   1.688352e+01   1.413492e+01
  -5.766411e+01   6.160401e+00
  -5.796790e+01  -2.805676e+00
  -6.245964e+00  -1.219680e+01
   8.096159e+01  -2.733798e+01
   1.073940e+02  -8.391118e+00
   1.238558e+01   5.122929e+00
   2.746411e+00   8.894673e+01
  -3.795583e+01   6.290878e+01
   1.091247e+00   1.180256e+01
   5.771826e+01  -8.305047e+00
   7.682043e+01  -9.661371e+00
   2.894561e+01   3.976270e+01
   2.079983e+01   5.935541e+01
  -2.208994e+01   1.756624e+01
  -3.376515e+01  -2.497991e+01
  -1.977999e+01  -5.841030e+01
   1.841838e+01  -2.711394e+01
   1.944062e+01   1.221275e+01
  -8.119459e+00   1.346498e+01
   3.354874e+01  -2.991392e+01
   3.624703e+01  -1.470639e+01
   5.470150e+00   1.403953e+01
   2.447813e+01   4.566392e+01
   2.520255e+01   5.037418e+01
  -4.331691e+01   1.273202e+01
  -6.801479e+01  -2.522968e+01
   4.439556e+01  -5.854543e+01
   6.561458e+01  -5.965291e+01
   5.858629e+01  -5.605037e+01
   1.012251e+02   3.466656e+01
  -3.669693e+00   5.109880e+01
  -4.961042e+01   2.436538e+01
   3.138800e+00  -1.046221e+01
   4.769992e+01   3.333491e+01
  -2.350597e+00   2.667200e+01
  -2.794606e+01   5.402972e+01
  -6.863615e+01   3.794044e+01
