
 $NMID
 id='ANONYMOUS ', fmtdat='(2E16.6)'
 volume=1.0
 tramp=1.0
 $END
   3.666939e+03  -1.346840e+02
   2.251378e+03   2.032412e+03
  -4.339654e+02   2.610670e+03
  -1.754569e+03   9.454513e+02
  -9.397939e+02  -3.168112e+02
   3.830004e+02  -3.658372e+02
   8.346968e+02   2.105091e+02
   9.313716e+01   8.894187e+02
  -6.627170e+02   7.817429e+02
  -7.739951e+02  -4.928962e+01
  -3.861573e+02  -8.331173e+02
   8.912464e+01  -7.749576e+02
   6.156439e+02   7.587465e+00
   2.356509e+02   5.020879e+02
  -2.273603e+02   7.135891e+02
  -4.699033e+02  -3.633360e+00
  -3.102813e+02  -4.026903e+02
   2.862001e+02  -6.217135e+02
   6.519336e+02  -4.948798e+00
   3.503546e+02   2.810900e+02
   9.147990e+01   4.120161e+02
  -1.640733e+02   1.563933e+02
  -1.209630e+02  -9.743000e+01
   1.537462e+02  -1.515097e+02
   2.651171e+02   1.292965e+02
   1.445243e+02   2.716817e+02
  -4.093224e+02   3.460022e+02
  -6.850058e+02  -8.412368e+01
  -4.592379e+02  -5.256258e+02
   4.397947e+02  -4.313991e+02
   7.316968e+02   1.333661e+02
   2.830648e+02   4.955096e+02
  -3.159471e+02   5.817080e+02
  -4.711208e+02   1.412980e+02
  -3.004275e+02  -2.166522e+02
  -2.020698e+02  -4.721008e+02
   2.064008e+02  -2.286162e+02
   1.627397e+02   2.102098e+02
  -8.823321e+01   4.921122e+02
  -4.046880e+02  -2.991829e+01
  -2.173738e+02  -5.484778e+02
   2.075144e+02  -5.676017e+02
   4.848969e+02  -2.571618e+01
   2.098558e+02   4.269949e+02
  -2.116114e+02   2.095756e+02
  -2.861142e+02  -2.770936e+02
   3.341146e+01  -4.636977e+02
   4.100344e+02  -1.676329e+02
   5.316059e+02   3.656728e+02
   1.338347e+02   5.627428e+02
  -4.315455e+02   3.034975e+02
  -5.454348e+02  -1.341744e+02
  -3.156164e+02  -3.568316e+02
   1.941658e+02  -3.264760e+02
   3.461123e+02  -5.614729e+01
   1.806286e+02   7.851774e+01
  -8.898249e+01   2.817822e+01
  -3.630862e+01  -1.097253e+02
   1.812248e+02  -1.110755e+02
   2.878459e+02   4.889845e+01
   1.408984e+02   2.394770e+02
  -2.252903e+02   2.343944e+02
  -2.996027e+02   1.112097e+02
  -2.048289e+02  -5.530570e+01
   8.656480e+00  -2.282125e+02
   2.040010e+02  -3.056515e+02
   3.207612e+02  -1.840379e+02
   2.846116e+02   1.494227e+02
   1.136723e+01   3.941225e+02
  -1.247846e+02   3.317498e+02
  -8.261965e+01   1.142536e+02
   7.785569e+00  -1.701735e+01
  -5.112172e+01   5.972584e+01
  -2.125649e+02   6.630404e+01
  -2.582581e+02  -8.235404e+01
  -1.244360e+02  -1.889207e+02
   1.122026e+02  -1.669056e+02
   2.192989e+02  -4.227791e+00
   1.604476e+02   1.906584e+02
  -2.892110e+01   2.225415e+02
  -2.834128e+02   1.616810e+02
  -3.325924e+02  -1.147889e+02
  -1.296142e+02  -2.720004e+02
   5.075379e+01  -3.319468e+02
   2.172833e+02  -1.558035e+02
   1.423048e+02  -2.538307e+01
   1.266931e+02  -2.381664e+01
   2.583104e+02  -4.243193e+01
   3.897513e+02   6.686764e+01
   3.114724e+02   2.275490e+02
  -2.973125e+01   4.071671e+02
  -3.382327e+02   3.985195e+02
  -4.367088e+02   2.269586e+02
  -3.080922e+02  -8.662442e+01
  -2.216880e+01  -3.025621e+02
   8.128942e+01  -2.329197e+02
   5.300514e+01  -3.848777e+01
  -5.458925e+01   8.695644e+01
  -1.544628e+02   5.229856e+00
  -3.222464e+01  -1.773593e+02
   1.921846e+02  -1.205944e+02
   1.589879e+02   6.661178e+01
   1.396480e+01   1.795290e+02
  -1.474767e+02   5.438400e+01
  -1.685332e+02  -2.303789e+02
   5.196481e+00  -3.276018e+02
   2.175703e+02  -1.470282e+02
   3.306295e+02   8.787871e+01
   2.576472e+02   2.297178e+02
   6.095505e+01   2.772658e+02
  -1.497695e+02   1.069914e+02
  -1.986033e+02   1.709802e+01
  -4.188177e+01  -7.675372e+00
   6.821728e+01   4.108001e+01
   1.427089e+01   6.468714e+01
  -9.067970e+01   1.106874e+02
  -1.825119e+02  -7.092375e+00
  -7.412276e+01  -6.476252e+01
   1.300325e+02  -3.852740e+01
   1.770799e+01   3.312345e+01
  -1.625161e+02   5.612490e+01
  -3.177863e+02   1.597977e+01
  -2.769964e+02  -1.457624e+02
  -5.206612e+01  -2.410290e+02
   1.801175e+02  -2.508601e+02
   2.573547e+02  -1.632400e+02
   1.536348e+02  -2.774216e+00
  -8.202057e+01   9.295776e+01
  -4.610547e+01   9.988886e+00
   5.579301e+01  -9.389898e+01
   2.247322e+02  -8.164058e+01
   2.131015e+02   5.926147e+01
   5.601939e+01   1.653359e+02
  -9.658233e+01   1.590834e+02
  -9.995676e+01   1.492002e+01
  -7.263706e+01  -6.168706e+01
   2.020346e+01  -1.853737e+01
   1.876780e+01   7.055869e+01
  -5.099782e+01   1.377705e+02
  -1.825427e+02   4.454820e+01
  -1.608918e+02  -9.562644e+01
   2.420632e+01  -1.877347e+02
   1.656908e+02  -1.364633e+02
   1.958072e+02   2.577836e+01
   5.027603e+01   8.582125e+01
  -4.878643e+01   1.282284e+02
  -4.426889e+01   6.755232e+01
  -4.132436e+01  -3.261633e+01
  -4.404789e+00  -1.460565e+00
  -2.613411e+00   1.140785e+01
  -9.584241e+01  -2.589449e+01
  -8.562777e+01  -9.148471e+01
  -3.539397e+01  -1.519176e+02
   8.995008e+01  -1.535522e+02
   2.533587e+02  -1.782506e+00
   1.986321e+02   1.597724e+02
   5.659614e+01   2.157085e+02
  -1.091270e+02   1.630976e+02
  -1.082587e+02   1.321884e+01
  -4.617861e+01  -2.799932e+01
  -5.046331e+01  -2.427767e+01
  -3.688311e+01  -1.731989e+01
  -9.266842e+01   2.025285e+01
  -3.792008e+01  -6.670215e+01
   2.106108e+01  -7.258526e+01
   1.124256e+02  -7.236007e+01
   6.290462e+01   2.843851e+01
  -3.105750e+01   1.413425e+02
  -1.652398e+02   9.897906e+01
  -1.832773e+02  -1.662261e+01
  -1.032942e+02  -2.261228e+02
   7.713408e+01  -2.222972e+02
   2.832959e+02  -1.356578e+02
   2.413560e+02   7.700054e+01
   1.189726e+02   1.271770e+02
  -9.978307e+00   1.045768e+02
  -5.888629e+01   8.351339e+01
  -3.886686e+01   8.674376e+01
  -4.032992e+01   1.328355e+02
  -6.167892e+01   1.226461e+02
  -1.496285e+02   6.648616e+00
  -1.123578e+02  -1.552728e+02
  -7.619799e+01  -2.179545e+02
   8.120627e+01  -1.566584e+02
   1.457582e+02  -3.323135e+00
   1.510200e+02   1.239174e+02
   3.218972e+01   1.544512e+02
  -8.347395e+01   6.548106e+01
  -6.013154e+01  -1.247797e+01
   3.082754e+00  -7.265487e+01
   1.612744e+01  -4.216522e+01
  -8.427615e+00   8.595710e+00
  -6.242883e+01  -1.621905e+01
  -3.315464e+01   2.616073e-02
   1.102864e+02  -6.057341e+01
   1.496072e+02   2.418098e+00
   1.305224e+02   6.139484e+01
   2.173561e+01   1.370844e+02
  -9.300300e+01   2.535729e+01
  -1.668557e+02   9.058166e+00
  -5.367868e+01  -4.897512e+01
   3.853865e+01  -3.906089e+01
   5.194697e+01   3.779542e+01
   7.008132e+01   7.786925e+01
  -7.492822e+01   4.944755e+01
  -5.213847e+01  -3.461610e+01
  -5.299895e+01  -5.450695e+01
  -4.116110e+01  -3.969072e+01
  -5.571917e+01   2.435368e+01
  -4.219774e+01   1.506060e+01
  -7.027136e+01  -6.703368e+01
   1.327083e+01  -1.406878e+02
   1.395238e+02  -1.692822e+02
   1.698989e+02  -4.243865e+01
   1.048761e+02   8.646999e+01
  -2.179002e+01   1.714754e+02
  -1.025663e+02   2.352334e+01
  -3.107750e+01  -1.793255e+01
   4.026847e+01  -4.258730e+01
   1.131685e+02  -2.060404e+01
   1.059330e+02   1.142279e+02
  -9.355623e+00   1.194862e+02
  -1.721296e+02   6.460449e+01
  -1.448225e+02  -3.225876e+00
  -3.348853e+01  -5.165998e+01
   7.323380e+01  -7.379448e+01
   8.720505e+01   4.582027e+01
  -6.107110e+01   4.322698e+01
  -8.728025e+01  -1.954247e+01
  -4.606170e+01  -9.243388e+01
   1.359654e+02  -1.132357e+02
   1.213980e+02  -2.100511e+01
   1.196272e+02   8.423878e+01
   1.985312e+01   1.762685e+02
  -7.972986e+01   9.868579e+01
  -8.068872e+01   4.659530e+01
  -6.653493e+01  -9.401455e+01
  -5.487834e+00  -8.984665e+01
   5.552416e+01  -1.444646e+01
   5.892957e+00   4.530181e+01
  -5.743618e+01  -1.746245e+01
  -3.686918e+01  -6.293205e+01
   6.308835e+00  -3.096508e+01
   8.891901e+01   4.033057e+01
   5.595191e+01   1.112926e+02
  -1.019598e+01   1.738204e+01
  -7.647794e+01  -4.083612e+01
  -9.469964e+01  -7.503545e+01
  -4.935752e+00  -5.668529e+00
   1.050873e+02  -3.665243e+01
   7.697070e+01   1.293772e+01
   3.824664e+01  -1.075327e+01
   7.569641e+00   2.403771e+01
  -5.657079e+01   1.874111e+01
   6.400290e+00   1.113492e+01
  -3.419877e+01  -2.411969e+01
  -6.353445e+01  -1.218614e+01
  -9.909032e+01  -2.616355e+01
  -8.440493e-01  -1.436850e+02
   9.553758e+01  -1.139750e+02
   2.229787e+02  -1.029494e+02
   1.380766e+02   4.346574e+01
   5.010174e+01   1.688014e+02
  -5.347413e+01   1.270015e+02
  -6.318153e+01   5.302001e+01
  -9.618956e+01  -3.439773e+00
  -3.201871e+01  -5.301225e+01
   1.722974e+01  -1.039734e+01
   1.432977e-01   2.300140e+01
  -6.972791e+00  -7.915221e+01
  -2.006793e+01  -5.261889e+01
   3.075743e+01  -5.224828e+01
   4.338669e+01   2.974374e+01
   8.516534e+01   7.732409e+01
   7.536405e+00   1.058983e+02
  -5.823097e+01   6.154979e+01
  -5.377434e+01  -7.303283e+01
  -2.544676e+01  -6.815076e+01
   3.974963e+01  -3.130950e+01
   8.794060e+01   1.087888e-01
   9.133123e+01   4.472750e+01
  -3.969691e+01   3.762131e+01
  -4.002489e+01   1.683226e+01
   6.597321e+00   2.035792e+01
   2.023819e+01   5.068083e+01
   2.410729e+00   5.641901e+01
  -1.259041e+02   5.487386e+01
  -1.369044e+02   4.232853e+01
  -9.184238e+01  -7.481055e-01
   3.864570e+00  -7.337441e+01
   9.623579e+01  -9.721516e+01
   2.108555e+01  -9.627506e+01
   1.273196e-01   7.218520e+01
  -3.248504e+01  -1.589975e+01
  -7.770334e+00   1.236982e+00
  -2.264785e+01  -5.870034e+01
   2.190126e+01  -5.507675e+01
   4.200017e+01   2.027090e+00
   5.291970e+01   4.489495e+01
  -1.940962e+01  -9.993924e+00
   8.864656e+00  -2.026452e+01
  -1.350321e+01  -1.677006e+01
  -2.107855e+01   2.400948e+01
  -7.367100e+01   1.061961e+01
  -3.854439e+01   2.122832e+00
   1.376508e+01  -4.643192e+01
   1.451212e+01  -4.503636e+01
   7.182754e+01  -8.931544e+00
   6.596574e+01   4.905460e+00
   3.351013e+01   5.042604e+01
  -4.542423e+01   1.488488e+01
  -1.046005e+02  -2.991586e+01
  -7.011132e+01  -1.141960e+02
   4.583776e+01  -2.911694e+01
   7.430997e+01   9.018240e+00
   9.109705e-01   8.161860e+01
  -2.434468e+01  -5.090915e+00
  -6.342035e+00  -1.658522e+01
   6.873118e+00   1.215770e+01
   6.780632e+01   1.608943e+01
