
 $NMID
 id='ANONYMOUS ', fmtdat='(2E16.6)'
 volume=1.0
 tramp=1.0
 $END
  -6.304204e+02   6.795562e+01
  -2.779462e+02  -3.235675e+02
   5.184407e+01  -2.569060e+02
   2.359609e+02  -2.181243e+02
   9.435927e+01   1.136687e+02
  -6.790249e+01   9.068827e+01
  -9.798634e+01  -7.162597e+01
   2.962766e+01  -1.871881e+02
   4.193655e+01  -1.315028e+02
   3.732514e+01  -4.142450e+01
   1.059239e+01   1.222923e+02
  -2.868499e+01   3.406082e+01
  -3.626822e+01  -3.011021e+01
  -1.169370e+02   2.929326e+01
  -3.146442e+01   2.292721e+01
   1.935895e+00  -6.770519e+00
   1.043810e+01   6.823156e+00
  -1.122855e+01   5.785676e+01
   1.452045e+02   5.281621e+01
  -2.289695e+02   6.208395e+00
  -2.319563e+01   1.521504e+01
  -1.429601e+02  -9.145730e+01
  -2.410715e+01  -1.447569e+02
  -8.485383e+01   7.300496e+01
  -4.881176e+01  -3.287464e+01
   2.870941e+01  -1.307400e+02
   1.395332e+02  -6.496978e+01
   1.256150e+02  -6.511498e+01
   3.350338e+01   2.159594e+01
   2.165325e+01   3.934444e+01
  -4.392222e+01   1.420777e+01
  -9.062724e+01  -9.354902e+01
  -2.272163e+01  -2.281635e+01
   1.206531e+02  -2.789681e+01
   1.046756e+02   5.508162e+01
  -3.310671e+01   5.764822e+01
  -3.783159e+01   6.393105e+01
   2.288583e+01  -8.478643e+01
   3.446767e+01  -5.198833e+01
   7.684386e+01  -1.611397e+01
   5.050821e+01   6.764523e+01
  -3.164819e+01   1.069803e+02
  -9.374668e+01   4.433708e+01
  -5.933674e+01  -8.665658e+01
  -3.045392e+00  -2.297566e+01
   6.195612e+01   1.385741e+01
   2.048296e+01   6.324120e+01
  -6.757049e+01  -3.519099e+00
  -5.867026e+01  -6.520230e+01
  -6.451034e+00  -5.833077e+01
   8.204691e+01  -2.887639e+01
   8.285559e+01   1.936938e+01
   1.333225e+01   8.350302e+01
  -5.330823e+01   5.728461e+01
  -5.816603e+01   8.482968e+00
  -4.800441e+01  -4.929170e+01
   3.077139e+01  -2.329244e+01
   5.360726e+01  -1.427469e+01
   4.369253e+01   3.590657e+00
  -6.652289e+01   2.214543e+01
  -2.557427e+01   1.350393e+00
   2.918004e+01   1.611778e+01
   6.924527e+01   8.081244e+00
   4.997883e+01   5.018368e+01
  -5.532761e+01  -1.571107e+01
  -4.544786e+01   2.895367e+01
  -1.563874e+01   4.592827e+01
  -1.623789e+01  -6.251925e+00
  -7.059136e+00  -2.880161e+01
  -3.796531e+01  -5.029673e+01
   2.211699e+01   1.466770e+01
  -2.039524e+01  -4.763642e+01
   4.613887e+01  -3.516393e+00
   4.259653e+01  -3.904981e+00
   3.554439e+01   1.303838e+01
   2.530337e+01   3.467261e+01
  -4.672059e+00   6.342569e+01
  -3.726639e+01   3.823905e+01
  -5.309337e+01  -8.003454e+01
   5.766839e+00  -6.686596e+01
   3.666796e+01  -1.031520e+01
   3.408399e+01   4.460061e+01
  -1.397475e+01   2.541650e+01
   1.124225e+01   4.984371e+00
   1.739414e+01   1.332413e+01
  -4.906453e+01   5.566022e+00
  -1.774594e+01  -3.807618e+00
  -6.420233e+01   2.023835e+01
  -4.568797e+01   2.379318e+01
  -7.302758e+01  -2.649715e+01
   5.437541e+00  -6.037305e+01
   1.367214e+01  -6.398346e+01
   2.089848e+01  -3.886046e+01
   6.245299e+01  -5.195027e+01
   4.153840e+00   3.513475e+01
  -4.179811e+01   5.499449e+01
   2.339508e+01   3.060686e+01
   5.028420e+00  -6.121660e+01
   7.509742e+01  -7.730061e+00
   1.008563e+01   2.474291e+01
  -3.215575e-01  -5.641069e-01
  -6.116963e-01  -9.055443e+00
  -3.874901e+00   4.940505e+01
   1.036609e+01   2.003216e+01
   5.773501e+00   2.141631e+01
   2.561810e+01   1.360394e+01
  -3.353686e+01   1.229916e+01
  -1.770627e+01   1.465771e+01
  -2.655163e+01   3.836464e+01
  -2.268397e+01  -1.175597e+01
  -2.334255e+01  -3.475004e+01
   3.549320e+01  -6.141137e+01
   2.782197e+01  -2.150400e+01
  -5.069034e+01  -9.931878e+00
   1.613646e+00   6.698365e+00
  -2.052786e+01   1.692386e+01
   6.903001e+01  -7.625613e+00
  -2.734743e+01  -1.766082e+01
   1.623712e+01  -1.211229e+01
   1.015066e+01   1.290563e+01
   1.632787e+01   1.078681e+01
   1.921400e+01   1.386675e+01
   1.156953e+01  -1.289253e+01
   7.543299e-01   2.873350e+01
  -5.220475e+01   3.471954e+01
   6.407165e+00   1.282113e+01
  -1.268000e+01   2.009952e+01
  -3.038105e+00  -1.374410e+01
  -6.758143e+00   2.565933e+00
  -1.145564e+01  -2.249406e+01
  -2.686344e+01   6.183844e+01
  -4.151693e+01  -1.128174e+01
   7.883879e+00  -3.991514e+01
  -8.075000e+00  -1.349273e+01
   3.738029e+01  -3.948974e+01
  -1.034153e+01  -2.258525e+01
   3.597260e+01  -4.813452e+01
  -1.073742e+00   5.201471e+01
   4.090114e+01  -2.529318e+01
   4.833359e+01  -1.567334e+01
   2.827763e+01  -2.610257e+01
   2.059929e+01   2.458608e+01
  -1.380116e+00   3.334950e+01
  -1.608469e+01   3.792319e+01
  -1.213790e+01  -1.649317e+01
  -4.314378e+01   9.704744e+00
   2.422134e+01  -5.352577e+01
  -3.097398e+01  -5.198401e+01
   9.733572e+00   2.192281e+01
  -5.332575e+01   3.166114e+01
   2.950007e+01   8.266560e+00
  -1.057809e+01   2.387856e+01
   2.063036e+01   1.628806e+01
  -8.733311e+00   3.762681e+01
  -2.489962e+01  -1.486400e+01
  -4.816988e+00   3.092948e+00
  -1.142323e+01  -8.414832e+00
  -2.594851e+01  -4.854574e+00
   2.432801e+00   3.808019e-01
  -2.624804e+01   1.871078e+01
   2.523593e+01   8.371743e+00
  -1.007229e+01  -2.846337e+01
   4.869156e+01  -1.558467e+01
  -1.385735e+01   1.597660e+01
  -2.219404e+01   1.140613e+01
   4.823029e+00  -7.665754e+00
   6.184953e+01  -1.267274e+00
   3.658854e+00  -2.472290e+01
   1.943437e+01  -2.579844e+01
   2.031458e+01  -5.222960e+01
   1.323926e+01   2.048092e+01
  -7.974416e+01   6.580424e+01
  -1.698611e+01   2.206697e+01
   5.805927e+00  -9.224051e+00
   1.513318e+01   1.664477e+01
   3.483739e+01  -6.324821e+00
   5.629649e+01  -2.860251e+01
   4.234831e+01  -1.167135e+01
   1.062646e+01   1.193283e+00
   1.211653e+01   1.290917e+01
  -1.124873e+00  -1.296744e+01
  -2.169356e+01   3.498126e+01
  -4.139227e+01   4.697873e+01
   6.028666e+00   3.746928e+01
  -2.351641e+01   8.727444e+00
   1.285244e+01  -2.032850e+01
  -1.843658e+01  -3.895221e+01
   1.952523e+01  -4.682637e+01
  -7.624507e+00   2.609964e+01
   1.239400e+01  -2.939228e+01
  -6.625317e+00   1.074407e+01
  -1.883392e+01   4.136062e+00
   1.001234e+01   1.342591e+01
  -5.643895e+01  -3.257355e+01
  -1.637772e+00  -8.674569e+00
  -7.807385e-01   4.544929e+01
   2.681655e+01  -1.958364e+01
   2.261281e+01   3.826004e+01
   5.715425e+01  -6.846303e+00
   4.262928e+01  -1.156187e+01
   1.778628e+00   7.691116e+00
   5.498945e+00   3.392702e+01
  -1.969136e-01  -3.181454e+00
  -2.791555e+01   8.569513e+00
  -1.853849e+01  -2.679583e+01
   2.077929e+00  -6.266095e+00
   1.399286e+01   3.185910e+01
   1.244583e+01   3.459777e+01
   8.559229e+01   1.136771e+01
   4.204862e+01  -1.402750e+01
  -9.168664e+00   6.994526e+00
  -1.001155e+01   3.198527e+01
  -2.878764e+01   8.622195e+00
  -1.629166e+01   1.974893e+01
  -2.394631e+01  -2.068225e+01
  -1.613850e+00  -4.364405e+01
   5.922175e+01   2.304268e+01
  -7.268864e-01   1.036193e+00
   1.246290e+01  -4.279546e+00
   1.426039e+01   9.546645e-01
  -1.471707e+00   8.761795e+00
   2.907291e+00  -8.146721e+00
   7.660058e+00  -6.294124e+00
  -1.515186e-01   1.825274e+01
   7.828274e+00  -3.835549e+00
  -1.715231e+01   2.270710e+01
  -5.184122e+00   2.343329e+01
  -1.279876e+01   1.790941e+01
   3.545931e+01  -1.351871e+01
   5.689770e+00   5.774198e+00
  -1.134435e+01   1.920578e+01
  -4.989652e+01   1.061701e+01
  -6.258076e+01  -3.684465e+01
   4.205639e+00  -3.941160e+01
   1.818330e+01  -2.551745e+01
  -7.230040e+00   1.974973e+00
   3.283347e+01  -3.768055e+00
   1.483856e+01   4.988576e+00
  -7.343380e+00   2.780977e+00
   2.142131e+00  -1.209433e+01
  -9.247764e+00  -2.408403e+01
   5.680693e+00   8.554848e+00
   5.441676e+00  -1.169510e+01
   1.021483e+01   1.136615e+00
  -2.017981e+01  -1.606664e+01
  -5.566722e+00  -1.428979e+01
  -1.976439e+01   1.997649e+01
   1.546965e+01   4.207556e+01
   1.993802e+01  -2.051748e+01
  -1.361341e+01   1.545732e+01
  -1.277664e-01   1.722777e+01
   1.593238e+01   5.341007e+01
  -2.072788e+01   2.480176e+01
   3.161876e+01  -3.853024e+01
   2.151158e+00  -5.598330e+00
  -1.342634e+01   8.738757e+00
  -4.058103e-01  -1.718080e+01
   2.354619e+01   2.545692e+01
  -1.792091e+01   2.731629e+01
  -3.729438e+01   2.111575e+01
  -2.118762e+01  -4.158811e+01
  -2.343345e+01  -1.437657e+01
   1.744980e+01  -5.504885e+01
   9.971113e+00   1.257005e+00
   2.402260e+01  -4.152421e+01
   1.118808e+01   1.852872e+01
  -4.497902e+01  -3.794223e+00
  -3.624933e+01  -8.824120e+00
  -1.505263e+01   2.642973e+01
  -8.734024e+00   3.166513e+01
  -3.581280e+01   1.578632e+01
  -2.646142e+01   5.757846e+01
  -2.899173e+01  -2.311497e+01
  -1.689971e+01  -8.517898e+00
  -2.072296e+01  -3.686672e+01
   2.863672e+01  -1.912966e+01
   4.196970e+01   1.724504e+00
   1.382087e+01   2.631488e+01
  -1.390297e+01   2.172200e+01
  -2.506248e+01  -1.606382e+01
  -7.640628e+00  -1.197420e+01
  -5.804741e+00  -1.779068e+01
  -1.566692e+01  -5.143124e+01
   8.653073e+00   1.821102e+01
   3.032017e+00  -3.799134e+01
  -6.635296e+00   2.325915e+01
   6.917639e+00  -1.598403e+01
   1.343220e+01  -4.465948e+01
  -6.927209e+00   2.286732e+01
   3.152613e+01  -1.387106e+01
  -3.283241e+01   8.880698e+00
  -9.657472e-01   3.112476e+01
   4.696918e+00   1.104222e+01
  -2.930961e+01   2.843320e+01
   4.963035e+00   2.104046e+00
  -4.144244e+00  -3.765228e+01
   3.794957e+00   2.550682e+01
   1.024162e+01   3.558703e+01
  -1.201072e+00   2.998701e+01
  -1.262646e+00   1.437773e+01
  -2.850499e+01  -1.690646e+01
  -3.443219e+01  -2.938681e+01
   2.891476e+01   6.440112e+00
   2.750286e+01  -2.290219e+01
   2.618292e+00  -2.384939e-01
   3.355429e+00   1.203686e+01
  -5.109132e+01  -3.861410e-01
  -1.671364e+01  -8.733689e+00
  -1.609061e+01  -1.443970e+01
   4.068430e+01  -3.282156e+00
   2.380331e+01  -3.806774e+00
  -1.949059e+01  -3.333735e+01
  -8.027080e+00   3.395219e+01
  -2.415395e+01   1.191487e+01
   2.485494e+01   1.471632e+00
   5.415367e+00   6.869586e+00
   1.223851e+01   3.506356e+01
   6.043741e+00   1.671599e+01
  -1.743233e+01  -1.879265e+00
  -3.382394e+01  -1.046171e+01
