
 $NMID
 id='ANONYMOUS ', fmtdat='(2E16.6)'
 volume=1.0
 tramp=1.0
 $END
   3.212132e+03   1.484454e+02
   2.175977e+03   1.614193e+03
  -2.291444e+02   2.024466e+03
  -1.466880e+03   9.880981e+02
  -9.272077e+02   4.579726e+01
   1.839390e+02  -1.630524e+02
   5.344679e+02   2.860365e+02
   8.965798e+01   6.452144e+02
  -5.122462e+02   5.018342e+02
  -6.023388e+02  -1.186774e+01
  -4.998577e+02  -6.401453e+02
   6.496450e+00  -6.157364e+02
   3.562729e+02  -2.032249e+02
   3.597658e+02   4.339004e+02
  -2.125236e+02   5.343084e+02
  -4.673276e+02   1.776930e+02
  -3.640284e+02  -4.707160e+02
   1.851664e+02  -5.335987e+02
   4.903927e+02  -2.358394e+02
   4.425687e+02   1.816455e+02
   6.874116e+01   3.572189e+02
  -1.426482e+02   2.216756e+02
  -3.571304e+01   1.020487e+00
   1.671046e+02   2.500524e+01
   3.031191e+02   1.651794e+02
  -1.205308e+01   3.075300e+02
  -3.638447e+02   1.180050e+02
  -6.328862e+02  -1.119149e+02
  -3.212109e+02  -3.313931e+02
   3.914135e+02  -2.390530e+02
   5.974992e+02   5.958189e+01
   2.956594e+02   3.325267e+02
  -1.915945e+02   3.326858e+02
  -4.569451e+02   1.406928e+02
  -2.762547e+02  -1.677064e+02
  -2.567336e+01  -3.983075e+02
   9.639377e+01  -1.941955e+02
   6.005756e+01   1.740325e+02
  -1.537390e+02   2.196054e+02
  -2.538289e+02  -5.871576e+01
  -9.350481e+01  -4.802335e+02
   2.236488e+02  -4.728819e+02
   3.787292e+02   3.460761e+01
   1.345915e+02   3.503215e+02
  -1.700850e+02   1.423565e+02
  -2.328980e+02  -3.059370e+02
   1.111762e+02  -4.621056e+02
   4.585480e+02  -7.512657e+01
   5.147350e+02   3.593802e+02
   1.443364e+02   5.143542e+02
  -3.109472e+02   2.670234e+02
  -4.831284e+02  -3.392120e+01
  -2.499727e+02  -2.688701e+02
   1.211947e+02  -2.574121e+02
   3.194780e+02  -4.034381e+01
   1.850366e+02   1.451777e+02
  -5.538999e+01   1.053294e+02
  -9.958192e+01  -1.190279e+02
   1.141130e+02  -1.531008e+02
   3.124984e+02   4.336130e+01
   1.625908e+02   2.242590e+02
  -1.250372e+02   2.916462e+02
  -2.748853e+02   9.848004e+01
  -1.874157e+02  -4.783223e+01
   4.951107e+01  -2.629600e+02
   3.046251e+02  -2.803449e+02
   3.026340e+02  -1.652852e+02
   1.812796e+02   1.716398e+02
   7.383658e+01   4.333288e+02
   6.314465e+00   3.434363e+02
   4.503158e+00   1.323563e+02
  -2.946959e+01   5.494256e+01
  -1.328859e+02   1.278724e+02
  -2.461093e+02   1.155316e+02
  -2.251873e+02  -1.244390e+02
  -4.506261e+01  -3.011311e+02
   1.218580e+02  -2.367863e+02
   1.786081e+02   3.374497e+01
   9.525421e+01   2.743884e+02
  -4.154659e+01   2.366494e+02
  -2.225677e+02   4.963872e+01
  -2.980293e+02  -1.262621e+02
  -2.166839e+02  -3.048409e+02
  -2.826111e-01  -3.128579e+02
   1.763796e+02  -1.862437e+02
   1.140073e+02  -7.192436e+01
   1.161906e+02  -1.132245e+02
   2.529128e+02  -6.623169e+01
   3.890017e+02   9.074564e+01
   2.836339e+02   3.272504e+02
  -5.021758e+01   4.330865e+02
  -3.785260e+02   3.992574e+02
  -4.703928e+02   1.878588e+02
  -2.705624e+02  -7.667057e+01
  -5.395939e+01  -2.488804e+02
   5.364950e+01  -2.047755e+02
   1.014745e+01  -4.459694e+01
  -4.556568e+01   9.111624e+01
  -1.409476e+02   1.158885e+00
  -3.319593e+01  -1.664412e+02
   1.066508e+02  -1.276257e+02
   1.301583e+02   3.359650e+01
   1.136908e+01   1.628526e+02
  -1.523730e+02   5.661748e+01
  -1.628404e+02  -2.286541e+02
  -1.309532e+01  -3.757983e+02
   2.131699e+02  -2.057996e+02
   3.230892e+02   9.805664e+01
   2.242975e+02   2.972001e+02
   6.900197e+01   2.494425e+02
  -1.754745e+02   1.378031e+02
  -2.092434e+02  -3.274425e+01
  -7.738912e+01  -8.409952e+01
   5.436724e+01   1.624873e+01
   3.095521e+01   7.987607e+01
  -9.786206e+01   7.108056e+01
  -1.708835e+02  -1.835873e+00
  -5.628841e+01  -3.208140e+01
   9.772186e+01   2.072969e+01
   4.482700e+01   1.040482e+02
  -1.295118e+02   9.112056e+01
  -3.383943e+02  -1.543912e+00
  -2.816602e+02  -1.135727e+02
  -9.396910e+00  -2.508474e+02
   2.035636e+02  -2.114478e+02
   2.447086e+02  -1.081525e+02
   1.706845e+02   7.104293e+01
   2.563277e+01   9.266247e+01
  -2.339281e+01   2.254071e+01
   1.881589e+01  -4.266737e+01
   1.131195e+02  -2.920652e+01
   1.429142e+02   1.157115e+02
   6.443550e+01   1.720941e+02
  -3.421885e+01   1.277764e+02
  -1.259680e+02   2.414253e+01
  -6.626729e+01  -3.035428e+01
   5.677244e+01   1.095866e+01
   3.308655e+01   1.120613e+02
  -9.839537e+01   1.137324e+02
  -1.823746e+02   2.177399e+01
  -1.701543e+02  -1.227330e+02
  -3.397411e+01  -2.347288e+02
   1.081953e+02  -1.569659e+02
   1.310881e+02  -5.960423e+01
   8.027977e+01   2.344262e+01
  -3.067516e+01   5.553237e+01
  -9.942906e+01   3.860887e+01
  -1.791931e+01  -7.064530e+01
   2.391849e+01  -7.705325e+01
   8.719084e+00   4.343532e+01
  -4.319225e+01  -5.355237e+00
  -1.101762e+02  -7.270640e+01
  -2.206455e+01  -1.504552e+02
   1.040772e+02  -1.174176e+02
   2.547058e+02  -4.368837e+00
   1.971968e+02   1.951533e+02
   1.588795e+00   2.144638e+02
  -1.397893e+02   1.663392e+02
  -1.597667e+02   5.685207e+01
  -6.607915e+01  -5.070107e+01
  -4.972868e+01  -2.634137e+00
  -4.708861e+01   4.095675e+01
  -9.928019e+01   2.191689e+01
  -9.847182e+01  -3.387804e+01
   6.126727e+01  -9.111525e+01
   4.972910e+01  -7.393230e+01
   1.140287e+02   1.394545e+01
  -2.192221e+01   1.216530e+02
  -1.254040e+02   8.325202e+01
  -1.674139e+02  -6.735288e+01
  -5.410521e+01  -1.849012e+02
   9.165536e+01  -1.838241e+02
   2.385343e+02  -6.269390e+01
   2.357589e+02   8.172099e+01
   7.523095e+01   1.454793e+02
  -6.061614e+01   1.437718e+02
  -1.143737e+02   4.308576e+01
  -5.435503e+01   7.825806e+01
   5.401659e+00   7.125436e+01
  -2.093220e+01   8.608068e+01
  -1.153822e+02  -5.864723e+00
  -1.596240e+02  -1.616561e+02
  -5.040691e+01  -2.037464e+02
   6.732468e+01  -1.072744e+02
   1.625193e+02  -2.692493e+01
   1.194873e+02   1.239379e+02
  -1.134065e+01   1.726952e+02
  -4.555841e+01   9.514214e+01
  -8.737273e+01  -1.532025e+00
  -6.627593e+01  -8.884673e+01
   2.179801e+01  -8.040175e+01
   6.807997e+00  -6.100518e+01
  -6.934639e+01  -6.086871e+00
  -1.082860e+01   3.483970e+00
   1.222182e+02   3.308429e+01
   1.487677e+02   9.402608e+00
   1.157391e+02   5.848375e+01
   5.305871e+01   7.938537e+01
  -7.879844e+01   5.952104e+01
  -1.289570e+02   3.641623e+01
  -7.593304e+01  -6.837901e+00
  -4.768526e+00  -5.561788e+01
   5.855375e+01   1.001050e+01
   5.595308e+01   6.136798e+01
  -6.792834e+01   1.015082e+02
  -3.509556e+01  -1.416453e+01
  -2.804223e+01  -5.510261e+01
  -4.730513e+01  -1.797936e+01
  -1.201821e+01   5.858530e+01
  -3.460895e+01  -4.786158e+00
  -8.510292e+01  -9.471953e+01
  -2.859022e+01  -1.787864e+02
   1.423913e+02  -1.861722e+02
   1.422048e+02  -2.349556e+01
   1.491561e+02   6.810236e+01
  -4.204365e-01   1.204879e+02
  -8.402759e+01   9.278751e+01
  -4.062747e+01  -1.729118e+01
   2.921260e+01  -1.635325e+01
   1.136214e+02   3.425002e+01
   8.268299e+01   9.165833e+01
  -3.653956e+01   4.859151e+01
  -1.389381e+02   6.691855e+01
  -1.384921e+02  -6.450461e+01
  -5.102786e+01  -7.302703e+01
   5.300497e+01  -4.639385e+01
   8.656228e+01   7.907975e+00
  -1.558389e+01   6.352519e+01
  -1.069625e+02  -3.537676e+01
  -4.445676e+01  -1.248535e+02
   5.412554e+01  -1.437804e+02
   1.460031e+02  -3.620027e+01
   7.686008e+01   9.235262e+01
  -3.013744e+01   1.216504e+02
  -6.512080e+01   1.304507e+02
  -1.017631e+02  -3.515241e+01
  -2.273426e+01  -1.059343e+02
   3.504929e+01  -1.214635e+02
   5.679935e+01  -3.692388e+01
   2.107143e+01   1.975829e+01
   1.706401e+01   1.577375e+01
  -2.207484e+01  -2.354999e+01
   3.961410e+01   4.518844e+01
   5.214980e+01   1.190671e+02
   3.900054e+01   3.395633e+01
  -7.029263e+01   6.469053e+01
  -1.558291e+02   8.263125e+00
  -1.107038e+02  -5.330173e+01
  -4.410483e+01  -6.316090e+01
   7.913084e+01  -3.384418e+01
   1.092783e+02  -1.334995e+01
  -3.607410e+01  -2.449159e+01
  -3.233035e+01  -1.015479e+01
  -6.872061e+01   3.983929e+01
  -1.127203e-01  -3.670750e+00
  -1.272486e+01  -2.893227e+01
  -3.799342e+01  -3.441067e+01
  -5.663677e+01  -1.914482e+01
   2.222751e+01  -5.233704e+01
   8.893356e+01  -1.350891e+02
   1.664198e+02  -6.229616e+01
   1.174006e+02   7.388111e+01
  -3.498391e+01   1.630351e+02
  -8.819106e+01   1.109645e+02
  -9.169675e+01   4.430124e+01
  -1.003606e+02  -1.362974e+01
  -4.897257e+01  -4.756047e+01
  -1.028775e+01  -1.906246e+01
  -1.600263e+01   9.445269e+00
  -8.318366e+01  -8.412869e+01
   1.496132e+01  -9.337124e+01
   3.387169e+01  -1.123361e+02
   3.063757e+01   1.629851e+01
   9.036472e+01   7.600721e+01
   5.323222e+01   9.205350e+01
  -5.215231e+01   1.595839e+01
  -7.685525e+01  -6.404492e+01
  -5.311545e+01  -7.311305e+01
   2.491680e+01  -5.740128e+01
   9.680575e+01   5.101468e+01
   2.581651e+01   6.072406e+01
  -6.884115e+01   7.904797e+01
  -5.091798e+01   4.204939e+01
   8.100877e+00  -2.545777e+01
   9.013918e+01  -1.279254e+01
   3.437363e+01  -1.554486e+01
  -7.392065e+01   8.419321e+01
  -1.633101e+02   6.901522e+01
  -8.992143e+01  -4.379929e+00
   1.548508e+01  -5.413016e+01
   4.240425e+01  -9.307594e+01
   7.699567e+01  -5.649088e+01
   6.624136e+01   5.249825e+01
  -3.518342e+01   4.031961e+01
  -6.080359e+01  -1.634712e+01
  -6.905027e+01  -5.210039e+01
   2.252723e+01   1.195056e+01
   4.347560e+01  -3.355125e+00
   1.097146e+02   5.840516e+01
   4.290024e+01   2.127345e+01
  -1.597436e+01  -1.611357e+01
  -2.488766e+01  -3.570425e+01
  -4.621473e+00   7.215109e+01
   1.182551e+01   4.718640e+01
  -4.062746e+01   2.400430e+01
  -5.137780e+01   3.909685e+01
  -6.926334e+01  -4.803420e+01
   1.095932e+01   1.693915e+01
   6.740450e+01  -8.913525e+00
   2.560321e+01   2.455048e+01
  -7.280844e+01   5.261220e+01
  -7.961915e+01   8.734289e+00
  -5.560929e+01  -2.915240e+01
   3.079099e+01  -3.393927e+01
   7.880262e+01   1.243716e+01
  -3.394504e+01   2.064563e+01
  -3.814887e+00  -3.340374e+01
  -4.620203e+01  -3.845069e+01
   1.689794e+01  -4.360487e+01
   4.241450e+01  -9.778205e+00
