
 $NMID
 id='ANONYMOUS ', fmtdat='(2E16.6)'
 volume=1.0
 tramp=1.0
 $END
  -2.556881e+03   3.187797e+02
  -1.673685e+03  -1.365033e+03
  -1.389774e+02  -1.633068e+03
   9.153467e+02  -1.225980e+03
   9.548305e+02  -4.328455e+02
   1.940173e+02   2.155217e+02
  -6.364019e+01  -2.884377e+01
   6.165078e-01  -4.128885e+02
   2.972265e+02  -4.921168e+02
   5.147499e+02  -1.126088e+02
   3.140552e+02   2.479008e+02
   7.915274e+00   4.661194e+02
  -1.947041e+02   2.100559e+02
  -1.939206e+02  -3.132897e+02
  -2.949127e+00  -4.895719e+02
   2.310185e+02  -9.302123e+01
   1.659889e+02   3.880155e+02
  -1.114990e+02   3.706202e+02
  -3.108626e+02   4.228348e+02
  -3.886861e+02  -1.799112e+02
  -7.878314e+01  -2.611589e+02
   6.103169e+01  -2.448998e+02
  -3.766950e+01  -1.098540e+02
  -1.344161e+02  -1.563332e+02
  -7.983700e+01  -2.772841e+02
   1.011149e+01  -3.128005e+02
   4.901544e+02  -6.001163e+01
   4.382621e+02   9.114146e+01
   1.999324e+02   2.797421e+02
  -2.315489e+02   8.355268e+01
  -3.689368e+02  -1.174020e+02
  -8.022137e+01  -3.166621e+02
   1.751698e+02  -1.910265e+02
   3.217584e+02  -1.162954e+02
   2.593968e+02   3.994132e+01
   5.854762e+01   1.981636e+02
   1.799170e+01   1.517855e+02
   1.137152e+02  -3.993243e+01
   1.873895e+02  -5.614202e+01
   1.724819e+02   1.330439e+02
  -3.746817e+01   3.732118e+02
  -2.018289e+02   2.695576e+02
  -2.402220e+02  -2.593235e+01
  -4.343912e+01  -2.445871e+02
   5.488200e+01  -1.889114e+02
   6.347676e+01   1.489029e+02
  -9.435355e+01   2.738007e+02
  -3.307687e+02   2.314389e+01
  -3.023263e+02  -3.113963e+02
  -1.542226e+02  -4.526282e+02
   2.532596e+02  -1.718703e+02
   4.285793e+02   3.722678e+01
   3.081573e+02   2.164046e+02
   1.872960e+01   1.997382e+02
  -2.142237e+02   1.258615e+02
  -2.105134e+02   5.299791e+01
  -5.306289e+01  -2.990158e+01
   4.026332e+01   1.189631e+01
  -5.948867e+01  -4.670179e+00
  -1.572972e+02  -4.764064e+01
  -1.156091e+02  -1.404225e+02
   7.150870e+01  -1.981144e+02
   3.055789e+02  -1.728553e+02
   1.952422e+02   7.761275e+01
   4.815015e+01   3.208987e+02
  -1.378145e+02   3.010635e+02
  -2.833880e+02   1.047991e+02
  -1.905113e+02  -1.350570e+02
  -1.018486e+02  -2.059368e+02
   6.106039e+01  -1.749060e+02
   3.236855e+00  -1.461000e+02
  -1.577335e+01  -1.069573e+02
   1.172809e+02  -1.044770e+02
   2.397570e+02  -5.185228e+01
   2.487909e+02   1.367633e+02
   4.644842e+01   1.999848e+02
  -1.216505e+02   1.346245e+02
  -1.970676e+02  -6.947581e+00
  -1.161994e+02  -2.092014e+02
   6.131565e+01  -2.009792e+02
   1.899760e+02  -7.851138e+01
   1.999398e+02   1.527482e+02
   1.422519e+02   1.837510e+02
  -4.164071e+01   1.534329e+02
  -1.060232e+02   6.924706e+01
  -1.494257e+02   7.002721e+01
  -9.320905e+01   7.857042e+01
  -1.817279e+02   6.402453e+01
  -3.049765e+02  -7.045092e+01
  -2.573726e+02  -2.123850e+02
  -2.636613e+01  -3.495368e+02
   3.254071e+02  -3.108602e+02
   4.138539e+02  -1.413312e+02
   2.111986e+02   1.285816e+02
   2.925560e+00   2.586589e+02
  -9.514746e+01   1.563016e+02
  -1.498482e+01  -3.023798e+01
   6.972257e+01  -3.139530e+01
   5.380920e+01   2.020443e+01
   1.237237e+01   1.264503e+02
  -5.330281e+01   8.859653e+01
  -4.157180e+01  -5.810696e+01
   1.100927e+01  -8.672371e+01
   1.211140e+02   3.373878e+00
   1.442299e+02   1.978811e+02
  -1.204359e+01   2.709079e+02
  -1.788834e+02   1.657741e+02
  -3.078532e+02  -1.002208e+02
  -1.793528e+02  -2.140896e+02
  -1.410135e+01  -2.367623e+02
   1.135553e+02  -1.279086e+02
   1.209534e+02  -4.569029e-01
   2.547822e+01   5.392766e+01
  -2.110022e+01  -2.239794e+01
  -2.429403e+01  -1.162219e+02
   1.120900e+02  -6.815123e+01
   9.529057e+01   3.754912e+01
   3.914318e+01   6.649927e+01
  -8.783677e+01  -1.111108e+01
  -4.319756e+01  -4.409632e+01
   9.312689e+01  -8.895374e+01
   2.388783e+02   1.551263e+01
   1.911842e+02   1.164865e+02
   2.431382e+01   2.063893e+02
  -1.501579e+02   1.955429e+02
  -1.621432e+02   3.122978e+01
  -7.884933e+01  -1.729902e+01
   6.095747e+01  -4.444014e+01
   4.831732e+01   3.140040e+01
  -1.012443e+02   6.315545e+01
  -1.449419e+02   2.382872e+01
  -1.460243e+02  -1.235142e+02
  -3.501759e+01  -1.198214e+02
   8.592330e+01  -6.501327e+01
   7.576348e+01  -5.440623e+01
   3.488833e+00  -5.001398e+01
  -5.050461e+01  -4.166703e+01
  -4.263687e+01  -1.424029e+02
   9.348625e+01  -1.512662e+02
   1.948815e+02  -1.088840e+01
   1.523211e+02   1.250593e+02
   5.552666e+00   2.006425e+02
  -1.231477e+02   9.231800e+01
  -9.685131e+01   6.393742e+00
   1.817079e+00  -8.327759e+01
   8.044306e+01  -8.620763e+01
   8.776914e+01  -3.828031e+01
   1.192915e+01   1.284761e+01
  -5.246714e+01   3.456090e+01
  -2.283143e+00  -6.002999e+01
   1.059321e+02  -3.037984e+01
   1.375877e+02   5.865465e+01
   4.025795e+01   1.808708e+02
  -9.965511e+01   1.027934e+02
  -1.692881e+02   4.786470e+01
  -1.716500e+02  -1.401691e+02
  -3.651562e+01  -1.528115e+02
   7.530089e+01  -1.123049e+02
   1.296049e+02   1.699647e+01
   1.540689e+01   2.757054e+01
  -2.177756e+01  -2.988994e+01
  -1.047431e+01  -4.767078e+01
   5.724817e+01   1.760529e+01
   3.260429e+01   4.459636e+01
  -1.081933e+01   7.493837e+01
  -8.463756e+01   7.512249e+01
  -6.432747e+01  -2.652972e+01
  -1.861155e+00  -7.689199e+01
   9.645323e+01  -6.304161e+01
   1.387431e+02   5.623971e+01
   4.893164e+01   2.207060e+02
  -8.904292e+01   1.850694e+02
  -2.548159e+02   4.361882e+01
  -1.411177e+02  -1.099492e+02
  -9.248287e+00  -1.548902e+02
   4.847767e+01  -1.118169e+02
   7.008147e+01  -7.589125e+00
   4.503710e+01  -6.990074e+01
   3.862103e+01  -7.885844e+01
   8.043032e+01  -6.835785e+01
   1.691078e+02  -7.234307e-01
   1.161678e+02   1.171105e+02
   1.900176e+01   1.711751e+02
  -7.922633e+01   1.667453e+02
  -1.500644e+02  -1.933776e+01
  -1.396856e+02  -7.346791e+01
  -3.115259e+01  -1.232114e+02
   6.144198e+01  -4.998096e+01
   3.929549e+01  -7.903415e+00
   9.127223e+00   6.280037e+01
  -5.913008e+01   1.934979e+01
  -1.461978e+01   2.839567e+01
   9.734148e+01   4.605562e+01
   8.751899e+01   2.511578e+01
  -2.346650e+01   7.053051e+01
  -1.648239e+02   1.476818e+01
  -1.571379e+02  -4.228974e+01
   6.802611e+00  -6.516462e+01
   1.495133e+02  -1.023898e+02
   1.291651e+02  -1.919523e+01
  -9.443839e-01   4.520178e+01
  -3.961924e+01   6.058394e+01
  -4.197949e+01  -1.202863e+01
  -2.070825e+01  -5.211837e+01
   5.490961e+00  -1.031415e+02
   2.440266e+01  -7.633960e+01
   8.325311e+01   1.051003e+01
   3.058378e+01   6.668632e+01
  -7.993777e+00  -7.963627e+00
   1.546994e+01   1.413313e+01
   7.101827e+01   7.560002e+00
  -3.241710e+01   1.075821e+02
  -7.904046e+01   9.190865e+01
  -1.101505e+02   4.596793e+01
  -1.545883e+02  -2.738599e+01
  -2.586738e+01  -5.939154e+01
   8.373436e+01  -9.244462e+01
   8.036325e+01  -1.129590e+01
  -5.709289e+01   3.127469e+01
  -8.932271e+01  -1.375336e+01
  -5.122217e+01  -9.659334e+01
   8.828722e+01  -5.947253e+01
   1.514163e+02  -4.593844e+01
   1.203878e+02   2.210886e+01
   5.371387e+01   1.031552e+02
  -8.663268e+01   6.696083e+01
  -7.475696e+00  -3.223287e+01
   5.926681e+01   1.199934e+01
   5.686259e+01  -4.335088e+01
   3.672017e+01   7.637580e+01
  -4.590314e+01   1.133929e+02
  -1.604795e+02   8.212164e+01
  -1.115960e+02  -6.029756e+01
   1.924931e-02  -1.599012e+02
   2.141513e+01  -1.299498e+02
   5.952236e+01   7.114332e+00
   3.013514e+01   1.081509e+02
   3.863878e+01   9.827984e+01
  -2.475702e+01   2.978660e+01
  -3.171885e+01  -4.157846e+01
  -1.253358e+01  -2.979936e+01
   8.710852e+00   6.194525e+01
  -1.611696e+01   5.788410e+01
  -3.506998e+01  -6.153380e+01
   2.024498e+01  -7.382015e+01
   8.347660e+01  -3.442333e+01
   5.439430e+01   2.630595e+01
   1.163082e+02   7.953887e+01
   3.131768e+01   6.638864e+01
  -5.459157e+01   4.415631e+01
  -1.159321e+02   2.889886e+01
  -7.461848e+00  -3.137688e+01
   2.760971e+01  -5.325383e+01
   1.051323e+01  -1.132364e+01
  -8.509527e+01  -9.681029e-01
  -9.380433e+00   1.237645e+01
   2.647995e+01   1.173561e+01
   6.120169e+01   4.275406e+01
   1.361884e+01   2.218154e+01
  -6.622354e+01   9.111726e+01
  -1.333497e+02   2.222787e+01
  -1.172350e+02   1.196810e+00
  -7.455995e+01  -1.259984e+02
   2.428096e+01  -1.135704e+02
   4.171924e+01  -7.758436e+01
   2.905832e+01   2.954989e+01
  -5.813933e-01   1.020483e+01
   5.804627e+01  -4.180426e+01
   4.285907e+01   4.751444e+01
   1.552884e+01   4.357882e+01
  -1.548919e-01   7.775860e+01
  -4.736747e+01   4.684887e+01
  -3.139197e+01  -3.317690e+01
  -7.889624e+01  -9.167054e+01
  -1.915244e+01  -5.636657e+01
   3.562964e+01   2.327516e+01
   7.042193e+01   5.085517e+01
   3.024673e+01   5.516453e+01
  -7.895221e+01   3.410038e+01
  -1.107522e+02  -6.771518e+01
  -5.709021e+01  -4.843365e+01
   3.802832e+01  -6.761673e+01
   2.376393e+01  -1.536558e+00
  -1.713775e+01  -3.288470e+01
  -2.790321e+01  -5.256032e+00
  -4.516003e+01  -1.347209e+01
   6.434060e+01  -4.786070e+01
   5.547216e+01  -6.682400e+01
   2.606529e+01  -9.642562e+00
   1.299661e+01   2.706298e+01
  -2.009564e+01   9.208656e+01
  -3.202418e+00   2.230959e+01
  -2.855620e+01  -5.695479e+01
  -8.629936e+00  -6.604061e+01
  -1.308957e+01  -1.123992e+01
   4.012350e+01  -1.307432e+01
   3.326557e+01   2.738530e+01
  -3.521550e-01  -1.882700e+01
  -9.664220e-01  -5.195288e+00
   3.788465e+01  -1.213949e+01
  -8.064667e+00   2.039163e+01
   4.405798e+01   2.468614e+01
  -4.571178e+00  -2.837652e+00
  -3.260227e+01  -7.326147e+01
   2.694890e+01  -1.678862e+01
   6.625909e-01   6.356071e+01
   3.272677e+01   9.066965e+00
  -1.319345e+01   4.181014e+01
  -4.946327e+01   2.595612e+01
  -1.834607e+01  -9.142290e+01
   5.296602e+01  -4.721130e+01
   9.241299e+01  -5.976510e+00
   7.955670e+01   4.077615e+01
  -1.158204e+01   2.046670e+01
  -3.258891e+01   6.899752e+01
  -1.425574e+01   3.670343e+01
   2.882584e+01   1.227866e+01
   4.567489e+01  -2.018863e-02
   1.528073e+01  -1.178690e-01
  -3.937757e+01  -1.894951e+01
