
 $NMID
 id='ANONYMOUS ', fmtdat='(2E16.6)'
 volume=1.0
 tramp=1.0
 $END
   5.091100e+07  -3.857606e+05
   3.117085e+07   3.053960e+07
  -5.816720e+06   3.426947e+07
  -2.452137e+07   1.422962e+07
  -1.527487e+07  -5.371135e+06
   2.511246e+06  -8.517900e+06
   9.020526e+06   4.600348e+05
   3.108366e+06   8.728671e+06
  -5.197856e+06   9.037980e+06
  -8.778488e+06   2.326334e+06
  -6.568693e+06  -5.650349e+06
  -8.428954e+05  -8.065907e+06
   3.725520e+06  -2.491195e+06
   2.594118e+06   5.292325e+06
  -3.298456e+06   6.402405e+06
  -7.266189e+06  -9.268289e+05
  -4.330878e+06  -9.268639e+06
   3.214001e+06  -1.089788e+07
   9.153519e+06  -5.489540e+06
   9.809726e+06   1.885161e+06
   5.868607e+06   6.768076e+06
   5.455571e+05   7.602615e+06
  -2.358994e+06   5.243994e+06
  -1.111503e+06   2.569582e+06
   1.403191e+06   2.464536e+06
   1.245120e+05   4.276651e+06
  -5.398737e+06   4.133371e+06
  -9.257113e+06   3.029528e+05
  -6.537062e+06  -3.957346e+06
   3.968817e+04  -4.695303e+06
   3.775006e+06  -2.211325e+06
   2.319195e+06   3.460988e+05
  -9.865395e+05   1.199625e+06
  -2.648069e+06   4.124460e+05
  -2.192853e+06  -1.733949e+06
  -4.222478e+05  -3.962615e+06
   1.795661e+06  -3.486296e+06
   2.771115e+06   3.354910e+05
   1.303909e+06   3.325356e+06
  -7.288638e+05   1.429694e+06
  -1.631348e+05  -2.627398e+06
   2.363757e+06  -2.324856e+06
   2.377794e+06   2.837820e+06
  -1.902801e+06   5.617677e+06
  -6.022904e+06   1.071451e+06
  -4.650017e+06  -6.115681e+06
   1.532815e+06  -7.694767e+06
   6.736836e+06  -2.278331e+06
   6.639515e+06   4.023431e+06
   1.996485e+06   5.668774e+06
  -3.205575e+06   2.753008e+06
  -5.135792e+06  -1.213034e+06
  -2.537744e+06  -3.192485e+06
   2.094683e+06  -2.137941e+06
   4.211732e+06   7.006917e+05
   1.912934e+06   2.426768e+06
  -1.539520e+06   1.296157e+06
  -1.735328e+06  -9.152832e+05
   1.034434e+06  -1.005617e+06
   2.329205e+06   1.281916e+06
  -2.232448e+05   2.947321e+06
  -3.925328e+06   1.859735e+06
  -4.840174e+06  -9.613827e+05
  -2.261089e+06  -3.520411e+06
   1.692544e+06  -4.940207e+06
   4.848673e+06  -4.584045e+06
   5.891558e+06  -1.588661e+06
   4.232419e+06   3.045442e+06
   8.669266e+05   5.858246e+06
  -1.605266e+06   4.609869e+06
  -1.539376e+06   1.401122e+06
  -2.872396e+05   2.919713e+04
  -3.104352e+05   1.036121e+06
  -1.833766e+06   1.593786e+06
  -2.826790e+06  -1.895547e+04
  -1.919028e+06  -2.122015e+06
   1.333692e+05  -2.234712e+06
   1.716049e+06  -1.766467e+05
   1.748968e+06   2.168183e+06
  -3.120691e+04   2.945401e+06
  -2.739406e+06   1.543484e+06
  -4.257838e+06  -1.241127e+06
  -2.975278e+06  -3.571200e+06
   5.858498e+04  -3.891402e+06
   2.059236e+06  -2.482922e+06
   1.990480e+06  -1.107153e+06
   1.699207e+06  -7.650801e+05
   2.870938e+06  -5.844001e+05
   4.298147e+06   6.468795e+05
   3.494204e+06   2.673683e+06
   1.874648e+05   4.107244e+06
  -3.184072e+06   3.917567e+06
  -4.195923e+06   2.086881e+06
  -2.633687e+06  -5.008210e+05
  -1.822765e+05  -2.265920e+06
   1.169337e+06  -1.892655e+06
   5.526715e+05   6.946848e+04
  -1.108479e+06   1.300730e+06
  -1.875153e+06   4.016517e+05
  -8.793134e+05  -1.178391e+06
   5.431897e+05  -1.123515e+06
   4.984182e+05   3.721748e+05
  -9.528653e+05   8.095842e+05
  -1.860335e+06  -1.028533e+06
  -8.836107e+05  -3.306858e+06
   1.272738e+06  -3.519785e+06
   3.018649e+06  -1.408360e+06
   3.444569e+06   1.245934e+06
   2.469345e+06   2.768098e+06
   5.306999e+05   2.690451e+06
  -1.261351e+06   1.490777e+06
  -1.602949e+06   2.200928e+05
  -4.955099e+05  -4.198145e+04
   3.692214e+05   7.493348e+05
  -3.786235e+05   1.323358e+06
  -1.860366e+06   5.943879e+05
  -2.025843e+06  -8.281099e+05
  -4.224676e+05  -1.383805e+06
   1.159320e+06  -5.987235e+05
   9.341672e+05   4.435198e+05
  -8.202315e+05   5.909496e+05
  -2.243855e+06  -2.252155e+05
  -1.858604e+06  -1.343402e+06
   1.829326e+05  -2.044713e+06
   2.313649e+06  -1.733846e+06
   2.795945e+06  -3.159714e+05
   1.229946e+06   1.239206e+06
  -8.943304e+05   1.482526e+06
  -1.524960e+06   1.953851e+05
  -1.893903e+05  -1.062445e+06
   1.509734e+06  -7.464499e+05
   1.738431e+06   7.506837e+05
   3.908906e+05   1.653718e+06
  -1.058293e+06   1.028977e+06
  -1.277892e+06  -2.572375e+05
  -2.873198e+05  -7.686464e+05
   7.790301e+05  -6.925049e+04
   7.412851e+05   1.047005e+06
  -5.760377e+05   1.431740e+06
  -2.018933e+06   5.513235e+05
  -2.050995e+06  -1.044916e+06
  -4.044049e+05  -2.078203e+06
   1.420500e+06  -1.665324e+06
   1.729345e+06  -2.410191e+05
   5.278912e+05   8.618807e+05
  -6.475807e+05   8.241691e+05
  -6.578362e+05   8.119436e+04
   9.773464e+04  -4.007401e+05
   5.216950e+05  -2.535901e+05
   1.845105e+05   7.349935e+04
  -4.195098e+05  -2.184549e+04
  -5.443093e+05  -6.289373e+05
   1.671508e+05  -1.188576e+06
   1.371797e+06  -9.221050e+05
   2.099063e+06   3.917782e+05
   1.490902e+06   1.940895e+06
  -1.964038e+05   2.448505e+06
  -1.618245e+06   1.465152e+06
  -1.730442e+06  -8.969371e+04
  -9.144536e+05  -9.198600e+05
  -3.402872e+05  -7.165888e+05
  -4.506091e+05  -2.564298e+05
  -5.944263e+05  -2.959813e+05
  -9.235041e+04  -7.429676e+05
   8.612276e+05  -9.223733e+05
   1.462997e+06  -3.620345e+05
   1.093325e+06   7.242983e+05
  -2.185819e+05   1.505303e+06
  -1.727969e+06   1.120527e+06
  -2.282962e+06  -4.591489e+05
  -1.181065e+06  -2.098701e+06
   9.655989e+05  -2.390159e+06
   2.529191e+06  -1.083820e+06
   2.389383e+06   6.097585e+05
   1.020987e+06   1.337605e+06
  -1.733456e+05   9.930196e+05
  -4.140018e+05   5.542708e+05
  -1.220114e+05   7.565894e+05
  -1.174575e+05   1.287701e+06
  -6.556631e+05   1.281172e+06
  -1.285091e+06   3.251672e+05
  -1.350933e+06  -1.079665e+06
  -5.748793e+05  -1.906482e+06
   6.179208e+05  -1.454659e+06
   1.298946e+06  -1.605050e+04
   8.388536e+05   1.271283e+06
  -3.571141e+05   1.407571e+06
  -1.139838e+06   4.467945e+05
  -8.193577e+05  -6.521720e+05
   8.499345e+04  -1.060137e+06
   4.957095e+05  -7.973897e+05
   6.625368e+04  -4.348471e+05
  -4.332446e+05  -3.426370e+05
  -5.964559e+04  -3.892636e+05
   1.142623e+06  -2.270361e+05
   2.064187e+06   3.081490e+05
   1.639157e+06   1.016889e+06
  -2.514963e+03   1.428865e+06
  -1.564656e+06   1.156409e+06
  -1.833523e+06   3.133157e+05
  -8.525126e+05  -4.601175e+05
   2.461697e+05  -5.617425e+05
   5.070923e+05  -5.080989e+04
   2.557163e+04   4.067626e+05
  -4.534264e+05   2.599719e+05
  -4.855303e+05  -3.406469e+05
  -2.420915e+05  -7.329394e+05
  -8.221399e+04  -4.841255e+05
  -1.395181e+05   1.111939e+05
  -2.941506e+05   3.156295e+05
  -2.838618e+05  -2.291260e+05
   1.424604e+05  -1.003303e+06
   8.951016e+05  -1.080324e+06
   1.348676e+06  -1.769117e+05
   8.457465e+05   9.148289e+05
  -4.073866e+05   1.135159e+06
  -1.252489e+06   3.345683e+05
  -7.433623e+05  -5.765442e+05
   6.969066e+05  -6.647811e+05
   1.611414e+06   7.066245e+04
   1.047627e+06   8.558102e+05
  -4.606882e+05   1.017433e+06
  -1.512169e+06   5.230584e+05
  -1.262199e+06  -1.672711e+05
  -1.496434e+05  -5.216887e+05
   6.509290e+05  -2.863420e+05
   3.855645e+05   2.879802e+05
  -5.929101e+05   5.265451e+05
  -1.195054e+06  -7.981959e+04
  -6.785970e+05  -1.191894e+06
   5.916997e+05  -1.722859e+06
   1.497176e+06  -9.036306e+05
   1.278485e+06   7.565569e+05
   2.237619e+05   1.813263e+06
  -7.346583e+05   1.324810e+06
  -9.402883e+05  -1.604694e+05
  -4.574406e+05  -1.200040e+06
   2.016781e+05  -9.882527e+05
   5.648787e+05  -9.519749e+04
   4.827336e+05   3.782310e+05
   1.744402e+05   1.393286e+05
   4.529951e+04  -9.913234e+04
   2.761470e+05   2.913461e+05
   5.229912e+05   9.703406e+05
   2.136394e+05   1.090545e+06
  -7.095190e+05   4.088007e+05
  -1.499645e+06  -4.538069e+05
  -1.312528e+06  -8.317927e+05
  -1.961363e+05  -7.034559e+05
   8.642741e+05  -4.345295e+05
   9.959839e+05  -1.984016e+05
   3.613406e+05   4.672075e+04
  -1.464895e+05   2.299121e+05
  -2.801970e+04   2.102525e+05
   2.750197e+05   9.454378e+04
   5.112923e+04   1.347128e+05
  -6.721550e+05   2.466606e+05
  -1.059746e+06   1.161035e+03
  -4.415379e+05  -6.953454e+05
   8.401045e+05  -1.202626e+06
   1.708846e+06  -7.865873e+05
   1.431542e+06   4.195688e+05
   2.975095e+05   1.420968e+06
  -7.568447e+05   1.402972e+06
  -1.055697e+06   5.585271e+05
  -6.679266e+05  -2.269323e+05
  -1.398370e+05  -3.613212e+05
   7.241532e+04  -6.776965e+04
  -8.093664e+04   1.917231e+04
  -3.101881e+05  -3.673997e+05
  -2.626030e+05  -8.148865e+05
   1.717713e+05  -6.906281e+05
   6.924674e+05   1.121539e+05
   7.638575e+05   9.525789e+05
   1.338656e+05   1.043664e+06
  -7.589944e+05   2.642523e+05
  -1.060898e+06  -7.123174e+05
  -3.714517e+05  -1.098302e+06
   7.114052e+05  -6.989362e+05
   1.134926e+06   5.712993e+04
   5.486726e+05   6.126662e+05
  -2.801796e+05   6.926369e+05
  -3.793407e+05   3.786275e+05
   2.496613e+05   4.074808e+03
   6.570092e+05  -5.095960e+04
   1.540179e+05   3.100580e+05
  -8.250503e+05   7.008704e+05
  -1.267776e+06   5.659458e+05
  -7.762836e+05  -1.691059e+05
   8.323040e+04  -8.829418e+05
   5.469855e+05  -8.766892e+05
   4.308484e+05  -1.720897e+05
   6.402203e+04   4.838236e+05
  -2.346513e+05   4.465415e+05
  -3.595710e+05  -1.406791e+05
  -2.678747e+05  -5.803920e+05
   4.568512e+04  -4.360537e+05
   3.971892e+05   3.723672e+04
   4.872585e+05   2.778508e+05
   2.470598e+05   9.502496e+04
  -3.835979e+04  -1.537070e+05
  -8.387037e+04  -4.663596e+04
   2.246789e+04   3.567725e+05
  -3.566509e+04   5.621583e+05
  -3.181667e+05   2.327082e+05
  -4.756323e+05  -3.728745e+05
  -1.762417e+05  -6.536262e+05
   4.063623e+05  -3.280812e+05
   6.808489e+05   2.688112e+05
   2.698559e+05   5.751414e+05
  -5.084607e+05   3.801801e+05
  -8.979839e+05  -5.860563e+04
  -4.935764e+05  -3.736857e+05
   2.904333e+05  -4.138647e+05
   6.446232e+05  -2.465148e+05
   2.565189e+05  -2.360550e+04
  -3.454784e+05   7.956538e+04
  -4.129670e+05  -5.202697e+04
   1.607645e+05  -2.959671e+05
   7.417876e+05  -2.902240e+05
