
 $NMID
 id='ANONYMOUS ', fmtdat='(2E16.6)'
 volume=1.0
 tramp=1.0
 $END
  -4.426453e+07  -5.581652e+05
  -2.682252e+07  -2.633875e+07
   5.036602e+06  -2.942157e+07
   2.121391e+07  -1.270171e+07
   1.345886e+07   4.089314e+06
  -1.924882e+06   7.397524e+06
  -7.924848e+06   9.761894e+03
  -3.058875e+06  -7.532331e+06
   4.314115e+06  -8.285033e+06
   7.714897e+06  -2.313943e+06
   5.815333e+06   5.108087e+06
   6.510376e+05   7.313853e+06
  -3.417375e+06   2.090831e+06
  -2.356904e+06  -5.019639e+06
   2.895902e+06  -5.950463e+06
   6.424816e+06   7.045267e+05
   3.843689e+06   8.193640e+06
  -2.856444e+06   9.613759e+06
  -8.111335e+06   4.691209e+06
  -8.525380e+06  -1.917683e+06
  -4.816002e+06  -6.045466e+06
  -1.855286e+05  -6.421048e+06
   1.934274e+06  -4.258213e+06
   4.715548e+05  -2.298698e+06
  -1.584073e+06  -2.655371e+06
   7.288462e+04  -4.219738e+06
   5.294135e+06  -3.644604e+06
   8.578519e+06   8.428145e+04
   5.761824e+06   3.819107e+06
  -4.089502e+05   4.215490e+06
  -3.749586e+06   1.740806e+06
  -2.110329e+06  -7.052297e+05
   1.292265e+06  -1.385374e+06
   2.884489e+06  -2.963480e+05
   2.090857e+06   1.977826e+06
   9.091396e+04   3.866547e+06
  -1.814003e+06   2.998380e+06
  -2.270929e+06  -6.078506e+05
  -8.152052e+05  -2.979543e+06
   7.176982e+05  -9.264982e+05
  -4.227903e+04   2.690489e+06
  -2.234973e+06   2.203129e+06
  -2.151520e+06  -2.470343e+06
   1.512721e+06  -4.889326e+06
   5.007737e+06  -9.098382e+05
   3.902089e+06   5.296845e+06
  -1.341857e+06   6.628679e+06
  -5.934465e+06   1.901628e+06
  -6.014594e+06  -3.644219e+06
  -1.922254e+06  -5.164602e+06
   2.896078e+06  -2.606216e+06
   4.787988e+06   9.972889e+05
   2.459703e+06   2.852803e+06
  -1.778429e+06   1.945332e+06
  -3.749457e+06  -5.786056e+05
  -1.743912e+06  -2.116605e+06
   1.354521e+06  -1.142369e+06
   1.639618e+06   8.151505e+05
  -7.594078e+05   1.003242e+06
  -2.056799e+06  -8.794573e+05
  -3.559890e+04  -2.379585e+06
   3.207885e+06  -1.632499e+06
   4.212936e+06   7.054047e+05
   2.030056e+06   3.037714e+06
  -1.644415e+06   4.429855e+06
  -4.624115e+06   4.080766e+06
  -5.440627e+06   1.260479e+06
  -3.701040e+06  -2.931254e+06
  -6.362605e+05  -5.378649e+06
   1.417509e+06  -4.243059e+06
   1.299875e+06  -1.456427e+06
   3.634317e+05  -2.718668e+05
   6.051747e+05  -1.057966e+06
   1.999326e+06  -1.339161e+06
   2.736755e+06   2.948919e+05
   1.715050e+06   2.241493e+06
  -3.027204e+05   2.223527e+06
  -1.787378e+06   1.205533e+05
  -1.698430e+06  -2.183866e+06
   1.158682e+05  -2.830354e+06
   2.637684e+06  -1.328118e+06
   3.876138e+06   1.328739e+06
   2.559465e+06   3.334609e+06
  -1.713317e+05   3.441288e+06
  -1.849755e+06   2.124137e+06
  -1.721573e+06   9.807777e+05
  -1.519865e+06   7.626772e+05
  -2.688516e+06   5.920589e+05
  -4.046997e+06  -6.019333e+05
  -3.292573e+06  -2.538913e+06
  -1.527471e+05  -3.906600e+06
   3.093031e+06  -3.697377e+06
   4.068387e+06  -1.886907e+06
   2.490908e+06   5.996498e+05
   5.075202e+04   2.200410e+06
  -1.215705e+06   1.752598e+06
  -5.185678e+05  -1.072306e+05
   1.100330e+06  -1.213649e+06
   1.767174e+06  -3.488616e+05
   7.769008e+05   1.119121e+06
  -5.609387e+05   1.071502e+06
  -5.302848e+05  -3.428878e+05
   8.126956e+05  -8.479560e+05
   1.740609e+06   7.807380e+05
   9.859878e+05   2.992293e+06
  -9.808090e+05   3.412373e+06
  -2.774322e+06   1.550543e+06
  -3.375331e+06  -1.059300e+06
  -2.486148e+06  -2.678193e+06
  -5.352621e+05  -2.644127e+06
   1.246639e+06  -1.424406e+06
   1.555388e+06  -1.748496e+05
   4.733210e+05   4.509726e+04
  -3.480623e+05  -7.160883e+05
   3.518704e+05  -1.232340e+06
   1.733782e+06  -5.433172e+05
   1.899707e+06   7.667955e+05
   4.109613e+05   1.288239e+06
  -1.097915e+06   5.745486e+05
  -9.237996e+05  -4.224290e+05
   7.557481e+05  -6.151023e+05
   2.184990e+06   1.541940e+05
   1.856990e+06   1.287988e+06
  -1.383126e+05   2.009919e+06
  -2.229929e+06   1.687825e+06
  -2.682881e+06   2.946284e+05
  -1.157372e+06  -1.172471e+06
   8.534741e+05  -1.370725e+06
   1.416591e+06  -1.605949e+05
   1.469689e+05   9.952103e+05
  -1.439648e+06   6.904483e+05
  -1.655472e+06  -7.104286e+05
  -3.975786e+05  -1.574086e+06
   9.832303e+05  -1.010205e+06
   1.225603e+06   2.070646e+05
   3.023100e+05   7.170788e+05
  -7.202227e+05   6.519259e+04
  -6.877346e+05  -9.999953e+05
   5.735180e+05  -1.355235e+06
   1.937398e+06  -4.943520e+05
   1.941944e+06   1.023863e+06
   3.667689e+05   1.981254e+06
  -1.355712e+06   1.575931e+06
  -1.645712e+06   2.305569e+05
  -5.125645e+05  -8.173555e+05
   6.152539e+05  -7.916258e+05
   6.516802e+05  -7.218903e+04
  -7.380353e+04   4.202265e+05
  -5.287643e+05   2.825935e+05
  -2.419368e+05  -7.660946e+04
   3.618127e+05  -2.906790e+04
   5.304430e+05   5.576137e+05
  -1.371868e+05   1.123186e+06
  -1.305016e+06   8.778088e+05
  -2.001324e+06  -3.853807e+05
  -1.405596e+06  -1.864798e+06
   2.086374e+05  -2.348234e+06
   1.562567e+06  -1.418307e+06
   1.682874e+06   7.393013e+04
   9.157428e+05   9.115588e+05
   3.404244e+05   7.563701e+05
   3.965962e+05   2.953211e+05
   5.209938e+05   2.759526e+05
   7.319203e+04   6.832616e+05
  -8.163326e+05   8.818088e+05
  -1.408828e+06   3.589230e+05
  -1.073261e+06  -7.068397e+05
   1.967109e+05  -1.473195e+06
   1.664007e+06  -1.085000e+06
   2.194965e+06   4.491225e+05
   1.133851e+06   2.008325e+06
  -9.099184e+05   2.273048e+06
  -2.400851e+06   1.038143e+06
  -2.294876e+06  -5.646701e+05
  -1.017043e+06  -1.281843e+06
   1.422582e+05  -9.899199e+05
   4.279615e+05  -5.700877e+05
   1.800640e+05  -7.230105e+05
   1.545365e+05  -1.198782e+06
   6.312369e+05  -1.192979e+06
   1.215337e+06  -2.895701e+05
   1.274979e+06   1.049633e+06
   5.286314e+05   1.832392e+06
  -6.095921e+05   1.387191e+06
  -1.246363e+06   1.158615e+04
  -8.002265e+05  -1.206240e+06
   3.269496e+05  -1.338641e+06
   1.060101e+06  -4.472776e+05
   7.700741e+05   5.816929e+05
  -5.856165e+04   9.827371e+05
  -4.371414e+05   7.608659e+05
  -4.783697e+04   4.316823e+05
   4.041905e+05   3.422731e+05
   4.852285e+04   3.775844e+05
  -1.079704e+06   2.114993e+05
  -1.950401e+06  -3.060454e+05
  -1.557889e+06  -9.725825e+05
  -9.993423e+03  -1.344424e+06
   1.476634e+06  -1.080705e+06
   1.744190e+06  -3.023548e+05
   8.186156e+05   4.108545e+05
  -2.277399e+05   5.171889e+05
  -4.747176e+05   5.802879e+04
  -7.653761e+03  -3.688392e+05
   4.488003e+05  -2.390152e+05
   4.571607e+05   3.319141e+05
   1.983733e+05   7.140725e+05
   4.888673e+04   4.683073e+05
   1.360440e+05  -1.239754e+05
   3.032613e+05  -3.242903e+05
   2.744936e+05   2.184854e+05
  -1.584652e+05   9.695454e+05
  -8.663477e+05   1.020405e+06
  -1.262733e+06   1.355823e+05
  -7.691424e+05  -8.879117e+05
   4.034335e+05  -1.057471e+06
   1.186456e+06  -2.801944e+05
   7.025649e+05   5.685904e+05
  -6.662153e+05   6.348942e+05
  -1.553541e+06  -6.644326e+04
  -1.031259e+06  -8.191745e+05
   4.220685e+05  -9.908248e+05
   1.457772e+06  -5.263611e+05
   1.231007e+06   1.495640e+05
   1.533341e+05   5.066318e+05
  -6.220502e+05   2.812318e+05
  -3.571266e+05  -2.717629e+05
   5.874141e+05  -4.863248e+05
   1.143442e+06   1.095871e+05
   6.137031e+05   1.162163e+06
  -6.160400e+05   1.636943e+06
  -1.460997e+06   8.324244e+05
  -1.217371e+06  -7.503698e+05
  -1.915496e+05  -1.749135e+06
   7.186941e+05  -1.278457e+06
   9.047644e+05   1.462781e+05
   4.446441e+05   1.153091e+06
  -1.797686e+05   9.581645e+05
  -5.356495e+05   9.490265e+04
  -4.768451e+05  -3.708756e+05
  -1.852954e+05  -1.402124e+05
  -3.687224e+04   1.000274e+05
  -2.341023e+05  -2.718081e+05
  -4.813185e+05  -9.325363e+05
  -2.167467e+05  -1.052074e+06
   6.592762e+05  -3.872879e+05
   1.439283e+06   4.523252e+05
   1.273233e+06   8.112488e+05
   1.830941e+05   6.728769e+05
  -8.537977e+05   4.070028e+05
  -9.652186e+05   1.873826e+05
  -3.296855e+05  -3.875085e+04
   1.508318e+05  -2.176557e+05
   6.163448e+03  -2.110613e+05
  -2.876740e+05  -1.050818e+05
  -3.825457e+04  -1.321093e+05
   6.745007e+05  -2.211665e+05
   1.014638e+06   2.002918e+04
   3.794273e+05   6.717520e+05
  -8.458108e+05   1.130376e+06
  -1.635555e+06   7.132870e+05
  -1.339636e+06  -4.376487e+05
  -2.571489e+05  -1.372435e+06
   7.395185e+05  -1.327559e+06
   1.021328e+06  -5.053291e+05
   6.422157e+05   2.398715e+05
   1.189628e+05   3.489821e+05
  -9.189228e+04   5.163955e+04
   6.908148e+04  -3.269162e+04
   3.030619e+05   3.487758e+05
   2.502706e+05   7.846157e+05
  -1.796164e+05   6.555623e+05
  -6.686173e+05  -1.328561e+05
  -7.065829e+05  -9.414261e+05
  -8.765792e+04  -1.002692e+06
   7.475935e+05  -2.215073e+05
   1.001605e+06   7.200746e+05
   3.252576e+05   1.059102e+06
  -6.977842e+05   6.436248e+05
  -1.077323e+06  -7.892924e+04
  -5.033190e+05  -5.814567e+05
   2.790141e+05  -6.397644e+05
   3.513982e+05  -3.513972e+05
  -2.603528e+05  -1.390662e+04
  -6.366993e+05   3.628990e+04
  -1.358204e+05  -2.963309e+05
   8.015994e+05  -6.631456e+05
   1.205953e+06  -5.384005e+05
   7.206927e+05   1.591812e+05
  -9.536957e+04   8.378464e+05
  -5.205484e+05   8.232208e+05
  -3.967120e+05   1.423354e+05
  -4.398933e+04  -4.743828e+05
   2.365757e+05  -4.140741e+05
   3.453992e+05   1.584997e+05
   2.453205e+05   5.618071e+05
  -5.672348e+04   4.012909e+05
  -3.803032e+05  -4.991247e+04
  -4.557870e+05  -2.616963e+05
  -2.344782e+05  -8.347568e+04
   2.405899e+04   1.343805e+05
   7.711551e+04   1.625413e+04
   8.535785e+03  -3.564413e+05
   8.073620e+04  -5.213811e+05
   3.231028e+05  -1.856155e+05
   4.277132e+05   3.889994e+05
   1.263392e+05   6.352919e+05
  -4.051168e+05   2.999195e+05
  -6.375132e+05  -2.819133e+05
  -2.408535e+05  -5.642327e+05
   4.884397e+05  -3.534874e+05
   8.501642e+05   7.968478e+04
   4.620616e+05   3.672229e+05
  -2.863060e+05   3.784787e+05
  -6.186612e+05   2.087206e+05
  -2.321290e+05   1.442055e+04
   3.542756e+05  -5.742151e+04
   4.049905e+05   7.669739e+04
  -1.747082e+05   2.950867e+05
  -7.437898e+05   2.678844e+05
