
 $NMID
 id='ANONYMOUS ', fmtdat='(2E16.6)'
 volume=1.0
 tramp=1.0
 $END
   4.815916e+07   1.750430e+06
   2.871179e+07   2.972920e+07
  -6.356764e+06   3.222735e+07
  -2.383406e+07   1.314288e+07
  -1.477433e+07  -5.203071e+06
   2.438859e+06  -8.142694e+06
   8.805677e+06   4.312536e+05
   2.994058e+06   8.508241e+06
  -5.235612e+06   8.856011e+06
  -8.609654e+06   2.144468e+06
  -6.094533e+06  -5.754440e+06
  -3.930007e+05  -7.894642e+06
   3.716408e+06  -2.141900e+06
   2.220408e+06   5.459835e+06
  -3.505455e+06   6.272555e+06
  -7.018084e+06  -1.062545e+06
  -3.863262e+06  -9.089722e+06
   3.479156e+06  -1.037307e+07
   8.962222e+06  -4.849925e+06
   9.181204e+06   2.279092e+06
   5.125955e+06   6.619019e+06
   1.704309e+05   7.005579e+06
  -2.188145e+06   4.760512e+06
  -7.984309e+05   2.671493e+06
   1.319072e+06   2.915633e+06
  -3.450341e+05   4.369649e+06
  -5.721961e+06   3.571152e+06
  -9.071002e+06  -4.494333e+05
  -6.015865e+06  -4.263600e+06
   4.975600e+05  -4.411810e+06
   3.921814e+06  -1.672344e+06
   2.099204e+06   7.283202e+05
  -1.432413e+06   1.183600e+06
  -2.934306e+06   3.111546e+04
  -1.982938e+06  -2.134673e+06
   8.346362e+04  -3.983558e+06
   1.981373e+06  -3.145778e+06
   2.401286e+06   5.698781e+05
   8.798506e+05   3.137997e+06
  -6.658410e+05   1.075943e+06
   2.223351e+05  -2.728408e+06
   2.526603e+06  -2.206309e+06
   2.245272e+06   2.808407e+06
  -1.873641e+06   5.359502e+06
  -5.594233e+06   9.256875e+05
  -4.159318e+06  -5.888604e+06
   1.665512e+06  -7.239141e+06
   6.509536e+06  -1.886235e+06
   6.326443e+06   4.232861e+06
   1.777551e+06   5.708981e+06
  -3.300115e+06   2.641255e+06
  -5.117657e+06  -1.394441e+06
  -2.481559e+06  -3.274508e+06
   2.058315e+06  -2.057156e+06
   4.068062e+06   8.009456e+05
   1.810759e+06   2.402924e+06
  -1.520059e+06   1.194574e+06
  -1.714627e+06  -9.887075e+05
   9.640334e+05  -1.078960e+06
   2.301587e+06   1.129185e+06
  -5.439807e+04   2.761351e+06
  -3.650975e+06   1.754249e+06
  -4.642867e+06  -9.619513e+05
  -2.110339e+06  -3.430103e+06
   1.937734e+06  -4.688072e+06
   5.091898e+06  -4.131669e+06
   5.844278e+06  -1.125327e+06
   3.845353e+06   3.240082e+06
   4.553888e+05   5.768020e+06
  -1.774057e+06   4.510763e+06
  -1.577428e+06   1.483092e+06
  -4.609415e+05   1.544672e+05
  -6.371931e+05   9.544608e+05
  -2.070209e+06   1.263017e+06
  -2.780914e+06  -4.188085e+05
  -1.637170e+06  -2.385020e+06
   4.426975e+05  -2.251917e+06
   1.840567e+06   2.709868e+04
   1.609862e+06   2.406613e+06
  -2.898601e+05   2.964988e+06
  -2.835135e+06   1.276438e+06
  -4.046206e+06  -1.558895e+06
  -2.618983e+06  -3.645440e+06
   2.789904e+05  -3.700437e+06
   2.063599e+06  -2.258463e+06
   1.930963e+06  -1.015646e+06
   1.713578e+06  -7.337954e+05
   2.928499e+06  -4.552648e+05
   4.287988e+06   8.982743e+05
   3.350478e+06   2.910944e+06
  -8.626363e+04   4.160253e+06
  -3.505290e+06   3.719811e+06
  -4.395493e+06   1.747311e+06
  -2.573795e+06  -7.552536e+05
   6.515766e+04  -2.287473e+06
   1.357017e+06  -1.766073e+06
   5.320885e+05   1.309127e+05
  -1.226975e+06   1.210665e+06
  -1.896755e+06   2.722191e+05
  -7.738656e+05  -1.221232e+06
   6.520827e+05  -1.086648e+06
   5.252974e+05   4.225991e+05
  -9.794146e+05   8.540576e+05
  -1.878810e+06  -1.003271e+06
  -8.564259e+05  -3.352665e+06
   1.368139e+06  -3.626067e+06
   3.161505e+06  -1.430724e+06
   3.534890e+06   1.426379e+06
   2.409335e+06   3.047207e+06
   3.561179e+05   2.832341e+06
  -1.407603e+06   1.416440e+06
  -1.645158e+06   8.534481e+04
  -4.986619e+05  -7.777032e+04
   3.228363e+05   7.827044e+05
  -4.494490e+05   1.299658e+06
  -1.885095e+06   4.835970e+05
  -1.987160e+06  -9.382750e+05
  -3.590695e+05  -1.409447e+06
   1.208908e+06  -5.379762e+05
   9.419077e+05   5.226060e+05
  -8.727606e+05   5.945258e+05
  -2.319763e+06  -3.471451e+05
  -1.858010e+06  -1.521494e+06
   3.146469e+05  -2.120877e+06
   2.488669e+06  -1.626588e+06
   2.865419e+06  -1.311842e+05
   1.161433e+06   1.321428e+06
  -9.835720e+05   1.414974e+06
  -1.520602e+06   9.838548e+04
  -1.073233e+05  -1.061956e+06
   1.569512e+06  -6.450724e+05
   1.715608e+06   8.668708e+05
   3.106234e+05   1.709646e+06
  -1.131155e+06   1.007644e+06
  -1.299627e+06  -3.169685e+05
  -2.691305e+05  -7.968178e+05
   7.773278e+05  -2.793430e+04
   6.694486e+05   1.103189e+06
  -6.901407e+05   1.397966e+06
  -2.079439e+06   4.020283e+05
  -1.992416e+06  -1.205196e+06
  -2.643191e+05  -2.125569e+06
   1.542409e+06  -1.589553e+06
   1.766931e+06  -1.370008e+05
   4.891904e+05   9.072139e+05
  -7.093193e+05   7.990890e+05
  -6.869429e+05   2.678125e+04
   1.270832e+05  -4.350114e+05
   5.849750e+05  -2.396916e+05
   2.270478e+05   1.187423e+05
  -4.178768e+05   2.784154e+03
  -5.380762e+05  -6.476217e+05
   2.254123e+05  -1.197462e+06
   1.448161e+06  -8.482323e+05
   2.099617e+06   5.400207e+05
   1.371340e+06   2.067798e+06
  -3.759824e+05   2.472433e+06
  -1.757339e+06   1.390816e+06
  -1.778271e+06  -2.057854e+05
  -8.873497e+05  -1.033813e+06
  -2.820062e+05  -8.079597e+05
  -3.965499e+05  -3.123726e+05
  -5.538028e+05  -3.154590e+05
  -4.585758e+04  -7.361332e+05
   9.304616e+05  -8.851630e+05
   1.523896e+06  -2.782601e+05
   1.079313e+06   8.295083e+05
  -3.249349e+05   1.546037e+06
  -1.843707e+06   1.031956e+06
  -2.295470e+06  -6.271942e+05
  -1.066690e+06  -2.212652e+06
   1.121861e+06  -2.362833e+06
   2.628700e+06  -9.458492e+05
   2.403489e+06   7.652278e+05
   9.792763e+05   1.443900e+06
  -2.398722e+05   1.036602e+06
  -4.961150e+05   5.525180e+05
  -2.186100e+05   7.351233e+05
  -2.200007e+05   1.260585e+06
  -7.393719e+05   1.234734e+06
  -1.308739e+06   2.372392e+05
  -1.283886e+06  -1.190486e+06
  -4.416454e+05  -1.973037e+06
   7.342089e+05  -1.427917e+06
   1.322541e+06   7.243882e+04
   7.723636e+05   1.338891e+06
  -4.408045e+05   1.407921e+06
  -1.173950e+06   4.065250e+05
  -7.976279e+05  -6.804871e+05
   1.264044e+05  -1.058789e+06
   5.284249e+05  -7.917781e+05
   9.061588e+04  -4.551883e+05
  -4.052931e+05  -3.829751e+05
  -2.719714e+04  -4.002628e+05
   1.164853e+06  -1.578805e+05
   2.056941e+06   4.460890e+05
   1.593066e+06   1.136334e+06
  -7.784107e+04   1.441164e+06
  -1.641250e+06   1.063451e+06
  -1.878201e+06   2.051680e+05
  -8.505353e+05  -5.032925e+05
   2.731941e+05  -5.437602e+05
   5.152606e+05  -2.962167e+04
  -4.215208e+03   3.942507e+05
  -4.848091e+05   2.223218e+05
  -4.641018e+05  -3.791859e+05
  -1.697779e+05  -7.570864e+05
  -2.882004e+04  -4.894170e+05
  -1.580953e+05   1.157286e+05
  -3.444639e+05   3.089461e+05
  -2.762300e+05  -2.526510e+05
   2.301592e+05  -1.009434e+06
   9.828174e+05  -1.026714e+06
   1.349918e+06  -7.856932e+04
   7.666583e+05   9.786093e+05
  -4.866662e+05   1.101818e+06
  -1.271063e+06   2.348519e+05
  -7.055255e+05  -6.432980e+05
   7.509515e+05  -6.301549e+05
   1.642919e+06   1.803502e+05
   1.030312e+06   9.501239e+05
  -5.280742e+05   1.024638e+06
  -1.589833e+06   4.477789e+05
  -1.293456e+06  -2.540165e+05
  -1.225098e+05  -5.495731e+05
   6.827396e+05  -2.541840e+05
   3.661628e+05   3.105427e+05
  -6.447054e+05   4.761591e+05
  -1.196695e+06  -1.828477e+05
  -5.782752e+05  -1.257548e+06
   7.448497e+05  -1.685318e+06
   1.588734e+06  -7.872196e+05
   1.236148e+06   8.689700e+05
   8.793433e+04   1.859570e+06
  -8.487728e+05   1.300889e+06
  -9.522016e+05  -2.212063e+05
  -3.900105e+05  -1.256280e+06
   2.650769e+05  -1.005878e+06
   5.786757e+05  -6.449935e+04
   4.732835e+05   4.284271e+05
   1.785993e+05   1.652180e+05
   4.985058e+04  -1.040914e+05
   2.429755e+05   2.973681e+05
   4.533123e+05   1.015999e+06
   1.516799e+05   1.133669e+06
  -7.324525e+05   3.744351e+05
  -1.491288e+06  -5.736423e+05
  -1.286845e+06  -9.490171e+05
  -1.504798e+05  -7.261831e+05
   9.228342e+05  -3.688156e+05
   1.033450e+06  -1.303379e+05
   3.552958e+05   6.044970e+04
  -1.705182e+05   2.183665e+05
  -3.122493e+04   2.272303e+05
   2.852177e+05   1.342905e+05
   3.418852e+04   1.384745e+05
  -7.161539e+05   1.840228e+05
  -1.069726e+06  -8.324954e+04
  -3.703690e+05  -7.234012e+05
   9.544449e+05  -1.137054e+06
   1.773582e+06  -6.602945e+05
   1.392575e+06   5.337813e+05
   1.853319e+05   1.462581e+06
  -8.661080e+05   1.360676e+06
  -1.106460e+06   4.739175e+05
  -6.576234e+05  -2.918391e+05
  -1.066576e+05  -3.730217e+05
   8.903694e+04  -4.580824e+04
  -8.325388e+04   2.777007e+04
  -2.970068e+05  -3.943140e+05
  -2.112019e+05  -8.487584e+05
   2.284850e+05  -6.811497e+05
   6.909465e+05   1.798297e+05
   6.854141e+05   1.030087e+06
   3.770984e+04   1.056820e+06
  -7.918032e+05   1.884979e+05
  -1.007557e+06  -8.154846e+05
  -2.814570e+05  -1.134939e+06
   7.711905e+05  -6.397191e+05
   1.134613e+06   1.459564e+05
   5.043569e+05   6.468257e+05
  -3.288489e+05   6.653100e+05
  -3.978580e+05   3.569586e+05
   2.650429e+05   3.590817e+04
   6.722789e+05   3.037743e+03
   1.283370e+05   3.205404e+05
  -8.902693e+05   6.488223e+05
  -1.319606e+06   4.935012e+05
  -7.635946e+05  -2.118852e+05
   1.505522e+05  -8.811669e+05
   6.050695e+05  -8.457932e+05
   4.294478e+05  -1.371280e+05
   1.679660e+04   4.975215e+05
  -2.710998e+05   4.246459e+05
  -3.480531e+05  -1.840344e+05
  -2.242121e+05  -6.078929e+05
   7.785325e+04  -4.239185e+05
   3.959877e+05   7.400641e+04
   4.715353e+05   3.071380e+05
   2.466080e+05   1.066170e+05
  -2.494133e+04  -1.447463e+05
  -9.116748e+04  -3.139011e+04
  -2.774874e+04   3.631569e+05
  -9.961425e+04   5.391519e+05
  -3.373957e+05   1.821380e+05
  -4.271386e+05  -4.223063e+05
  -1.025914e+05  -6.665073e+05
   4.406914e+05  -2.907526e+05
   6.551436e+05   3.298202e+05
   2.190761e+05   6.055179e+05
  -5.391177e+05   3.453754e+05
  -8.935120e+05  -1.313558e+05
  -4.664440e+05  -4.149765e+05
   3.213415e+05  -3.860790e+05
   6.621066e+05  -1.885994e+05
   2.496522e+05  -6.772021e+03
  -3.659639e+05   3.570430e+04
  -4.129149e+05  -1.028345e+05
   2.023003e+05  -2.907047e+05
   7.935317e+05  -2.264207e+05
