
 $NMID
 id='ANONYMOUS ', fmtdat='(2E16.6)'
 volume=1.0
 tramp=1.0
 $END
  -3.968650e+07   1.004332e+06
  -2.515495e+07  -2.228625e+07
   3.149271e+06  -2.644482e+07
   1.847508e+07  -1.256126e+07
   1.243806e+07   2.779027e+06
  -1.281740e+06   6.785859e+06
  -7.253610e+06   5.954694e+05
  -3.312110e+06  -6.665489e+06
   3.451225e+06  -7.936917e+06
   6.929006e+06  -2.583478e+06
   5.488999e+06   4.480060e+06
   8.041703e+05   6.724760e+06
  -3.100961e+06   1.955462e+06
  -2.367659e+06  -4.685791e+06
   2.394657e+06  -5.711487e+06
   5.876640e+06   2.954452e+05
   3.845202e+06   7.265909e+06
  -2.185029e+06   8.811957e+06
  -7.138057e+06   4.487261e+06
  -7.685778e+06  -1.510002e+06
  -4.395391e+06  -5.269381e+06
  -2.999319e+05  -5.608594e+06
   1.452542e+06  -3.739783e+06
   4.716083e+04  -2.161889e+06
  -1.699192e+06  -2.636138e+06
   2.661437e+04  -4.064028e+06
   4.944765e+06  -3.486850e+06
   7.992758e+06  -5.209218e+04
   5.361261e+06   3.419635e+06
  -4.227335e+05   3.868322e+06
  -3.568386e+06   1.586728e+06
  -1.953240e+06  -7.903302e+05
   1.389972e+06  -1.461307e+06
   2.907612e+06  -2.943788e+05
   2.003989e+06   1.978183e+06
   2.576858e+04   3.674720e+06
  -1.645933e+06   2.709546e+06
  -1.945590e+06  -6.297742e+05
  -6.652948e+05  -2.664731e+06
   6.174317e+05  -6.726384e+05
  -6.702783e+04   2.634388e+06
  -2.027783e+06   2.161691e+06
  -2.090576e+06  -2.141645e+06
   1.053631e+06  -4.489062e+06
   4.323692e+06  -1.063829e+06
   3.678134e+06   4.551978e+06
  -8.882451e+05   5.982775e+06
  -5.276006e+06   1.931814e+06
  -5.697956e+06  -3.103858e+06
  -2.045313e+06  -4.707737e+06
   2.577732e+06  -2.586051e+06
   4.545631e+06   6.850975e+05
   2.466910e+06   2.537381e+06
  -1.516407e+06   1.892983e+06
  -3.462938e+06  -3.497011e+05
  -1.704011e+06  -1.854645e+06
   1.188781e+06  -1.103948e+06
   1.586862e+06   6.932089e+05
  -5.793114e+05   1.037355e+06
  -1.942729e+06  -5.685801e+05
  -2.968865e+05  -2.070647e+06
   2.690443e+06  -1.651762e+06
   3.830781e+06   3.693893e+05
   1.997905e+06   2.628117e+06
  -1.387965e+06   4.098995e+06
  -4.205692e+06   3.870442e+06
  -4.990314e+06   1.268889e+06
  -3.430276e+06  -2.629177e+06
  -7.071963e+05  -4.951502e+06
   1.129630e+06  -4.002974e+06
   1.110581e+06  -1.495341e+06
   4.010544e+05  -3.759112e+05
   6.947698e+05  -1.028584e+06
   1.957792e+06  -1.230897e+06
   2.605637e+06   3.256072e+05
   1.629932e+06   2.174492e+06
  -3.138327e+05   2.161456e+06
  -1.777198e+06   1.388055e+05
  -1.700123e+06  -2.084286e+06
   6.008560e+04  -2.700003e+06
   2.460570e+06  -1.275980e+06
   3.613219e+06   1.184487e+06
   2.401478e+06   3.008224e+06
  -7.833175e+04   3.112718e+06
  -1.592643e+06   1.956767e+06
  -1.492066e+06   9.642922e+05
  -1.360494e+06   8.043718e+05
  -2.503707e+06   6.847328e+05
  -3.831540e+06  -4.081849e+05
  -3.192813e+06  -2.278516e+06
  -2.743974e+05  -3.693354e+06
   2.824418e+06  -3.593908e+06
   3.818225e+06  -1.873670e+06
   2.366094e+06   5.463419e+05
   5.770740e+04   2.099172e+06
  -1.146922e+06   1.669323e+06
  -4.947369e+05  -1.091736e+05
   1.023963e+06  -1.178981e+06
   1.659514e+06  -3.787890e+05
   7.476887e+05   1.032686e+06
  -5.260251e+05   1.039848e+06
  -5.566663e+05  -3.070770e+05
   6.963494e+05  -8.934990e+05
   1.688344e+06   5.601087e+05
   1.139287e+06   2.731781e+06
  -6.911630e+05   3.329981e+06
  -2.542767e+06   1.693275e+06
  -3.298587e+06  -8.269884e+05
  -2.517522e+06  -2.488565e+06
  -6.095895e+05  -2.534337e+06
   1.155202e+06  -1.390358e+06
   1.480994e+06  -1.963903e+05
   4.500331e+05   3.096333e+04
  -3.569643e+05  -6.689792e+05
   2.799275e+05  -1.172445e+06
   1.606295e+06  -5.736634e+05
   1.823734e+06   6.464655e+05
   4.477506e+05   1.201382e+06
  -1.022576e+06   5.970865e+05
  -9.197377e+05  -3.684860e+05
   6.784291e+05  -6.470530e+05
   2.108103e+06   3.204228e+04
   1.856373e+06   1.164164e+06
  -4.260104e+04   1.949525e+06
  -2.071565e+06   1.699939e+06
  -2.545709e+06   3.693260e+05
  -1.133579e+06  -1.069092e+06
   7.599729e+05  -1.311755e+06
   1.320704e+06  -1.919856e+05
   1.609350e+05   9.312106e+05
  -1.342098e+06   6.994771e+05
  -1.600296e+06  -6.126560e+05
  -4.483743e+05  -1.485925e+06
   8.904458e+05  -1.017174e+06
   1.185750e+06   1.331003e+05
   3.347855e+05   6.709383e+05
  -6.698332e+05   9.910422e+04
  -6.849814e+05  -9.172566e+05
   4.995547e+05  -1.299670e+06
   1.820095e+06  -5.255108e+05
   1.869962e+06   9.118755e+05
   4.103446e+05   1.865316e+06
  -1.231022e+06   1.538618e+06
  -1.555412e+06   2.756936e+05
  -5.227644e+05  -7.625630e+05
   5.579566e+05  -7.825548e+05
   6.351407e+05  -8.717315e+04
  -4.218295e+04   4.287926e+05
  -5.110059e+05   3.124373e+05
  -2.711599e+05  -7.064104e+04
   3.207735e+05  -7.292071e+04
   5.311642e+05   4.832645e+05
  -7.401698e+04   1.062765e+06
  -1.200004e+06   8.787708e+05
  -1.908763e+06  -2.968998e+05
  -1.390331e+06  -1.721444e+06
   1.272399e+05  -2.239467e+06
   1.446387e+06  -1.410974e+06
   1.618936e+06   8.988580e+03
   9.187510e+05   8.592206e+05
   3.459226e+05   7.496635e+05
   3.586536e+05   2.892729e+05
   4.766957e+05   2.301872e+05
   8.808004e+04   6.240130e+05
  -7.365867e+05   8.630637e+05
  -1.325710e+06   3.969126e+05
  -1.053726e+06  -6.401869e+05
   1.298798e+05  -1.422265e+06
   1.544809e+06  -1.095751e+06
   2.104261e+06   3.524408e+05
   1.154010e+06   1.866984e+06
  -7.704242e+05   2.188335e+06
  -2.233659e+06   1.078126e+06
  -2.210587e+06  -4.447904e+05
  -1.036408e+06  -1.190037e+06
   9.157922e+04  -9.730516e+05
   4.102547e+05  -5.753954e+05
   1.818274e+05  -6.836968e+05
   1.241005e+05  -1.119544e+06
   5.551757e+05  -1.137099e+06
   1.133543e+06  -3.087491e+05
   1.237448e+06   9.586945e+05
   5.555644e+05   1.724742e+06
  -5.394562e+05   1.336232e+06
  -1.187021e+06   5.440889e+04
  -8.056733e+05  -1.110951e+06
   2.519887e+05  -1.282161e+06
   9.765095e+05  -4.808872e+05
   7.515180e+05   4.967605e+05
  -8.412435e+02   9.206977e+05
  -3.645116e+05   7.445025e+05
  -2.353512e+04   4.247706e+05
   3.859821e+05   3.170549e+05
   5.291039e+04   3.569932e+05
  -1.007417e+06   2.381179e+05
  -1.845477e+06  -2.216950e+05
  -1.509682e+06  -8.646019e+05
  -7.165648e+04  -1.266076e+06
   1.346603e+06  -1.069646e+06
   1.642222e+06  -3.542153e+05
   8.008968e+05   3.435474e+05
  -1.892536e+05   4.882720e+05
  -4.436084e+05   7.969701e+04
  -1.227901e+04  -3.332394e+05
   4.259052e+05  -2.322592e+05
   4.393906e+05   3.022682e+05
   1.898412e+05   6.728039e+05
   4.346406e+04   4.411755e+05
   1.286830e+05  -1.320549e+05
   2.918147e+05  -3.295430e+05
   2.691034e+05   1.944162e+05
  -1.295900e+05   9.256822e+05
  -7.866491e+05   9.907575e+05
  -1.169314e+06   1.607599e+05
  -7.357566e+05  -8.147289e+05
   3.473068e+05  -9.986129e+05
   1.101575e+06  -2.861865e+05
   6.788408e+05   5.239684e+05
  -6.098540e+05   6.259406e+05
  -1.485433e+06  -9.457975e+03
  -1.026291e+06  -7.463972e+05
   3.570964e+05  -9.697253e+05
   1.377135e+06  -5.663835e+05
   1.191213e+06   9.497101e+04
   1.691024e+05   4.824064e+05
  -5.821460e+05   2.952714e+05
  -3.436940e+05  -2.403897e+05
   5.491182e+05  -4.695670e+05
   1.084636e+06   8.257261e+04
   5.993249e+05   1.088987e+06
  -5.556132e+05   1.561231e+06
  -1.370424e+06   8.176025e+05
  -1.174749e+06  -6.852893e+05
  -2.275715e+05  -1.659737e+06
   6.487941e+05  -1.244283e+06
   8.693366e+05   1.024035e+05
   4.681816e+05   1.083520e+06
  -1.290410e+05   9.277906e+05
  -5.026462e+05   1.139435e+05
  -4.747982e+05  -3.430111e+05
  -1.922691e+05  -1.342906e+05
  -2.874501e+04   1.011234e+05
  -2.148790e+05  -2.393149e+05
  -4.787163e+05  -8.679658e+05
  -2.504532e+05  -1.000584e+06
   5.994813e+05  -3.936224e+05
   1.383584e+06   3.903622e+05
   1.247249e+06   7.380342e+05
   1.953262e+05   6.312282e+05
  -8.119009e+05   4.063819e+05
  -9.175413e+05   2.090848e+05
  -3.053245e+05  -1.789322e+04
   1.423717e+05  -2.088830e+05
  -1.240795e+04  -2.109222e+05
  -2.899939e+05  -1.027016e+05
  -3.444948e+04  -1.234443e+05
   6.494428e+05  -2.192647e+05
   9.612441e+05  -4.801063e+03
   3.564166e+05   6.200879e+05
  -7.856708e+05   1.083872e+06
  -1.521012e+06   7.119676e+05
  -1.262234e+06  -3.845440e+05
  -2.739141e+05  -1.297317e+06
   6.607993e+05  -1.275530e+06
   9.527807e+05  -4.968570e+05
   6.165066e+05   2.188852e+05
   1.162886e+05   3.260358e+05
  -9.694845e+04   3.969997e+04
   6.177950e+04  -4.438084e+04
   3.054278e+05   3.195172e+05
   2.655392e+05   7.394841e+05
  -1.551650e+05   6.239046e+05
  -6.395705e+05  -1.188316e+05
  -6.849196e+05  -8.835258e+05
  -9.306731e+04  -9.448031e+05
   7.102439e+05  -2.133851e+05
   9.617559e+05   6.701698e+05
   3.264429e+05   9.938792e+05
  -6.455317e+05   6.172811e+05
  -1.016020e+06  -4.943297e+04
  -4.867283e+05  -5.263338e+05
   2.436121e+05  -6.011685e+05
   3.111549e+05  -3.426927e+05
  -2.594654e+05  -1.504601e+04
  -6.059929e+05   4.800299e+04
  -1.323001e+05  -2.739539e+05
   7.440687e+05  -6.521281e+05
   1.121409e+06  -5.549579e+05
   6.770126e+05   1.191340e+05
  -6.906726e+04   7.922109e+05
  -4.598834e+05   7.916698e+05
  -3.571636e+05   1.383003e+05
  -4.546721e+04  -4.530030e+05
   2.147810e+05  -3.909601e+05
   3.298752e+05   1.537799e+05
   2.451260e+05   5.268449e+05
  -4.449971e+04   3.704925e+05
  -3.606422e+05  -4.288196e+04
  -4.368717e+05  -2.274661e+05
  -2.260310e+05  -6.574475e+04
   2.231048e+04   1.161195e+05
   7.756764e+04  -6.229230e+03
   1.748939e+04  -3.427990e+05
   8.457569e+04  -4.784884e+05
   3.050145e+05  -1.604282e+05
   3.964526e+05   3.695065e+05
   1.138413e+05   5.969537e+05
  -3.816729e+05   2.873517e+05
  -6.019666e+05  -2.577320e+05
  -2.354625e+05  -5.326860e+05
   4.502986e+05  -3.466269e+05
   8.001904e+05   5.807162e+04
   4.440156e+05   3.363555e+05
  -2.603237e+05   3.572608e+05
  -5.763691e+05   2.029309e+05
  -2.099030e+05   1.921595e+04
   3.464467e+05  -5.087260e+04
   3.889238e+05   7.763757e+04
  -1.711925e+05   2.905479e+05
  -7.172736e+05   2.685513e+05
