
 $NMID
 id='ANONYMOUS ', fmtdat='(2E16.6)'
 volume=1.0
 tramp=1.0
 $END
   4.421081e+07  -1.838797e+06
   2.867900e+07   2.464808e+07
  -3.042477e+06   2.983184e+07
  -2.071294e+07   1.431874e+07
  -1.418664e+07  -3.132381e+06
   1.368000e+06  -7.703357e+06
   8.226704e+06  -6.317866e+05
   3.728584e+06   7.556966e+06
  -3.960725e+06   8.898935e+06
  -7.812028e+06   2.892871e+06
  -6.126538e+06  -4.917825e+06
  -9.295615e+05  -7.414393e+06
   3.349506e+06  -2.201431e+06
   2.521951e+06   5.134751e+06
  -2.750894e+06   6.322654e+06
  -6.615413e+06  -3.207578e+05
  -4.351555e+06  -8.114035e+06
   2.373153e+06  -9.895923e+06
   7.905340e+06  -5.126576e+06
   8.573442e+06   1.512272e+06
   5.035272e+06   5.715850e+06
   5.648901e+05   6.239593e+06
  -1.485227e+06   4.348755e+06
  -1.613717e+05   2.620755e+06
   1.655548e+06   2.969762e+06
  -1.346315e+05   4.373068e+06
  -5.380233e+06   3.725619e+06
  -8.696120e+06   4.392581e+04
  -5.889817e+06  -3.683724e+06
   3.686188e+05  -4.142217e+06
   3.771372e+06  -1.680951e+06
   2.007604e+06   7.914717e+05
  -1.565203e+06   1.400099e+06
  -3.096390e+06   1.624326e+05
  -2.071685e+06  -2.147653e+06
  -9.751083e+03  -3.926328e+06
   1.728176e+06  -2.996241e+06
   2.112480e+06   5.308549e+05
   8.335585e+05   2.829473e+06
  -5.416225e+05   8.073067e+05
   1.529014e+05  -2.789004e+06
   2.279841e+06  -2.345169e+06
   2.356277e+06   2.399110e+06
  -1.163900e+06   5.096361e+06
  -4.886878e+06   1.335815e+06
  -4.217339e+06  -5.017012e+06
   9.113658e+05  -6.736502e+06
   5.855584e+06  -2.216981e+06
   6.317035e+06   3.478515e+06
   2.218972e+06   5.276024e+06
  -2.907522e+06   2.840812e+06
  -5.049801e+06  -8.439643e+05
  -2.723019e+06  -2.880264e+06
   1.696922e+06  -2.128935e+06
   3.867037e+06   3.801913e+05
   1.919990e+06   2.067718e+06
  -1.308314e+06   1.234525e+06
  -1.747659e+06  -7.925903e+05
   7.100399e+05  -1.181526e+06
   2.258925e+06   6.776502e+05
   3.700889e+05   2.436595e+06
  -3.055717e+06   1.955121e+06
  -4.358299e+06  -3.966579e+05
  -2.274221e+06  -2.958022e+06
   1.518803e+06  -4.537206e+06
   4.621163e+06  -4.237619e+06
   5.475696e+06  -1.402269e+06
   3.781195e+06   2.850149e+06
   7.869696e+05   5.440333e+06
  -1.290139e+06   4.451268e+06
  -1.322659e+06   1.666274e+06
  -5.191551e+05   3.408687e+05
  -7.597557e+05   1.001022e+06
  -2.074288e+06   1.253374e+06
  -2.752278e+06  -3.797181e+05
  -1.689749e+06  -2.337971e+06
   3.829469e+05  -2.281800e+06
   1.898626e+06  -7.197225e+04
   1.771986e+06   2.306543e+06
  -1.109796e+05   2.926366e+06
  -2.673778e+06   1.370070e+06
  -3.936980e+06  -1.286434e+06
  -2.662611e+06  -3.281841e+06
   3.577977e+04  -3.443338e+06
   1.738879e+06  -2.213149e+06
   1.679577e+06  -1.108350e+06
   1.550649e+06  -8.825303e+05
   2.794019e+06  -7.030603e+05
   4.224523e+06   5.250170e+05
   3.474963e+06   2.568640e+06
   2.261678e+05   4.060889e+06
  -3.165480e+06   3.877500e+06
  -4.191585e+06   1.975984e+06
  -2.548673e+06  -6.165469e+05
  -2.942515e+04  -2.255401e+06
   1.250936e+06  -1.787007e+06
   5.215681e+05   1.138854e+05
  -1.130647e+06   1.257776e+06
  -1.815453e+06   3.935424e+05
  -8.108821e+05  -1.124490e+06
   5.821199e+05  -1.109573e+06
   5.859827e+05   3.689339e+05
  -8.319129e+05   9.724413e+05
  -1.910699e+06  -6.934404e+05
  -1.211535e+06  -3.111752e+06
   9.000812e+05  -3.708304e+06
   2.924230e+06  -1.795049e+06
   3.636575e+06   1.037332e+06
   2.676724e+06   2.825179e+06
   5.826037e+05   2.793789e+06
  -1.293190e+06   1.491363e+06
  -1.614949e+06   1.858756e+05
  -4.930584e+05  -4.063684e+04
   3.743942e+05   7.400884e+05
  -3.278744e+05   1.286415e+06
  -1.774712e+06   6.087634e+05
  -1.996192e+06  -7.426110e+05
  -4.700731e+05  -1.329612e+06
   1.134719e+06  -6.248861e+05
   9.849110e+05   4.390258e+05
  -7.915700e+05   6.874847e+05
  -2.328965e+06  -1.189215e+05
  -1.991174e+06  -1.352008e+06
   1.214302e+05  -2.140220e+06
   2.322025e+06  -1.805481e+06
   2.799233e+06  -3.468586e+05
   1.228493e+06   1.192505e+06
  -8.466400e+05   1.430643e+06
  -1.450479e+06   2.012685e+05
  -1.673604e+05  -1.014464e+06
   1.480853e+06  -7.394465e+05
   1.743311e+06   7.083575e+05
   4.546408e+05   1.646594e+06
  -1.011666e+06   1.095546e+06
  -1.303614e+06  -1.826536e+05
  -3.466246e+05  -7.502039e+05
   7.420594e+05  -9.129042e+04
   7.286497e+05   1.023466e+06
  -5.784396e+05   1.410917e+06
  -2.004213e+06   5.345579e+05
  -2.028931e+06  -1.037357e+06
  -4.125823e+05  -2.053306e+06
   1.381575e+06  -1.665471e+06
   1.713270e+06  -2.728046e+05
   5.557004e+05   8.465416e+05
  -6.296664e+05   8.410603e+05
  -6.858432e+05   7.426004e+04
   7.951796e+04  -4.632201e+05
   5.772419e+05  -3.057316e+05
   2.756844e+05   1.081077e+05
  -3.857978e+05   7.307284e+04
  -5.876404e+05  -5.620001e+05
   1.096479e+05  -1.181701e+06
   1.344739e+06  -9.414839e+05
   2.091406e+06   3.698805e+05
   1.489637e+06   1.919275e+06
  -1.887480e+05   2.451125e+06
  -1.622456e+06   1.508753e+06
  -1.776122e+06  -5.686392e+04
  -9.736047e+05  -9.677694e+05
  -3.420154e+05  -8.180301e+05
  -3.840642e+05  -3.049210e+05
  -5.348953e+05  -2.553221e+05
  -9.497065e+04  -6.959493e+05
   8.353920e+05  -9.389117e+05
   1.475899e+06  -3.995608e+05
   1.137808e+06   7.383719e+05
  -1.911592e+05   1.561389e+06
  -1.731211e+06   1.162319e+06
  -2.301827e+06  -4.410261e+05
  -1.220522e+06  -2.082370e+06
   9.015071e+05  -2.392920e+06
   2.485939e+06  -1.134885e+06
   2.420470e+06   5.486703e+05
   1.098872e+06   1.341984e+06
  -1.413709e+05   1.062830e+06
  -4.677142e+05   6.035133e+05
  -1.991830e+05   7.297966e+05
  -1.418859e+05   1.224352e+06
  -6.263459e+05   1.243872e+06
  -1.250622e+06   3.216782e+05
  -1.336540e+06  -1.074040e+06
  -5.718216e+05  -1.900125e+06
   6.186530e+05  -1.450453e+06
   1.302425e+06  -3.009917e+04
   8.606419e+05   1.242752e+06
  -3.100940e+05   1.408687e+06
  -1.098428e+06   5.066810e+05
  -8.289603e+05  -5.731406e+05
   2.184778e+04  -1.027013e+06
   4.294582e+05  -8.189398e+05
   4.406376e+04  -4.649795e+05
  -4.179405e+05  -3.516791e+05
  -5.159281e+04  -3.919582e+05
   1.117590e+06  -2.433539e+05
   2.030006e+06   2.800621e+05
   1.641395e+06   9.856588e+05
   4.802147e+04   1.402585e+06
  -1.506271e+06   1.154443e+06
  -1.815796e+06   3.510426e+05
  -8.771957e+05  -4.061648e+05
   2.172615e+05  -5.405528e+05
   4.957156e+05  -7.692324e+04
   1.723832e+04   3.702794e+05
  -4.662973e+05   2.470387e+05
  -4.780733e+05  -3.381501e+05
  -2.012689e+05  -7.328189e+05
  -4.563253e+04  -4.771268e+05
  -1.490802e+05   1.372787e+05
  -3.298282e+05   3.425081e+05
  -2.920852e+05  -2.248393e+05
   1.619066e+05  -1.009795e+06
   8.862081e+05  -1.071982e+06
   1.292283e+06  -1.631043e+05
   7.984755e+05   9.017872e+05
  -3.959984e+05   1.095512e+06
  -1.213100e+06   3.035339e+05
  -7.331585e+05  -5.849419e+05
   6.850511e+05  -6.748181e+05
   1.630174e+06   4.818196e+04
   1.102522e+06   8.522911e+05
  -4.254905e+05   1.057932e+06
  -1.531005e+06   5.795052e+05
  -1.302920e+06  -1.423368e+05
  -1.692110e+05  -5.344737e+05
   6.486112e+05  -3.075342e+05
   3.752826e+05   2.713482e+05
  -6.054540e+05   5.027014e+05
  -1.182181e+06  -1.076411e+05
  -6.380887e+05  -1.196560e+06
   6.297597e+05  -1.694792e+06
   1.509338e+06  -8.699932e+05
   1.271129e+06   7.711233e+05
   2.149109e+05   1.820446e+06
  -7.406213e+05   1.345557e+06
  -9.535549e+05  -1.373045e+05
  -4.846496e+05  -1.203006e+06
   1.726330e+05  -1.015434e+06
   5.583524e+05  -1.118526e+05
   5.062436e+05   3.898430e+05
   1.997668e+05   1.543902e+05
   3.681465e+04  -1.100565e+05
   2.413093e+05   2.639523e+05
   5.099602e+05   9.596744e+05
   2.449748e+05   1.105063e+06
  -6.737007e+05   4.234783e+05
  -1.505738e+06  -4.573713e+05
  -1.344250e+06  -8.402975e+05
  -2.011498e+05  -6.982357e+05
   8.917406e+05  -4.244357e+05
   1.009380e+06  -2.056844e+05
   3.420794e+05   2.545344e+04
  -1.569228e+05   2.243761e+05
   2.806039e+02   2.338150e+05
   3.049835e+05   1.215946e+05
   3.679972e+04   1.338207e+05
  -7.063414e+05   2.228154e+05
  -1.051744e+06  -1.199568e+04
  -3.890960e+05  -6.787267e+05
   8.715742e+05  -1.169392e+06
   1.680213e+06  -7.584420e+05
   1.380300e+06   4.347384e+05
   2.759167e+05   1.422761e+06
  -7.497426e+05   1.387897e+06
  -1.050204e+06   5.296189e+05
  -6.662853e+05  -2.498265e+05
  -1.232599e+05  -3.573175e+05
   9.758816e+04  -4.036081e+04
  -7.509248e+04   4.446645e+04
  -3.262967e+05  -3.613583e+05
  -2.722575e+05  -8.174531e+05
   1.800271e+05  -6.795102e+05
   6.918898e+05   1.398709e+05
   7.319201e+05   9.724171e+05
   9.166607e+04   1.029947e+06
  -7.715409e+05   2.228250e+05
  -1.036761e+06  -7.441091e+05
  -3.429558e+05  -1.091126e+06
   7.135927e+05  -6.675454e+05
   1.113420e+06   6.947134e+04
   5.301220e+05   5.878108e+05
  -2.745464e+05   6.600653e+05
  -3.522258e+05   3.745110e+05
   2.758414e+05   2.362556e+04
   6.623625e+05  -4.037357e+04
   1.428577e+05   3.021428e+05
  -8.280056e+05   6.984948e+05
  -1.247680e+06   5.852555e+05
  -7.491456e+05  -1.432752e+05
   8.826521e+04  -8.678097e+05
   5.222104e+05  -8.649072e+05
   3.964424e+05  -1.542676e+05
   4.236692e+04   4.916105e+05
  -2.388383e+05   4.265141e+05
  -3.534142e+05  -1.693706e+05
  -2.589162e+05  -5.806294e+05
   5.012850e+04  -4.086661e+05
   3.920405e+05   5.119783e+04
   4.789371e+05   2.596352e+05
   2.492205e+05   7.968906e+04
  -2.849248e+04  -1.296299e+05
  -9.262897e+04  -3.744588e+03
  -2.091774e+04   3.647321e+05
  -8.541878e+04   5.191348e+05
  -3.247562e+05   1.772625e+05
  -4.289029e+05  -3.989929e+05
  -1.225956e+05  -6.464941e+05
   4.181727e+05  -3.077769e+05
   6.548458e+05   2.868279e+05
   2.485398e+05   5.831130e+05
  -5.007427e+05   3.730948e+05
  -8.760751e+05  -7.363933e+04
  -4.810729e+05  -3.750905e+05
   2.881100e+05  -3.901852e+05
   6.316281e+05  -2.177040e+05
   2.337878e+05  -2.200904e+04
  -3.697115e+05   4.827432e+04
  -4.161156e+05  -8.783253e+04
   1.908424e+05  -3.063658e+05
   7.812666e+05  -2.734797e+05
