
 $NMID
 id='ANONYMOUS ', fmtdat='(2E16.6)'
 volume=1.0
 tramp=1.0
 $END
  -5.007768e+07   1.417244e+05
  -3.057621e+07  -3.001003e+07
   5.738787e+06  -3.361817e+07
   2.410380e+07  -1.405650e+07
   1.506151e+07   5.159226e+06
  -2.416032e+06   8.374558e+06
  -8.890770e+06  -3.639360e+05
  -3.133720e+06  -8.574130e+06
   5.070777e+06  -8.984447e+06
   8.654726e+06  -2.349679e+06
   6.481630e+06   5.606690e+06
   8.055146e+05   8.003511e+06
  -3.707066e+06   2.430979e+06
  -2.572007e+06  -5.303176e+06
   3.254497e+06  -6.383594e+06
   7.171042e+06   8.928788e+05
   4.272097e+06   9.150450e+06
  -3.182417e+06   1.074915e+07
  -9.042246e+06   5.375131e+06
  -9.647226e+06  -1.924562e+06
  -5.702472e+06  -6.698194e+06
  -4.652268e+05  -7.435242e+06
   2.297159e+06  -5.087257e+06
   9.811889e+05  -2.541127e+06
  -1.462757e+06  -2.542446e+06
  -7.862833e+04  -4.322002e+06
   5.450711e+06  -4.074468e+06
   9.227672e+06  -2.127751e+05
   6.445776e+06   3.983467e+06
  -1.278579e+05   4.649295e+06
  -3.822069e+06   2.131416e+06
  -2.302945e+06  -4.346638e+05
   1.070605e+06  -1.258427e+06
   2.738741e+06  -3.902838e+05
   2.198643e+06   1.814810e+06
   3.497761e+05   3.995049e+06
  -1.826582e+06   3.420770e+06
  -2.694040e+06  -4.045285e+05
  -1.207363e+06  -3.292300e+06
   7.374399e+05  -1.333156e+06
   1.168966e+05   2.677924e+06
  -2.367634e+06   2.327189e+06
  -2.356371e+06  -2.793423e+06
   1.842619e+06  -5.525396e+06
   5.872294e+06  -1.044831e+06
   4.537513e+06   6.013831e+06
  -1.514759e+06   7.553515e+06
  -6.645656e+06   2.218552e+06
  -6.583830e+06  -3.995021e+06
  -2.003216e+06  -5.631139e+06
   3.179604e+06  -2.754816e+06
   5.124924e+06   1.182898e+06
   2.552417e+06   3.159241e+06
  -2.051756e+06   2.121429e+06
  -4.162346e+06  -6.847333e+05
  -1.898627e+06  -2.389649e+06
   1.518742e+06  -1.277509e+06
   1.736398e+06   9.056875e+05
  -9.857998e+05   1.017961e+06
  -2.297253e+06  -1.208317e+06
   1.688466e+05  -2.856585e+06
   3.815048e+06  -1.830116e+06
   4.761175e+06   9.187289e+05
   2.236504e+06   3.458785e+06
  -1.707548e+06   4.889263e+06
  -4.865901e+06   4.528097e+06
  -5.869257e+06   1.531428e+06
  -4.166262e+06  -3.063327e+06
  -8.222842e+05  -5.828443e+06
   1.586667e+06  -4.587332e+06
   1.505966e+06  -1.431892e+06
   3.084565e+05  -8.528130e+04
   3.828936e+05  -1.055355e+06
   1.897801e+06  -1.556187e+06
   2.844812e+06   8.412979e+04
   1.897321e+06   2.179496e+06
  -1.752141e+05   2.262645e+06
  -1.755918e+06   1.653834e+05
  -1.760079e+06  -2.202201e+06
   5.267259e+04  -2.959108e+06
   2.754295e+06  -1.513524e+06
   4.227534e+06   1.280677e+06
   2.918183e+06   3.567362e+06
  -8.771207e+04   3.841024e+06
  -2.040755e+06   2.433020e+06
  -1.956481e+06   1.091897e+06
  -1.681515e+06   7.738887e+05
  -2.868369e+06   5.924635e+05
  -4.298540e+06  -6.477941e+05
  -3.493922e+06  -2.681072e+06
  -1.797552e+05  -4.117147e+06
   3.208679e+06  -3.918561e+06
   4.224963e+06  -2.067076e+06
   2.636562e+06   5.318060e+05
   1.533335e+05   2.281916e+06
  -1.196989e+06   1.885694e+06
  -5.523605e+05  -7.938542e+04
   1.122418e+06  -1.297849e+06
   1.876102e+06  -3.939467e+05
   8.671011e+05   1.181342e+06
  -5.552568e+05   1.126603e+06
  -5.122955e+05  -3.707083e+05
   9.339786e+05  -8.287796e+05
   1.857344e+06   9.866531e+05
   9.171559e+05   3.279911e+06
  -1.224864e+06   3.542051e+06
  -3.004147e+06   1.458411e+06
  -3.474710e+06  -1.221823e+06
  -2.505315e+06  -2.786337e+06
  -5.375595e+05  -2.716675e+06
   1.275957e+06  -1.495158e+06
   1.613992e+06  -2.118377e+05
   4.971397e+05   4.354070e+04
  -3.689701e+05  -7.520912e+05
   3.783815e+05  -1.320223e+06
   1.856933e+06  -5.896753e+05
   2.023939e+06   8.264238e+05
   4.247883e+05   1.380884e+06
  -1.161289e+06   6.006663e+05
  -9.442346e+05  -4.451741e+05
   8.168451e+05  -6.040381e+05
   2.260657e+06   2.131663e+05
   1.882772e+06   1.349885e+06
  -1.762396e+05   2.064390e+06
  -2.326809e+06   1.745602e+06
  -2.808187e+06   3.138424e+05
  -1.229317e+06  -1.241423e+06
   8.979643e+05  -1.476517e+06
   1.520940e+06  -1.891789e+05
   1.816225e+05   1.061583e+06
  -1.514595e+06   7.429053e+05
  -1.742598e+06  -7.526017e+05
  -3.968366e+05  -1.658104e+06
   1.055971e+06  -1.038055e+06
   1.283076e+06   2.498950e+05
   2.942392e+05   7.673696e+05
  -7.761380e+05   6.879986e+04
  -7.384723e+05  -1.050870e+06
   5.841024e+05  -1.433331e+06
   2.027997e+06  -5.446191e+05
   2.053286e+06   1.055444e+06
   4.001100e+05   2.084441e+06
  -1.425869e+06   1.666659e+06
  -1.733791e+06   2.409440e+05
  -5.310812e+05  -8.636496e+05
   6.493995e+05  -8.275444e+05
   6.654142e+05  -7.990297e+04
  -9.374528e+04   4.105791e+05
  -5.305041e+05   2.634381e+05
  -2.001699e+05  -7.524420e+04
   4.119004e+05   1.072903e+04
   5.481300e+05   6.214058e+05
  -1.632195e+05   1.189606e+06
  -1.375632e+06   9.237018e+05
  -2.104955e+06  -3.968071e+05
  -1.490520e+06  -1.950660e+06
   2.032283e+05  -2.458693e+06
   1.628255e+06  -1.473450e+06
   1.742996e+06   8.821277e+04
   9.267264e+05   9.309292e+05
   3.446369e+05   7.356555e+05
   4.442434e+05   2.691466e+05
   5.854660e+05   2.957926e+05
   8.875686e+04   7.394305e+05
  -8.631490e+05   9.251171e+05
  -1.470647e+06   3.654371e+05
  -1.103202e+06  -7.307261e+05
   2.173335e+05  -1.518273e+06
   1.737390e+06  -1.126660e+06
   2.293557e+06   4.643439e+05
   1.185125e+06   2.107131e+06
  -9.672729e+05   2.395214e+06
  -2.534702e+06   1.086654e+06
  -2.399817e+06  -6.089964e+05
  -1.033239e+06  -1.343504e+06
   1.690610e+05  -1.005694e+06
   4.231026e+05  -5.652543e+05
   1.374289e+05  -7.591722e+05
   1.283219e+05  -1.284772e+06
   6.597125e+05  -1.277981e+06
   1.286750e+06  -3.206879e+05
   1.351283e+06   1.088216e+06
   5.710334e+05   1.915734e+06
  -6.252177e+05   1.458626e+06
  -1.304545e+06   1.453328e+04
  -8.406765e+05  -1.274095e+06
   3.558250e+05  -1.410666e+06
   1.137243e+06  -4.523201e+05
   8.187693e+05   6.453172e+05
  -8.069799e+04   1.056700e+06
  -4.894358e+05   7.995259e+05
  -6.314182e+04   4.399812e+05
   4.322915e+05   3.474702e+05
   5.769031e+04   3.919220e+05
  -1.143845e+06   2.259061e+05
  -2.065966e+06  -3.130303e+05
  -1.642220e+06  -1.021459e+06
   4.903017e+02  -1.428880e+06
   1.566383e+06  -1.153856e+06
   1.838108e+06  -3.140393e+05
   8.560318e+05   4.555204e+05
  -2.456189e+05   5.590015e+05
  -5.065691e+05   5.286700e+04
  -2.155131e+04  -4.036207e+05
   4.586918e+05  -2.584648e+05
   4.854395e+05   3.435532e+05
   2.349508e+05   7.387540e+05
   7.541381e+04   4.871605e+05
   1.406602e+05  -1.155699e+05
   3.003938e+05  -3.217750e+05
   2.854392e+05   2.299568e+05
  -1.486251e+05   1.009146e+06
  -9.012875e+05   1.080765e+06
  -1.347413e+06   1.690367e+05
  -8.391574e+05  -9.216078e+05
   4.126843e+05  -1.132541e+06
   1.254591e+06  -3.259179e+05
   7.438051e+05   5.829827e+05
  -6.997045e+05   6.665743e+05
  -1.620001e+06  -7.152793e+04
  -1.057649e+06  -8.595786e+05
   4.586220e+05  -1.024886e+06
   1.520500e+06  -5.301141e+05
   1.272099e+06   1.661450e+05
   1.522495e+05   5.253961e+05
  -6.532956e+05   2.887039e+05
  -3.841099e+05  -2.883970e+05
   6.000256e+05  -5.241623e+05
   1.199449e+06   8.840565e+04
   6.722862e+05   1.201696e+06
  -6.063081e+05   1.726293e+06
  -1.509772e+06   8.987733e+05
  -1.281454e+06  -7.661412e+05
  -2.184228e+05  -1.823351e+06
   7.417024e+05  -1.331798e+06
   9.448202e+05   1.599038e+05
   4.600674e+05   1.205821e+06
  -1.999159e+05   9.946540e+05
  -5.658933e+05   9.610560e+04
  -4.877499e+05  -3.819336e+05
  -1.792396e+05  -1.414988e+05
  -4.402633e+04   1.006543e+05
  -2.700712e+05  -2.910103e+05
  -5.200005e+05  -9.751666e+05
  -2.166718e+05  -1.096643e+06
   7.078553e+05  -4.090028e+05
   1.505951e+06   4.604611e+05
   1.320918e+06   8.390900e+05
   1.954189e+05   7.061143e+05
  -8.738778e+05   4.336741e+05
  -1.002578e+06   1.980352e+05
  -3.589487e+05  -4.574514e+04
   1.496095e+05  -2.301575e+05
   2.348076e+04  -2.132585e+05
  -2.816352e+05  -9.837274e+04
  -4.879401e+04  -1.359886e+05
   6.819949e+05  -2.438262e+05
   1.063825e+06   4.276873e+03
   4.328956e+05   6.996828e+05
  -8.535352e+05   1.201976e+06
  -1.715737e+06   7.795026e+05
  -1.429713e+06  -4.302612e+05
  -2.915145e+05  -1.429348e+06
   7.639541e+05  -1.404331e+06
   1.062508e+06  -5.533311e+05
   6.710083e+05   2.333587e+05
   1.367459e+05   3.634969e+05
  -7.793136e+04   6.497310e+04
   7.930544e+04  -2.248460e+04
   3.125639e+05   3.682812e+05
   2.628983e+05   8.191616e+05
  -1.762978e+05   6.918895e+05
  -6.963775e+05  -1.188113e+05
  -7.606010e+05  -9.634278e+05
  -1.244982e+05  -1.048574e+06
   7.668872e+05  -2.576339e+05
   1.061364e+06   7.243941e+05
   3.652945e+05   1.104481e+06
  -7.183726e+05   6.953640e+05
  -1.137129e+06  -6.355476e+04
  -5.453694e+05  -6.141601e+05
   2.841362e+05  -6.897680e+05
   3.783020e+05  -3.772955e+05
  -2.555276e+05  -6.499515e+03
  -6.613256e+05   4.792907e+04
  -1.517597e+05  -3.112223e+05
   8.312824e+05  -7.012977e+05
   1.271133e+06  -5.666079e+05
   7.739732e+05   1.695822e+05
  -8.764802e+04   8.845659e+05
  -5.488555e+05   8.760242e+05
  -4.289894e+05   1.673349e+05
  -6.003725e+04  -4.882951e+05
   2.385501e+05  -4.450417e+05
   3.611602e+05   1.468857e+05
   2.660244e+05   5.841798e+05
  -4.910485e+04   4.339891e+05
  -3.987106e+05  -4.087495e+04
  -4.864968e+05  -2.782004e+05
  -2.474680e+05  -9.380224e+04
   3.549358e+04   1.513940e+05
   8.339641e+04   4.033808e+04
  -1.547117e+04  -3.616022e+05
   4.684020e+04  -5.604766e+05
   3.238069e+05  -2.249005e+05
   4.709275e+05   3.819518e+05
   1.668233e+05   6.584584e+05
  -4.118045e+05   3.258700e+05
  -6.800370e+05  -2.758738e+05
  -2.665628e+05  -5.806313e+05
   5.110007e+05  -3.789401e+05
   8.992101e+05   6.475457e+04
   4.928557e+05   3.775701e+05
  -2.936870e+05   4.112141e+05
  -6.475984e+05   2.408305e+05
  -2.544279e+05   2.165736e+04
   3.522685e+05  -7.539961e+04
   4.167592e+05   5.861888e+04
  -1.663036e+05   2.997303e+05
  -7.525132e+05   2.886745e+05
