
 $NMID
 id='ANONYMOUS ', fmtdat='(2E16.6)'
 volume=1.0
 tramp=1.0
 $END
  -4.076043e+07  -3.897528e+05
  -2.551395e+07  -2.258321e+07
   3.137046e+06  -2.666199e+07
   1.889996e+07  -1.349954e+07
   1.319546e+07   1.937140e+06
  -8.695350e+05   6.989090e+06
  -7.624690e+06   1.250754e+06
  -3.976063e+06  -6.801784e+06
   3.273836e+06  -8.857181e+06
   7.291487e+06  -3.115933e+06
   5.796536e+06   4.909740e+06
   6.857343e+05   7.373167e+06
  -3.433146e+06   1.883403e+06
  -2.524546e+06  -5.475076e+06
   2.567033e+06  -6.472988e+06
   6.241592e+06   1.592855e+05
   4.076216e+06   7.720111e+06
  -2.365967e+06   9.318833e+06
  -7.599516e+06   4.503930e+06
  -7.898501e+06  -1.981473e+06
  -4.073888e+06  -5.643690e+06
   1.054089e+05  -5.445084e+06
   1.254846e+06  -3.407656e+06
  -7.325026e+05  -2.424655e+06
  -2.245817e+06  -3.599619e+06
   4.001930e+05  -4.953537e+06
   6.051980e+06  -3.570299e+06
   9.005877e+06   5.772601e+05
   5.580395e+06   4.111091e+06
  -1.033331e+06   4.109967e+06
  -4.358821e+06   1.264025e+06
  -2.081649e+06  -1.460656e+06
   2.171036e+06  -1.971532e+06
   3.908148e+06  -1.163909e+05
   2.302747e+06   2.807351e+06
  -4.502633e+05   4.418153e+06
  -2.080407e+06   2.720847e+06
  -1.743314e+06  -1.107626e+06
  -1.762265e+05  -2.826112e+06
   7.183697e+05  -1.786559e+05
  -4.241857e+05   3.327845e+06
  -2.406702e+06   2.491830e+06
  -2.289936e+06  -2.215166e+06
   8.639286e+05  -4.646208e+06
   4.088409e+06  -1.091403e+06
   3.558857e+06   4.637963e+06
  -9.349751e+05   6.062651e+06
  -5.551231e+06   1.844834e+06
  -6.226218e+06  -3.475460e+06
  -2.363950e+06  -5.255381e+06
   2.853790e+06  -2.982093e+06
   5.197676e+06   6.610655e+05
   2.941686e+06   2.761870e+06
  -1.485205e+06   2.083882e+06
  -3.696908e+06  -3.169842e+05
  -1.887441e+06  -1.913727e+06
   1.239368e+06  -1.150030e+06
   1.835773e+06   7.552900e+05
  -3.858256e+05   1.282894e+06
  -2.077681e+06  -2.139892e+05
  -6.943645e+05  -1.864417e+06
   2.450584e+06  -1.750834e+06
   3.978412e+06   1.724036e+05
   2.167720e+06   2.683854e+06
  -1.727574e+06   4.424544e+06
  -5.005119e+06   4.091480e+06
  -5.638220e+06   1.072674e+06
  -3.533009e+06  -3.163310e+06
  -5.079727e+05  -5.538929e+06
   1.224277e+06  -4.500468e+06
   1.115273e+06  -1.938814e+06
   6.380099e+05  -7.753463e+05
   1.283894e+06  -1.259636e+06
   2.658191e+06  -1.122369e+06
   3.080075e+06   8.270783e+05
   1.686790e+06   2.871369e+06
  -6.590344e+05   2.633340e+06
  -2.283656e+06   4.334177e+04
  -1.981135e+06  -2.641213e+06
   2.409517e+05  -3.188716e+06
   2.933416e+06  -1.253563e+06
   3.962458e+06   1.639503e+06
   2.403853e+06   3.459878e+06
  -2.752623e+05   3.287283e+06
  -1.732677e+06   1.961576e+06
  -1.532866e+06   1.030767e+06
  -1.490201e+06   9.782836e+05
  -2.903106e+06   8.050394e+05
  -4.439550e+06  -5.374617e+05
  -3.663825e+06  -2.731834e+06
  -2.113923e+05  -4.337816e+06
   3.476321e+06  -4.114671e+06
   4.613195e+06  -1.981689e+06
   2.727638e+06   8.506466e+05
  -1.470273e+05   2.507327e+06
  -1.505902e+06   1.858700e+06
  -5.551968e+05  -1.873694e+05
   1.281772e+06  -1.318333e+06
   1.917567e+06  -3.678638e+05
   7.729315e+05   1.208997e+06
  -6.879023e+05   1.200341e+06
  -7.128970e+05  -3.609736e+05
   7.173093e+05  -1.141236e+06
   1.947053e+06   4.272086e+05
   1.495826e+06   3.038068e+06
  -5.691816e+05   4.006214e+06
  -2.910165e+06   2.235460e+06
  -4.009900e+06  -8.730068e+05
  -3.092759e+06  -3.046054e+06
  -6.978947e+05  -3.107126e+06
   1.448746e+06  -1.615997e+06
   1.779549e+06  -1.550619e+05
   5.305488e+05   4.976658e+04
  -3.971909e+05  -7.946692e+05
   3.395869e+05  -1.329294e+06
   1.840153e+06  -6.104863e+05
   2.083266e+06   7.602875e+05
   5.127664e+05   1.370505e+06
  -1.200143e+06   6.765154e+05
  -1.108157e+06  -4.583145e+05
   7.911645e+05  -8.141361e+05
   2.551418e+06   1.299757e+04
   2.272272e+06   1.432013e+06
  -5.148481e+04   2.378675e+06
  -2.509810e+06   2.000903e+06
  -3.024220e+06   3.737027e+05
  -1.292358e+06  -1.262040e+06
   9.133683e+05  -1.466454e+06
   1.498968e+06  -1.702425e+05
   1.247174e+05   1.065342e+06
  -1.588387e+06   7.625385e+05
  -1.863944e+06  -7.449176e+05
  -5.306759e+05  -1.751076e+06
   1.031649e+06  -1.215934e+06
   1.398317e+06   1.291618e+05
   4.145531e+05   7.701675e+05
  -7.586141e+05   9.327331e+04
  -7.534801e+05  -1.100749e+06
   6.557416e+05  -1.502500e+06
   2.171193e+06  -5.319017e+05
   2.160391e+06   1.151170e+06
   4.182397e+05   2.201002e+06
  -1.478731e+06   1.768735e+06
  -1.828036e+06   2.978668e+05
  -6.110985e+05  -8.952625e+05
   6.665974e+05  -9.110121e+05
   7.740205e+05  -7.918630e+04
  -4.382015e+04   5.520190e+05
  -6.569823e+05   4.013711e+05
  -4.017802e+05  -1.094080e+05
   3.402670e+05  -1.494707e+05
   6.389997e+05   5.303185e+05
  -8.085567e+04   1.244129e+06
  -1.432310e+06   1.009277e+06
  -2.242895e+06  -4.081575e+05
  -1.578954e+06  -2.076373e+06
   2.249425e+05  -2.651451e+06
   1.758147e+06  -1.658848e+06
   1.951074e+06   2.896334e+04
   1.123161e+06   1.077126e+06
   4.116325e+05   9.867704e+05
   3.719413e+05   4.137489e+05
   4.993748e+05   2.727154e+05
   7.430673e+04   7.084703e+05
  -8.831294e+05   1.010416e+06
  -1.597549e+06   4.575954e+05
  -1.273243e+06  -8.052134e+05
   1.720121e+05  -1.729544e+06
   1.871789e+06  -1.280137e+06
   2.497296e+06   4.784711e+05
   1.327237e+06   2.235150e+06
  -9.419536e+05   2.552683e+06
  -2.639732e+06   1.227772e+06
  -2.615397e+06  -5.492435e+05
  -1.251264e+06  -1.433012e+06
   1.011363e+05  -1.201094e+06
   5.415035e+05  -7.215360e+05
   3.116075e+05  -7.998010e+05
   2.224659e+05  -1.275405e+06
   6.831223e+05  -1.289742e+06
   1.326971e+06  -3.134677e+05
   1.418316e+06   1.180797e+06
   5.907431e+05   2.060259e+06
  -6.900736e+05   1.559989e+06
  -1.407583e+06   3.230638e+04
  -9.245111e+05  -1.318299e+06
   3.068790e+05  -1.500360e+06
   1.126895e+06  -5.732120e+05
   8.619353e+05   5.500118e+05
   8.750064e+03   1.049644e+06
  -4.007547e+05   8.704761e+05
  -1.729997e+04   5.213023e+05
   4.381892e+05   4.019982e+05
   4.479766e+04   4.316565e+05
  -1.181411e+06   2.538445e+05
  -2.148959e+06  -3.170604e+05
  -1.753130e+06  -1.056007e+06
  -7.115856e+04  -1.469973e+06
   1.590052e+06  -1.202283e+06
   1.935569e+06  -3.862990e+05
   9.428289e+05   3.865193e+05
  -2.242439e+05   5.485113e+05
  -5.142319e+05   9.700793e+04
   1.143755e+04  -3.702419e+05
   5.266376e+05  -2.558533e+05
   5.054189e+05   3.731556e+05
   1.700000e+05   8.158252e+05
   5.197848e+03   5.283588e+05
   1.596354e+05  -1.766380e+05
   3.825739e+05  -4.102178e+05
   3.195326e+05   2.388944e+05
  -2.029020e+05   1.107508e+06
  -9.681293e+05   1.138244e+06
  -1.354160e+06   1.206663e+05
  -8.023768e+05  -9.966552e+05
   4.502351e+05  -1.138248e+06
   1.294759e+06  -2.654076e+05
   7.814256e+05   6.553042e+05
  -7.337514e+05   7.266708e+05
  -1.772241e+06  -4.084429e+04
  -1.235109e+06  -9.062202e+05
   4.199443e+05  -1.162672e+06
   1.655879e+06  -6.728866e+05
   1.436585e+06   1.259251e+05
   2.019384e+05   5.837094e+05
  -6.936759e+05   3.446334e+05
  -3.852997e+05  -2.873743e+05
   6.853947e+05  -5.204669e+05
   1.280310e+06   1.636315e+05
   6.402425e+05   1.327763e+06
  -7.524579e+05   1.819693e+06
  -1.673164e+06   8.979521e+05
  -1.367635e+06  -8.679029e+05
  -2.061233e+05  -1.985536e+06
   8.138431e+05  -1.471451e+06
   1.032705e+06   1.313475e+05
   5.382353e+05   1.298425e+06
  -1.579478e+05   1.109830e+06
  -5.917481e+05   1.273558e+05
  -5.719290e+05  -4.280227e+05
  -2.461897e+05  -1.717872e+05
  -2.772587e+04   1.251484e+05
  -2.114544e+05  -2.793420e+05
  -5.232463e+05  -1.041588e+06
  -2.893681e+05  -1.198587e+06
   6.931906e+05  -4.473999e+05
   1.633063e+06   5.137571e+05
   1.480630e+06   9.189084e+05
   2.118614e+05   7.512226e+05
  -1.002214e+06   4.527517e+05
  -1.105078e+06   2.242891e+05
  -3.413820e+05  -2.054048e+04
   1.853482e+05  -2.409045e+05
  -3.616278e+04  -2.621674e+05
  -3.708221e+05  -1.467882e+05
  -2.406317e+04  -1.514834e+05
   8.121415e+05  -2.266175e+05
   1.137732e+06   4.202257e+04
   3.549073e+05   7.492530e+05
  -1.004303e+06   1.239577e+06
  -1.815046e+06   7.605780e+05
  -1.447993e+06  -5.267294e+05
  -2.620639e+05  -1.556521e+06
   8.290552e+05  -1.476433e+06
   1.152556e+06  -5.307177e+05
   7.282421e+05   3.013167e+05
   1.113841e+05   3.926871e+05
  -1.436779e+05   2.842951e+04
   6.397182e+04  -6.874616e+04
   3.616795e+05   3.816544e+05
   2.956988e+05   8.864297e+05
  -2.164026e+05   7.271802e+05
  -7.606426e+05  -1.866447e+05
  -7.601388e+05  -1.096523e+06
  -3.982847e+04  -1.123953e+06
   8.704915e+05  -1.984501e+05
   1.106334e+06   8.605594e+05
   3.276291e+05   1.192841e+06
  -7.981847e+05   6.854516e+05
  -1.190476e+06  -1.107771e+05
  -5.373162e+05  -6.280926e+05
   3.156087e+05  -6.776385e+05
   3.618980e+05  -3.843436e+05
  -3.331410e+05  -3.495148e+04
  -7.281899e+05   2.828295e+04
  -1.365766e+05  -3.267668e+05
   9.091342e+05  -7.458728e+05
   1.329673e+06  -6.278877e+05
   7.711025e+05   1.524319e+05
  -1.180988e+05   9.268025e+05
  -5.578071e+05   9.072562e+05
  -4.068135e+05   1.285558e+05
  -2.301300e+04  -5.509759e+05
   2.775052e+05  -4.419169e+05
   3.887880e+05   2.182139e+05
   2.650455e+05   6.365513e+05
  -7.671379e+04   4.178774e+05
  -4.258495e+05  -7.603039e+04
  -4.988285e+05  -2.734420e+05
  -2.636260e+05  -7.348683e+04
   8.152194e+03   1.223929e+05
   8.788835e+04  -4.031762e+04
   6.482785e+04  -4.235091e+05
   1.673874e+05  -5.440702e+05
   3.871003e+05  -1.380468e+05
   4.275788e+05   4.850390e+05
   7.008285e+04   7.208745e+05
  -4.777986e+05   3.146106e+05
  -6.896280e+05  -3.483900e+05
  -2.456535e+05  -6.525492e+05
   5.428255e+05  -3.876056e+05
   9.342694e+05   1.152541e+05
   5.052721e+05   4.194081e+05
  -3.259569e+05   3.953112e+05
  -6.882151e+05   1.942980e+05
  -2.324108e+05   8.495520e+03
   4.394963e+05  -2.957755e+04
   4.700653e+05   1.329657e+05
  -2.342116e+05   3.541567e+05
  -8.955350e+05   2.899944e+05
