
 $NMID
 id='ANONYMOUS ', fmtdat='(2E16.6)'
 volume=1.0
 tramp=1.0
 $END
   4.623270e+07   1.610764e+06
   2.684403e+07   2.871577e+07
  -6.626473e+06   3.059865e+07
  -2.244877e+07   1.193708e+07
  -1.335477e+07  -5.235729e+06
   2.526928e+06  -7.480576e+06
   7.945167e+06   6.393030e+05
   2.516352e+06   7.812544e+06
  -4.792853e+06   7.928184e+06
  -7.879416e+06   1.858434e+06
  -5.815916e+06  -5.307767e+06
  -5.898591e+05  -7.376181e+06
   3.501833e+06  -2.182826e+06
   2.340232e+06   4.868596e+06
  -3.041215e+06   5.710116e+06
  -6.483057e+06  -1.038723e+06
  -3.631454e+06  -8.492436e+06
   3.245560e+06  -9.746264e+06
   8.505739e+06  -4.664514e+06
   8.887705e+06   2.096793e+06
   5.070231e+06   6.453931e+06
   9.811800e+04   6.965429e+06
  -2.425841e+06   4.552298e+06
  -1.004772e+06   2.080269e+06
   1.432459e+06   2.188021e+06
   1.414141e+05   3.996289e+06
  -5.067649e+06   3.783672e+06
  -8.562666e+06   1.167158e+05
  -5.917843e+06  -3.813889e+06
   1.912376e+05  -4.402736e+06
   3.612812e+06  -2.032409e+06
   2.257831e+06   4.054218e+05
  -8.451487e+05   1.271245e+06
  -2.504068e+06   5.096543e+05
  -2.134847e+06  -1.631796e+06
  -3.752164e+05  -3.762487e+06
   1.794922e+06  -3.179809e+06
   2.602236e+06   5.023526e+05
   1.051633e+06   3.187582e+06
  -8.506160e+05   1.254204e+06
  -1.965139e+05  -2.502776e+06
   2.162630e+06  -2.106715e+06
   2.054263e+06   2.607030e+06
  -1.892835e+06   4.931235e+06
  -5.439521e+06   6.495204e+05
  -3.938540e+06  -5.728356e+06
   1.684935e+06  -6.865930e+06
   6.190698e+06  -1.828398e+06
   5.924830e+06   3.781127e+06
   1.715866e+06   5.130923e+06
  -2.911257e+06   2.439403e+06
  -4.601500e+06  -1.134010e+06
  -2.240726e+06  -2.873558e+06
   1.917565e+06  -1.849006e+06
   3.767972e+06   7.379675e+05
   1.654521e+06   2.221721e+06
  -1.425540e+06   1.123333e+06
  -1.557755e+06  -8.334800e+05
   8.917549e+05  -8.291065e+05
   1.958393e+06   1.190667e+06
  -3.488755e+05   2.524270e+06
  -3.566263e+06   1.449501e+06
  -4.271569e+06  -1.021738e+06
  -1.907940e+06  -3.223416e+06
   1.673729e+06  -4.478140e+06
   4.552064e+06  -4.134388e+06
   5.458269e+06  -1.331785e+06
   3.822463e+06   2.926996e+06
   6.719715e+05   5.396911e+06
  -1.518312e+06   4.137537e+06
  -1.336268e+06   1.224556e+06
  -1.770342e+05   9.555433e+04
  -2.982439e+05   1.079147e+06
  -1.780539e+06   1.528800e+06
  -2.695970e+06  -3.999480e+04
  -1.823535e+06  -2.012453e+06
   1.064797e+05  -2.123264e+06
   1.604008e+06  -2.180882e+05
   1.646333e+06   1.979812e+06
  -3.233729e+04   2.724867e+06
  -2.562551e+06   1.397092e+06
  -3.917896e+06  -1.232759e+06
  -2.642804e+06  -3.367885e+06
   1.866487e+05  -3.562030e+06
   1.969094e+06  -2.181687e+06
   1.826088e+06  -9.226139e+05
   1.523909e+06  -6.570016e+05
   2.596919e+06  -5.122234e+05
   3.904285e+06   6.162855e+05
   3.172449e+06   2.458276e+06
   1.579283e+05   3.754250e+06
  -2.931917e+06   3.585453e+06
  -3.880781e+06   1.911962e+06
  -2.449678e+06  -4.833583e+05
  -1.646602e+05  -2.122555e+06
   1.103010e+06  -1.761394e+06
   5.206282e+05   7.060242e+04
  -1.027274e+06   1.199475e+06
  -1.720903e+06   3.532374e+05
  -7.919714e+05  -1.099372e+06
   4.996947e+05  -1.043686e+06
   4.559553e+05   3.124230e+05
  -8.228748e+05   7.061514e+05
  -1.604419e+06  -9.263479e+05
  -7.529884e+05  -2.934208e+06
   1.109532e+06  -3.118314e+06
   2.653446e+06  -1.264611e+06
   3.098580e+06   1.086248e+06
   2.282715e+06   2.478317e+06
   5.171452e+05   2.452419e+06
  -1.157522e+06   1.376545e+06
  -1.481095e+06   2.056529e+05
  -4.546798e+05  -3.923580e+04
   3.360058e+05   6.845870e+05
  -3.567051e+05   1.197514e+06
  -1.699975e+06   5.206182e+05
  -1.832393e+06  -7.654918e+05
  -3.738108e+05  -1.252924e+06
   1.052264e+06  -5.424359e+05
   8.540233e+05   3.891035e+05
  -7.225374e+05   5.310913e+05
  -2.024340e+06  -1.821183e+05
  -1.705935e+06  -1.192187e+06
   1.392930e+05  -1.856092e+06
   2.099949e+06  -1.592345e+06
   2.554986e+06  -2.913876e+05
   1.115224e+06   1.136202e+06
  -8.341564e+05   1.345861e+06
  -1.396444e+06   1.585810e+05
  -1.606502e+05  -9.797353e+05
   1.385122e+06  -6.763868e+05
   1.581578e+06   6.855648e+05
   3.578935e+05   1.496931e+06
  -9.489473e+05   9.308270e+05
  -1.149373e+06  -2.260015e+05
  -2.596583e+05  -6.852792e+05
   7.050745e+05  -5.214190e+04
   6.705933e+05   9.623668e+05
  -5.348041e+05   1.311290e+06
  -1.855267e+06   4.996397e+05
  -1.877495e+06  -9.648443e+05
  -3.634967e+05  -1.902873e+06
   1.302088e+06  -1.515951e+06
   1.576903e+06  -2.175382e+05
   4.813412e+05   7.811332e+05
  -5.869422e+05   7.509128e+05
  -6.046967e+05   8.451574e+04
   7.022592e+04  -3.601673e+05
   4.614430e+05  -2.481620e+05
   1.783743e+05   3.968984e+04
  -3.565390e+05  -3.156399e+04
  -4.781571e+05  -5.648978e+05
   1.567289e+05  -1.072478e+06
   1.252722e+06  -8.362430e+05
   1.917676e+06   3.625672e+05
   1.359766e+06   1.780556e+06
  -1.797063e+05   2.243344e+06
  -1.471070e+06   1.345427e+06
  -1.577783e+06  -6.838960e+04
  -8.542240e+05  -8.266699e+05
  -3.433461e+05  -6.581124e+05
  -4.276066e+05  -2.564887e+05
  -5.318284e+05  -2.903093e+05
  -6.896697e+04  -6.810561e+05
   7.864286e+05  -8.374641e+05
   1.331127e+06  -3.339328e+05
   1.006170e+06   6.527520e+05
  -1.851042e+05   1.372332e+06
  -1.572896e+06   1.027047e+06
  -2.087641e+06  -4.165990e+05
  -1.077331e+06  -1.912346e+06
   8.846903e+05  -2.171387e+06
   2.303379e+06  -9.803601e+05
   2.172559e+06   5.494005e+05
   9.381549e+05   1.202715e+06
  -1.373896e+05   9.011213e+05
  -3.650077e+05   5.249688e+05
  -1.207201e+05   7.174932e+05
  -1.274903e+05   1.188335e+06
  -6.127821e+05   1.165821e+06
  -1.179447e+06   2.874103e+05
  -1.236880e+06  -9.946873e+05
  -5.249786e+05  -1.749203e+06
   5.679338e+05  -1.334080e+06
   1.186529e+06  -1.589381e+04
   7.601621e+05   1.158811e+06
  -3.270760e+05   1.276089e+06
  -1.026354e+06   3.969439e+05
  -7.265175e+05  -5.948953e+05
   8.825512e+04  -9.522390e+05
   4.475512e+05  -7.103534e+05
   5.104359e+04  -3.921050e+05
  -3.999952e+05  -3.197694e+05
  -5.498745e+04  -3.599395e+05
   1.043106e+06  -1.997423e+05
   1.883947e+06   2.944293e+05
   1.492959e+06   9.322033e+05
  -1.064548e+04   1.293849e+06
  -1.435301e+06   1.041548e+06
  -1.669536e+06   2.818920e+05
  -7.648968e+05  -4.137662e+05
   2.325566e+05  -5.058954e+05
   4.569099e+05  -4.288337e+04
   1.146142e+04   3.760474e+05
  -4.207690e+05   2.426662e+05
  -4.447961e+05  -3.152360e+05
  -2.215293e+05  -6.857732e+05
  -7.289725e+04  -4.557892e+05
  -1.201533e+05   1.050066e+05
  -2.616108e+05   3.002905e+05
  -2.582012e+05  -2.082857e+05
   1.300256e+05  -9.263128e+05
   8.242292e+05  -9.868549e+05
   1.240717e+06  -1.430627e+05
   7.705679e+05   8.544401e+05
  -3.867508e+05   1.036965e+06
  -1.158708e+06   2.935429e+05
  -6.843834e+05  -5.325620e+05
   6.363539e+05  -6.060215e+05
   1.471371e+06   5.926574e+04
   9.599722e+05   7.681387e+05
  -4.100549e+05   9.223705e+05
  -1.369563e+06   4.856017e+05
  -1.149966e+06  -1.407959e+05
  -1.413073e+05  -4.723837e+05
   5.901153e+05  -2.619005e+05
   3.480106e+05   2.671343e+05
  -5.515179e+05   4.863593e+05
  -1.104646e+06  -7.784624e+04
  -6.232498e+05  -1.106317e+06
   5.524388e+05  -1.592193e+06
   1.384565e+06  -8.322573e+05
   1.177350e+06   6.968655e+05
   2.070022e+05   1.666444e+06
  -6.677716e+05   1.217120e+06
  -8.550853e+05  -1.431545e+05
  -4.202160e+05  -1.092114e+06
   1.763675e+05  -8.969782e+05
   5.125528e+05  -8.494128e+04
   4.463504e+05   3.395378e+05
   1.648819e+05   1.196247e+05
   3.792356e+04  -8.837516e+04
   2.440760e+05   2.782480e+05
   4.759858e+05   8.941825e+05
   2.007488e+05   9.903099e+05
  -6.458576e+05   3.634059e+05
  -1.376723e+06  -4.146869e+05
  -1.206716e+06  -7.532546e+05
  -1.779320e+05  -6.437633e+05
   7.964985e+05  -4.071199e+05
   9.114271e+05  -1.860080e+05
   3.244642e+05   4.909672e+04
  -1.362090e+05   2.143200e+05
  -1.798567e+04   1.840949e+05
   2.609312e+05   7.740428e+04
   4.623066e+04   1.280403e+05
  -6.245274e+05   2.367156e+05
  -9.760809e+05  -1.948637e+03
  -3.990210e+05  -6.546791e+05
   7.818212e+05  -1.112811e+06
   1.576569e+06  -7.116102e+05
   1.317562e+06   4.019890e+05
   2.728266e+05   1.310548e+06
  -6.996048e+05   1.284141e+06
  -9.777711e+05   5.097690e+05
  -6.197284e+05  -2.091197e+05
  -1.265793e+05  -3.366288e+05
   7.543678e+04  -6.995019e+04
  -6.606650e+04   1.581650e+04
  -2.824651e+05  -3.318299e+05
  -2.414781e+05  -7.442287e+05
   1.612287e+05  -6.358457e+05
   6.438566e+05   1.033678e+05
   7.065474e+05   8.842264e+05
   1.178946e+05   9.708295e+05
  -7.097029e+05   2.460191e+05
  -9.830811e+05  -6.616849e+05
  -3.378772e+05  -1.016748e+06
   6.629739e+05  -6.413588e+05
   1.044795e+06   5.987046e+04
   4.947659e+05   5.679297e+05
  -2.677459e+05   6.330016e+05
  -3.490509e+05   3.382395e+05
   2.356928e+05  -4.482575e+03
   6.061673e+05  -4.808602e+04
   1.385092e+05   2.880692e+05
  -7.577786e+05   6.436064e+05
  -1.156651e+06   5.124330e+05
  -7.035119e+05  -1.639125e+05
   8.147406e+04  -8.114288e+05
   5.056409e+05  -7.959348e+05
   4.008214e+05  -1.464286e+05
   6.092690e+04   4.509356e+05
  -2.219508e+05   4.107320e+05
  -3.390526e+05  -1.313982e+05
  -2.455365e+05  -5.353806e+05
   5.093858e+04  -4.012117e+05
   3.687987e+05   3.600527e+04
   4.409404e+05   2.575311e+05
   2.216894e+05   8.644199e+04
  -2.726882e+04  -1.439769e+05
  -6.311226e+04  -3.965018e+04
   2.278397e+04   3.413455e+05
  -4.713466e+04   5.314509e+05
  -3.099203e+05   2.151356e+05
  -4.443269e+05  -3.574794e+05
  -1.587657e+05  -6.169423e+05
   3.795348e+05  -3.044773e+05
   6.300720e+05   2.553754e+05
   2.497206e+05   5.346066e+05
  -4.687749e+05   3.459820e+05
  -8.283555e+05  -6.124427e+04
  -4.529945e+05  -3.469525e+05
   2.741240e+05  -3.786367e+05
   6.005889e+05  -2.216016e+05
   2.357471e+05  -1.425094e+04
  -3.271322e+05   8.057194e+04
  -3.904167e+05  -4.698409e+04
   1.443199e+05  -2.812357e+05
   6.861735e+05  -2.787077e+05
