
 $NMID
 id='ANONYMOUS ', fmtdat='(2E16.6)'
 volume=1.0
 tramp=1.0
 $END
  -4.667535e+07  -2.545613e+06
  -2.688952e+07  -2.907509e+07
   6.816015e+06  -3.072282e+07
   2.283051e+07  -1.220904e+07
   1.374888e+07   5.026103e+06
  -2.436242e+06   7.609280e+06
  -8.198703e+06  -4.419878e+05
  -2.754593e+06  -7.978462e+06
   4.867688e+06  -8.344919e+06
   8.120835e+06  -2.013244e+06
   5.885058e+06   5.576369e+06
   4.231627e+05   7.666295e+06
  -3.669027e+06   2.091162e+06
  -2.313997e+06  -5.268206e+06
   3.226818e+06  -6.031076e+06
   6.663221e+06   1.046657e+06
   3.655330e+06   8.741680e+06
  -3.418081e+06   9.942706e+06
  -8.733360e+06   4.589009e+06
  -8.930674e+06  -2.368355e+06
  -4.866094e+06  -6.619548e+06
   1.022327e+05  -6.864921e+06
   2.338435e+06  -4.413011e+06
   6.966301e+05  -2.253028e+06
  -1.584940e+06  -2.663933e+06
   1.167447e+05  -4.364990e+06
   5.594007e+06  -3.709326e+06
   8.976280e+06   2.970332e+05
   5.942474e+06   4.187891e+06
  -5.193916e+05   4.470814e+06
  -3.965572e+06   1.802081e+06
  -2.262482e+06  -7.320427e+05
   1.244441e+06  -1.427325e+06
   2.933697e+06  -3.310805e+05
   2.178998e+06   2.030751e+06
   7.415414e+04   4.043779e+06
  -2.003948e+06   3.131783e+06
  -2.464692e+06  -7.146332e+05
  -8.022786e+05  -3.228926e+06
   8.602069e+05  -1.027101e+06
  -3.331128e+04   2.781995e+06
  -2.369554e+06   2.211062e+06
  -2.121882e+06  -2.676128e+06
   1.855140e+06  -5.023017e+06
   5.356848e+06  -6.587230e+05
   3.864339e+06   5.791138e+06
  -1.745245e+06   6.910125e+06
  -6.327101e+06   1.744354e+06
  -6.122689e+06  -4.026719e+06
  -1.786625e+06  -5.418626e+06
   3.090152e+06  -2.577462e+06
   4.894826e+06   1.210652e+06
   2.409585e+06   3.033993e+06
  -1.948171e+06   1.926434e+06
  -3.881610e+06  -7.737957e+05
  -1.712884e+06  -2.284491e+06
   1.469772e+06  -1.133998e+06
   1.658620e+06   8.979898e+05
  -8.432371e+05   9.530401e+05
  -2.050384e+06  -1.065645e+06
   1.737857e+05  -2.481008e+06
   3.487680e+06  -1.502891e+06
   4.355559e+06   9.721665e+05
   1.964475e+06   3.277148e+06
  -1.871052e+06   4.586645e+06
  -4.942379e+06   4.143150e+06
  -5.736426e+06   1.165410e+06
  -3.810827e+06  -3.191556e+06
  -5.041845e+05  -5.646955e+06
   1.630226e+06  -4.341647e+06
   1.383748e+06  -1.405872e+06
   3.086709e+05  -2.441419e+05
   5.758266e+05  -1.132208e+06
   2.089329e+06  -1.420486e+06
   2.869218e+06   3.128545e+05
   1.781524e+06   2.339745e+06
  -3.149025e+05   2.306331e+06
  -1.826974e+06   1.211941e+05
  -1.714022e+06  -2.266248e+06
   1.720801e+05  -2.930386e+06
   2.782356e+06  -1.333810e+06
   4.030908e+06   1.485877e+06
   2.589458e+06   3.583316e+06
  -3.064768e+05   3.623204e+06
  -2.041598e+06   2.163230e+06
  -1.853010e+06   9.402445e+05
  -1.599497e+06   7.167490e+05
  -2.789437e+06   5.212327e+05
  -4.163673e+06  -7.424397e+05
  -3.333226e+06  -2.715936e+06
  -5.711064e+04  -4.039881e+06
   3.284519e+06  -3.751083e+06
   4.255012e+06  -1.873862e+06
   2.584316e+06   6.645724e+05
   2.752544e+04   2.290355e+06
  -1.291574e+06   1.808302e+06
  -5.425815e+05  -1.178718e+05
   1.163990e+06  -1.237193e+06
   1.842742e+06  -3.149781e+05
   7.824348e+05   1.189059e+06
  -5.977003e+05   1.099514e+06
  -5.236599e+05  -3.571306e+05
   8.616879e+05  -8.154573e+05
   1.734334e+06   8.981843e+05
   8.723562e+05   3.109926e+06
  -1.134056e+06   3.427854e+06
  -2.874145e+06   1.460782e+06
  -3.405019e+06  -1.185615e+06
  -2.475955e+06  -2.789113e+06
  -4.944625e+05  -2.718265e+06
   1.313718e+06  -1.445400e+06
   1.611071e+06  -1.524618e+05
   4.878747e+05   5.769836e+04
  -3.409679e+05  -7.480434e+05
   4.039755e+05  -1.264762e+06
   1.815015e+06  -5.096211e+05
   1.939126e+06   8.524410e+05
   3.807957e+05   1.342901e+06
  -1.147545e+06   5.605257e+05
  -9.342522e+05  -4.525062e+05
   7.891232e+05  -5.977531e+05
   2.225993e+06   2.185116e+05
   1.865469e+06   1.356340e+06
  -1.890775e+05   2.048503e+06
  -2.331145e+06   1.679961e+06
  -2.772123e+06   2.382016e+05
  -1.163288e+06  -1.244567e+06
   9.257192e+05  -1.399206e+06
   1.477873e+06  -1.247015e+05
   1.276882e+05   1.040983e+06
  -1.507321e+06   6.779102e+05
  -1.687125e+06  -7.776853e+05
  -3.628317e+05  -1.628052e+06
   1.038610e+06  -1.003761e+06
   1.247676e+06   2.516738e+05
   2.833427e+05   7.435817e+05
  -7.488581e+05   4.272856e+04
  -6.864719e+05  -1.053527e+06
   6.250168e+05  -1.389639e+06
   2.015586e+06  -4.672848e+05
   1.984205e+06   1.104847e+06
   3.294120e+05   2.056850e+06
  -1.441861e+06   1.591687e+06
  -1.703229e+06   1.935289e+05
  -5.040262e+05  -8.547103e+05
   6.542040e+05  -7.980618e+05
   6.699141e+05  -6.386606e+04
  -8.251609e+04   4.191318e+05
  -5.371761e+05   2.762766e+05
  -2.357601e+05  -6.908584e+04
   3.701387e+05  -1.738563e+03
   5.203842e+05   5.948466e+05
  -1.779513e+05   1.151562e+06
  -1.369898e+06   8.702139e+05
  -2.056187e+06  -4.480822e+05
  -1.406412e+06  -1.960916e+06
   2.697879e+05  -2.417991e+06
   1.639748e+06  -1.421451e+06
   1.724068e+06   1.152840e+05
   9.195956e+05   9.470468e+05
   3.449557e+05   7.707077e+05
   4.195343e+05   3.126405e+05
   5.375950e+05   3.102840e+05
   5.455430e+04   7.150959e+05
  -8.656110e+05   8.862834e+05
  -1.456539e+06   3.333364e+05
  -1.085840e+06  -7.470930e+05
   2.354107e+05  -1.503836e+06
   1.737605e+06  -1.075287e+06
   2.250477e+06   5.147954e+05
   1.116052e+06   2.097592e+06
  -1.001935e+06   2.318271e+06
  -2.503959e+06   1.003442e+06
  -2.344055e+06  -6.423433e+05
  -1.007609e+06  -1.337141e+06
   1.674267e+05  -1.003023e+06
   4.401155e+05  -5.759662e+05
   1.917644e+05  -7.552060e+05
   1.893000e+05  -1.247594e+06
   6.878060e+05  -1.220456e+06
   1.267496e+06  -2.681731e+05
   1.294127e+06   1.115022e+06
   5.038333e+05   1.904947e+06
  -6.611249e+05   1.418842e+06
  -1.284659e+06  -1.850645e+04
  -7.916846e+05  -1.265999e+06
   3.760377e+05  -1.369121e+06
   1.105251e+06  -4.226558e+05
   7.715017e+05   6.307769e+05
  -9.742194e+04   1.012110e+06
  -4.778368e+05   7.645375e+05
  -5.979750e+04   4.368313e+05
   4.131965e+05   3.626178e+05
   4.323737e+04   3.913629e+05
  -1.122076e+06   1.882539e+05
  -2.009462e+06  -3.689362e+05
  -1.582291e+06  -1.044679e+06
   3.202780e+04  -1.387163e+06
   1.559332e+06  -1.075997e+06
   1.806333e+06  -2.639324e+05
   8.254952e+05   4.494943e+05
  -2.542113e+05   5.293165e+05
  -4.905662e+05   4.331558e+04
   2.895600e+03  -3.882979e+05
   4.678482e+05  -2.403141e+05
   4.654894e+05   3.542217e+05
   1.957762e+05   7.461083e+05
   4.551256e+04   4.897224e+05
   1.388000e+05  -1.213950e+05
   3.113569e+05  -3.269800e+05
   2.765469e+05   2.318085e+05
  -1.815808e+05   9.983712e+05
  -9.201414e+05   1.034165e+06
  -1.318088e+06   1.074717e+05
  -7.806836e+05  -9.415517e+05
   4.468354e+05  -1.088200e+06
   1.241461e+06  -2.634780e+05
   7.150739e+05   6.025438e+05
  -7.031375e+05   6.372545e+05
  -1.596511e+06  -1.057549e+05
  -1.035985e+06  -8.637492e+05
   4.599951e+05  -1.002372e+06
   1.507420e+06  -5.023918e+05
   1.257528e+06   1.823532e+05
   1.447169e+05   5.221113e+05
  -6.466186e+05   2.721664e+05
  -3.624306e+05  -2.927027e+05
   6.178486e+05  -4.941867e+05
   1.183136e+06   1.356587e+05
   6.147185e+05   1.217212e+06
  -6.694636e+05   1.684869e+06
  -1.528583e+06   8.333813e+05
  -1.242538e+06  -8.004622e+05
  -1.603743e+05  -1.809681e+06
   7.676461e+05  -1.300437e+06
   9.258284e+05   1.742053e+05
   4.283190e+05   1.196982e+06
  -2.095584e+05   9.770722e+05
  -5.544704e+05   8.210787e+04
  -4.809152e+05  -3.891238e+05
  -1.852324e+05  -1.435550e+05
  -4.062152e+04   9.956854e+04
  -2.386300e+05  -2.945186e+05
  -4.767937e+05  -9.768612e+05
  -1.958989e+05  -1.084978e+06
   6.940667e+05  -3.783303e+05
   1.474796e+06   4.983248e+05
   1.291268e+06   8.614273e+05
   1.722783e+05   6.991690e+05
  -8.868821e+05   4.055357e+05
  -9.975083e+05   1.716790e+05
  -3.405508e+05  -5.333271e+04
   1.593818e+05  -2.233618e+05
   1.355485e+04  -2.105273e+05
  -2.922314e+05  -1.070330e+05
  -3.887756e+04  -1.389873e+05
   6.979038e+05  -2.208845e+05
   1.049784e+06   4.230834e+04
   3.838435e+05   7.106960e+05
  -8.968651e+05   1.156930e+06
  -1.712679e+06   7.010161e+05
  -1.383652e+06  -4.851073e+05
  -2.382804e+05  -1.424648e+06
   7.964838e+05  -1.355533e+06
   1.069941e+06  -5.029219e+05
   6.602797e+05   2.583960e+05
   1.173271e+05   3.654797e+05
  -9.459050e+04   5.877295e+04
   7.034574e+04  -2.708607e+04
   3.014190e+05   3.662577e+05
   2.390656e+05   8.141362e+05
  -2.000815e+05   6.754702e+05
  -6.902760e+05  -1.475454e+05
  -7.157633e+05  -9.878442e+05
  -7.365700e+04  -1.044043e+06
   7.790409e+05  -2.203417e+05
   1.025300e+06   7.630903e+05
   3.159522e+05   1.105061e+06
  -7.379754e+05   6.543389e+05
  -1.115469e+06  -1.061294e+05
  -5.069196e+05  -6.180944e+05
   3.071274e+05  -6.592159e+05
   3.759754e+05  -3.525079e+05
  -2.659681e+05  -1.395119e+04
  -6.583141e+05   2.544401e+04
  -1.345909e+05  -3.116053e+05
   8.422866e+05  -6.670907e+05
   1.258571e+06  -5.228002e+05
   7.423304e+05   1.881916e+05
  -1.182316e+05   8.659475e+05
  -5.617090e+05   8.373715e+05
  -4.207729e+05   1.373291e+05
  -3.930665e+04  -4.916895e+05
   2.550673e+05  -4.260709e+05
   3.571680e+05   1.670720e+05
   2.420886e+05   5.864610e+05
  -6.986502e+04   4.182785e+05
  -3.938716e+05  -5.825945e+04
  -4.640453e+05  -2.846139e+05
  -2.381115e+05  -9.396318e+04
   2.089897e+04   1.445858e+05
   7.302907e+04   2.514314e+04
   8.392263e+03  -3.710669e+05
   9.108355e+04  -5.493797e+05
   3.426133e+05  -1.947719e+05
   4.437738e+05   4.117455e+05
   1.246787e+05   6.657718e+05
  -4.251429e+05   3.052723e+05
  -6.582513e+05  -3.051555e+05
  -2.404378e+05  -5.888492e+05
   5.143863e+05  -3.542197e+05
   8.813119e+05   1.013085e+05
   4.709964e+05   3.906908e+05
  -3.071288e+05   3.881154e+05
  -6.487935e+05   2.050799e+05
  -2.441358e+05   7.440361e+03
   3.661309e+05  -5.937130e+04
   4.196492e+05   8.170770e+04
  -1.806147e+05   3.020687e+05
  -7.687417e+05   2.668805e+05
