
 $NMID
 id='ANONYMOUS ', fmtdat='(2E16.6)'
 volume=1.0
 tramp=1.0
 $END
   2.708917e+07   6.861757e+05
   1.755775e+07   1.427335e+07
  -1.262079e+06   1.763800e+07
  -1.260520e+07   1.013943e+07
  -9.656180e+06  -2.904536e+05
   5.427676e+04  -4.925678e+06
   5.550139e+06  -1.561996e+06
   3.411217e+06   4.691211e+06
  -2.018269e+06   6.854689e+06
  -5.202516e+06   2.648027e+06
  -4.063293e+06  -3.566397e+06
  -3.007614e+05  -5.378906e+06
   2.502229e+06  -1.119906e+06
   1.699562e+06   4.350501e+06
  -1.903559e+06   5.000062e+06
  -4.469078e+06   1.059110e+05
  -2.962456e+06  -5.404477e+06
   1.584881e+06  -6.542116e+06
   5.229142e+06  -3.002418e+06
   5.212005e+06   1.578696e+06
   2.359181e+06   3.785213e+06
  -2.497594e+05   3.225033e+06
  -4.009725e+05   1.975300e+06
   1.238256e+06   2.058875e+06
   1.796469e+06   3.396953e+06
  -7.685392e+05   3.990936e+06
  -4.952388e+06   2.227573e+06
  -6.676289e+06  -1.066371e+06
  -3.738251e+06  -3.282081e+06
   1.256841e+06  -2.757134e+06
   3.501145e+06  -3.680306e+05
   1.311100e+06   1.607842e+06
  -2.304177e+06   1.598185e+06
  -3.468033e+06  -3.202184e+05
  -1.578696e+06  -2.672531e+06
   9.009125e+05  -3.442662e+06
   1.702402e+06  -1.672869e+06
   7.885686e+05   1.086848e+06
  -3.487761e+05   1.830237e+06
  -3.940738e+05  -3.865939e+05
   7.609308e+05  -2.744126e+06
   1.967251e+06  -1.892121e+06
   1.725055e+06   1.515524e+06
  -2.799437e+05   3.278211e+06
  -2.401131e+06   9.537537e+05
  -2.325607e+06  -2.947478e+06
   4.735163e+05  -4.042676e+06
   3.790505e+06  -1.206665e+06
   4.564049e+06   2.602633e+06
   1.836814e+06   3.991332e+06
  -2.177579e+06   2.327365e+06
  -4.059152e+06  -4.688385e+05
  -2.378374e+06  -2.095508e+06
   9.600115e+05  -1.602731e+06
   2.667409e+06   1.497140e+05
   1.436483e+06   1.322926e+06
  -8.518056e+05   8.193971e+05
  -1.442518e+06  -5.902540e+05
   1.159103e+05  -1.164032e+06
   1.621326e+06  -2.245022e+05
   9.736731e+05   1.137234e+06
  -1.334782e+06   1.404695e+06
  -2.800494e+06   1.598092e+05
  -1.641527e+06  -1.784019e+06
   1.420527e+06  -3.124477e+06
   3.974322e+06  -2.753564e+06
   4.192569e+06  -4.600938e+05
   2.308680e+06   2.502198e+06
   1.007282e+05   4.091007e+06
  -9.233104e+05   3.414149e+06
  -8.178226e+05   1.717671e+06
  -7.488504e+05   8.273445e+05
  -1.444163e+06   8.899747e+05
  -2.347093e+06   4.794147e+05
  -2.334262e+06  -1.093172e+06
  -1.009295e+06  -2.529908e+06
   8.556547e+05  -2.090574e+06
   1.963826e+06   1.694917e+05
   1.463526e+06   2.311784e+06
  -4.071875e+05   2.508397e+06
  -2.332950e+06   7.220449e+05
  -2.815055e+06  -1.512189e+06
  -1.512912e+06  -2.616431e+06
   3.309704e+05  -2.242067e+06
   1.196887e+06  -1.279080e+06
   1.016494e+06  -7.670239e+05
   1.118769e+06  -8.126921e+05
   2.294591e+06  -6.050237e+05
   3.457817e+06   5.343271e+05
   2.779355e+06   2.262318e+06
  -2.596313e+03   3.429641e+06
  -2.945861e+06   3.081764e+06
  -3.758145e+06   1.270390e+06
  -2.056609e+06  -8.962270e+05
   3.595503e+05  -1.973169e+06
   1.348030e+06  -1.318177e+06
   4.054732e+05   2.106930e+05
  -1.099528e+06   9.533032e+05
  -1.496208e+06   1.982335e+05
  -5.053732e+05  -9.524344e+05
   6.365240e+05  -9.094991e+05
   6.223378e+05   3.244947e+05
  -5.369817e+05   1.014547e+06
  -1.591222e+06  -1.632384e+05
  -1.325161e+06  -2.350659e+06
   3.510700e+05  -3.337868e+06
   2.368650e+06  -1.962170e+06
   3.319694e+06   7.260562e+05
   2.484069e+06   2.630039e+06
   4.453002e+05   2.594455e+06
  -1.255887e+06   1.217181e+06
  -1.432191e+06   1.068501e+04
  -4.180585e+05  -6.353904e+04
   2.835000e+05   6.448513e+05
  -2.904360e+05   1.015924e+06
  -1.426322e+06   4.154914e+05
  -1.604164e+06  -6.338132e+05
  -3.846147e+05  -1.075248e+06
   9.704445e+05  -5.046762e+05
   9.030510e+05   4.174403e+05
  -6.509657e+05   6.919735e+05
  -2.107250e+06  -4.899033e+04
  -1.849734e+06  -1.262560e+06
   1.088771e+05  -1.973469e+06
   2.104613e+06  -1.532791e+06
   2.430751e+06  -1.792969e+05
   9.707097e+05   1.028528e+06
  -7.556252e+05   1.085197e+06
  -1.141878e+06   7.317285e+04
  -3.339007e+04  -8.146043e+05
   1.277800e+06  -5.280809e+05
   1.455792e+06   6.477903e+05
   3.915918e+05   1.417891e+06
  -8.456960e+05   9.761571e+05
  -1.132981e+06  -1.105643e+05
  -3.425709e+05  -6.221489e+05
   5.807272e+05  -5.872079e+04
   5.399590e+05   8.928738e+05
  -5.938391e+05   1.149395e+06
  -1.741811e+06   3.087560e+05
  -1.649080e+06  -1.011563e+06
  -2.370819e+05  -1.753184e+06
   1.229969e+06  -1.341020e+06
   1.458693e+06  -1.770594e+05
   4.672968e+05   7.314930e+05
  -5.610712e+05   7.087730e+05
  -6.429285e+05   1.868644e+04
   4.988921e+04  -4.901289e+05
   5.908037e+05  -3.282647e+05
   3.874294e+05   1.395716e+05
  -2.559171e+05   1.825521e+05
  -5.231820e+05  -4.002033e+05
   7.559292e+04  -9.847825e+05
   1.167359e+06  -7.538120e+05
   1.762274e+06   4.125337e+05
   1.159893e+06   1.710613e+06
  -2.983756e+05   2.103597e+06
  -1.484667e+06   1.273070e+06
  -1.591378e+06  -9.137373e+04
  -8.884801e+05  -9.531577e+05
  -2.763709e+05  -8.875405e+05
  -2.197327e+05  -3.822653e+05
  -3.390591e+05  -2.039215e+05
  -3.102482e+04  -5.294175e+05
   7.305159e+05  -7.780384e+05
   1.306296e+06  -3.192909e+05
   1.011486e+06   7.148560e+05
  -1.992242e+05   1.416429e+06
  -1.556019e+06   9.653109e+05
  -1.982846e+06  -4.851030e+05
  -9.847219e+05  -1.832056e+06
   8.189104e+05  -1.994916e+06
   2.128465e+06  -8.972727e+05
   2.085998e+06   5.133910e+05
   9.917439e+05   1.208780e+06
  -1.155847e+05   1.010469e+06
  -5.119192e+05   5.858271e+05
  -3.469992e+05   5.958230e+05
  -2.534836e+05   9.522703e+05
  -5.789697e+05   9.663392e+05
  -1.043473e+06   1.861997e+05
  -1.062486e+06  -1.002029e+06
  -3.710423e+05  -1.663505e+06
   6.237428e+05  -1.206410e+06
   1.126410e+06   2.963554e+04
   6.935586e+05   1.071875e+06
  -2.771918e+05   1.184283e+06
  -8.947043e+05   4.545097e+05
  -6.732462e+05  -4.151326e+05
  -1.077384e+04  -8.134216e+05
   3.078433e+05  -6.960583e+05
   2.234815e+04  -4.402061e+05
  -3.169671e+05  -3.470450e+05
  -8.701423e+03  -3.474239e+05
   9.334151e+05  -1.613219e+05
   1.670475e+06   3.287818e+05
   1.350234e+06   8.985454e+05
   2.999802e+04   1.156092e+06
  -1.275643e+06   8.846111e+05
  -1.547811e+06   2.478997e+05
  -7.561088e+05  -3.101994e+05
   1.796263e+05  -4.108556e+05
   4.064780e+05  -7.495214e+04
  -3.098030e+04   2.639450e+05
  -4.409296e+05   1.674059e+05
  -3.788366e+05  -3.184598e+05
  -6.368088e+04  -6.548683e+05
   5.011842e+04  -4.129543e+05
  -1.447715e+05   1.537408e+05
  -3.547022e+05   3.283956e+05
  -2.503727e+05  -2.020999e+05
   2.297454e+05  -8.764303e+05
   8.168259e+05  -8.548506e+05
   1.037517e+06  -2.485050e+04
   5.545197e+05   8.179047e+05
  -4.004215e+05   8.538115e+05
  -1.009592e+06   1.276146e+05
  -5.824920e+05  -5.648702e+05
   6.096122e+05  -5.529054e+05
   1.426002e+06   9.914004e+04
   9.856091e+05   7.805676e+05
  -3.632450e+05   9.411706e+05
  -1.369325e+06   5.023524e+05
  -1.172817e+06  -1.504290e+05
  -1.483351e+05  -4.860436e+05
   5.682747e+05  -2.590725e+05
   2.860772e+05   2.329662e+05
  -5.791039e+05   3.620526e+05
  -9.997291e+05  -2.125256e+05
  -4.139965e+05  -1.088842e+06
   7.142864e+05  -1.388336e+06
   1.382525e+06  -6.079162e+05
   1.041154e+06   7.671013e+05
   6.270680e+04   1.596138e+06
  -7.237620e+05   1.149829e+06
  -8.285038e+05  -1.353716e+05
  -3.892997e+05  -1.063639e+06
   1.563392e+05  -9.004651e+05
   4.731113e+05  -8.753263e+04
   4.536838e+05   3.788498e+05
   2.075884e+05   1.623822e+05
   2.184563e+04  -1.077537e+05
   1.287260e+05   2.079347e+05
   3.576110e+05   8.447359e+05
   1.982915e+05   9.820765e+05
  -5.450616e+05   3.378212e+05
  -1.280958e+06  -4.895817e+05
  -1.160936e+06  -8.106830e+05
  -1.377003e+05  -6.043015e+05
   8.411166e+05  -3.032174e+05
   9.019893e+05  -1.314918e+05
   2.566299e+05   1.390876e+04
  -1.671345e+05   1.778696e+05
   3.786115e+04   2.314227e+05
   3.110293e+05   1.583150e+05
   5.177505e+02   1.201460e+05
  -6.836740e+05   1.205717e+05
  -8.967664e+05  -9.733209e+04
  -2.057621e+05  -5.965132e+05
   8.817438e+05  -9.106713e+05
   1.456256e+06  -4.989983e+05
   1.085616e+06   4.967819e+05
   1.175617e+05   1.251951e+06
  -7.231307e+05   1.124899e+06
  -9.365564e+05   3.451902e+05
  -5.629650e+05  -2.928006e+05
  -5.702398e+04  -3.136857e+05
   1.344180e+05   8.026525e+03
  -5.109528e+04   7.267531e+04
  -2.835376e+05  -3.171682e+05
  -2.013388e+05  -7.226823e+05
   2.127014e+05  -5.593840e+05
   5.947335e+05   2.070562e+05
   5.263386e+05   9.232254e+05
  -5.478400e+04   8.830705e+05
  -7.100937e+05   8.241911e+04
  -8.186916e+05  -7.618243e+05
  -1.819049e+05  -9.576910e+05
   6.677048e+05  -4.825394e+05
   9.245554e+05   1.530075e+05
   3.848700e+05   5.041469e+05
  -2.765835e+05   4.987184e+05
  -2.840930e+05   2.874986e+05
   2.835734e+05   6.117875e+04
   5.848764e+05   2.077715e+04
   8.479821e+04   2.594843e+05
  -7.614776e+05   5.489304e+05
  -1.073517e+06   4.542489e+05
  -5.865247e+05  -1.350343e+05
   1.409288e+05  -7.198653e+05
   4.661491e+05  -6.882230e+05
   3.008924e+05  -7.096936e+04
  -2.579684e+04   4.447441e+05
  -2.439188e+05   3.222750e+05
  -2.924038e+05  -2.150281e+05
  -1.737268e+05  -5.190377e+05
   8.262254e+04  -3.066132e+05
   3.304407e+05   9.167242e+04
   3.787752e+05   2.259796e+05
   2.092269e+05   5.865002e+04
   5.708007e+03  -7.765402e+04
  -8.184285e+04   6.222689e+04
  -1.074085e+05   3.378167e+05
  -1.965885e+05   3.871268e+05
  -3.164819e+05   4.615523e+04
  -2.778994e+05  -4.245978e+05
   2.134526e+04  -5.680427e+05
   4.036015e+05  -2.107105e+05
   5.104311e+05   3.229123e+05
   1.469935e+05   5.363318e+05
  -4.438403e+05   2.778132e+05
  -7.197957e+05  -1.466585e+05
  -3.723297e+05  -3.581850e+05
   2.748149e+05  -2.803323e+05
   5.447943e+05  -9.965641e+04
   1.668824e+05   4.023910e+03
  -3.690572e+05  -2.424437e+04
  -3.682601e+05  -1.574233e+05
   2.283974e+05  -2.774509e+05
   7.578594e+05  -1.724255e+05
