
 $NMID
 id='ANONYMOUS ', fmtdat='(2E16.6)'
 volume=1.0
 tramp=1.0
 $END
   4.528614e+07   9.771704e+05
   2.714695e+07   2.705866e+07
  -5.369430e+06   2.994465e+07
  -2.168012e+07   1.286448e+07
  -1.366789e+07  -4.155977e+06
   1.976146e+06  -7.506149e+06
   8.051666e+06  -2.692032e+04
   3.117701e+06   7.657339e+06
  -4.376404e+06   8.464927e+06
  -7.866324e+06   2.363785e+06
  -5.941342e+06  -5.265835e+06
  -6.425570e+05  -7.521532e+06
   3.535245e+06  -2.122995e+06
   2.437726e+06   5.185558e+06
  -2.952091e+06   6.112936e+06
  -6.556732e+06  -7.328363e+05
  -3.898729e+06  -8.397802e+06
   2.968706e+06  -9.822325e+06
   8.340619e+06  -4.744176e+06
   8.722938e+06   2.051028e+06
   4.856517e+06   6.258210e+06
   8.548546e+04   6.563157e+06
  -2.020638e+06   4.277856e+06
  -4.180908e+05   2.293658e+06
   1.712727e+06   2.749729e+06
  -6.710900e+04   4.399344e+06
  -5.505956e+06   3.765217e+06
  -8.872140e+06  -1.265940e+05
  -5.912973e+06  -3.978939e+06
   4.813439e+05  -4.363383e+06
   3.925958e+06  -1.782761e+06
   2.210854e+06   7.792674e+05
  -1.348523e+06   1.505966e+06
  -3.035876e+06   3.447831e+05
  -2.203916e+06  -2.076411e+06
  -7.974930e+04  -4.039639e+06
   1.910022e+06  -3.074674e+06
   2.332201e+06   6.957909e+05
   7.787218e+05   3.096806e+06
  -7.880545e+05   9.064338e+05
   3.787170e+04  -2.825365e+06
   2.299083e+06  -2.281848e+06
   2.192669e+06   2.525543e+06
  -1.554648e+06   4.964926e+06
  -5.087725e+06   8.664972e+05
  -3.926986e+06  -5.445561e+06
   1.420602e+06  -6.750203e+06
   6.090153e+06  -1.901353e+06
   6.167859e+06   3.749976e+06
   1.983792e+06   5.295129e+06
  -2.962727e+06   2.684840e+06
  -4.919663e+06  -1.001839e+06
  -2.537577e+06  -2.908095e+06
   1.811197e+06  -1.981218e+06
   3.832088e+06   5.997115e+05
   1.778719e+06   2.162677e+06
  -1.390257e+06   1.161343e+06
  -1.689134e+06  -8.295527e+05
   7.464085e+05  -1.020564e+06
   2.070200e+06   8.738283e+05
   3.170065e+04   2.375844e+06
  -3.254075e+06   1.623695e+06
  -4.280997e+06  -7.277558e+05
  -2.059258e+06  -3.102720e+06
   1.714947e+06  -4.551119e+06
   4.792306e+06  -4.198451e+06
   5.620941e+06  -1.273099e+06
   3.796096e+06   3.053045e+06
   6.328209e+05   5.548547e+06
  -1.448774e+06   4.357880e+06
  -1.302078e+06   1.507560e+06
  -3.593125e+05   3.237854e+05
  -6.531945e+05   1.138378e+06
  -2.112235e+06   1.395908e+06
  -2.864307e+06  -3.245790e+05
  -1.790151e+06  -2.349373e+06
   3.161187e+05  -2.329520e+06
   1.870814e+06  -1.421327e+05
   1.780408e+06   2.260971e+06
  -1.166919e+05   2.936908e+06
  -2.738608e+06   1.367426e+06
  -4.002486e+06  -1.395389e+06
  -2.614986e+06  -3.455701e+06
   2.067392e+05  -3.534162e+06
   1.914089e+06  -2.158766e+06
   1.760088e+06  -9.918145e+05
   1.550675e+06  -7.877571e+05
   2.765328e+06  -6.220750e+05
   4.175778e+06   6.087636e+05
   3.406362e+06   2.612461e+06
   1.696437e+05   4.037317e+06
  -3.191911e+06   3.834366e+06
  -4.215539e+06   1.960583e+06
  -2.586702e+06  -6.271461e+05
  -5.002459e+04  -2.291737e+06
   1.267350e+06  -1.820020e+06
   5.394836e+05   1.148477e+05
  -1.140338e+06   1.259726e+06
  -1.825350e+06   3.610474e+05
  -7.988506e+05  -1.159118e+06
   5.806024e+05  -1.113962e+06
   5.549871e+05   3.446343e+05
  -8.156592e+05   8.787877e+05
  -1.775682e+06  -7.774301e+05
  -1.032158e+06  -3.051328e+06
   9.631315e+05  -3.511703e+06
   2.824081e+06  -1.629011e+06
   3.489586e+06   1.053940e+06
   2.601036e+06   2.747448e+06
   5.763658e+05   2.736686e+06
  -1.287434e+06   1.482084e+06
  -1.613554e+06   1.855790e+05
  -4.898732e+05  -4.515736e+04
   3.622109e+05   7.390790e+05
  -3.605269e+05   1.269906e+06
  -1.786487e+06   5.611135e+05
  -1.959291e+06  -7.849510e+05
  -4.274913e+05  -1.324353e+06
   1.130669e+06  -5.977061e+05
   9.603628e+05   4.290870e+05
  -7.694271e+05   6.424730e+05
  -2.257568e+06  -1.375676e+05
  -1.935706e+06  -1.314814e+06
   1.234011e+05  -2.081105e+06
   2.296312e+06  -1.760177e+06
   2.773632e+06  -3.165431e+05
   1.197666e+06   1.207058e+06
  -8.808707e+05   1.414292e+06
  -1.460878e+06   1.644061e+05
  -1.496546e+05  -1.028974e+06
   1.486928e+06  -7.165668e+05
   1.712498e+06   7.267161e+05
   4.201689e+05   1.621615e+06
  -1.005202e+06   1.048685e+06
  -1.263857e+06  -2.032211e+05
  -3.171427e+05  -7.345020e+05
   7.411359e+05  -6.768568e+04
   7.124440e+05   1.032762e+06
  -5.912247e+05   1.404053e+06
  -2.004768e+06   5.161178e+05
  -2.011950e+06  -1.054866e+06
  -3.847094e+05  -2.047543e+06
   1.395642e+06  -1.632478e+06
   1.698852e+06  -2.447958e+05
   5.336086e+05   8.407439e+05
  -6.315088e+05   8.208886e+05
  -6.766743e+05   7.920574e+04
   6.798256e+04  -4.373013e+05
   5.448325e+05  -3.027789e+05
   2.594898e+05   7.189585e+04
  -3.634511e+05   3.385456e+04
  -5.473597e+05  -5.672986e+05
   1.353007e+05  -1.157424e+06
   1.344524e+06  -9.119337e+05
   2.070721e+06   3.914037e+05
   1.459549e+06   1.924480e+06
  -2.070612e+05   2.431168e+06
  -1.608753e+06   1.476758e+06
  -1.742025e+06  -6.430913e+04
  -9.593203e+05  -9.376383e+05
  -3.648913e+05  -7.876700e+05
  -4.123178e+05  -3.135688e+05
  -5.329521e+05  -2.871336e+05
  -7.388551e+04  -7.040887e+05
   8.388990e+05  -9.143480e+05
   1.454490e+06  -3.800403e+05
   1.117655e+06   7.245933e+05
  -1.914740e+05   1.526604e+06
  -1.715123e+06   1.131928e+06
  -2.273360e+06  -4.543992e+05
  -1.181631e+06  -2.070457e+06
   9.300101e+05  -2.350423e+06
   2.474430e+06  -1.082030e+06
   2.373754e+06   5.699614e+05
   1.062405e+06   1.316292e+06
  -1.352547e+05   1.026401e+06
  -4.395400e+05   5.997359e+05
  -1.910132e+05   7.549067e+05
  -1.632760e+05   1.240151e+06
  -6.511294e+05   1.232228e+06
  -1.255456e+06   3.005316e+05
  -1.322207e+06  -1.083219e+06
  -5.528809e+05  -1.895057e+06
   6.266820e+05  -1.438036e+06
   1.289124e+06  -1.749830e+04
   8.312173e+05   1.242210e+06
  -3.309086e+05   1.382556e+06
  -1.087752e+06   4.663409e+05
  -7.922956e+05  -5.939231e+05
   5.661459e+04  -1.009615e+06
   4.439321e+05  -7.841757e+05
   4.382914e+04  -4.467201e+05
  -4.196227e+05  -3.549064e+05
  -5.136239e+04  -3.916638e+05
   1.114006e+06  -2.213400e+05
   2.015575e+06   3.115931e+05
   1.613385e+06   9.993704e+05
   1.550797e+04   1.385432e+06
  -1.521667e+06   1.118291e+06
  -1.799970e+06   3.196468e+05
  -8.452143e+05  -4.169441e+05
   2.342695e+05  -5.322215e+05
   4.880953e+05  -6.220176e+04
   5.278322e+03   3.804620e+05
  -4.657477e+05   2.495008e+05
  -4.737704e+05  -3.425529e+05
  -2.054781e+05  -7.424257e+05
  -4.943725e+04  -4.877136e+05
  -1.384814e+05   1.312891e+05
  -3.123810e+05   3.417829e+05
  -2.850585e+05  -2.242096e+05
   1.611617e+05  -1.006564e+06
   8.936160e+05  -1.058113e+06
   1.304816e+06  -1.386050e+05
   7.953651e+05   9.202710e+05
  -4.170604e+05   1.092765e+06
  -1.227948e+06   2.886684e+05
  -7.295362e+05  -5.876288e+05
   6.858103e+05  -6.590815e+05
   1.607504e+06   6.020694e+04
   1.073399e+06   8.389898e+05
  -4.275272e+05   1.026276e+06
  -1.503049e+06   5.551605e+05
  -1.274958e+06  -1.451709e+05
  -1.628856e+05  -5.228436e+05
   6.408421e+05  -2.943430e+05
   3.684728e+05   2.801067e+05
  -6.094419e+05   5.053231e+05
  -1.186039e+06  -1.123127e+05
  -6.374775e+05  -1.205120e+06
   6.369213e+05  -1.698789e+06
   1.513491e+06  -8.660848e+05
   1.263876e+06   7.740956e+05
   2.046162e+05   1.811387e+06
  -7.379128e+05   1.327841e+06
  -9.357529e+05  -1.456347e+05
  -4.662479e+05  -1.189774e+06
   1.784629e+05  -9.914120e+05
   5.522461e+05  -1.004797e+05
   4.974455e+05   3.807309e+05
   1.952347e+05   1.429855e+05
   3.627986e+04  -1.035104e+05
   2.386546e+05   2.822847e+05
   4.997724e+05   9.643386e+05
   2.312936e+05   1.086265e+06
  -6.776601e+05   4.007002e+05
  -1.492305e+06  -4.628468e+05
  -1.323640e+06  -8.328552e+05
  -1.917148e+05  -6.951763e+05
   8.850382e+05  -4.263783e+05
   9.986836e+05  -1.990821e+05
   3.382928e+05   3.954409e+04
  -1.565198e+05   2.265206e+05
  -1.727609e+03   2.172076e+05
   3.025257e+05   1.065189e+05
   3.913982e+04   1.379582e+05
  -7.017881e+05   2.331911e+05
  -1.051268e+06  -1.871437e+04
  -3.905028e+05  -6.981254e+05
   8.766730e+05  -1.174241e+06
   1.691713e+06  -7.397972e+05
   1.386844e+06   4.541408e+05
   2.699414e+05   1.422081e+06
  -7.619526e+05   1.375407e+06
  -1.058004e+06   5.245151e+05
  -6.677909e+05  -2.475817e+05
  -1.230252e+05  -3.622223e+05
   9.904207e+04  -5.457361e+04
  -6.865243e+04   3.501500e+04
  -3.153411e+05  -3.581257e+05
  -2.626499e+05  -8.106371e+05
   1.852018e+05  -6.794347e+05
   6.952615e+05   1.368849e+05
   7.348053e+05   9.763449e+05
   9.048266e+04   1.040943e+06
  -7.778491e+05   2.307030e+05
  -1.041053e+06  -7.461048e+05
  -3.380907e+05  -1.097591e+06
   7.232424e+05  -6.671367e+05
   1.115501e+06   8.070173e+04
   5.196530e+05   6.005067e+05
  -2.893834e+05   6.608599e+05
  -3.613661e+05   3.621930e+05
   2.729735e+05   1.212796e+04
   6.603448e+05  -3.969748e+04
   1.402449e+05   3.069002e+05
  -8.279307e+05   6.894798e+05
  -1.243562e+06   5.608315e+05
  -7.426082e+05  -1.633318e+05
   9.752616e+04  -8.673087e+05
   5.356790e+05  -8.510218e+05
   4.098799e+05  -1.444291e+05
   4.668073e+04   4.934704e+05
  -2.456137e+05   4.287312e+05
  -3.605050e+05  -1.651400e+05
  -2.554405e+05  -5.816196e+05
   6.018189e+04  -4.144563e+05
   3.949120e+05   5.164608e+04
   4.705504e+05   2.690470e+05
   2.417041e+05   8.448919e+04
  -2.250690e+04  -1.385637e+05
  -7.632055e+04  -1.320947e+04
  -9.370668e+03   3.736338e+05
  -8.876293e+04   5.422602e+05
  -3.395047e+05   1.906723e+05
  -4.439057e+05  -4.071895e+05
  -1.292027e+05  -6.619348e+05
   4.209713e+05  -3.118520e+05
   6.611729e+05   2.931449e+05
   2.508372e+05   5.857784e+05
  -5.046427e+05   3.665165e+05
  -8.805658e+05  -8.247714e+04
  -4.790410e+05  -3.798206e+05
   2.971896e+05  -3.912160e+05
   6.417175e+05  -2.153235e+05
   2.390788e+05  -1.348925e+04
  -3.709614e+05   6.115786e+04
  -4.231262e+05  -7.977897e+04
   1.806060e+05  -3.095725e+05
   7.729771e+05  -2.827143e+05
