
 $NMID
 id='ANONYMOUS ', fmtdat='(2E16.6)'
 volume=1.0
 tramp=1.0
 $END
   5.568188e+07   2.360181e+06
   3.179400e+07   3.570577e+07
  -8.965107e+06   3.711394e+07
  -2.756634e+07   1.330740e+07
  -1.573560e+07  -7.401757e+06
   3.587370e+06  -8.945437e+06
   9.474304e+06   1.503835e+06
   2.372602e+06   9.574411e+06
  -6.279606e+06   8.916723e+06
  -9.468844e+06   1.651014e+06
  -6.714450e+06  -6.358561e+06
  -5.626885e+05  -8.556563e+06
   4.081268e+06  -2.596540e+06
   2.536973e+06   5.468122e+06
  -3.824943e+06   6.346973e+06
  -7.662761e+06  -1.573884e+06
  -4.021922e+06  -1.019673e+07
   4.142391e+06  -1.148747e+07
   1.021571e+07  -5.452215e+06
   1.064534e+07   2.479014e+06
   6.238395e+06   7.744065e+06
   2.382628e+05   8.610179e+06
  -3.193199e+06   5.758768e+06
  -1.842700e+06   2.409350e+06
   1.234328e+06   2.100299e+06
   2.446788e+05   4.244959e+06
  -5.542009e+06   4.333804e+06
  -9.712121e+06   2.587469e+05
  -6.913210e+06  -4.353120e+06
  -5.192678e+04  -5.139196e+06
   3.882303e+06  -2.530440e+06
   2.592417e+06   1.007887e+05
  -5.677168e+05   1.104014e+06
  -2.363901e+06   5.968530e+05
  -2.300687e+06  -1.491996e+06
  -6.458268e+05  -4.051712e+06
   1.967484e+06  -3.807617e+06
   3.269835e+06   3.196591e+05
   1.530126e+06   3.766917e+06
  -9.624988e+05   1.847846e+06
  -3.625691e+05  -2.553482e+06
   2.468868e+06  -2.261039e+06
   2.295942e+06   3.205415e+06
  -2.602245e+06   5.884277e+06
  -6.843696e+06   6.420070e+05
  -4.732847e+06  -7.054260e+06
   2.235442e+06  -8.300622e+06
   7.433702e+06  -2.102063e+06
   6.746995e+06   4.582395e+06
   1.690014e+06   5.973086e+06
  -3.466116e+06   2.601571e+06
  -5.141812e+06  -1.585177e+06
  -2.315065e+06  -3.448640e+06
   2.424206e+06  -2.064988e+06
   4.418240e+06   1.048750e+06
   1.826976e+06   2.723845e+06
  -1.738781e+06   1.288588e+06
  -1.698810e+06  -1.035123e+06
   1.268023e+06  -8.239327e+05
   2.291148e+06   1.771026e+06
  -7.644411e+05   3.248928e+06
  -4.583633e+06   1.622360e+06
  -5.114957e+06  -1.515089e+06
  -2.126777e+06  -3.973179e+06
   1.958150e+06  -5.189535e+06
   5.145666e+06  -4.727722e+06
   6.253011e+06  -1.570680e+06
   4.488099e+06   3.320981e+06
   7.717683e+05   6.195633e+06
  -1.938047e+06   4.667645e+06
  -1.694626e+06   1.159635e+06
  -8.605466e+04  -1.747327e+05
  -9.479065e+03   1.108127e+06
  -1.730315e+06   1.835708e+06
  -2.925350e+06   1.817841e+05
  -2.073825e+06  -2.029756e+06
  -1.229016e+04  -2.229894e+06
   1.601156e+06  -2.426298e+05
   1.711310e+06   2.100098e+06
  -2.898727e+04   2.972202e+06
  -2.838960e+06   1.614197e+06
  -4.479569e+06  -1.324632e+06
  -3.108410e+06  -3.876785e+06
   1.974957e+05  -4.218808e+06
   2.371158e+06  -2.608260e+06
   2.239494e+06  -1.036187e+06
   1.810406e+06  -6.330434e+05
   2.928376e+06  -4.376994e+05
   4.332496e+06   8.237476e+05
   3.452718e+06   2.820479e+06
   7.910969e+04   4.146232e+06
  -3.279095e+06   3.892082e+06
  -4.256650e+06   2.093213e+06
  -2.703437e+06  -4.753026e+05
  -2.507834e+05  -2.297658e+06
   1.158356e+06  -1.960470e+06
   5.797513e+05   5.037827e+04
  -1.122365e+06   1.315948e+06
  -1.929082e+06   3.675588e+05
  -9.028082e+05  -1.242644e+06
   5.371036e+05  -1.130034e+06
   4.281372e+05   3.735465e+05
  -1.037701e+06   6.611361e+05
  -1.768948e+06  -1.301201e+06
  -5.645220e+05  -3.431993e+06
   1.587264e+06  -3.322961e+06
   3.073399e+06  -1.064520e+06
   3.264745e+06   1.440213e+06
   2.279289e+06   2.752816e+06
   4.565039e+05   2.623764e+06
  -1.267728e+06   1.473403e+06
  -1.604937e+06   2.174800e+05
  -4.973225e+05  -5.228408e+04
   3.511972e+05   7.631144e+05
  -4.442100e+05   1.339090e+06
  -1.934090e+06   5.411066e+05
  -2.025301e+06  -9.311892e+05
  -3.574851e+05  -1.426790e+06
   1.186106e+06  -5.564571e+05
   8.895798e+05   4.583181e+05
  -8.421642e+05   5.029175e+05
  -2.169127e+06  -3.344240e+05
  -1.741538e+06  -1.358206e+06
   2.543914e+05  -1.968157e+06
   2.334699e+06  -1.643190e+06
   2.800219e+06  -2.434822e+05
   1.205163e+06   1.297396e+06
  -9.629690e+05   1.500634e+06
  -1.584028e+06   1.553713e+05
  -1.809069e+05  -1.104469e+06
   1.547116e+06  -7.217172e+05
   1.718894e+06   8.134771e+05
   3.145198e+05   1.661023e+06
  -1.104431e+06   9.576973e+05
  -1.247675e+06  -3.316518e+05
  -2.287641e+05  -7.810204e+05
   8.051833e+05  -3.445331e+04
   7.290364e+05   1.080645e+06
  -6.041846e+05   1.438303e+06
  -2.044733e+06   5.251959e+05
  -2.050005e+06  -1.092261e+06
  -3.581980e+05  -2.105896e+06
   1.481259e+06  -1.637449e+06
   1.744479e+06  -1.852604e+05
   4.913670e+05   8.803793e+05
  -6.742221e+05   7.992030e+05
  -6.404742e+05   7.786322e+04
   1.113346e+05  -3.516252e+05
   4.806844e+05  -2.125736e+05
   1.209501e+05   4.147732e+04
  -4.335844e+05  -1.025964e+05
  -4.944623e+05  -6.838742e+05
   2.320410e+05  -1.185905e+06
   1.408546e+06  -8.810655e+05
   2.098230e+06   4.479057e+05
   1.455993e+06   1.987286e+06
  -2.468287e+05   2.446139e+06
  -1.639527e+06   1.406888e+06
  -1.694807e+06  -1.399278e+05
  -8.620978e+05  -8.965556e+05
  -3.385243e+05  -6.504283e+05
  -5.006129e+05  -2.379137e+05
  -6.283306e+05  -3.440568e+05
  -7.126477e+04  -7.799801e+05
   8.967960e+05  -8.931654e+05
   1.458714e+06  -3.097194e+05
   1.051236e+06   7.306885e+05
  -2.602698e+05   1.460086e+06
  -1.744459e+06   1.060483e+06
  -2.262456e+06  -5.129890e+05
  -1.113780e+06  -2.130968e+06
   1.057210e+06  -2.366616e+06
   2.578457e+06  -9.970265e+05
   2.352330e+06   6.951120e+05
   9.422073e+05   1.346077e+06
  -2.067968e+05   9.370488e+05
  -3.801372e+05   5.181845e+05
  -8.327572e+04   7.840940e+05
  -1.309378e+05   1.336492e+06
  -7.058143e+05   1.294877e+06
  -1.318526e+06   3.006220e+05
  -1.343084e+06  -1.111938e+06
  -5.423193e+05  -1.925025e+06
   6.454895e+05  -1.448772e+06
   1.297040e+06   1.750590e+04
   7.976484e+05   1.306799e+06
  -4.174748e+05   1.396902e+06
  -1.172792e+06   3.782360e+05
  -7.923561e+05  -7.245039e+05
   1.543610e+05  -1.076840e+06
   5.566591e+05  -7.660185e+05
   8.678373e+04  -4.098287e+05
  -4.399245e+05  -3.465504e+05
  -5.871212e+04  -3.901485e+05
   1.165042e+06  -1.915638e+05
   2.083462e+06   3.711765e+05
   1.617781e+06   1.071089e+06
  -6.862432e+04   1.444079e+06
  -1.631028e+06   1.123969e+06
  -1.850571e+06   2.507620e+05
  -8.210696e+05  -5.126474e+05
   2.804303e+05  -5.700973e+05
   5.140492e+05  -2.125235e+04
   1.983213e+04   4.355661e+05
  -4.512694e+05   2.631883e+05
  -4.853440e+05  -3.528541e+05
  -2.587350e+05  -7.437145e+05
  -9.923069e+04  -4.959423e+05
  -1.318276e+05   9.104087e+04
  -2.713871e+05   2.953768e+05
  -2.735399e+05  -2.371127e+05
   1.464691e+05  -1.000090e+06
   9.240715e+05  -1.070514e+06
   1.396790e+06  -1.554656e+05
   8.630420e+05   9.471206e+05
  -4.420129e+05   1.156975e+06
  -1.293131e+06   3.299151e+05
  -7.425060e+05  -5.863156e+05
   7.176993e+05  -6.444659e+05
   1.596599e+06   1.143839e+05
   9.934592e+05   8.724927e+05
  -5.008621e+05   9.771401e+05
  -1.503901e+06   4.574818e+05
  -1.228682e+06  -2.039499e+05
  -1.276509e+05  -5.136634e+05
   6.563351e+05  -2.591917e+05
   3.863074e+05   3.088037e+05
  -5.973207e+05   5.352884e+05
  -1.208226e+06  -8.325437e+04
  -6.878260e+05  -1.207818e+06
   6.000189e+05  -1.739896e+06
   1.511512e+06  -9.036522e+05
   1.273935e+06   7.715730e+05
   1.982230e+05   1.816328e+06
  -7.533716e+05   1.299252e+06
  -9.264974e+05  -1.932346e+05
  -4.167466e+05  -1.205008e+06
   2.379954e+05  -9.628812e+05
   5.702747e+05  -7.202213e+04
   4.608716e+05   3.764515e+05
   1.555542e+05   1.287191e+05
   5.199896e+04  -8.952082e+04
   2.932251e+05   3.210123e+05
   5.142478e+05   9.908481e+05
   1.730346e+05   1.081904e+06
  -7.424195e+05   3.814722e+05
  -1.489866e+06  -4.787153e+05
  -1.277490e+06  -8.472439e+05
  -1.792715e+05  -7.114631e+05
   8.550050e+05  -4.300998e+05
   9.907003e+05  -1.767947e+05
   3.725209e+05   7.123156e+04
  -1.440038e+05   2.329265e+05
  -4.960303e+04   1.895914e+05
   2.552116e+05   7.650496e+04
   5.896775e+04   1.382571e+05
  -6.558870e+05   2.561717e+05
  -1.068923e+06  -9.715129e+03
  -4.655920e+05  -7.230464e+05
   8.447259e+05  -1.217204e+06
   1.750364e+06  -7.735525e+05
   1.465352e+06   4.417426e+05
   2.878464e+05   1.430165e+06
  -7.908961e+05   1.401530e+06
  -1.075245e+06   5.603728e+05
  -6.688104e+05  -2.231797e+05
  -1.449403e+05  -3.693988e+05
   5.882694e+04  -8.949379e+04
  -8.260983e+04  -1.374366e+03
  -2.915023e+05  -3.761496e+05
  -2.413547e+05  -8.179903e+05
   1.800569e+05  -6.976537e+05
   6.952939e+05   1.049806e+05
   7.732578e+05   9.576054e+05
   1.439727e+05   1.062939e+06
  -7.610138e+05   2.824210e+05
  -1.071035e+06  -7.127902e+05
  -3.717738e+05  -1.115653e+06
   7.276669e+05  -7.101424e+05
   1.152916e+06   7.171854e+04
   5.487724e+05   6.440915e+05
  -3.014471e+05   7.116060e+05
  -4.071088e+05   3.719432e+05
   2.334097e+05  -8.745160e+03
   6.564726e+05  -4.731429e+04
   1.557371e+05   3.205347e+05
  -8.374301e+05   6.890099e+05
  -1.292535e+06   5.271804e+05
  -7.910768e+05  -2.056868e+05
   9.772601e+04  -8.945126e+05
   5.834215e+05  -8.736924e+05
   4.619170e+05  -1.732390e+05
   7.194247e+04   4.828061e+05
  -2.426492e+05   4.580599e+05
  -3.655764e+05  -1.274200e+05
  -2.642191e+05  -5.872089e+05
   5.386503e+04  -4.563955e+05
   4.026111e+05   3.505694e+04
   4.868162e+05   3.014913e+05
   2.423099e+05   1.105954e+05
  -3.983750e+04  -1.733564e+05
  -7.157384e+04  -7.835092e+04
   4.846021e+04   3.572756e+05
  -1.510734e+04   5.997711e+05
  -3.249286e+05   2.683696e+05
  -5.067401e+05  -3.689288e+05
  -2.026678e+05  -6.696792e+05
   4.069645e+05  -3.373735e+05
   6.981580e+05   2.718393e+05
   2.762071e+05   5.778723e+05
  -5.227740e+05   3.756969e+05
  -9.161681e+05  -6.692476e+04
  -4.968081e+05  -3.838637e+05
   3.030681e+05  -4.261582e+05
   6.631669e+05  -2.544821e+05
   2.741134e+05  -1.735647e+04
  -3.336866e+05   9.905746e+04
  -4.147701e+05  -3.325935e+04
   1.433216e+05  -2.896087e+05
   7.216938e+05  -2.940901e+05
