
 $NMID
 id='ANONYMOUS ', fmtdat='(2E16.6)'
 volume=1.0
 tramp=1.0
 $END
   5.425594e+07   1.558456e+06
   3.167239e+07   3.404418e+07
  -7.915561e+06   3.623663e+07
  -2.662960e+07   1.372658e+07
  -1.567959e+07  -6.659843e+06
   3.199262e+06  -8.846144e+06
   9.383350e+06   1.090840e+06
   2.691360e+06   9.325778e+06
  -5.913632e+06   9.066918e+06
  -9.292137e+06   1.931237e+06
  -6.704918e+06  -6.177555e+06
  -6.399114e+05  -8.471242e+06
   4.006784e+06  -2.556756e+06
   2.578099e+06   5.497264e+06
  -3.670644e+06   6.450283e+06
  -7.575554e+06  -1.345856e+06
  -4.151017e+06  -9.940998e+06
   3.855445e+06  -1.134728e+07
   9.914169e+06  -5.466371e+06
   1.039351e+07   2.330582e+06
   6.088372e+06   7.460611e+06
   3.028546e+05   8.266436e+06
  -2.900262e+06   5.562478e+06
  -1.530653e+06   2.490158e+06
   1.340658e+06   2.312837e+06
   1.702240e+05   4.342755e+06
  -5.603852e+06   4.281100e+06
  -9.669590e+06   2.152987e+05
  -6.820157e+06  -4.295072e+06
   3.694292e+04  -5.026302e+06
   3.930440e+06  -2.400059e+06
   2.519044e+06   2.463230e+05
  -7.831105e+05   1.185196e+06
  -2.555234e+06   5.162440e+05
  -2.289063e+06  -1.655149e+06
  -5.193285e+05  -4.095094e+06
   1.956085e+06  -3.701340e+06
   3.086658e+06   3.738376e+05
   1.409947e+06   3.640307e+06
  -8.932351e+05   1.664317e+06
  -2.616163e+05  -2.645553e+06
   2.472136e+06  -2.314554e+06
   2.345813e+06   3.096077e+06
  -2.351526e+06   5.821447e+06
  -6.556071e+06   7.936914e+05
  -4.705065e+06  -6.754735e+06
   2.001476e+06  -8.117067e+06
   7.233682e+06  -2.158969e+06
   6.770698e+06   4.433539e+06
   1.825216e+06   5.930547e+06
  -3.411756e+06   2.694180e+06
  -5.210200e+06  -1.461655e+06
  -2.435875e+06  -3.393613e+06
   2.319229e+06  -2.115009e+06
   4.381682e+06   9.310866e+05
   1.876253e+06   2.638997e+06
  -1.681568e+06   1.300771e+06
  -1.738297e+06  -1.004725e+06
   1.175554e+06  -9.134224e+05
   2.324334e+06   1.576670e+06
  -5.435282e+05   3.138158e+06
  -4.346314e+06   1.717403e+06
  -5.044245e+06  -1.313053e+06
  -2.190520e+06  -3.831834e+06
   1.903394e+06  -5.139407e+06
   5.125945e+06  -4.701219e+06
   6.197767e+06  -1.558196e+06
   4.415266e+06   3.282251e+06
   7.835039e+05   6.145040e+06
  -1.841410e+06   4.700559e+06
  -1.648729e+06   1.280793e+06
  -1.764935e+05  -7.427552e+04
  -1.628532e+05   1.103637e+06
  -1.829614e+06   1.747171e+06
  -2.939385e+06   6.931553e+04
  -2.029993e+06  -2.128893e+06
   6.988691e+04  -2.280039e+06
   1.691188e+06  -2.118200e+05
   1.753280e+06   2.179618e+06
  -4.775284e+04   3.014213e+06
  -2.854451e+06   1.590208e+06
  -4.442742e+06  -1.341767e+06
  -3.065982e+06  -3.821443e+06
   1.706198e+05  -4.129399e+06
   2.282171e+06  -2.568144e+06
   2.161686e+06  -1.066002e+06
   1.786843e+06  -6.937283e+05
   2.949194e+06  -4.987855e+05
   4.381604e+06   7.773316e+05
   3.513465e+06   2.817083e+06
   1.093704e+05   4.198156e+06
  -3.311662e+06   3.952962e+06
  -4.315809e+06   2.102287e+06
  -2.717807e+06  -5.139535e+05
  -2.087001e+05  -2.328501e+06
   1.199086e+06  -1.957859e+06
   5.790872e+05   6.493987e+04
  -1.143598e+06   1.326905e+06
  -1.939832e+06   3.789655e+05
  -8.993953e+05  -1.240628e+06
   5.569691e+05  -1.146437e+06
   4.696159e+05   3.785448e+05
  -1.012055e+06   7.374651e+05
  -1.827609e+06  -1.196610e+06
  -7.064403e+05  -3.423211e+06
   1.473422e+06  -3.458004e+06
   3.094403e+06  -1.231992e+06
   3.395113e+06   1.383150e+06
   2.398024e+06   2.815469e+06
   4.890351e+05   2.703090e+06
  -1.295052e+06   1.500848e+06
  -1.634456e+06   2.133444e+05
  -5.048290e+05  -5.140541e+04
   3.622150e+05   7.713775e+05
  -4.276050e+05   1.351272e+06
  -1.934391e+06   5.643060e+05
  -2.054448e+06  -9.086633e+05
  -3.873955e+05  -1.432172e+06
   1.195854e+06  -5.813850e+05
   9.255822e+05   4.613097e+05
  -8.443172e+05   5.495799e+05
  -2.237627e+06  -2.951237e+05
  -1.822121e+06  -1.379523e+06
   2.313088e+05  -2.036634e+06
   2.371801e+06  -1.703730e+06
   2.847621e+06  -2.676838e+05
   1.230058e+06   1.298785e+06
  -9.561464e+05   1.511774e+06
  -1.584070e+06   1.668368e+05
  -1.813060e+05  -1.105286e+06
   1.559986e+06  -7.377114e+05
   1.753289e+06   8.060465e+05
   3.485678e+05   1.686900e+06
  -1.104626e+06   1.002912e+06
  -1.281297e+06  -3.065227e+05
  -2.579555e+05  -7.886390e+05
   8.052186e+05  -4.804894e+04
   7.415081e+05   1.085896e+06
  -6.082587e+05   1.456217e+06
  -2.070010e+06   5.356566e+05
  -2.079562e+06  -1.099579e+06
  -3.747954e+05  -2.130613e+06
   1.486488e+06  -1.670415e+06
   1.768236e+06  -2.054712e+05
   5.132566e+05   8.894083e+05
  -6.768156e+05   8.221933e+05
  -6.617497e+05   7.873027e+04
   1.053524e+05  -3.809376e+05
   5.080515e+05  -2.362429e+05
   1.554017e+05   5.502301e+04
  -4.297411e+05  -6.838114e+04
  -5.208755e+05  -6.696437e+05
   2.110028e+05  -1.203842e+06
   1.418605e+06  -9.073185e+05
   2.131217e+06   4.398547e+05
   1.486284e+06   2.006710e+06
  -2.402166e+05   2.488024e+06
  -1.664470e+06   1.450971e+06
  -1.740250e+06  -1.261064e+05
  -8.990871e+05  -9.275277e+05
  -3.440932e+05  -6.970255e+05
  -4.839819e+05  -2.562799e+05
  -6.184873e+05  -3.312610e+05
  -7.646375e+04  -7.746908e+05
   8.991995e+05  -9.161827e+05
   1.485724e+06  -3.323884e+05
   1.085432e+06   7.446425e+05
  -2.509613e+05   1.504627e+06
  -1.770568e+06   1.098124e+06
  -2.307682e+06  -5.074209e+05
  -1.153910e+06  -2.156589e+06
   1.042935e+06  -2.411170e+06
   2.602552e+06  -1.041552e+06
   2.405879e+06   6.771529e+05
   9.904392e+05   1.368404e+06
  -1.968938e+05   9.791985e+05
  -4.052022e+05   5.446111e+05
  -1.096049e+05   7.857507e+05
  -1.363674e+05   1.335226e+06
  -7.017430e+05   1.305447e+06
  -1.326485e+06   3.093719e+05
  -1.363628e+06  -1.123287e+06
  -5.566865e+05  -1.952344e+06
   6.513889e+05  -1.473216e+06
   1.320011e+06   8.202326e+03
   8.237539e+05   1.315424e+06
  -4.024334e+05   1.422555e+06
  -1.176783e+06   4.112260e+05
  -8.128435e+05  -7.048224e+05
   1.293975e+05  -1.084049e+06
   5.391998e+05  -7.897560e+05
   7.940571e+04  -4.285142e+05
  -4.420262e+05  -3.537561e+05
  -5.766900e+04  -3.968614e+05
   1.174255e+06  -2.047781e+05
   2.106152e+06   3.592950e+05
   1.649082e+06   1.071599e+06
  -4.547513e+04   1.459217e+06
  -1.632192e+06   1.148304e+06
  -1.874405e+06   2.752767e+05
  -8.466083e+05  -4.989476e+05
   2.720175e+05  -5.730172e+05
   5.186196e+05  -3.307146e+04
   1.891255e+04   4.287429e+05
  -4.624795e+05   2.634468e+05
  -4.914741e+05  -3.562115e+05
  -2.498999e+05  -7.540382e+05
  -8.894606e+04  -5.003513e+05
  -1.377050e+05   1.021487e+05
  -2.882494e+05   3.101959e+05
  -2.814308e+05  -2.381802e+05
   1.529311e+05  -1.018143e+06
   9.316047e+05  -1.087771e+06
   1.397276e+06  -1.588409e+05
   8.627754e+05   9.535895e+05
  -4.402509e+05   1.162612e+06
  -1.297664e+06   3.286631e+05
  -7.523454e+05  -5.964396e+05
   7.232505e+05  -6.610926e+05
   1.630322e+06   1.034662e+05
   1.032612e+06   8.834581e+05
  -4.938708e+05   1.010222e+06
  -1.535072e+06   4.900891e+05
  -1.264884e+06  -1.949609e+05
  -1.383608e+05  -5.267840e+05
   6.658145e+05  -2.735873e+05
   3.903152e+05   3.060621e+05
  -6.092708e+05   5.368732e+05
  -1.222745e+06  -9.061908e+04
  -6.877785e+05  -1.226060e+06
   6.178212e+05  -1.758844e+06
   1.537107e+06  -9.102723e+05
   1.293997e+06   7.854932e+05
   2.035986e+05   1.847744e+06
  -7.642318e+05   1.330291e+06
  -9.475690e+05  -1.850875e+05
  -4.374622e+05  -1.224881e+06
   2.283824e+05  -9.900593e+05
   5.771021e+05  -8.150174e+04
   4.781100e+05   3.858133e+05
   1.677254e+05   1.364302e+05
   4.970966e+04  -9.546322e+04
   2.866846e+05   3.142473e+05
   5.212318e+05   1.001101e+06
   1.907160e+05   1.105203e+06
  -7.402791e+05   3.963807e+05
  -1.517861e+06  -4.832936e+05
  -1.312575e+06  -8.608884e+05
  -1.863670e+05  -7.205462e+05
   8.775863e+05  -4.353243e+05
   1.011379e+06  -1.852101e+05
   3.720362e+05   6.284883e+04
  -1.494747e+05   2.349291e+05
  -3.989562e+04   2.022575e+05
   2.701430e+05   8.755794e+04
   5.513101e+04   1.395052e+05
  -6.778496e+05   2.527580e+05
  -1.083031e+06  -1.110097e+04
  -4.562775e+05  -7.259081e+05
   8.656199e+05  -1.226607e+06
   1.765066e+06  -7.818175e+05
   1.471047e+06   4.488278e+05
   2.889093e+05   1.452645e+06
  -7.962268e+05   1.421256e+06
  -1.088079e+06   5.622393e+05
  -6.792170e+05  -2.330442e+05
  -1.424669e+05  -3.729628e+05
   6.821545e+04  -8.034656e+04
  -8.231398e+04   8.433848e+03
  -3.036066e+05  -3.793664e+05
  -2.515705e+05  -8.316609e+05
   1.834865e+05  -7.053454e+05
   7.061553e+05   1.146760e+05
   7.766316e+05   9.774125e+05
   1.342578e+05   1.073784e+06
  -7.763172e+05   2.736884e+05
  -1.081000e+06  -7.323711e+05
  -3.708341e+05  -1.129294e+06
   7.373435e+05  -7.121701e+05
   1.163507e+06   7.332495e+04
   5.533746e+05   6.429991e+05
  -3.011253e+05   7.120370e+05
  -4.022064e+05   3.784500e+05
   2.465173e+05  -1.608987e+03
   6.686856e+05  -4.606045e+04
   1.552452e+05   3.220181e+05
  -8.499285e+05   7.019236e+05
  -1.304820e+06   5.475447e+05
  -7.950327e+05  -1.962775e+05
   9.804496e+04  -9.036328e+05
   5.806215e+05  -8.858869e+05
   4.555765e+05  -1.715911e+05
   6.632617e+04   4.928455e+05
  -2.462546e+05   4.586416e+05
  -3.689428e+05  -1.389546e+05
  -2.670035e+05  -5.957952e+05
   5.434513e+04  -4.536292e+05
   4.070510e+05   3.945908e+04
   4.930080e+05   2.978618e+05
   2.477446e+05   1.059613e+05
  -3.791113e+04  -1.668073e+05
  -7.723365e+04  -6.354509e+04
   3.397204e+04   3.649481e+05
  -3.112206e+04   5.923671e+05
  -3.306095e+05   2.528502e+05
  -4.980703e+05  -3.820735e+05
  -1.881465e+05  -6.760467e+05
   4.164660e+05  -3.362595e+05
   7.001967e+05   2.801967e+05
   2.743651e+05   5.888549e+05
  -5.270038e+05   3.809656e+05
  -9.227228e+05  -7.022389e+04
  -5.014055e+05  -3.887723e+05
   3.052544e+05  -4.252701e+05
   6.676863e+05  -2.502367e+05
   2.699987e+05  -1.836273e+04
  -3.472149e+05   8.952855e+04
  -4.220605e+05  -4.597017e+04
   1.562203e+05  -2.980449e+05
   7.469361e+05  -2.940317e+05
