
 $NMID
 id='ANONYMOUS ', fmtdat='(2E16.6)'
 volume=1.0
 tramp=1.0
 $END
   4.260321e+06   9.456483e+05
   2.778964e+06   2.036738e+06
  -1.535833e+04   2.593585e+06
  -2.088286e+06   2.112702e+06
  -1.996419e+06   5.133626e+05
  -2.724976e+05  -9.043707e+05
   1.145769e+06  -6.699611e+05
   9.691110e+05   8.370032e+05
  -2.495948e+05   1.660310e+06
  -1.045959e+06   7.304739e+05
  -7.356774e+05  -8.202723e+05
   1.152374e+05  -1.182828e+06
   5.737825e+05  -6.092174e+04
   2.644878e+05   1.185108e+06
  -4.596959e+05   1.227714e+06
  -8.933096e+05   9.904955e+04
  -5.492474e+05  -1.062916e+06
   3.558934e+05  -1.225346e+06
   9.991709e+05  -3.868817e+05
   7.856439e+05   5.326028e+05
   6.309904e+04   6.991570e+05
  -2.644485e+05   2.553069e+05
   1.565380e+05   6.486608e+04
   6.971794e+05   5.711649e+05
   5.142456e+05   1.207786e+06
  -4.669111e+05   1.124264e+06
  -1.453882e+06   2.433344e+05
  -1.550590e+06  -6.878223e+05
  -5.932534e+05  -9.513744e+05
   6.279425e+05  -4.793706e+05
   1.003300e+06   2.666558e+05
   1.876744e+05   7.089499e+05
  -9.377597e+05   4.812967e+05
  -1.156512e+06  -2.983859e+05
  -3.066489e+05  -9.843568e+05
   5.609278e+05  -9.199705e+05
   5.279584e+05  -1.699899e+05
  -1.090280e+05   4.567585e+05
  -4.065730e+05   2.937964e+05
  -4.882589e+04  -4.139928e+05
   4.409118e+05  -8.166684e+05
   5.680867e+05  -4.499387e+05
   3.792760e+05   2.801928e+05
   1.054648e+05   6.033106e+05
  -1.602128e+05   2.204622e+05
  -2.625639e+05  -4.211764e+05
   5.681892e+04  -6.148696e+05
   6.859112e+05  -1.077350e+05
   9.730022e+05   6.522534e+05
   4.328593e+05   9.669759e+05
  -5.398965e+05   5.784320e+05
  -1.031176e+06  -1.142748e+05
  -6.388967e+05  -5.068549e+05
   1.410184e+05  -3.744765e+05
   5.478791e+05   1.460373e+04
   3.256297e+05   2.511489e+05
  -1.618172e+05   1.506822e+05
  -3.711710e+05  -1.575049e+05
  -8.445940e+04  -3.732900e+05
   3.812911e+05  -2.718676e+05
   4.613408e+05   7.708055e+04
  -1.628634e+04   3.231826e+05
  -5.178495e+05   1.666000e+05
  -3.541530e+05  -2.925399e+05
   4.499985e+05  -6.097533e+05
   1.107491e+06  -4.372968e+05
   9.879298e+05   1.379996e+05
   3.238501e+05   7.094967e+05
  -1.843618e+05   9.393035e+05
  -2.444635e+05   8.089788e+05
  -1.714751e+05   5.467524e+05
  -3.205301e+05   3.551882e+05
  -6.335700e+05   2.036126e+05
  -7.903729e+05  -9.328188e+04
  -5.881566e+05  -5.523221e+05
  -9.412567e+04  -8.414254e+05
   4.200528e+05  -5.782500e+05
   6.204998e+05   1.533854e+05
   3.357182e+05   7.469090e+05
  -2.399361e+05   6.681127e+05
  -6.460660e+05   3.001898e+04
  -5.729855e+05  -5.574200e+05
  -1.586724e+05  -6.602734e+05
   1.906931e+05  -3.973029e+05
   2.465472e+05  -1.637723e+05
   1.654430e+05  -1.534295e+05
   2.610427e+05  -2.252245e+05
   6.075016e+05  -1.306702e+05
   8.855847e+05   2.218700e+05
   6.627021e+05   6.741075e+05
  -1.111153e+05   9.149374e+05
  -9.126045e+05   7.166064e+05
  -1.079903e+06   1.602784e+05
  -4.991309e+05  -3.778931e+05
   2.400615e+05  -5.318704e+05
   4.605403e+05  -2.691979e+05
   9.208225e+04   9.430637e+04
  -3.482313e+05   2.027960e+05
  -3.900354e+05  -7.534897e+03
  -6.929724e+04  -2.588876e+05
   2.255686e+05  -2.220220e+05
   1.978453e+05   1.041197e+05
  -1.184752e+05   3.239330e+05
  -4.305468e+05   5.238588e+04
  -4.129296e+05  -5.820840e+05
   3.671621e+04  -9.620956e+05
   6.520727e+05  -6.197263e+05
   9.556755e+05   2.128869e+05
   6.816621e+05   8.228170e+05
   5.749342e+04   7.697030e+05
  -4.024762e+05   2.896842e+05
  -4.000358e+05  -6.390938e+04
  -1.109569e+05  -3.215178e+04
   5.584008e+04   1.821834e+05
  -9.577591e+04   2.473480e+05
  -3.656004e+05   6.281288e+04
  -3.969531e+05  -1.948465e+05
  -8.434017e+04  -2.804607e+05
   2.708510e+05  -1.130317e+05
   2.544402e+05   1.416273e+05
  -1.841245e+05   2.072779e+05
  -6.064268e+05  -3.668861e+04
  -5.206650e+05  -4.082375e+05
   6.770192e+04  -5.752982e+05
   6.309209e+05  -3.757502e+05
   6.712388e+05   2.521112e+04
   2.246220e+05   2.957044e+05
  -2.279297e+05   2.429320e+05
  -2.810199e+05  -2.355646e+04
   3.349459e+04  -2.037244e+05
   3.561618e+05  -9.296618e+04
   3.742598e+05   2.107047e+05
   8.404123e+04   3.948765e+05
  -2.414297e+05   2.635268e+05
  -3.128011e+05  -3.592096e+04
  -9.685354e+04  -1.703711e+05
   1.426738e+05  -2.433942e+03
   1.077940e+05   2.540732e+05
  -2.068719e+05   2.834437e+05
  -4.822528e+05   1.236490e+04
  -4.038813e+05  -3.349073e+05
  -3.124251e+03  -4.765768e+05
   3.677579e+05  -3.197761e+05
   3.963377e+05  -8.802341e+03
   1.129814e+05   2.083520e+05
  -1.699881e+05   1.800275e+05
  -1.896590e+05  -1.949576e+04
   1.920211e+04  -1.592305e+05
   1.953043e+05  -9.537762e+04
   1.443154e+05   6.206950e+04
  -5.535487e+04   8.128908e+04
  -1.438241e+05  -9.560701e+04
   3.110446e+04  -2.599243e+05
   3.334912e+05  -1.706953e+05
   4.623212e+05   1.677625e+05
   2.530696e+05   5.007147e+05
  -1.546626e+05   5.655282e+05
  -4.517559e+05   3.143716e+05
  -4.507853e+05  -6.513254e+04
  -2.384133e+05  -3.111157e+05
  -5.074001e+04  -2.988569e+05
  -1.923936e+04  -1.389749e+05
  -5.572127e+04  -5.370909e+04
   1.277484e+04  -1.246411e+05
   2.156468e+05  -1.921013e+05
   3.726287e+05  -5.745637e+04
   2.717793e+05   2.361431e+05
  -9.020701e+04   4.040120e+05
  -4.598474e+05   2.264995e+05
  -5.323053e+05  -1.956663e+05
  -2.194734e+05  -5.272690e+05
   2.676048e+05  -5.131082e+05
   5.922416e+05  -1.882824e+05
   5.622509e+05   1.867845e+05
   2.629421e+05   3.638107e+05
  -4.940079e+04   3.018360e+05
  -1.825547e+05   1.674750e+05
  -1.533693e+05   1.433342e+05
  -1.192587e+05   2.243061e+05
  -1.828112e+05   2.245758e+05
  -2.769690e+05   9.108569e+03
  -2.473711e+05  -3.113258e+05
  -3.913424e+04  -4.660737e+05
   2.152377e+05  -3.055653e+05
   3.078017e+05   4.254854e+04
   1.587237e+05   3.042421e+05
  -9.764424e+04   3.114128e+05
  -2.387180e+05   1.161725e+05
  -1.682584e+05  -1.017399e+05
   2.932932e+02  -2.038480e+05
   7.819412e+04  -1.846478e+05
   1.010295e+04  -1.318428e+05
  -6.777651e+04  -1.116821e+05
   1.377795e+04  -9.719080e+04
   2.489670e+05  -1.583925e+04
   4.278688e+05   1.404621e+05
   3.357103e+05   2.808428e+05
  -1.278857e+04   3.022086e+05
  -3.550328e+05   1.908394e+05
  -4.221007e+05   2.737621e+04
  -2.032303e+05  -8.636488e+04
   5.245766e+04  -9.439669e+04
   1.071143e+05  -1.675766e+04
  -2.429984e+04   5.519873e+04
  -1.335098e+05   2.478731e+04
  -8.857642e+04  -1.003481e+05
   2.491704e+04  -1.842434e+05
   4.577949e+04  -1.104616e+05
  -4.786071e+04   4.923603e+04
  -1.234279e+05   9.142723e+04
  -6.453901e+04  -6.202599e+04
   1.032829e+05  -2.357305e+05
   2.512808e+05  -1.997538e+05
   2.602285e+05   4.107712e+04
   9.965723e+04   2.413117e+05
  -1.382049e+05   2.003663e+05
  -2.652125e+05  -1.854548e+04
  -1.347873e+05  -1.803228e+05
   1.809772e+05  -1.328835e+05
   3.937042e+05   6.768424e+04
   2.659310e+05   2.443477e+05
  -1.151213e+05   2.603729e+05
  -3.978821e+05   1.143823e+05
  -3.322818e+05  -6.993657e+04
  -3.258999e+04  -1.429176e+05
   1.624931e+05  -5.963392e+04
   6.402582e+04   6.731744e+04
  -1.789410e+05   6.799757e+04
  -2.618664e+05  -1.080526e+05
  -5.559177e+04  -3.178880e+05
   2.651787e+05  -3.437766e+05
   4.082930e+05  -1.015983e+05
   2.546628e+05   2.549777e+05
  -4.452628e+04   4.429980e+05
  -2.413191e+05   2.981204e+05
  -2.262848e+05  -5.588437e+04
  -8.028348e+04  -3.048261e+05
   6.065442e+04  -2.510944e+05
   1.285979e+05  -1.379472e+04
   1.217570e+05   1.239099e+05
   6.335238e+04   5.712280e+04
   5.327863e+03  -3.308281e+04
   1.005003e+04   5.151719e+04
   6.048505e+04   2.402565e+05
   3.364950e+04   2.804842e+05
  -1.442891e+05   7.685476e+04
  -3.357489e+05  -1.818757e+05
  -3.031270e+05  -2.659239e+05
  -1.757674e+04  -1.677250e+05
   2.543765e+05  -4.960253e+04
   2.572417e+05  -7.302596e+03
   5.959737e+04   4.824148e+03
  -5.730706e+04   4.079256e+04
   1.631189e+04   7.351394e+04
   9.470395e+04   6.492018e+04
  -1.080637e+04   3.344446e+04
  -2.085767e+05  -4.456814e+02
  -2.391321e+05  -6.581480e+04
  -9.725329e+03  -1.667320e+05
   2.909694e+05  -2.041674e+05
   4.056687e+05  -6.885464e+04
   2.568452e+05   1.858202e+05
  -2.310877e+04   3.491947e+05
  -2.367177e+05   2.742162e+05
  -2.683524e+05   4.686966e+04
  -1.441731e+05  -1.111367e+05
   3.613335e+03  -8.721449e+04
   4.971925e+04   1.783265e+04
  -1.230244e+04   2.908434e+04
  -7.292071e+04  -9.333000e+04
  -3.330037e+04  -2.056291e+05
   8.306648e+04  -1.408473e+05
   1.567948e+05   9.092347e+04
   9.727328e+04   2.829534e+05
  -6.718079e+04   2.362942e+05
  -2.057901e+05  -2.122638e+04
  -1.875091e+05  -2.543385e+05
  -1.508506e+03  -2.674010e+05
   2.034234e+05  -9.367076e+04
   2.385549e+05   8.260247e+04
   7.689152e+04   1.419964e+05
  -9.350774e+04   1.112807e+05
  -7.622276e+04   6.464205e+04
   8.855443e+04   3.417852e+04
   1.624548e+05   3.144520e+04
   8.170096e+03   7.127863e+04
  -2.299108e+05   1.216117e+05
  -2.999799e+05   9.260316e+04
  -1.416017e+05  -4.845122e+04
   6.808913e+04  -1.853756e+05
   1.422370e+05  -1.643891e+05
   7.056131e+04   1.909644e+03
  -3.255034e+04   1.257601e+05
  -8.174332e+04   7.053061e+04
  -7.132660e+04  -8.290969e+04
  -2.459223e+04  -1.490967e+05
   3.762919e+04  -6.880822e+04
   8.570023e+04   4.379250e+04
   9.045096e+04   6.796019e+04
   5.508389e+04   1.659187e+04
   1.046887e+04  -1.080306e+04
  -2.576665e+04   3.404822e+04
  -6.081225e+04   9.504384e+04
  -9.330476e+04   8.264215e+04
  -9.498920e+04  -2.355297e+04
  -4.118333e+04  -1.412808e+05
   5.130156e+04  -1.550507e+05
   1.248479e+05  -3.455958e+04
   1.173675e+05   1.168783e+05
   1.156427e+04   1.571819e+05
  -1.285840e+05   5.613415e+04
  -1.827444e+05  -7.464230e+04
  -8.328450e+04  -1.130712e+05
   8.595706e+04  -5.583754e+04
   1.487794e+05   6.480244e+03
   3.535326e+04   9.419309e+03
  -1.131749e+05  -3.262382e+04
  -9.887089e+04  -7.249301e+04
   8.553373e+04  -7.432724e+04
   2.326883e+05  -1.463649e+04
