
 $NMID
 id='ANONYMOUS ', fmtdat='(2E16.6)'
 volume=1.0
 tramp=1.0
 $END
   3.864543e+07  -1.580540e+06
   2.509047e+07   2.085940e+07
  -2.217200e+06   2.569748e+07
  -1.763104e+07   1.306158e+07
  -1.242479e+07  -1.963645e+06
   8.471363e+05  -6.664637e+06
   7.130588e+06  -1.048881e+06
   3.658348e+06   6.391082e+06
  -3.035010e+06   8.126608e+06
  -6.758243e+06   2.910614e+06
  -5.544100e+06  -4.321000e+06
  -9.281814e+05  -6.709257e+06
   3.045184e+06  -1.946833e+06
   2.455945e+06   4.757954e+06
  -2.230395e+06   5.878389e+06
  -5.832018e+06  -6.103710e+04
  -4.017379e+06  -7.087417e+06
   1.923767e+06  -8.783345e+06
   6.942374e+06  -4.557841e+06
   7.544864e+06   1.409521e+06
   4.271236e+06   5.089233e+06
   3.110762e+05   5.324971e+06
  -1.187379e+06   3.530984e+06
   3.338911e+05   2.231307e+06
   1.907841e+06   2.910673e+06
  -8.891925e+04   4.270268e+06
  -5.116032e+06   3.504625e+06
  -8.090154e+06   3.984555e+03
  -5.335242e+06  -3.410613e+06
   5.389249e+05  -3.804550e+06
   3.687837e+06  -1.473341e+06
   1.927003e+06   9.759793e+05
  -1.631232e+06   1.626916e+06
  -3.196309e+06   2.661390e+05
  -2.095820e+06  -2.191191e+06
   6.786561e+04  -3.831893e+06
   1.674449e+06  -2.663740e+06
   1.799252e+06   7.231771e+05
   5.232586e+05   2.592214e+06
  -5.972513e+05   4.631927e+05
   1.541611e+05  -2.812060e+06
   2.057732e+06  -2.271144e+06
   2.162234e+06   2.033495e+06
  -8.082793e+05   4.428922e+06
  -4.043512e+06   1.175901e+06
  -3.630950e+06  -4.310412e+06
   7.027403e+05  -5.829009e+06
   5.142338e+06  -1.976679e+06
   5.791556e+06   2.993925e+06
   2.226935e+06   4.714076e+06
  -2.529546e+06   2.723530e+06
  -4.668854e+06  -5.328412e+05
  -2.647912e+06  -2.472015e+06
   1.386989e+06  -1.944654e+06
   3.439335e+06   2.221757e+05
   1.774823e+06   1.756030e+06
  -1.128470e+06   1.112588e+06
  -1.648681e+06  -6.489284e+05
   4.527072e+05  -1.118420e+06
   1.953250e+06   3.475716e+05
   5.163394e+05   1.910938e+06
  -2.451414e+06   1.721194e+06
  -3.775897e+06  -1.621024e+05
  -2.077656e+06  -2.503730e+06
   1.363237e+06  -4.125336e+06
   4.275610e+06  -3.933760e+06
   5.037171e+06  -1.278484e+06
   3.417672e+06   2.652302e+06
   7.379278e+05   4.988011e+06
  -1.016686e+06   4.098562e+06
  -1.039599e+06   1.664669e+06
  -4.886537e+05   5.376146e+05
  -8.932038e+05   1.088834e+06
  -2.136023e+06   1.173700e+06
  -2.697213e+06  -4.591499e+05
  -1.634461e+06  -2.330985e+06
   3.922077e+05  -2.269149e+06
   1.907336e+06  -1.300847e+05
   1.794910e+06   2.191532e+06
  -6.460504e+04   2.795179e+06
  -2.523179e+06   1.280495e+06
  -3.648876e+06  -1.227109e+06
  -2.398638e+06  -3.011807e+06
   6.290939e+04  -3.072607e+06
   1.534347e+06  -1.938934e+06
   1.432034e+06  -1.005995e+06
   1.349843e+06  -8.852218e+05
   2.564302e+06  -7.706013e+05
   3.955583e+06   3.532237e+05
   3.328085e+06   2.303705e+06
   3.280889e+05   3.815888e+06
  -2.901593e+06   3.743137e+06
  -3.954073e+06   1.941357e+06
  -2.433494e+06  -5.892801e+05
  -2.202173e+04  -2.179966e+06
   1.203714e+06  -1.709348e+06
   4.979905e+05   1.217284e+05
  -1.060481e+06   1.212723e+06
  -1.689003e+06   4.018697e+05
  -7.552835e+05  -1.042323e+06
   5.425270e+05  -1.074281e+06
   6.019445e+05   3.067803e+05
  -6.636433e+05   9.781436e+05
  -1.753853e+06  -4.497592e+05
  -1.314868e+06  -2.740142e+06
   5.399524e+05  -3.512144e+06
   2.571277e+06  -1.917958e+06
   3.497898e+06   7.401765e+05
   2.721145e+06   2.570084e+06
   6.815585e+05   2.663036e+06
  -1.199491e+06   1.460041e+06
  -1.542385e+06   2.096302e+05
  -4.674971e+05  -2.523715e+04
   3.748720e+05   6.865596e+05
  -2.655386e+05   1.198930e+06
  -1.626912e+06   6.067496e+05
  -1.876466e+06  -6.228577e+05
  -4.862952e+05  -1.211774e+06
   1.041475e+06  -6.275827e+05
   9.665025e+05   3.727746e+05
  -6.916714e+05   7.060932e+05
  -2.217415e+06   2.072206e+04
  -1.984572e+06  -1.192818e+06
   2.590488e+03  -2.056016e+06
   2.136185e+06  -1.809142e+06
   2.638714e+06  -4.195499e+05
   1.183736e+06   1.078657e+06
  -7.594989e+05   1.344551e+06
  -1.337607e+06   2.110059e+05
  -1.629994e+05  -9.442687e+05
   1.374770e+06  -7.305264e+05
   1.662937e+06   6.052192e+05
   5.010701e+05   1.528006e+06
  -8.906110e+05   1.081307e+06
  -1.230603e+06  -9.868874e+04
  -3.688526e+05  -6.770025e+05
   6.795134e+05  -1.051866e+05
   7.070131e+05   9.450470e+05
  -5.175016e+05   1.346464e+06
  -1.885822e+06   5.505186e+05
  -1.941897e+06  -9.322022e+05
  -4.436201e+05  -1.924036e+06
   1.248927e+06  -1.606495e+06
   1.601924e+06  -3.142692e+05
   5.575268e+05   7.733192e+05
  -5.619238e+05   8.169908e+05
  -6.625359e+05   9.454238e+04
   3.666321e+04  -4.626048e+05
   5.473292e+05  -3.442363e+05
   3.131682e+05   8.265347e+04
  -3.217841e+05   1.098795e+05
  -5.713736e+05  -4.761753e+05
   4.956997e+04  -1.104320e+06
   1.233077e+06  -9.301972e+05
   1.984777e+06   2.868681e+05
   1.458898e+06   1.771630e+06
  -1.081255e+05   2.329665e+06
  -1.487057e+06   1.495455e+06
  -1.696280e+06   2.192033e+04
  -9.893034e+05  -8.942830e+05
  -3.776255e+05  -8.090025e+05
  -3.590868e+05  -3.189334e+05
  -4.774104e+05  -2.281502e+05
  -9.632571e+04  -6.371794e+05
   7.512103e+05  -9.130214e+05
   1.383794e+06  -4.390722e+05
   1.122673e+06   6.622574e+05
  -1.105633e+05   1.502217e+06
  -1.599864e+06   1.168699e+06
  -2.198660e+06  -3.423596e+05
  -1.226715e+06  -1.923906e+06
   7.622106e+05  -2.277268e+06
   2.294383e+06  -1.153400e+06
   2.306574e+06   4.195493e+05
   1.113369e+06   1.222065e+06
  -7.097755e+04   1.032216e+06
  -4.353242e+05   6.220328e+05
  -2.094686e+05   7.094511e+05
  -1.302094e+05   1.146124e+06
  -5.590053e+05   1.172936e+06
  -1.164347e+06   3.277058e+05
  -1.289750e+06  -9.844517e+05
  -5.912899e+05  -1.785482e+06
   5.489219e+05  -1.391559e+06
   1.232248e+06  -7.107430e+04
   8.512653e+05   1.137181e+06
  -2.356204e+05   1.331611e+06
  -9.932129e+05   5.237025e+05
  -7.828419e+05  -4.850565e+05
  -2.409940e+04  -9.424163e+05
   3.508475e+05  -7.782182e+05
   1.084805e+04  -4.484950e+05
  -4.024018e+05  -3.305938e+05
  -5.707722e+04  -3.740096e+05
   1.038382e+06  -2.608980e+05
   1.911073e+06   2.085628e+05
   1.576016e+06   8.765690e+05
   9.736312e+04   1.303474e+06
  -1.373657e+06   1.118397e+06
  -1.694641e+06   3.933084e+05
  -8.378104e+05  -3.314034e+05
   1.854791e+05  -5.013508e+05
   4.557281e+05  -9.415438e+04
   1.217788e+04   3.379714e+05
  -4.449172e+05   2.455090e+05
  -4.589689e+05  -3.089302e+05
  -1.937825e+05  -7.018424e+05
  -3.886919e+04  -4.593399e+05
  -1.340031e+05   1.481391e+05
  -3.106578e+05   3.558640e+05
  -2.854864e+05  -2.011219e+05
   1.322885e+05  -9.710405e+05
   8.103022e+05  -1.035198e+06
   1.202058e+06  -1.675615e+05
   7.585005e+05   8.423266e+05
  -3.527445e+05   1.030213e+06
  -1.135333e+06   2.964294e+05
  -7.098107e+05  -5.415241e+05
   6.235897e+05  -6.597138e+05
   1.549296e+06  -1.384055e+04
   1.091443e+06   7.608174e+05
  -3.480070e+05   1.022040e+06
  -1.428035e+06   6.210063e+05
  -1.249882e+06  -7.691068e+04
  -1.871704e+05  -5.020847e+05
   5.997664e+05  -3.177425e+05
   3.542368e+05   2.432566e+05
  -5.730725e+05   4.871933e+05
  -1.127436e+06  -8.535428e+04
  -6.224573e+05  -1.131840e+06
   5.755440e+05  -1.624710e+06
   1.423388e+06  -8.561510e+05
   1.228355e+06   7.052291e+05
   2.520545e+05   1.727042e+06
  -6.623197e+05   1.307421e+06
  -9.072307e+05  -9.055120e+04
  -5.050393e+05  -1.121393e+06
   1.157940e+05  -9.710228e+05
   5.190497e+05  -1.264572e+05
   5.043136e+05   3.539911e+05
   2.088718e+05   1.398750e+05
   2.511949e+04  -1.075127e+05
   2.134050e+05   2.426363e+05
   5.014380e+05   8.959932e+05
   2.801068e+05   1.038644e+06
  -6.082359e+05   4.157842e+05
  -1.444786e+06  -3.925190e+05
  -1.314272e+06  -7.547526e+05
  -2.104987e+05  -6.533249e+05
   8.490462e+05  -4.309606e+05
   9.555805e+05  -2.297647e+05
   3.108703e+05   1.155610e+04
  -1.487872e+05   2.179360e+05
   2.553756e+04   2.233776e+05
   3.133111e+05   1.095554e+05
   3.227879e+04   1.298363e+05
  -6.855457e+05   2.307958e+05
  -9.987718e+05   9.447731e+03
  -3.607432e+05  -6.418871e+05
   8.180923e+05  -1.128684e+06
   1.569779e+06  -7.452153e+05
   1.304464e+06   3.963215e+05
   2.921150e+05   1.349550e+06
  -6.749250e+05   1.328907e+06
  -9.882317e+05   5.174190e+05
  -6.450976e+05  -2.289573e+05
  -1.185533e+05  -3.388872e+05
   1.101950e+05  -3.687981e+04
  -6.009043e+04   5.315521e+04
  -3.244593e+05  -3.266418e+05
  -2.854757e+05  -7.664016e+05
   1.590154e+05  -6.474150e+05
   6.682595e+05   1.256449e+05
   7.134588e+05   9.204502e+05
   9.329903e+04   9.814449e+05
  -7.435021e+05   2.187829e+05
  -1.003281e+06  -6.982168e+05
  -3.411028e+05  -1.031324e+06
   6.690420e+05  -6.403184e+05
   1.052938e+06   4.705212e+04
   5.038904e+05   5.382780e+05
  -2.497327e+05   6.184155e+05
  -3.137805e+05   3.552090e+05
   2.791685e+05   1.535456e+04
   6.327459e+05  -5.353603e+04
   1.367648e+05   2.827486e+05
  -7.684896e+05   6.852426e+05
  -1.153664e+06   5.915666e+05
  -6.956561e+05  -1.126375e+05
   6.663382e+04  -8.209286e+05
   4.649154e+05  -8.226197e+05
   3.627369e+05  -1.395247e+05
   4.682516e+04   4.749765e+05
  -2.226493e+05   4.040248e+05
  -3.458549e+05  -1.649381e+05
  -2.578302e+05  -5.465895e+05
   4.637159e+04  -3.789128e+05
   3.753393e+05   4.526374e+04
   4.526261e+05   2.280604e+05
   2.350129e+05   6.170925e+04
  -1.929875e+04  -1.150080e+05
  -7.898197e+04   1.961469e+04
  -2.577955e+04   3.628242e+05
  -1.005271e+05   4.915219e+05
  -3.224717e+05   1.556866e+05
  -4.059222e+05  -3.916703e+05
  -1.093049e+05  -6.229317e+05
   3.993388e+05  -2.984035e+05
   6.235600e+05   2.695312e+05
   2.451429e+05   5.561412e+05
  -4.637710e+05   3.624165e+05
  -8.284812e+05  -5.874320e+04
  -4.618544e+05  -3.470407e+05
   2.687340e+05  -3.674363e+05
   5.964107e+05  -2.078516e+05
   2.121290e+05  -1.987261e+04
  -3.689251e+05   4.990996e+04
  -4.091373e+05  -8.610044e+04
   1.822819e+05  -3.091746e+05
   7.553725e+05  -2.854663e+05
