
 $NMID
 id='ANONYMOUS ', fmtdat='(2E16.6)'
 volume=1.0
 tramp=1.0
 $END
  -1.928885e+07   1.299451e+06
  -1.341428e+07  -9.120444e+06
  -1.809271e+05  -1.269346e+07
   8.386360e+06  -7.931689e+06
   6.884158e+06  -2.773753e+05
   2.220116e+05   3.520941e+06
  -3.854017e+06   1.380723e+06
  -2.657027e+06  -3.151510e+06
   1.066526e+06  -4.937660e+06
   3.537962e+06  -2.150902e+06
   3.086645e+06   2.262081e+06
   5.462587e+05   3.758808e+06
  -1.680209e+06   9.581858e+05
  -1.443413e+06  -2.925104e+06
   1.059311e+06  -3.608861e+06
   3.160236e+06  -3.255915e+05
   2.418132e+06   3.648648e+06
  -7.282942e+05   4.728994e+06
  -3.515032e+06   2.462389e+06
  -3.798557e+06  -7.629856e+05
  -1.951041e+06  -2.516325e+06
  -7.202955e+04  -2.333061e+06
   1.747884e+05  -1.485588e+06
  -9.208998e+05  -1.398754e+06
  -1.404679e+06  -2.237631e+06
   2.934702e+05  -2.796957e+06
   3.291364e+06  -1.855273e+06
   4.715482e+06   3.144615e+05
   2.834402e+06   2.047533e+06
  -6.670937e+05   2.002743e+06
  -2.383218e+06   4.893228e+05
  -1.000384e+06  -9.995268e+05
   1.482507e+06  -1.204712e+06
   2.389308e+06   2.801217e+04
   1.239756e+06   1.736450e+06
  -4.009945e+05   2.427779e+06
  -1.068286e+06   1.292173e+06
  -6.407641e+05  -6.679444e+05
   8.652697e+04  -1.297949e+06
   2.786784e+05   2.017789e+05
  -3.591959e+05   1.925326e+06
  -1.262777e+06   1.429288e+06
  -1.306433e+06  -9.762804e+05
   2.360216e+04  -2.353572e+06
   1.687654e+06  -8.356900e+05
   1.856928e+06   1.954432e+06
  -8.898727e+04   2.914353e+06
  -2.608672e+06   1.097927e+06
  -3.359772e+06  -1.560274e+06
  -1.509604e+06  -2.696904e+06
   1.397663e+06  -1.749789e+06
   2.865966e+06   1.079682e+05
   1.776758e+06   1.343560e+06
  -5.941619e+05   1.187276e+06
  -1.893905e+06   4.853189e+04
  -1.090801e+06  -8.554873e+05
   5.529911e+05  -6.321685e+05
   1.040671e+06   3.332826e+05
  -3.820514e+04   8.191848e+05
  -1.143133e+06   2.191190e+05
  -7.313526e+05  -7.876154e+05
   8.987347e+05  -1.084799e+06
   1.987669e+06  -2.615104e+05
   1.266591e+06   1.176781e+06
  -7.992173e+05   2.281979e+06
  -2.599397e+06   2.170398e+06
  -2.900181e+06   5.895957e+05
  -1.781473e+06  -1.595676e+06
  -3.291171e+05  -2.855113e+06
   4.549523e+05  -2.447408e+06
   4.936820e+05  -1.235231e+06
   4.743538e+05  -5.897689e+05
   9.249931e+05  -6.821983e+05
   1.572427e+06  -4.756680e+05
   1.670753e+06   6.006022e+05
   8.499077e+05   1.674852e+06
  -4.604496e+05   1.486469e+06
  -1.357223e+06  -5.936902e+03
  -1.141899e+06  -1.512673e+06
   1.320174e+05  -1.762101e+06
   1.573567e+06  -6.488678e+05
   2.057847e+06   8.705763e+05
   1.232052e+06   1.732236e+06
  -8.212998e+04   1.602687e+06
  -7.642109e+05   9.867492e+05
  -6.800597e+05   6.046347e+05
  -7.438923e+05   6.281741e+05
  -1.567607e+06   5.482622e+05
  -2.440545e+06  -1.761402e+05
  -2.065269e+06  -1.415927e+06
  -1.953704e+05  -2.385086e+06
   1.866952e+06  -2.311608e+06
   2.531041e+06  -1.104859e+06
   1.479022e+06   4.927633e+05
  -1.264207e+05   1.383975e+06
  -8.499889e+05   9.956774e+05
  -2.933721e+05  -1.180962e+05
   7.044966e+05  -7.263957e+05
   1.029646e+06  -2.276160e+05
   4.123761e+05   6.314587e+05
  -3.855101e+05   6.673792e+05
  -4.453132e+05  -1.925349e+05
   3.277598e+05  -7.305658e+05
   1.124875e+06   4.310083e+04
   1.044797e+06   1.580878e+06
  -8.082839e+04   2.342832e+06
  -1.553631e+06   1.480445e+06
  -2.344852e+06  -3.334339e+05
  -1.861820e+06  -1.688697e+06
  -4.509830e+05  -1.771795e+06
   8.001684e+05  -9.159544e+05
   9.916378e+05  -9.159292e+04
   2.942861e+05   1.991360e+04
  -2.339680e+05  -4.317118e+05
   1.440734e+05  -7.258387e+05
   9.711091e+05  -3.736065e+05
   1.155225e+06   3.503731e+05
   3.290921e+05   7.285667e+05
  -6.460727e+05   4.056183e+05
  -6.474001e+05  -2.395859e+05
   4.179169e+05  -5.125853e+05
   1.464834e+06  -7.691258e+04
   1.348239e+06   7.752101e+05
   3.024245e+04   1.373065e+06
  -1.375183e+06   1.180582e+06
  -1.678158e+06   2.627654e+05
  -7.355283e+05  -6.603660e+05
   4.620097e+05  -8.019523e+05
   7.927767e+05  -1.199688e+05
   7.375999e+04   5.648685e+05
  -8.574423e+05   4.418250e+05
  -1.049261e+06  -3.680597e+05
  -3.505129e+05  -9.645099e+05
   5.357684e+05  -7.246143e+05
   7.942285e+05   1.628937e+04
   2.712720e+05   4.149776e+05
  -4.020150e+05   7.407962e+04
  -4.271216e+05  -5.892988e+05
   3.453766e+05  -8.324622e+05
   1.191267e+06  -3.156352e+05
   1.204279e+06   6.068293e+05
   2.661322e+05   1.204996e+06
  -7.786244e+05   1.003494e+06
  -1.004706e+06   2.062617e+05
  -3.660294e+05  -4.824346e+05
   3.497681e+05  -5.240318e+05
   4.428597e+05  -4.966599e+04
  -1.017939e+04   3.395259e+05
  -3.898836e+05   2.559353e+05
  -2.696881e+05  -7.649171e+04
   1.734799e+05  -1.369082e+05
   3.864061e+05   2.539579e+05
   6.865504e+02   6.909322e+05
  -7.696785e+05   5.902035e+05
  -1.248373e+06  -1.862202e+05
  -9.044265e+05  -1.122073e+06
   8.660129e+04  -1.477744e+06
   9.588819e+05  -9.667010e+05
   1.108894e+06  -2.448884e+04
   6.666355e+05   6.103214e+05
   2.389709e+05   5.946642e+05
   1.764966e+05   2.474471e+05
   2.521382e+05   1.223231e+05
   5.344147e+04   3.689650e+05
  -4.651170e+05   5.823029e+05
  -8.897407e+05   2.935914e+05
  -7.401135e+05  -4.397481e+05
   6.119460e+04  -9.928250e+05
   1.026592e+06  -7.567388e+05
   1.404032e+06   2.248524e+05
   7.871480e+05   1.217662e+06
  -4.576013e+05   1.434168e+06
  -1.430420e+06   7.440530e+05
  -1.478260e+06  -2.410387e+05
  -7.534063e+05  -7.848113e+05
   2.669913e+04  -7.053062e+05
   3.205401e+05  -4.311411e+05
   2.010526e+05  -4.321121e+05
   1.171758e+05  -6.784522e+05
   3.464948e+05  -7.075613e+05
   7.155258e+05  -1.908977e+05
   7.962916e+05   6.342095e+05
   3.537411e+05   1.133646e+06
  -3.632832e+05   8.735589e+05
  -7.838639e+05   4.332456e+04
  -5.429013e+05  -7.066404e+05
   1.270631e+05  -8.398105e+05
   5.996411e+05  -3.650657e+05
   4.936829e+05   2.545031e+05
   5.179758e+04   5.684169e+05
  -1.783661e+05   5.020981e+05
   7.459496e+03   3.059583e+05
   2.406453e+05   2.217744e+05
   2.631209e+04   2.404087e+05
  -6.410028e+05   1.655832e+05
  -1.181762e+06  -1.327728e+05
  -9.900298e+05  -5.481141e+05
  -8.526397e+04  -8.041441e+05
   8.380332e+05  -6.897030e+05
   1.062658e+06  -2.596803e+05
   5.432781e+05   1.758487e+05
  -1.020312e+05   2.979113e+05
  -2.795859e+05   7.426531e+04
   4.513291e+03  -1.870974e+05
   2.954220e+05  -1.420793e+05
   2.820391e+05   1.992296e+05
   8.436612e+04   4.496774e+05
  -8.571194e+03   2.887103e+05
   9.218987e+04  -1.131742e+05
   2.263218e+05  -2.453137e+05
   1.849545e+05   1.267846e+05
  -1.085123e+05   6.207045e+05
  -5.183696e+05   6.410635e+05
  -7.217155e+05   7.949578e+04
  -4.351942e+05  -5.351212e+05
   2.282275e+05  -6.185391e+05
   6.949028e+05  -1.498938e+05
   4.372788e+05   3.578613e+05
  -3.925482e+05   4.188618e+05
  -9.955946e+05   1.121140e+04
  -7.261387e+05  -4.875333e+05
   2.016777e+05  -6.733215e+05
   9.228163e+05  -4.235282e+05
   8.214124e+05   3.996457e+04
   1.293253e+05   3.288599e+05
  -3.804536e+05   2.113732e+05
  -2.131332e+05  -1.458339e+05
   3.796172e+05  -2.855406e+05
   7.060058e+05   8.795590e+04
   3.522846e+05   7.304024e+05
  -4.127642e+05   1.005347e+06
  -9.230171e+05   5.032601e+05
  -7.670189e+05  -4.715595e+05
  -1.356900e+05  -1.103925e+06
   4.367580e+05  -8.385624e+05
   5.830514e+05   4.820304e+04
   3.297006e+05   7.168679e+05
  -5.946803e+04   6.334896e+05
  -3.243754e+05   8.712758e+04
  -3.348985e+05  -2.370719e+05
  -1.513762e+05  -1.007390e+05
  -9.814639e+03   7.574123e+04
  -1.043353e+05  -1.373586e+05
  -2.980461e+05  -5.660475e+05
  -1.918600e+05  -6.706195e+05
   3.616065e+05  -2.662916e+05
   9.170694e+05   2.661788e+05
   8.505178e+05   4.966689e+05
   1.302291e+05   4.121784e+05
  -5.645996e+05   2.585890e+05
  -6.181591e+05   1.422777e+05
  -1.808845e+05   4.486653e+03
   1.049458e+05  -1.331162e+05
  -3.711360e+04  -1.581433e+05
  -2.222590e+05  -9.150215e+04
  -8.060942e+03  -8.292255e+04
   4.648867e+05  -1.232190e+05
   6.281927e+05   1.494987e+04
   1.808641e+05   4.014789e+05
  -5.567412e+05   6.838986e+05
  -9.830959e+05   4.329260e+05
  -7.848851e+05  -2.797897e+05
  -1.548665e+05  -8.616445e+05
   4.373159e+05  -8.237435e+05
   6.297376e+05  -2.953779e+05
   4.069469e+05   1.695320e+05
   5.869213e+04   2.141454e+05
  -9.134068e+04   2.883051e+03
   3.253197e+04  -5.208038e+04
   2.143149e+05   2.048221e+05
   1.806583e+05   4.902911e+05
  -1.145798e+05   4.009154e+05
  -4.238253e+05  -1.078637e+05
  -4.197457e+05  -6.083530e+05
  -1.580501e+04  -6.155925e+05
   4.860691e+05  -1.001463e+05
   6.126113e+05   4.790780e+05
   1.833548e+05   6.539197e+05
  -4.346341e+05   3.752437e+05
  -6.515768e+05  -5.159691e+04
  -2.981292e+05  -3.287436e+05
   1.625947e+05  -3.642580e+05
   1.821530e+05  -2.170656e+05
  -1.982291e+05  -2.588101e+04
  -4.066183e+05   1.964014e+04
  -7.474122e+04  -1.753961e+05
   4.968468e+05  -4.249820e+05
   7.210625e+05  -3.766993e+05
   4.175181e+05   6.060550e+04
  -5.558302e+04   5.086481e+05
  -2.851277e+05   5.062237e+05
  -2.062921e+05   6.882774e+04
  -8.706191e+03  -3.090824e+05
   1.498966e+05  -2.388499e+05
   2.147877e+05   1.305567e+05
   1.510068e+05   3.500617e+05
  -3.852025e+04   2.191240e+05
  -2.345239e+05  -4.361332e+04
  -2.771138e+05  -1.358923e+05
  -1.490545e+05  -2.967348e+04
   1.912679e+03   5.533142e+04
   5.419444e+04  -4.505179e+04
   5.281251e+04  -2.387541e+05
   1.097546e+05  -2.809616e+05
   2.147813e+05  -5.335937e+04
   2.192861e+05   2.756397e+05
   2.131669e+04   3.942166e+05
  -2.667091e+05   1.703261e+05
  -3.739113e+05  -1.928809e+05
  -1.338970e+05  -3.627222e+05
   2.924087e+05  -2.190999e+05
   5.089814e+05   5.877147e+04
   2.798136e+05   2.267467e+05
  -1.739827e+05   2.119426e+05
  -3.722929e+05   1.027322e+05
  -1.174269e+05   7.708478e+03
   2.550704e+05  -5.453451e+03
   2.633176e+05   8.604311e+04
  -1.411453e+05   2.041085e+05
  -5.133081e+05   1.629797e+05
