
 $NMID
 id='ANONYMOUS ', fmtdat='(2E16.6)'
 volume=1.0
 tramp=1.0
 $END
   3.043275e+07  -3.411227e+05
   1.990225e+07   1.550472e+07
  -1.037394e+06   1.972555e+07
  -1.358088e+07   1.146858e+07
  -1.042764e+07  -1.566675e+05
  -1.201298e+04  -5.360752e+06
   5.898415e+06  -1.797670e+06
   3.778482e+06   4.962722e+06
  -1.917377e+06   7.425065e+06
  -5.536883e+06   3.030219e+06
  -4.665479e+06  -3.715989e+06
  -6.600363e+05  -5.887470e+06
   2.704143e+06  -1.428049e+06
   2.153915e+06   4.575144e+06
  -1.791013e+06   5.475618e+06
  -4.875115e+06   2.581527e+05
  -3.475018e+06  -5.832988e+06
   1.491994e+06  -7.290799e+06
   5.704937e+06  -3.582503e+06
   5.956118e+06   1.504156e+06
   2.900600e+06   4.197808e+06
  -1.577360e+05   3.775526e+06
  -5.510323e+05   2.265825e+06
   1.286834e+06   2.028470e+06
   2.172881e+06   3.391204e+06
  -4.681752e+05   4.347543e+06
  -5.194922e+06   2.842992e+06
  -7.390720e+06  -6.430089e+05
  -4.374141e+06  -3.356543e+06
   1.115826e+06  -3.197239e+06
   3.772443e+06  -7.706282e+05
   1.631867e+06   1.558700e+06
  -2.213618e+06   1.898105e+06
  -3.679759e+06   9.036091e+03
  -1.966646e+06  -2.681553e+06
   6.216025e+05  -3.820987e+06
   1.765903e+06  -2.030230e+06
   1.092103e+06   1.124325e+06
  -1.807008e+05   2.139516e+06
  -5.491398e+05  -2.722647e+05
   5.318448e+05  -3.000224e+06
   1.991375e+06  -2.167811e+06
   1.933079e+06   1.592019e+06
  -2.596024e+05   3.580425e+06
  -2.721780e+06   1.039891e+06
  -2.702339e+06  -3.263741e+06
   4.326494e+05  -4.518205e+06
   4.174140e+06  -1.505153e+06
   5.110916e+06   2.603493e+06
   2.185852e+06   4.214186e+06
  -2.218047e+06   2.617497e+06
  -4.379039e+06  -2.847759e+05
  -2.650194e+06  -2.120925e+06
   9.867485e+05  -1.760219e+06
   2.916927e+06   5.582238e+04
   1.613290e+06   1.383839e+06
  -9.020751e+05   9.351127e+05
  -1.581002e+06  -5.474388e+05
   8.384222e+04  -1.190291e+06
   1.681211e+06  -2.321344e+05
   9.605418e+05   1.195648e+06
  -1.502250e+06   1.504649e+06
  -3.047674e+06   2.161130e+05
  -1.841969e+06  -1.913723e+06
   1.372575e+06  -3.535787e+06
   4.153042e+06  -3.309054e+06
   4.580773e+06  -8.059718e+05
   2.746027e+06   2.603001e+06
   3.927027e+05   4.487199e+06
  -8.173455e+05   3.746042e+06
  -7.736107e+05   1.836608e+06
  -6.709652e+05   9.044248e+05
  -1.399299e+06   1.111116e+06
  -2.467632e+06   7.790601e+05
  -2.636030e+06  -9.337584e+05
  -1.340474e+06  -2.616737e+06
   7.036502e+05  -2.321192e+06
   2.090355e+06  -4.890158e+03
   1.752309e+06   2.340173e+06
  -2.333605e+05   2.735705e+06
  -2.481511e+06   9.810679e+05
  -3.210620e+06  -1.435362e+06
  -1.861642e+06  -2.791210e+06
   2.354400e+05  -2.529429e+06
   1.286763e+06  -1.492707e+06
   1.104475e+06  -8.712119e+05
   1.164369e+06  -9.170500e+05
   2.426722e+06  -7.860981e+05
   3.760169e+06   3.531569e+05
   3.149135e+06   2.250800e+06
   2.382404e+05   3.691633e+06
  -2.946249e+06   3.535860e+06
  -3.956062e+06   1.667515e+06
  -2.304951e+06  -7.916766e+05
   2.075991e+05  -2.162179e+06
   1.340566e+06  -1.548327e+06
   4.607233e+05   1.862783e+05
  -1.107617e+06   1.115676e+06
  -1.603096e+06   3.223115e+05
  -6.240050e+05  -1.000714e+06
   6.046214e+05  -1.030899e+06
   6.705965e+05   2.919137e+05
  -5.102394e+05   1.080589e+06
  -1.675759e+06  -1.252382e+05
  -1.509009e+06  -2.437902e+06
   1.897933e+05  -3.537165e+06
   2.383188e+06  -2.193031e+06
   3.562858e+06   5.602693e+05
   2.827908e+06   2.610515e+06
   6.699049e+05   2.728592e+06
  -1.253373e+06   1.405093e+06
  -1.539723e+06   1.276470e+05
  -4.551687e+05  -3.710450e+04
   3.497430e+05   6.721046e+05
  -2.503990e+05   1.114075e+06
  -1.516224e+06   5.407311e+05
  -1.766828e+06  -5.802109e+05
  -4.787408e+05  -1.129665e+06
   1.004096e+06  -6.042225e+05
   9.860444e+05   3.761329e+05
  -6.465272e+05   7.647223e+05
  -2.238551e+06   8.596851e+04
  -2.051989e+06  -1.205732e+06
  -2.451635e+04  -2.101433e+06
   2.138940e+06  -1.788088e+06
   2.594824e+06  -3.677261e+05
   1.116264e+06   1.041618e+06
  -7.445640e+05   1.228375e+06
  -1.235549e+06   1.567226e+05
  -9.702623e+04  -8.829615e+05
   1.338809e+06  -6.603448e+05
   1.606144e+06   5.952293e+05
   5.127344e+05   1.487994e+06
  -8.371936e+05   1.092500e+06
  -1.210629e+06  -4.625587e+04
  -3.996957e+05  -6.377633e+05
   6.229001e+05  -9.487351e+04
   6.431457e+05   9.260941e+05
  -5.569351e+05   1.281686e+06
  -1.853853e+06   4.605450e+05
  -1.850198e+06  -9.694105e+05
  -3.804672e+05  -1.870484e+06
   1.229685e+06  -1.528698e+06
   1.554233e+06  -2.921325e+05
   5.501276e+05   7.492597e+05
  -5.500384e+05   7.966687e+05
  -6.816877e+05   7.333032e+04
   1.624173e+04  -5.121321e+05
   5.927465e+05  -3.880362e+05
   4.082355e+05   1.055420e+05
  -2.614425e+05   1.896967e+05
  -5.760024e+05  -4.039588e+05
   2.323150e+04  -1.060923e+06
   1.204413e+06  -8.890074e+05
   1.924210e+06   3.197793e+05
   1.370909e+06   1.758296e+06
  -1.660068e+05   2.282122e+06
  -1.495412e+06   1.469955e+06
  -1.704403e+06   1.809417e+04
  -1.019461e+06  -9.418007e+05
  -3.747587e+05  -9.116025e+05
  -2.850098e+05  -3.919368e+05
  -3.884585e+05  -2.108837e+05
  -6.620055e+04  -5.788834e+05
   7.337962e+05  -8.850636e+05
   1.376350e+06  -4.316548e+05
   1.132694e+06   6.884839e+05
  -1.110656e+05   1.523527e+06
  -1.598081e+06   1.143133e+06
  -2.161572e+06  -3.780393e+05
  -1.182662e+06  -1.895801e+06
   7.469556e+05  -2.196436e+06
   2.225071e+06  -1.105615e+06
   2.266333e+06   4.069802e+05
   1.138906e+06   1.215678e+06
  -4.866664e+04   1.075475e+06
  -4.896139e+05   6.626783e+05
  -3.146231e+05   6.807850e+05
  -2.031549e+05   1.059394e+06
  -5.610956e+05   1.086865e+06
  -1.115793e+06   2.744664e+05
  -1.218778e+06  -1.001123e+06
  -5.219824e+05  -1.762054e+06
   5.810635e+05  -1.343660e+06
   1.209931e+06  -4.878321e+04
   8.163149e+05   1.104533e+06
  -2.206637e+05   1.287717e+06
  -9.303251e+05   5.363568e+05
  -7.429831e+05  -4.133858e+05
  -5.348238e+04  -8.737530e+05
   2.919653e+05  -7.580291e+05
  -7.459677e+03  -4.652750e+05
  -3.715616e+05  -3.500091e+05
  -3.713748e+04  -3.740246e+05
   9.961541e+05  -2.357663e+05
   1.825289e+06   2.410926e+05
   1.513622e+06   8.731954e+05
   1.026430e+05   1.240005e+06
  -1.319406e+06   1.038443e+06
  -1.644657e+06   3.706760e+05
  -8.233809e+05  -2.864954e+05
   1.720015e+05  -4.565271e+05
   4.312046e+05  -1.032751e+05
  -1.604992e+04   2.964051e+05
  -4.606591e+05   2.182460e+05
  -4.330973e+05  -3.157719e+05
  -1.269052e+05  -7.049984e+05
   1.542629e+04  -4.539293e+05
  -1.394074e+05   1.713705e+05
  -3.461039e+05   3.768667e+05
  -2.815203e+05  -2.002594e+05
   1.780001e+05  -9.611135e+05
   8.192052e+05  -9.798217e+05
   1.128808e+06  -9.859213e+04
   6.658447e+05   8.477774e+05
  -3.752544e+05   9.554568e+05
  -1.089478e+06   2.143000e+05
  -6.719425e+05  -5.636293e+05
   6.160494e+05  -6.363029e+05
   1.534022e+06   3.494806e+03
   1.104873e+06   7.605559e+05
  -3.240853e+05   1.025709e+06
  -1.424083e+06   6.310491e+05
  -1.259730e+06  -7.570717e+04
  -1.925582e+05  -5.061837e+05
   5.893837e+05  -3.152957e+05
   3.246971e+05   2.342773e+05
  -5.959628e+05   4.388751e+05
  -1.096860e+06  -1.497622e+05
  -5.357521e+05  -1.143990e+06
   6.595830e+05  -1.557199e+06
   1.442894e+06  -7.659609e+05
   1.180345e+06   7.449665e+05
   1.891143e+05   1.711312e+06
  -6.889661e+05   1.286177e+06
  -8.949332e+05  -8.797245e+04
  -4.912634e+05  -1.110752e+06
   1.049711e+05  -9.694251e+05
   5.016074e+05  -1.239991e+05
   5.115793e+05   3.681241e+05
   2.309373e+05   1.523121e+05
   1.588724e+04  -1.138764e+05
   1.583369e+05   2.249146e+05
   4.488323e+05   8.857284e+05
   2.807284e+05   1.033547e+06
  -5.673871e+05   3.956075e+05
  -1.412755e+06  -4.296007e+05
  -1.302215e+06  -7.794945e+05
  -1.910029e+05  -6.403923e+05
   8.769299e+05  -3.945257e+05
   9.561344e+05  -2.082941e+05
   2.788750e+05   3.473694e+03
  -1.645332e+05   2.063927e+05
   5.442783e+04   2.370812e+05
   3.424125e+05   1.372313e+05
   1.230697e+04   1.312651e+05
  -7.213788e+05   1.901581e+05
  -9.749030e+05  -3.626258e+04
  -2.755993e+05  -6.368174e+05
   8.773310e+05  -1.056481e+06
   1.539198e+06  -6.475720e+05
   1.218361e+06   4.567182e+05
   2.246015e+05   1.339997e+06
  -6.980365e+05   1.265849e+06
  -9.866899e+05   4.464298e+05
  -6.302028e+05  -2.682114e+05
  -8.762774e+04  -3.361402e+05
   1.428221e+05  -1.089640e+04
  -4.772120e+04   7.519349e+04
  -3.236745e+05  -3.194340e+05
  -2.678890e+05  -7.600941e+05
   1.866705e+05  -6.205827e+05
   6.582349e+05   1.721702e+05
   6.443343e+05   9.528893e+05
   1.489394e+04   9.621142e+05
  -7.596999e+05   1.527784e+05
  -9.467043e+05  -7.539522e+05
  -2.724949e+05  -1.021733e+06
   6.858221e+05  -5.761284e+05
   1.012219e+06   9.597137e+04
   4.521778e+05   5.219572e+05
  -2.662214e+05   5.635740e+05
  -2.910685e+05   3.273351e+05
   3.060483e+05   3.657855e+04
   6.307160e+05  -2.415124e+04
   1.120636e+05   2.761596e+05
  -7.776492e+05   6.477121e+05
  -1.122801e+06   5.609373e+05
  -6.437816e+05  -1.112526e+05
   9.880355e+04  -7.887300e+05
   4.575595e+05  -7.742285e+05
   3.288320e+05  -9.836856e+04
   1.142996e+04   4.812049e+05
  -2.400808e+05   3.699753e+05
  -3.356554e+05  -2.035661e+05
  -2.274678e+05  -5.463799e+05
   6.862236e+04  -3.429007e+05
   3.651233e+05   7.138693e+04
   4.236432e+05   2.202127e+05
   2.268810e+05   5.086351e+04
   1.238256e+03  -9.086613e+04
  -7.572084e+04   6.399866e+04
  -7.912145e+04   3.749617e+05
  -1.764583e+05   4.475251e+05
  -3.425395e+05   8.715197e+04
  -3.448332e+05  -4.358277e+05
  -3.097462e+04  -6.211192e+05
   4.182673e+05  -2.628800e+05
   5.813578e+05   3.085604e+05
   2.038706e+05   5.667741e+05
  -4.594712e+05   3.323008e+05
  -7.920000e+05  -1.036519e+05
  -4.300527e+05  -3.588039e+05
   2.782690e+05  -3.270981e+05
   5.851580e+05  -1.527882e+05
   1.853934e+05  -5.600230e+03
  -3.968152e+05   1.187734e+04
  -4.115169e+05  -1.329357e+05
   2.164437e+05  -3.166589e+05
   7.948666e+05  -2.507798e+05
