
 $NMID
 id='ANONYMOUS ', fmtdat='(2E16.6)'
 volume=1.0
 tramp=1.0
 $END
   1.488717e+07   1.118017e+06
   9.162485e+06   7.268535e+06
  -5.593427e+05   8.997136e+06
  -6.337411e+06   5.969304e+06
  -5.161416e+06   7.833089e+05
  -3.806218e+05  -2.496908e+06
   2.850386e+06  -1.443763e+06
   2.292423e+06   2.227517e+06
  -5.477368e+05   4.112556e+06
  -2.714284e+06   1.880215e+06
  -2.433721e+06  -2.027669e+06
  -2.801486e+05  -3.261590e+06
   1.547322e+06  -6.240623e+05
   1.251724e+06   2.754122e+06
  -8.292112e+05   3.171761e+06
  -2.482884e+06   2.839945e+05
  -1.817450e+06  -2.995181e+06
   7.777198e+05  -3.743366e+06
   2.993284e+06  -1.666229e+06
   2.943611e+06   1.107268e+06
   1.046662e+06   2.312832e+06
  -5.114567e+05   1.624338e+06
  -1.598308e+05   6.565228e+05
   1.329896e+06   9.783528e+05
   1.660770e+06   2.288381e+06
  -3.838671e+05   2.836466e+06
  -3.337717e+06   1.556473e+06
  -4.368635e+06  -6.933819e+05
  -2.286770e+06  -2.121970e+06
   1.030131e+06  -1.784827e+06
   2.493378e+06  -2.006318e+05
   9.889483e+05   1.295131e+06
  -1.604724e+06   1.475524e+06
  -2.600565e+06   3.639867e+04
  -1.313466e+06  -1.907933e+06
   5.829105e+05  -2.489797e+06
   1.203641e+06  -9.970604e+05
   4.005343e+05   9.988399e+05
  -5.106415e+05   1.214359e+06
  -4.467859e+05  -5.559301e+05
   4.323852e+05  -2.051677e+06
   1.178655e+06  -1.339036e+06
   1.050124e+06   7.507482e+05
   6.662339e+04   1.700225e+06
  -1.001316e+06   4.172136e+05
  -1.093764e+06  -1.582675e+06
   2.495479e+05  -2.097636e+06
   2.145722e+06  -6.233458e+05
   2.830380e+06   1.422024e+06
   1.358820e+06   2.328694e+06
  -1.176480e+06   1.577722e+06
  -2.547192e+06   6.812930e+03
  -1.651249e+06  -1.070616e+06
   3.871197e+05  -9.501408e+05
   1.513011e+06  -3.414652e+04
   8.914031e+05   6.481646e+05
  -4.483452e+05   4.671114e+05
  -9.452898e+05  -2.596877e+05
  -1.845438e+05  -7.157833e+05
   7.993586e+05  -4.457641e+05
   7.396459e+05   2.661540e+05
  -4.396788e+05   6.989539e+05
  -1.453114e+06   2.859595e+05
  -9.749190e+05  -8.814881e+05
   8.788653e+05  -1.939517e+06
   2.562225e+06  -1.823341e+06
   2.687679e+06  -2.879620e+05
   1.417999e+06   1.650288e+06
   8.750062e+04   2.589817e+06
  -3.718746e+05   2.142931e+06
  -2.665223e+05   1.218880e+06
  -4.338456e+05   8.142625e+05
  -1.119140e+06   8.278127e+05
  -1.772269e+06   3.880015e+05
  -1.717558e+06  -7.888257e+05
  -7.881265e+05  -1.805594e+06
   5.429784e+05  -1.543328e+06
   1.421305e+06  -1.310063e+04
   1.148675e+06   1.507239e+06
  -1.818448e+05   1.710000e+06
  -1.555320e+06   5.046470e+05
  -1.844512e+06  -1.005438e+06
  -9.113366e+05  -1.674649e+06
   2.676057e+05  -1.330690e+06
   7.133612e+05  -6.901902e+05
   5.213455e+05  -4.486266e+05
   6.057408e+05  -5.882909e+05
   1.427422e+06  -5.325824e+05
   2.260862e+06   1.679721e+05
   1.921084e+06   1.338471e+06
   1.651671e+05   2.254543e+06
  -1.822348e+06   2.179201e+06
  -2.483629e+06   9.909153e+05
  -1.423787e+06  -5.697684e+05
   2.052869e+05  -1.384785e+06
   8.988776e+05  -9.356558e+05
   2.792431e+05   1.455067e+05
  -7.084280e+05   6.767471e+05
  -9.592827e+05   1.801334e+05
  -3.345668e+05  -6.089681e+05
   3.918942e+05  -6.412922e+05
   4.550230e+05   1.494030e+05
  -1.986635e+05   7.124391e+05
  -9.551520e+05   1.136872e+05
  -1.051354e+06  -1.299943e+06
  -1.519095e+05  -2.170988e+06
   1.295685e+06  -1.540715e+06
   2.248039e+06   1.607047e+05
   1.894255e+06   1.570017e+06
   4.873645e+05   1.728618e+06
  -7.890424e+05   8.896070e+05
  -9.717625e+05   7.331921e+04
  -2.809606e+05  -1.983146e+04
   2.168727e+05   4.090495e+05
  -1.390665e+05   6.535861e+05
  -8.877743e+05   3.171684e+05
  -1.049715e+06  -3.186740e+05
  -3.041547e+05  -6.502542e+05
   5.982874e+05  -3.772184e+05
   6.323920e+05   2.143255e+05
  -3.581243e+05   5.157662e+05
  -1.401343e+06   1.399384e+05
  -1.348805e+06  -7.051967e+05
  -8.384731e+04  -1.333918e+06
   1.302713e+06  -1.156569e+06
   1.599494e+06  -2.554050e+05
   6.795568e+05   6.158143e+05
  -4.482730e+05   7.197855e+05
  -7.222071e+05   8.049654e+04
  -3.412193e+04  -5.269914e+05
   8.147630e+05  -3.986183e+05
   9.848801e+05   3.400886e+05
   3.530436e+05   8.939698e+05
  -4.676125e+05   6.966841e+05
  -7.358209e+05   2.187838e+04
  -2.706711e+05  -3.619965e+05
   3.609890e+05  -5.433707e+04
   3.850380e+05   5.694156e+05
  -3.543622e+05   7.884862e+05
  -1.150364e+06   2.767143e+05
  -1.138318e+06  -6.004920e+05
  -2.382760e+05  -1.143952e+06
   7.364903e+05  -9.398385e+05
   9.420684e+05  -1.995510e+05
   3.514423e+05   4.419564e+05
  -3.227386e+05   4.951288e+05
  -4.355396e+05   5.192829e+04
  -1.677395e+04  -3.425983e+05
   3.807124e+05  -2.844361e+05
   3.107071e+05   5.538252e+04
  -1.172591e+05   1.572795e+05
  -3.624813e+05  -2.025679e+05
  -1.625090e+04  -6.399154e+05
   7.270902e+05  -5.588644e+05
   1.186941e+06   1.840897e+05
   8.506414e+05   1.077806e+06
  -8.911787e+04   1.416884e+06
  -9.095808e+05   9.419918e+05
  -1.070332e+06   5.076738e+04
  -6.838910e+05  -5.833948e+05
  -2.728074e+05  -6.137622e+05
  -1.630108e+05  -2.886699e+05
  -2.008366e+05  -1.301794e+05
  -3.079024e+04  -3.379170e+05
   4.350896e+05  -5.560737e+05
   8.517854e+05  -2.982189e+05
   7.373197e+05   4.176137e+05
  -3.091546e+04   9.694505e+05
  -9.794000e+05   7.398780e+05
  -1.349752e+06  -2.123645e+05
  -7.551915e+05  -1.153298e+06
   4.246510e+05  -1.347096e+06
   1.339810e+06  -7.053217e+05
   1.403547e+06   2.035625e+05
   7.514114e+05   7.263423e+05
   1.267220e+04   6.917483e+05
  -3.118408e+05   4.558108e+05
  -2.395800e+05   4.365353e+05
  -1.545675e+05   6.354949e+05
  -3.417396e+05   6.489913e+05
  -6.760308e+05   1.615454e+05
  -7.517029e+05  -6.192241e+05
  -3.269060e+05  -1.090158e+06
   3.576295e+05  -8.342819e+05
   7.477966e+05  -4.207622e+04
   5.117520e+05   6.622146e+05
  -1.091281e+05   7.854619e+05
  -5.359481e+05   3.515771e+05
  -4.416916e+05  -2.129832e+05
  -5.585602e+04  -5.058746e+05
   1.399464e+05  -4.601275e+05
  -2.732874e+04  -2.955167e+05
  -2.292486e+05  -2.254051e+05
  -2.249378e+04  -2.371676e+05
   6.015987e+05  -1.508309e+05
   1.111082e+06   1.406617e+05
   9.347381e+05   5.215797e+05
   8.274898e+04   7.407472e+05
  -7.890878e+05   6.295047e+05
  -9.985651e+05   2.485658e+05
  -5.057194e+05  -1.408949e+05
   9.835627e+04  -2.649805e+05
   2.537849e+05  -7.479708e+04
  -2.352539e+04   1.704512e+05
  -2.948750e+05   1.371943e+05
  -2.668076e+05  -1.947801e+05
  -6.373135e+04  -4.511049e+05
   2.684114e+04  -2.908299e+05
  -8.204557e+04   1.233789e+05
  -2.227501e+05   2.602052e+05
  -1.798254e+05  -1.203367e+05
   1.137801e+05  -6.098611e+05
   5.056504e+05  -6.062009e+05
   6.810857e+05  -3.986070e+04
   3.912006e+05   5.347026e+05
  -2.375746e+05   5.734782e+05
  -6.685610e+05   1.105403e+05
  -4.184714e+05  -3.544683e+05
   3.708311e+05  -3.992376e+05
   9.547845e+05  -2.197680e+04
   7.151169e+05   4.478511e+05
  -1.665796e+05   6.467165e+05
  -8.724777e+05   4.314073e+05
  -7.941606e+05  -1.659308e+04
  -1.351496e+05  -3.131842e+05
   3.566684e+05  -2.069494e+05
   1.917486e+05   1.403227e+05
  -3.829203e+05   2.679460e+05
  -6.855027e+05  -1.062890e+05
  -3.202660e+05  -7.244260e+05
   4.300249e+05  -9.700720e+05
   9.098028e+05  -4.710048e+05
   7.383157e+05   4.664607e+05
   1.237866e+05   1.068789e+06
  -4.182306e+05   8.140751e+05
  -5.551386e+05  -3.573174e+04
  -3.234719e+05  -6.807994e+05
   3.931972e+04  -6.057471e+05
   3.031563e+05  -8.419762e+04
   3.340400e+05   2.245847e+05
   1.604040e+05   9.237413e+04
   1.576264e+03  -7.282358e+04
   7.399481e+04   1.383182e+05
   2.728349e+05   5.477549e+05
   1.979373e+05   6.367613e+05
  -3.293854e+05   2.428199e+05
  -8.835665e+05  -2.602513e+05
  -8.300933e+05  -4.719351e+05
  -1.222516e+05  -3.933461e+05
   5.591595e+05  -2.538605e+05
   5.970935e+05  -1.414695e+05
   1.575633e+05  -2.411347e+03
  -1.076368e+05   1.297101e+05
   5.615310e+04   1.484689e+05
   2.363037e+05   8.673890e+04
   9.947282e+02   8.645954e+04
  -4.715318e+05   1.217397e+05
  -6.067815e+05  -2.743009e+04
  -1.443092e+05  -4.045747e+05
   5.661016e+05  -6.554345e+05
   9.499027e+05  -3.866005e+05
   7.408785e+05   3.024955e+05
   1.362550e+05   8.399405e+05
  -4.304134e+05   7.807214e+05
  -6.189767e+05   2.665408e+05
  -3.998539e+05  -1.755455e+05
  -4.661392e+04  -2.126199e+05
   1.096554e+05  -3.195451e+03
  -1.829809e+04   5.660426e+04
  -2.078116e+05  -1.892330e+05
  -1.745141e+05  -4.692629e+05
   1.212332e+05  -3.837031e+05
   4.185644e+05   1.175492e+05
   3.960395e+05   6.091278e+05
  -1.058737e+04   6.053187e+05
  -4.907831e+05   8.338893e+04
  -5.910749e+05  -4.868575e+05
  -1.584529e+05  -6.399897e+05
   4.352425e+05  -3.475297e+05
   6.239627e+05   6.820706e+04
   2.664152e+05   3.176555e+05
  -1.717732e+05   3.347603e+05
  -1.688435e+05   1.933731e+05
   2.088790e+05   2.115073e+04
   3.980909e+05  -1.478816e+04
   6.325390e+04   1.713317e+05
  -4.825307e+05   4.057440e+05
  -6.795953e+05   3.554692e+05
  -3.794853e+05  -6.353793e+04
   6.525156e+04  -4.852053e+05
   2.735611e+05  -4.694888e+05
   1.942952e+05  -4.304632e+04
   2.062815e+03   3.098104e+05
  -1.562106e+05   2.233951e+05
  -2.163753e+05  -1.400945e+05
  -1.397766e+05  -3.416923e+05
   5.232549e+04  -2.024243e+05
   2.294468e+05   5.086029e+04
   2.542453e+05   1.294348e+05
   1.370995e+05   2.282004e+04
   1.302205e+04  -4.883447e+04
  -3.640326e+04   6.257428e+04
  -6.466762e+04   2.514400e+05
  -1.447029e+05   2.758529e+05
  -2.339260e+05   3.264460e+04
  -2.036393e+05  -2.967622e+05
   4.797274e+03  -4.005500e+05
   2.709866e+05  -1.599654e+05
   3.569252e+05   2.061562e+05
   1.221327e+05   3.622332e+05
  -2.830526e+05   2.027517e+05
  -4.877243e+05  -7.521740e+04
  -2.635275e+05  -2.259336e+05
   1.783224e+05  -1.927975e+05
   3.664895e+05  -8.000076e+04
   1.052716e+05   3.834259e+03
  -2.678574e+05   2.747851e+03
  -2.694710e+05  -9.602820e+04
   1.433645e+05  -2.123089e+05
   5.162949e+05  -1.647739e+05
