
 $NMID
 id='ANONYMOUS ', fmtdat='(2E16.6)'
 volume=1.0
 tramp=1.0
 $END
  -4.291701e+07  -1.895606e+05
  -2.655484e+07  -2.488435e+07
   4.181699e+06  -2.852765e+07
   2.040642e+07  -1.306023e+07
   1.345073e+07   3.364450e+06
  -1.550577e+06   7.302351e+06
  -7.872076e+06   4.221738e+05
  -3.383299e+06  -7.322384e+06
   3.998035e+06  -8.488541e+06
   7.590221e+06  -2.585799e+06
   5.792305e+06   5.005625e+06
   6.617905e+05   7.286150e+06
  -3.382789e+06   2.015653e+06
  -2.366616e+06  -5.137563e+06
   2.806349e+06  -6.100936e+06
   6.367501e+06   5.103514e+05
   3.935938e+06   8.006480e+06
  -2.651967e+06   9.499906e+06
  -7.880561e+06   4.651351e+06
  -8.274908e+06  -1.867550e+06
  -4.593773e+06  -5.822308e+06
  -1.739387e+05  -6.057937e+06
   1.645706e+06  -4.020249e+06
   1.036700e+05  -2.409267e+06
  -1.713801e+06  -2.973902e+06
   2.198555e+05  -4.395281e+06
   5.483397e+06  -3.551400e+06
   8.620040e+06   2.549058e+05
   5.652755e+06   3.864416e+06
  -5.864184e+05   4.111828e+06
  -3.877387e+06   1.543514e+06
  -2.034738e+06  -9.289056e+05
   1.594886e+06  -1.495471e+06
   3.167422e+06  -1.694093e+05
   2.085104e+06   2.232032e+06
  -1.107814e+05   3.971263e+06
  -1.859755e+06   2.876318e+06
  -2.058121e+06  -7.168211e+05
  -6.280359e+05  -2.866146e+06
   6.583072e+05  -6.914725e+05
  -2.016241e+05   2.841928e+06
  -2.290960e+06   2.268601e+06
  -2.201650e+06  -2.383183e+06
   1.279637e+06  -4.832323e+06
   4.705054e+06  -1.032951e+06
   3.826579e+06   5.030691e+06
  -1.158112e+06   6.443962e+06
  -5.772162e+06   1.908095e+06
  -6.058799e+06  -3.575980e+06
  -2.046487e+06  -5.188653e+06
   2.888283e+06  -2.711921e+06
   4.908902e+06   9.107251e+05
   2.601875e+06   2.837814e+06
  -1.685104e+06   1.998413e+06
  -3.728963e+06  -4.862745e+05
  -1.793520e+06  -2.048908e+06
   1.310096e+06  -1.147288e+06
   1.694591e+06   8.037514e+05
  -6.590675e+05   1.110662e+06
  -2.099221e+06  -6.683735e+05
  -2.777944e+05  -2.253765e+06
   2.961027e+06  -1.717518e+06
   4.153006e+06   5.142545e+05
   2.089031e+06   2.916379e+06
  -1.652394e+06   4.395937e+06
  -4.706045e+06   4.036916e+06
  -5.450888e+06   1.188202e+06
  -3.612910e+06  -2.966323e+06
  -5.885061e+05  -5.383007e+06
   1.361696e+06  -4.310365e+06
   1.267049e+06  -1.609983e+06
   4.806543e+05  -4.055932e+05
   8.226639e+05  -1.065645e+06
   2.171919e+06  -1.219771e+06
   2.787325e+06   4.775494e+05
   1.653127e+06   2.416760e+06
  -4.372047e+05   2.310207e+06
  -1.923145e+06   6.245868e+04
  -1.744490e+06  -2.328932e+06
   1.757928e+05  -2.913651e+06
   2.704679e+06  -1.278854e+06
   3.857196e+06   1.416686e+06
   2.490650e+06   3.336772e+06
  -1.862569e+05   3.364332e+06
  -1.786894e+06   2.071416e+06
  -1.654356e+06   1.005910e+06
  -1.515279e+06   8.285075e+05
  -2.751823e+06   6.423246e+05
  -4.147375e+06  -6.005297e+05
  -3.375401e+06  -2.603907e+06
  -1.443210e+05  -4.018296e+06
   3.215872e+06  -3.778984e+06
   4.214032e+06  -1.870442e+06
   2.530499e+06   6.868128e+05
  -2.957706e+04   2.266524e+06
  -1.302577e+06   1.754534e+06
  -5.208846e+05  -1.335172e+05
   1.155247e+06  -1.226603e+06
   1.803248e+06  -3.437638e+05
   7.655901e+05   1.138502e+06
  -6.046795e+05   1.095738e+06
  -5.824469e+05  -3.591057e+05
   7.984106e+05  -9.410267e+05
   1.819988e+06   6.794269e+05
   1.137546e+06   3.022632e+06
  -8.860150e+05   3.604230e+06
  -2.845517e+06   1.745441e+06
  -3.563625e+06  -1.036061e+06
  -2.633908e+06  -2.814282e+06
  -5.522375e+05  -2.780525e+06
   1.312485e+06  -1.461350e+06
   1.612566e+06  -1.535700e+05
   4.875113e+05   4.973324e+04
  -3.563166e+05  -7.388847e+05
   3.512399e+05  -1.255850e+06
   1.759740e+06  -5.552174e+05
   1.945660e+06   7.708052e+05
   4.352664e+05   1.312437e+06
  -1.129363e+06   5.964680e+05
  -9.729481e+05  -4.430764e+05
   7.753048e+05  -6.713531e+05
   2.294379e+06   1.328336e+05
   1.964511e+06   1.351374e+06
  -1.344173e+05   2.117090e+06
  -2.321991e+06   1.756361e+06
  -2.775973e+06   2.961464e+05
  -1.186519e+06  -1.200735e+06
   8.716054e+05  -1.388234e+06
   1.433391e+06  -1.583745e+05
   1.353842e+05   1.008796e+06
  -1.480623e+06   6.995033e+05
  -1.707583e+06  -7.293670e+05
  -4.252596e+05  -1.627647e+06
   1.005530e+06  -1.064868e+06
   1.276961e+06   1.927878e+05
   3.319566e+05   7.368553e+05
  -7.297379e+05   7.186658e+04
  -6.981030e+05  -1.028463e+06
   6.036681e+05  -1.387065e+06
   1.998998e+06  -4.888998e+05
   1.989111e+06   1.069402e+06
   3.672253e+05   2.039406e+06
  -1.396616e+06   1.618153e+06
  -1.695756e+06   2.387569e+05
  -5.349102e+05  -8.426925e+05
   6.348981e+05  -8.204748e+05
   6.857329e+05  -6.573539e+04
  -7.304551e+04   4.607088e+05
  -5.731973e+05   3.090557e+05
  -2.875477e+05  -9.745531e+04
   3.614126e+05  -6.826685e+04
   5.633379e+05   5.524771e+05
  -1.258474e+05   1.157437e+06
  -1.343893e+06   9.054772e+05
  -2.061766e+06  -4.043053e+05
  -1.437432e+06  -1.928333e+06
   2.308140e+05  -2.425516e+06
   1.628080e+06  -1.471244e+06
   1.757872e+06   7.664694e+04
   9.628055e+05   9.702960e+05
   3.443498e+05   8.269296e+05
   3.782385e+05   3.273020e+05
   5.117232e+05   2.706273e+05
   7.246099e+04   6.864251e+05
  -8.393862e+05   9.120962e+05
  -1.464272e+06   3.756367e+05
  -1.121838e+06  -7.451810e+05
   2.040431e+05  -1.544622e+06
   1.729617e+06  -1.125654e+06
   2.272449e+06   4.737602e+05
   1.172735e+06   2.077596e+06
  -9.307866e+05   2.343692e+06
  -2.471219e+06   1.076159e+06
  -2.380782e+06  -5.762050e+05
  -1.073473e+06  -1.335732e+06
   1.426385e+05  -1.051780e+06
   4.703279e+05  -6.053514e+05
   2.238326e+05  -7.325927e+05
   1.781480e+05  -1.209874e+06
   6.483430e+05  -1.212260e+06
   1.243165e+06  -2.888167e+05
   1.302946e+06   1.091719e+06
   5.305537e+05   1.894456e+06
  -6.409327e+05   1.426523e+06
  -1.289526e+06   8.029211e+03
  -8.270843e+05  -1.240846e+06
   3.284020e+05  -1.381833e+06
   1.082430e+06  -4.799912e+05
   7.967363e+05   5.736948e+05
  -4.075254e+04   1.002098e+06
  -4.299795e+05   7.931748e+05
  -4.409208e+04   4.588172e+05
   4.081759e+05   3.601806e+05
   4.374636e+04   3.913473e+05
  -1.106741e+06   2.175206e+05
  -1.998614e+06  -3.187276e+05
  -1.603446e+06  -1.003774e+06
  -2.176995e+04  -1.379008e+06
   1.509209e+06  -1.105332e+06
   1.797590e+06  -3.149796e+05
   8.540997e+05   4.085959e+05
  -2.266058e+05   5.241475e+05
  -4.865911e+05   6.755067e+04
  -2.298453e+03  -3.653578e+05
   4.705989e+05  -2.375548e+05
   4.664904e+05   3.452214e+05
   1.820179e+05   7.382134e+05
   3.146368e+04   4.803855e+05
   1.460726e+05  -1.378565e+05
   3.315076e+05  -3.433354e+05
   2.855292e+05   2.260860e+05
  -1.795286e+05   1.002656e+06
  -8.989558e+05   1.044132e+06
  -1.281374e+06   1.256899e+05
  -7.679270e+05  -9.166917e+05
   4.193243e+05  -1.072744e+06
   1.210465e+06  -2.678972e+05
   7.167937e+05   5.962015e+05
  -6.883921e+05   6.551333e+05
  -1.612755e+06  -7.171701e+04
  -1.082234e+06  -8.540120e+05
   4.297330e+05  -1.038155e+06
   1.519276e+06  -5.558286e+05
   1.288332e+06   1.544784e+05
   1.624370e+05   5.304353e+05
  -6.443484e+05   2.946813e+05
  -3.628531e+05  -2.763121e+05
   6.154485e+05  -4.874615e+05
   1.174352e+06   1.336741e+05
   6.076164e+05   1.206485e+06
  -6.647569e+05   1.673462e+06
  -1.520202e+06   8.339160e+05
  -1.248233e+06  -7.907296e+05
  -1.802266e+05  -1.811258e+06
   7.554570e+05  -1.323713e+06
   9.396619e+05   1.486776e+05
   4.617839e+05   1.196564e+06
  -1.815180e+05   1.000644e+06
  -5.517339e+05   1.010869e+05
  -4.994348e+05  -3.923279e+05
  -2.007360e+05  -1.532810e+05
  -3.554499e+04   1.078511e+05
  -2.255799e+05  -2.702431e+05
  -4.846230e+05  -9.623464e+05
  -2.285753e+05  -1.095432e+06
   6.692777e+05  -4.019406e+05
   1.485794e+06   4.802338e+05
   1.322187e+06   8.523706e+05
   1.861243e+05   6.944335e+05
  -8.965972e+05   4.088453e+05
  -1.004425e+06   1.887910e+05
  -3.325917e+05  -3.315708e+04
   1.618403e+05  -2.210628e+05
  -3.429110e+03  -2.285845e+05
  -3.084760e+05  -1.229361e+05
  -3.247420e+04  -1.360870e+05
   7.124703e+05  -2.123327e+05
   1.044352e+06   3.403499e+04
   3.648612e+05   6.887037e+05
  -8.952285e+05   1.146300e+06
  -1.682437e+06   7.127461e+05
  -1.358407e+06  -4.678782e+05
  -2.456960e+05  -1.420067e+06
   7.709953e+05  -1.359422e+06
   1.056058e+06  -5.019334e+05
   6.603787e+05   2.624822e+05
   1.132560e+05   3.593940e+05
  -1.053784e+05   4.045639e+04
   6.971526e+04  -4.408790e+04
   3.173254e+05   3.604870e+05
   2.564363e+05   8.138521e+05
  -1.939639e+05   6.709559e+05
  -6.888371e+05  -1.542325e+05
  -7.085723e+05  -9.857992e+05
  -6.509598e+04  -1.029759e+06
   7.784231e+05  -2.051056e+05
   1.018094e+06   7.646640e+05
   3.157822e+05   1.092960e+06
  -7.260964e+05   6.460700e+05
  -1.102919e+06  -9.471324e+04
  -5.081255e+05  -5.936638e+05
   2.901073e+05  -6.450734e+05
   3.542020e+05  -3.591604e+05
  -2.794670e+05  -2.529634e+04
  -6.600434e+05   2.790159e+04
  -1.334385e+05  -3.035689e+05
   8.344973e+05  -6.776951e+05
   1.241966e+06  -5.553697e+05
   7.323462e+05   1.585345e+05
  -1.068947e+05   8.582574e+05
  -5.334417e+05   8.419122e+05
  -3.959413e+05   1.371659e+05
  -3.236537e+04  -4.932007e+05
   2.489480e+05  -4.173178e+05
   3.522971e+05   1.784601e+05
   2.452197e+05   5.821908e+05
  -6.300109e+04   4.023983e+05
  -3.899801e+05  -6.035064e+04
  -4.656853e+05  -2.660185e+05
  -2.428325e+05  -8.162389e+04
   2.017312e+04   1.285870e+05
   8.423066e+04  -5.787921e+02
   3.018680e+04  -3.705366e+05
   1.076007e+05  -5.186029e+05
   3.367585e+05  -1.655581e+05
   4.183874e+05   4.152114e+05
   1.029574e+05   6.530224e+05
  -4.253926e+05   2.977783e+05
  -6.449376e+05  -3.032631e+05
  -2.351796e+05  -5.876562e+05
   5.039166e+05  -3.585180e+05
   8.680110e+05   9.485381e+04
   4.691213e+05   3.832974e+05
  -2.972196e+05   3.787576e+05
  -6.345826e+05   1.988389e+05
  -2.302312e+05   1.291000e+04
   3.760052e+05  -4.271404e+04
   4.182882e+05   9.767384e+04
  -1.957967e+05   3.071906e+05
  -7.868301e+05   2.628924e+05
