
 $NMID
 id='ANONYMOUS ', fmtdat='(2E16.6)'
 volume=1.0
 tramp=1.0
 $END
   2.446571e+07   1.319755e+06
   1.374514e+07   1.637172e+07
  -4.557429e+06   1.657288e+07
  -1.265957e+07   5.298908e+06
  -6.911169e+06  -4.043991e+06
   1.969318e+06  -4.205541e+06
   4.389355e+06   9.337674e+05
   8.518430e+05   4.479639e+06
  -3.117902e+06   3.847443e+06
  -4.340726e+06   4.590663e+05
  -2.859095e+06  -2.984720e+06
  -3.067547e+04  -3.803677e+06
   1.928187e+06  -1.130577e+06
   1.066082e+06   2.351106e+06
  -1.802093e+06   2.620575e+06
  -3.327114e+06  -8.899612e+05
  -1.498734e+06  -4.509613e+06
   2.092699e+06  -4.824010e+06
   4.531933e+06  -2.096942e+06
   4.557495e+06   1.243003e+06
   2.674031e+06   3.440062e+06
   8.014581e+04   3.877622e+06
  -1.606733e+06   2.662196e+06
  -1.227035e+06   1.011655e+06
   2.047852e+05   6.330038e+05
   1.167295e+05   1.551776e+06
  -2.164442e+06   1.777331e+06
  -4.033638e+06   1.303347e+05
  -3.011437e+06  -1.911134e+06
  -1.493371e+05  -2.327608e+06
   1.575893e+06  -1.235226e+06
   1.139667e+06  -1.421466e+05
  -5.497588e+04   2.735500e+05
  -7.225674e+05   1.748503e+05
  -7.514072e+05  -5.259722e+05
  -1.843004e+05  -1.564957e+06
   8.849038e+05  -1.579549e+06
   1.504619e+06   1.038381e+05
   7.797864e+05   1.667939e+06
  -3.688780e+05   9.785237e+05
  -1.769659e+05  -8.842240e+05
   1.042893e+06  -8.050741e+05
   9.351694e+05   1.516114e+06
  -1.285704e+06   2.625227e+06
  -3.157605e+06   2.593210e+05
  -2.124957e+06  -3.147649e+06
   1.020414e+06  -3.653618e+06
   3.224427e+06  -8.820135e+05
   2.767056e+06   2.026193e+06
   5.274100e+05   2.548724e+06
  -1.571959e+06   9.996016e+05
  -2.119953e+06  -8.571237e+05
  -8.111143e+05  -1.648728e+06
   1.218443e+06  -9.485908e+05
   1.989393e+06   5.566905e+05
   7.579206e+05   1.349099e+06
  -8.174792e+05   6.155396e+05
  -7.049585e+05  -5.270283e+05
   6.821404e+05  -3.743551e+05
   1.067043e+06   9.470424e+05
  -4.316762e+05   1.624661e+06
  -2.150159e+06   7.059741e+05
  -2.250847e+06  -8.413809e+05
  -8.267927e+05  -1.813560e+06
   8.917244e+05  -2.095510e+06
   2.129215e+06  -1.807186e+06
   2.561986e+06  -5.714615e+05
   1.842080e+06   1.394097e+06
   2.247396e+05   2.589417e+06
  -1.016544e+06   1.901526e+06
  -8.878358e+05   3.050094e+05
  -1.847516e+04  -3.237269e+05
   1.985263e+05   3.052604e+05
  -4.991440e+05   7.824814e+05
  -1.096669e+06   2.008350e+05
  -8.423585e+05  -7.174541e+05
  -4.856170e+04  -8.552495e+05
   5.834368e+05  -9.715401e+04
   6.320016e+05   8.273559e+05
  -4.094908e+04   1.189879e+06
  -1.159064e+06   6.582172e+05
  -1.830823e+06  -5.567566e+05
  -1.263797e+06  -1.648786e+06
   1.313883e+05  -1.799524e+06
   1.062626e+06  -1.081216e+06
   1.002771e+06  -3.659408e+05
   7.784447e+05  -1.685432e+05
   1.170781e+06  -7.774221e+04
   1.677904e+06   4.393665e+05
   1.281042e+06   1.201605e+06
  -5.898618e+04   1.627200e+06
  -1.336977e+06   1.444463e+06
  -1.682685e+06   7.527792e+05
  -1.079144e+06  -1.920444e+05
  -1.176141e+05  -8.925089e+05
   4.793355e+05  -7.846988e+05
   2.775259e+05   1.232514e+04
  -4.441364e+05   5.367237e+05
  -8.224407e+05   1.440781e+05
  -3.918937e+05  -5.363961e+05
   2.396506e+05  -4.861687e+05
   1.812652e+05   1.479513e+05
  -4.596091e+05   2.378523e+05
  -7.053509e+05  -6.199788e+05
  -7.096924e+04  -1.461977e+06
   8.597453e+05  -1.272732e+06
   1.320893e+06  -2.252709e+05
   1.191448e+06   7.672155e+05
   7.241675e+05   1.160179e+06
   7.478275e+04   1.000473e+06
  -5.211250e+05   5.213738e+05
  -6.312204e+05   4.149608e+04
  -1.968652e+05  -4.474898e+04
   1.391065e+05   3.059896e+05
  -1.899010e+05   5.521694e+05
  -8.049491e+05   2.105849e+05
  -8.385958e+05  -4.198921e+05
  -1.467664e+05  -6.240112e+05
   4.816349e+05  -2.456724e+05
   3.593529e+05   1.674012e+05
  -3.114041e+05   1.517392e+05
  -7.929530e+05  -1.978699e+05
  -6.008466e+05  -5.593995e+05
   1.626750e+05  -7.317422e+05
   9.460482e+05  -5.680989e+05
   1.110706e+06  -1.988609e+04
   4.636784e+05   5.672996e+05
  -4.209517e+05   6.144425e+05
  -6.738117e+05   4.432770e+04
  -8.627498e+04  -4.647922e+05
   6.279085e+05  -2.809346e+05
   6.793645e+05   3.622753e+05
   8.399794e+04   6.890433e+05
  -4.859872e+05   3.691527e+05
  -5.183988e+05  -1.674663e+05
  -9.935245e+04  -3.427803e+05
   3.068560e+05  -4.212360e+04
   2.827581e+05   3.936503e+05
  -2.216433e+05   5.324032e+05
  -7.744378e+05   1.781390e+05
  -7.737497e+05  -4.513470e+05
  -1.007309e+05  -8.350138e+05
   6.309077e+05  -6.194433e+05
   7.191947e+05  -2.130968e+04
   1.917461e+05   3.909379e+05
  -2.865884e+05   3.300062e+05
  -2.697510e+05   3.612894e+04
   2.428499e+04  -1.199742e+05
   1.537462e+05  -7.003060e+04
   1.603553e+04  -6.679661e+03
  -1.608509e+05  -8.771187e+04
  -1.443936e+05  -2.903603e+05
   1.365853e+05  -4.364811e+05
   5.574762e+05  -2.904270e+05
   7.879186e+05   2.205929e+05
   5.124471e+05   7.960529e+05
  -1.616867e+05   9.401922e+05
  -6.847561e+05   4.967778e+05
  -6.533139e+05  -1.208027e+05
  -2.832574e+05  -3.892867e+05
  -8.242551e+04  -2.558460e+05
  -1.769051e+05  -8.746704e+04
  -2.327220e+05  -1.391116e+05
   4.701082e+03  -2.913248e+05
   3.754409e+05  -2.907795e+05
   5.422482e+05  -4.972678e+04
   3.383944e+05   3.065265e+05
  -1.592616e+05   5.212662e+05
  -6.825919e+05   3.363230e+05
  -8.393366e+05  -2.560542e+05
  -3.776284e+05  -8.449271e+05
   4.608677e+05  -8.947555e+05
   1.029276e+06  -3.278290e+05
   9.033049e+05   3.376796e+05
   3.261233e+05   5.593880e+05
  -1.163446e+05   3.550928e+05
  -1.605640e+05   1.737772e+05
  -3.931512e+04   2.908732e+05
  -7.472229e+04   5.190085e+05
  -3.056557e+05   4.938489e+05
  -5.207411e+05   9.036809e+04
  -4.949787e+05  -4.594891e+05
  -1.673896e+05  -7.569398e+05
   2.814807e+05  -5.490206e+05
   5.046262e+05   3.192225e+04
   2.828091e+05   5.243809e+05
  -1.964164e+05   5.364744e+05
  -4.710043e+05   1.231420e+05
  -2.960699e+05  -3.005536e+05
   8.280344e+04  -4.188558e+05
   2.334055e+05  -2.909326e+05
   4.879449e+04  -1.636198e+05
  -1.483554e+05  -1.456660e+05
  -2.635341e+03  -1.447809e+05
   4.495987e+05  -3.715761e+04
   7.816471e+05   1.948818e+05
   5.961211e+05   4.490529e+05
  -4.947073e+04   5.571588e+05
  -6.496555e+05   4.013079e+05
  -7.294622e+05   5.591834e+04
  -3.167503e+05  -2.188839e+05
   1.200942e+05  -2.127841e+05
   1.992761e+05   6.320319e+03
  -1.188237e+04   1.628900e+05
  -1.900460e+05   7.632094e+04
  -1.732187e+05  -1.573079e+05
  -6.677031e+04  -2.904429e+05
  -2.031419e+04  -1.907086e+05
  -5.665292e+04   2.407972e+04
  -1.069934e+05   9.935378e+04
  -8.244494e+04  -8.853404e+04
   9.002522e+04  -3.589149e+05
   3.684048e+05  -3.754039e+05
   5.181662e+05  -2.985644e+04
   2.980143e+05   3.736628e+05
  -1.933113e+05   4.253908e+05
  -4.959596e+05   8.835726e+04
  -2.636017e+05  -2.492029e+05
   2.989785e+05  -2.270881e+05
   6.156912e+05   9.734219e+04
   3.564391e+05   3.736243e+05
  -2.283703e+05   3.649273e+05
  -6.000077e+05   1.308845e+05
  -4.709944e+05  -1.160788e+05
  -3.514736e+04  -2.047627e+05
   2.617636e+05  -8.849084e+04
   1.454561e+05   1.216336e+05
  -2.370464e+05   1.865816e+05
  -4.562840e+05  -6.232329e+04
  -2.269927e+05  -4.779533e+05
   2.830577e+05  -6.454635e+05
   6.089691e+05  -2.967206e+05
   4.652777e+05   3.396955e+05
   1.735069e+04   7.067681e+05
  -3.329186e+05   4.784950e+05
  -3.535631e+05  -9.972960e+04
  -1.292760e+05  -4.759767e+05
   1.126870e+05  -3.690257e+05
   2.169514e+05  -1.736459e+04
   1.685644e+05   1.580073e+05
   6.115844e+04   5.628055e+04
   2.422106e+04  -3.782754e+04
   1.027271e+05   1.216095e+05
   1.717545e+05   3.935043e+05
   4.139431e+04   4.308453e+05
  -2.934186e+05   1.342051e+05
  -5.620661e+05  -2.298481e+05
  -4.706330e+05  -3.694645e+05
  -4.726039e+04  -2.769300e+05
   3.459333e+05  -1.331093e+05
   3.885974e+05  -3.801317e+04
   1.392599e+05   3.327679e+04
  -6.556051e+04   8.580412e+04
  -2.651232e+04   7.952230e+04
   9.520190e+04   4.067078e+04
   1.801801e+04   4.769879e+04
  -2.589920e+05   7.097296e+04
  -4.066901e+05  -3.276777e+04
  -1.522327e+05  -2.814979e+05
   3.616137e+05  -4.362069e+05
   6.885031e+05  -2.459276e+05
   5.395166e+05   2.103671e+05
   6.369480e+04   5.554814e+05
  -3.401407e+05   5.111192e+05
  -4.205646e+05   1.794864e+05
  -2.452447e+05  -1.047126e+05
  -4.478100e+04  -1.395902e+05
   2.398762e+04  -2.501845e+04
  -3.303922e+04   1.454469e+03
  -1.045891e+05  -1.516490e+05
  -7.445141e+04  -3.210441e+05
   8.521480e+04  -2.628250e+05
   2.617618e+05   6.039689e+04
   2.660898e+05   3.892727e+05
   2.064544e+04   4.083071e+05
  -3.000946e+05   7.924226e+04
  -3.846675e+05  -3.092684e+05
  -1.056122e+05  -4.358493e+05
   2.972438e+05  -2.450170e+05
   4.342015e+05   6.025652e+04
   1.915943e+05   2.537719e+05
  -1.284768e+05   2.576832e+05
  -1.581514e+05   1.357113e+05
   9.312863e+04   1.350945e+04
   2.517556e+05   4.719565e+03
   4.804169e+04   1.248183e+05
  -3.428973e+05   2.404690e+05
  -5.117969e+05   1.719159e+05
  -2.970301e+05  -9.497998e+04
   6.312962e+04  -3.393784e+05
   2.445778e+05  -3.197884e+05
   1.738277e+05  -5.266656e+04
   7.528748e+03   1.868807e+05
  -1.054254e+05   1.636021e+05
  -1.317858e+05  -6.526498e+04
  -8.237017e+04  -2.324696e+05
   3.188641e+04  -1.682057e+05
   1.520289e+05   2.703090e+04
   1.799543e+05   1.260626e+05
   9.213266e+04   4.781458e+04
  -1.192156e+04  -6.174052e+04
  -3.198239e+04  -2.518609e+04
  -4.879847e+02   1.357874e+05
  -2.808219e+04   2.172108e+05
  -1.287150e+05   8.245717e+04
  -1.726510e+05  -1.571359e+05
  -4.855494e+04  -2.562234e+05
   1.662465e+05  -1.120257e+05
   2.526575e+05   1.254149e+05
   8.400776e+04   2.283254e+05
  -2.090728e+05   1.281269e+05
  -3.441620e+05  -5.231065e+04
  -1.778930e+05  -1.608226e+05
   1.259639e+05  -1.520148e+05
   2.584218e+05  -7.528428e+04
   1.027604e+05   4.922898e+02
  -1.333110e+05   2.186064e+04
  -1.572360e+05  -3.182590e+04
   6.985111e+04  -1.074511e+05
   2.928028e+05  -8.562809e+04
