
 $NMID
 id='ANONYMOUS ', fmtdat='(2E16.6)'
 volume=1.0
 tramp=1.0
 $END
  -1.654797e+07   2.788557e+06
  -1.307533e+07  -6.624268e+06
  -1.728837e+06  -1.133850e+07
   6.997183e+06  -8.176079e+06
   6.710842e+06  -9.867254e+05
   6.813680e+05   3.334605e+06
  -3.641102e+06   1.689913e+06
  -2.850888e+06  -2.809199e+06
   7.229981e+05  -4.816844e+06
   3.209068e+06  -2.317258e+06
   2.894660e+06   1.842037e+06
   6.404567e+05   3.344350e+06
  -1.380355e+06   8.915735e+05
  -1.280927e+06  -2.658502e+06
   9.056338e+05  -3.428839e+06
   2.929431e+06  -5.480110e+05
   2.461849e+06   3.164851e+06
  -3.252016e+05   4.358322e+06
  -2.933497e+06   2.450429e+06
  -3.311239e+06  -3.854566e+05
  -1.818605e+06  -1.906523e+06
  -3.724729e+05  -1.826240e+06
  -2.693093e+05  -1.379726e+06
  -1.061435e+06  -1.606386e+06
  -1.174636e+06  -2.334267e+06
   4.520719e+05  -2.547728e+06
   2.994243e+06  -1.519737e+06
   4.140489e+06   3.380673e+05
   2.473447e+06   1.710133e+06
  -5.927987e+05   1.583082e+06
  -2.053334e+06   2.467540e+05
  -6.879376e+05  -9.798916e+05
   1.611495e+06  -9.742887e+05
   2.275650e+06   2.713513e+05
   9.883333e+05   1.728045e+06
  -5.129149e+05   2.145691e+06
  -8.776549e+05   1.084014e+06
  -3.648325e+05  -4.996288e+05
   1.005451e+05  -9.413302e+05
   4.081739e+04   3.128209e+05
  -5.126400e+05   1.739693e+06
  -1.201448e+06   1.324669e+06
  -1.301384e+06  -8.103447e+05
  -2.471332e+05  -2.226925e+06
   1.352644e+06  -1.088399e+06
   1.827320e+06   1.459789e+06
   2.360493e+05   2.601925e+06
  -2.205654e+06   1.149695e+06
  -3.125716e+06  -1.320151e+06
  -1.487444e+06  -2.501371e+06
   1.279829e+06  -1.688399e+06
   2.727283e+06   5.090815e+04
   1.761193e+06   1.248876e+06
  -4.468011e+05   1.183201e+06
  -1.738094e+06   1.824106e+05
  -1.096852e+06  -7.092047e+05
   4.355385e+05  -6.092709e+05
   9.922236e+05   2.961409e+05
  -2.129071e+03   8.807241e+05
  -1.194856e+06   3.607121e+05
  -9.493905e+05  -7.503364e+05
   6.549907e+05  -1.225009e+06
   1.875924e+06  -4.658914e+05
   1.297351e+06   9.850322e+05
  -6.620638e+05   2.051525e+06
  -2.340704e+06   1.927237e+06
  -2.566113e+06   5.296577e+05
  -1.551229e+06  -1.367848e+06
  -3.243532e+05  -2.536815e+06
   3.543492e+05  -2.312243e+06
   5.018956e+05  -1.279513e+06
   6.114157e+05  -5.738183e+05
   1.004457e+06  -4.828497e+05
   1.455388e+06  -2.335198e+05
   1.417179e+06   6.880483e+05
   6.231484e+05   1.571768e+06
  -5.402937e+05   1.307996e+06
  -1.271088e+06  -1.160658e+05
  -9.861924e+05  -1.469966e+06
   1.813337e+05  -1.602249e+06
   1.412176e+06  -5.328945e+05
   1.794911e+06   7.912897e+05
   1.098076e+06   1.488772e+06
   5.377375e+03   1.382592e+06
  -5.880356e+05   9.163418e+05
  -5.755817e+05   6.296276e+05
  -7.061618e+05   6.333362e+05
  -1.486935e+06   5.126888e+05
  -2.280701e+06  -1.875407e+05
  -1.905760e+06  -1.346099e+06
  -1.348624e+05  -2.221154e+06
   1.790320e+06  -2.090196e+06
   2.355326e+06  -9.304374e+05
   1.305936e+06   5.021584e+05
  -1.923037e+05   1.236328e+06
  -8.029667e+05   8.553245e+05
  -2.428063e+05  -1.133872e+05
   6.646102e+05  -6.323944e+05
   9.347144e+05  -1.988874e+05
   3.610931e+05   5.576335e+05
  -3.706266e+05   5.907180e+05
  -4.206487e+05  -2.080760e+05
   3.336994e+05  -7.328346e+05
   1.134930e+06   4.385714e+03
   1.059525e+06   1.532957e+06
  -8.887074e+04   2.318852e+06
  -1.560529e+06   1.457984e+06
  -2.280755e+06  -3.686995e+05
  -1.729447e+06  -1.689166e+06
  -3.578678e+05  -1.701528e+06
   7.794875e+05  -8.250496e+05
   9.196917e+05  -5.031477e+04
   2.743476e+05   2.315994e+04
  -2.059762e+05  -4.041044e+05
   1.318908e+05  -6.677480e+05
   8.883719e+05  -3.426466e+05
   1.069996e+06   3.225014e+05
   3.105028e+05   6.724132e+05
  -6.035354e+05   3.626078e+05
  -5.971164e+05  -2.522159e+05
   4.275636e+05  -4.882418e+05
   1.412947e+06  -2.673759e+04
   1.259485e+06   7.981557e+05
  -2.206276e+04   1.315820e+06
  -1.331803e+06   1.073577e+06
  -1.574728e+06   2.070876e+05
  -6.781145e+05  -6.165792e+05
   4.212263e+05  -7.287748e+05
   7.173970e+05  -1.133656e+05
   5.889607e+04   5.026503e+05
  -7.957069e+05   3.888987e+05
  -9.728300e+05  -3.590635e+05
  -3.181294e+05  -9.145976e+05
   5.164632e+05  -6.838343e+05
   7.552976e+05   2.165782e+04
   2.568099e+05   3.941737e+05
  -3.679314e+05   6.215455e+04
  -3.737633e+05  -5.552655e+05
   3.486149e+05  -7.550225e+05
   1.111583e+06  -2.529224e+05
   1.097560e+06   5.937944e+05
   2.213037e+05   1.122621e+06
  -7.395734e+05   9.209636e+05
  -9.406712e+05   1.808623e+05
  -3.383845e+05  -4.535322e+05
   3.339803e+05  -4.806559e+05
   4.106086e+05  -2.632594e+04
  -3.602639e+04   3.286173e+05
  -3.972873e+05   2.181800e+05
  -2.574868e+05  -1.140297e+05
   1.874780e+05  -1.519277e+05
   3.821699e+05   2.478548e+05
  -6.737912e+03   6.603023e+05
  -7.362404e+05   5.386132e+05
  -1.161769e+06  -2.048789e+05
  -8.145304e+05  -1.066954e+06
   1.198262e+05  -1.376351e+06
   9.287875e+05  -8.836596e+05
   1.052234e+06   8.621521e+03
   6.106946e+05   6.098182e+05
   1.873252e+05   5.841985e+05
   1.335860e+05   2.328111e+05
   2.288728e+05   1.017597e+05
   5.074960e+04   3.410714e+05
  -4.524398e+05   5.438465e+05
  -8.569335e+05   2.527604e+05
  -6.885359e+05  -4.506420e+05
   9.486148e+04  -9.476988e+05
   9.942225e+05  -6.843753e+05
   1.311954e+06   2.525930e+05
   7.088136e+05   1.162492e+06
  -4.550253e+05   1.335712e+06
  -1.354161e+06   6.722872e+05
  -1.389012e+06  -2.582934e+05
  -6.955993e+05  -7.684687e+05
   5.303004e+04  -6.778702e+05
   3.336353e+05  -3.915971e+05
   2.100558e+05  -3.739607e+05
   1.181764e+05  -6.093920e+05
   3.266830e+05  -6.477672e+05
   6.629451e+05  -1.647226e+05
   7.214613e+05   6.082128e+05
   2.979564e+05   1.062617e+06
  -3.613587e+05   8.009537e+05
  -7.331434e+05   1.987264e+04
  -4.951311e+05  -6.718355e+05
   1.323599e+05  -7.883141e+05
   5.725502e+05  -3.437033e+05
   4.712804e+05   2.375057e+05
   5.167254e+04   5.376730e+05
  -1.719346e+05   4.800323e+05
  -2.575004e+03   2.951455e+05
   2.151933e+05   2.131786e+05
   1.615941e+04   2.259210e+05
  -6.027234e+05   1.453172e+05
  -1.099007e+06  -1.458874e+05
  -9.136495e+05  -5.338616e+05
  -7.024157e+04  -7.557814e+05
   7.886763e+05  -6.294427e+05
   1.000059e+06  -2.235728e+05
   5.158579e+05   1.729078e+05
  -9.376180e+04   2.770918e+05
  -2.665702e+05   6.887457e+04
   2.180976e+03  -1.679774e+05
   2.791884e+05  -1.224030e+05
   2.585417e+05   1.907259e+05
   6.055871e+04   4.144861e+05
  -2.052714e+04   2.603850e+05
   9.732304e+04  -1.069303e+05
   2.319622e+05  -2.190968e+05
   1.721180e+05   1.284692e+05
  -1.256266e+05   5.764718e+05
  -5.015638e+05   5.829038e+05
  -6.640936e+05   5.978411e+04
  -3.845909e+05  -5.011003e+05
   2.211754e+05  -5.657607e+05
   6.399662e+05  -1.229703e+05
   3.954422e+05   3.452078e+05
  -3.770947e+05   3.850661e+05
  -9.375654e+05  -1.522201e+04
  -6.757441e+05  -4.850935e+05
   2.079281e+05  -6.381578e+05
   8.873360e+05  -3.768527e+05
   7.773964e+05   6.365690e+04
   1.125287e+05   3.162454e+05
  -3.635144e+05   1.901072e+05
  -1.946604e+05  -1.368716e+05
   3.600166e+05  -2.479549e+05
   6.475438e+05   1.047401e+05
   2.999215e+05   6.836211e+05
  -4.131669e+05   9.139661e+05
  -8.697639e+05   4.368589e+05
  -6.991485e+05  -4.609515e+05
  -9.462894e+04  -1.033024e+06
   4.350086e+05  -7.731424e+05
   5.493979e+05   5.961460e+04
   2.914930e+05   6.835795e+05
  -7.401230e+04   5.986459e+05
  -3.072497e+05   7.519543e+04
  -3.069305e+05  -2.372750e+05
  -1.389737e+05  -1.053543e+05
  -1.123846e+04   7.373972e+04
  -9.229248e+04  -1.198427e+05
  -2.619514e+05  -5.311006e+05
  -1.633923e+05  -6.379210e+05
   3.406848e+05  -2.474307e+05
   8.482048e+05   2.743643e+05
   7.836732e+05   4.934972e+05
   1.121585e+05   3.886252e+05
  -5.365156e+05   2.195808e+05
  -5.841842e+05   1.146263e+05
  -1.698657e+05   6.333950e+03
   1.014641e+05  -1.184145e+05
  -3.135763e+04  -1.581841e+05
  -2.044856e+05  -1.024877e+05
  -1.950121e+03  -7.527125e+04
   4.387952e+05  -9.144030e+04
   5.813326e+05   3.241719e+04
   1.517525e+05   3.668354e+05
  -5.366025e+05   6.109915e+05
  -9.183612e+05   3.776857e+05
  -7.133421e+05  -2.752238e+05
  -1.171898e+05  -8.044271e+05
   4.270293e+05  -7.553263e+05
   5.898597e+05  -2.538478e+05
   3.700949e+05   1.737066e+05
   4.594178e+04   1.978338e+05
  -8.472748e+04  -9.378474e+03
   3.566348e+04  -5.296726e+04
   1.977406e+05   1.991772e+05
   1.553492e+05   4.640530e+05
  -1.173144e+05   3.663200e+05
  -3.862229e+05  -1.172225e+05
  -3.651077e+05  -5.756417e+05
   6.333871e+03  -5.637695e+05
   4.499618e+05  -7.106945e+04
   5.484141e+05   4.638554e+05
   1.500202e+05   6.084255e+05
  -4.102956e+05   3.327081e+05
  -6.006212e+05  -6.428450e+04
  -2.701390e+05  -3.077075e+05
   1.554310e+05  -3.307233e+05
   1.707911e+05  -2.008761e+05
  -1.853440e+05  -3.694445e+04
  -3.791585e+05   4.433401e+03
  -6.472157e+04  -1.625151e+05
   4.747952e+05  -3.818921e+05
   6.826917e+05  -3.385673e+05
   3.880183e+05   5.841822e+04
  -6.342046e+04   4.692744e+05
  -2.733341e+05   4.670706e+05
  -1.856018e+05   6.207056e+04
   5.063627e+03  -2.859616e+05
   1.434653e+05  -2.148686e+05
   1.907523e+05   1.311291e+05
   1.298606e+05   3.290583e+05
  -3.758367e+04   1.980639e+05
  -2.139923e+05  -4.829864e+04
  -2.566246e+05  -1.295660e+05
  -1.414992e+05  -2.948680e+04
   2.894197e+03   4.585984e+04
   6.102604e+04  -4.598521e+04
   6.427448e+04  -2.144738e+05
   1.100806e+05  -2.428552e+05
   1.925551e+05  -3.383680e+04
   1.847044e+05   2.585646e+05
   1.830711e+03   3.573110e+05
  -2.516922e+05   1.462250e+05
  -3.360907e+05  -1.883702e+05
  -1.099812e+05  -3.395482e+05
   2.763088e+05  -1.966409e+05
   4.667477e+05   6.721995e+04
   2.524026e+05   2.169505e+05
  -1.631086e+05   1.893431e+05
  -3.422497e+05   8.353040e+04
  -1.057597e+05   8.317683e+03
   2.357666e+05   1.153586e+04
   2.368546e+05   9.350742e+04
  -1.438112e+05   1.823740e+05
  -4.861782e+05   1.280915e+05
