
 $NMID
 id='ANONYMOUS ', fmtdat='(2E16.6)'
 volume=1.0
 tramp=1.0
 $END
  -3.044523e+07  -4.151996e+05
  -1.875794e+07  -1.738617e+07
   2.829771e+06  -2.001105e+07
   1.430181e+07  -9.525346e+06
   9.601729e+06   1.979971e+06
  -9.165257e+05   5.154090e+06
  -5.587597e+06   5.694296e+05
  -2.624223e+06  -5.111280e+06
   2.646401e+06  -6.250658e+06
   5.386398e+06  -2.035072e+06
   4.196140e+06   3.614268e+06
   4.809781e+05   5.325260e+06
  -2.485850e+06   1.414438e+06
  -1.782812e+06  -3.848500e+06
   1.947492e+06  -4.546557e+06
   4.563809e+06   2.666229e+05
   2.879477e+06   5.719281e+06
  -1.854972e+06   6.822116e+06
  -5.646847e+06   3.299817e+06
  -5.885789e+06  -1.433873e+06
  -3.135160e+06  -4.206733e+06
   1.733674e+04  -4.202774e+06
   1.098906e+06  -2.681416e+06
  -2.172446e+05  -1.711650e+06
  -1.462444e+06  -2.358457e+06
   2.025056e+05  -3.402123e+06
   4.193492e+06  -2.607555e+06
   6.418724e+06   2.960653e+05
   4.087993e+06   2.910658e+06
  -5.925906e+05   3.009473e+06
  -3.005739e+06   1.040256e+06
  -1.521699e+06  -8.648178e+05
   1.340196e+06  -1.283225e+06
   2.567711e+06  -1.386355e+05
   1.620731e+06   1.817683e+06
  -1.825025e+05   3.063129e+06
  -1.443247e+06   2.045109e+06
  -1.404617e+06  -6.793945e+05
  -2.889276e+05  -2.094524e+06
   5.292133e+05  -3.231135e+05
  -2.045397e+05   2.249482e+06
  -1.698851e+06   1.730081e+06
  -1.617525e+06  -1.671953e+06
   8.035395e+05  -3.420902e+06
   3.201002e+06  -7.277217e+05
   2.654402e+06   3.540824e+06
  -7.979866e+05   4.534848e+06
  -4.125578e+06   1.340318e+06
  -4.450493e+06  -2.567737e+06
  -1.592884e+06  -3.782276e+06
   2.077643e+06  -2.058789e+06
   3.654503e+06   5.678022e+05
   2.001922e+06   2.021575e+06
  -1.152439e+06   1.467351e+06
  -2.687926e+06  -3.027983e+05
  -1.325190e+06  -1.438723e+06
   9.289072e+05  -8.275110e+05
   1.277027e+06   5.623141e+05
  -3.749403e+05   8.510177e+05
  -1.491292e+06  -3.305459e+05
  -3.227775e+05  -1.477438e+06
   1.973724e+06  -1.225774e+06
   2.937483e+06   2.707314e+05
   1.527961e+06   2.037722e+06
  -1.235023e+06   3.207291e+06
  -3.532227e+06   2.961769e+06
  -4.037917e+06   8.225674e+05
  -2.603331e+06  -2.237664e+06
  -3.974942e+05  -3.973768e+06
   9.388092e+05  -3.190388e+06
   8.519652e+05  -1.276532e+06
   3.856706e+05  -4.343744e+05
   7.534387e+05  -8.673414e+05
   1.759306e+06  -8.740040e+05
   2.147865e+06   4.609832e+05
   1.233170e+06   1.918997e+06
  -3.832903e+05   1.804269e+06
  -1.526094e+06   5.414090e+04
  -1.363649e+06  -1.793711e+06
   1.416663e+05  -2.218040e+06
   2.050681e+06  -9.275860e+05
   2.850476e+06   1.110509e+06
   1.780231e+06   2.478821e+06
  -1.775268e+05   2.423131e+06
  -1.289974e+06   1.460895e+06
  -1.160559e+06   7.305426e+05
  -1.086417e+06   6.510032e+05
  -2.046683e+06   5.270474e+05
  -3.114025e+06  -4.069214e+05
  -2.557722e+06  -1.929402e+06
  -1.377948e+05  -3.030835e+06
   2.419541e+06  -2.873650e+06
   3.202290e+06  -1.412407e+06
   1.916497e+06   5.514474e+05
  -5.458353e+04   1.738921e+06
  -1.016207e+06   1.320557e+06
  -3.928757e+05  -1.151474e+05
   8.820072e+05  -9.282184e+05
   1.350097e+06  -2.607436e+05
   5.603477e+05   8.533404e+05
  -4.651035e+05   8.361853e+05
  -4.681976e+05  -2.559313e+05
   5.430096e+05  -7.482374e+05
   1.352633e+06   4.021914e+05
   9.481105e+05   2.185692e+06
  -5.174495e+05   2.742906e+06
  -2.068226e+06   1.439774e+06
  -2.737568e+06  -6.781496e+05
  -2.084118e+06  -2.107850e+06
  -4.652154e+05  -2.129981e+06
   9.967696e+05  -1.122014e+06
   1.231419e+06  -1.182549e+05
   3.695049e+05   3.463889e+04
  -2.747827e+05  -5.553407e+05
   2.500079e+05  -9.372899e+05
   1.305643e+06  -4.236000e+05
   1.460352e+06   5.531183e+05
   3.438368e+05   9.707718e+05
  -8.427924e+05   4.627418e+05
  -7.544367e+05  -3.224736e+05
   5.634307e+05  -5.376243e+05
   1.752259e+06   4.530652e+04
   1.538462e+06   9.984051e+05
  -5.865458e+04   1.626709e+06
  -1.744676e+06   1.368671e+06
  -2.102002e+06   2.506601e+05
  -9.007433e+05  -8.909267e+05
   6.468188e+05  -1.037073e+06
   1.064549e+06  -1.199636e+05
   9.544645e+04   7.539394e+05
  -1.112356e+06   5.333565e+05
  -1.295692e+06  -5.306962e+05
  -3.496509e+05  -1.221664e+06
   7.339676e+05  -8.264726e+05
   9.668487e+05   1.137924e+05
   2.703276e+05   5.433017e+05
  -5.398587e+05   5.927920e+04
  -5.286467e+05  -7.721502e+05
   4.542925e+05  -1.050921e+06
   1.513098e+06  -3.757547e+05
   1.508910e+06   8.012329e+05
   2.895912e+05   1.537666e+06
  -1.039305e+06   1.231120e+06
  -1.276474e+06   1.983384e+05
  -4.166833e+05  -6.277285e+05
   4.694236e+05  -6.284510e+05
   5.286951e+05  -5.577314e+04
  -3.923783e+04   3.652838e+05
  -4.421515e+05   2.603325e+05
  -2.496897e+05  -6.973970e+04
   2.513976e+05  -7.647421e+04
   4.342372e+05   3.910989e+05
  -7.326987e+04   8.697291e+05
  -1.004701e+06   6.972084e+05
  -1.562521e+06  -2.897074e+05
  -1.099283e+06  -1.449575e+06
   1.582192e+05  -1.842423e+06
   1.222148e+06  -1.139640e+06
   1.343361e+06   3.176078e+04
   7.605567e+05   7.359924e+05
   2.814276e+05   6.543230e+05
   2.771634e+05   2.695084e+05
   3.675678e+05   1.994165e+05
   5.333606e+04   5.072678e+05
  -6.222927e+05   6.989042e+05
  -1.108321e+06   3.065382e+05
  -8.712299e+05  -5.570717e+05
   1.300365e+05  -1.186395e+06
   1.301823e+06  -8.773645e+05
   1.731053e+06   3.385058e+05
   9.114455e+05   1.560217e+06
  -6.742857e+05   1.776459e+06
  -1.850179e+06   8.399594e+05
  -1.810946e+06  -4.015114e+05
  -8.456016e+05  -9.978071e+05
   8.307656e+04  -8.146256e+05
   3.617892e+05  -4.839969e+05
   1.913101e+05  -5.608134e+05
   1.439160e+05  -9.049876e+05
   4.818936e+05  -9.093900e+05
   9.327363e+05  -2.207574e+05
   9.907236e+05   8.215168e+05
   4.122015e+05   1.433668e+06
  -4.789224e+05   1.085605e+06
  -9.778439e+05   1.813442e+04
  -6.373186e+05  -9.259631e+05
   2.276438e+05  -1.044628e+06
   7.986791e+05  -3.818755e+05
   5.997966e+05   4.071060e+05
  -1.182945e+04   7.427033e+05
  -2.999698e+05   6.013817e+05
  -2.016169e+04   3.539020e+05
   3.091330e+05   2.757666e+05
   3.373403e+04   2.988756e+05
  -8.296699e+05   1.728736e+05
  -1.505774e+06  -2.270452e+05
  -1.219502e+06  -7.434625e+05
  -3.512801e+04  -1.032192e+06
   1.123053e+06  -8.392143e+05
   1.352381e+06  -2.579332e+05
   6.500766e+05   2.863722e+05
  -1.637686e+05   3.892254e+05
  -3.621405e+05   5.996626e+04
   3.470428e+03  -2.683512e+05
   3.612537e+05  -1.815221e+05
   3.538576e+05   2.595671e+05
   1.312033e+05   5.651545e+05
   1.549361e+04   3.677328e+05
   1.091122e+05  -1.143397e+05
   2.560350e+05  -2.752764e+05
   2.199951e+05   1.677954e+05
  -1.349285e+05   7.671549e+05
  -6.751912e+05   7.945247e+05
  -9.583579e+05   9.103920e+04
  -5.733461e+05  -6.945467e+05
   3.144471e+05  -8.042054e+05
   9.107817e+05  -1.963178e+05
   5.461386e+05   4.521512e+05
  -5.139123e+05   5.026945e+05
  -1.226966e+06  -3.571678e+04
  -8.417945e+05  -6.331023e+05
   3.043344e+05  -7.972327e+05
   1.147432e+06  -4.497001e+05
   9.869864e+05   9.678945e+04
   1.338131e+05   4.025555e+05
  -4.837474e+05   2.331418e+05
  -2.717880e+05  -2.044345e+05
   4.713324e+05  -3.687842e+05
   8.927006e+05   1.042024e+05
   4.577556e+05   9.194300e+05
  -5.093552e+05   1.271996e+06
  -1.157328e+06   6.345279e+05
  -9.524311e+05  -5.979381e+05
  -1.462681e+05  -1.377317e+06
   5.643346e+05  -1.016205e+06
   7.147442e+05   9.886868e+04
   3.657913e+05   9.026819e+05
  -1.198821e+05   7.642763e+05
  -4.141289e+05   8.372753e+04
  -3.897518e+05  -2.948432e+05
  -1.625180e+05  -1.158159e+05
  -2.237143e+04   8.393249e+04
  -1.591726e+05  -2.011135e+05
  -3.684722e+05  -7.265610e+05
  -1.909329e+05  -8.298455e+05
   4.935551e+05  -3.081516e+05
   1.133099e+06   3.558147e+05
   1.019042e+06   6.370705e+05
   1.461482e+05   5.239638e+05
  -6.874017e+05   3.168853e+05
  -7.641745e+05   1.533006e+05
  -2.442936e+05  -1.995730e+04
   1.252209e+05  -1.687151e+05
  -1.531956e+04  -1.761112e+05
  -2.472035e+05  -9.487453e+04
  -2.127380e+04  -1.049754e+05
   5.526806e+05  -1.636379e+05
   7.927173e+05   2.446995e+04
   2.640318e+05   5.235089e+05
  -6.863620e+05   8.707790e+05
  -1.269026e+06   5.392151e+05
  -1.021925e+06  -3.586336e+05
  -1.892480e+05  -1.080259e+06
   5.774109e+05  -1.031495e+06
   8.014128e+05  -3.784834e+05
   5.057498e+05   2.020505e+05
   8.286795e+04   2.734585e+05
  -9.075731e+04   2.723418e+04
   4.743354e+04  -4.015461e+04
   2.467195e+05   2.678281e+05
   2.025697e+05   6.157025e+05
  -1.471874e+05   5.085607e+05
  -5.276488e+05  -1.208869e+05
  -5.376643e+05  -7.542975e+05
  -4.178494e+04  -7.835396e+05
   5.991515e+05  -1.505393e+05
   7.752758e+05   5.867813e+05
   2.372856e+05   8.299448e+05
  -5.524883e+05   4.863743e+05
  -8.336669e+05  -7.184957e+04
  -3.805714e+05  -4.433960e+05
   2.195094e+05  -4.815585e+05
   2.597898e+05  -2.697333e+05
  -2.224613e+05  -1.923425e+04
  -5.039857e+05   2.293500e+04
  -9.888503e+04  -2.290575e+05
   6.306629e+05  -5.192581e+05
   9.311932e+05  -4.316156e+05
   5.456614e+05   1.125942e+05
  -7.957569e+04   6.486979e+05
  -3.946844e+05   6.355519e+05
  -2.926925e+05   9.662137e+04
  -2.258022e+04  -3.795236e+05
   1.905382e+05  -3.133250e+05
   2.709139e+05   1.422900e+05
   1.871864e+05   4.418860e+05
  -5.057034e+04   2.988441e+05
  -2.969753e+05  -4.812996e+04
  -3.502070e+05  -1.952508e+05
  -1.832739e+05  -5.590058e+04
   9.876564e+03   9.216557e+04
   6.028405e+04  -1.421188e+04
   3.172569e+04  -2.899038e+05
   9.865377e+04  -3.894021e+05
   2.644175e+05  -1.131186e+05
   3.107596e+05   3.266962e+05
   6.603447e+04   5.008149e+05
  -3.273887e+05   2.246255e+05
  -4.867544e+05  -2.351403e+05
  -1.772318e+05  -4.500363e+05
   3.792938e+05  -2.721267e+05
   6.555792e+05   7.416303e+04
   3.551460e+05   2.903716e+05
  -2.261029e+05   2.823561e+05
  -4.810336e+05   1.448334e+05
  -1.685666e+05   7.517375e+03
   2.964375e+05  -2.934366e+04
   3.241115e+05   8.122688e+04
  -1.537571e+05   2.415709e+05
  -6.092263e+05   2.052257e+05
