
 $NMID
 id='ANONYMOUS ', fmtdat='(2E16.6)'
 volume=1.0
 tramp=1.0
 $END
  -1.911890e+07   7.658764e+05
  -1.344013e+07  -8.180275e+06
  -8.254166e+05  -1.213899e+07
   7.949355e+06  -8.836309e+06
   7.257150e+06  -1.439111e+06
   7.782372e+05   3.551358e+06
  -3.992940e+06   2.171702e+06
  -3.358756e+06  -3.010818e+06
   6.046601e+05  -5.684238e+06
   3.625210e+06  -2.745274e+06
   3.322442e+06   2.449240e+06
   5.387092e+05   4.194250e+06
  -1.904192e+06   8.926685e+05
  -1.664015e+06  -3.524446e+06
   1.008307e+06  -4.246373e+06
   3.333062e+06  -6.013340e+05
   2.678099e+06   3.771760e+06
  -6.457375e+05   4.972849e+06
  -3.640082e+06   2.467666e+06
  -3.789566e+06  -1.029932e+06
  -1.597465e+06  -2.639391e+06
   2.401697e+05  -1.998359e+06
  -1.165462e+05  -1.053884e+06
  -1.730532e+06  -1.542635e+06
  -1.977630e+06  -3.027365e+06
   5.329259e+05  -3.553986e+06
   4.145385e+06  -1.981310e+06
   5.494278e+06   7.289915e+05
   2.989231e+06   2.520358e+06
  -1.174221e+06   2.179865e+06
  -3.052301e+06   2.414969e+05
  -1.124338e+06  -1.591834e+06
   2.154941e+06  -1.726017e+06
   3.278775e+06   1.151001e+05
   1.524335e+06   2.440280e+06
  -7.897903e+05   3.054609e+06
  -1.399176e+06   1.250890e+06
  -4.093068e+05  -1.104634e+06
   5.324382e+05  -1.388403e+06
   3.650880e+05   6.897007e+05
  -6.252824e+05   2.537752e+06
  -1.509449e+06   1.735928e+06
  -1.481082e+06  -9.398259e+05
  -2.964080e+05  -2.389200e+06
   1.298518e+06  -9.144677e+05
   1.731572e+06   1.821449e+06
   3.348210e+04   2.825397e+06
  -2.670121e+06   1.077957e+06
  -3.779787e+06  -1.680500e+06
  -1.876730e+06  -3.028612e+06
   1.525843e+06  -2.123167e+06
   3.380988e+06  -5.245888e+04
   2.216515e+06   1.429649e+06
  -4.903252e+05   1.357657e+06
  -2.035357e+06   1.655482e+05
  -1.255368e+06  -8.332316e+05
   5.521314e+05  -6.798254e+05
   1.255905e+06   3.391675e+05
   1.928658e+05   1.044081e+06
  -1.223054e+06   6.264547e+05
  -1.151328e+06  -5.130502e+05
   5.399983e+05  -1.182901e+06
   2.008633e+06  -5.474718e+05
   1.421966e+06   1.099397e+06
  -9.908790e+05   2.499048e+06
  -3.154760e+06   2.365475e+06
  -3.349561e+06   4.777382e+05
  -1.839931e+06  -1.960976e+06
  -2.263249e+05  -3.265872e+06
   4.220894e+05  -2.830276e+06
   4.224498e+05  -1.631911e+06
   6.665490e+05  -9.708393e+05
   1.438218e+06  -9.084702e+05
   2.167795e+06  -4.059863e+05
   2.081700e+06   1.002049e+06
   9.311941e+05   2.256736e+06
  -7.282108e+05   1.909649e+06
  -1.807650e+06  -4.481794e+04
  -1.434521e+06  -1.952735e+06
   2.352360e+05  -2.170535e+06
   1.938848e+06  -6.558143e+05
   2.326349e+06   1.194858e+06
   1.229860e+06   2.031019e+06
  -2.078252e+05   1.679079e+06
  -8.094323e+05   9.585647e+05
  -6.450912e+05   6.638645e+05
  -7.994515e+05   8.036134e+05
  -1.855391e+06   7.139670e+05
  -2.921406e+06  -1.828384e+05
  -2.485647e+06  -1.700078e+06
  -2.282828e+05  -2.894103e+06
   2.316287e+06  -2.790064e+06
   3.144980e+06  -1.258996e+06
   1.785286e+06   7.140014e+05
  -2.692149e+05   1.727866e+06
  -1.131254e+06   1.167103e+06
  -3.502798e+05  -1.826557e+05
   8.966121e+05  -8.631425e+05
   1.231366e+06  -2.509097e+05
   4.448582e+05   7.614774e+05
  -5.077571e+05   8.171655e+05
  -6.000640e+05  -2.176081e+05
   2.947494e+05  -9.693913e+05
   1.334943e+06  -1.602947e+05
   1.429892e+06   1.753293e+06
   1.565431e+05   2.911510e+06
  -1.775145e+06   2.026374e+06
  -2.951757e+06  -2.582207e+05
  -2.415047e+06  -2.083661e+06
  -5.920558e+05  -2.235716e+06
   1.013544e+06  -1.124671e+06
   1.235529e+06  -8.307995e+04
   3.598411e+05   2.738572e+04
  -2.841575e+05  -5.254579e+05
   1.604686e+05  -8.547798e+05
   1.138874e+06  -4.384517e+05
   1.377274e+06   3.943285e+05
   4.154378e+05   8.526201e+05
  -7.751817e+05   5.029116e+05
  -8.236912e+05  -2.854227e+05
   4.777647e+05  -6.789815e+05
   1.829184e+06  -1.658168e+05
   1.734079e+06   9.413479e+05
   8.381590e+04   1.733492e+06
  -1.690856e+06   1.483346e+06
  -2.059942e+06   3.255805e+05
  -8.855401e+05  -7.898328e+05
   5.575228e+05  -9.368023e+05
   9.268187e+05  -1.260425e+05
   6.008232e+04   6.691715e+05
  -1.041036e+06   5.228787e+05
  -1.278707e+06  -4.348735e+05
  -4.599199e+05  -1.169389e+06
   6.202999e+05  -9.166523e+05
   9.747266e+05  -2.583054e+04
   3.631112e+05   4.865419e+05
  -4.649243e+05   9.212749e+04
  -5.041635e+05  -7.158604e+05
   4.396696e+05  -1.005482e+06
   1.461133e+06  -3.604223e+05
   1.457066e+06   7.588381e+05
   3.135797e+05   1.465625e+06
  -9.425637e+05   1.215988e+06
  -1.219489e+06   2.596795e+05
  -4.595672e+05  -5.802065e+05
   4.192772e+05  -6.470632e+05
   5.639352e+05  -5.924101e+04
   1.047273e+04   4.516880e+05
  -5.041926e+05   3.560304e+05
  -3.960089e+05  -9.724721e+04
   1.710630e+05  -2.180556e+05
   4.834328e+05   2.640242e+05
   2.772800e+04   8.309924e+05
  -9.305410e+05   7.223721e+05
  -1.521644e+06  -2.304740e+05
  -1.093037e+06  -1.375115e+06
   1.169372e+05  -1.814883e+06
   1.181182e+06  -1.206519e+06
   1.384517e+06  -4.977897e+04
   8.618903e+05   7.741223e+05
   3.124132e+05   7.979736e+05
   1.831866e+05   3.529029e+05
   2.606635e+05   1.415275e+05
   5.161453e+04   4.236229e+05
  -5.581765e+05   7.146041e+05
  -1.096058e+06   3.771556e+05
  -9.358315e+05  -5.475957e+05
   5.595940e+04  -1.248452e+06
   1.262103e+06  -9.454475e+05
   1.730289e+06   2.759031e+05
   9.750813e+05   1.484832e+06
  -5.362431e+05   1.743587e+06
  -1.725911e+06   9.210611e+05
  -1.819236e+06  -2.657341e+05
  -9.681267e+05  -9.567637e+05
   3.438410e+03  -9.032831e+05
   4.211404e+05  -5.704244e+05
   3.073088e+05  -5.300705e+05
   1.819286e+05  -7.979530e+05
   4.235931e+05  -8.350674e+05
   8.601541e+05  -2.164469e+05
   9.610975e+05   7.877325e+05
   4.189910e+05   1.393447e+06
  -4.571896e+05   1.066989e+06
  -9.624015e+05   5.467376e+04
  -6.664944e+05  -8.506682e+05
   1.349404e+05  -1.020032e+06
   6.999879e+05  -4.703901e+05
   5.910054e+05   2.654019e+05
   8.978622e+04   6.627416e+05
  -1.771330e+05   6.128190e+05
   2.733347e+04   3.900088e+05
   2.856614e+05   2.848434e+05
   2.500991e+04   2.995030e+05
  -7.697387e+05   2.006682e+05
  -1.422093e+06  -1.666442e+05
  -1.204388e+06  -6.638639e+05
  -1.219756e+05  -9.599095e+05
   1.000397e+06  -8.230020e+05
   1.288227e+06  -3.275087e+05
   6.684662e+05   1.814792e+05
  -1.153418e+05   3.444782e+05
  -3.308691e+05   1.020593e+05
   2.188274e+04  -2.088225e+05
   3.762420e+05  -1.663387e+05
   3.392118e+05   2.482864e+05
   7.263132e+04   5.635406e+05
  -3.870919e+04   3.591536e+05
   1.144817e+05  -1.569465e+05
   2.970507e+05  -3.244975e+05
   2.297138e+05   1.533537e+05
  -1.514257e+05   7.703225e+05
  -6.404510e+05   7.742261e+05
  -8.548845e+05   6.700217e+04
  -4.954040e+05  -6.655190e+05
   2.896431e+05  -7.294331e+05
   8.380332e+05  -1.471322e+05
   5.290130e+05   4.524988e+05
  -4.770881e+05   5.140490e+05
  -1.230311e+06   2.171771e+04
  -9.212281e+05  -5.916899e+05
   2.230794e+05  -8.426525e+05
   1.137141e+06  -5.509338e+05
   1.028932e+06   3.236247e+04
   1.709276e+05   4.089637e+05
  -4.631241e+05   2.686069e+05
  -2.496622e+05  -1.732741e+05
   4.833382e+05  -3.344530e+05
   8.650605e+05   1.366790e+05
   4.001796e+05   9.142137e+05
  -5.493683e+05   1.222334e+06
  -1.155847e+06   5.899056e+05
  -9.364006e+05  -5.990472e+05
  -1.507705e+05  -1.364986e+06
   5.447391e+05  -1.040486e+06
   7.188217e+05   4.763426e+04
   4.153690e+05   8.798182e+05
  -5.482296e+04   7.880127e+05
  -3.912444e+05   1.124860e+05
  -4.267234e+05  -2.966536e+05
  -2.047463e+05  -1.288159e+05
  -4.776042e+03   9.794059e+04
  -9.775004e+04  -1.608879e+05
  -3.492004e+05  -6.951921e+05
  -2.521088e+05  -8.278532e+05
   4.207938e+05  -3.239764e+05
   1.128910e+06   3.379114e+05
   1.062159e+06   6.174003e+05
   1.573995e+05   5.034408e+05
  -7.167670e+05   3.118576e+05
  -7.680267e+05   1.759805e+05
  -2.048501e+05   1.238793e+04
   1.384168e+05  -1.615237e+05
  -6.769240e+04  -2.029928e+05
  -2.977760e+05  -1.248694e+05
   4.729109e+02  -1.048345e+05
   6.003043e+05  -1.393612e+05
   7.698578e+05   3.560733e+04
   1.802881e+05   4.975181e+05
  -7.198698e+05   8.208275e+05
  -1.201466e+06   4.963192e+05
  -9.324816e+05  -3.746716e+05
  -1.674913e+05  -1.067041e+06
   5.456440e+05  -9.960965e+05
   7.806480e+05  -3.361775e+05
   5.026789e+05   2.278430e+05
   5.814733e+04   2.652166e+05
  -1.350407e+05  -8.876812e+03
   3.064579e+04  -7.836488e+04
   2.699047e+05   2.462434e+05
   2.234381e+05   6.036893e+05
  -1.530941e+05   4.862857e+05
  -5.259744e+05  -1.549897e+05
  -4.936270e+05  -7.725952e+05
   1.756494e+04  -7.582192e+05
   6.165669e+05  -9.439000e+04
   7.399883e+05   6.216603e+05
   1.982070e+05   8.080261e+05
  -5.473358e+05   4.368489e+05
  -7.894181e+05  -8.372142e+04
  -3.447778e+05  -3.958892e+05
   2.081756e+05  -4.235823e+05
   2.098246e+05  -2.554458e+05
  -2.649172e+05  -4.009628e+04
  -5.059385e+05   1.417364e+04
  -8.084371e+04  -2.140642e+05
   6.177073e+05  -5.160524e+05
   8.726868e+05  -4.624953e+05
   4.888004e+05   6.916803e+04
  -8.076693e+04   6.160662e+05
  -3.429978e+05   6.054191e+05
  -2.366590e+05   6.250103e+04
   4.632197e+03  -3.902343e+05
   1.944320e+05  -2.801044e+05
   2.656235e+05   1.826658e+05
   1.760685e+05   4.342071e+05
  -5.928056e+04   2.524504e+05
  -2.878627e+05  -6.633129e+04
  -3.293082e+05  -1.604122e+05
  -1.805015e+05  -2.777704e+04
  -1.045239e+04   5.502290e+04
   6.220646e+04  -8.433285e+04
   9.329052e+04  -3.085288e+05
   1.802693e+05  -3.287633e+05
   2.823200e+05  -2.941454e+04
   2.430092e+05   3.692700e+05
  -1.415625e+04   4.932749e+05
  -3.421624e+05   1.963010e+05
  -4.451771e+05  -2.590302e+05
  -1.488756e+05  -4.575358e+05
   3.585580e+05  -2.596189e+05
   6.145197e+05   9.277279e+04
   3.337425e+05   2.856652e+05
  -2.204181e+05   2.428677e+05
  -4.573907e+05   1.006216e+05
  -1.302990e+05   1.619951e+03
   3.366318e+05   1.012209e+04
   3.334446e+05   1.306945e+05
  -1.923345e+05   2.632972e+05
  -6.619216e+05   1.936568e+05
