
 $NMID
 id='ANONYMOUS ', fmtdat='(2E16.6)'
 volume=1.0
 tramp=1.0
 $END
   5.485629e+07   1.090130e+06
   3.213336e+07   3.471869e+07
  -8.149322e+06   3.691674e+07
  -2.707909e+07   1.353080e+07
  -1.571140e+07  -7.248704e+06
   3.469624e+06  -8.942784e+06
   9.431305e+06   1.464605e+06
   2.407220e+06   9.496223e+06
  -6.189078e+06   8.817940e+06
  -9.348446e+06   1.687449e+06
  -6.669813e+06  -6.121880e+06
  -6.714669e+05  -8.330064e+06
   3.917211e+06  -2.622540e+06
   2.491672e+06   5.246640e+06
  -3.728300e+06   6.209873e+06
  -7.577897e+06  -1.471978e+06
  -4.098648e+06  -9.969228e+06
   3.895605e+06  -1.135752e+07
   9.927194e+06  -5.556380e+06
   1.050168e+07   2.176059e+06
   6.351519e+06   7.435144e+06
   5.071530e+05   8.501875e+06
  -3.034775e+06   5.853635e+06
  -1.941456e+06   2.478345e+06
   1.051332e+06   1.958862e+06
   2.811384e+05   4.000002e+06
  -5.221346e+06   4.251507e+06
  -9.359193e+06   4.344069e+05
  -6.807817e+06  -4.077598e+06
  -2.291609e+05  -4.965482e+06
   3.614743e+06  -2.536411e+06
   2.460058e+06  -5.173255e+04
  -4.696149e+05   9.163287e+05
  -2.132613e+06   5.444470e+05
  -2.154371e+06  -1.320492e+06
  -7.159755e+05  -3.807473e+06
   1.792257e+06  -3.756153e+06
   3.218120e+06   1.373850e+05
   1.657193e+06   3.608206e+06
  -8.355118e+05   1.923571e+06
  -3.858180e+05  -2.356445e+06
   2.375176e+06  -2.186584e+06
   2.295065e+06   3.139698e+06
  -2.512514e+06   5.879357e+06
  -6.812977e+06   8.005102e+05
  -4.842865e+06  -6.864440e+06
   2.048865e+06  -8.252486e+06
   7.265206e+06  -2.215405e+06
   6.640621e+06   4.405852e+06
   1.672169e+06   5.828902e+06
  -3.382442e+06   2.543006e+06
  -5.014946e+06  -1.552542e+06
  -2.251875e+06  -3.386939e+06
   2.388537e+06  -2.061079e+06
   4.359291e+06   9.855975e+05
   1.823373e+06   2.671167e+06
  -1.693647e+06   1.294518e+06
  -1.650963e+06  -1.011012e+06
   1.305377e+06  -8.210346e+05
   2.325717e+06   1.788103e+06
  -7.371314e+05   3.319954e+06
  -4.563947e+06   1.713715e+06
  -5.098054e+06  -1.448437e+06
  -2.152828e+06  -3.904337e+06
   1.813425e+06  -5.084241e+06
   4.888190e+06  -4.653495e+06
   6.025605e+06  -1.639210e+06
   4.430685e+06   3.116936e+06
   8.536984e+05   5.993807e+06
  -1.868570e+06   4.564509e+06
  -1.707339e+06   1.106473e+06
  -9.600649e+04  -2.681515e+05
   8.595577e+04   9.859198e+05
  -1.543365e+06   1.784789e+06
  -2.749506e+06   2.660426e+05
  -1.996935e+06  -1.854695e+06
  -5.709140e+04  -2.081542e+06
   1.480262e+06  -2.237744e+05
   1.617232e+06   1.984453e+06
   1.099009e+03   2.836077e+06
  -2.693849e+06   1.600734e+06
  -4.346666e+06  -1.184721e+06
  -3.102724e+06  -3.697531e+06
   9.518330e+04  -4.128486e+06
   2.270700e+06  -2.615828e+06
   2.198421e+06  -1.057795e+06
   1.780488e+06  -6.188406e+05
   2.839291e+06  -4.228021e+05
   4.188988e+06   7.812070e+05
   3.340650e+06   2.704138e+06
   9.290035e+04   3.986926e+06
  -3.121991e+06   3.751474e+06
  -4.049605e+06   2.042314e+06
  -2.585768e+06  -4.084310e+05
  -2.789348e+05  -2.173945e+06
   1.068068e+06  -1.886346e+06
   5.532640e+05   3.285796e+04
  -1.058629e+06   1.268808e+06
  -1.856568e+06   3.712692e+05
  -8.917743e+05  -1.184868e+06
   5.014070e+05  -1.079737e+06
   3.964048e+05   3.736108e+05
  -1.044349e+06   6.298365e+05
  -1.752412e+06  -1.310962e+06
  -5.289590e+05  -3.381811e+06
   1.611910e+06  -3.222496e+06
   3.028514e+06  -9.768760e+05
   3.134865e+06   1.441124e+06
   2.144183e+06   2.655610e+06
   4.184821e+05   2.501700e+06
  -1.202710e+06   1.409915e+06
  -1.527721e+06   2.182267e+05
  -4.770703e+05  -4.811140e+04
   3.401189e+05   7.325682e+05
  -4.232485e+05   1.300925e+06
  -1.869561e+06   5.386771e+05
  -1.965009e+06  -8.953442e+05
  -3.486096e+05  -1.384924e+06
   1.144261e+06  -5.374446e+05
   8.459821e+05   4.462713e+05
  -8.277034e+05   4.730798e+05
  -2.083088e+06  -3.469487e+05
  -1.647478e+06  -1.317133e+06
   2.651068e+05  -1.880006e+06
   2.241809e+06  -1.568015e+06
   2.686352e+06  -2.372295e+05
   1.167863e+06   1.246856e+06
  -9.164169e+05   1.459403e+06
  -1.531775e+06   1.670284e+05
  -1.901734e+05  -1.062492e+06
   1.483646e+06  -7.038061e+05
   1.656580e+06   7.817775e+05
   2.967416e+05   1.603248e+06
  -1.075735e+06   9.177517e+05
  -1.205720e+06  -3.320049e+05
  -2.143787e+05  -7.623073e+05
   7.826353e+05  -3.928637e+04
   7.098179e+05   1.034411e+06
  -5.685676e+05   1.383878e+06
  -1.956222e+06   5.171124e+05
  -1.973395e+06  -1.035653e+06
  -3.541377e+05  -2.021977e+06
   1.420044e+06  -1.581085e+06
   1.679112e+06  -1.806849e+05
   4.713292e+05   8.498880e+05
  -6.497604e+05   7.683909e+05
  -6.071591e+05   7.275930e+04
   1.200968e+05  -3.296618e+05
   4.592039e+05  -1.860323e+05
   9.319750e+04   4.965248e+04
  -4.391275e+05  -1.075677e+05
  -4.806287e+05  -6.730701e+05
   2.267235e+05  -1.148504e+06
   1.354067e+06  -8.508689e+05
   2.016906e+06   4.233940e+05
   1.406485e+06   1.901535e+06
  -2.290709e+05   2.344716e+06
  -1.572432e+06   1.344743e+06
  -1.621350e+06  -1.423024e+05
  -8.089108e+05  -8.575904e+05
  -3.071810e+05  -6.031225e+05
  -4.835180e+05  -2.044025e+05
  -6.217174e+05  -3.232433e+05
  -7.973023e+04  -7.555778e+05
   8.629210e+05  -8.605121e+05
   1.400099e+06  -2.932277e+05
   9.987430e+05   7.009639e+05
  -2.588594e+05   1.393969e+06
  -1.673595e+06   1.014280e+06
  -2.168790e+06  -4.892968e+05
  -1.070851e+06  -2.047192e+06
   1.015848e+06  -2.282438e+06
   2.483459e+06  -9.635042e+05
   2.261444e+06   6.740276e+05
   8.923253e+05   1.299587e+06
  -2.135151e+05   8.914448e+05
  -3.614265e+05   4.786073e+05
  -5.754041e+04   7.417601e+05
  -1.040196e+05   1.287618e+06
  -6.695691e+05   1.255223e+06
  -1.267448e+06   3.000314e+05
  -1.294342e+06  -1.058266e+06
  -5.284979e+05  -1.842378e+06
   6.118957e+05  -1.390769e+06
   1.244498e+06   1.509218e+04
   7.703903e+05   1.258011e+06
  -4.034131e+05   1.348211e+06
  -1.140792e+06   3.635567e+05
  -7.748389e+05  -7.071947e+05
   1.490603e+05  -1.049973e+06
   5.464759e+05  -7.444263e+05
   9.140897e+04  -3.915314e+05
  -4.236765e+05  -3.255402e+05
  -5.873392e+04  -3.712687e+05
   1.122624e+06  -1.896993e+05
   2.008378e+06   3.460583e+05
   1.559102e+06   1.025789e+06
  -6.443509e+04   1.397883e+06
  -1.568230e+06   1.094229e+06
  -1.781951e+06   2.435814e+05
  -7.940953e+05  -5.025285e+05
   2.676655e+05  -5.564280e+05
   4.992364e+05  -1.970136e+04
   2.909264e+04   4.220018e+05
  -4.262759e+05   2.535168e+05
  -4.678651e+05  -3.351214e+05
  -2.580523e+05  -7.034335e+05
  -1.049055e+05  -4.689047e+05
  -1.290024e+05   8.107957e+04
  -2.572727e+05   2.723755e+05
  -2.622882e+05  -2.281033e+05
   1.338767e+05  -9.533673e+05
   8.807702e+05  -1.032186e+06
   1.344840e+06  -1.677290e+05
   8.413944e+05   8.970955e+05
  -4.133806e+05   1.119207e+06
  -1.238443e+06   3.340963e+05
  -7.135569e+05  -5.551952e+05
   6.889718e+05  -6.202972e+05
   1.530286e+06   1.112046e+05
   9.453371e+05   8.428596e+05
  -4.900861e+05   9.369278e+05
  -1.445826e+06   4.299266e+05
  -1.174814e+06  -2.029409e+05
  -1.181940e+05  -4.928620e+05
   6.321446e+05  -2.473211e+05
   3.762967e+05   2.954140e+05
  -5.632008e+05   5.169991e+05
  -1.154596e+06  -6.756442e+04
  -6.698884e+05  -1.145592e+06
   5.557596e+05  -1.666477e+06
   1.435529e+06  -8.749475e+05
   1.221495e+06   7.300749e+05
   1.969290e+05   1.735731e+06
  -7.194515e+05   1.242215e+06
  -8.900570e+05  -1.882897e+05
  -3.982149e+05  -1.157136e+06
   2.347325e+05  -9.237465e+05
   5.502925e+05  -6.944160e+04
   4.363710e+05   3.611474e+05
   1.420160e+05   1.248156e+05
   5.313986e+04  -8.554704e+04
   2.936862e+05   3.046748e+05
   5.006925e+05   9.465129e+05
   1.612824e+05   1.038914e+06
  -7.189728e+05   3.723392e+05
  -1.426892e+06  -4.533762e+05
  -1.219256e+06  -8.110987e+05
  -1.744927e+05  -6.825740e+05
   8.102440e+05  -4.117150e+05
   9.470796e+05  -1.691921e+05
   3.646144e+05   6.698299e+04
  -1.341130e+05   2.226128e+05
  -5.649238e+04   1.828305e+05
   2.341130e+05   7.305042e+04
   5.987162e+04   1.296094e+05
  -6.163556e+05   2.456861e+05
  -1.022752e+06  -1.280768e+03
  -4.614299e+05  -6.837068e+05
   7.923082e+05  -1.168995e+06
   1.673273e+06  -7.581047e+05
   1.411500e+06   4.049102e+05
   2.847080e+05   1.364117e+06
  -7.504913e+05   1.349405e+06
  -1.023095e+06   5.471633e+05
  -6.373476e+05  -2.066582e+05
  -1.440760e+05  -3.508011e+05
   4.614357e+04  -8.614621e+04
  -8.502453e+04  -4.491841e+03
  -2.788583e+05  -3.633199e+05
  -2.320494e+05  -7.839245e+05
   1.661802e+05  -6.693643e+05
   6.611654e+05   9.272576e+04
   7.462621e+05   9.045026e+05
   1.522199e+05   1.011906e+06
  -7.175652e+05   2.785032e+05
  -1.026757e+06  -6.681857e+05
  -3.668560e+05  -1.062912e+06
   6.877723e+05  -6.881856e+05
   1.106004e+06   5.790457e+04
   5.362149e+05   6.157382e+05
  -2.807400e+05   6.897301e+05
  -3.926590e+05   3.637798e+05
   2.149328e+05  -7.785069e+03
   6.255054e+05  -4.873319e+04
   1.539222e+05   3.056736e+05
  -7.984254e+05   6.629201e+05
  -1.243274e+06   5.101222e+05
  -7.683099e+05  -1.935087e+05
   8.640170e+04  -8.588608e+05
   5.577018e+05  -8.458606e+05
   4.445687e+05  -1.775218e+05
   7.318354e+04   4.565290e+05
  -2.260274e+05   4.424557e+05
  -3.462056e+05  -1.142240e+05
  -2.568654e+05  -5.596104e+05
   4.378888e+04  -4.414441e+05
   3.839887e+05   2.852251e+04
   4.723908e+05   2.886383e+05
   2.350209e+05   1.082149e+05
  -4.524028e+04  -1.683838e+05
  -7.547765e+04  -8.427360e+04
   5.414902e+04   3.322167e+05
   5.125952e+03   5.727694e+05
  -2.983339e+05   2.670901e+05
  -4.902157e+05  -3.376846e+05
  -2.077892e+05  -6.315959e+05
   3.824172e+05  -3.260893e+05
   6.709532e+05   2.494061e+05
   2.690950e+05   5.468370e+05
  -4.992811e+05   3.645779e+05
  -8.788041e+05  -5.366371e+04
  -4.792756e+05  -3.631002e+05
   2.845344e+05  -4.140585e+05
   6.310213e+05  -2.539664e+05
   2.662812e+05  -2.229124e+04
  -3.088143e+05   9.718575e+04
  -3.899262e+05  -2.438354e+04
   1.326950e+05  -2.702552e+05
   6.796733e+05  -2.798625e+05
