
 $NMID
 id='ANONYMOUS ', fmtdat='(2E16.6)'
 volume=1.0
 tramp=1.0
 $END
   2.112148e+07  -7.411922e+05
   1.431211e+07   9.636117e+06
   2.204092e+05   1.338684e+07
  -8.856500e+06   8.922856e+06
  -7.456128e+06   9.204870e+05
  -4.373180e+05  -3.740932e+06
   4.199281e+06  -1.892354e+06
   3.211976e+06   3.305810e+06
  -8.788101e+05   5.731105e+06
  -3.851908e+06   2.627671e+06
  -3.470879e+06  -2.619008e+06
  -5.575716e+05  -4.364765e+06
   2.021918e+06  -9.719654e+05
   1.762701e+06   3.581173e+06
  -1.078128e+06   4.307814e+06
  -3.501476e+06   5.001977e+05
  -2.754484e+06  -4.027506e+06
   7.521836e+05  -5.243603e+06
   3.903996e+06  -2.636932e+06
   4.140123e+06   1.048421e+06
   1.880095e+06   2.903195e+06
  -2.246383e+05   2.391458e+06
  -1.333902e+05   1.274511e+06
   1.506285e+06   1.428591e+06
   2.024931e+06   2.803467e+06
  -3.419372e+05   3.563041e+06
  -4.125140e+06   2.236693e+06
  -5.716334e+06  -5.272667e+05
  -3.238415e+06  -2.574704e+06
   1.079741e+06  -2.406550e+06
   3.111757e+06  -4.662295e+05
   1.286140e+06   1.465620e+06
  -1.943885e+06   1.752314e+06
  -3.157373e+06   6.268519e+04
  -1.617236e+06  -2.262154e+06
   6.009836e+05  -3.065087e+06
   1.386562e+06  -1.403997e+06
   6.129140e+05   1.067247e+06
  -3.854819e+05   1.568124e+06
  -4.588453e+05  -4.995539e+05
   4.551957e+05  -2.521641e+06
   1.477023e+06  -1.774805e+06
   1.492764e+06   1.038780e+06
   1.223754e+05   2.537677e+06
  -1.618338e+06   8.529944e+05
  -1.906772e+06  -2.127112e+06
   8.141244e+04  -3.124774e+06
   2.914988e+06  -1.170020e+06
   3.935984e+06   1.743114e+06
   1.896410e+06   3.093692e+06
  -1.567144e+06   2.131362e+06
  -3.405562e+06   2.517576e+04
  -2.170304e+06  -1.461753e+06
   6.104645e+05  -1.352628e+06
   2.137765e+06  -9.296191e+04
   1.241835e+06   9.242424e+05
  -6.309439e+05   7.054140e+05
  -1.253936e+06  -3.558171e+05
  -1.051427e+05  -9.825239e+05
   1.221379e+06  -4.616919e+05
   9.643073e+05   6.422016e+05
  -7.747093e+05   1.160938e+06
  -2.121745e+06   4.266579e+05
  -1.437714e+06  -1.222135e+06
   9.622223e+05  -2.636377e+06
   3.139237e+06  -2.553405e+06
   3.452551e+06  -6.277544e+05
   2.023627e+06   1.968382e+06
   3.282287e+05   3.378290e+06
  -4.439453e+05   2.867784e+06
  -4.235896e+05   1.539611e+06
  -5.373273e+05   8.937236e+05
  -1.262439e+06   9.843881e+05
  -2.099302e+06   5.961704e+05
  -2.158271e+06  -8.327668e+05
  -1.072688e+06  -2.185568e+06
   6.132897e+05  -1.932387e+06
   1.773556e+06  -3.282714e+04
   1.488388e+06   1.888147e+06
  -1.608069e+05   2.192666e+06
  -1.952933e+06   7.571864e+05
  -2.456478e+06  -1.125234e+06
  -1.369490e+06  -2.083336e+06
   1.749991e+05  -1.808836e+06
   8.717420e+05  -1.050214e+06
   7.046089e+05  -6.762440e+05
   8.110456e+05  -7.944528e+05
   1.856686e+06  -7.420644e+05
   2.951327e+06   1.223230e+05
   2.544359e+06   1.653090e+06
   3.057197e+05   2.907214e+06
  -2.238539e+06   2.881207e+06
  -3.114674e+06   1.386247e+06
  -1.837361e+06  -6.390734e+05
   1.783161e+05  -1.750234e+06
   1.086580e+06  -1.226738e+06
   3.692292e+05   1.751243e+05
  -8.780547e+05   9.085550e+05
  -1.255848e+06   2.780920e+05
  -4.818512e+05  -7.786095e+05
   4.929212e+05  -8.360635e+05
   5.927185e+05   2.140124e+05
  -3.089475e+05   9.422669e+05
  -1.328538e+06   1.055811e+05
  -1.390034e+06  -1.767591e+06
  -1.323846e+05  -2.851510e+06
   1.739678e+06  -1.968474e+06
   2.896643e+06   2.264402e+05
   2.413813e+06   1.992585e+06
   6.460089e+05   2.188999e+06
  -9.681908e+05   1.153889e+06
  -1.228157e+06   1.249511e+05
  -3.583095e+05  -1.920245e+04
   3.007218e+05   5.262816e+05
  -1.549244e+05   8.794564e+05
  -1.163050e+06   4.672483e+05
  -1.405503e+06  -3.925263e+05
  -4.199314e+05  -8.730588e+05
   7.860449e+05  -5.244752e+05
   8.338112e+05   2.713290e+05
  -4.627759e+05   6.822081e+05
  -1.808783e+06   2.023198e+05
  -1.735091e+06  -8.859508e+05
  -1.216225e+05  -1.710625e+06
   1.648338e+06  -1.518271e+06
   2.053209e+06  -3.744508e+05
   9.053729e+05   7.845730e+05
  -5.535241e+05   9.694661e+05
  -9.506123e+05   1.432917e+05
  -8.186436e+04  -6.913637e+05
   1.044137e+06  -5.576545e+05
   1.295814e+06   4.164662e+05
   4.714195e+05   1.166435e+06
  -6.181557e+05   9.170208e+05
  -9.755610e+05   2.398955e+04
  -3.587236e+05  -4.957412e+05
   4.859703e+05  -1.094212e+05
   5.450045e+05   7.103114e+05
  -4.015771e+05   1.037074e+06
  -1.458566e+06   4.198682e+05
  -1.493149e+06  -7.160901e+05
  -3.557562e+05  -1.468034e+06
   9.226366e+05  -1.244619e+06
   1.218936e+06  -2.789141e+05
   4.630219e+05   5.816967e+05
  -4.166453e+05   6.587894e+05
  -5.639591e+05   7.113177e+04
  -2.125070e+04  -4.471829e+05
   4.835047e+05  -3.672702e+05
   3.829338e+05   7.461168e+04
  -1.677127e+05   2.047511e+05
  -4.817231e+05  -2.591187e+05
  -4.493639e+04  -8.303047e+05
   9.113407e+05  -7.505820e+05
   1.533400e+06   1.847036e+05
   1.139630e+06   1.346453e+06
  -6.452948e+04   1.817988e+06
  -1.147150e+06   1.228320e+06
  -1.369657e+06   7.905423e+04
  -8.614731e+05  -7.363484e+05
  -3.274293e+05  -7.580407e+05
  -2.084253e+05  -3.278890e+05
  -2.834524e+05  -1.364882e+05
  -7.021887e+04  -4.277508e+05
   5.345347e+05  -7.262908e+05
   1.073519e+06  -4.080059e+05
   9.397020e+05   5.052545e+05
  -1.904555e+04   1.232121e+06
  -1.226641e+06   9.784370e+05
  -1.735126e+06  -2.224612e+05
  -1.015496e+06  -1.462300e+06
   4.988671e+05  -1.767652e+06
   1.714601e+06  -9.646191e+05
   1.824270e+06   2.301665e+05
   9.760228e+05   9.329117e+05
   1.142019e+04   8.877604e+05
  -3.917077e+05   5.675966e+05
  -2.693334e+05   5.422510e+05
  -1.488868e+05   8.184026e+05
  -4.050899e+05   8.590464e+05
  -8.633805e+05   2.454247e+05
  -9.902933e+05  -7.599579e+05
  -4.631068e+05  -1.384318e+06
   4.259231e+05  -1.083826e+06
   9.640400e+05  -7.999504e+04
   6.909304e+05   8.407185e+05
  -1.161745e+05   1.028532e+06
  -7.018991e+05   4.804854e+05
  -6.038285e+05  -2.673689e+05
  -9.756702e+04  -6.738064e+05
   1.767841e+05  -6.200219e+05
  -2.961959e+04  -3.838344e+05
  -2.958226e+05  -2.694677e+05
  -3.706434e+04  -2.941510e+05
   7.679240e+05  -2.236807e+05
   1.436456e+06   1.226457e+05
   1.228508e+06   6.334276e+05
   1.432298e+05   9.701200e+05
  -9.897749e+05   8.618129e+05
  -1.287768e+06   3.581465e+05
  -6.741244e+05  -1.782109e+05
   1.090510e+05  -3.555590e+05
   3.318828e+05  -1.074038e+05
  -9.825669e+03   2.136192e+05
  -3.641543e+05   1.758664e+05
  -3.456773e+05  -2.370656e+05
  -9.829975e+04  -5.539215e+05
   1.902157e+04  -3.572282e+05
  -1.077476e+05   1.527320e+05
  -2.792720e+05   3.262584e+05
  -2.348346e+05  -1.422046e+05
   1.181239e+05  -7.683012e+05
   6.130035e+05  -7.999968e+05
   8.636800e+05  -1.080790e+05
   5.300411e+05   6.454625e+05
  -2.634090e+05   7.489504e+05
  -8.370147e+05   1.852396e+05
  -5.426775e+05  -4.318810e+05
   4.642357e+05  -5.256794e+05
   1.224325e+06  -5.143521e+04
   9.245789e+05   5.682544e+05
  -2.088846e+05   8.410301e+05
  -1.119571e+06   5.696009e+05
  -1.022024e+06  -1.045374e+04
  -1.773043e+05  -4.026682e+05
   4.588907e+05  -2.783522e+05
   2.609377e+05   1.691337e+05
  -4.669074e+05   3.550345e+05
  -8.696148e+05  -1.011960e+05
  -4.373746e+05  -8.954858e+05
   4.994981e+05  -1.239436e+06
   1.129239e+06  -6.296303e+05
   9.520451e+05   5.657682e+05
   1.925463e+05   1.354850e+06
  -5.131281e+05   1.049642e+06
  -7.191375e+05  -3.201845e+04
  -4.362159e+05  -8.687148e+05
   3.981642e+04  -7.878535e+05
   3.914730e+05  -1.232196e+05
   4.297952e+05   2.833241e+05
   2.017861e+05   1.229485e+05
   5.913736e+03  -9.626409e+04
   1.148222e+05   1.596049e+05
   3.745125e+05   6.854011e+05
   2.672275e+05   8.211089e+05
  -4.212307e+05   3.378693e+05
  -1.135819e+06  -3.036567e+05
  -1.070988e+06  -5.864072e+05
  -1.725281e+05  -4.990038e+05
   6.980255e+05  -3.314789e+05
   7.593211e+05  -1.959829e+05
   2.111300e+05  -1.675182e+04
  -1.310847e+05   1.648955e+05
   6.371151e+04   1.980677e+05
   2.918270e+05   1.124677e+05
   7.813427e+03   1.030891e+05
  -5.838838e+05   1.593988e+05
  -7.708951e+05  -7.276909e+03
  -2.098941e+05  -4.882137e+05
   6.826820e+05  -8.452651e+05
   1.187647e+06  -5.425966e+05
   9.518956e+05   3.350249e+05
   2.047579e+05   1.056688e+06
  -5.128796e+05   1.016278e+06
  -7.661507e+05   3.684270e+05
  -5.073612e+05  -2.056824e+05
  -7.186318e+04  -2.620855e+05
   1.255084e+05   1.280572e+03
  -3.276325e+04   7.443033e+04
  -2.749885e+05  -2.410525e+05
  -2.400495e+05  -5.978676e+05
   1.350576e+05  -4.932436e+05
   5.278871e+05   1.321904e+05
   5.218551e+05   7.488065e+05
   1.650390e+04   7.558304e+05
  -6.048902e+05   1.203711e+05
  -7.589133e+05  -5.881554e+05
  -2.299608e+05  -7.984134e+05
   5.280574e+05  -4.597915e+05
   7.941583e+05   5.303602e+04
   3.650891e+05   3.875177e+05
  -1.908098e+05   4.384170e+05
  -2.076147e+05   2.675659e+05
   2.561801e+05   3.160604e+04
   5.016667e+05  -3.176748e+04
   9.090919e+04   2.110941e+05
  -6.003114e+05   5.343544e+05
  -8.649524e+05   4.869786e+05
  -4.998772e+05  -5.636032e+04
   5.898878e+04  -6.204632e+05
   3.279699e+05  -6.211071e+05
   2.392815e+05  -7.859201e+04
   1.098671e+04   3.847329e+05
  -1.814571e+05   2.894427e+05
  -2.678770e+05  -1.668401e+05
  -1.911317e+05  -4.267906e+05
   4.656206e+04  -2.594009e+05
   2.888184e+05   5.376734e+04
   3.382341e+05   1.533261e+05
   1.825588e+05   2.601259e+04
   2.940106e+03  -5.946721e+04
  -6.366407e+04   7.520894e+04
  -7.520667e+04   3.031849e+05
  -1.529364e+05   3.364076e+05
  -2.717470e+05   4.922789e+04
  -2.605490e+05  -3.489976e+05
  -1.392686e+04  -4.868988e+05
   3.299627e+05  -2.093735e+05
   4.557252e+05   2.370280e+05
   1.666412e+05   4.473586e+05
  -3.506111e+05   2.731171e+05
  -6.194588e+05  -6.717374e+04
  -3.447510e+05  -2.731167e+05
   2.101910e+05  -2.549962e+05
   4.528564e+05  -1.223730e+05
   1.346059e+05  -8.714265e+03
  -3.273418e+05   3.616629e+03
  -3.314299e+05  -1.133501e+05
   1.792115e+05  -2.625390e+05
   6.443347e+05  -2.116031e+05
