
 $NMID
 id='ANONYMOUS ', fmtdat='(2E16.6)'
 volume=1.0
 tramp=1.0
 $END
   2.188552e+07  -3.157116e+05
   1.517273e+07   8.986484e+06
   1.090046e+06   1.349278e+07
  -8.822395e+06   1.047038e+07
  -8.361165e+06   2.283956e+06
  -1.158990e+06  -3.994864e+06
   4.564403e+06  -2.892234e+06
   4.177375e+06   3.311752e+06
  -4.031757e+05   6.852893e+06
  -4.147159e+06   3.442195e+06
  -3.921963e+06  -2.915340e+06
  -6.150617e+05  -5.044433e+06
   2.321238e+06  -9.784841e+05
   2.059445e+06   4.373058e+06
  -1.093744e+06   5.206560e+06
  -3.883545e+06   8.312275e+05
  -3.191269e+06  -4.380568e+06
   7.043652e+05  -5.813433e+06
   4.254502e+06  -2.810264e+06
   4.353579e+06   1.366633e+06
   1.613982e+06   3.152002e+06
  -5.210664e+05   2.131594e+06
   2.329544e+05   9.146130e+05
   2.456822e+06   1.752330e+06
   2.675848e+06   3.864370e+06
  -6.838402e+05   4.535736e+06
  -5.248212e+06   2.410929e+06
  -6.787430e+06  -1.036191e+06
  -3.536958e+06  -3.175476e+06
   1.650106e+06  -2.647301e+06
   3.921497e+06  -1.777359e+05
   1.418870e+06   2.166675e+06
  -2.804885e+06   2.343664e+06
  -4.275405e+06  -9.542524e+04
  -1.977817e+06  -3.167797e+06
   1.071569e+06  -3.891617e+06
   1.803686e+06  -1.434294e+06
   3.750467e+05   1.549736e+06
  -8.742534e+05   1.694276e+06
  -5.285827e+05  -1.062962e+06
   8.133440e+05  -3.288091e+06
   1.845840e+06  -2.182708e+06
   1.775388e+06   1.046827e+06
   4.947239e+05   2.715070e+06
  -1.266147e+06   1.020671e+06
  -1.870221e+06  -2.053595e+06
  -5.961562e+04  -3.174096e+06
   3.112853e+06  -1.201118e+06
   4.569804e+06   1.982609e+06
   2.370944e+06   3.630401e+06
  -1.794576e+06   2.641529e+06
  -4.143141e+06   1.814335e+05
  -2.779308e+06  -1.645701e+06
   4.982330e+05  -1.620776e+06
   2.392929e+06  -2.454619e+05
   1.509412e+06   9.303876e+05
  -6.372312e+05   7.925149e+05
  -1.553714e+06  -3.778251e+05
  -3.675548e+05  -1.289499e+06
   1.393777e+06  -9.428621e+05
   1.507185e+06   3.854375e+05
  -4.163898e+05   1.353354e+06
  -2.277247e+06   7.713376e+05
  -1.694411e+06  -1.208043e+06
   1.237691e+06  -3.003279e+06
   3.925508e+06  -2.866338e+06
   4.113050e+06  -5.111079e+05
   2.169750e+06   2.465394e+06
   2.205750e+05   3.988702e+06
  -4.409996e+05   3.446294e+06
  -3.993725e+05   2.079404e+06
  -8.244488e+05   1.353236e+06
  -1.919610e+06   1.231598e+06
  -2.843707e+06   4.858694e+05
  -2.667898e+06  -1.346842e+06
  -1.165941e+06  -2.920316e+06
   9.549619e+05  -2.456947e+06
   2.333990e+06   3.649888e+04
   1.845922e+06   2.467243e+06
  -2.999490e+05   2.730110e+06
  -2.436606e+06   7.808673e+05
  -2.848133e+06  -1.543521e+06
  -1.425384e+06  -2.508782e+06
   3.164215e+05  -1.979786e+06
   9.642980e+05  -1.079730e+06
   7.152867e+05  -7.848350e+05
   9.316631e+05  -1.021928e+06
   2.276928e+06  -9.334608e+05
   3.623312e+06   1.776044e+05
   3.109938e+06   2.078832e+06
   3.183132e+05   3.605995e+06
  -2.876439e+06   3.508425e+06
  -3.946758e+06   1.580099e+06
  -2.241192e+06  -9.243504e+05
   3.642195e+05  -2.193040e+06
   1.446563e+06  -1.457497e+06
   4.380735e+05   2.457720e+05
  -1.131007e+06   1.081945e+06
  -1.525654e+06   3.101174e+05
  -5.340230e+05  -9.483611e+05
   6.434109e+05  -1.028417e+06
   7.760638e+05   2.540958e+05
  -3.011985e+05   1.239720e+06
  -1.627176e+06   3.111249e+05
  -1.863311e+06  -2.071796e+06
  -3.598067e+05  -3.629420e+06
   2.108304e+06  -2.644756e+06
   3.714856e+06   2.000506e+05
   3.113681e+06   2.561974e+06
   7.982735e+05   2.813725e+06
  -1.265617e+06   1.426284e+06
  -1.555272e+06   1.099555e+05
  -4.493701e+05  -3.024998e+04
   3.604917e+05   6.534390e+05
  -1.875644e+05   1.054270e+06
  -1.398642e+06   5.475944e+05
  -1.705178e+06  -4.655973e+05
  -5.282347e+05  -1.042195e+06
   9.587566e+05  -6.382949e+05
   1.048544e+06   3.431682e+05
  -5.693762e+05   8.796808e+05
  -2.297767e+06   2.710331e+05
  -2.221648e+06  -1.141549e+06
  -1.562040e+05  -2.187454e+06
   2.093764e+06  -1.897317e+06
   2.572796e+06  -4.375803e+05
   1.107207e+06   9.683022e+05
  -6.867912e+05   1.155655e+06
  -1.138273e+06   1.536864e+05
  -6.539198e+04  -8.296281e+05
   1.294253e+06  -6.575801e+05
   1.600007e+06   5.212428e+05
   6.020591e+05   1.447390e+06
  -7.451378e+05   1.162486e+06
  -1.214154e+06   6.403973e+04
  -4.695281e+05  -5.921911e+05
   5.717527e+05  -1.186625e+05
   6.337872e+05   8.910423e+05
  -5.457120e+05   1.262848e+06
  -1.828712e+06   4.611856e+05
  -1.827993e+06  -9.381858e+05
  -4.056590e+05  -1.825790e+06
   1.158424e+06  -1.525934e+06
   1.514076e+06  -3.423588e+05
   5.837121e+05   7.135273e+05
  -5.131947e+05   8.149389e+05
  -7.148029e+05   8.040923e+04
  -3.160831e+04  -5.818758e+05
   6.365559e+05  -4.758404e+05
   5.294130e+05   1.124932e+05
  -1.868955e+05   2.970126e+05
  -6.105831e+05  -2.991472e+05
  -5.953169e+04  -1.030344e+06
   1.147854e+06  -9.174865e+05
   1.904850e+06   2.674122e+05
   1.381423e+06   1.706341e+06
  -1.244727e+05   2.274728e+06
  -1.460680e+06   1.536034e+06
  -1.739998e+06   9.377642e+04
  -1.111160e+06  -9.619035e+05
  -4.175032e+05  -1.021310e+06
  -2.246366e+05  -4.631852e+05
  -3.070469e+05  -1.731619e+05
  -6.417349e+04  -5.173502e+05
   6.803093e+05  -9.030893e+05
   1.366618e+06  -4.995287e+05
   1.194897e+06   6.703425e+05
  -3.787021e+04   1.576130e+06
  -1.565099e+06   1.212293e+06
  -2.174466e+06  -3.181985e+05
  -1.246127e+06  -1.840347e+06
   6.367226e+05  -2.181903e+06
   2.133913e+06  -1.178869e+06
   2.280442e+06   2.929503e+05
   1.243875e+06   1.177023e+06
   2.500000e+04   1.144847e+06
  -5.273163e+05   7.411146e+05
  -4.037223e+05   6.733024e+05
  -2.361363e+05   9.891758e+05
  -5.203796e+05   1.036228e+06
  -1.067274e+06   2.738171e+05
  -1.208255e+06  -9.779040e+05
  -5.379965e+05  -1.740845e+06
   5.628068e+05  -1.340987e+06
   1.204488e+06  -8.248442e+04
   8.454736e+05   1.048532e+06
  -1.460320e+05   1.272574e+06
  -8.522305e+05   6.057139e+05
  -7.336970e+05  -3.044540e+05
  -1.306919e+05  -8.112638e+05
   1.953033e+05  -7.652017e+05
  -4.859297e+04  -4.923831e+05
  -3.589348e+05  -3.577470e+05
  -3.377605e+04  -3.767078e+05
   9.531962e+05  -2.609510e+05
   1.771372e+06   1.904926e+05
   1.512710e+06   8.105523e+05
   1.718255e+05   1.187834e+06
  -1.230615e+06   1.032941e+06
  -1.600412e+06   4.307683e+05
  -8.374212e+05  -2.030690e+05
   1.365085e+05  -4.231792e+05
   4.065126e+05  -1.366798e+05
  -3.208211e+04   2.533396e+05
  -4.737500e+05   2.111437e+05
  -4.251442e+05  -3.072095e+05
  -8.721086e+04  -7.107990e+05
   5.485220e+04  -4.539594e+05
  -1.397487e+05   2.063661e+05
  -3.738854e+05   4.229445e+05
  -2.924445e+05  -1.867870e+05
   1.838056e+05  -9.722045e+05
   7.930066e+05  -9.751973e+05
   1.059300e+06  -8.233780e+04
   6.149524e+05   8.322902e+05
  -3.577589e+05   9.059399e+05
  -1.043053e+06   1.803364e+05
  -6.665280e+05  -5.643938e+05
   5.872122e+05  -6.500156e+05
   1.542209e+06  -4.968337e+04
   1.174259e+06   7.215260e+05
  -2.546663e+05   1.063109e+06
  -1.414713e+06   7.202245e+05
  -1.296254e+06  -1.660807e+04
  -2.255299e+05  -5.108518e+05
   5.738875e+05  -3.464724e+05
   3.097725e+05   2.122072e+05
  -6.089982e+05   4.205941e+05
  -1.086703e+06  -1.707360e+05
  -5.021037e+05  -1.148416e+06
   6.884605e+05  -1.536083e+06
   1.449364e+06  -7.451787e+05
   1.179907e+06   7.446501e+05
   2.029995e+05   1.711289e+06
  -6.691930e+05   1.315738e+06
  -9.011740e+05  -4.382563e+04
  -5.376410e+05  -1.094676e+06
   4.885709e+04  -9.909263e+05
   4.853332e+05  -1.486906e+05
   5.457966e+05   3.666376e+05
   2.665171e+05   1.595145e+05
   1.243061e+03  -1.240553e+05
   1.116514e+05   1.989012e+05
   4.402670e+05   8.665476e+05
   3.346536e+05   1.033513e+06
  -5.126735e+05   4.089119e+05
  -1.420067e+06  -4.108916e+05
  -1.346758e+06  -7.591699e+05
  -2.035305e+05  -6.269308e+05
   9.026710e+05  -4.002329e+05
   9.625884e+05  -2.328798e+05
   2.486656e+05  -2.042904e+04
  -1.750651e+05   2.037915e+05
   9.766260e+04   2.550886e+05
   3.862234e+05   1.555852e+05
  -2.878601e+03   1.335573e+05
  -7.626846e+05   1.805453e+05
  -9.651429e+05  -4.054474e+04
  -2.160054e+05  -6.249033e+05
   9.055443e+05  -1.032653e+06
   1.496759e+06  -6.240215e+05
   1.161913e+06   4.701056e+05
   2.167535e+05   1.338566e+06
  -6.728564e+05   1.249610e+06
  -9.773623e+05   4.222448e+05
  -6.356325e+05  -2.858528e+05
  -7.125108e+04  -3.333668e+05
   1.796177e+05   1.266149e+04
  -3.241599e+04   1.040445e+05
  -3.441947e+05  -3.018007e+05
  -2.893883e+05  -7.534809e+05
   1.904188e+05  -6.095549e+05
   6.648462e+05   1.955814e+05
   6.218750e+05   9.723597e+05
  -2.626934e+04   9.528507e+05
  -7.805470e+05   1.164682e+05
  -9.325224e+05  -7.820508e+05
  -2.492372e+05  -1.012439e+06
   6.858960e+05  -5.460128e+05
   9.865737e+05   1.021700e+05
   4.284278e+05   4.888100e+05
  -2.594267e+05   5.244389e+05
  -2.542151e+05   3.176097e+05
   3.414388e+05   4.825101e+04
   6.366089e+05  -2.170988e+04
   9.985427e+04   2.668708e+05
  -7.692782e+05   6.532395e+05
  -1.080518e+06   5.910247e+05
  -6.026843e+05  -7.870358e+04
   9.782255e+04  -7.696607e+05
   4.185126e+05  -7.558529e+05
   2.897867e+05  -7.167817e+04
  -5.663857e+03   4.939458e+05
  -2.443027e+05   3.487938e+05
  -3.373986e+05  -2.338205e+05
  -2.232806e+05  -5.433861e+05
   7.646584e+04  -3.107991e+05
   3.621073e+05   8.415462e+04
   4.096528e+05   1.940287e+05
   2.247561e+05   2.863537e+04
   1.838490e+04  -6.456050e+04
  -7.302557e+04   1.182409e+05
  -1.231127e+05   3.957868e+05
  -2.407246e+05   4.103142e+05
  -3.629102e+05   2.713418e+04
  -3.006671e+05  -4.730970e+05
   2.655014e+04  -6.240541e+05
   4.323089e+05  -2.464527e+05
   5.568304e+05   3.277077e+05
   1.875687e+05   5.766480e+05
  -4.454422e+05   3.264930e+05
  -7.677449e+05  -1.162456e+05
  -4.184227e+05  -3.563699e+05
   2.763321e+05  -3.004851e+05
   5.728125e+05  -1.220333e+05
   1.576769e+05   1.715808e+02
  -4.324515e+05  -1.339212e+04
  -4.250476e+05  -1.686017e+05
   2.441484e+05  -3.388709e+05
   8.393870e+05  -2.513869e+05
