
 $NMID
 id='ANONYMOUS ', fmtdat='(2E16.6)'
 volume=1.0
 tramp=1.0
 $END
  -6.177616e+07   6.961865e+05
  -3.726893e+07  -3.834857e+07
   8.191867e+06  -4.199166e+07
   3.020804e+07  -1.579319e+07
   1.782042e+07   8.055626e+06
  -3.803055e+06   1.018005e+07
  -1.063509e+07  -1.614394e+06
  -2.781282e+06  -1.067514e+07
   6.859602e+06  -9.882578e+06
   1.045311e+07  -1.994770e+06
   7.613496e+06   6.619971e+06
   1.008854e+06   9.204723e+06
  -4.246288e+06   3.090624e+06
  -2.876476e+06  -5.628833e+06
   4.034753e+06  -6.892213e+06
   8.522443e+06   1.513469e+06
   4.835107e+06   1.105248e+07
  -4.059516e+06   1.282120e+07
  -1.095112e+07   6.558372e+06
  -1.187691e+07  -2.026835e+06
  -7.494075e+06  -8.110186e+06
  -9.553677e+05  -9.649033e+06
   3.310918e+06  -6.835568e+06
   2.381315e+06  -2.830079e+06
  -1.025222e+06  -1.926540e+06
  -4.966159e+05  -4.229024e+06
   5.457062e+06  -4.876070e+06
   1.023932e+07  -8.977632e+05
   7.720215e+06   4.217255e+06
   5.804504e+05   5.501807e+06
  -3.752420e+06   3.028882e+06
  -2.703857e+06   3.307914e+05
   2.922046e+05  -8.484005e+05
   2.081901e+06  -6.784075e+05
   2.346588e+06   1.193129e+06
   1.034229e+06   4.039292e+06
  -1.786107e+06   4.285312e+06
  -3.687781e+06   1.012011e+05
  -2.124933e+06  -3.960824e+06
   8.330985e+05  -2.350091e+06
   5.763787e+05   2.424772e+06
  -2.531003e+06   2.423819e+06
  -2.624737e+06  -3.477033e+06
   2.747202e+06  -6.691750e+06
   7.770200e+06  -1.103507e+06
   5.711058e+06   7.607139e+06
  -2.080907e+06   9.380467e+06
  -8.080253e+06   2.726315e+06
  -7.464277e+06  -4.719528e+06
  -1.931567e+06  -6.405399e+06
   3.693841e+06  -2.839117e+06
   5.523987e+06   1.658190e+06
   2.491771e+06   3.725158e+06
  -2.660718e+06   2.342050e+06
  -4.891750e+06  -1.013229e+06
  -2.082922e+06  -2.959761e+06
   1.865060e+06  -1.494565e+06
   1.817637e+06   1.089898e+06
  -1.526195e+06   8.981856e+05
  -2.660164e+06  -2.075460e+06
   8.536605e+05  -3.863286e+06
   5.201928e+06  -2.051774e+06
   5.783450e+06   1.563929e+06
   2.496094e+06   4.354937e+06
  -1.823142e+06   5.697475e+06
  -5.173512e+06   5.304792e+06
  -6.572604e+06   2.056086e+06
  -5.050507e+06  -3.246295e+06
  -1.170385e+06  -6.575011e+06
   1.981506e+06  -5.067742e+06
   1.923676e+06  -1.169466e+06
   6.664072e+04   4.324371e+05
  -2.908974e+05  -1.012303e+06
   1.477934e+06  -2.058557e+06
   2.932761e+06  -5.062262e+05
   2.257959e+06   1.831153e+06
   2.055960e+05   2.189151e+06
  -1.505992e+06   2.966678e+05
  -1.769510e+06  -2.043641e+06
  -1.119590e+05  -3.050289e+06
   2.857645e+06  -1.871350e+06
   4.826281e+06   1.095952e+06
   3.597793e+06   3.961499e+06
   6.279292e+04   4.617493e+06
  -2.455815e+06   3.022197e+06
  -2.453617e+06   1.240688e+06
  -1.970879e+06   6.917395e+05
  -3.089900e+06   4.999309e+05
  -4.575731e+06  -7.608575e+05
  -3.693065e+06  -2.855861e+06
  -2.021163e+05  -4.312812e+06
   3.259555e+06  -4.143162e+06
   4.290977e+06  -2.352899e+06
   2.811815e+06   3.139094e+05
   4.186714e+05   2.316705e+06
  -1.053495e+06   2.089251e+06
  -6.023142e+05   7.512924e+02
   1.090717e+06  -1.408505e+06
   2.009806e+06  -4.622928e+05
   1.025704e+06   1.261937e+06
  -4.934842e+05   1.176640e+06
  -4.050518e+05  -4.039225e+05
   1.173421e+06  -6.626463e+05
   1.948856e+06   1.494069e+06
   5.674031e+05   3.742738e+06
  -1.809694e+06   3.494160e+06
  -3.320425e+06   1.004826e+06
  -3.372085e+06  -1.567985e+06
  -2.297925e+06  -2.806665e+06
  -4.868539e+05  -2.650833e+06
   1.244404e+06  -1.547042e+06
   1.630084e+06  -2.884041e+05
   5.161838e+05   3.876651e+04
  -3.858112e+05  -7.834409e+05
   4.335756e+05  -1.432879e+06
   2.031755e+06  -6.378647e+05
   2.162993e+06   9.372900e+05
   4.034057e+05   1.507854e+06
  -1.229590e+06   6.039372e+05
  -9.049039e+05  -4.653476e+05
   9.015915e+05  -5.000787e+05
   2.235052e+06   3.668058e+05
   1.760006e+06   1.387089e+06
  -2.689546e+05   2.004376e+06
  -2.376945e+06   1.722745e+06
  -2.888968e+06   3.179411e+05
  -1.298879e+06  -1.327355e+06
   9.570926e+05  -1.622438e+06
   1.673157e+06  -2.300715e+05
   2.488069e+05   1.153588e+06
  -1.587765e+06   8.053527e+05
  -1.809206e+06  -8.122137e+05
  -3.412993e+05  -1.729181e+06
   1.158923e+06  -9.995400e+05
   1.307785e+06   3.550476e+05
   2.324779e+05   8.294357e+05
  -8.580692e+05   6.060429e+04
  -8.005508e+05  -1.101177e+06
   5.703576e+05  -1.513099e+06
   2.095309e+06  -6.189763e+05
   2.162699e+06   1.060481e+06
   4.375487e+05   2.177738e+06
  -1.499760e+06   1.746931e+06
  -1.813260e+06   2.314797e+05
  -5.228921e+05  -9.113803e+05
   6.871185e+05  -8.414901e+05
   6.403722e+05  -9.413773e+04
  -1.352186e+05   3.373548e+05
  -4.755207e+05   1.861964e+05
  -6.319183e+04  -5.011608e+04
   5.009712e+05   1.345545e+05
   5.288947e+05   7.421598e+05
  -2.329080e+05   1.253155e+06
  -1.447188e+06   9.499775e+05
  -2.189215e+06  -4.073084e+05
  -1.570372e+06  -2.016544e+06
   1.849976e+05  -2.531189e+06
   1.660194e+06  -1.474832e+06
   1.737254e+06   1.265774e+05
   8.665804e+05   8.911713e+05
   3.334760e+05   6.036262e+05
   5.445908e+05   1.800220e+05
   7.058184e+05   3.381724e+05
   1.118921e+05   8.292689e+05
  -9.173069e+05   9.477347e+05
  -1.499791e+06   3.387003e+05
  -1.076440e+06  -7.280016e+05
   2.578996e+05  -1.491038e+06
   1.778484e+06  -1.122429e+06
   2.344263e+06   4.761969e+05
   1.197174e+06   2.186047e+06
  -1.054883e+06   2.493190e+06
  -2.670290e+06   1.092934e+06
  -2.450288e+06  -6.899740e+05
  -9.673601e+05  -1.383335e+06
   2.263091e+05  -9.441318e+05
   3.625277e+05  -5.000179e+05
   9.296751e+03  -8.000923e+05
   5.897855e+04  -1.409681e+06
   6.922261e+05  -1.387859e+06
   1.368812e+06  -3.639681e+05
   1.429092e+06   1.103928e+06
   6.220158e+05   1.971196e+06
  -6.195763e+05   1.515959e+06
  -1.341017e+06   1.251271e+04
  -8.600021e+05  -1.346750e+06
   4.146919e+05  -1.468674e+06
   1.241572e+06  -4.062541e+05
   8.607173e+05   7.706668e+05
  -1.505522e+05   1.155315e+06
  -5.952606e+05   8.174009e+05
  -9.976720e+04   4.158712e+05
   4.697195e+05   3.335143e+05
   7.611626e+04   3.961443e+05
  -1.215073e+06   2.325151e+05
  -2.188578e+06  -3.231003e+05
  -1.710461e+06  -1.073356e+06
   4.604067e+04  -1.523365e+06
   1.679808e+06  -1.230000e+06
   1.923589e+06  -2.999219e+05
   8.668973e+05   5.423910e+05
  -2.807947e+05   6.182216e+05
  -5.446952e+05   2.681340e+04
  -5.085369e+04  -4.661061e+05
   4.455891e+05  -2.879301e+05
   5.162031e+05   3.478954e+05
   3.124911e+05   7.450739e+05
   1.404248e+05   4.998407e+05
   1.365730e+05  -7.994157e+04
   2.598036e+05  -2.857177e+05
   2.862004e+05   2.411129e+05
  -1.115244e+05   1.025359e+06
  -9.221396e+05   1.140016e+06
  -1.462602e+06   2.302265e+05
  -9.500384e+05  -9.414146e+05
   4.132479e+05  -1.232793e+06
   1.334908e+06  -4.106538e+05
   7.864211e+05   5.736805e+05
  -7.304716e+05   6.848439e+05
  -1.646931e+06  -8.823055e+04
  -1.021371e+06  -8.899861e+05
   5.202072e+05  -1.012059e+06
   1.545426e+06  -4.795228e+05
   1.258828e+06   2.006369e+05
   1.319692e+05   5.252707e+05
  -6.774765e+05   2.762396e+05
  -4.193396e+05  -3.125060e+05
   5.843894e+05  -5.794637e+05
   1.246271e+06   2.883079e+04
   7.674329e+05   1.208037e+06
  -5.345826e+05   1.815304e+06
  -1.512716e+06   9.927587e+05
  -1.336365e+06  -7.460220e+05
  -2.624034e+05  -1.859825e+06
   7.408804e+05  -1.349070e+06
   9.617434e+05   1.884795e+05
   4.503048e+05   1.237470e+06
  -2.415554e+05   9.948844e+05
  -5.952282e+05   8.464183e+04
  -4.696207e+05  -3.755868e+05
  -1.450025e+05  -1.281832e+05
  -5.942150e+04   9.065138e+04
  -3.411634e+05  -3.255670e+05
  -5.715572e+05  -1.007622e+06
  -1.888948e+05  -1.112959e+06
   7.791033e+05  -4.200569e+05
   1.546324e+06   4.482161e+05
   1.322476e+06   8.406845e+05
   2.055836e+05   7.327871e+05
  -8.496099e+05   4.659102e+05
  -1.011142e+06   2.039224e+05
  -4.044010e+05  -6.742878e+04
   1.336574e+05  -2.441252e+05
   6.934837e+04  -1.934078e+05
  -2.394525e+05  -6.607502e+04
  -7.346373e+04  -1.363629e+05
   6.411192e+05  -2.859696e+05
   1.102593e+06  -3.281926e+04
   5.373996e+05   7.227882e+05
  -8.048335e+05   1.288928e+06
  -1.787802e+06   8.767898e+05
  -1.548164e+06  -3.846789e+05
  -3.520687e+05  -1.457563e+06
   7.715165e+05  -1.480329e+06
   1.084828e+06  -6.289037e+05
   6.896253e+05   1.962148e+05
   1.714981e+05   3.730781e+05
  -3.439120e+04   1.009125e+05
   9.715170e+04   1.110975e+04
   3.051284e+05   3.878633e+05
   2.676258e+05   8.380203e+05
  -1.559131e+05   7.284090e+05
  -7.110972e+05  -7.120652e+04
  -8.378549e+05  -9.418085e+05
  -2.093483e+05  -1.085009e+06
   7.549240e+05  -3.334778e+05
   1.128921e+06   6.761793e+05
   4.359363e+05   1.133371e+06
  -7.166786e+05   7.714285e+05
  -1.198935e+06  -2.439715e+04
  -6.045420e+05  -6.550153e+05
   2.810852e+05  -7.632810e+05
   4.222770e+05  -4.076305e+05
  -2.189824e+05   1.816508e+04
  -6.688487e+05   7.299177e+04
  -1.793694e+05  -3.263868e+05
   8.400241e+05  -7.364206e+05
   1.334650e+06  -5.791477e+05
   8.461232e+05   1.931709e+05
  -6.544440e+04   9.321877e+05
  -5.848123e+05   9.338663e+05
  -4.842570e+05   2.145480e+05
  -9.844621e+04  -4.838689e+05
   2.269982e+05  -4.895797e+05
   3.745059e+05   1.019832e+05
   2.953628e+05   5.942442e+05
  -2.972767e+04   4.861487e+05
  -4.143646e+05  -1.424269e+04
  -5.221256e+05  -3.034189e+05
  -2.572700e+05  -1.160014e+05
   6.017023e+04   1.877101e+05
   8.595084e+04   1.057137e+05
  -8.255306e+04  -3.476286e+05
  -4.542764e+04  -6.261025e+05
   3.041929e+05  -3.155710e+05
   5.511448e+05   3.342878e+05
   2.620472e+05   6.700234e+05
  -3.957530e+05   3.677053e+05
  -7.366899e+05  -2.399442e+05
  -3.117502e+05  -5.756704e+05
   5.294986e+05  -4.100219e+05
   9.539641e+05   2.505558e+04
   5.305887e+05   3.755888e+05
  -2.927134e+05   4.628227e+05
  -6.735367e+05   3.033141e+05
  -2.943524e+05   3.492809e+04
   3.167712e+05  -1.216433e+05
   4.147176e+05   2.593826e+03
  -1.256070e+05   2.869033e+05
  -7.073150e+05   3.212227e+05
