
 $NMID
 id='ANONYMOUS ', fmtdat='(2E16.6)'
 volume=1.0
 tramp=1.0
 $END
   2.923517e+07   1.479340e+06
   1.846245e+07   1.476247e+07
  -1.198379e+06   1.830141e+07
  -1.298237e+07   1.138097e+07
  -1.027286e+07   6.810893e+05
  -3.566508e+05  -5.120601e+06
   5.815083e+06  -2.319550e+06
   4.145867e+06   4.714020e+06
  -1.591428e+06   7.799038e+06
  -5.480404e+06   3.316839e+06
  -4.600715e+06  -3.942684e+06
  -4.267907e+05  -6.148420e+06
   2.908534e+06  -1.208597e+06
   2.185374e+06   5.108408e+06
  -1.823227e+06   5.866963e+06
  -4.854601e+06   3.608304e+05
  -3.399827e+06  -5.852438e+06
   1.606264e+06  -7.201181e+06
   5.755940e+06  -3.240136e+06
   5.689652e+06   1.963633e+06
   2.266425e+06   4.325327e+06
  -6.724177e+05   3.313041e+06
  -3.693208e+05   1.666264e+06
   2.027789e+06   2.049171e+06
   2.660620e+06   4.107780e+06
  -7.816075e+05   4.995608e+06
  -6.003662e+06   2.769241e+06
  -7.965736e+06  -1.262683e+06
  -4.292645e+06  -3.897222e+06
   1.729181e+06  -3.285212e+06
   4.409389e+06  -4.041117e+05
   1.713605e+06   2.181426e+06
  -2.852877e+06   2.369484e+06
  -4.486722e+06  -1.214767e+05
  -2.165053e+06  -3.357813e+06
   1.086123e+06  -4.348344e+06
   2.129782e+06  -1.873444e+06
   8.090403e+05   1.615638e+06
  -7.222581e+05   2.203663e+06
  -6.697075e+05  -7.846960e+05
   8.366007e+05  -3.543829e+06
   2.223935e+06  -2.360416e+06
   1.971872e+06   1.554076e+06
  -5.979024e+04   3.440785e+06
  -2.251398e+06   9.269366e+05
  -2.328125e+06  -3.135825e+06
   4.807310e+05  -4.235678e+06
   4.152803e+06  -1.272297e+06
   5.279092e+06   2.789931e+06
   2.362220e+06   4.451644e+06
  -2.334420e+06   2.836343e+06
  -4.727194e+06  -2.238237e+05
  -2.930057e+06  -2.186066e+06
   9.028005e+05  -1.814781e+06
   2.942603e+06   4.044174e+04
   1.658326e+06   1.358631e+06
  -9.078062e+05   9.113034e+05
  -1.724057e+06  -5.751254e+05
  -1.331275e+05  -1.349295e+06
   1.663524e+06  -5.857256e+05
   1.276872e+06   8.574251e+05
  -1.124607e+06   1.449346e+06
  -2.930504e+06   3.871297e+05
  -1.850465e+06  -1.816618e+06
   1.632835e+06  -3.600212e+06
   4.683904e+06  -3.293778e+06
   4.925959e+06  -5.330087e+05
   2.646120e+06   2.990451e+06
   1.391036e+05   4.777904e+06
  -8.575250e+05   3.967127e+06
  -6.914322e+05   2.138666e+06
  -8.288627e+05   1.265475e+06
  -1.897559e+06   1.318978e+06
  -3.043048e+06   6.571949e+05
  -2.986144e+06  -1.374919e+06
  -1.342590e+06  -3.177658e+06
   1.004307e+06  -2.685119e+06
   2.493810e+06   6.850574e+04
   1.953134e+06   2.754381e+06
  -3.964369e+05   3.067227e+06
  -2.813525e+06   8.953687e+05
  -3.355143e+06  -1.819085e+06
  -1.714053e+06  -3.074544e+06
   4.498413e+05  -2.519854e+06
   1.346805e+06  -1.361435e+06
   1.051188e+06  -8.535124e+05
   1.193418e+06  -1.028952e+06
   2.650990e+06  -8.714787e+05
   4.113995e+06   4.356461e+05
   3.419691e+06   2.538706e+06
   1.793834e+05   4.096260e+06
  -3.391147e+06   3.846983e+06
  -4.501855e+06   1.684669e+06
  -2.536413e+06  -1.051946e+06
   3.957526e+05  -2.453710e+06
   1.629482e+06  -1.648883e+06
   5.037983e+05   2.630971e+05
  -1.299809e+06   1.197814e+06
  -1.768667e+06   2.914968e+05
  -6.087667e+05  -1.124395e+06
   7.390764e+05  -1.138885e+06
   8.018143e+05   3.204086e+05
  -4.748901e+05   1.269896e+06
  -1.810083e+06   5.069401e+04
  -1.782356e+06  -2.544077e+06
   7.955398e+03  -3.967501e+06
   2.549853e+06  -2.616801e+06
   4.034869e+06   5.284007e+05
   3.245833e+06   2.973377e+06
   7.407101e+05   3.123939e+06
  -1.460324e+06   1.547621e+06
  -1.743515e+06   8.100708e+04
  -5.054432e+05  -5.412336e+04
   3.743670e+05   7.554092e+05
  -2.889132e+05   1.202674e+06
  -1.653278e+06   5.481445e+05
  -1.918301e+06  -6.527386e+05
  -5.187491e+05  -1.231270e+06
   1.120463e+06  -6.602289e+05
   1.129031e+06   4.320776e+05
  -6.963421e+05   8.975437e+05
  -2.534212e+06   1.336570e+05
  -2.355818e+06  -1.371158e+06
  -3.997581e+04  -2.398509e+06
   2.426931e+06  -1.993607e+06
   2.906999e+06  -3.617445e+05
   1.205045e+06   1.166920e+06
  -8.523334e+05   1.306198e+06
  -1.337081e+06   1.219522e+05
  -5.498230e+04  -9.676638e+05
   1.501186e+06  -6.899007e+05
   1.772982e+06   6.818406e+05
   5.721095e+05   1.657346e+06
  -9.188414e+05   1.230089e+06
  -1.350484e+06  -3.014307e+04
  -4.630856e+05  -6.984264e+05
   6.719510e+05  -9.534215e+04
   6.831881e+05   1.042426e+06
  -6.636418e+05   1.408970e+06
  -2.082710e+06   4.525138e+05
  -2.028759e+06  -1.135642e+06
  -3.734490e+05  -2.085223e+06
   1.392534e+06  -1.665886e+06
   1.727375e+06  -2.991664e+05
   6.075611e+05   8.374476e+05
  -6.229884e+05   8.832329e+05
  -7.874616e+05   6.543114e+04
   1.280513e+03  -6.118197e+05
   6.966169e+05  -4.713923e+05
   5.266205e+05   1.252339e+05
  -2.461885e+05   2.601968e+05
  -6.433769e+05  -4.083367e+05
   1.648643e+04  -1.164633e+06
   1.346678e+06  -9.685038e+05
   2.133389e+06   3.958740e+05
   1.480422e+06   1.989720e+06
  -2.413949e+05   2.548259e+06
  -1.703517e+06   1.633899e+06
  -1.927782e+06   8.581953e+03
  -1.166488e+06  -1.095875e+06
  -4.233596e+05  -1.095951e+06
  -2.774957e+05  -4.961455e+05
  -3.782242e+05  -2.347708e+05
  -4.818570e+04  -6.157850e+05
   8.205745e+05  -9.737945e+05
   1.547262e+06  -4.765550e+05
   1.282264e+06   7.945955e+05
  -1.290650e+05   1.730084e+06
  -1.807204e+06   1.266138e+06
  -2.415809e+06  -4.621213e+05
  -1.295020e+06  -2.131126e+06
   8.510302e+05  -2.422469e+06
   2.476728e+06  -1.199550e+06
   2.528664e+06   4.674666e+05
   1.294366e+06   1.372532e+06
  -4.278425e+04   1.239672e+06
  -5.874501e+05   7.759726e+05
  -4.290388e+05   7.568204e+05
  -2.898852e+05   1.144300e+06
  -6.481154e+05   1.167816e+06
  -1.233962e+06   2.651633e+05
  -1.325754e+06  -1.153239e+06
  -5.329348e+05  -1.982498e+06
   6.882578e+05  -1.485469e+06
   1.354192e+06  -3.231546e+04
   8.907883e+05   1.233048e+06
  -2.498803e+05   1.422913e+06
  -1.011567e+06   6.039083e+05
  -8.052649e+05  -4.269150e+05
  -6.971305e+04  -9.398004e+05
   2.969247e+05  -8.370714e+05
  -1.844838e+04  -5.349185e+05
  -3.981558e+05  -4.109610e+05
  -2.716314e+04  -4.226412e+05
   1.098859e+06  -2.415372e+05
   2.004810e+06   3.080611e+05
   1.663433e+06   9.956952e+05
   1.087236e+05   1.359586e+06
  -1.465575e+06   1.109925e+06
  -1.828354e+06   3.907285e+05
  -9.157713e+05  -3.003183e+05
   1.908156e+05  -4.841197e+05
   4.703077e+05  -1.185324e+05
  -4.118382e+04   3.080172e+05
  -5.326234e+05   2.256610e+05
  -4.696247e+05  -3.650122e+05
  -9.535588e+04  -8.021079e+05
   5.600752e+04  -5.122070e+05
  -1.594606e+05   2.079154e+05
  -4.136130e+05   4.405458e+05
  -3.144939e+05  -2.250908e+05
   2.348081e+05  -1.079308e+06
   9.378580e+05  -1.067096e+06
   1.231145e+06  -5.718256e+04
   6.874393e+05   9.694117e+05
  -4.477521e+05   1.029278e+06
  -1.205809e+06   1.794955e+05
  -7.315938e+05  -6.565951e+05
   6.954154e+05  -6.984858e+05
   1.721937e+06   2.514491e+04
   1.251077e+06   8.631341e+05
  -3.554695e+05   1.156044e+06
  -1.607268e+06   7.104758e+05
  -1.427806e+06  -9.081573e+04
  -2.183250e+05  -5.748296e+05
   6.609656e+05  -3.505990e+05
   3.460903e+05   2.625622e+05
  -6.931072e+05   4.626990e+05
  -1.221928e+06  -2.188150e+05
  -5.427736e+05  -1.307847e+06
   8.125561e+05  -1.715135e+06
   1.651360e+06  -7.983103e+05
   1.298759e+06   8.767233e+05
   1.613107e+05   1.926081e+06
  -8.036564e+05   1.435464e+06
  -1.001511e+06  -1.032511e+05
  -5.390102e+05  -1.250499e+06
   1.166185e+05  -1.092656e+06
   5.558230e+05  -1.351958e+05
   5.815046e+05   4.271375e+05
   2.754202e+05   1.803102e+05
   1.247633e+04  -1.320108e+05
   1.407204e+05   2.464801e+05
   4.667509e+05   9.992064e+05
   3.108835e+05   1.165516e+06
  -6.175509e+05   4.278787e+05
  -1.573644e+06  -5.194223e+05
  -1.459083e+06  -9.043418e+05
  -1.985797e+05  -7.164073e+05
   1.012358e+06  -4.179332e+05
   1.082109e+06  -2.157296e+05
   2.933120e+05   1.941672e+03
  -1.982353e+05   2.252725e+05
   7.952497e+04   2.749260e+05
   4.067224e+05   1.729115e+05
   7.885794e+02   1.502927e+05
  -8.410405e+05   1.863754e+05
  -1.087708e+06  -7.748332e+04
  -2.517159e+05  -7.220762e+05
   1.039524e+06  -1.143944e+06
   1.727041e+06  -6.566679e+05
   1.319833e+06   5.668929e+05
   2.012467e+05   1.511483e+06
  -8.135611e+05   1.385273e+06
  -1.119249e+06   4.523670e+05
  -7.027713e+05  -3.324855e+05
  -7.714000e+04  -3.800043e+05
   1.840024e+05   3.435438e+03
  -4.489341e+04   9.838182e+04
  -3.629258e+05  -3.577247e+05
  -2.866257e+05  -8.568740e+05
   2.339859e+05  -6.841326e+05
   7.387464e+05   2.290167e+05
   6.789066e+05   1.104980e+06
  -4.123856e+04   1.078345e+06
  -8.730685e+05   1.257427e+05
  -1.030548e+06  -8.964247e+05
  -2.563155e+05  -1.152586e+06
   7.920149e+05  -6.054368e+05
   1.118323e+06   1.481816e+05
   4.731370e+05   5.839135e+05
  -3.172667e+05   6.000750e+05
  -3.172492e+05   3.489029e+05
   3.637353e+05   5.565537e+04
   7.123181e+05  -4.464276e+03
   1.083936e+05   3.093242e+05
  -8.898374e+05   7.027532e+05
  -1.252511e+06   6.051043e+05
  -6.921571e+05  -1.313422e+05
   1.390567e+05  -8.706603e+05
   5.189085e+05  -8.393798e+05
   3.517557e+05  -8.040093e+04
  -1.273110e+04   5.492552e+05
  -2.863203e+05   3.949347e+05
  -3.731069e+05  -2.575565e+05
  -2.338017e+05  -6.196580e+05
   9.595754e+04  -3.643818e+05
   4.066190e+05   1.004139e+05
   4.576655e+05   2.476160e+05
   2.498680e+05   5.210754e+04
   1.659443e+04  -8.796637e+04
  -8.131778e+04   1.006662e+05
  -1.257573e+05   4.337888e+05
  -2.539637e+05   4.795941e+05
  -4.041257e+05   5.256913e+04
  -3.491758e+05  -5.263249e+05
   1.999075e+04  -7.044663e+05
   4.879937e+05  -2.721620e+05
   6.290677e+05   3.794469e+05
   2.005901e+05   6.501957e+05
  -5.193967e+05   3.526516e+05
  -8.722108e+05  -1.528793e+05
  -4.633541e+05  -4.170478e+05
   3.246092e+05  -3.418663e+05
   6.573106e+05  -1.323566e+05
   1.925270e+05   5.723293e+03
  -4.686721e+05  -1.226991e+04
  -4.680598e+05  -1.831897e+05
   2.682965e+05  -3.631581e+05
   9.267772e+05  -2.579571e+05
