
 $NMID
 id='ANONYMOUS ', fmtdat='(2E16.6)'
 volume=1.0
 tramp=1.0
 $END
   3.522883e+07  -1.424773e+06
   2.298943e+07   1.940003e+07
  -2.194036e+06   2.371651e+07
  -1.644528e+07   1.170813e+07
  -1.147429e+07  -2.209410e+06
   9.448768e+05  -6.183974e+06
   6.635945e+06  -7.042288e+05
   3.166504e+06   6.024041e+06
  -3.068056e+06   7.313397e+06
  -6.279498e+06   2.463669e+06
  -4.948354e+06  -3.971117e+06
  -7.337684e+05  -6.022523e+06
   2.721172e+06  -1.736957e+06
   2.048514e+06   4.250650e+06
  -2.201613e+06   5.209893e+06
  -5.336630e+06  -1.850044e+05
  -3.546595e+06  -6.511826e+06
   1.867285e+06  -7.968127e+06
   6.332416e+06  -4.103329e+06
   6.833301e+06   1.255867e+06
   3.939024e+06   4.567998e+06
   4.016066e+05   4.884929e+06
  -1.087379e+06   3.382652e+06
   6.668924e+04   2.164095e+06
   1.431129e+06   2.586077e+06
  -1.920846e+05   3.665108e+06
  -4.502406e+06   2.976131e+06
  -7.113305e+06  -8.562218e+04
  -4.724658e+06  -3.052469e+06
   4.187015e+05  -3.327375e+06
   3.159516e+06  -1.257626e+06
   1.607386e+06   7.782298e+05
  -1.434303e+06   1.216961e+06
  -2.684146e+06   7.398614e+04
  -1.695407e+06  -1.894477e+06
   1.076016e+05  -3.269120e+06
   1.452484e+06  -2.370231e+06
   1.611181e+06   5.155040e+05
   5.578912e+05   2.259160e+06
  -4.300136e+05   5.229273e+05
   2.094174e+05  -2.363912e+06
   1.889743e+06  -1.939997e+06
   1.929420e+06   1.910065e+06
  -8.441650e+05   4.093958e+06
  -3.808264e+06   1.111806e+06
  -3.351439e+06  -3.960265e+06
   6.820300e+05  -5.364115e+06
   4.685320e+06  -1.772847e+06
   5.146474e+06   2.814275e+06
   1.855354e+06   4.305597e+06
  -2.364223e+06   2.358068e+06
  -4.165504e+06  -6.490877e+05
  -2.281993e+06  -2.335087e+06
   1.333448e+06  -1.748248e+06
   3.127411e+06   2.748110e+05
   1.577192e+06   1.649128e+06
  -1.044364e+06   9.992122e+05
  -1.448541e+06  -6.407908e+05
   5.188924e+05  -1.009360e+06
   1.842282e+06   4.417420e+05
   4.139428e+05   1.896772e+06
  -2.353505e+06   1.606335e+06
  -3.498256e+06  -2.402301e+05
  -1.862326e+06  -2.345701e+06
   1.260593e+06  -3.669480e+06
   3.825484e+06  -3.414265e+06
   4.473417e+06  -1.082158e+06
   3.021812e+06   2.360064e+06
   5.946619e+05   4.437150e+06
  -1.031100e+06   3.650529e+06
  -1.053197e+06   1.432371e+06
  -4.774966e+05   3.573543e+05
  -7.398293e+05   8.327678e+05
  -1.795747e+06   9.606816e+05
  -2.280036e+06  -4.145214e+05
  -1.346660e+06  -2.008814e+06
   3.860084e+05  -1.913124e+06
   1.623429e+06  -3.087165e+04
   1.469970e+06   1.958603e+06
  -1.269919e+05   2.431105e+06
  -2.221345e+06   1.083739e+06
  -3.196150e+06  -1.110921e+06
  -2.117735e+06  -2.687808e+06
   5.624283e+04  -2.762035e+06
   1.393899e+06  -1.761297e+06
   1.333045e+06  -9.040700e+05
   1.257866e+06  -7.476639e+05
   2.307016e+06  -5.937156e+05
   3.490550e+06   4.348278e+05
   2.868508e+06   2.132553e+06
   1.729105e+05   3.367092e+06
  -2.651215e+06   3.197638e+06
  -3.499193e+06   1.594957e+06
  -2.100324e+06  -5.553312e+05
   2.277939e+04  -1.877789e+06
   1.071591e+06  -1.457799e+06
   4.273669e+05   1.083761e+05
  -9.534405e+05   1.030697e+06
  -1.498764e+06   3.138111e+05
  -6.512740e+05  -9.294030e+05
   4.993282e+05  -9.175572e+05
   5.048779e+05   3.068070e+05
  -6.654192e+05   8.373905e+05
  -1.587136e+06  -5.104346e+05
  -1.058738e+06  -2.541618e+06
   6.799486e+05  -3.111243e+06
   2.409981e+06  -1.561157e+06
   3.056237e+06   8.306428e+05
   2.258847e+06   2.371677e+06
   4.835651e+05   2.348652e+06
  -1.091022e+06   1.234184e+06
  -1.347857e+06   1.382592e+05
  -4.092833e+05  -3.629513e+04
   3.081579e+05   6.153289e+05
  -2.693961e+05   1.058268e+06
  -1.459604e+06   4.972919e+05
  -1.646969e+06  -6.101758e+05
  -3.928447e+05  -1.094778e+06
   9.407904e+05  -5.185818e+05
   8.278978e+05   3.680966e+05
  -6.530150e+05   5.881932e+05
  -1.952449e+06  -8.562156e+04
  -1.678552e+06  -1.133771e+06
   9.639679e+04  -1.799079e+06
   1.941113e+06  -1.505025e+06
   2.329888e+06  -2.799816e+05
   1.013499e+06   9.880997e+05
  -7.027329e+05   1.172120e+06
  -1.190487e+06   1.586357e+05
  -1.272846e+05  -8.343843e+05
   1.229338e+06  -6.043617e+05
   1.445841e+06   5.891019e+05
   3.831727e+05   1.368544e+06
  -8.350334e+05   9.192321e+05
  -1.086844e+06  -1.415571e+05
  -2.969912e+05  -6.199439e+05
   6.086128e+05  -7.566864e+04
   5.966907e+05   8.502749e+05
  -4.901055e+05   1.165500e+06
  -1.666975e+06   4.291596e+05
  -1.676433e+06  -8.729755e+05
  -3.328564e+05  -1.704143e+06
   1.149503e+06  -1.376416e+06
   1.421913e+06  -2.241300e+05
   4.633562e+05   7.028468e+05
  -5.237691e+05   6.992876e+05
  -5.772639e+05   5.722857e+04
   6.286361e+04  -3.982781e+05
   4.927929e+05  -2.642874e+05
   2.501201e+05   9.669225e+04
  -3.110597e+05   7.900016e+04
  -4.934683e+05  -4.544570e+05
   8.507594e+04  -9.790484e+05
   1.117047e+06  -7.790976e+05
   1.734983e+06   3.145983e+05
   1.227304e+06   1.599716e+06
  -1.688318e+05   2.037908e+06
  -1.357493e+06   1.255742e+06
  -1.486256e+06  -4.848589e+04
  -8.190763e+05  -8.194470e+05
  -2.831859e+05  -7.050906e+05
  -3.041114e+05  -2.685775e+05
  -4.288715e+05  -2.078959e+05
  -7.432635e+04  -5.687274e+05
   6.938077e+05  -7.792308e+05
   1.231627e+06  -3.328357e+05
   9.526015e+05   6.224416e+05
  -1.599905e+05   1.309412e+06
  -1.445910e+06   9.665006e+05
  -1.915681e+06  -3.750539e+05
  -1.011887e+06  -1.733882e+06
   7.485969e+05  -1.983915e+06
   2.062646e+06  -9.402882e+05
   2.015288e+06   4.551484e+05
   9.241239e+05   1.120996e+06
  -1.143084e+05   8.979708e+05
  -4.030621e+05   5.119477e+05
  -1.878702e+05   6.020139e+05
  -1.321204e+05   1.003923e+06
  -5.223037e+05   1.021799e+06
  -1.034253e+06   2.588066e+05
  -1.102198e+06  -8.998525e+05
  -4.641235e+05  -1.582145e+06
   5.228797e+05  -1.201947e+06
   1.083744e+06  -2.104568e+04
   7.129454e+05   1.031322e+06
  -2.551261e+05   1.168767e+06
  -9.053301e+05   4.275826e+05
  -6.861417e+05  -4.632268e+05
   1.062539e+04  -8.447676e+05
   3.462017e+05  -6.816568e+05
   3.336576e+04  -3.926242e+05
  -3.424601e+05  -2.973181e+05
  -3.897676e+04  -3.271374e+05
   9.247672e+05  -1.991113e+05
   1.678287e+06   2.389285e+05
   1.359239e+06   8.218245e+05
   4.273787e+04   1.159395e+06
  -1.246092e+06   9.496126e+05
  -1.507055e+06   2.898392e+05
  -7.312962e+05  -3.298207e+05
   1.778131e+05  -4.427635e+05
   4.094079e+05  -6.676200e+04
   9.343012e+03   3.001101e+05
  -3.924874e+05   2.003469e+05
  -3.939990e+05  -2.835625e+05
  -1.541232e+05  -6.117770e+05
  -2.686109e+04  -3.965641e+05
  -1.261739e+05   1.194921e+05
  -2.834952e+05   2.900789e+05
  -2.433781e+05  -1.874665e+05
   1.445221e+05  -8.409763e+05
   7.412990e+05  -8.844572e+05
   1.063395e+06  -1.236734e+05
   6.480276e+05   7.529069e+05
  -3.340510e+05   8.996664e+05
  -1.002664e+06   2.375554e+05
  -6.044601e+05  -4.927745e+05
   5.705641e+05  -5.593553e+05
   1.359137e+06   4.355346e+04
   9.244817e+05   7.126304e+05
  -3.506922e+05   8.856256e+05
  -1.279187e+06   4.866934e+05
  -1.091291e+06  -1.188593e+05
  -1.425282e+05  -4.477761e+05
   5.400168e+05  -2.568629e+05
   3.078010e+05   2.243146e+05
  -5.098679e+05   4.097015e+05
  -9.805124e+05  -1.027535e+05
  -5.150398e+05  -1.000953e+06
   5.425939e+05  -1.400834e+06
   1.263880e+06  -7.079508e+05
   1.051678e+06   6.519185e+05
   1.668177e+05   1.517146e+06
  -6.242181e+05   1.119821e+06
  -7.946218e+05  -1.139156e+05
  -4.025815e+05  -1.003120e+06
   1.419166e+05  -8.488369e+05
   4.630466e+05  -9.346218e+04
   4.244885e+05   3.289861e+05
   1.714164e+05   1.321682e+05
   2.899941e+04  -9.354494e+04
   1.905832e+05   2.157164e+05
   4.155432e+05   7.989728e+05
   2.050703e+05   9.227968e+05
  -5.541821e+05   3.507169e+05
  -1.251251e+06  -3.894074e+05
  -1.120720e+06  -7.073608e+05
  -1.643782e+05  -5.805292e+05
   7.505084e+05  -3.465628e+05
   8.434534e+05  -1.674694e+05
   2.794140e+05   1.885162e+04
  -1.342664e+05   1.848013e+05
   5.988112e+03   1.989557e+05
   2.604989e+05   1.080549e+05
   2.659608e+04   1.117166e+05
  -5.970966e+05   1.769967e+05
  -8.732430e+05  -1.903642e+04
  -3.075376e+05  -5.644473e+05
   7.394517e+05  -9.611594e+05
   1.396033e+06  -6.142659e+05
   1.134483e+06   3.741713e+05
   2.167405e+05   1.185884e+06
  -6.301441e+05   1.146532e+06
  -8.760127e+05   4.279524e+05
  -5.530440e+05  -2.167022e+05
  -9.666592e+04  -2.974446e+05
   8.785301e+04  -2.758105e+04
  -6.065279e+04   4.208651e+04
  -2.728119e+05  -3.005326e+05
  -2.241227e+05  -6.816812e+05
   1.556921e+05  -5.618720e+05
   5.753298e+05   1.264418e+05
   5.967028e+05   8.182233e+05
   6.060619e+04   8.552531e+05
  -6.469582e+05   1.720674e+05
  -8.536211e+05  -6.325090e+05
  -2.725334e+05  -9.086163e+05
   5.986242e+05  -5.442185e+05
   9.211616e+05   6.739320e+04
   4.327198e+05   4.867834e+05
  -2.317044e+05   5.399432e+05
  -2.890458e+05   3.077926e+05
   2.357558e+05   2.482350e+04
   5.526286e+05  -2.765588e+04
   1.143880e+05   2.506350e+05
  -6.932785e+05   5.758759e+05
  -1.035870e+06   4.835665e+05
  -6.154073e+05  -1.183111e+05
   7.981701e+04  -7.180067e+05
   4.339092e+05  -7.130615e+05
   3.233584e+05  -1.210808e+05
   2.784949e+04   4.114948e+05
  -2.025477e+05   3.490156e+05
  -2.924427e+05  -1.494741e+05
  -2.100949e+05  -4.846681e+05
   4.576747e+04  -3.335736e+05
   3.250219e+05   4.805693e+04
   3.944822e+05   2.147479e+05
   2.068744e+05   6.415145e+04
  -2.005141e+04  -1.028382e+05
  -7.774119e+04   6.279208e+03
  -2.896299e+04   3.062854e+05
  -8.638621e+04   4.230541e+05
  -2.741857e+05   1.333334e+05
  -3.447394e+05  -3.414719e+05
  -8.607739e+04  -5.383309e+05
   3.527611e+05  -2.494213e+05
   5.377090e+05   2.470196e+05
   1.988925e+05   4.887769e+05
  -4.170182e+05   3.056912e+05
  -7.237270e+05  -7.015160e+04
  -3.952441e+05  -3.153233e+05
   2.419598e+05  -3.175139e+05
   5.244509e+05  -1.706846e+05
   1.894973e+05  -1.598393e+04
  -3.141189e+05   3.175385e+04
  -3.473446e+05  -8.333218e+04
   1.668947e+05  -2.569558e+05
   6.606748e+05  -2.204821e+05
