
 $NMID
 id='ANONYMOUS ', fmtdat='(2E16.6)'
 volume=1.0
 tramp=1.0
 $END
  -2.664864e+07   3.773221e+05
  -1.748173e+07  -1.352173e+07
   8.523590e+05  -1.727411e+07
   1.187288e+07  -1.007613e+07
   9.132618e+06   1.147361e+05
   7.369095e+01   4.693372e+06
  -5.186961e+06   1.573194e+06
  -3.317578e+06  -4.360463e+06
   1.688483e+06  -6.518769e+06
   4.855909e+06  -2.658384e+06
   4.077773e+06   3.255806e+06
   5.662270e+05   5.149433e+06
  -2.369843e+06   1.233348e+06
  -1.880850e+06  -4.025528e+06
   1.571864e+06  -4.809575e+06
   4.273383e+06  -2.381473e+05
   3.058368e+06   5.096902e+06
  -1.279132e+06   6.380252e+06
  -4.968115e+06   3.146277e+06
  -5.200331e+06  -1.296632e+06
  -2.540133e+06  -3.653743e+06
   1.270212e+05  -3.290574e+06
   4.663861e+05  -1.976674e+06
  -1.143191e+06  -1.775323e+06
  -1.914274e+06  -2.974723e+06
   4.082224e+05  -3.816285e+06
   4.557174e+06  -2.495777e+06
   6.480459e+06   5.662396e+05
   3.826396e+06   2.947437e+06
  -9.950728e+05   2.800316e+06
  -3.319948e+06   6.628868e+05
  -1.428338e+06  -1.378769e+06
   1.951554e+06  -1.665715e+06
   3.228488e+06  -4.281103e+03
   1.714202e+06   2.345805e+06
  -5.514661e+05   3.333706e+06
  -1.538057e+06   1.766120e+06
  -9.397404e+05  -9.865113e+05
   1.656941e+05  -1.868734e+06
   4.768427e+05   2.431300e+05
  -4.688248e+05   2.631592e+06
  -1.741246e+06   1.903660e+06
  -1.693479e+06  -1.393285e+06
   2.201328e+05  -3.144983e+06
   2.382175e+06  -9.246289e+05
   2.380179e+06   2.853992e+06
  -3.621916e+05   3.967336e+06
  -3.654814e+06   1.332785e+06
  -4.490761e+06  -2.273792e+06
  -1.925496e+06  -3.693496e+06
   1.945891e+06  -2.296611e+06
   3.842669e+06   2.480704e+05
   2.318775e+06   1.857077e+06
  -8.738642e+05   1.539417e+06
  -2.558600e+06  -5.240656e+04
  -1.406760e+06  -1.214553e+06
   7.973730e+05  -8.185220e+05
   1.384289e+06   4.834117e+05
  -8.023496e+04   1.047078e+06
  -1.479270e+06   2.032535e+05
  -8.453273e+05  -1.054705e+06
   1.313708e+06  -1.329761e+06
   2.670317e+06  -1.998512e+05
   1.620190e+06   1.670260e+06
  -1.189953e+06   3.096101e+06
  -3.625543e+06   2.902501e+06
  -4.006069e+06   7.138325e+05
  -2.405449e+06  -2.272011e+06
  -3.473460e+05  -3.925674e+06
   7.115074e+05  -3.279242e+06
   6.721164e+05  -1.607414e+06
   5.824065e+05  -7.925283e+05
   1.224369e+06  -9.771070e+05
   2.165760e+06  -6.867204e+05
   2.314200e+06   8.191049e+05
   1.173413e+06   2.298396e+06
  -6.238092e+05   2.036348e+06
  -1.838368e+06  -9.400180e+02
  -1.536050e+06  -2.058014e+06
   2.078496e+05  -2.399423e+06
   2.175749e+06  -8.582569e+05
   2.811408e+06   1.255467e+06
   1.631180e+06   2.438402e+06
  -2.004525e+05   2.210326e+06
  -1.117907e+06   1.308034e+06
  -9.600071e+05   7.676850e+05
  -1.017466e+06   8.091268e+05
  -2.127928e+06   6.961406e+05
  -3.298957e+06  -3.008841e+05
  -2.764841e+06  -1.967674e+06
  -2.137496e+05  -3.238196e+06
   2.579115e+06  -3.105569e+06
   3.466612e+06  -1.464312e+06
   2.020002e+06   6.962573e+05
  -1.837703e+05   1.896719e+06
  -1.177491e+06   1.353659e+06
  -4.037355e+05  -1.686527e+05
   9.745749e+05  -9.796157e+05
   1.408670e+06  -2.798062e+05
   5.452280e+05   8.799142e+05
  -5.365447e+05   9.022032e+05
  -5.923513e+05  -2.618995e+05
   4.509515e+05  -9.546832e+05
   1.479300e+06   1.053840e+05
   1.332246e+06   2.138833e+06
  -1.632006e+05   3.107834e+06
  -2.091100e+06   1.930418e+06
  -3.126357e+06  -4.867629e+05
  -2.481410e+06  -2.288335e+06
  -5.894149e+05  -2.393416e+06
   1.096743e+06  -1.232138e+06
   1.348360e+06  -1.111093e+05
   3.978099e+05   3.265155e+04
  -3.078486e+05  -5.912589e+05
   2.197440e+05  -9.801025e+05
   1.332211e+06  -4.757632e+05
   1.552203e+06   5.111873e+05
   4.185202e+05   9.955722e+05
  -8.866590e+05   5.322756e+05
  -8.704846e+05  -3.336502e+05
   5.670448e+05  -6.784637e+05
   1.968543e+06  -8.117419e+04
   1.805053e+06   1.057320e+06
   2.356436e+04   1.846684e+06
  -1.876178e+06   1.571517e+06
  -2.275838e+06   3.234648e+05
  -9.782189e+05  -9.139659e+05
   6.538719e+05  -1.077392e+06
   1.083824e+06  -1.362996e+05
   8.419227e+04   7.763412e+05
  -1.176255e+06   5.804360e+05
  -1.410638e+06  -5.228596e+05
  -4.493456e+05  -1.307517e+06
   7.375543e+05  -9.595445e+05
   1.065288e+06   4.284164e+04
   3.504098e+05   5.644524e+05
  -5.510143e+05   8.725092e+04
  -5.702431e+05  -8.125556e+05
   4.847991e+05  -1.128503e+06
   1.626149e+06  -4.090863e+05
   1.625120e+06   8.475060e+05
   3.357022e+05   1.640737e+06
  -1.077902e+06   1.341604e+06
  -1.362866e+06   2.551201e+05
  -4.807815e+05  -6.599930e+05
   4.857494e+05  -7.000810e+05
   6.007540e+05  -6.141403e+04
  -1.438528e+04   4.548808e+05
  -5.233215e+05   3.440157e+05
  -3.620661e+05  -9.417232e+04
   2.282572e+05  -1.715683e+05
   5.083090e+05   3.502179e+05
  -1.540335e+04   9.306177e+05
  -1.053330e+06   7.834001e+05
  -1.688512e+06  -2.759875e+05
  -1.205542e+06  -1.539208e+06
   1.432455e+05  -2.000840e+06
   1.311240e+06  -1.289773e+06
   1.494753e+06  -1.617949e+04
   8.920010e+05   8.262837e+05
   3.249525e+05   7.989046e+05
   2.474554e+05   3.405938e+05
   3.416596e+05   1.800633e+05
   6.210010e+04   5.044828e+05
  -6.389223e+05   7.775076e+05
  -1.204581e+06   3.834021e+05
  -9.944477e+05  -5.996562e+05
   9.375731e+04  -1.336338e+06
   1.398603e+06  -1.006815e+06
   1.896651e+06   3.271230e+05
   1.041597e+06   1.662169e+06
  -6.512273e+05   1.930298e+06
  -1.951359e+06   9.745483e+05
  -1.990261e+06  -3.552060e+05
  -1.000476e+06  -1.068110e+06
   4.365576e+04  -9.454159e+05
   4.309109e+05  -5.804379e+05
   2.753576e+05  -5.938980e+05
   1.754574e+05  -9.267171e+05
   4.892649e+05  -9.535631e+05
   9.774078e+05  -2.429145e+05
   1.069743e+06   8.759711e+05
   4.597125e+05   1.544565e+06
  -5.084315e+05   1.178911e+06
  -1.062310e+06   4.395929e+04
  -7.190006e+05  -9.683506e+05
   1.913565e+05  -1.131467e+06
   8.172173e+05  -4.743273e+05
   6.558211e+05   3.602687e+05
   5.081933e+04   7.682597e+05
  -2.548803e+05   6.688833e+05
   5.520659e+03   4.095015e+05
   3.249726e+05   3.046789e+05
   3.325681e+04   3.264182e+05
  -8.721286e+05   2.099662e+05
  -1.600599e+06  -2.054117e+05
  -1.329995e+06  -7.627519e+05
  -9.423261e+04  -1.089920e+06
   1.154355e+06  -9.154313e+05
   1.443314e+06  -3.279450e+05
   7.256115e+05   2.509693e+05
  -1.482698e+05   4.013140e+05
  -3.785912e+05   9.238765e+04
   1.177638e+04  -2.572508e+05
   4.020319e+05  -1.896641e+05
   3.788869e+05   2.754428e+05
   1.108278e+05   6.144290e+05
  -1.367025e+04   3.953900e+05
   1.227838e+05  -1.503997e+05
   3.046333e+05  -3.305109e+05
   2.484331e+05   1.735717e+05
  -1.535421e+05   8.410126e+05
  -7.147556e+05   8.615312e+05
  -9.872580e+05   9.254139e+04
  -5.850083e+05  -7.385306e+05
   3.245692e+05  -8.378216e+05
   9.513029e+05  -1.910051e+05
   5.884196e+05   4.923677e+05
  -5.391284e+05   5.587534e+05
  -1.345188e+06  -1.891025e+03
  -9.701821e+05  -6.676066e+05
   2.838462e+05  -9.015030e+05
   1.250333e+06  -5.548852e+05
   1.106374e+06   6.634017e+04
   1.690626e+05   4.448210e+05
  -5.178408e+05   2.777193e+05
  -2.861562e+05  -2.043721e+05
   5.207236e+05  -3.846943e+05
   9.599746e+05   1.296179e+05
   4.698263e+05   9.996922e+05
  -5.754582e+05   1.362212e+06
  -1.261503e+06   6.709006e+05
  -1.033538e+06  -6.513262e+05
  -1.667902e+05  -1.498478e+06
   6.034633e+05  -1.127700e+06
   7.860315e+05   7.609922e+04
   4.326183e+05   9.745147e+05
  -9.160699e+04   8.526983e+05
  -4.405647e+05   1.106939e+05
  -4.490363e+05  -3.237183e+05
  -2.025335e+05  -1.354878e+05
  -1.453829e+04   1.004594e+05
  -1.401652e+05  -1.940943e+05
  -3.946732e+05  -7.748427e+05
  -2.466656e+05  -9.080481e+05
   4.970454e+05  -3.499635e+05
   1.238226e+06   3.754908e+05
   1.142045e+06   6.837357e+05
   1.687560e+05   5.608266e+05
  -7.676617e+05   3.445301e+05
  -8.382610e+05   1.830173e+05
  -2.451935e+05  -7.844969e+02
   1.441061e+05  -1.799882e+05
  -4.699599e+04  -2.097142e+05
  -2.995769e+05  -1.221764e+05
  -1.123888e+04  -1.141672e+05
   6.310463e+05  -1.650227e+05
   8.535598e+05   3.023672e+04
   2.421972e+05   5.538820e+05
  -7.662516e+05   9.238849e+05
  -1.345421e+06   5.703782e+05
  -1.065690e+06  -3.956239e+05
  -1.978213e+05  -1.172309e+06
   6.085838e+05  -1.110281e+06
   8.618771e+05  -3.925404e+05
   5.513998e+05   2.344070e+05
   7.749911e+04   2.934252e+05
  -1.239018e+05   7.615442e+03
   4.319350e+04  -6.702417e+04
   2.850499e+05   2.804093e+05
   2.359754e+05   6.668228e+05
  -1.625305e+05   5.436705e+05
  -5.756404e+05  -1.507586e+05
  -5.637759e+05  -8.329942e+05
  -1.381029e+04  -8.400762e+05
   6.631919e+05  -1.327256e+05
   8.275804e+05   6.588288e+05
   2.397045e+05   8.927745e+05
  -5.980647e+05   5.047072e+05
  -8.857276e+05  -8.152989e+04
  -3.984078e+05  -4.548814e+05
   2.300059e+05  -4.940554e+05
   2.538912e+05  -2.893364e+05
  -2.671661e+05  -3.404076e+04
  -5.518845e+05   2.148089e+04
  -9.879946e+04  -2.407347e+05
   6.806028e+05  -5.681654e+05
   9.840701e+05  -4.946243e+05
   5.652375e+05   9.430751e+04
  -8.489494e+04   6.904797e+05
  -3.985865e+05   6.802655e+05
  -2.858055e+05   8.852532e+04
  -9.493598e+03  -4.202225e+05
   2.085210e+05  -3.236396e+05
   2.921289e+05   1.782025e+05
   1.997321e+05   4.778226e+05
  -5.794446e+04   2.995270e+05
  -3.189589e+05  -6.219295e+04
  -3.724828e+05  -1.915282e+05
  -1.998711e+05  -4.406479e+04
   4.776543e+02   7.841668e+04
   6.942699e+04  -5.662697e+04
   7.055860e+04  -3.259155e+05
   1.524704e+05  -3.878206e+05
   2.964014e+05  -7.481700e+04
   2.996125e+05   3.789631e+05
   2.699394e+04   5.402844e+05
  -3.650105e+05   2.295177e+05
  -5.078607e+05  -2.682374e+05
  -1.783413e+05  -4.950577e+05
   4.014413e+05  -2.921375e+05
   6.925558e+05   8.870255e+04
   3.768583e+05   3.131098e+05
  -2.418763e+05   2.865023e+05
  -5.103303e+05   1.345659e+05
  -1.616083e+05   6.494865e+03
   3.463909e+05  -8.333831e+03
   3.584000e+05   1.173390e+05
  -1.909237e+05   2.759987e+05
  -6.961654e+05   2.174519e+05
