
 $NMID
 id='ANONYMOUS ', fmtdat='(2E16.6)'
 volume=1.0
 tramp=1.0
 $END
  -2.523267e+07   3.246167e+04
  -1.641375e+07  -1.340951e+07
   1.247861e+06  -1.659325e+07
   1.167586e+07  -9.127125e+06
   8.697949e+06   6.586760e+05
  -2.338276e+05   4.521546e+06
  -4.995213e+06   1.170454e+06
  -2.891301e+06  -4.309957e+06
   1.927242e+06  -5.993862e+06
   4.696471e+06  -2.258511e+06
   3.728163e+06   3.135241e+06
   4.026349e+05   4.777363e+06
  -2.200897e+06   1.133244e+06
  -1.586322e+06  -3.694987e+06
   1.661363e+06  -4.350706e+06
   4.036564e+06  -4.586826e+04
   2.710112e+06   4.886747e+06
  -1.397024e+06   5.964389e+06
  -4.746610e+06   2.866486e+06
  -4.882079e+06  -1.259761e+06
  -2.425195e+06  -3.442440e+06
   5.572022e+04  -3.181145e+06
   5.165277e+05  -2.028727e+06
  -7.914531e+05  -1.763092e+06
  -1.491410e+06  -2.694645e+06
   4.796629e+05  -3.357187e+06
   4.127766e+06  -2.141402e+06
   5.854786e+06   6.230900e+05
   3.480003e+06   2.739810e+06
  -8.549196e+05   2.528631e+06
  -2.928179e+06   5.715978e+05
  -1.224116e+06  -1.168213e+06
   1.743897e+06  -1.311919e+06
   2.792986e+06   1.369623e+05
   1.417571e+06   2.094401e+06
  -5.493081e+05   2.934019e+06
  -1.398727e+06   1.623344e+06
  -8.967448e+05  -8.006726e+05
   6.869962e+04  -1.691521e+06
   3.638903e+05   1.082201e+05
  -4.890558e+05   2.275826e+06
  -1.652941e+06   1.651455e+06
  -1.537195e+06  -1.383582e+06
   3.589746e+05  -3.001694e+06
   2.392387e+06  -8.555097e+05
   2.252120e+06   2.765870e+06
  -4.408901e+05   3.784456e+06
  -3.463294e+06   1.190106e+06
  -4.072217e+06  -2.250973e+06
  -1.608977e+06  -3.482151e+06
   1.892113e+06  -2.020343e+06
   3.508105e+06   4.109282e+05
   2.032714e+06   1.834374e+06
  -9.002428e+05   1.415922e+06
  -2.399264e+06  -1.400978e+05
  -1.275546e+06  -1.203839e+06
   7.711049e+05  -7.528041e+05
   1.244321e+06   5.053467e+05
  -1.824967e+05   9.571073e+05
  -1.432253e+06   4.374506e+04
  -7.001709e+05  -1.141306e+06
   1.380556e+06  -1.249143e+06
   2.562824e+06  -5.328301e+04
   1.467349e+06   1.655263e+06
  -1.162832e+06   2.825045e+06
  -3.360332e+06   2.555877e+06
  -3.669103e+06   5.753202e+05
  -2.175566e+06  -2.103306e+06
  -2.355281e+05  -3.599667e+06
   7.928927e+05  -2.992605e+06
   7.413262e+05  -1.407921e+06
   5.644851e+05  -6.051234e+05
   1.059570e+06  -7.704689e+05
   1.880590e+06  -5.553412e+05
   2.007011e+06   7.512964e+05
   9.777873e+05   2.038674e+06
  -5.975911e+05   1.764857e+06
  -1.605800e+06  -7.282126e+04
  -1.283162e+06  -1.883114e+06
   2.572771e+05  -2.140448e+06
   1.972655e+06  -7.294617e+05
   2.525711e+06   1.181216e+06
   1.465006e+06   2.258102e+06
  -2.069475e+05   2.056061e+06
  -1.071685e+06   1.220194e+06
  -9.446731e+05   6.935918e+05
  -9.850542e+05   6.876755e+05
  -1.964313e+06   5.348952e+05
  -2.977757e+06  -4.055363e+05
  -2.425386e+06  -1.886134e+06
  -7.068532e+04  -2.927640e+06
   2.429501e+06  -2.699392e+06
   3.153740e+06  -1.204091e+06
   1.787568e+06   6.681913e+05
  -2.075415e+05   1.677023e+06
  -1.079648e+06   1.181243e+06
  -3.572788e+05  -1.514832e+05
   8.992510e+05  -8.483583e+05
   1.283486e+06  -2.124199e+05
   4.783999e+05   8.085400e+05
  -5.036349e+05   7.909914e+05
  -5.085330e+05  -2.648721e+05
   4.782578e+05  -8.293937e+05
   1.357686e+06   2.091031e+05
   1.088646e+06   2.045233e+06
  -3.476967e+05   2.804834e+06
  -2.017244e+06   1.604950e+06
  -2.787275e+06  -6.156957e+05
  -2.102294e+06  -2.168031e+06
  -4.171787e+05  -2.161740e+06
   1.027155e+06  -1.060987e+06
   1.210077e+06  -5.375668e+04
   3.576751e+05   4.427533e+04
  -2.553191e+05  -5.431043e+05
   2.349300e+05  -8.837686e+05
   1.227891e+06  -3.885184e+05
   1.391949e+06   5.231364e+05
   3.423394e+05   9.227490e+05
  -8.190389e+05   4.457818e+05
  -7.600696e+05  -3.351866e+05
   5.498856e+05  -5.723922e+05
   1.767564e+06   3.042039e+04
   1.556700e+06   1.031992e+06
  -7.028297e+04   1.650277e+06
  -1.750758e+06   1.328094e+06
  -2.059840e+06   2.009516e+05
  -8.528369e+05  -8.642707e+05
   6.265121e+05  -9.593267e+05
   9.917186e+05  -9.328392e+04
   5.891762e+04   7.040869e+05
  -1.079768e+06   4.834812e+05
  -1.252392e+06  -5.277173e+05
  -3.476182e+05  -1.200001e+06
   7.122903e+05  -8.313728e+05
   9.607204e+05   9.048818e+04
   2.892799e+05   5.282787e+05
  -5.027431e+05   5.920501e+04
  -4.840288e+05  -7.502204e+05
   4.741885e+05  -9.946991e+05
   1.473597e+06  -3.093573e+05
   1.430769e+06   8.198385e+05
   2.423913e+05   1.490467e+06
  -1.023874e+06   1.170415e+06
  -1.241424e+06   1.769407e+05
  -4.076053e+05  -6.158669e+05
   4.647348e+05  -6.113560e+05
   5.357137e+05  -3.310867e+04
  -3.931122e+04   3.971443e+05
  -4.777831e+05   2.723887e+05
  -3.002299e+05  -1.029966e+05
   2.291628e+05  -1.317141e+05
   4.429526e+05   3.516648e+05
  -5.935173e+04   8.428457e+05
  -9.826207e+05   6.623427e+05
  -1.508773e+06  -3.148609e+05
  -1.026584e+06  -1.430870e+06
   2.055576e+05  -1.792332e+06
   1.230913e+06  -1.102380e+06
   1.340728e+06   5.249219e+04
   7.559763e+05   7.765732e+05
   2.497133e+05   7.154438e+05
   2.137848e+05   3.006195e+05
   3.132224e+05   1.749295e+05
   3.982771e+04   4.638659e+05
  -6.115247e+05   6.734638e+05
  -1.099306e+06   2.882259e+05
  -8.598650e+05  -5.816752e+05
   1.481166e+05  -1.190502e+06
   1.299178e+06  -8.420341e+05
   1.689113e+06   3.716740e+05
   8.676823e+05   1.538408e+06
  -6.675464e+05   1.714929e+06
  -1.801259e+06   7.986930e+05
  -1.776385e+06  -4.066015e+05
  -8.461059e+05  -1.005008e+06
   8.773013e+04  -8.401218e+05
   4.062966e+05  -4.909751e+05
   2.545369e+05  -5.182931e+05
   1.812354e+05  -8.331257e+05
   4.755142e+05  -8.475322e+05
   8.918661e+05  -1.859983e+05
   9.305801e+05   8.260066e+05
   3.560879e+05   1.404759e+06
  -4.998952e+05   1.040164e+06
  -9.561956e+05  -2.599995e+03
  -6.088645e+05  -9.030811e+05
   2.217403e+05  -1.013850e+06
   7.645243e+05  -3.904817e+05
   5.822594e+05   3.616131e+05
   1.037343e+04   7.037135e+05
  -2.664563e+05   5.946111e+05
  -1.680148e+04   3.659359e+05
   2.815614e+05   2.837813e+05
   1.771893e+04   2.936147e+05
  -7.972823e+05   1.549611e+05
  -1.437668e+06  -2.468203e+05
  -1.168124e+06  -7.403817e+05
  -3.856113e+04  -9.909401e+05
   1.079660e+06  -7.846428e+05
   1.315244e+06  -2.366236e+05
   6.441470e+05   2.631747e+05
  -1.507843e+05   3.610570e+05
  -3.481363e+05   6.555454e+04
   1.591970e+04  -2.361299e+05
   3.661236e+05  -1.561576e+05
   3.318247e+05   2.620008e+05
   8.233738e+04   5.527813e+05
  -2.089913e+04   3.522901e+05
   1.177062e+05  -1.251684e+05
   2.832991e+05  -2.766645e+05
   2.143274e+05   1.676535e+05
  -1.690390e+05   7.462262e+05
  -6.754706e+05   7.474574e+05
  -8.967040e+05   5.230995e+04
  -5.052516e+05  -6.829518e+05
   3.213792e+05  -7.470422e+05
   8.648993e+05  -1.437335e+05
   5.107293e+05   4.626931e+05
  -5.086700e+05   4.813469e+05
  -1.208269e+06  -5.827264e+04
  -8.381987e+05  -6.430771e+05
   2.991212e+05  -7.966518e+05
   1.147332e+06  -4.403657e+05
   9.875257e+05   1.095824e+05
   1.307649e+05   4.059615e+05
  -4.777796e+05   2.269942e+05
  -2.523001e+05  -1.954423e+05
   4.777760e+05  -3.278238e+05
   8.562408e+05   1.472698e+05
   3.897581e+05   9.110154e+05
  -5.601151e+05   1.202599e+06
  -1.153925e+06   5.589759e+05
  -9.038549e+05  -6.216178e+05
  -9.362426e+04  -1.350977e+06
   5.862165e+05  -9.865762e+05
   7.034078e+05   1.031067e+05
   3.470445e+05   8.938888e+05
  -1.215484e+05   7.607316e+05
  -4.021377e+05   8.053793e+04
  -3.861362e+05  -3.081622e+05
  -1.714628e+05  -1.292021e+05
  -1.908179e+04   8.905163e+04
  -1.262803e+05  -1.803589e+05
  -3.282841e+05  -7.112345e+05
  -1.814203e+05  -8.258076e+05
   4.664321e+05  -2.968231e+05
   1.097051e+06   3.842522e+05
   9.945477e+05   6.593713e+05
   1.298366e+05   5.116079e+05
  -6.978919e+05   2.793145e+05
  -7.587242e+05   1.301673e+05
  -2.251371e+05  -1.153273e+04
   1.341144e+05  -1.563434e+05
  -2.772568e+04  -1.895948e+05
  -2.570762e+05  -1.198968e+05
  -7.671102e+03  -1.014748e+05
   5.657289e+05  -1.244049e+05
   7.653591e+05   5.682383e+04
   2.059246e+05   5.042821e+05
  -7.155054e+05   8.030220e+05
  -1.232012e+06   4.683070e+05
  -9.487100e+05  -3.889446e+05
  -1.361672e+05  -1.058493e+06
   5.887229e+05  -9.770132e+05
   7.871846e+05  -3.243943e+05
   4.841799e+05   2.279610e+05
   6.112573e+04   2.653055e+05
  -1.051949e+05   3.739584e+03
   4.459666e+04  -5.525106e+04
   2.434077e+05   2.650569e+05
   1.849811e+05   6.081585e+05
  -1.640362e+05   4.829258e+05
  -5.086047e+05  -1.528524e+05
  -4.778737e+05  -7.634521e+05
   1.163566e+04  -7.533311e+05
   5.950794e+05  -9.928752e+04
   7.192741e+05   6.162442e+05
   1.863891e+05   8.096609e+05
  -5.533030e+05   4.351655e+05
  -7.945933e+05  -1.031564e+05
  -3.454705e+05  -4.256940e+05
   2.232545e+05  -4.401942e+05
   2.424644e+05  -2.532063e+05
  -2.332769e+05  -4.029488e+04
  -4.948628e+05  -7.469241e+02
  -8.194649e+04  -2.202717e+05
   6.323259e+05  -4.847240e+05
   9.075955e+05  -4.060384e+05
   5.107320e+05   1.075307e+05
  -1.002438e+05   6.189700e+05
  -3.865597e+05   6.000902e+05
  -2.637034e+05   7.442648e+04
   4.935809e+03  -3.748156e+05
   1.972607e+05  -2.854178e+05
   2.540104e+05   1.664126e+05
   1.625859e+05   4.360226e+05
  -6.027124e+04   2.705873e+05
  -2.836885e+05  -6.536202e+04
  -3.303285e+05  -1.881132e+05
  -1.790296e+05  -4.970054e+04
   1.128425e+03   7.309421e+04
   6.714881e+04  -4.102955e+04
   6.995968e+04  -2.849429e+05
   1.402796e+05  -3.445538e+05
   2.631047e+05  -6.371924e+04
   2.594493e+05   3.436574e+05
   1.240638e+04   4.826121e+05
  -3.330583e+05   1.942626e+05
  -4.482771e+05  -2.552636e+05
  -1.437855e+05  -4.483732e+05
   3.722712e+05  -2.488986e+05
   6.206634e+05   1.017465e+05
   3.284233e+05   2.942062e+05
  -2.262794e+05   2.520086e+05
  -4.629005e+05   1.071572e+05
  -1.488403e+05   2.056402e+03
   3.049029e+05   3.047104e+03
   3.138431e+05   1.137947e+05
  -1.783112e+05   2.364146e+05
  -6.261946e+05   1.679345e+05
