
 $NMID
 id='ANONYMOUS ', fmtdat='(2E16.6)'
 volume=1.0
 tramp=1.0
 $END
   3.315916e+07   4.069705e+06
   1.842162e+07   1.997279e+07
  -4.688623e+06   2.081637e+07
  -1.586931e+07   9.634736e+06
  -1.024578e+07  -1.945565e+06
   1.002573e+06  -5.386017e+06
   6.034894e+06  -8.314157e+05
   2.950487e+06   5.491086e+06
  -2.857563e+06   7.095695e+06
  -5.974886e+06   2.250440e+06
  -4.486589e+06  -4.467586e+06
  -1.125048e+05  -6.262680e+06
   3.086077e+06  -1.300322e+06
   1.950689e+06   4.863071e+06
  -2.334060e+06   5.334326e+06
  -5.020776e+06  -4.429749e+05
  -2.838054e+06  -6.556531e+06
   2.560158e+06  -7.444224e+06
   6.601808e+06  -3.065431e+06
   6.343742e+06   2.410000e+06
   2.702119e+06   5.127956e+06
  -8.391115e+05   4.368946e+06
  -1.338590e+06   2.320916e+06
   8.534948e+05   1.762649e+06
   2.132915e+06   3.263350e+06
  -5.448435e+05   4.461298e+06
  -5.582013e+06   2.806567e+06
  -7.818775e+06  -1.106776e+06
  -4.457258e+06  -3.976317e+06
   1.362645e+06  -3.549747e+06
   4.081119e+06  -8.163841e+05
   1.875849e+06   1.603844e+06
  -2.045956e+06   1.957721e+06
  -3.660582e+06   9.177730e+04
  -2.064606e+06  -2.705760e+06
   6.735592e+05  -4.021199e+06
   2.100554e+06  -2.147286e+06
   1.386893e+06   1.361628e+06
  -2.798654e+05   2.538622e+06
  -8.432923e+05  -1.235006e+05
   5.020589e+05  -3.080185e+06
   2.156847e+06  -2.074052e+06
   1.744049e+06   1.899069e+06
  -9.143979e+05   3.581734e+06
  -3.179547e+06   4.212057e+05
  -2.380727e+06  -4.044210e+06
   1.240235e+06  -4.742517e+06
   4.694638e+06  -1.046882e+06
   5.018176e+06   3.225258e+06
   1.797953e+06   4.473693e+06
  -2.474462e+06   2.420043e+06
  -4.352058e+06  -6.780643e+05
  -2.409718e+06  -2.349525e+06
   1.258434e+06  -1.610460e+06
   2.996118e+06   4.497019e+05
   1.444286e+06   1.633485e+06
  -1.082168e+06   8.542364e+05
  -1.536718e+06  -6.809975e+05
   2.118149e+05  -1.026777e+06
   1.539677e+06   1.105221e+05
   5.045911e+05   1.260173e+06
  -1.913456e+06   1.115664e+06
  -3.103760e+06  -3.220492e+05
  -1.578111e+06  -2.255192e+06
   1.778562e+06  -3.629779e+06
   4.599153e+06  -3.224054e+06
   4.932960e+06  -5.262532e+05
   2.779696e+06   3.020543e+06
   6.522914e+04   4.783105e+06
  -1.196642e+06   3.725185e+06
  -8.684848e+05   1.646555e+06
  -5.209338e+05   8.435391e+05
  -1.308615e+06   1.238742e+06
  -2.575276e+06   8.999700e+05
  -2.800557e+06  -9.583870e+05
  -1.410067e+06  -2.727685e+06
   7.135174e+05  -2.404426e+06
   2.098204e+06  -1.188836e+04
   1.715315e+06   2.407356e+06
  -3.449464e+05   2.813955e+06
  -2.664581e+06   9.259721e+05
  -3.344913e+06  -1.713269e+06
  -1.781309e+06  -3.158384e+06
   5.310609e+05  -2.732857e+06
   1.604272e+06  -1.449008e+06
   1.287229e+06  -7.213478e+05
   1.245089e+06  -7.786960e+05
   2.496342e+06  -6.117744e+05
   3.797646e+06   6.118008e+05
   3.069717e+06   2.490250e+06
   3.549978e+04   3.776283e+06
  -3.189989e+06   3.470771e+06
  -4.150592e+06   1.551805e+06
  -2.386399e+06  -9.024115e+05
   2.580183e+05  -2.252797e+06
   1.447611e+06  -1.584097e+06
   4.909977e+05   2.072588e+05
  -1.189298e+06   1.110669e+06
  -1.678222e+06   2.335798e+05
  -5.963998e+05  -1.097466e+06
   6.580957e+05  -1.042889e+06
   6.370422e+05   3.002393e+05
  -5.609155e+05   9.721715e+05
  -1.563879e+06  -3.192701e+05
  -1.222870e+06  -2.515126e+06
   4.425756e+05  -3.387599e+06
   2.431618e+06  -1.934120e+06
   3.450832e+06   7.552449e+05
   2.693106e+06   2.698206e+06
   5.683538e+05   2.751887e+06
  -1.330760e+06   1.381574e+06
  -1.582053e+06   7.300498e+04
  -4.620711e+05  -6.171361e+04
   3.199464e+05   7.037605e+05
  -3.409720e+05   1.121260e+06
  -1.600650e+06   4.435870e+05
  -1.756087e+06  -7.207841e+05
  -3.967230e+05  -1.181419e+06
   1.054067e+06  -5.516996e+05
   9.684739e+05   4.133711e+05
  -6.694113e+05   7.021107e+05
  -2.212677e+06  -2.795752e+04
  -1.984773e+06  -1.274193e+06
   6.435608e+04  -2.082734e+06
   2.235282e+06  -1.694885e+06
   2.649124e+06  -2.392709e+05
   1.071342e+06   1.134831e+06
  -8.556453e+05   1.220305e+06
  -1.295030e+06   7.117846e+04
  -4.878245e+04  -9.326855e+05
   1.410314e+06  -6.025493e+05
   1.592193e+06   6.984183e+05
   4.237849e+05   1.522186e+06
  -9.013177e+05   1.031635e+06
  -1.196854e+06  -1.254869e+05
  -3.483817e+05  -6.574055e+05
   6.463902e+05  -4.830150e+04
   6.101112e+05   9.860233e+05
  -6.322165e+05   1.288656e+06
  -1.920974e+06   3.838782e+05
  -1.844787e+06  -1.085493e+06
  -2.866256e+05  -1.930657e+06
   1.341480e+06  -1.484909e+06
   1.593348e+06  -2.040327e+05
   5.085499e+05   7.880161e+05
  -6.006255e+05   7.741922e+05
  -6.916961e+05   5.489203e+04
   2.384938e+04  -4.916805e+05
   5.814620e+05  -3.686002e+05
   3.887437e+05   7.966891e+04
  -2.527143e+05   1.320677e+05
  -5.257480e+05  -4.479484e+05
   9.825958e+04  -1.060219e+06
   1.271274e+06  -8.307831e+05
   1.939161e+06   4.276977e+05
   1.305354e+06   1.864230e+06
  -2.802739e+05   2.312503e+06
  -1.576860e+06   1.410141e+06
  -1.707449e+06  -6.027523e+04
  -9.861786e+05  -9.693379e+05
  -3.718289e+05  -9.068395e+05
  -3.133477e+05  -4.170987e+05
  -3.934953e+05  -2.688186e+05
  -2.203784e+04  -6.081139e+05
   7.924551e+05  -8.493034e+05
   1.401673e+06  -3.640032e+05
   1.106872e+06   7.324468e+05
  -1.759711e+05   1.513316e+06
  -1.664231e+06   1.072800e+06
  -2.168906e+06  -4.875391e+05
  -1.093863e+06  -1.979100e+06
   8.882689e+05  -2.178256e+06
   2.317570e+06  -9.856697e+05
   2.255884e+06   5.352910e+05
   1.073827e+06   1.264040e+06
  -8.870262e+04   1.055352e+06
  -4.924921e+05   6.514055e+05
  -3.328907e+05   7.154051e+05
  -2.705782e+05   1.101896e+06
  -6.477915e+05   1.084094e+06
  -1.163911e+06   2.155855e+05
  -1.197114e+06  -1.084920e+06
  -4.466533e+05  -1.823129e+06
   6.571704e+05  -1.342934e+06
   1.228813e+06   1.185613e+04
   7.608897e+05   1.167009e+06
  -3.034956e+05   1.284293e+06
  -9.679416e+05   4.650886e+05
  -7.058974e+05  -4.826533e+05
   2.233678e+04  -8.828692e+05
   3.507265e+05  -7.272159e+05
   1.272350e+04  -4.554385e+05
  -3.698747e+05  -3.758235e+05
  -2.365345e+04  -3.837920e+05
   1.028737e+06  -1.774998e+05
   1.849506e+06   3.545941e+05
   1.488094e+06   9.720103e+05
   1.798846e+04   1.260213e+06
  -1.415479e+06   9.754331e+05
  -1.686556e+06   2.787297e+05
  -7.973431e+05  -3.428120e+05
   2.149909e+05  -4.544407e+05
   4.390318e+05  -7.083805e+04
  -4.049664e+04   3.169106e+05
  -4.793115e+05   2.085519e+05
  -4.272800e+05  -3.460677e+05
  -1.100196e+05  -7.377955e+05
   2.649508e+04  -4.766763e+05
  -1.373115e+05   1.610949e+05
  -3.472719e+05   3.697428e+05
  -2.721159e+05  -2.149468e+05
   2.172401e+05  -9.733128e+05
   8.860206e+05  -9.585495e+05
   1.178972e+06  -3.289464e+04
   6.504424e+05   9.155862e+05
  -4.452897e+05   9.655125e+05
  -1.144471e+06   1.639053e+05
  -6.635730e+05  -6.064982e+05
   6.587745e+05  -6.103268e+05
   1.546890e+06   7.923294e+04
   1.066699e+06   8.096696e+05
  -3.782885e+05   1.001386e+06
  -1.453696e+06   5.597747e+05
  -1.255343e+06  -1.324983e+05
  -1.690322e+05  -5.132003e+05
   6.089625e+05  -2.844881e+05
   3.179004e+05   2.636630e+05
  -6.311442e+05   4.317462e+05
  -1.124097e+06  -1.988552e+05
  -5.074085e+05  -1.202635e+06
   7.419050e+05  -1.577350e+06
   1.513040e+06  -7.270843e+05
   1.173657e+06   8.124948e+05
   1.159877e+05   1.751873e+06
  -7.538768e+05   1.270861e+06
  -8.941237e+05  -1.363292e+05
  -4.381914e+05  -1.143958e+06
   1.543002e+05  -9.622845e+05
   5.132089e+05  -9.425615e+04
   4.988023e+05   3.868174e+05
   2.239897e+05   1.519477e+05
   2.116504e+04  -1.083441e+05
   1.539663e+05   2.584567e+05
   4.158382e+05   9.318556e+05
   2.298473e+05   1.050091e+06
  -6.048631e+05   3.581305e+05
  -1.416945e+06  -5.018547e+05
  -1.279824e+06  -8.421813e+05
  -1.601309e+05  -6.612136e+05
   9.051671e+05  -3.725786e+05
   9.760702e+05  -1.681789e+05
   2.834616e+05   3.122321e+04
  -1.757046e+05   2.078847e+05
   4.155239e+04   2.256434e+05
   3.403945e+05   1.357347e+05
   1.144862e+04   1.392535e+05
  -7.390751e+05   1.795357e+05
  -9.983703e+05  -8.134166e+04
  -2.636662e+05  -6.855362e+05
   9.438239e+05  -1.056628e+06
   1.618336e+06  -5.861203e+05
   1.242424e+06   5.353689e+05
   1.729346e+05   1.381750e+06
  -7.788948e+05   1.258425e+06
  -1.037624e+06   4.161159e+05
  -6.372603e+05  -2.951835e+05
  -7.805751e+04  -3.534447e+05
   1.459922e+05  -2.291664e+04
  -4.564105e+04   6.305248e+04
  -3.064120e+05  -3.373418e+05
  -2.339871e+05  -7.825716e+05
   2.204534e+05  -6.300940e+05
   6.718431e+05   1.967107e+05
   6.290778e+05   1.004850e+06
  -2.022113e+04   9.999177e+05
  -7.905331e+05   1.385445e+05
  -9.474670e+05  -8.097727e+05
  -2.363884e+05  -1.065699e+06
   7.357554e+05  -5.658824e+05
   1.038003e+06   1.489418e+05
   4.337957e+05   5.683128e+05
  -3.109688e+05   5.710412e+05
  -3.232074e+05   3.118556e+05
   3.068917e+05   3.606336e+04
   6.448645e+05  -6.118941e+01
   1.021794e+05   2.931693e+05
  -8.226044e+05   6.241251e+05
  -1.170907e+06   5.034960e+05
  -6.512522e+05  -1.628260e+05
   1.417805e+05  -8.056309e+05
   5.160369e+05  -7.622193e+05
   3.580492e+05  -7.913092e+04
  -9.457977e+02   4.950107e+05
  -2.674343e+05   3.738417e+05
  -3.439509e+05  -2.150303e+05
  -2.087518e+05  -5.701587e+05
   9.401208e+04  -3.573133e+05
   3.750175e+05   8.687035e+04
   4.176607e+05   2.540237e+05
   2.225312e+05   6.754192e+04
   1.017021e+04  -1.045831e+05
  -6.238109e+04   4.890948e+04
  -8.003214e+04   3.899048e+05
  -1.977077e+05   4.798257e+05
  -3.694754e+05   9.469334e+04
  -3.560960e+05  -4.667429e+05
  -1.882685e+04  -6.547510e+05
   4.410608e+05  -2.589959e+05
   5.926901e+05   3.442935e+05
   1.909101e+05   5.911404e+05
  -4.889085e+05   3.162738e+05
  -8.145241e+05  -1.454339e+05
  -4.257421e+05  -3.896922e+05
   3.079574e+05  -3.275891e+05
   6.177661e+05  -1.335580e+05
   1.978530e+05   1.046034e+04
  -4.065782e+05   1.278049e+04
  -4.237943e+05  -1.410475e+05
   2.211071e+05  -3.186158e+05
   8.127838e+05  -2.368124e+05
