
 $NMID
 id='ANONYMOUS ', fmtdat='(2E16.6)'
 volume=1.0
 tramp=1.0
 $END
  -4.547313e+07   1.464393e+06
  -2.893461e+07  -2.651247e+07
   4.153183e+06  -3.095366e+07
   2.184616e+07  -1.361643e+07
   1.422373e+07   4.359574e+06
  -1.965504e+06   7.859163e+06
  -8.353670e+06  -1.038963e+05
  -3.154864e+06  -7.934106e+06
   4.586718e+06  -8.493490e+06
   8.006621e+06  -2.370250e+06
   6.008362e+06   5.018674e+06
   8.133186e+05   7.290214e+06
  -3.305047e+06   2.240900e+06
  -2.313649e+06  -4.861694e+06
   2.986896e+06  -5.949730e+06
   6.649727e+06   6.635277e+05
   4.110526e+06   8.310859e+06
  -2.685156e+06   9.917406e+06
  -8.106388e+06   5.100807e+06
  -8.763046e+06  -1.509785e+06
  -5.319444e+06  -5.855235e+06
  -7.035084e+05  -6.654468e+06
   1.816709e+06  -4.761345e+06
   8.286387e+05  -2.589065e+06
  -1.195013e+06  -2.488862e+06
   5.196434e+04  -3.904444e+06
   4.941995e+06  -3.608833e+06
   8.320230e+06  -1.826405e+05
   5.844665e+06   3.531620e+06
  -7.444950e+04   4.097446e+06
  -3.387727e+06   1.829353e+06
  -1.939774e+06  -4.032590e+05
   1.131690e+06  -1.001044e+06
   2.504310e+06  -1.591244e+05
   1.856805e+06   1.714573e+06
   2.190649e+05   3.546166e+06
  -1.577789e+06   3.065002e+06
  -2.323528e+06  -2.503053e+05
  -1.137006e+06  -2.840430e+06
   4.966901e+05  -1.184310e+06
  -1.847074e+04   2.389267e+06
  -2.200093e+06   2.125562e+06
  -2.239719e+06  -2.533950e+06
   1.530128e+06  -5.181014e+06
   5.329299e+06  -1.225282e+06
   4.326253e+06   5.319484e+06
  -1.150882e+06   6.957187e+06
  -5.996883e+06   2.177039e+06
  -6.091127e+06  -3.600071e+06
  -1.893193e+06  -5.205697e+06
   2.943116e+06  -2.574027e+06
   4.774890e+06   1.089193e+06
   2.404634e+06   2.946368e+06
  -1.860194e+06   2.024674e+06
  -3.852510e+06  -5.521853e+05
  -1.806450e+06  -2.175272e+06
   1.365322e+06  -1.205591e+06
   1.614506e+06   8.442506e+05
  -9.277654e+05   1.032468e+06
  -2.249775e+06  -1.045289e+06
  -2.212389e+04  -2.718961e+06
   3.441089e+06  -1.879175e+06
   4.449403e+06   7.043731e+05
   2.159972e+06   3.135946e+06
  -1.501275e+06   4.455421e+06
  -4.401021e+06   4.100446e+06
  -5.298372e+06   1.411456e+06
  -3.772335e+06  -2.717901e+06
  -7.754792e+05  -5.280074e+06
   1.437309e+06  -4.250809e+06
   1.448100e+06  -1.385356e+06
   4.005873e+05  -4.854426e+04
   4.141264e+05  -8.318672e+05
   1.698811e+06  -1.288190e+06
   2.496884e+06   1.445773e+05
   1.617280e+06   1.990201e+06
  -2.400036e+05   2.008012e+06
  -1.606895e+06   6.029837e+04
  -1.545186e+06  -2.070162e+06
   9.730374e+04  -2.687774e+06
   2.490877e+06  -1.343163e+06
   3.803609e+06   1.152188e+06
   2.664593e+06   3.188672e+06
  -7.700982e+03   3.469428e+06
  -1.789583e+06   2.256573e+06
  -1.770092e+06   1.060412e+06
  -1.567178e+06   7.421044e+05
  -2.662741e+06   5.382759e+05
  -3.957398e+06  -6.205651e+05
  -3.191779e+06  -2.490895e+06
  -1.223042e+05  -3.783238e+06
   2.986417e+06  -3.546535e+06
   3.872960e+06  -1.820285e+06
   2.366261e+06   5.177757e+05
   9.004028e+04   2.050507e+06
  -1.106350e+06   1.674532e+06
  -4.886566e+05  -7.845409e+04
   1.039616e+06  -1.161783e+06
   1.716470e+06  -3.487870e+05
   7.837187e+05   1.070181e+06
  -5.274848e+05   1.011719e+06
  -4.765942e+05  -3.724540e+05
   8.995978e+05  -8.015075e+05
   1.790215e+06   9.034707e+05
   8.900169e+05   3.088752e+06
  -1.180800e+06   3.359300e+06
  -2.873216e+06   1.369491e+06
  -3.251634e+06  -1.198669e+06
  -2.266762e+06  -2.657581e+06
  -4.305244e+05  -2.527022e+06
   1.196154e+06  -1.343375e+06
   1.474848e+06  -1.626045e+05
   4.551465e+05   4.638592e+04
  -3.305091e+05  -6.956254e+05
   3.497969e+05  -1.214863e+06
   1.704924e+06  -5.391750e+05
   1.864094e+06   7.688848e+05
   3.900529e+05   1.279432e+06
  -1.078701e+06   5.438718e+05
  -8.674557e+05  -4.364788e+05
   7.817185e+05  -5.629892e+05
   2.111330e+06   2.388539e+05
   1.721595e+06   1.304216e+06
  -2.110514e+05   1.920351e+06
  -2.180849e+06   1.573391e+06
  -2.588875e+06   2.493307e+05
  -1.121720e+06  -1.150218e+06
   8.247253e+05  -1.347389e+06
   1.389603e+06  -1.724853e+05
   1.613107e+05   9.640054e+05
  -1.394482e+06   6.660774e+05
  -1.599487e+06  -7.120560e+05
  -3.493624e+05  -1.543575e+06
   9.968082e+05  -9.578666e+05
   1.197371e+06   2.462067e+05
   2.709996e+05   7.228402e+05
  -7.148342e+05   6.502634e+04
  -6.672305e+05  -9.682939e+05
   5.510987e+05  -1.302968e+06
   1.861365e+06  -4.718955e+05
   1.866880e+06   9.908964e+05
   3.442651e+05   1.916563e+06
  -1.327234e+06   1.518261e+06
  -1.600244e+06   2.037436e+05
  -4.817850e+05  -8.059008e+05
   6.105984e+05  -7.564383e+05
   6.131848e+05  -5.426064e+04
  -1.074857e+05   3.887946e+05
  -5.126039e+05   2.250384e+05
  -1.847348e+05  -1.022967e+05
   3.999760e+05  -6.232794e+03
   5.182365e+05   5.812489e+05
  -1.574997e+05   1.103913e+06
  -1.276941e+06   8.372287e+05
  -1.929790e+06  -3.896648e+05
  -1.344263e+06  -1.807523e+06
   2.222553e+05  -2.254105e+06
   1.527687e+06  -1.331497e+06
   1.612070e+06   1.152900e+05
   8.299051e+05   8.900549e+05
   2.765258e+05   6.929420e+05
   3.811298e+05   2.404843e+05
   5.365793e+05   2.575369e+05
   8.451221e+04   6.739170e+05
  -8.061116e+05   8.452218e+05
  -1.366094e+06   3.150975e+05
  -1.002814e+06  -7.003017e+05
   2.336411e+05  -1.404052e+06
   1.621861e+06  -1.012399e+06
   2.104063e+06   4.623178e+05
   1.065649e+06   1.958878e+06
  -9.147851e+05   2.200973e+06
  -2.349380e+06   9.780983e+05
  -2.213056e+06  -5.948199e+05
  -9.364008e+05  -1.269965e+06
   1.856105e+05  -9.377991e+05
   4.171654e+05  -5.031537e+05
   1.394259e+05  -6.687324e+05
   1.216644e+05  -1.161132e+06
   6.093808e+05  -1.165739e+06
   1.179268e+06  -2.845164e+05
   1.222910e+06   1.012959e+06
   4.968901e+05   1.763492e+06
  -5.937294e+05   1.327646e+06
  -1.201028e+06  -5.094038e+03
  -7.631527e+05  -1.183335e+06
   3.413373e+05  -1.301944e+06
   1.061343e+06  -4.175681e+05
   7.651816e+05   5.963951e+05
  -7.194939e+04   9.816334e+05
  -4.582631e+05   7.477278e+05
  -7.019715e+04   4.127143e+05
   3.867651e+05   3.216191e+05
   4.544546e+04   3.581889e+05
  -1.053589e+06   1.997170e+05
  -1.893566e+06  -3.038234e+05
  -1.500208e+06  -9.574047e+05
   7.429479e+03  -1.321501e+06
   1.445326e+06  -1.051612e+06
   1.698710e+06  -2.708123e+05
   7.968996e+05   4.305197e+05
  -2.236354e+05   5.145641e+05
  -4.712909e+05   4.767985e+04
  -2.330153e+04  -3.632442e+05
   4.221890e+05  -2.248494e+05
   4.397653e+05   3.196211e+05
   1.994257e+05   6.690214e+05
   5.931887e+04   4.363924e+05
   1.392969e+05  -1.045352e+05
   2.924403e+05  -2.839967e+05
   2.608324e+05   2.167020e+05
  -1.552004e+05   9.184536e+05
  -8.387025e+05   9.795093e+05
  -1.226940e+06   1.498488e+05
  -7.537737e+05  -8.421251e+05
   3.821420e+05  -1.030711e+06
   1.141218e+06  -2.878529e+05
   6.697543e+05   5.435795e+05
  -6.527035e+05   6.056112e+05
  -1.493205e+06  -9.184152e+04
  -9.652338e+05  -8.189517e+05
   4.426315e+05  -9.482927e+05
   1.420586e+06  -4.656212e+05
   1.176413e+06   1.794859e+05
   1.307301e+05   4.912639e+05
  -6.091372e+05   2.585132e+05
  -3.514952e+05  -2.650745e+05
   5.526831e+05  -4.652539e+05
   1.088984e+06   9.851588e+04
   5.923359e+05   1.100756e+06
  -5.780846e+05   1.559508e+06
  -1.389433e+06   7.941638e+05
  -1.158620e+06  -7.210459e+05
  -1.703343e+05  -1.673459e+06
   7.063499e+05  -1.211245e+06
   8.723835e+05   1.613189e+05
   4.068381e+05   1.120663e+06
  -2.020145e+05   9.210319e+05
  -5.243250e+05   8.388533e+04
  -4.413591e+05  -3.656389e+05
  -1.612028e+05  -1.416375e+05
  -4.392867e+04   9.546251e+04
  -2.468357e+05  -2.572982e+05
  -4.639083e+05  -8.967381e+05
  -1.823652e+05  -1.019656e+06
   6.547533e+05  -3.768327e+05
   1.373875e+06   4.465419e+05
   1.200510e+06   7.989987e+05
   1.710077e+05   6.510998e+05
  -8.082358e+05   3.756402e+05
  -9.260291e+05   1.639691e+05
  -3.321336e+05  -3.892887e+04
   1.403195e+05  -2.051037e+05
   2.783013e+04  -2.063198e+05
  -2.528938e+05  -1.064048e+05
  -4.123160e+04  -1.212059e+05
   6.264383e+05  -2.007276e+05
   9.706525e+05   1.889243e+04
   3.847916e+05   6.307139e+05
  -7.947473e+05   1.076332e+06
  -1.572934e+06   6.942572e+05
  -1.293756e+06  -4.026563e+05
  -2.430875e+05  -1.308922e+06
   7.158278e+05  -1.276667e+06
   9.733711e+05  -4.897530e+05
   6.051168e+05   2.262551e+05
   1.191373e+05   3.300676e+05
  -6.773501e+04   4.770933e+04
   7.958744e+04  -2.437697e+04
   2.850324e+05   3.461606e+05
   2.295590e+05   7.581570e+05
  -1.696987e+05   6.280938e+05
  -6.288008e+05  -1.225532e+05
  -6.735188e+05  -8.879609e+05
  -9.731392e+04  -9.494268e+05
   6.966554e+05  -2.160648e+05
   9.503434e+05   6.769176e+05
   3.171919e+05   1.008982e+06
  -6.601344e+05   6.224536e+05
  -1.035480e+06  -7.030876e+04
  -4.959118e+05  -5.626455e+05
   2.605360e+05  -6.258352e+05
   3.478100e+05  -3.477459e+05
  -2.318763e+05  -1.974480e+04
  -6.047350e+05   3.138241e+04
  -1.354590e+05  -2.833609e+05
   7.722341e+05  -6.297091e+05
   1.176897e+06  -5.091630e+05
   7.111886e+05   1.557351e+05
  -8.963738e+04   8.064345e+05
  -5.095639e+05   8.008621e+05
  -3.862782e+05   1.548034e+05
  -4.288471e+04  -4.433634e+05
   2.200108e+05  -4.008251e+05
   3.199478e+05   1.418599e+05
   2.341580e+05   5.370126e+05
  -4.405888e+04   3.924521e+05
  -3.603191e+05  -4.363390e+04
  -4.462024e+05  -2.575184e+05
  -2.302309e+05  -8.830466e+04
   3.601234e+04   1.334345e+05
   8.936482e+04   3.526499e+04
  -1.045533e+03  -3.203090e+05
   4.512012e+04  -4.934028e+05
   2.850634e+05  -1.924886e+05
   4.127138e+05   3.469983e+05
   1.385241e+05   5.898384e+05
  -3.780308e+05   2.867763e+05
  -6.110091e+05  -2.577264e+05
  -2.309072e+05  -5.311930e+05
   4.710899e+05  -3.413109e+05
   8.164649e+05   6.816088e+04
   4.443910e+05   3.500236e+05
  -2.682168e+05   3.704028e+05
  -5.873885e+05   2.113844e+05
  -2.302351e+05   2.246936e+04
   3.182119e+05  -5.297149e+04
   3.713629e+05   6.536552e+04
  -1.637478e+05   2.650562e+05
  -6.944773e+05   2.401296e+05
