
 $NMID
 id='ANONYMOUS ', fmtdat='(2E16.6)'
 volume=1.0
 tramp=1.0
 $END
   7.201431e+06  -2.393244e+05
   5.143975e+06   3.036477e+06
   3.821522e+05   4.591923e+06
  -3.044846e+06   3.436149e+06
  -2.847755e+06   6.028418e+05
  -3.199540e+05  -1.389254e+06
   1.589296e+06  -8.733537e+05
   1.338223e+06   1.186491e+06
  -2.513385e+05   2.252509e+06
  -1.427585e+06   1.077919e+06
  -1.260736e+06  -9.721859e+05
  -1.600774e+05  -1.630614e+06
   7.475349e+05  -3.093700e+05
   6.108922e+05   1.413246e+06
  -4.232947e+05   1.670577e+06
  -1.294824e+06   2.371074e+05
  -1.022835e+06  -1.454998e+06
   2.565983e+05  -1.899654e+06
   1.385155e+06  -9.147757e+05
   1.407914e+06   4.189317e+05
   5.580019e+05   9.881640e+05
  -1.032363e+05   7.057389e+05
   9.113461e+04   3.751554e+05
   7.133862e+05   6.401692e+05
   7.500290e+05   1.245610e+06
  -2.682827e+05   1.397187e+06
  -1.654653e+06   7.098261e+05
  -2.128185e+06  -3.655238e+05
  -1.116338e+06  -1.016690e+06
   5.088766e+05  -8.182220e+05
   1.210325e+06  -2.836427e+04
   4.047450e+05   6.665323e+05
  -9.082392e+05   6.588936e+05
  -1.312648e+06  -1.080565e+05
  -5.506044e+05  -1.002784e+06
   3.809033e+05  -1.182018e+06
   5.590200e+05  -4.417353e+05
   1.042305e+05   4.486324e+05
  -2.502602e+05   5.094832e+05
  -1.165206e+05  -3.083301e+05
   2.985628e+05  -9.977408e+05
   6.112530e+05  -6.666186e+05
   5.755260e+05   3.680689e+05
   1.345540e+05   9.314524e+05
  -4.658922e+05   3.770653e+05
  -6.558496e+05  -6.740333e+05
  -3.013606e+04  -1.073362e+06
   1.016428e+06  -4.037872e+05
   1.462082e+06   6.738073e+05
   7.204903e+05   1.199487e+06
  -6.166289e+05   8.272801e+05
  -1.336525e+06  -2.694888e+03
  -8.658759e+05  -5.815362e+05
   1.974376e+05  -5.361180e+05
   7.949194e+05  -5.785485e+04
   4.867311e+05   3.315839e+05
  -2.181738e+05   2.632002e+05
  -4.938666e+05  -1.469147e+05
  -7.384488e+04  -4.319317e+05
   4.985639e+05  -2.633438e+05
   4.876201e+05   2.029897e+05
  -1.819961e+05   4.801604e+05
  -7.794147e+05   2.279041e+05
  -5.545600e+05  -4.197724e+05
   4.050417e+05  -9.485681e+05
   1.252070e+06  -8.723395e+05
   1.297321e+06  -1.404405e+05
   6.758237e+05   7.781066e+05
   4.631486e+04   1.264825e+06
  -1.859758e+05   1.103434e+06
  -1.797897e+05   6.504724e+05
  -2.890048e+05   3.834826e+05
  -5.984058e+05   3.316074e+05
  -8.669296e+05   1.141335e+05
  -8.007775e+05  -4.382326e+05
  -3.241348e+05  -9.124304e+05
   3.279590e+05  -7.457616e+05
   7.245731e+05   4.940306e+04
   5.416395e+05   7.993411e+05
  -1.261926e+05   8.528104e+05
  -7.686498e+05   2.248066e+05
  -8.829385e+05  -4.997004e+05
  -4.433705e+05  -7.952945e+05
   9.679323e+04  -6.324632e+05
   3.081015e+05  -3.545598e+05
   2.428033e+05  -2.563521e+05
   3.168744e+05  -3.153067e+05
   7.367284e+05  -2.673388e+05
   1.145803e+06   9.881633e+04
   9.582117e+05   6.939688e+05
   5.725482e+04   1.141824e+06
  -9.451044e+05   1.069360e+06
  -1.253741e+06   4.501545e+05
  -6.895425e+05  -3.109776e+05
   1.366893e+05  -6.765583e+05
   4.666511e+05  -4.382815e+05
   1.356559e+05   8.092072e+04
  -3.665864e+05   3.283163e+05
  -4.886270e+05   8.317550e+04
  -1.630493e+05  -3.045830e+05
   2.163978e+05  -3.162494e+05
   2.425527e+05   9.585039e+04
  -1.242920e+05   3.929614e+05
  -5.388828e+05   6.721527e+04
  -5.644814e+05  -7.027584e+05
  -4.282837e+04  -1.166950e+06
   7.257151e+05  -8.003015e+05
   1.172828e+06   1.303716e+05
   9.352586e+05   8.586355e+05
   2.064903e+05   8.952698e+05
  -4.151736e+05   4.291224e+05
  -4.881988e+05   1.362621e+04
  -1.409676e+05  -1.601010e+04
   1.068974e+05   2.111018e+05
  -7.035753e+04   3.356422e+05
  -4.517658e+05   1.617752e+05
  -5.403508e+05  -1.690555e+05
  -1.572178e+05  -3.427370e+05
   3.135238e+05  -1.934660e+05
   3.279933e+05   1.233845e+05
  -1.943471e+05   2.704033e+05
  -7.298650e+05   5.021823e+04
  -6.808081e+05  -3.942917e+05
  -1.444051e+04  -6.916264e+05
   6.869447e+05  -5.683157e+05
   8.175117e+05  -1.035183e+05
   3.395990e+05   3.215102e+05
  -2.295762e+05   3.609940e+05
  -3.644576e+05   3.855968e+04
  -1.496474e+04  -2.634948e+05
   4.166270e+05  -1.942652e+05
   5.010782e+05   1.859315e+05
   1.702767e+05   4.693853e+05
  -2.564528e+05   3.595284e+05
  -3.898814e+05   1.070016e+03
  -1.420705e+05  -1.991291e+05
   1.837703e+05  -3.562279e+04
   1.923275e+05   2.854804e+05
  -1.830341e+05   3.906181e+05
  -5.784704e+05   1.250404e+05
  -5.642278e+05  -3.156239e+05
  -1.064060e+05  -5.807556e+05
   3.853796e+05  -4.683504e+05
   4.846854e+05  -8.773636e+04
   1.757324e+05   2.366413e+05
  -1.742890e+05   2.529420e+05
  -2.270786e+05   1.509502e+04
  -4.266792e+02  -1.843784e+05
   2.072045e+05  -1.387259e+05
   1.614302e+05   4.568498e+04
  -6.755670e+04   9.088804e+04
  -1.902371e+05  -1.047834e+05
  -5.319610e+03  -3.269183e+05
   3.728128e+05  -2.747914e+05
   5.961195e+05   1.072460e+05
   4.140061e+05   5.533248e+05
  -6.870487e+04   7.137500e+05
  -4.824078e+05   4.629504e+05
  -5.496114e+05   2.610600e+03
  -3.313776e+05  -3.209286e+05
  -1.095442e+05  -3.251656e+05
  -6.135538e+04  -1.426134e+05
  -9.722713e+04  -5.379812e+04
  -1.621849e+04  -1.625380e+05
   2.259764e+05  -2.746554e+05
   4.355944e+05  -1.373780e+05
   3.629602e+05   2.273432e+05
  -3.613741e+04   4.937270e+05
  -5.081687e+05   3.594013e+05
  -6.791025e+05  -1.284998e+05
  -3.693886e+05  -5.965573e+05
   2.279893e+05  -6.824645e+05
   6.898396e+05  -3.462766e+05
   7.174252e+05   1.242910e+05
   3.748129e+05   3.918251e+05
  -1.219018e+04   3.616918e+05
  -1.779679e+05   2.214905e+05
  -1.325602e+05   2.010850e+05
  -8.220132e+04   3.069388e+05
  -1.746840e+05   3.216882e+05
  -3.391630e+05   7.505982e+04
  -3.679771e+05  -3.216920e+05
  -1.476623e+05  -5.539309e+05
   1.936163e+05  -4.146687e+05
   3.809790e+05  -1.064043e+04
   2.546660e+05   3.419812e+05
  -6.248283e+04   4.016429e+05
  -2.802951e+05   1.823243e+05
  -2.324125e+05  -1.060505e+05
  -3.289373e+04  -2.613799e+05
   7.284978e+04  -2.429458e+05
  -6.438185e+03  -1.571309e+05
  -1.068234e+05  -1.156733e+05
  -5.201537e+03  -1.175314e+05
   3.034609e+05  -7.115235e+04
   5.553138e+05   7.981214e+04
   4.671476e+05   2.738499e+05
   4.131970e+04   3.793171e+05
  -3.995605e+05   3.135274e+05
  -5.116613e+05   1.161827e+05
  -2.649083e+05  -7.657403e+04
   4.675954e+04  -1.332356e+05
   1.312098e+05  -3.838406e+04
  -1.126174e+04   7.808264e+04
  -1.508856e+05   5.833175e+04
  -1.292732e+05  -1.018835e+05
  -1.756667e+04  -2.211716e+05
   2.278843e+04  -1.391792e+05
  -4.827109e+04   6.182627e+04
  -1.240987e+05   1.254027e+05
  -8.899930e+04  -6.187978e+04
   7.044459e+04  -3.001745e+05
   2.597467e+05  -2.964495e+05
   3.316584e+05  -1.711905e+04
   1.832117e+05   2.651043e+05
  -1.206874e+05   2.804680e+05
  -3.271598e+05   4.591682e+04
  -2.010689e+05  -1.852156e+05
   1.937633e+05  -1.971600e+05
   4.865232e+05   6.219789e+03
   3.593303e+05   2.459736e+05
  -9.698417e+04   3.328558e+05
  -4.577742e+05   2.062501e+05
  -4.086870e+05  -2.494814e+04
  -6.331674e+04  -1.648720e+05
   1.864345e+05  -1.019421e+05
   9.621202e+04   6.963564e+04
  -1.945767e+05   1.234705e+05
  -3.369896e+05  -6.640971e+04
  -1.425018e+05  -3.640318e+05
   2.342313e+05  -4.705194e+05
   4.625114e+05  -2.139353e+05
   3.596020e+05   2.489835e+05
   4.061546e+04   5.394332e+05
  -2.289379e+05   4.039928e+05
  -2.841575e+05  -2.631626e+04
  -1.546663e+05  -3.526558e+05
   2.971688e+04  -3.129820e+05
   1.553247e+05  -4.133230e+04
   1.660213e+05   1.238063e+05
   8.089002e+04   5.548707e+04
   2.954880e+03  -3.975389e+04
   3.452114e+04   6.097258e+04
   1.279504e+05   2.769093e+05
   9.084077e+04   3.317261e+05
  -1.673226e+05   1.247477e+05
  -4.404934e+05  -1.481002e+05
  -4.125701e+05  -2.584704e+05
  -5.610706e+04  -1.996975e+05
   2.880751e+05  -1.115804e+05
   3.058967e+05  -5.961699e+04
   7.976307e+04  -4.804971e+03
  -5.748257e+04   6.097297e+04
   2.546806e+04   8.366505e+04
   1.173425e+05   5.604249e+04
  -2.414473e+03   4.050153e+04
  -2.400044e+05   4.405804e+04
  -3.014994e+05  -2.449322e+04
  -6.073477e+04  -1.948260e+05
   2.954761e+05  -3.099807e+05
   4.758277e+05  -1.785625e+05
   3.571496e+05   1.589150e+05
   5.031927e+04   4.214178e+05
  -2.260991e+05   3.839735e+05
  -3.098033e+05   1.202357e+05
  -1.940758e+05  -9.771724e+04
  -1.848601e+04  -1.041065e+05
   5.415382e+04   8.392030e+03
  -1.338749e+04   3.286685e+04
  -1.048166e+05  -1.002982e+05
  -8.127965e+04  -2.411192e+05
   6.670685e+04  -1.885150e+05
   2.042770e+05   6.992247e+04
   1.812000e+05   3.111442e+05
  -1.982445e+04   2.957298e+05
  -2.436665e+05   2.519831e+04
  -2.800953e+05  -2.561782e+05
  -6.540262e+04  -3.189213e+05
   2.200311e+05  -1.620800e+05
   3.072638e+05   4.323284e+04
   1.300518e+05   1.572167e+05
  -8.543789e+04   1.614723e+05
  -8.324003e+04   9.875066e+04
   1.052247e+05   2.200820e+04
   1.992650e+05   1.974744e+03
   2.833692e+04   8.411634e+04
  -2.499456e+05   1.949238e+05
  -3.484014e+05   1.733196e+05
  -1.900529e+05  -3.029206e+04
   3.964274e+04  -2.400001e+05
   1.401681e+05  -2.337383e+05
   9.020564e+04  -2.121228e+04
  -9.051911e+03   1.533972e+05
  -7.970712e+04   1.057798e+05
  -1.005679e+05  -7.760800e+04
  -6.294208e+04  -1.728262e+05
   2.596557e+04  -9.602123e+04
   1.115453e+05   3.085426e+04
   1.275216e+05   6.549809e+04
   7.139339e+04   1.200410e+04
   4.764251e+03  -1.906079e+04
  -2.788423e+04   3.585392e+04
  -4.477247e+04   1.194218e+05
  -7.804031e+04   1.215351e+05
  -1.101245e+05   2.795850e+03
  -8.584525e+04  -1.491230e+05
   1.638115e+04  -1.913951e+05
   1.374589e+05  -7.064745e+04
   1.689224e+05   1.082500e+05
   5.061559e+04   1.818522e+05
  -1.434448e+05   9.725976e+04
  -2.382192e+05  -4.485890e+04
  -1.265902e+05  -1.163911e+05
   8.885905e+04  -9.082134e+04
   1.792408e+05  -3.164528e+04
   4.923695e+04   4.775147e+02
  -1.335293e+05  -1.186401e+04
  -1.286721e+05  -5.906265e+04
   8.214406e+04  -1.011178e+05
   2.659916e+05  -6.487708e+04
