
 $NMID
 id='ANONYMOUS ', fmtdat='(2E16.6)'
 volume=1.0
 tramp=1.0
 $END
   2.838896e+07  -1.287545e+06
   1.965747e+07   1.276605e+07
   6.635772e+05   1.819108e+07
  -1.197246e+07   1.235659e+07
  -1.035154e+07   1.387137e+06
  -7.613478e+05  -5.141687e+06
   5.738579e+06  -2.664844e+06
   4.458360e+06   4.490845e+06
  -1.168604e+06   7.853062e+06
  -5.252305e+06   3.644788e+06
  -4.734201e+06  -3.493893e+06
  -7.995813e+05  -5.899180e+06
   2.670249e+06  -1.344958e+06
   2.326697e+06   4.823234e+06
  -1.501359e+06   5.851465e+06
  -4.788033e+06   7.059646e+05
  -3.777818e+06  -5.479741e+06
   1.001417e+06  -7.174161e+06
   5.294322e+06  -3.635322e+06
   5.610283e+06   1.365672e+06
   2.573497e+06   3.852382e+06
  -2.018539e+05   3.179135e+06
  -5.130566e+04   1.790671e+06
   2.064762e+06   2.117914e+06
   2.625796e+06   3.939037e+06
  -5.924758e+05   4.798988e+06
  -5.596868e+06   2.894158e+06
  -7.656081e+06  -7.957275e+05
  -4.324315e+06  -3.437578e+06
   1.434898e+06  -3.133269e+06
   4.118022e+06  -5.305943e+05
   1.620186e+06   1.987846e+06
  -2.729715e+06   2.269449e+06
  -4.291884e+06  -5.369831e+04
  -2.122538e+06  -3.134434e+06
   8.777725e+05  -4.134105e+06
   1.858767e+06  -1.888848e+06
   7.698872e+05   1.377754e+06
  -5.164097e+05   2.025766e+06
  -5.280471e+05  -7.098401e+05
   7.179323e+05  -3.385853e+06
   2.055617e+06  -2.386720e+06
   2.059732e+06   1.401266e+06
   2.153919e+05   3.474153e+06
  -2.162058e+06   1.249197e+06
  -2.604498e+06  -2.805712e+06
   6.359278e+04  -4.222553e+06
   3.919617e+06  -1.589241e+06
   5.319790e+06   2.399616e+06
   2.550220e+06   4.243911e+06
  -2.152931e+06   2.895534e+06
  -4.650052e+06  -2.560778e+03
  -2.986298e+06  -2.021703e+06
   7.861888e+05  -1.866318e+06
   2.897730e+06  -1.599623e+05
   1.728138e+06   1.231479e+06
  -8.207486e+05   9.587404e+05
  -1.710165e+06  -4.867915e+05
  -1.480578e+05  -1.371409e+06
   1.715159e+06  -6.622839e+05
   1.395381e+06   8.958789e+05
  -1.025376e+06   1.643488e+06
  -2.926173e+06   6.179989e+05
  -1.987096e+06  -1.664737e+06
   1.332918e+06  -3.567929e+06
   4.301247e+06  -3.407816e+06
   4.676590e+06  -7.998223e+05
   2.701902e+06   2.670665e+06
   4.154574e+05   4.570544e+06
  -6.225125e+05   3.925734e+06
  -6.310814e+05   2.149610e+06
  -8.246894e+05   1.215842e+06
  -1.787900e+06   1.248287e+06
  -2.846454e+06   6.873105e+05
  -2.852851e+06  -1.208599e+06
  -1.359547e+06  -2.970791e+06
   8.872642e+05  -2.572038e+06
   2.390635e+06   1.894080e+04
   1.957215e+06   2.593671e+06
  -2.639501e+05   2.954474e+06
  -2.637896e+06   9.806033e+05
  -3.286801e+06  -1.552174e+06
  -1.831063e+06  -2.816562e+06
   2.295933e+05  -2.438912e+06
   1.171454e+06  -1.433267e+06
   9.697201e+05  -9.395932e+05
   1.134118e+06  -1.079896e+06
   2.551714e+06  -9.671322e+05
   4.016504e+06   2.382649e+05
   3.425109e+06   2.308860e+06
   3.443810e+05   3.955441e+06
  -3.114742e+06   3.850178e+06
  -4.253809e+06   1.799007e+06
  -2.457573e+06  -9.020310e+05
   2.909242e+05  -2.347703e+06
   1.486025e+06  -1.629372e+06
   4.819577e+05   2.309585e+05
  -1.201102e+06   1.198008e+06
  -1.690699e+06   3.595938e+05
  -6.381147e+05  -1.044049e+06
   6.686916e+05  -1.113620e+06
   7.877210e+05   3.024007e+05
  -4.467369e+05   1.276472e+06
  -1.826805e+06   1.148834e+05
  -1.875212e+06  -2.457325e+06
  -1.143478e+05  -3.921253e+06
   2.446101e+06  -2.659443e+06
   3.969468e+06   3.884985e+05
   3.242146e+06   2.791528e+06
   8.147518e+05   3.001766e+06
  -1.349313e+06   1.544048e+06
  -1.670584e+06   1.425760e+05
  -4.893431e+05  -3.130179e+04
   3.919106e+05   7.166358e+05
  -2.243750e+05   1.182615e+06
  -1.576166e+06   6.111955e+05
  -1.893526e+06  -5.488498e+05
  -5.580828e+05  -1.177714e+06
   1.064406e+06  -6.837847e+05
   1.108675e+06   3.894032e+05
  -6.623842e+05   9.055932e+05
  -2.472001e+06   2.106708e+05
  -2.330772e+06  -1.264844e+06
  -1.107261e+05  -2.332197e+06
   2.282876e+06  -2.018946e+06
   2.798364e+06  -4.619010e+05
   1.217394e+06   1.077142e+06
  -7.592466e+05   1.301422e+06
  -1.283487e+06   1.853340e+05
  -9.867185e+04  -9.252432e+05
   1.420871e+06  -7.289615e+05
   1.746756e+06   5.906276e+05
   6.180219e+05   1.591603e+06
  -8.543478e+05   1.233361e+06
  -1.321504e+06   1.679971e+04
  -4.766172e+05  -6.704302e+05
   6.526612e+05  -1.255444e+05
   7.064539e+05   9.797817e+05
  -5.826695e+05   1.387854e+06
  -1.991114e+06   5.216085e+05
  -2.004833e+06  -1.012680e+06
  -4.472437e+05  -1.999793e+06
   1.278279e+06  -1.670371e+06
   1.660772e+06  -3.596751e+05
   6.203892e+05   7.902605e+05
  -5.723074e+05   8.792257e+05
  -7.560269e+05   8.414529e+04
  -5.593962e+03  -5.987180e+05
   6.710125e+05  -4.705525e+05
   5.090171e+05   1.249586e+05
  -2.501095e+05   2.739586e+05
  -6.565580e+05  -3.767404e+05
  -3.443544e+04  -1.139926e+06
   1.266393e+06  -9.964129e+05
   2.081367e+06   2.959245e+05
   1.512983e+06   1.862415e+06
  -1.334935e+05   2.470935e+06
  -1.590542e+06   1.643164e+06
  -1.868623e+06   7.389784e+04
  -1.158175e+06  -1.025804e+06
  -4.273146e+05  -1.042337e+06
  -2.748685e+05  -4.521123e+05
  -3.843692e+05  -1.960189e+05
  -8.436179e+04  -5.924637e+05
   7.558198e+05  -9.808924e+05
   1.485157e+06  -5.214684e+05
   1.269257e+06   7.264138e+05
  -6.781120e+04   1.684515e+06
  -1.705552e+06   1.295640e+06
  -2.356441e+06  -3.549175e+05
  -1.338773e+06  -2.016847e+06
   7.269054e+05  -2.388378e+06
   2.356119e+06  -1.266298e+06
   2.474454e+06   3.591213e+05
   1.302971e+06   1.293418e+06
  -9.501363e+03   1.207436e+06
  -5.496696e+05   7.599384e+05
  -3.792352e+05   7.278985e+05
  -2.197676e+05   1.108420e+06
  -5.700799e+05   1.158874e+06
  -1.179278e+06   3.125867e+05
  -1.326012e+06  -1.057826e+06
  -5.933060e+05  -1.892176e+06
   6.056230e+05  -1.460420e+06
   1.309738e+06  -8.291989e+04
   9.155635e+05   1.160896e+06
  -1.852364e+05   1.395134e+06
  -9.674535e+05   6.336794e+05
  -8.143151e+05  -3.819382e+05
  -1.133679e+05  -9.200928e+05
   2.587245e+05  -8.368307e+05
  -3.124455e+04  -5.212631e+05
  -3.985635e+05  -3.765835e+05
  -4.293491e+04  -4.048186e+05
   1.055008e+06  -2.837842e+05
   1.954891e+06   2.087481e+05
   1.653259e+06   8.962101e+05
   1.651166e+05   1.321422e+06
  -1.370545e+06   1.143926e+06
  -1.758830e+06   4.533598e+05
  -9.094973e+05  -2.600624e+05
   1.592888e+05  -4.821002e+05
   4.558627e+05  -1.363947e+05
  -1.746339e+04   2.960336e+05
  -5.008792e+05   2.355338e+05
  -4.680458e+05  -3.311170e+05
  -1.238271e+05  -7.593442e+05
   3.232757e+04  -4.868569e+05
  -1.521828e+05   2.052533e+05
  -3.896371e+05   4.333743e+05
  -3.152482e+05  -2.068234e+05
   1.847510e+05  -1.047168e+06
   8.614031e+05  -1.070649e+06
   1.183344e+06  -1.188358e+05
   7.054870e+05   8.965325e+05
  -3.812084e+05   1.014297e+06
  -1.148488e+06   2.312219e+05
  -7.298654e+05  -6.019486e+05
   6.457684e+05  -7.047323e+05
   1.668601e+06  -3.943506e+04
   1.243159e+06   7.974418e+05
  -3.071237e+05   1.139275e+06
  -1.537860e+06   7.450279e+05
  -1.388649e+06  -4.158417e+04
  -2.302066e+05  -5.514091e+05
   6.299042e+05  -3.649201e+05
   3.486186e+05   2.375517e+05
  -6.451103e+05   4.707339e+05
  -1.181088e+06  -1.601056e+05
  -5.740025e+05  -1.230624e+06
   7.094695e+05  -1.677293e+06
   1.553313e+06  -8.322698e+05
   1.284057e+06   7.927684e+05
   2.299744e+05   1.850018e+06
  -7.242461e+05   1.415753e+06
  -9.769593e+05  -6.338474e+04
  -5.690944e+05  -1.193058e+06
   7.670711e+04  -1.067352e+06
   5.359768e+05  -1.542921e+05
   5.753908e+05   3.958259e+05
   2.690439e+05   1.702042e+05
   9.672862e+03  -1.299550e+05
   1.526408e+05   2.232885e+05
   4.924638e+05   9.426553e+05
   3.419989e+05   1.120865e+06
  -5.829737e+05   4.466447e+05
  -1.538248e+06  -4.408520e+05
  -1.441809e+06  -8.235155e+05
  -2.215848e+05  -6.849169e+05
   9.578267e+05  -4.362047e+05
   1.037876e+06  -2.475302e+05
   2.887649e+05  -1.495759e+04
  -1.809837e+05   2.222193e+05
   8.169311e+04   2.694972e+05
   3.927143e+05   1.589437e+05
   7.047034e+03   1.416737e+05
  -7.984200e+05   2.042360e+05
  -1.049655e+06  -2.990704e+04
  -2.756995e+05  -6.732589e+05
   9.495792e+05  -1.136672e+06
   1.633463e+06  -7.093958e+05
   1.292128e+06   4.814447e+05
   2.535391e+05   1.445198e+06
  -7.264992e+05   1.371304e+06
  -1.055076e+06   4.824679e+05
  -6.857655e+05  -2.929323e+05
  -9.053684e+04  -3.597116e+05
   1.707141e+05   2.638978e+03
  -4.611234e+04   9.840600e+04
  -3.661695e+05  -3.353189e+05
  -3.096800e+05  -8.186107e+05
   1.963203e+05  -6.674003e+05
   7.149512e+05   1.921331e+05
   6.933801e+05   1.031612e+06
   6.055568e+03   1.031192e+06
  -8.267573e+05   1.522579e+05
  -1.021480e+06  -8.182088e+05
  -2.947652e+05  -1.094729e+06
   7.321935e+05  -6.150668e+05
   1.082085e+06   9.314750e+04
   4.864339e+05   5.401458e+05
  -2.740225e+05   5.934312e+05
  -2.916340e+05   3.564962e+05
   3.479437e+05   4.611495e+04
   6.846121e+05  -3.117749e+04
   1.190109e+05   2.912579e+05
  -8.304792e+05   7.125819e+05
  -1.190071e+06   6.387570e+05
  -6.799457e+05  -9.220187e+04
   9.589063e+04  -8.443678e+05
   4.644918e+05  -8.371466e+05
   3.315329e+05  -1.006624e+05
   7.376575e+03   5.248544e+05
  -2.553808e+05   3.914217e+05
  -3.626830e+05  -2.321771e+05
  -2.500913e+05  -5.864639e+05
   7.096621e+04  -3.542649e+05
   3.926860e+05   7.956793e+04
   4.562430e+05   2.187164e+05
   2.472483e+05   4.091785e+04
   6.210887e+03  -8.297410e+04
  -8.586521e+04   9.811445e+04
  -1.064639e+05   4.121702e+05
  -2.148815e+05   4.596239e+05
  -3.732411e+05   6.482702e+04
  -3.507581e+05  -4.818351e+05
  -1.036126e+04  -6.664729e+05
   4.548640e+05  -2.788477e+05
   6.174012e+05   3.344799e+05
   2.172236e+05   6.140495e+05
  -4.855072e+05   3.629970e+05
  -8.439166e+05  -1.073394e+05
  -4.632759e+05  -3.809522e+05
   2.935796e+05  -3.432846e+05
   6.214756e+05  -1.569810e+05
   1.854381e+05  -8.127287e+03
  -4.446271e+05   1.387208e+01
  -4.493932e+05  -1.593296e+05
   2.475309e+05  -3.530820e+05
   8.799363e+05  -2.749703e+05
