
 $NMID
 id='ANONYMOUS ', fmtdat='(2E16.6)'
 volume=1.0
 tramp=1.0
 $END
   2.437411e+07  -2.113141e+06
   1.720117e+07   1.129858e+07
   4.879299e+05   1.610818e+07
  -1.048514e+07   1.017930e+07
  -8.711844e+06   4.233315e+05
  -3.231809e+05  -4.462808e+06
   4.859321e+06  -1.779998e+06
   3.392719e+06   3.956641e+06
  -1.288624e+06   6.238344e+06
  -4.439568e+06   2.761292e+06
  -3.935819e+06  -2.788652e+06
  -7.628281e+05  -4.716637e+06
   2.089424e+06  -1.246826e+06
   1.861655e+06   3.639156e+06
  -1.280401e+06   4.552699e+06
  -3.988255e+06   4.611463e+05
  -3.122111e+06  -4.561689e+06
   8.267075e+05  -5.986621e+06
   4.383936e+06  -3.190400e+06
   4.815937e+06   8.634853e+05
   2.542941e+06   3.122670e+06
   1.713714e+05   2.962039e+06
  -1.940629e+05   1.917355e+06
   1.143472e+06   1.761630e+06
   1.771665e+06   2.766739e+06
  -3.142652e+05   3.493151e+06
  -4.074636e+06   2.390720e+06
  -5.915230e+06  -2.884080e+05
  -3.609674e+06  -2.503399e+06
   7.741331e+05  -2.524812e+06
   2.957966e+06  -6.690991e+05
   1.264844e+06   1.210087e+06
  -1.822060e+06   1.507732e+06
  -2.967117e+06  -5.676670e+02
  -1.570767e+06  -2.133631e+06
   4.464579e+05  -3.031322e+06
   1.301190e+06  -1.651883e+06
   8.274892e+05   7.981738e+05
  -5.605740e+04   1.626773e+06
  -3.388114e+05  -2.215994e+05
   4.116062e+05  -2.399667e+06
   1.558800e+06  -1.811428e+06
   1.664893e+06   1.213136e+06
   2.026645e+03   2.985233e+06
  -2.142857e+06   1.100878e+06
  -2.404861e+06  -2.436530e+06
   5.231322e+04  -3.698817e+06
   3.272125e+06  -1.447463e+06
   4.257562e+06   1.903014e+06
   1.939221e+06   3.368303e+06
  -1.731781e+06   2.218894e+06
  -3.601646e+06  -9.638819e+04
  -2.248444e+06  -1.666853e+06
   7.369330e+05  -1.507555e+06
   2.389910e+06  -9.224502e+04
   1.389251e+06   1.064153e+06
  -6.874399e+05   8.092236e+05
  -1.310739e+06  -4.041519e+05
   5.069652e+04  -1.029831e+06
   1.447682e+06  -2.753850e+05
   9.243648e+05   1.008707e+06
  -1.137710e+06   1.396521e+06
  -2.515473e+06   3.573401e+05
  -1.621537e+06  -1.469446e+06
   9.538970e+05  -2.886707e+06
   3.211206e+06  -2.777535e+06
   3.625657e+06  -8.058637e+05
   2.276357e+06   1.958174e+06
   4.754650e+05   3.577118e+06
  -5.332455e+05   3.084005e+06
  -6.117514e+05   1.551230e+06
  -5.849441e+05   7.282592e+05
  -1.129502e+06   8.565770e+05
  -1.940838e+06   6.257264e+05
  -2.091870e+06  -7.089981e+05
  -1.092293e+06  -2.067055e+06
   5.446647e+05  -1.858215e+06
   1.689137e+06  -1.290620e+04
   1.448955e+06   1.869736e+06
  -1.325116e+05   2.204901e+06
  -1.954520e+06   8.458675e+05
  -2.598090e+06  -1.042923e+06
  -1.589675e+06  -2.145739e+06
   6.236270e+04  -2.021459e+06
   9.410867e+05  -1.266060e+06
   8.503818e+05  -7.776299e+05
   9.283643e+05  -7.993906e+05
   1.958112e+06  -7.111675e+05
   3.062487e+06   1.804696e+05
   2.611653e+06   1.739111e+06
   2.850171e+05   2.983351e+06
  -2.295814e+06   2.925574e+06
  -3.144410e+06   1.428765e+06
  -1.857794e+06  -5.852742e+05
   1.295921e+05  -1.729242e+06
   1.040806e+06  -1.260648e+06
   3.686633e+05   1.407561e+05
  -8.673144e+05   9.214436e+05
  -1.286250e+06   3.039790e+05
  -5.303151e+05  -7.829094e+05
   4.697975e+05  -8.405484e+05
   5.578436e+05   2.365972e+05
  -4.070266e+05   9.182899e+05
  -1.417307e+06  -4.737164e+04
  -1.329400e+06  -1.976801e+06
   7.966939e+04  -2.937944e+06
   1.933860e+06  -1.868787e+06
   2.939276e+06   3.902124e+05
   2.349075e+06   2.085723e+06
   5.892397e+05   2.207205e+06
  -9.844270e+05   1.158355e+06
  -1.237458e+06   1.319747e+05
  -3.685263e+05  -1.994194e+04
   3.001617e+05   5.367547e+05
  -1.685961e+05   9.134930e+05
  -1.212092e+06   4.860008e+05
  -1.454948e+06  -4.210042e+05
  -4.239549e+05  -9.095552e+05
   8.035032e+05  -5.183777e+05
   8.128245e+05   2.908190e+05
  -5.181281e+05   6.465274e+05
  -1.832098e+06   1.151281e+05
  -1.695470e+06  -9.509230e+05
  -5.610074e+04  -1.716243e+06
   1.702509e+06  -1.497699e+06
   2.095894e+06  -3.559001e+05
   9.327208e+05   8.153243e+05
  -5.645665e+05   1.014255e+06
  -9.924651e+05   1.654315e+05
  -1.039231e+05  -7.065025e+05
   1.066170e+06  -5.683845e+05
   1.320156e+06   4.444303e+05
   4.528090e+05   1.203134e+06
  -6.619206e+05   9.148635e+05
  -9.955880e+05  -1.045222e+04
  -3.449442e+05  -5.173998e+05
   5.039383e+05  -1.001368e+05
   5.458523e+05   7.304744e+05
  -4.170970e+05   1.048198e+06
  -1.485019e+06   4.162957e+05
  -1.517964e+06  -7.382986e+05
  -3.538517e+05  -1.504137e+06
   9.584815e+05  -1.269776e+06
   1.254968e+06  -2.743011e+05
   4.654639e+05   5.989681e+05
  -4.301190e+05   6.615660e+05
  -5.522719e+05   6.874903e+04
   9.553956e+03  -4.238279e+05
   4.834587e+05  -3.235740e+05
   3.348746e+05   9.291934e+04
  -2.186881e+05   1.724460e+05
  -4.885216e+05  -3.144796e+05
  -1.113465e+04  -8.663837e+05
   9.542612e+05  -7.517724e+05
   1.565904e+06   2.121461e+05
   1.151294e+06   1.389033e+06
  -8.365502e+04   1.850294e+06
  -1.184532e+06   1.223985e+06
  -1.386359e+06   4.681457e+04
  -8.406722e+05  -7.525786e+05
  -3.055264e+05  -7.365757e+05
  -2.255110e+05  -3.027199e+05
  -3.207910e+05  -1.479647e+05
  -7.470794e+04  -4.621069e+05
   5.731261e+05  -7.366462e+05
   1.108714e+06  -3.809628e+05
   9.314765e+05   5.382982e+05
  -6.223196e+04   1.242091e+06
  -1.272554e+06   9.628004e+05
  -1.760290e+06  -2.585510e+05
  -1.004747e+06  -1.511837e+06
   5.502974e+05  -1.804077e+06
   1.780016e+06  -9.548904e+05
   1.854466e+06   2.795500e+05
   9.531445e+05   9.715529e+05
  -2.481523e+04   8.816428e+05
  -3.935952e+05   5.414313e+05
  -2.408302e+05   5.422705e+05
  -1.322305e+05   8.519344e+05
  -4.212091e+05   8.931900e+05
  -8.929044e+05   2.521900e+05
  -1.007581e+06  -7.796347e+05
  -4.620510e+05  -1.412361e+06
   4.395554e+05  -1.099131e+06
   9.803259e+05  -6.689693e+04
   6.914559e+05   8.765043e+05
  -1.462785e+05   1.054342e+06
  -7.473502e+05   4.663650e+05
  -6.243124e+05  -3.128508e+05
  -7.356110e+04  -7.134277e+05
   2.174785e+05  -6.327609e+05
  -1.274238e+04  -3.824284e+05
  -3.049553e+05  -2.724698e+05
  -3.719432e+04  -2.998683e+05
   8.003659e+05  -2.183886e+05
   1.482660e+06   1.456809e+05
   1.248862e+06   6.699540e+05
   1.196256e+05   1.007189e+06
  -1.038501e+06   8.791441e+05
  -1.326886e+06   3.422425e+05
  -6.837137e+05  -2.133876e+05
   1.227609e+05  -3.760765e+05
   3.497366e+05  -9.722342e+04
  -9.390724e+02   2.349066e+05
  -3.662333e+05   1.826257e+05
  -3.564523e+05  -2.442508e+05
  -1.144346e+05  -5.596242e+05
   4.447396e+03  -3.602506e+05
  -1.139512e+05   1.419837e+05
  -2.787312e+05   3.087172e+05
  -2.334864e+05  -1.557493e+05
   1.246844e+05  -7.774070e+05
   6.374972e+05  -8.114292e+05
   9.028182e+05  -1.142177e+05
   5.554959e+05   6.607683e+05
  -2.739567e+05   7.793194e+05
  -8.668930e+05   2.016715e+05
  -5.530942e+05  -4.396169e+05
   4.846726e+05  -5.307005e+05
   1.245406e+06  -2.953138e+04
   9.150054e+05   5.995609e+05
  -2.433705e+05   8.456253e+05
  -1.148574e+06   5.430257e+05
  -1.027826e+06  -3.825689e+04
  -1.662944e+05  -4.094852e+05
   4.732069e+05  -2.702912e+05
   2.700457e+05   1.790189e+05
  -4.688291e+05   3.640029e+05
  -8.841594e+05  -9.671936e+04
  -4.542105e+05  -9.061884e+05
   4.971390e+05  -1.264197e+06
   1.144559e+06  -6.458103e+05
   9.671901e+05   5.761906e+05
   1.884617e+05   1.378104e+06
  -5.326868e+05   1.055536e+06
  -7.305913e+05  -5.159940e+04
  -4.236614e+05  -8.920559e+05
   6.550896e+04  -7.936957e+05
   4.051187e+05  -1.142436e+05
   4.218518e+05   2.913542e+05
   1.897703e+05   1.238974e+05
   1.166547e+04  -9.486127e+04
   1.349304e+05   1.697014e+05
   3.832262e+05   7.029557e+05
   2.498527e+05   8.363481e+05
  -4.495095e+05   3.400543e+05
  -1.151410e+06  -3.175566e+05
  -1.071079e+06  -6.077527e+05
  -1.699382e+05  -5.137351e+05
   7.006701e+05  -3.323899e+05
   7.707139e+05  -1.877644e+05
   2.275568e+05  -8.702348e+03
  -1.285237e+05   1.680908e+05
   4.737417e+04   1.974359e+05
   2.777185e+05   1.108874e+05
   1.201473e+04   1.031255e+05
  -5.775410e+05   1.615890e+05
  -7.859106e+05  -7.342376e+03
  -2.353099e+05  -4.978396e+05
   6.827158e+05  -8.649025e+05
   1.222388e+06  -5.601363e+05
   9.876700e+05   3.344005e+05
   2.089600e+05   1.074427e+06
  -5.327646e+05   1.038627e+06
  -7.819119e+05   3.813256e+05
  -5.112210e+05  -2.043790e+05
  -7.774868e+04  -2.664447e+05
   1.124485e+05  -5.141415e+03
  -4.088992e+04   6.511896e+04
  -2.712990e+05  -2.533520e+05
  -2.339338e+05  -6.105666e+05
   1.359015e+05  -5.035664e+05
   5.310919e+05   1.268589e+05
   5.357128e+05   7.521877e+05
   3.200278e+04   7.687659e+05
  -6.045041e+05   1.343634e+05
  -7.740981e+05  -5.870790e+05
  -2.416027e+05  -8.141301e+05
   5.361573e+05  -4.776936e+05
   8.162151e+05   5.233235e+04
   3.800149e+05   4.063097e+05
  -1.962255e+05   4.596795e+05
  -2.249066e+05   2.757549e+05
   2.468713e+05   2.933991e+04
   5.077764e+05  -3.161820e+04
   9.710561e+04   2.179879e+05
  -6.141611e+05   5.400267e+05
  -8.969644e+05   4.835649e+05
  -5.250953e+05  -6.858932e+04
   6.022467e+04  -6.375382e+05
   3.484628e+05  -6.393489e+05
   2.573344e+05  -9.138618e+04
   1.653219e+04   3.854788e+05
  -1.826115e+05   3.018110e+05
  -2.700688e+05  -1.585554e+05
  -1.951122e+05  -4.350248e+05
   4.335661e+04  -2.754701e+05
   2.937870e+05   4.996666e+04
   3.498721e+05   1.655822e+05
   1.874369e+05   3.515289e+04
  -4.502481e+03  -6.959551e+04
  -6.828459e+04   5.561609e+04
  -6.094285e+04   2.977754e+05
  -1.294462e+05   3.529101e+05
  -2.655965e+05   7.189073e+04
  -2.795225e+05  -3.386153e+05
  -3.528663e+04  -4.910977e+05
   3.296563e+05  -2.178099e+05
   4.711931e+05   2.334482e+05
   1.740429e+05   4.504685e+05
  -3.620628e+05   2.795457e+05
  -6.378698e+05  -6.363593e+04
  -3.542250e+05  -2.784227e+05
   2.132913e+05  -2.689086e+05
   4.633717e+05  -1.361812e+05
   1.474128e+05  -1.248286e+04
  -3.171328e+05   1.125863e+04
  -3.294877e+05  -1.021772e+05
   1.725463e+05  -2.563324e+05
   6.375408e+05  -2.116951e+05
