
 $NMID
 id='ANONYMOUS ', fmtdat='(2E16.6)'
 volume=1.0
 tramp=1.0
 $END
   2.617285e+07  -9.725984e+05
   1.809559e+07   1.221648e+07
   3.261067e+05   1.698739e+07
  -1.140591e+07   1.111910e+07
  -9.637386e+06   8.611304e+05
  -5.131962e+05  -4.818305e+06
   5.405821e+06  -2.202256e+06
   3.929346e+06   4.322738e+06
  -1.372647e+06   7.137476e+06
  -4.951896e+06   3.161037e+06
  -4.247865e+06  -3.276480e+06
  -6.044981e+05  -5.360234e+06
   2.427222e+06  -1.187529e+06
   1.961693e+06   4.387806e+06
  -1.552680e+06   5.256248e+06
  -4.426064e+06   5.129259e+05
  -3.347804e+06  -5.108544e+06
   1.058601e+06  -6.563284e+06
   4.899155e+06  -3.269395e+06
   5.121791e+06   1.271474e+06
   2.381736e+06   3.511624e+06
  -1.177003e+05   2.956544e+06
  -7.304530e+04   1.776097e+06
   1.693993e+06   2.052484e+06
   2.154632e+06   3.576614e+06
  -6.539610e+05   4.233512e+06
  -5.040432e+06   2.464893e+06
  -6.840214e+06  -8.458561e+05
  -3.852284e+06  -3.150582e+06
   1.285239e+06  -2.771868e+06
   3.639522e+06  -4.010001e+05
   1.368494e+06   1.750329e+06
  -2.476537e+06   1.865678e+06
  -3.763818e+06  -2.004268e+05
  -1.766833e+06  -2.808235e+06
   8.640405e+05  -3.619873e+06
   1.663562e+06  -1.682010e+06
   6.814928e+05   1.161740e+06
  -4.229944e+05   1.786016e+06
  -3.972326e+05  -5.720784e+05
   7.289031e+05  -2.953994e+06
   1.913962e+06  -2.081196e+06
   1.850492e+06   1.349076e+06
   8.456717e+04   3.243324e+06
  -2.101299e+06   1.160849e+06
  -2.412904e+06  -2.632566e+06
   1.230556e+05  -3.930971e+06
   3.620715e+06  -1.415469e+06
   4.777459e+06   2.308807e+06
   2.182027e+06   3.926068e+06
  -2.045106e+06   2.550586e+06
  -4.204842e+06  -1.607772e+05
  -2.625747e+06  -1.941844e+06
   7.953239e+05  -1.689327e+06
   2.662112e+06  -6.701916e+04
   1.545615e+06   1.185079e+06
  -7.777039e+05   8.643746e+05
  -1.525971e+06  -4.983503e+05
  -4.057790e+04  -1.251046e+06
   1.627767e+06  -4.938947e+05
   1.224307e+06   9.570091e+05
  -1.053724e+06   1.530971e+06
  -2.739554e+06   4.725164e+05
  -1.790628e+06  -1.595864e+06
   1.260581e+06  -3.204287e+06
   3.918307e+06  -2.977785e+06
   4.215310e+06  -6.454103e+05
   2.399504e+06   2.428244e+06
   2.941324e+05   4.122320e+06
  -6.796850e+05   3.537612e+06
  -6.741029e+05   1.900783e+06
  -7.835728e+05   1.006910e+06
  -1.586747e+06   1.017036e+06
  -2.502781e+06   5.375764e+05
  -2.481090e+06  -1.120346e+06
  -1.125260e+06  -2.648935e+06
   8.513435e+05  -2.240371e+06
   2.108500e+06   9.836809e+04
   1.655978e+06   2.365550e+06
  -3.127213e+05   2.625082e+06
  -2.371725e+06   8.226792e+05
  -2.915011e+06  -1.440591e+06
  -1.615399e+06  -2.558157e+06
   2.256709e+05  -2.213903e+06
   1.084143e+06  -1.307139e+06
   9.197168e+05  -8.472082e+05
   1.070195e+06  -9.393029e+05
   2.328010e+06  -7.901143e+05
   3.602395e+06   3.291527e+05
   3.007844e+06   2.167390e+06
   1.965276e+05   3.552723e+06
  -2.889760e+06   3.357100e+06
  -3.839589e+06   1.495678e+06
  -2.164175e+06  -8.573463e+05
   3.129419e+05  -2.073182e+06
   1.356093e+06  -1.412169e+06
   4.219284e+05   2.143831e+05
  -1.101882e+06   1.037658e+06
  -1.526635e+06   2.790539e+05
  -5.518166e+05  -9.494090e+05
   6.265790e+05  -9.721906e+05
   6.888789e+05   3.048760e+05
  -4.665102e+05   1.128445e+06
  -1.671531e+06   1.478036e+04
  -1.598748e+06  -2.304773e+06
   6.585225e+04  -3.532991e+06
   2.314816e+06  -2.282406e+06
   3.541378e+06   5.013667e+05
   2.790710e+06   2.605532e+06
   6.253302e+05   2.701847e+06
  -1.246525e+06   1.336771e+06
  -1.491161e+06   8.056821e+04
  -4.362467e+05  -4.205418e+04
   3.304336e+05   6.536172e+05
  -2.351605e+05   1.060296e+06
  -1.436268e+06   5.094135e+05
  -1.689292e+06  -5.504080e+05
  -4.660014e+05  -1.080422e+06
   9.779019e+05  -5.815020e+05
   9.770953e+05   3.871192e+05
  -6.312590e+05   7.867465e+05
  -2.220312e+06   9.935465e+04
  -2.034365e+06  -1.211379e+06
  -1.582888e+04  -2.086120e+06
   2.105325e+06  -1.731354e+06
   2.516804e+06  -3.288570e+05
   1.061730e+06   1.001958e+06
  -7.148757e+05   1.151096e+06
  -1.159835e+06   1.359555e+05
  -6.864401e+04  -8.321940e+05
   1.293122e+06  -6.146328e+05
   1.548607e+06   5.829001e+05
   5.010253e+05   1.448602e+06
  -8.118616e+05   1.076913e+06
  -1.188461e+06  -3.364117e+04
  -4.031719e+05  -6.228573e+05
   5.940677e+05  -9.690538e+04
   6.087207e+05   8.964845e+05
  -5.568095e+05   1.226137e+06
  -1.793472e+06   4.133835e+05
  -1.765591e+06  -9.600274e+05
  -3.444899e+05  -1.802953e+06
   1.193835e+06  -1.460119e+06
   1.499304e+06  -2.718318e+05
   5.301534e+05   7.295756e+05
  -5.413711e+05   7.700436e+05
  -6.755905e+05   4.998326e+04
   2.087137e+04  -5.332049e+05
   6.148273e+05  -3.912521e+05
   4.401710e+05   1.337800e+05
  -2.446803e+05   2.341553e+05
  -5.800963e+05  -3.652629e+05
   5.150104e+03  -1.026472e+06
   1.163900e+06  -8.559936e+05
   1.854410e+06   3.242731e+05
   1.301456e+06   1.708592e+06
  -1.909889e+05   2.204189e+06
  -1.473033e+06   1.417790e+06
  -1.671127e+06   3.895615e+03
  -9.935759e+05  -9.524010e+05
  -3.388433e+05  -9.343641e+05
  -2.323156e+05  -3.989684e+05
  -3.480056e+05  -1.817089e+05
  -6.448464e+04  -5.352663e+05
   7.063831e+05  -8.561621e+05
   1.344058e+06  -4.195052e+05
   1.107506e+06   6.880428e+05
  -1.169708e+05   1.500900e+06
  -1.564618e+06   1.105326e+06
  -2.095574e+06  -3.875852e+05
  -1.137417e+06  -1.846353e+06
   7.233995e+05  -2.121047e+06
   2.151317e+06  -1.064989e+06
   2.205261e+06   4.009393e+05
   1.119639e+06   1.202243e+06
  -5.447065e+04   1.076397e+06
  -5.141551e+05   6.522787e+05
  -3.496202e+05   6.321491e+05
  -2.182099e+05   9.862577e+05
  -5.404578e+05   1.025725e+06
  -1.065049e+06   2.500675e+05
  -1.156346e+06  -9.816935e+05
  -4.769887e+05  -1.707687e+06
   5.823958e+05  -1.287764e+06
   1.174213e+06  -3.494398e+04
   7.866386e+05   1.068585e+06
  -2.095603e+05   1.246958e+06
  -8.935904e+05   5.386204e+05
  -7.258139e+05  -3.723341e+05
  -7.388668e+04  -8.360401e+05
   2.634147e+05  -7.469413e+05
  -7.109506e+03  -4.668428e+05
  -3.452469e+05  -3.447199e+05
  -2.726365e+04  -3.612312e+05
   9.543827e+05  -2.253290e+05
   1.746658e+06   2.398510e+05
   1.455245e+06   8.506154e+05
   1.090357e+05   1.194192e+06
  -1.261753e+06   9.906188e+05
  -1.590669e+06   3.536579e+05
  -8.099955e+05  -2.662295e+05
   1.556919e+05  -4.315706e+05
   4.153117e+05  -1.081400e+05
  -1.863553e+04   2.654859e+05
  -4.511052e+05   1.950746e+05
  -4.092242e+05  -3.083220e+05
  -9.219281e+04  -6.762130e+05
   3.891805e+04  -4.297165e+05
  -1.441191e+05   1.755381e+05
  -3.607241e+05   3.694636e+05
  -2.758235e+05  -1.945047e+05
   1.935094e+05  -9.267679e+05
   7.992023e+05  -9.340459e+05
   1.063302e+06  -8.146456e+04
   6.104315e+05   8.156610e+05
  -3.650562e+05   8.999837e+05
  -1.031526e+06   1.815406e+05
  -6.343543e+05  -5.564021e+05
   5.991864e+05  -6.115748e+05
   1.492679e+06   1.684274e+04
   1.083371e+06   7.550944e+05
  -3.149873e+05   1.009844e+06
  -1.400582e+06   6.143455e+05
  -1.239047e+06  -8.413432e+04
  -1.865738e+05  -5.006223e+05
   5.762176e+05  -3.065481e+05
   3.078534e+05   2.223088e+05
  -5.855252e+05   4.026013e+05
  -1.047997e+06  -1.726778e+05
  -4.803690e+05  -1.109965e+06
   6.748458e+05  -1.475188e+06
   1.405747e+06  -7.000308e+05
   1.122785e+06   7.426697e+05
   1.522115e+05   1.657125e+06
  -6.895745e+05   1.241271e+06
  -8.727670e+05  -8.814427e+04
  -4.716984e+05  -1.085263e+06
   1.049189e+05  -9.529695e+05
   4.859620e+05  -1.221997e+05
   4.993112e+05   3.721321e+05
   2.314819e+05   1.619223e+05
   1.459379e+04  -1.159848e+05
   1.365533e+05   2.014673e+05
   4.154247e+05   8.553296e+05
   2.688189e+05   1.014037e+06
  -5.384761e+05   3.858327e+05
  -1.360368e+06  -4.383382e+05
  -1.260498e+06  -7.802960e+05
  -1.786706e+05  -6.191042e+05
   8.643100e+05  -3.593564e+05
   9.339427e+05  -1.890657e+05
   2.627378e+05  -5.962377e+03
  -1.665121e+05   1.923158e+05
   5.974006e+04   2.447547e+05
   3.402845e+05   1.548435e+05
   3.742136e+03   1.249283e+05
  -7.129500e+05   1.571339e+05
  -9.357100e+05  -5.449275e+04
  -2.335991e+05  -6.036355e+05
   8.736898e+05  -9.866942e+05
   1.477918e+06  -5.930639e+05
   1.142517e+06   4.588475e+05
   1.867144e+05   1.295011e+06
  -6.865484e+05   1.206321e+06
  -9.527271e+05   4.040721e+05
  -6.013666e+05  -2.790247e+05
  -7.264307e+04  -3.220460e+05
   1.466575e+05   8.259775e+03
  -4.783210e+04   8.529546e+04
  -3.170429e+05  -3.126026e+05
  -2.521774e+05  -7.412394e+05
   1.923233e+05  -5.904975e+05
   6.296264e+05   1.896798e+05
   5.898974e+05   9.354981e+05
  -1.883297e+04   9.168105e+05
  -7.363065e+05   1.140482e+05
  -8.867089e+05  -7.542323e+05
  -2.352803e+05  -9.829964e+05
   6.671567e+05  -5.307368e+05
   9.639834e+05   1.101626e+05
   4.240115e+05   4.958898e+05
  -2.577275e+05   5.257583e+05
  -2.724012e+05   3.142051e+05
   3.045791e+05   5.307592e+04
   6.104737e+05  -8.492519e+03
   9.995401e+04   2.626585e+05
  -7.616129e+05   6.125323e+05
  -1.085502e+06   5.376127e+05
  -6.103634e+05  -1.003050e+05
   1.073950e+05  -7.520180e+05
   4.392720e+05  -7.387300e+05
   2.993967e+05  -8.651946e+04
  -7.687811e+03   4.654298e+05
  -2.362210e+05   3.433852e+05
  -3.139353e+05  -2.145471e+05
  -2.073258e+05  -5.297404e+05
   6.947157e+04  -3.160476e+05
   3.470368e+05   8.048082e+04
   4.043878e+05   2.088120e+05
   2.215222e+05   4.516821e+04
   3.859872e+03  -7.461186e+04
  -8.453119e+04   8.047950e+04
  -1.043904e+05   3.586520e+05
  -1.952420e+05   4.012485e+05
  -3.272588e+05   5.086916e+04
  -2.998319e+05  -4.320046e+05
   4.443011e+03  -5.889623e+05
   4.105367e+05  -2.361466e+05
   5.416128e+05   3.114019e+05
   1.771900e+05   5.511410e+05
  -4.436840e+05   3.119897e+05
  -7.505145e+05  -1.158035e+05
  -4.037573e+05  -3.517311e+05
   2.690913e+05  -3.004907e+05
   5.568262e+05  -1.265087e+05
   1.674749e+05  -5.084416e+03
  -3.910378e+05  -1.339873e+04
  -3.918047e+05  -1.527134e+05
   2.301662e+05  -3.034429e+05
   7.883806e+05  -2.165057e+05
