
 $NMID
 id='ANONYMOUS ', fmtdat='(2E16.6)'
 volume=1.0
 tramp=1.0
 $END
   3.770283e+07   1.840298e+06
   2.268052e+07   2.179743e+07
  -3.915884e+06   2.447538e+07
  -1.787762e+07   1.174705e+07
  -1.201937e+07  -2.244340e+06
   1.056746e+06  -6.378781e+06
   7.019224e+06  -8.866503e+05
   3.410479e+06   6.367598e+06
  -3.282118e+06   8.019045e+06
  -6.796987e+06   2.619214e+06
  -5.195078e+06  -4.723164e+06
  -4.076872e+05  -6.835549e+06
   3.244021e+06  -1.638546e+06
   2.187157e+06   5.124263e+06
  -2.549281e+06   5.878262e+06
  -5.736281e+06  -3.597995e+05
  -3.496797e+06  -7.257743e+06
   2.502700e+06  -8.517540e+06
   7.185107e+06  -3.899321e+06
   7.252578e+06   2.114765e+06
   3.576060e+06   5.393343e+06
  -3.203180e+05   5.059816e+06
  -1.323875e+06   3.083059e+06
   5.936195e+05   2.194705e+06
   2.009141e+06   3.349173e+06
  -4.793091e+05   4.576605e+06
  -5.701536e+06   3.155267e+06
  -8.330427e+06  -7.847104e+05
  -5.049640e+06  -3.981263e+06
   1.081145e+06  -3.803920e+06
   4.087981e+06  -1.073364e+06
   1.922120e+06   1.407279e+06
  -2.024245e+06   1.797782e+06
  -3.614684e+06   4.616766e+04
  -2.086686e+06  -2.645737e+06
   5.158572e+05  -4.095821e+06
   2.021487e+06  -2.469825e+06
   1.612863e+06   1.102370e+06
   7.391685e+04   2.656676e+06
  -7.125479e+05   1.517923e+05
   4.551778e+05  -3.077414e+06
   2.284633e+06  -2.234663e+06
   2.031715e+06   2.114544e+06
  -9.657515e+05   4.233676e+06
  -3.814343e+06   8.258710e+05
  -3.110819e+06  -4.426548e+06
   1.091982e+06  -5.558510e+06
   5.197604e+06  -1.509975e+06
   5.634553e+06   3.397999e+06
   2.020601e+06   4.906123e+06
  -2.710309e+06   2.660733e+06
  -4.760175e+06  -7.541701e+05
  -2.622778e+06  -2.618770e+06
   1.432875e+06  -1.861892e+06
   3.393238e+06   4.142830e+05
   1.672382e+06   1.822050e+06
  -1.182043e+06   1.017785e+06
  -1.667882e+06  -7.447978e+05
   3.846833e+05  -1.149042e+06
   1.875463e+06   2.692716e+05
   5.463770e+05   1.713227e+06
  -2.322511e+06   1.496756e+06
  -3.645032e+06  -3.039021e+05
  -1.898065e+06  -2.545647e+06
   1.735511e+06  -4.041534e+06
   4.750876e+06  -3.647698e+06
   5.254956e+06  -8.285555e+05
   3.182710e+06   3.042248e+06
   3.070933e+05   5.142393e+06
  -1.260213e+06   4.108632e+06
  -1.066625e+06   1.741679e+06
  -5.825841e+05   7.067654e+05
  -1.207109e+06   1.160511e+06
  -2.497011e+06   9.942799e+05
  -2.847631e+06  -8.350833e+05
  -1.505944e+06  -2.701089e+06
   6.635304e+05  -2.429157e+06
   2.110631e+06   1.786235e+03
   1.771668e+06   2.481662e+06
  -3.002520e+05   2.943124e+06
  -2.751717e+06   1.085071e+06
  -3.628852e+06  -1.631046e+06
  -2.123282e+06  -3.281581e+06
   3.650499e+05  -3.038622e+06
   1.674384e+06  -1.754640e+06
   1.449236e+06  -8.935058e+05
   1.396535e+06  -8.533075e+05
   2.694348e+06  -6.627849e+05
   4.079053e+06   6.145694e+05
   3.308154e+06   2.616943e+06
   8.344251e+04   4.008278e+06
  -3.314331e+06   3.711849e+06
  -4.314987e+06   1.717662e+06
  -2.506566e+06  -8.550074e+05
   1.943438e+05  -2.320901e+06
   1.440560e+06  -1.686781e+06
   5.114789e+05   1.871449e+05
  -1.217801e+06   1.187658e+06
  -1.781074e+06   2.886848e+05
  -6.820363e+05  -1.140762e+06
   6.641122e+05  -1.093934e+06
   6.462705e+05   3.449736e+05
  -6.829831e+05   1.023191e+06
  -1.763382e+06  -4.485303e+05
  -1.283926e+06  -2.825678e+06
   6.225564e+05  -3.654965e+06
   2.719487e+06  -1.974886e+06
   3.661561e+06   8.986514e+05
   2.777730e+06   2.873739e+06
   5.724438e+05   2.879476e+06
  -1.376662e+06   1.457954e+06
  -1.648571e+06   1.008434e+05
  -4.886013e+05  -5.923714e+04
   3.461515e+05   7.431925e+05
  -3.500952e+05   1.216177e+06
  -1.714935e+06   5.120043e+05
  -1.899350e+06  -7.573862e+05
  -4.347450e+05  -1.275820e+06
   1.123169e+06  -5.922870e+05
   1.009532e+06   4.471743e+05
  -7.451571e+05   7.270353e+05
  -2.345591e+06  -7.296863e+04
  -2.058814e+06  -1.369524e+06
   1.020948e+05  -2.187839e+06
   2.361580e+06  -1.783357e+06
   2.798884e+06  -2.694507e+05
   1.158856e+06   1.198260e+06
  -8.839376e+05   1.329381e+06
  -1.389466e+06   1.152156e+05
  -8.630625e+04  -9.890237e+05
   1.486199e+06  -6.628081e+05
   1.699199e+06   7.345344e+05
   4.444042e+05   1.625493e+06
  -9.791578e+05   1.092043e+06
  -1.281875e+06  -1.540227e+05
  -3.608309e+05  -7.175242e+05
   7.018590e+05  -6.402858e+04
   6.666707e+05   1.036241e+06
  -6.441033e+05   1.371167e+06
  -2.018923e+06   4.363818e+05
  -1.965738e+06  -1.117966e+06
  -3.296489e+05  -2.042255e+06
   1.409870e+06  -1.593589e+06
   1.693242e+06  -2.279435e+05
   5.403321e+05   8.399420e+05
  -6.370529e+05   8.227352e+05
  -7.159302e+05   5.608604e+04
   5.065769e+04  -5.052746e+05
   6.114122e+05  -3.561263e+05
   3.676981e+05   1.041401e+05
  -3.127561e+05   1.245563e+05
  -5.711537e+05  -5.046720e+05
   1.077371e+05  -1.143023e+06
   1.346894e+06  -8.937557e+05
   2.059130e+06   4.336868e+05
   1.404612e+06   1.956699e+06
  -2.734665e+05   2.441536e+06
  -1.661151e+06   1.486878e+06
  -1.797057e+06  -7.298354e+04
  -1.011812e+06  -1.017022e+06
  -3.622821e+05  -9.183222e+05
  -3.381659e+05  -3.943287e+05
  -4.531757e+05  -2.693449e+05
  -4.773025e+04  -6.571833e+05
   8.402063e+05  -9.087514e+05
   1.483550e+06  -3.823980e+05
   1.155133e+06   7.719191e+05
  -1.989899e+05   1.589122e+06
  -1.757067e+06   1.134226e+06
  -2.291781e+06  -5.030922e+05
  -1.167480e+06  -2.094138e+06
   9.345393e+05  -2.328686e+06
   2.465088e+06  -1.063580e+06
   2.395820e+06   5.715121e+05
   1.117691e+06   1.348584e+06
  -1.194150e+05   1.102199e+06
  -5.130544e+05   6.548403e+05
  -3.071429e+05   7.364672e+05
  -2.405083e+05   1.175262e+06
  -6.658820e+05   1.172778e+06
  -1.233938e+06   2.542637e+05
  -1.280020e+06  -1.126338e+06
  -4.938730e+05  -1.916915e+06
   6.759672e+05  -1.423100e+06
   1.299096e+06   5.261237e+03
   8.181850e+05   1.239236e+06
  -3.217603e+05   1.374242e+06
  -1.051644e+06   4.967315e+05
  -7.764666e+05  -5.307262e+05
   2.198041e+04  -9.658898e+05
   3.919768e+05  -7.885457e+05
   2.746876e+04  -4.784671e+05
  -3.956211e+05  -3.828322e+05
  -3.102332e+04  -4.001469e+05
   1.096620e+06  -2.028463e+05
   1.975072e+06   3.492262e+05
   1.589999e+06   1.019131e+06
   2.596568e+04   1.356044e+06
  -1.499468e+06   1.066498e+06
  -1.794327e+06   3.063519e+05
  -8.564237e+05  -3.800329e+05
   2.228884e+05  -4.994573e+05
   4.757146e+05  -7.527456e+04
  -2.196993e+04   3.432043e+05
  -4.930900e+05   2.244605e+05
  -4.574460e+05  -3.576123e+05
  -1.378803e+05  -7.601954e+05
   7.725472e+03  -4.905815e+05
  -1.497784e+05   1.590217e+05
  -3.605809e+05   3.707746e+05
  -2.884779e+05  -2.281909e+05
   2.139515e+05  -1.018579e+06
   9.229281e+05  -1.026301e+06
   1.255662e+06  -7.421895e+04
   7.164049e+05   9.436246e+05
  -4.469515e+05   1.039963e+06
  -1.205135e+06   2.110779e+05
  -7.060179e+05  -6.248231e+05
   6.950811e+05  -6.515812e+05
   1.633067e+06   8.103773e+04
   1.115961e+06   8.636654e+05
  -4.148139e+05   1.059437e+06
  -1.541031e+06   5.797736e+05
  -1.320240e+06  -1.498700e+05
  -1.722464e+05  -5.421793e+05
   6.475224e+05  -3.001650e+05
   3.476796e+05   2.760049e+05
  -6.469145e+05   4.649509e+05
  -1.180103e+06  -1.829350e+05
  -5.595590e+05  -1.244252e+06
   7.406159e+05  -1.664616e+06
   1.568852e+06  -7.892694e+05
   1.242269e+06   8.352368e+05
   1.417858e+05   1.838537e+06
  -7.862566e+05   1.338043e+06
  -9.481528e+05  -1.466565e+05
  -4.640603e+05  -1.210092e+06
   1.723578e+05  -1.017845e+06
   5.484852e+05  -1.019151e+05
   5.174511e+05   4.074029e+05
   2.232861e+05   1.625198e+05
   2.817797e+04  -1.139610e+05
   1.873864e+05   2.662885e+05
   4.568431e+05   9.757207e+05
   2.375093e+05   1.111097e+06
  -6.510427e+05   3.929572e+05
  -1.494927e+06  -5.142741e+05
  -1.343760e+06  -8.826423e+05
  -1.764339e+05  -6.985969e+05
   9.363736e+05  -3.952820e+05
   1.024871e+06  -1.803386e+05
   3.137528e+05   2.937075e+04
  -1.771419e+05   2.186832e+05
   2.769207e+04   2.403393e+05
   3.396540e+05   1.419146e+05
   1.876089e+04   1.414470e+05
  -7.560337e+05   1.920505e+05
  -1.050390e+06  -6.721425e+04
  -3.094059e+05  -7.045597e+05
   9.592652e+05  -1.122528e+06
   1.697222e+06  -6.559595e+05
   1.326202e+06   5.252718e+05
   2.040449e+05   1.444885e+06
  -8.032669e+05   1.342372e+06
  -1.079332e+06   4.617607e+05
  -6.664039e+05  -2.957231e+05
  -9.324845e+04  -3.665245e+05
   1.345036e+05  -2.517262e+04
  -5.920571e+04   6.074662e+04
  -3.235280e+05  -3.603853e+05
  -2.508578e+05  -8.249063e+05
   2.183358e+05  -6.667896e+05
   6.994495e+05   1.904291e+05
   6.767881e+05   1.032732e+06
   9.166579e+03   1.041858e+06
  -8.110027e+05   1.636634e+05
  -1.002863e+06  -8.226281e+05
  -2.731908e+05  -1.111495e+06
   7.559710e+05  -6.140388e+05
   1.097733e+06   1.329437e+05
   4.792557e+05   5.951684e+05
  -3.105950e+05   6.182757e+05
  -3.446866e+05   3.440617e+05
   3.072932e+05   3.816519e+04
   6.735341e+05  -8.698949e+03
   1.177544e+05   3.060565e+05
  -8.578721e+05   6.662841e+05
  -1.242349e+06   5.447248e+05
  -7.070943e+05  -1.624531e+05
   1.329052e+05  -8.534507e+05
   5.389871e+05  -8.223599e+05
   3.809726e+05  -1.067368e+05
   8.732579e+03   5.104881e+05
  -2.684149e+05   4.019487e+05
  -3.556579e+05  -2.106976e+05
  -2.291613e+05  -5.948372e+05
   8.294119e+04  -3.849653e+05
   3.923497e+05   8.070295e+04
   4.527113e+05   2.659008e+05
   2.404421e+05   7.467494e+04
  -3.116458e+03  -1.145573e+05
  -7.894300e+04   3.440672e+04
  -6.855980e+04   3.921074e+05
  -1.695415e+05   5.027706e+05
  -3.643992e+05   1.198915e+05
  -3.858368e+05  -4.608361e+05
  -4.786782e+04  -6.711219e+05
   4.499575e+05  -2.799797e+05
   6.299893e+05   3.400111e+05
   2.117410e+05   6.097520e+05
  -5.114569e+05   3.440282e+05
  -8.612940e+05  -1.306584e+05
  -4.565013e+05  -4.005396e+05
   3.124074e+05  -3.573739e+05
   6.425067e+05  -1.622425e+05
   2.155397e+05  -5.752952e+02
  -4.078960e+05   1.896588e+04
  -4.330128e+05  -1.331524e+05
   2.234159e+05  -3.228925e+05
   8.339329e+05  -2.486885e+05
