
 $NMID
 id='ANONYMOUS ', fmtdat='(2E16.6)'
 volume=1.0
 tramp=1.0
 $END
  -4.801847e+07   3.323768e+04
  -2.978392e+07  -2.797781e+07
   4.734289e+06  -3.206321e+07
   2.291377e+07  -1.446242e+07
   1.499906e+07   4.008535e+06
  -1.842077e+06   8.180701e+06
  -8.790478e+06   3.068129e+05
  -3.644441e+06  -8.230510e+06
   4.574745e+06  -9.341933e+06
   8.476982e+06  -2.772074e+06
   6.432798e+06   5.544088e+06
   7.517843e+05   8.045410e+06
  -3.722898e+06   2.275066e+06
  -2.593399e+06  -5.602588e+06
   3.150663e+06  -6.681757e+06
   7.089494e+06   6.231444e+05
   4.358552e+06   8.922485e+06
  -2.968134e+06   1.057739e+07
  -8.773867e+06   5.218252e+06
  -9.255416e+06  -2.004592e+06
  -5.233005e+06  -6.461454e+06
  -2.934631e+05  -6.845058e+06
   1.886137e+06  -4.611042e+06
   3.044899e+05  -2.684978e+06
  -1.766527e+06  -3.152427e+06
   1.996142e+05  -4.730765e+06
   5.924847e+06  -3.932190e+06
   9.445409e+06   1.855031e+05
   6.283409e+06   4.198192e+06
  -5.281099e+05   4.543849e+06
  -4.165959e+06   1.777409e+06
  -2.231972e+06  -8.963122e+05
   1.635803e+06  -1.535059e+06
   3.330556e+06  -1.932403e+05
   2.251994e+06   2.334497e+06
  -3.927901e+04   4.285248e+06
  -1.994138e+06   3.223363e+06
  -2.347098e+06  -6.867000e+05
  -8.131723e+05  -3.169816e+06
   7.000910e+05  -8.872114e+05
  -1.726969e+05   3.027275e+06
  -2.507126e+06   2.464035e+06
  -2.429337e+06  -2.672520e+06
   1.493487e+06  -5.407658e+06
   5.351947e+06  -1.160268e+06
   4.325472e+06   5.642371e+06
  -1.304242e+06   7.232563e+06
  -6.434424e+06   2.151686e+06
  -6.682386e+06  -3.966283e+06
  -2.206776e+06  -5.729407e+06
   3.202684e+06  -2.949710e+06
   5.375787e+06   1.056910e+06
   2.813042e+06   3.158982e+06
  -1.906677e+06   2.203534e+06
  -4.141544e+06  -5.638652e+05
  -1.974817e+06  -2.295904e+06
   1.462375e+06  -1.275949e+06
   1.847096e+06   8.983694e+05
  -7.934735e+05   1.197823e+06
  -2.342075e+06  -8.387171e+05
  -2.268958e+05  -2.595166e+06
   3.393119e+06  -1.915535e+06
   4.649158e+06   6.317322e+05
   2.309732e+06   3.278655e+06
  -1.798290e+06   4.864357e+06
  -5.128515e+06   4.465497e+06
  -5.984641e+06   1.356415e+06
  -4.024379e+06  -3.224079e+06
  -6.852287e+05  -5.919650e+06
   1.529808e+06  -4.736004e+06
   1.441410e+06  -1.713683e+06
   5.034468e+05  -3.600987e+05
   8.037667e+05  -1.125465e+06
   2.283440e+06  -1.368533e+06
   3.009836e+06   4.440154e+05
   1.819710e+06   2.563423e+06
  -4.310994e+05   2.477650e+06
  -2.043166e+06   7.201358e+04
  -1.876231e+06  -2.504078e+06
   1.755374e+05  -3.159988e+06
   2.935476e+06  -1.425793e+06
   4.245381e+06   1.505410e+06
   2.786563e+06   3.655180e+06
  -1.721619e+05   3.741914e+06
  -1.982019e+06   2.326743e+06
  -1.857967e+06   1.116242e+06
  -1.684570e+06   8.875049e+05
  -3.012733e+06   6.781486e+05
  -4.526373e+06  -6.731598e+05
  -3.674772e+06  -2.848547e+06
  -1.497779e+05  -4.374586e+06
   3.494514e+06  -4.109189e+06
   4.567942e+06  -2.049366e+06
   2.753648e+06   7.176426e+05
  -2.966972e+03   2.449800e+06
  -1.390498e+06   1.917905e+06
  -5.677482e+05  -1.336511e+05
   1.246860e+06  -1.337198e+06
   1.968566e+06  -3.787010e+05
   8.482884e+05   1.241096e+06
  -6.479663e+05   1.188728e+06
  -6.149388e+05  -3.977083e+05
   9.042427e+05  -9.988465e+05
   1.992651e+06   8.086209e+05
   1.184548e+06   3.347409e+06
  -1.052867e+06   3.906071e+06
  -3.140853e+06   1.824929e+06
  -3.847867e+06  -1.184218e+06
  -2.812205e+06  -3.063332e+06
  -5.786873e+05  -3.003140e+06
   1.419933e+06  -1.582772e+06
   1.745697e+06  -1.713041e+05
   5.299116e+05   5.438119e+04
  -3.859675e+05  -8.044712e+05
   3.889795e+05  -1.374273e+06
   1.928432e+06  -6.057161e+05
   2.124343e+06   8.521345e+05
   4.669608e+05   1.439204e+06
  -1.232936e+06   6.434904e+05
  -1.045957e+06  -4.864941e+05
   8.557757e+05  -7.112518e+05
   2.482575e+06   1.740708e+05
   2.104785e+06   1.477837e+06
  -1.675130e+05   2.284479e+06
  -2.526327e+06   1.890171e+06
  -3.015745e+06   3.131774e+05
  -1.291480e+06  -1.313286e+06
   9.520802e+05  -1.520515e+06
   1.571165e+06  -1.760755e+05
   1.546149e+05   1.102583e+06
  -1.612730e+06   7.619976e+05
  -1.855656e+06  -8.015837e+05
  -4.487332e+05  -1.773773e+06
   1.106706e+06  -1.146135e+06
   1.387058e+06   2.266606e+05
   3.498595e+05   8.082765e+05
  -8.009036e+05   7.595897e+04
  -7.610485e+05  -1.120503e+06
   6.544278e+05  -1.508870e+06
   2.171918e+06  -5.334025e+05
   2.163357e+06   1.162209e+06
   3.975390e+05   2.219752e+06
  -1.524946e+06   1.758830e+06
  -1.846882e+06   2.532451e+05
  -5.761102e+05  -9.202711e+05
   6.944466e+05  -8.883523e+05
   7.382148e+05  -7.012684e+04
  -8.836954e+04   4.889926e+05
  -6.157465e+05   3.200301e+05
  -2.911455e+05  -1.067409e+05
   4.069571e+05  -5.777941e+04
   6.080706e+05   6.171362e+05
  -1.484565e+05   1.262553e+06
  -1.466702e+06   9.802262e+05
  -2.241222e+06  -4.443603e+05
  -1.560908e+06  -2.098761e+06
   2.541845e+05  -2.633173e+06
   1.771328e+06  -1.587161e+06
   1.902156e+06   9.466638e+04
   1.029216e+06   1.049621e+06
   3.647611e+05   8.784203e+05
   4.194979e+05   3.408664e+05
   5.702311e+05   2.975051e+05
   8.126063e+04   7.548695e+05
  -9.186704e+05   9.884207e+05
  -1.590717e+06   3.979930e+05
  -1.207442e+06  -8.110763e+05
   2.329072e+05  -1.668074e+06
   1.881576e+06  -1.212051e+06
   2.464421e+06   5.213821e+05
   1.264988e+06   2.262787e+06
  -1.025140e+06   2.548150e+06
  -2.696208e+06   1.159809e+06
  -2.583012e+06  -6.418287e+05
  -1.148776e+06  -1.456317e+06
   1.675506e+05  -1.130622e+06
   5.045498e+05  -6.428469e+05
   2.263124e+05  -7.941892e+05
   1.844425e+05  -1.323805e+06
   7.075268e+05  -1.325250e+06
   1.356303e+06  -3.160347e+05
   1.416915e+06   1.186159e+06
   5.756017e+05   2.058055e+06
  -6.964114e+05   1.548906e+06
  -1.400321e+06   4.685591e+03
  -8.948987e+05  -1.355050e+06
   3.669096e+05  -1.503424e+06
   1.188373e+06  -5.117955e+05
   8.689115e+05   6.397322e+05
  -5.479356e+04   1.099403e+06
  -4.821312e+05   8.617675e+05
  -5.493529e+04   4.939317e+05
   4.451631e+05   3.884546e+05
   4.850253e+04   4.238174e+05
  -1.207995e+06   2.340123e+05
  -2.178495e+06  -3.505325e+05
  -1.741966e+06  -1.097349e+06
  -1.467189e+04  -1.506204e+06
   1.650613e+06  -1.203754e+06
   1.958216e+06  -3.345783e+05
   9.263357e+05   4.567558e+05
  -2.504441e+05   5.753144e+05
  -5.326505e+05   6.870969e+04
  -6.713107e+03  -4.032620e+05
   5.076309e+05  -2.591469e+05
   5.079188e+05   3.750891e+05
   2.050718e+05   7.984753e+05
   4.153106e+04   5.200666e+05
   1.589458e+05  -1.436754e+05
   3.553400e+05  -3.642915e+05
   3.084473e+05   2.473318e+05
  -1.925720e+05   1.085638e+06
  -9.779900e+05   1.135068e+06
  -1.401205e+06   1.424348e+05
  -8.432194e+05  -9.947157e+05
   4.552614e+05  -1.172958e+06
   1.319699e+06  -2.990486e+05
   7.790942e+05   6.454205e+05
  -7.510228e+05   7.097096e+05
  -1.749005e+06  -8.502658e+04
  -1.163794e+06  -9.330963e+05
   4.775077e+05  -1.121621e+06
   1.650654e+06  -5.896695e+05
   1.392540e+06   1.768617e+05
   1.710805e+05   5.750294e+05
  -7.018573e+05   3.154244e+05
  -3.969931e+05  -3.026917e+05
   6.642113e+05  -5.323679e+05
   1.275139e+06   1.396019e+05
   6.662773e+05   1.306208e+06
  -7.133464e+05   1.818826e+06
  -1.646082e+06   9.098349e+05
  -1.354885e+06  -8.560194e+05
  -1.954256e+05  -1.964500e+06
   8.216949e+05  -1.431990e+06
   1.019253e+06   1.677676e+05
   4.947853e+05   1.300986e+06
  -2.057181e+05   1.083106e+06
  -6.016435e+05   1.064951e+05
  -5.363404e+05  -4.258960e+05
  -2.116286e+05  -1.655691e+05
  -4.117566e+04   1.155920e+05
  -2.536557e+05  -2.962226e+05
  -5.287704e+05  -1.046221e+06
  -2.400247e+05  -1.189024e+06
   7.350949e+05  -4.357601e+05
   1.611231e+06   5.223117e+05
   1.427895e+06   9.272522e+05
   2.009262e+05   7.555133e+05
  -9.675710e+05   4.430089e+05
  -1.088567e+06   2.016832e+05
  -3.665108e+05  -3.894803e+04
   1.733747e+05  -2.401641e+05
   3.848111e+03  -2.457827e+05
  -3.267716e+05  -1.307632e+05
  -3.798412e+04  -1.468181e+05
   7.651058e+05  -2.319411e+05
   1.134311e+06   3.458695e+04
   4.071591e+05   7.471599e+05
  -9.640419e+05   1.247862e+06
  -1.830560e+06   7.802383e+05
  -1.483305e+06  -5.020703e+05
  -2.697112e+05  -1.539897e+06
   8.383777e+05  -1.478771e+06
   1.145762e+06  -5.501576e+05
   7.152445e+05   2.808944e+05
   1.262039e+05   3.897512e+05
  -1.073567e+05   4.723949e+04
   7.885016e+04  -4.329010e+04
   3.415088e+05   3.940682e+05
   2.756374e+05   8.839930e+05
  -2.086062e+05   7.297808e+05
  -7.456342e+05  -1.625005e+05
  -7.732039e+05  -1.064390e+06
  -7.923543e+04  -1.117415e+06
   8.395638e+05  -2.292336e+05
   1.106978e+06   8.228411e+05
   3.481285e+05   1.186039e+06
  -7.859485e+05   7.068385e+05
  -1.200590e+06  -9.962142e+04
  -5.567366e+05  -6.483709e+05
   3.140638e+05  -7.069164e+05
   3.898242e+05  -3.925331e+05
  -2.967515e+05  -2.587571e+04
  -7.147472e+05   3.141398e+04
  -1.474368e+05  -3.303804e+05
   9.057563e+05  -7.353288e+05
   1.354251e+06  -5.997360e+05
   8.023102e+05   1.756541e+05
  -1.145538e+05   9.342819e+05
  -5.837617e+05   9.178645e+05
  -4.353546e+05   1.547802e+05
  -3.839658e+04  -5.322724e+05
   2.682365e+05  -4.564842e+05
   3.813210e+05   1.879167e+05
   2.675056e+05   6.315220e+05
  -6.571414e+04   4.418593e+05
  -4.232639e+05  -6.268033e+04
  -5.084239e+05  -2.921020e+05
  -2.643478e+05  -9.199130e+04
   2.560809e+04   1.435762e+05
   9.306529e+04   8.547944e+03
   2.515802e+04  -3.973110e+05
   1.040978e+05  -5.675298e+05
   3.601289e+05  -1.898656e+05
   4.610576e+05   4.423416e+05
   1.223580e+05   7.062789e+05
  -4.581776e+05   3.260214e+05
  -7.036570e+05  -3.242008e+05
  -2.584190e+05  -6.349667e+05
   5.483443e+05  -3.908187e+05
   9.454292e+05   9.901510e+04
   5.113519e+05   4.152540e+05
  -3.215869e+05   4.158036e+05
  -6.894090e+05   2.220560e+05
  -2.543203e+05   1.592868e+04
   4.010333e+05  -5.034463e+04
   4.506357e+05   9.956407e+04
  -2.076991e+05   3.289601e+05
  -8.453734e+05   2.850140e+05
