
 $NMID
 id='ANONYMOUS ', fmtdat='(2E16.6)'
 volume=1.0
 tramp=1.0
 $END
   2.123792e+07   1.471442e+06
   1.341501e+07   1.067086e+07
  -8.158183e+05   1.323331e+07
  -9.511731e+06   8.476522e+06
  -7.686339e+06   7.079840e+05
  -3.703362e+05  -3.788488e+06
   4.356831e+06  -1.857329e+06
   3.192992e+06   3.483780e+06
  -1.148266e+06   5.920186e+06
  -4.093258e+06   2.535156e+06
  -3.378439e+06  -2.986658e+06
  -2.270066e+05  -4.614662e+06
   2.193318e+06  -8.246344e+05
   1.574451e+06   3.930295e+06
  -1.408873e+06   4.448829e+06
  -3.612786e+06   2.870910e+05
  -2.494433e+06  -4.352585e+06
   1.229290e+06  -5.314575e+06
   4.265223e+06  -2.306003e+06
   4.114649e+06   1.558543e+06
   1.508058e+06   3.188164e+06
  -5.857156e+05   2.297468e+06
  -1.743377e+05   1.111068e+06
   1.678691e+06   1.607168e+06
   2.013593e+06   3.280158e+06
  -7.311317e+05   3.835061e+06
  -4.653025e+06   1.947718e+06
  -5.993795e+06  -1.158104e+06
  -3.112283e+06  -3.024634e+06
   1.443626e+06  -2.400068e+06
   3.393090e+06  -1.443398e+05
   1.227908e+06   1.780783e+06
  -2.325665e+06   1.806419e+06
  -3.517276e+06  -2.113270e+05
  -1.583514e+06  -2.686880e+06
   9.824366e+05  -3.315044e+06
   1.661986e+06  -1.314987e+06
   4.831213e+05   1.294231e+06
  -6.771922e+05   1.598325e+06
  -4.737220e+05  -7.211397e+05
   7.566978e+05  -2.733167e+06
   1.733199e+06  -1.772589e+06
   1.477387e+06   1.153037e+06
   1.457125e+04   2.541963e+06
  -1.546716e+06   7.052186e+05
  -1.645715e+06  -2.262258e+06
   3.465865e+05  -3.069401e+06
   3.056939e+06  -8.827847e+05
   3.937984e+06   2.142960e+06
   1.766238e+06   3.386562e+06
  -1.789157e+06   2.146411e+06
  -3.603505e+06  -1.933949e+05
  -2.237439e+06  -1.675156e+06
   6.569414e+05  -1.372779e+06
   2.195453e+06   3.109656e+04
   1.246986e+06   1.011438e+06
  -6.732485e+05   6.715683e+05
  -1.313831e+06  -4.507721e+05
  -1.356695e+05  -1.065218e+06
   1.269202e+06  -5.224959e+05
   1.061500e+06   5.879437e+05
  -7.386471e+05   1.099597e+06
  -2.166877e+06   3.357769e+05
  -1.383204e+06  -1.330477e+06
   1.291721e+06  -2.660739e+06
   3.616144e+06  -2.379854e+06
   3.718097e+06  -2.841819e+05
   1.896810e+06   2.312116e+06
   3.392398e+03   3.596817e+06
  -6.771399e+05   2.997662e+06
  -5.304475e+05   1.670670e+06
  -6.957839e+05   1.009722e+06
  -1.555168e+06   9.747028e+05
  -2.388268e+06   3.939224e+05
  -2.255644e+06  -1.168970e+06
  -9.366517e+05  -2.499287e+06
   8.592260e+05  -2.052257e+06
   1.943435e+06   1.119823e+05
   1.454843e+06   2.169979e+06
  -3.718752e+05   2.343095e+06
  -2.164188e+06   6.068710e+05
  -2.486581e+06  -1.465759e+06
  -1.203378e+06  -2.342698e+06
   3.910103e+05  -1.848114e+06
   1.005846e+06  -9.704814e+05
   7.687775e+05  -6.321493e+05
   9.070246e+05  -7.857636e+05
   2.033652e+06  -6.401834e+05
   3.132534e+06   3.876483e+05
   2.572288e+06   1.990148e+06
   7.070237e+04   3.135764e+06
  -2.665968e+06   2.882054e+06
  -3.482578e+06   1.192609e+06
  -1.913406e+06  -8.721370e+05
   3.729005e+05  -1.874359e+06
   1.294074e+06  -1.218954e+06
   3.775470e+05   2.180662e+05
  -1.021754e+06   8.887712e+05
  -1.351680e+06   1.909684e+05
  -4.353832e+05  -8.645814e+05
   5.934512e+05  -8.593164e+05
   6.245441e+05   2.575930e+05
  -3.636285e+05   9.920647e+05
  -1.393540e+06   6.502482e+04
  -1.375253e+06  -1.945742e+06
   1.127216e+04  -3.070774e+06
   1.981864e+06  -2.026053e+06
   3.115227e+06   4.401474e+05
   2.471881e+06   2.345984e+06
   5.220932e+05   2.425801e+06
  -1.153080e+06   1.160972e+06
  -1.341176e+06   2.523882e+04
  -3.863878e+05  -5.046085e+04
   2.746615e+05   5.840465e+05
  -2.341405e+05   9.102973e+05
  -1.262554e+06   3.930226e+05
  -1.453985e+06  -5.197645e+05
  -3.844635e+05  -9.436704e+05
   8.657518e+05  -4.913543e+05
   8.668070e+05   3.490950e+05
  -5.432404e+05   6.914472e+05
  -1.958230e+06   7.645120e+04
  -1.804444e+06  -1.093068e+06
   4.039215e+02  -1.855285e+06
   1.897019e+06  -1.497812e+06
   2.236022e+06  -2.310174e+05
   9.029799e+05   9.084732e+05
  -6.690665e+05   9.775503e+05
  -1.015043e+06   7.035122e+04
  -2.123964e+04  -7.350625e+05
   1.158304e+06  -5.012131e+05
   1.348062e+06   5.468008e+05
   4.205014e+05   1.279321e+06
  -7.175772e+05   9.383602e+05
  -1.038971e+06  -3.351021e+04
  -3.534274e+05  -5.398177e+05
   5.095610e+05  -6.495551e+04
   5.025969e+05   8.067618e+05
  -5.342391e+05   1.064333e+06
  -1.602160e+06   3.066679e+05
  -1.531311e+06  -9.057419e+05
  -2.504350e+05  -1.601215e+06
   1.090843e+06  -1.252435e+06
   1.327267e+06  -2.041095e+05
   4.562544e+05   6.501997e+05
  -4.897827e+05   6.693916e+05
  -6.100409e+05   3.591850e+04
   7.433854e+03  -4.791612e+05
   5.508025e+05  -3.585949e+05
   4.172665e+05   1.098446e+05
  -1.863169e+05   2.104183e+05
  -4.921416e+05  -3.128000e+05
   2.403754e+04  -8.905456e+05
   1.044978e+06  -7.211699e+05
   1.626908e+06   3.380933e+05
   1.098948e+06   1.548370e+06
  -2.293574e+05   1.950125e+06
  -1.335785e+06   1.230167e+06
  -1.486069e+06  -2.175157e+04
  -8.857946e+05  -8.691106e+05
  -3.065539e+05  -8.658266e+05
  -1.928547e+05  -3.948260e+05
  -2.746824e+05  -1.806241e+05
  -2.527389e+04  -4.648184e+05
   6.423253e+05  -7.340786e+05
   1.196522e+06  -3.436790e+05
   9.762542e+05   6.344333e+05
  -1.249184e+05   1.333316e+06
  -1.408343e+06   9.452479e+05
  -1.846867e+06  -3.943518e+05
  -9.614422e+05  -1.653728e+06
   6.845542e+05  -1.841780e+06
   1.912306e+06  -8.838648e+05
   1.935297e+06   3.925661e+05
   9.816952e+05   1.075332e+06
  -4.844761e+04   9.615168e+05
  -4.730165e+05   5.937400e+05
  -3.562964e+05   5.690514e+05
  -2.478637e+05   8.616929e+05
  -5.132991e+05   8.771106e+05
  -9.450166e+05   1.802229e+05
  -9.934101e+05  -9.071969e+05
  -3.726603e+05  -1.528614e+06
   5.544041e+05  -1.126090e+06
   1.039334e+06  -3.214431e+03
   6.644188e+05   9.560371e+05
  -2.088003e+05   1.086142e+06
  -7.783316e+05   4.548690e+05
  -6.103021e+05  -3.278111e+05
  -4.717300e+04  -7.151326e+05
   2.306814e+05  -6.393010e+05
  -8.953565e+03  -4.155278e+05
  -2.952798e+05  -3.242337e+05
  -1.168705e+04  -3.251816e+05
   8.423249e+05  -1.677980e+05
   1.525186e+06   2.679274e+05
   1.257508e+06   7.877457e+05
   6.758564e+04   1.038942e+06
  -1.133360e+06   8.235856e+05
  -1.405338e+06   2.733371e+05
  -7.004048e+05  -2.367494e+05
   1.502902e+05  -3.636145e+05
   3.603597e+05  -8.679645e+04
  -3.934821e+04   2.292766e+05
  -4.152015e+05   1.613849e+05
  -3.522689e+05  -2.881785e+05
  -5.144125e+04  -6.175590e+05
   5.869197e+04  -3.911876e+05
  -1.273455e+05   1.611926e+05
  -3.307836e+05   3.355169e+05
  -2.381222e+05  -1.773867e+05
   2.030028e+05  -8.246290e+05
   7.367812e+05  -7.995041e+05
   9.351067e+05  -1.826818e+04
   5.010553e+05   7.541184e+05
  -3.604685e+05   7.739597e+05
  -9.214355e+05   1.097927e+05
  -5.475476e+05  -5.183541e+05
   5.436416e+05  -5.247170e+05
   1.322999e+06   4.602668e+04
   9.534210e+05   6.829208e+05
  -2.866073e+05   8.866554e+05
  -1.247687e+06   5.261399e+05
  -1.099971e+06  -9.022976e+04
  -1.607642e+05  -4.466363e+05
   5.123158e+05  -2.607524e+05
   2.586020e+05   2.046627e+05
  -5.422935e+05   3.383317e+05
  -9.311949e+05  -1.947773e+05
  -3.856823e+05  -1.014088e+06
   6.610718e+05  -1.296352e+06
   1.283441e+06  -5.768111e+05
   9.791976e+05   6.983864e+05
   8.764021e+04   1.481381e+06
  -6.427918e+05   1.090100e+06
  -7.680610e+05  -9.285981e+04
  -3.957089e+05  -9.686068e+05
   1.033771e+05  -8.400068e+05
   4.270957e+05  -9.650910e+04
   4.425556e+05   3.395626e+05
   2.127154e+05   1.453624e+05
   1.024697e+04  -1.028433e+05
   9.684326e+04   1.872457e+05
   3.375469e+05   7.729145e+05
   2.233517e+05   9.013860e+05
  -4.746298e+05   3.190444e+05
  -1.198584e+06  -4.270822e+05
  -1.108411e+06  -7.206553e+05
  -1.401560e+05  -5.519214e+05
   7.889011e+05  -3.009738e+05
   8.359155e+05  -1.475022e+05
   2.210950e+05   3.351254e+03
  -1.580090e+05   1.684516e+05
   6.142107e+04   2.159843e+05
   3.144786e+05   1.441318e+05
  -4.682515e+03   1.152583e+05
  -6.547076e+05   1.241428e+05
  -8.314567e+05  -8.138323e+04
  -1.704808e+05  -5.561750e+05
   8.238160e+05  -8.532379e+05
   1.331569e+06  -4.670776e+05
   9.931027e+05   4.620227e+05
   1.233569e+05   1.163370e+06
  -6.477538e+05   1.044802e+06
  -8.658648e+05   3.215125e+05
  -5.329631e+05  -2.716298e+05
  -4.930948e+04  -2.922821e+05
   1.459435e+05   1.038070e+04
  -3.471129e+04   7.899918e+04
  -2.746018e+05  -2.794454e+05
  -2.061995e+05  -6.624353e+05
   1.932759e+05  -5.185782e+05
   5.627230e+05   1.937237e+05
   4.955061e+05   8.635348e+05
  -5.864828e+04   8.244972e+05
  -6.747175e+05   7.366620e+04
  -7.704762e+05  -7.119742e+05
  -1.706727e+05  -8.876883e+05
   6.191669e+05  -4.445044e+05
   8.512774e+05   1.362904e+05
   3.485647e+05   4.521347e+05
  -2.536137e+05   4.485190e+05
  -2.447268e+05   2.606341e+05
   2.829599e+05   5.225971e+04
   5.474321e+05   1.118945e+04
   7.542292e+04   2.379516e+05
  -6.955428e+05   5.225615e+05
  -9.674297e+05   4.446147e+05
  -5.231607e+05  -1.090473e+05
   1.234157e+05  -6.625862e+05
   4.088127e+05  -6.318273e+05
   2.654010e+05  -5.154558e+04
  -2.334447e+04   4.227381e+05
  -2.277677e+05   2.942134e+05
  -2.809029e+05  -2.094229e+05
  -1.665672e+05  -4.795774e+05
   8.140437e+04  -2.729178e+05
   3.093491e+05   8.685879e+04
   3.447254e+05   1.950084e+05
   1.907922e+05   4.169848e+04
   1.647603e+04  -6.304655e+04
  -6.496099e+04   8.349982e+04
  -1.117701e+05   3.325696e+05
  -2.129465e+05   3.564737e+05
  -3.130100e+05   2.334532e+04
  -2.504961e+05  -4.153465e+05
   3.762959e+04  -5.395459e+05
   3.815603e+05  -1.965370e+05
   4.712697e+05   3.059388e+05
   1.384851e+05   5.039761e+05
  -4.033777e+05   2.596868e+05
  -6.624644e+05  -1.359490e+05
  -3.456395e+05  -3.285903e+05
   2.550576e+05  -2.521017e+05
   5.046480e+05  -8.437890e+04
   1.435646e+05   8.540137e+03
  -3.640200e+05  -2.290238e+04
  -3.568588e+05  -1.551509e+05
   2.173842e+05  -2.760616e+05
   7.226204e+05  -1.789283e+05
