
 $NMID
 id='ANONYMOUS ', fmtdat='(2E16.6)'
 volume=1.0
 tramp=1.0
 $END
   3.031744e+07  -2.064690e+06
   2.113848e+07   1.450949e+07
   2.048645e+05   2.008608e+07
  -1.334327e+07   1.236480e+07
  -1.087208e+07   2.336693e+05
  -2.632634e+05  -5.579150e+06
   6.111279e+06  -2.045995e+06
   4.089371e+06   5.039345e+06
  -1.812581e+06   7.702717e+06
  -5.607427e+06   3.287563e+06
  -4.801627e+06  -3.562407e+06
  -8.129005e+05  -5.856565e+06
   2.611738e+06  -1.492104e+06
   2.184490e+06   4.545200e+06
  -1.734992e+06   5.593914e+06
  -4.970650e+06   4.524381e+05
  -3.747510e+06  -5.750573e+06
   1.190918e+06  -7.409370e+06
   5.520012e+06  -3.849962e+06
   5.950824e+06   1.177192e+06
   3.095762e+06   3.919380e+06
   1.727433e+05   3.687517e+06
  -2.829511e+05   2.414775e+06
   1.327331e+06   2.248709e+06
   2.064492e+06   3.467001e+06
  -4.999948e+05   4.280520e+06
  -5.081625e+06   2.822616e+06
  -7.281022e+06  -5.182457e+05
  -4.393352e+06  -3.180556e+06
   1.004077e+06  -3.084431e+06
   3.643433e+06  -7.407566e+05
   1.506876e+06   1.508398e+06
  -2.290039e+06   1.768725e+06
  -3.635444e+06  -1.116626e+05
  -1.850770e+06  -2.666735e+06
   6.386791e+05  -3.704642e+06
   1.638347e+06  -2.007366e+06
   1.000583e+06   9.777970e+05
  -8.984009e+04   1.993714e+06
  -3.873938e+05  -2.620310e+05
   5.856431e+05  -2.926197e+06
   1.983077e+06  -2.184221e+06
   2.031791e+06   1.558338e+06
  -8.875823e+04   3.722343e+06
  -2.713305e+06   1.329903e+06
  -2.941010e+06  -3.086565e+06
   1.577366e+05  -4.604144e+06
   4.096302e+06  -1.716038e+06
   5.214766e+06   2.482386e+06
   2.291426e+06   4.232509e+06
  -2.216996e+06   2.688861e+06
  -4.453122e+06  -2.409244e+05
  -2.726112e+06  -2.142937e+06
   9.654705e+05  -1.851845e+06
   2.969902e+06  -4.382926e+04
   1.693295e+06   1.365201e+06
  -8.756925e+05   9.865347e+05
  -1.607349e+06  -5.440251e+05
   1.106103e+05  -1.277804e+06
   1.820880e+06  -2.819056e+05
   1.115483e+06   1.310255e+06
  -1.471008e+06   1.719254e+06
  -3.146857e+06   3.662075e+05
  -1.974159e+06  -1.877125e+06
   1.256829e+06  -3.542530e+06
   4.038619e+06  -3.334958e+06
   4.495631e+06  -8.962800e+05
   2.759563e+06   2.472580e+06
   4.887183e+05   4.429772e+06
  -7.583789e+05   3.800532e+06
  -8.214725e+05   1.895246e+06
  -7.535625e+05   8.610646e+05
  -1.408466e+06   9.994045e+05
  -2.391641e+06   7.044382e+05
  -2.540266e+06  -9.307325e+05
  -1.274240e+06  -2.567925e+06
   7.280996e+05  -2.260187e+06
   2.073158e+06   4.460707e+04
   1.718017e+06   2.349095e+06
  -2.325882e+05   2.709745e+06
  -2.430103e+06   9.852940e+05
  -3.172765e+06  -1.355292e+06
  -1.908278e+06  -2.689341e+06
   1.242582e+05  -2.500177e+06
   1.196898e+06  -1.549229e+06
   1.080638e+06  -9.436931e+05
   1.178671e+06  -9.583110e+05
   2.442972e+06  -8.127465e+05
   3.774663e+06   3.223990e+05
   3.166185e+06   2.230201e+06
   2.546434e+05   3.688245e+06
  -2.923528e+06   3.531442e+06
  -3.916859e+06   1.660333e+06
  -2.267138e+06  -7.755911e+05
   2.122714e+05  -2.120224e+06
   1.317354e+06  -1.518492e+06
   4.485999e+05   1.828755e+05
  -1.096321e+06   1.107140e+06
  -1.595872e+06   3.355851e+05
  -6.319733e+05  -9.802247e+05
   6.046443e+05  -1.019321e+06
   6.778355e+05   3.132824e+05
  -5.410572e+05   1.119739e+06
  -1.757983e+06  -1.143086e+05
  -1.574468e+06  -2.497922e+06
   2.107773e+05  -3.629642e+06
   2.463031e+06  -2.234923e+06
   3.614010e+06   5.902095e+05
   2.819366e+06   2.654903e+06
   6.481758e+05   2.739110e+06
  -1.250428e+06   1.393777e+06
  -1.527585e+06   1.223984e+05
  -4.536719e+05  -3.657584e+04
   3.526249e+05   6.715543e+05
  -2.370243e+05   1.123072e+06
  -1.511893e+06   5.627133e+05
  -1.783503e+06  -5.667471e+05
  -4.942460e+05  -1.137770e+06
   1.008400e+06  -6.130752e+05
   9.910051e+05   3.869134e+05
  -6.642832e+05   7.784802e+05
  -2.263793e+06   7.572036e+04
  -2.054623e+06  -1.232739e+06
  -7.457345e+03  -2.117085e+06
   2.149807e+06  -1.787826e+06
   2.595643e+06  -3.691846e+05
   1.124876e+06   1.036175e+06
  -7.275880e+05   1.234673e+06
  -1.230344e+06   1.746351e+05
  -1.076734e+05  -8.740269e+05
   1.332595e+06  -6.669803e+05
   1.613962e+06   5.918726e+05
   5.176563e+05   1.500254e+06
  -8.493303e+05   1.106341e+06
  -1.229102e+06  -4.798518e+04
  -4.078104e+05  -6.516106e+05
   6.256930e+05  -1.079795e+05
   6.497638e+05   9.177729e+05
  -5.473517e+05   1.278066e+06
  -1.843014e+06   4.652027e+05
  -1.847056e+06  -9.586922e+05
  -3.876948e+05  -1.865943e+06
   1.223510e+06  -1.535051e+06
   1.557253e+06  -2.970526e+05
   5.542410e+05   7.547762e+05
  -5.525785e+05   8.016181e+05
  -6.818083e+05   6.582466e+04
   2.861231e+04  -5.210817e+05
   6.071146e+05  -3.792331e+05
   4.059122e+05   1.284978e+05
  -2.799591e+05   2.044289e+05
  -5.934257e+05  -4.070202e+05
   1.583346e+04  -1.070537e+06
   1.202011e+06  -8.956884e+05
   1.923676e+06   3.129756e+05
   1.374052e+06   1.749817e+06
  -1.640003e+05   2.277617e+06
  -1.501526e+06   1.468398e+06
  -1.710359e+06   9.615277e+03
  -1.008057e+06  -9.564644e+05
  -3.481002e+05  -9.156321e+05
  -2.673846e+05  -3.766486e+05
  -3.933892e+05  -1.913374e+05
  -7.865983e+04  -5.731087e+05
   7.318531e+05  -8.896006e+05
   1.380079e+06  -4.314854e+05
   1.128478e+06   6.956318e+05
  -1.205586e+05   1.528440e+06
  -1.601439e+06   1.143473e+06
  -2.160949e+06  -3.775971e+05
  -1.188319e+06  -1.897872e+06
   7.387374e+05  -2.207600e+06
   2.227787e+06  -1.119026e+06
   2.277919e+06   4.078469e+05
   1.140845e+06   1.231577e+06
  -6.306586e+04   1.085403e+06
  -5.036421e+05   6.509642e+05
  -3.117320e+05   6.577140e+05
  -1.876795e+05   1.045890e+06
  -5.473995e+05   1.088920e+06
  -1.109174e+06   2.830274e+05
  -1.216614e+06  -9.932518e+05
  -5.234357e+05  -1.755541e+06
   5.774383e+05  -1.340085e+06
   1.210681e+06  -4.989669e+04
   8.240228e+05   1.104236e+06
  -2.158705e+05   1.296347e+06
  -9.395714e+05   5.505909e+05
  -7.620848e+05  -4.081082e+05
  -6.723263e+04  -8.848539e+05
   2.910452e+05  -7.748246e+05
  -1.479447e+03  -4.719413e+05
  -3.668122e+05  -3.450060e+05
  -3.600916e+04  -3.703949e+05
   9.946887e+05  -2.434816e+05
   1.824144e+06   2.274362e+05
   1.518168e+06   8.672872e+05
   1.143692e+05   1.247620e+06
  -1.309700e+06   1.051698e+06
  -1.648224e+06   3.781863e+05
  -8.371930e+05  -2.875041e+05
   1.633907e+05  -4.610425e+05
   4.354840e+05  -1.082121e+05
  -7.245704e+03   2.899648e+05
  -4.565782e+05   2.128347e+05
  -4.315536e+05  -3.124750e+05
  -1.235487e+05  -6.917895e+05
   1.620780e+04  -4.424840e+05
  -1.459683e+05   1.702514e+05
  -3.539051e+05   3.691844e+05
  -2.824983e+05  -2.000860e+05
   1.791078e+05  -9.529482e+05
   8.120753e+05  -9.794324e+05
   1.116887e+06  -1.136213e+05
   6.643575e+05   8.308659e+05
  -3.618251e+05   9.526530e+05
  -1.074504e+06   2.223185e+05
  -6.670530e+05  -5.593120e+05
   6.153538e+05  -6.383646e+05
   1.536222e+06   5.711286e+03
   1.106849e+06   7.711750e+05
  -3.300743e+05   1.034641e+06
  -1.435084e+06   6.295041e+05
  -1.265443e+06  -8.304553e+04
  -1.905571e+05  -5.105672e+05
   5.928650e+05  -3.172044e+05
   3.277776e+05   2.293665e+05
  -5.884174e+05   4.331648e+05
  -1.085501e+06  -1.470555e+05
  -5.306899e+05  -1.129847e+06
   6.521286e+05  -1.540660e+06
   1.430030e+06  -7.585580e+05
   1.172581e+06   7.411616e+05
   1.869540e+05   1.703943e+06
  -6.917623e+05   1.282590e+06
  -8.992502e+05  -8.858873e+04
  -4.920969e+05  -1.114186e+06
   1.084649e+05  -9.764544e+05
   5.037476e+05  -1.273708e+05
   5.092941e+05   3.735445e+05
   2.286329e+05   1.595602e+05
   1.809570e+04  -1.166327e+05
   1.625443e+05   2.127391e+05
   4.499152e+05   8.785137e+05
   2.792404e+05   1.039752e+06
  -5.664282e+05   4.054267e+05
  -1.408209e+06  -4.292416e+05
  -1.298944e+06  -7.851451e+05
  -1.926493e+05  -6.389723e+05
   8.733627e+05  -3.857516e+05
   9.559135e+05  -2.054099e+05
   2.819669e+05  -3.557842e+03
  -1.634382e+05   2.026489e+05
   5.035154e+04   2.454962e+05
   3.368423e+05   1.463667e+05
   1.174009e+04   1.269014e+05
  -7.153123e+05   1.793175e+05
  -9.678644e+05  -3.422028e+04
  -2.754327e+05  -6.194709e+05
   8.676663e+05  -1.042901e+06
   1.524218e+06  -6.519190e+05
   1.206649e+06   4.421194e+05
   2.226503e+05   1.329982e+06
  -6.901589e+05   1.263016e+06
  -9.750175e+05   4.450745e+05
  -6.223688e+05  -2.680680e+05
  -8.756884e+04  -3.302943e+05
   1.371016e+05  -2.224823e+03
  -5.365719e+04   7.858614e+04
  -3.258913e+05  -3.218680e+05
  -2.679399e+05  -7.603723e+05
   1.833398e+05  -6.159804e+05
   6.491888e+05   1.731084e+05
   6.353956e+05   9.427659e+05
   1.569957e+04   9.470166e+05
  -7.474189e+05   1.461606e+05
  -9.339376e+05  -7.471973e+05
  -2.719270e+05  -1.010207e+06
   6.750882e+05  -5.716653e+05
   1.004072e+06   9.014890e+04
   4.563324e+05   5.129523e+05
  -2.557179e+05   5.609279e+05
  -2.865948e+05   3.335832e+05
   3.019411e+05   4.487445e+04
   6.262384e+05  -2.231108e+04
   1.130632e+05   2.715475e+05
  -7.743825e+05   6.452721e+05
  -1.122385e+06   5.668681e+05
  -6.464413e+05  -1.012222e+05
   9.440730e+04  -7.837967e+05
   4.504481e+05  -7.776825e+05
   3.201517e+05  -1.059173e+05
   7.885933e+03   4.745500e+05
  -2.340557e+05   3.661971e+05
  -3.266061e+05  -2.033900e+05
  -2.263516e+05  -5.421233e+05
   6.128349e+04  -3.384551e+05
   3.599542e+05   7.069939e+04
   4.266227e+05   2.155795e+05
   2.303921e+05   4.988448e+04
  -4.431460e+03  -8.603244e+04
  -8.748218e+04   6.502649e+04
  -8.424326e+04   3.630595e+05
  -1.683116e+05   4.296066e+05
  -3.273181e+05   8.081964e+04
  -3.333289e+05  -4.240309e+05
  -2.881524e+04  -6.043710e+05
   4.123251e+05  -2.575636e+05
   5.728404e+05   3.017205e+05
   1.998353e+05   5.598054e+05
  -4.552269e+05   3.330626e+05
  -7.838338e+05  -9.814848e+04
  -4.275951e+05  -3.541894e+05
   2.707642e+05  -3.249872e+05
   5.746193e+05  -1.537665e+05
   1.825052e+05  -1.148666e+04
  -3.894011e+05   3.199576e+03
  -4.011960e+05  -1.360591e+05
   2.207881e+05  -3.088058e+05
   7.910678e+05  -2.387701e+05
