
 $NMID
 id='ANONYMOUS ', fmtdat='(2E16.6)'
 volume=1.0
 tramp=1.0
 $END
   5.816013e+07  -1.431534e+06
   3.579348e+07   3.561241e+07
  -7.043918e+06   3.976353e+07
  -2.839136e+07   1.543178e+07
  -1.712504e+07  -7.325456e+06
   3.412015e+06  -9.740471e+06
   1.018691e+07   1.337682e+06
   2.844313e+06   1.012960e+07
  -6.417988e+06   9.546869e+06
  -9.933717e+06   2.054662e+06
  -7.258184e+06  -6.199169e+06
  -1.001850e+06  -8.706333e+06
   3.975148e+06  -2.929610e+06
   2.712340e+06   5.358677e+06
  -3.811096e+06   6.616374e+06
  -8.115675e+06  -1.320562e+06
  -4.706105e+06  -1.041359e+07
   3.694977e+06  -1.217908e+07
   1.025673e+07  -6.307360e+06
   1.118613e+07   1.781263e+06
   7.122565e+06   7.509228e+06
   1.049710e+06   9.011082e+06
  -2.942716e+06   6.497443e+06
  -2.161577e+06   2.838103e+06
   9.190748e+05   1.961591e+06
   3.845500e+05   4.011218e+06
  -5.178280e+06   4.547926e+06
  -9.649926e+06   8.217554e+05
  -7.276520e+06  -3.943665e+06
  -5.468437e+05  -5.119036e+06
   3.520309e+06  -2.780204e+06
   2.465187e+06  -2.760487e+05
  -4.041493e+05   7.452596e+05
  -2.019073e+06   5.210604e+05
  -2.144218e+06  -1.201050e+06
  -8.959787e+05  -3.791253e+06
   1.652345e+06  -4.009939e+06
   3.389286e+06  -1.404500e+05
   2.002326e+06   3.647397e+06
  -6.873851e+05   2.171340e+06
  -4.566283e+05  -2.291797e+06
   2.425167e+06  -2.307113e+06
   2.541406e+06   3.269759e+06
  -2.482455e+06   6.399776e+06
  -7.292773e+06   1.208135e+06
  -5.494292e+06  -7.070265e+06
   1.817313e+06  -8.885423e+06
   7.588263e+06  -2.664158e+06
   7.118938e+06   4.430871e+06
   1.884863e+06   6.102538e+06
  -3.516605e+06   2.738225e+06
  -5.301487e+06  -1.558730e+06
  -2.423331e+06  -3.557474e+06
   2.496816e+06  -2.274650e+06
   4.657646e+06   9.042854e+05
   2.020776e+06   2.788629e+06
  -1.747156e+06   1.438229e+06
  -1.746461e+06  -1.038517e+06
   1.442551e+06  -9.225145e+05
   2.606079e+06   1.900037e+06
  -6.759353e+05   3.696058e+06
  -4.863805e+06   2.066441e+06
  -5.521245e+06  -1.379007e+06
  -2.435857e+06  -4.092810e+06
   1.696844e+06  -5.386355e+06
   4.890253e+06  -5.000643e+06
   6.194657e+06  -1.944199e+06
   4.753724e+06   3.037953e+06
   1.115707e+06   6.206473e+06
  -1.860427e+06   4.843994e+06
  -1.854922e+06   1.173437e+06
  -1.444936e+05  -4.037731e+05
   2.075458e+05   8.909788e+05
  -1.408459e+06   1.862165e+06
  -2.733160e+06   4.165235e+05
  -2.070187e+06  -1.761439e+06
  -1.331744e+05  -2.057672e+06
   1.449967e+06  -2.260874e+05
   1.652719e+06   1.988554e+06
   7.255406e+04   2.895312e+06
  -2.704237e+06   1.745836e+06
  -4.539389e+06  -1.041599e+06
  -3.397787e+06  -3.716014e+06
  -9.569459e+04  -4.341575e+06
   2.277101e+06  -2.872537e+06
   2.304454e+06  -1.212232e+06
   1.882065e+06  -6.844088e+05
   2.958676e+06  -4.810672e+05
   4.366393e+06   7.339782e+05
   3.512543e+06   2.736140e+06
   1.700395e+05   4.114696e+06
  -3.134477e+06   3.921716e+06
  -4.094453e+06   2.192639e+06
  -2.648618e+06  -3.266912e+05
  -3.589456e+05  -2.187607e+06
   1.017965e+06  -1.955571e+06
   5.631743e+05   5.931348e+03
  -1.048540e+06   1.324749e+06
  -1.910968e+06   4.327764e+05
  -9.664623e+05  -1.193454e+06
   4.841784e+05  -1.110452e+06
   3.969602e+05   4.018039e+05
  -1.132239e+06   6.661170e+05
  -1.907154e+06  -1.398789e+06
  -5.901924e+05  -3.597519e+06
   1.729377e+06  -3.405427e+06
   3.222850e+06  -1.003761e+06
   3.265329e+06   1.523171e+06
   2.190519e+06   2.738018e+06
   4.336391e+05   2.556360e+06
  -1.204853e+06   1.460254e+06
  -1.553801e+06   2.543926e+05
  -4.919520e+05  -4.077298e+04
   3.638584e+05   7.498991e+05
  -4.118496e+05   1.365774e+06
  -1.932792e+06   6.074972e+05
  -2.064829e+06  -8.943887e+05
  -3.883546e+05  -1.441232e+06
   1.178215e+06  -5.740603e+05
   8.678030e+05   4.584397e+05
  -8.748174e+05   4.884343e+05
  -2.158252e+06  -3.659234e+05
  -1.685742e+06  -1.359911e+06
   2.790693e+05  -1.933695e+06
   2.294227e+06  -1.632931e+06
   2.763857e+06  -2.833279e+05
   1.235246e+06   1.269833e+06
  -9.110772e+05   1.539606e+06
  -1.587842e+06   2.183239e+05
  -2.322282e+05  -1.091843e+06
   1.515761e+06  -7.586951e+05
   1.726584e+06   7.841583e+05
   3.220164e+05   1.661431e+06
  -1.117345e+06   9.614221e+05
  -1.260404e+06  -3.422581e+05
  -2.270035e+05  -7.997830e+05
   8.166919e+05  -6.010139e+04
   7.562897e+05   1.051168e+06
  -5.534868e+05   1.434836e+06
  -1.998710e+06   5.727897e+05
  -2.051917e+06  -1.024860e+06
  -4.044362e+05  -2.078485e+06
   1.439352e+06  -1.660130e+06
   1.734374e+06  -2.130361e+05
   4.980257e+05   8.759456e+05
  -6.623405e+05   8.025738e+05
  -6.148789e+05   7.919245e+04
   1.386643e+05  -3.328650e+05
   4.714997e+05  -1.727730e+05
   6.803396e+04   6.776662e+04
  -4.865384e+05  -1.130886e+05
  -5.151966e+05  -7.091173e+05
   2.229714e+05  -1.201294e+06
   1.387264e+06  -9.011265e+05
   2.087000e+06   4.022775e+05
   1.484253e+06   1.933105e+06
  -1.968964e+05   2.414494e+06
  -1.603527e+06   1.398882e+06
  -1.668205e+06  -1.375878e+05
  -8.204954e+05  -8.740539e+05
  -2.971877e+05  -5.942925e+05
  -5.001461e+05  -1.731154e+05
  -6.677285e+05  -3.129017e+05
  -1.074558e+05  -7.851615e+05
   8.816881e+05  -9.027083e+05
   1.441148e+06  -3.139350e+05
   1.024913e+06   7.126126e+05
  -2.633115e+05   1.432719e+06
  -1.712804e+06   1.061391e+06
  -2.237700e+06  -4.740777e+05
  -1.132224e+06  -2.098865e+06
   1.017690e+06  -2.379857e+06
   2.557711e+06  -1.034802e+06
   2.345886e+06   6.742564e+05
   9.223267e+05   1.340592e+06
  -2.299328e+05   9.143204e+05
  -3.659015e+05   4.728738e+05
  -2.301826e+04   7.468469e+05
  -6.174775e+04   1.330724e+06
  -6.615717e+05   1.317054e+06
  -1.302936e+06   3.406669e+05
  -1.352654e+06  -1.061802e+06
  -5.774196e+05  -1.884001e+06
   6.030765e+05  -1.440122e+06
   1.282001e+06  -2.375443e+03
   8.169049e+05   1.290871e+06
  -4.008519e+05   1.405044e+06
  -1.190828e+06   3.927871e+05
  -8.284716e+05  -7.317929e+05
   1.384367e+05  -1.105661e+06
   5.679178e+05  -7.884343e+05
   1.000091e+05  -4.039699e+05
  -4.414350e+05  -3.210622e+05
  -6.756323e+04  -3.776245e+05
   1.159697e+06  -2.179735e+05
   2.084027e+06   3.168859e+05
   1.627794e+06   1.033709e+06
  -4.475904e+04   1.456611e+06
  -1.603342e+06   1.168107e+06
  -1.840622e+06   2.785744e+05
  -8.346635e+05  -5.202609e+05
   2.652785e+05  -5.886578e+05
   5.221599e+05  -2.676418e+04
   4.899273e+04   4.381575e+05
  -4.274598e+05   2.668651e+05
  -4.887222e+05  -3.346838e+05
  -2.855588e+05  -7.069062e+05
  -1.252627e+05  -4.711486e+05
  -1.365211e+05   7.753191e+04
  -2.598209e+05   2.687941e+05
  -2.727661e+05  -2.329881e+05
   1.190276e+05  -9.749210e+05
   8.863961e+05  -1.079712e+06
   1.386140e+06  -2.141016e+05
   8.930971e+05   8.964666e+05
  -3.965219e+05   1.168144e+06
  -1.265844e+06   3.819403e+05
  -7.424321e+05  -5.535110e+05
   7.023150e+05  -6.505145e+05
   1.576632e+06   9.753390e+04
   9.756954e+05   8.656246e+05
  -5.057365e+05   9.727158e+05
  -1.489918e+06   4.500717e+05
  -1.209199e+06  -2.045357e+05
  -1.224588e+05  -5.071753e+05
   6.515029e+05  -2.614539e+05
   3.984389e+05   2.973978e+05
  -5.604058e+05   5.422090e+05
  -1.182165e+06  -4.014329e+04
  -7.149779e+05  -1.153061e+06
   5.265540e+05  -1.716802e+06
   1.447852e+06  -9.272085e+05
   1.265051e+06   7.239177e+05
   2.321917e+05   1.775956e+06
  -7.222076e+05   1.282850e+06
  -9.214550e+05  -1.863932e+05
  -4.228487e+05  -1.188865e+06
   2.385439e+05  -9.556657e+05
   5.700524e+05  -7.933133e+04
   4.465721e+05   3.676412e+05
   1.387647e+05   1.297486e+05
   5.786394e+04  -8.899728e+04
   3.216662e+05   3.037165e+05
   5.364422e+05   9.622428e+05
   1.733946e+05   1.070366e+06
  -7.434992e+05   4.020420e+05
  -1.471617e+06  -4.420137e+05
  -1.257940e+06  -8.192910e+05
  -1.915222e+05  -7.006857e+05
   8.169590e+05  -4.314098e+05
   9.693994e+05  -1.850379e+05
   3.855612e+05   6.142962e+04
  -1.302786e+05   2.292748e+05
  -6.715987e+04   1.919778e+05
   2.281678e+05   7.386933e+04
   6.687376e+04   1.282590e+05
  -6.154099e+05   2.583586e+05
  -1.048690e+06   2.131752e+04
  -5.011195e+05  -6.831483e+05
   7.781105e+05  -1.212682e+06
   1.703865e+06  -8.215352e+05
   1.463268e+06   3.741993e+05
   3.199959e+05   1.390150e+06
  -7.448741e+05   1.404342e+06
  -1.034636e+06   5.872068e+05
  -6.522875e+05  -1.961758e+05
  -1.585499e+05  -3.540530e+05
   3.318797e+04  -8.780330e+04
  -9.565245e+04  -6.619940e+03
  -2.912129e+05  -3.741178e+05
  -2.493505e+05  -8.034907e+05
   1.543126e+05  -6.905018e+05
   6.732434e+05   7.801095e+04
   7.833119e+05   9.033912e+05
   1.862913e+05   1.027985e+06
  -7.183156e+05   3.034485e+05
  -1.062480e+06  -6.555406e+05
  -4.030710e+05  -1.079165e+06
   6.854894e+05  -7.246606e+05
   1.138164e+06   3.184113e+04
   5.722086e+05   6.231164e+05
  -2.685179e+05   7.215766e+05
  -4.013765e+05   3.889181e+05
   2.099880e+05  -8.354330e+03
   6.377514e+05  -6.153647e+04
   1.678779e+05   3.098664e+05
  -8.075283e+05   6.945764e+05
  -1.277888e+06   5.473628e+05
  -8.053683e+05  -1.831312e+05
   6.863762e+04  -8.855302e+05
   5.600161e+05  -8.879639e+05
   4.556346e+05  -2.032504e+05
   8.529165e+04   4.601671e+05
  -2.181324e+05   4.613494e+05
  -3.509173e+05  -1.038630e+05
  -2.753367e+05  -5.679352e+05
   2.881409e+04  -4.585691e+05
   3.921495e+05   1.839175e+04
   4.970845e+05   2.896970e+05
   2.471708e+05   1.107991e+05
  -5.809253e+04  -1.743047e+05
  -8.918321e+04  -9.635085e+04
   6.792291e+04   3.266904e+05
   3.720327e+04   5.831841e+05
  -2.851129e+05   2.889174e+05
  -5.116423e+05  -3.201603e+05
  -2.372214e+05  -6.317893e+05
   3.792029e+05  -3.424453e+05
   6.938621e+05   2.337358e+05
   2.880099e+05   5.495949e+05
  -5.062083e+05   3.867834e+05
  -9.040145e+05  -3.076403e+04
  -5.008232e+05  -3.609605e+05
   2.790125e+05  -4.357539e+05
   6.384961e+05  -2.812993e+05
   2.773377e+05  -3.416681e+04
  -3.019830e+05   1.047814e+05
  -3.904349e+05  -1.193699e+04
   1.284611e+05  -2.694942e+05
   6.808107e+05  -2.917084e+05
