
 $NMID
 id='ANONYMOUS ', fmtdat='(2E16.6)'
 volume=1.0
 tramp=1.0
 $END
  -3.042845e+07  -5.036411e+05
  -1.883904e+07  -1.700064e+07
   2.534588e+06  -1.983765e+07
   1.411370e+07  -9.911907e+06
   9.742707e+06   1.519976e+06
  -6.905592e+05   5.166132e+06
  -5.626166e+06   8.806423e+05
  -2.897952e+06  -5.042910e+06
   2.445313e+06  -6.528631e+06
   5.406295e+06  -2.274803e+06
   4.304772e+06   3.664183e+06
   5.095205e+05   5.486946e+06
  -2.562288e+06   1.408797e+06
  -1.887184e+06  -4.055035e+06
   1.904879e+06  -4.786447e+06
   4.629005e+06   1.487575e+05
   2.999602e+06   5.758512e+06
  -1.801328e+06   6.927853e+06
  -5.691301e+06   3.330620e+06
  -5.902995e+06  -1.511172e+06
  -3.030731e+06  -4.251903e+06
   1.184762e+05  -4.093571e+06
   9.909515e+05  -2.531337e+06
  -5.172283e+05  -1.756915e+06
  -1.688410e+06  -2.635110e+06
   2.679582e+05  -3.682553e+06
   4.494606e+06  -2.681265e+06
   6.712008e+06   4.112789e+05
   4.166006e+06   3.064215e+06
  -7.588772e+05   3.083250e+06
  -3.245534e+06   9.726433e+05
  -1.577636e+06  -1.070032e+06
   1.571833e+06  -1.485583e+06
   2.892444e+06  -1.286792e+05
   1.744003e+06   2.065058e+06
  -3.008579e+05   3.301686e+06
  -1.557703e+06   2.045640e+06
  -1.333481e+06  -8.336604e+05
  -1.389851e+05  -2.133898e+06
   5.661433e+05  -1.506213e+05
  -2.845591e+05   2.477169e+06
  -1.780487e+06   1.852351e+06
  -1.689025e+06  -1.651668e+06
   6.758939e+05  -3.435016e+06
   3.060167e+06  -7.625135e+05
   2.621543e+06   3.488612e+06
  -7.414624e+05   4.507763e+06
  -4.148121e+06   1.348762e+06
  -4.616683e+06  -2.593356e+06
  -1.744688e+06  -3.895923e+06
   2.112790e+06  -2.205331e+06
   3.844011e+06   4.896910e+05
   2.173761e+06   2.040976e+06
  -1.105033e+06   1.533674e+06
  -2.740354e+06  -2.472330e+05
  -1.393142e+06  -1.423164e+06
   9.236460e+05  -8.487545e+05
   1.358562e+06   5.560976e+05
  -2.838380e+05   9.305704e+05
  -1.516551e+06  -1.761873e+05
  -4.769402e+05  -1.371101e+06
   1.840440e+06  -1.263817e+06
   2.946295e+06   1.570971e+05
   1.592369e+06   2.005303e+06
  -1.292775e+06   3.298044e+06
  -3.726117e+06   3.056988e+06
  -4.205250e+06   8.035071e+05
  -2.641349e+06  -2.362987e+06
  -3.815226e+05  -4.127783e+06
   9.107021e+05  -3.336919e+06
   8.178902e+05  -1.425555e+06
   4.508425e+05  -5.778241e+05
   9.352634e+05  -9.589635e+05
   1.974163e+06  -8.623689e+05
   2.304649e+06   5.939198e+05
   1.278255e+06   2.124758e+06
  -4.670843e+05   1.963088e+06
  -1.689268e+06   5.220924e+04
  -1.482872e+06  -1.944436e+06
   1.647919e+05  -2.369308e+06
   2.180851e+06  -9.438210e+05
   2.959553e+06   1.214798e+06
   1.795402e+06   2.583961e+06
  -2.132835e+05   2.457152e+06
  -1.304085e+06   1.458651e+06
  -1.147359e+06   7.568281e+05
  -1.103982e+06   7.194474e+05
  -2.149285e+06   5.976909e+05
  -3.293130e+06  -3.936233e+05
  -2.723211e+06  -2.020452e+06
  -1.668539e+05  -3.217192e+06
   2.568796e+06  -3.063848e+06
   3.420856e+06  -1.489330e+06
   2.034006e+06   6.202740e+05
  -9.511186e+04   1.866646e+06
  -1.110875e+06   1.391926e+06
  -4.145457e+05  -1.351559e+05
   9.464213e+05  -9.837140e+05
   1.421990e+06  -2.775651e+05
   5.777037e+05   8.977493e+05
  -5.030104e+05   8.942495e+05
  -5.244369e+05  -2.605502e+05
   5.254344e+05  -8.352783e+05
   1.427224e+06   3.226643e+05
   1.097335e+06   2.242100e+06
  -4.150879e+05   2.949580e+06
  -2.138278e+06   1.648268e+06
  -2.961808e+06  -6.342895e+05
  -2.299492e+06  -2.238196e+06
  -5.303605e+05  -2.296514e+06
   1.068543e+06  -1.205423e+06
   1.320853e+06  -1.234862e+05
   3.941063e+05   3.494067e+04
  -2.960806e+05  -5.877582e+05
   2.511274e+05  -9.852074e+05
   1.364554e+06  -4.540359e+05
   1.543835e+06   5.606819e+05
   3.806000e+05   1.012777e+06
  -8.860631e+05   5.021020e+05
  -8.190759e+05  -3.339370e+05
   5.822294e+05  -5.995764e+05
   1.884289e+06   3.585727e+03
   1.684393e+06   1.049270e+06
  -2.928627e+04   1.757688e+06
  -1.851711e+06   1.489515e+06
  -2.240412e+06   2.863784e+05
  -9.610764e+05  -9.329593e+05
   6.759838e+05  -1.090350e+06
   1.113206e+06  -1.283519e+05
   9.479521e+04   7.915429e+05
  -1.176330e+06   5.692615e+05
  -1.382258e+06  -5.474105e+05
  -3.967812e+05  -1.293563e+06
   7.589188e+05  -9.000530e+05
   1.031934e+06   9.237228e+04
   3.063884e+05   5.662528e+05
  -5.619318e+05   6.732533e+04
  -5.600824e+05  -8.161854e+05
   4.839190e+05  -1.116758e+06
   1.610590e+06  -4.002921e+05
   1.606468e+06   8.488313e+05
   3.157743e+05   1.631788e+06
  -1.092310e+06   1.315091e+06
  -1.353848e+06   2.258321e+05
  -4.547123e+05  -6.600144e+05
   4.903571e+05  -6.755845e+05
   5.717029e+05  -6.322030e+04
  -2.953756e+04   4.048279e+05
  -4.813231e+05   2.987688e+05
  -2.951679e+05  -7.487570e+04
   2.502027e+05  -1.058833e+05
   4.711589e+05   3.934002e+05
  -5.952277e+04   9.216488e+05
  -1.060533e+06   7.510682e+05
  -1.664775e+06  -2.976141e+05
  -1.176895e+06  -1.536829e+06
   1.584339e+05  -1.967517e+06
   1.296419e+06  -1.234958e+06
   1.444257e+06   1.398935e+04
   8.373678e+05   7.903226e+05
   3.142863e+05   7.263724e+05
   2.830330e+05   3.072946e+05
   3.722175e+05   2.062060e+05
   5.477960e+04   5.284514e+05
  -6.533622e+05   7.512274e+05
  -1.182895e+06   3.431341e+05
  -9.466343e+05  -5.918930e+05
   1.212939e+05  -1.280866e+06
   1.383633e+06  -9.538404e+05
   1.852953e+06   3.475935e+05
   9.887801e+05   1.653001e+06
  -6.938299e+05   1.893154e+06
  -1.953813e+06   9.146085e+05
  -1.937484e+06  -4.001111e+05
  -9.296334e+05  -1.054706e+06
   6.905594e+04  -8.865300e+05
   3.945484e+05  -5.375917e+05
   2.264372e+05  -5.996131e+05
   1.628797e+05  -9.511941e+05
   5.057638e+05  -9.593719e+05
   9.852130e+05  -2.352464e+05
   1.056386e+06   8.724745e+05
   4.446460e+05   1.526965e+06
  -5.070331e+05   1.159640e+06
  -1.042993e+06   2.791154e+04
  -6.873784e+05  -9.752812e+05
   2.250561e+05  -1.111529e+06
   8.329819e+05  -4.237260e+05
   6.365581e+05   4.087484e+05
   4.936745e+03   7.770045e+05
  -2.966956e+05   6.423545e+05
  -1.044446e+04   3.840679e+05
   3.280023e+05   2.975331e+05
   3.519427e+04   3.208769e+05
  -8.765734e+05   1.900016e+05
  -1.596085e+06  -2.320040e+05
  -1.302273e+06  -7.795544e+05
  -5.323194e+04  -1.088761e+06
   1.178985e+06  -8.938156e+05
   1.433467e+06  -2.900823e+05
   6.964093e+05   2.849451e+05
  -1.673037e+05   4.072667e+05
  -3.805325e+05   7.169606e+04
   8.705271e+03  -2.775210e+05
   3.901199e+05  -1.934872e+05
   3.768692e+05   2.757133e+05
   1.311666e+05   6.073735e+05
   7.184996e+03   3.944914e+05
   1.161917e+05  -1.309451e+05
   2.795998e+05  -3.059857e+05
   2.372511e+05   1.767941e+05
  -1.461570e+05   8.237975e+05
  -7.163313e+05   8.474615e+05
  -1.008444e+06   9.083914e+04
  -6.002137e+05  -7.406560e+05
   3.334819e+05  -8.475269e+05
   9.639424e+05  -2.005177e+05
   5.831821e+05   4.839174e+05
  -5.421639e+05   5.406331e+05
  -1.313237e+06  -2.446526e+04
  -9.166697e+05  -6.656501e+05
   3.073897e+05  -8.603401e+05
   1.222563e+06  -5.029547e+05
   1.062969e+06   8.784078e+04
   1.514473e+05   4.307029e+05
  -5.123909e+05   2.566307e+05
  -2.861707e+05  -2.134204e+05
   5.077071e+05  -3.901762e+05
   9.527282e+05   1.167011e+05
   4.817208e+05   9.852631e+05
  -5.519845e+05   1.356478e+06
  -1.239948e+06   6.744567e+05
  -1.019116e+06  -6.391201e+05
  -1.605042e+05  -1.472968e+06
   5.976108e+05  -1.093940e+06
   7.647718e+05   9.461546e+04
   4.022611e+05   9.600958e+05
  -1.137404e+05   8.208076e+05
  -4.381131e+05   9.492519e+04
  -4.250842e+05  -3.138651e+05
  -1.826142e+05  -1.243566e+05
  -1.987326e+04   9.188011e+04
  -1.579961e+05  -2.101186e+05
  -3.917109e+05  -7.724468e+05
  -2.178689e+05  -8.857049e+05
   5.139117e+05  -3.313449e+05
   1.213413e+06   3.752651e+05
   1.100594e+06   6.747227e+05
   1.590960e+05   5.568800e+05
  -7.414168e+05   3.415147e+05
  -8.182169e+05   1.704452e+05
  -2.532409e+05  -1.643339e+04
   1.363873e+05  -1.803089e+05
  -2.766706e+04  -1.915962e+05
  -2.755621e+05  -1.046646e+05
  -1.886400e+04  -1.132960e+05
   6.015963e+05  -1.740222e+05
   8.455619e+05   2.734497e+04
   2.676082e+05   5.588386e+05
  -7.414334e+05   9.267615e+05
  -1.347601e+06   5.701847e+05
  -1.079980e+06  -3.883535e+05
  -2.008422e+05  -1.155460e+06
   6.118260e+05  -1.098755e+06
   8.556946e+05  -3.986922e+05
   5.427636e+05   2.202600e+05
   8.442036e+04   2.922629e+05
  -1.068421e+05   2.446464e+04
   4.610240e+04  -4.950328e+04
   2.683402e+05   2.814666e+05
   2.217986e+05   6.560481e+05
  -1.584407e+05   5.412257e+05
  -5.665692e+05  -1.346418e+05
  -5.704362e+05  -8.119345e+05
  -3.474133e+04  -8.370615e+05
   6.470185e+05  -1.531248e+05
   8.270054e+05   6.346304e+05
   2.481779e+05   8.862106e+05
  -5.918629e+05   5.131282e+05
  -8.857205e+05  -7.899713e+04
  -4.002174e+05  -4.668784e+05
   2.343773e+05  -5.052685e+05
   2.690412e+05  -2.848385e+05
  -2.471710e+05  -2.213103e+04
  -5.407074e+05   2.422987e+04
  -1.025782e+05  -2.431883e+05
   6.721688e+05  -5.567784e+05
   9.845780e+05  -4.680477e+05
   5.726678e+05   1.135796e+05
  -8.518179e+04   6.892522e+05
  -4.130107e+05   6.742710e+05
  -3.044544e+05   9.566154e+04
  -2.055206e+04  -4.096966e+05
   2.054897e+05  -3.302262e+05
   2.913187e+05   1.594659e+05
   1.992760e+05   4.720476e+05
  -5.695347e+04   3.121190e+05
  -3.173551e+05  -5.455536e+04
  -3.704226e+05  -2.027399e+05
  -1.948683e+05  -5.436117e+04
   5.521053e+03   9.268750e+04
   6.204979e+04  -2.839480e+04
   4.387611e+04  -3.166247e+05
   1.222572e+05  -4.096040e+05
   2.897390e+05  -1.071615e+05
   3.230159e+05   3.598766e+05
   5.688572e+04   5.383255e+05
  -3.541293e+05   2.368573e+05
  -5.154210e+05  -2.568795e+05
  -1.860439e+05  -4.843200e+05
   4.024381e+05  -2.893304e+05
   6.957726e+05   8.298572e+04
   3.770766e+05   3.102418e+05
  -2.420967e+05   2.955527e+05
  -5.124490e+05   1.472709e+05
  -1.737956e+05   5.869397e+03
   3.264982e+05  -2.652556e+04
   3.511739e+05   9.492781e+04
  -1.703438e+05   2.647503e+05
  -6.623969e+05   2.214052e+05
