
 $NMID
 id='ANONYMOUS ', fmtdat='(2E16.6)'
 volume=1.0
 tramp=1.0
 $END
   5.844117e+07   1.191103e+06
   3.450286e+07   3.721111e+07
  -8.666838e+06   3.962227e+07
  -2.922390e+07   1.445427e+07
  -1.705945e+07  -7.954096e+06
   3.768344e+06  -9.694007e+06
   1.027670e+07   1.675286e+06
   2.542324e+06   1.034848e+07
  -6.864272e+06   9.480035e+06
  -1.014420e+07   1.718628e+06
  -7.042572e+06  -6.602398e+06
  -5.812941e+05  -8.864522e+06
   4.154102e+06  -2.735725e+06
   2.469164e+06   5.626879e+06
  -4.173517e+06   6.593925e+06
  -8.153737e+06  -1.653774e+06
  -4.305172e+06  -1.071782e+07
   4.255965e+06  -1.212744e+07
   1.060557e+07  -5.879352e+06
   1.113760e+07   2.323846e+06
   6.758378e+06   7.846472e+06
   6.387716e+05   9.016752e+06
  -3.152784e+06   6.355367e+06
  -2.173327e+06   2.857347e+06
   8.608642e+05   2.198800e+06
   9.887044e+04   4.153922e+06
  -5.560588e+06   4.284351e+06
  -9.826859e+06   2.580699e+05
  -7.120109e+06  -4.377831e+06
  -2.209955e+05  -5.149818e+06
   3.749955e+06  -2.532985e+06
   2.454336e+06  -5.684967e+04
  -6.014513e+05   7.555986e+05
  -2.193477e+06   3.369898e+05
  -2.084206e+06  -1.445008e+06
  -6.107061e+05  -3.917161e+06
   1.887197e+06  -3.919315e+06
   3.331538e+06   5.874142e+04
   1.768181e+06   3.726618e+06
  -7.551048e+05   2.061929e+06
  -2.559990e+05  -2.401567e+06
   2.608876e+06  -2.241056e+06
   2.442779e+06   3.407990e+06
  -2.726609e+06   6.359190e+06
  -7.325346e+06   9.432880e+05
  -5.202820e+06  -7.314449e+06
   2.188639e+06  -8.848264e+06
   7.753088e+06  -2.335280e+06
   7.020252e+06   4.826405e+06
   1.656957e+06   6.306789e+06
  -3.711443e+06   2.647752e+06
  -5.361187e+06  -1.821348e+06
  -2.344331e+06  -3.736816e+06
   2.608385e+06  -2.213086e+06
   4.675526e+06   1.108102e+06
   1.936882e+06   2.902674e+06
  -1.824043e+06   1.375770e+06
  -1.744580e+06  -1.141823e+06
   1.473359e+06  -9.224229e+05
   2.586956e+06   1.963953e+06
  -7.466140e+05   3.678385e+06
  -4.928810e+06   1.913203e+06
  -5.518939e+06  -1.582317e+06
  -2.301957e+06  -4.222020e+06
   1.993818e+06  -5.358126e+06
   5.245612e+06  -4.792827e+06
   6.376453e+06  -1.621746e+06
   4.620256e+06   3.328659e+06
   7.931923e+05   6.345894e+06
  -2.112514e+06   4.853667e+06
  -1.940028e+06   1.171110e+06
  -1.945294e+05  -3.654426e+05
   6.197205e+04   8.955099e+05
  -1.591795e+06   1.742554e+06
  -2.797302e+06   1.921554e+05
  -1.962048e+06  -1.967111e+06
   4.185086e+04  -2.119649e+06
   1.539313e+06  -1.140184e+05
   1.581085e+06   2.173023e+06
  -1.103642e+05   2.971893e+06
  -2.856685e+06   1.602440e+06
  -4.531250e+06  -1.325892e+06
  -3.223552e+06  -3.933720e+06
   1.223808e+05  -4.368682e+06
   2.419298e+06  -2.778440e+06
   2.368751e+06  -1.130935e+06
   1.947479e+06  -6.298924e+05
   3.059122e+06  -3.546898e+05
   4.437096e+06   9.754488e+05
   3.454616e+06   2.991413e+06
  -5.200812e+04   4.232012e+06
  -3.443239e+06   3.842699e+06
  -4.329246e+06   1.992372e+06
  -2.678188e+06  -5.108448e+05
  -2.081228e+05  -2.258900e+06
   1.172333e+06  -1.922698e+06
   5.688168e+05   4.735336e+04
  -1.157622e+06   1.290119e+06
  -1.975716e+06   3.353513e+05
  -9.116863e+05  -1.266975e+06
   5.704097e+05  -1.107788e+06
   4.047403e+05   4.407838e+05
  -1.184850e+06   6.629980e+05
  -1.910423e+06  -1.475760e+06
  -4.838502e+05  -3.707232e+06
   1.901424e+06  -3.464662e+06
   3.371974e+06  -9.383517e+05
   3.324128e+06   1.718342e+06
   2.137310e+06   2.966208e+06
   3.038201e+05   2.679650e+06
  -1.330368e+06   1.429942e+06
  -1.612816e+06   1.631626e+05
  -5.028319e+05  -6.990777e+04
   3.322695e+05   7.903948e+05
  -4.891884e+05   1.374867e+06
  -2.003880e+06   5.205138e+05
  -2.069016e+06  -1.018418e+06
  -3.291770e+05  -1.494763e+06
   1.240919e+06  -5.289889e+05
   8.774593e+05   5.239284e+05
  -9.269774e+05   4.753593e+05
  -2.223435e+06  -4.818511e+05
  -1.684139e+06  -1.505347e+06
   3.903915e+05  -1.997174e+06
   2.459311e+06  -1.561781e+06
   2.860377e+06  -1.380079e+05
   1.198536e+06   1.366377e+06
  -1.012241e+06   1.520887e+06
  -1.628475e+06   1.378308e+05
  -1.729902e+05  -1.123929e+06
   1.595540e+06  -6.921416e+05
   1.733139e+06   8.970584e+05
   2.494602e+05   1.728773e+06
  -1.197817e+06   9.412199e+05
  -1.285987e+06  -4.097650e+05
  -2.011856e+05  -8.347871e+05
   8.364580e+05  -2.147439e+04
   7.154021e+05   1.118842e+06
  -6.515888e+05   1.438668e+06
  -2.084057e+06   4.703726e+05
  -2.045860e+06  -1.169566e+06
  -2.986972e+05  -2.155213e+06
   1.567158e+06  -1.625613e+06
   1.793450e+06  -1.265653e+05
   4.681371e+05   9.275286e+05
  -7.245891e+05   7.914341e+05
  -6.426898e+05   4.233358e+04
   1.615137e+05  -3.496586e+05
   5.106253e+05  -1.590539e+05
   8.488967e+04   8.682016e+04
  -4.915036e+05  -1.207306e+05
  -5.025080e+05  -7.460585e+05
   2.851498e+05  -1.224020e+06
   1.473404e+06  -8.523207e+05
   2.122069e+06   5.288986e+05
   1.415180e+06   2.068420e+06
  -3.405547e+05   2.471981e+06
  -1.732976e+06   1.354934e+06
  -1.719240e+06  -2.331789e+05
  -8.034879e+05  -9.601501e+05
  -2.656888e+05  -6.510111e+05
  -4.864376e+05  -2.139208e+05
  -6.574529e+05  -3.476403e+05
  -6.859815e+04  -8.029711e+05
   9.536091e+05  -8.824814e+05
   1.504923e+06  -2.474588e+05
   1.021990e+06   7.974654e+05
  -3.504053e+05   1.472120e+06
  -1.825501e+06   1.001651e+06
  -2.278632e+06  -6.137695e+05
  -1.052525e+06  -2.222094e+06
   1.169787e+06  -2.392329e+06
   2.682778e+06  -9.299091e+05
   2.383349e+06   8.170416e+05
   8.879236e+05   1.437174e+06
  -2.861705e+05   9.443156e+05
  -4.185047e+05   4.729944e+05
  -8.271109e+04   7.559873e+05
  -1.423095e+05   1.348822e+06
  -7.476039e+05   1.309057e+06
  -1.351310e+06   2.760539e+05
  -1.326326e+06  -1.167840e+06
  -4.842901e+05  -1.968799e+06
   7.033376e+05  -1.444712e+06
   1.319830e+06   6.884558e+04
   7.717590e+05   1.369341e+06
  -4.829205e+05   1.424366e+06
  -1.241256e+06   3.508265e+05
  -8.162565e+05  -7.830813e+05
   1.901349e+05  -1.125014e+06
   6.158981e+05  -7.865168e+05
   1.230088e+05  -4.175933e+05
  -4.313379e+05  -3.566662e+05
  -4.574068e+04  -3.922491e+05
   1.200211e+06  -1.622560e+05
   2.118319e+06   4.379098e+05
   1.616157e+06   1.150058e+06
  -1.174034e+05   1.492138e+06
  -1.702807e+06   1.111225e+06
  -1.906725e+06   1.893897e+05
  -8.367483e+05  -5.725583e+05
   2.990151e+05  -5.868178e+05
   5.373669e+05  -3.887167e+03
   2.540435e+04   4.445475e+05
  -4.569041e+05   2.459602e+05
  -4.815305e+05  -3.712750e+05
  -2.435754e+05  -7.407545e+05
  -9.373317e+04  -4.878553e+05
  -1.484914e+05   7.715164e+04
  -2.923182e+05   2.653337e+05
  -2.692315e+05  -2.547841e+05
   1.833576e+05  -9.958218e+05
   9.712703e+05  -1.057610e+06
   1.424112e+06  -1.403089e+05
   8.565942e+05   9.675752e+05
  -4.702869e+05   1.169869e+06
  -1.312801e+06   3.148941e+05
  -7.284883e+05  -6.132365e+05
   7.575642e+05  -6.311213e+05
   1.620790e+06   1.874893e+05
   9.655926e+05   9.487998e+05
  -5.706527e+05   9.819745e+05
  -1.565373e+06   3.881256e+05
  -1.241989e+06  -2.770321e+05
  -1.001941e+05  -5.325488e+05
   6.857126e+05  -2.359894e+05
   3.911300e+05   3.245119e+05
  -6.089467e+05   5.189670e+05
  -1.208553e+06  -1.151347e+05
  -6.590162e+05  -1.225455e+06
   6.474928e+05  -1.725995e+06
   1.542829e+06  -8.612364e+05
   1.256168e+06   8.202131e+05
   1.336022e+05   1.840315e+06
  -8.192445e+05   1.281413e+06
  -9.409376e+05  -2.405076e+05
  -3.719172e+05  -1.249039e+06
   2.956550e+05  -9.766072e+05
   5.902451e+05  -5.273963e+04
   4.424602e+05   4.078384e+05
   1.399339e+05   1.463548e+05
   6.339744e+04  -9.108608e+04
   3.069850e+05   3.226374e+05
   4.935633e+05   1.017144e+06
   1.224728e+05   1.115603e+06
  -7.805064e+05   3.757659e+05
  -1.488528e+06  -5.407100e+05
  -1.252489e+06  -9.188604e+05
  -1.578452e+05  -7.305714e+05
   8.703805e+05  -3.923758e+05
   1.010772e+06  -1.350103e+05
   3.898075e+05   7.951388e+04
  -1.492057e+05   2.262829e+05
  -7.521058e+04   2.004404e+05
   2.354330e+05   9.701181e+04
   5.820556e+04   1.347084e+05
  -6.538803e+05   2.226535e+05
  -1.076829e+06  -4.120497e+04
  -4.649457e+05  -7.244512e+05
   8.751611e+05  -1.192401e+06
   1.791131e+06  -7.414905e+05
   1.470338e+06   4.696305e+05
   2.436621e+05   1.446804e+06
  -8.445022e+05   1.397801e+06
  -1.094713e+06   5.377623e+05
  -6.575641e+05  -2.444460e+05
  -1.390724e+05  -3.713104e+05
   4.319846e+04  -8.070955e+04
  -9.817154e+04  -6.310672e+03
  -2.817482e+05  -4.010994e+05
  -2.118897e+05  -8.416803e+05
   1.998018e+05  -6.980037e+05
   6.858750e+05   1.253434e+05
   7.447082e+05   9.766249e+05
   1.234220e+05   1.062019e+06
  -7.563561e+05   2.603763e+05
  -1.047079e+06  -7.410686e+05
  -3.460375e+05  -1.129458e+06
   7.452433e+05  -6.982207e+05
   1.162751e+06   1.000128e+05
   5.496181e+05   6.670431e+05
  -3.145686e+05   7.193990e+05
  -4.288585e+05   3.773611e+05
   2.210270e+05   9.497376e+03
   6.597889e+05  -2.371021e+04
   1.526627e+05   3.258255e+05
  -8.709016e+05   6.666733e+05
  -1.342108e+06   4.943677e+05
  -8.128756e+05  -2.274278e+05
   1.219984e+05  -9.027346e+05
   6.208360e+05  -8.793765e+05
   4.714019e+05  -1.807070e+05
   5.576237e+04   4.784548e+05
  -2.506580e+05   4.569633e+05
  -3.516553e+05  -1.331179e+05
  -2.482110e+05  -5.993226e+05
   5.548154e+04  -4.633833e+05
   4.001035e+05   4.440819e+04
   4.935253e+05   3.220047e+05
   2.491115e+05   1.248968e+05
  -4.888779e+04  -1.765807e+05
  -9.066758e+04  -9.513978e+04
   4.073706e+04   3.389581e+05
  -4.023333e+03   5.890723e+05
  -3.079508e+05   2.677249e+05
  -4.954512e+05  -3.617660e+05
  -1.957687e+05  -6.584139e+05
   4.110732e+05  -3.248803e+05
   6.929317e+05   2.828847e+05
   2.590729e+05   5.821908e+05
  -5.406397e+05   3.672638e+05
  -9.218232e+05  -8.595000e+04
  -4.911319e+05  -3.996269e+05
   3.101067e+05  -4.266907e+05
   6.680455e+05  -2.465958e+05
   2.819005e+05  -2.010359e+04
  -3.200714e+05   8.177065e+04
  -3.992442e+05  -4.307528e+04
   1.550335e+05  -2.701424e+05
   7.246377e+05  -2.543836e+05
