
 $NMID
 id='ANONYMOUS ', fmtdat='(2E16.6)'
 volume=1.0
 tramp=1.0
 $END
  -5.746540e+07   1.172337e+05
  -3.470876e+07  -3.560011e+07
   7.524753e+06  -3.899901e+07
   2.823234e+07  -1.499519e+07
   1.691279e+07   7.205070e+06
  -3.386378e+06   9.573251e+06
  -1.009424e+07  -1.272116e+06
  -2.837591e+06  -1.002987e+07
   6.390315e+06  -9.552731e+06
   9.891762e+06  -2.025578e+06
   7.126216e+06   6.329770e+06
   8.145383e+05   8.762199e+06
  -4.055752e+06   2.793946e+06
  -2.640266e+06  -5.543444e+06
   3.885949e+06  -6.670028e+06
   8.054542e+06   1.376298e+06
   4.532925e+06   1.042655e+07
  -3.862396e+06   1.204676e+07
  -1.029957e+07   6.038629e+06
  -1.101802e+07  -2.060735e+06
  -6.782216e+06  -7.596362e+06
  -7.668099e+05  -8.818227e+06
   2.937553e+06  -6.229970e+06
   1.933071e+06  -2.815838e+06
  -1.048257e+06  -2.214163e+06
  -2.196319e+05  -4.213249e+06
   5.481802e+06  -4.428512e+06
   9.800458e+06  -4.852861e+05
   7.160370e+06   4.192300e+06
   2.759204e+05   5.121832e+06
  -3.745931e+06   2.593042e+06
  -2.476215e+06   3.376669e+04
   6.334979e+05  -8.895984e+05
   2.289228e+06  -4.410358e+05
   2.181655e+06   1.454349e+06
   6.840854e+05   3.960425e+06
  -1.814834e+06   3.915732e+06
  -3.274404e+06  -6.360191e+04
  -1.764908e+06  -3.669016e+06
   7.453568e+05  -1.976570e+06
   3.169724e+05   2.467885e+06
  -2.523169e+06   2.330009e+06
  -2.504233e+06  -3.271061e+06
   2.477219e+06  -6.292308e+06
   7.109698e+06  -1.080798e+06
   5.255173e+06   7.053578e+06
  -1.929780e+06   8.722244e+06
  -7.573446e+06   2.479738e+06
  -7.085223e+06  -4.560755e+06
  -1.859511e+06  -6.178409e+06
   3.573505e+06  -2.756158e+06
   5.375887e+06   1.597134e+06
   2.465363e+06   3.593738e+06
  -2.481016e+06   2.253384e+06
  -4.631986e+06  -9.491504e+05
  -1.994734e+06  -2.789420e+06
   1.755702e+06  -1.401859e+06
   1.774148e+06   1.064238e+06
  -1.372749e+06   9.566321e+05
  -2.567601e+06  -1.800269e+06
   6.049599e+05  -3.556376e+06
   4.735186e+06  -1.982462e+06
   5.440211e+06   1.378988e+06
   2.379038e+06   4.069590e+06
  -1.843851e+06   5.360109e+06
  -5.109229e+06   4.907474e+06
  -6.303915e+06   1.763382e+06
  -4.656484e+06  -3.211953e+06
  -9.468120e+05  -6.286813e+06
   1.925014e+06  -4.874283e+06
   1.835661e+06  -1.251108e+06
   1.983176e+05   2.810304e+05
  -2.220985e+04  -9.540279e+05
   1.618907e+06  -1.786892e+06
   2.838516e+06  -2.268401e+05
   2.033193e+06   1.968220e+06
   2.187431e+03   2.169242e+06
  -1.581201e+06   1.785113e+05
  -1.684454e+06  -2.141066e+06
   2.113986e+04  -2.992813e+06
   2.823762e+06  -1.672285e+06
   4.550187e+06   1.223253e+06
   3.283935e+06   3.834231e+06
  -2.979147e+04   4.316917e+06
  -2.320372e+06   2.786544e+06
  -2.290536e+06   1.173501e+06
  -1.892956e+06   6.961106e+05
  -3.027785e+06   4.691021e+05
  -4.456312e+06  -8.159239e+05
  -3.551697e+06  -2.866908e+06
  -9.478076e+04  -4.234017e+06
   3.322137e+06  -3.965737e+06
   4.287377e+06  -2.132586e+06
   2.707666e+06   4.476494e+05
   2.637439e+05   2.278162e+06
  -1.135313e+06   1.965331e+06
  -5.737198e+05  -3.836094e+04
   1.125152e+06  -1.331059e+06
   1.961990e+06  -3.958293e+05
   9.409946e+05   1.240405e+06
  -5.408244e+05   1.134336e+06
  -4.335293e+05  -4.150213e+05
   1.124431e+06  -7.130277e+05
   1.927628e+06   1.357186e+06
   6.353864e+05   3.626418e+06
  -1.704675e+06   3.516450e+06
  -3.280804e+06   1.102377e+06
  -3.392865e+06  -1.549602e+06
  -2.285804e+06  -2.879452e+06
  -4.205005e+05  -2.684808e+06
   1.288960e+06  -1.485251e+06
   1.618464e+06  -2.167292e+05
   5.062374e+05   5.265389e+04
  -3.602610e+05  -7.789702e+05
   4.403444e+05  -1.383310e+06
   1.976869e+06  -5.820456e+05
   2.094141e+06   9.406420e+05
   3.817187e+05   1.472776e+06
  -1.218614e+06   5.741145e+05
  -9.049344e+05  -4.869780e+05
   8.954107e+05  -5.190936e+05
   2.244302e+06   3.781862e+05
   1.762257e+06   1.433597e+06
  -2.993552e+05   2.021998e+06
  -2.403122e+06   1.663936e+06
  -2.860077e+06   2.433732e+05
  -1.243031e+06  -1.321782e+06
   9.622997e+05  -1.546348e+06
   1.616599e+06  -1.855675e+05
   2.027735e+05   1.117130e+06
  -1.572711e+06   7.447613e+05
  -1.764250e+06  -8.321969e+05
  -3.189653e+05  -1.715007e+06
   1.152111e+06  -9.889760e+05
   1.297210e+06   3.514071e+05
   2.369972e+05   8.189738e+05
  -8.295407e+05   4.860177e+04
  -7.512330e+05  -1.095530e+06
   6.066902e+05  -1.462860e+06
   2.073998e+06  -5.398903e+05
   2.088392e+06   1.103601e+06
   3.725365e+05   2.146293e+06
  -1.509205e+06   1.679674e+06
  -1.787420e+06   1.920794e+05
  -5.038612e+05  -9.075860e+05
   6.939536e+05  -8.189372e+05
   6.480479e+05  -6.787783e+04
  -1.383901e+05   3.627853e+05
  -5.073632e+05   1.926870e+05
  -1.063171e+05  -7.639464e+04
   4.789652e+05   9.481252e+04
   5.269945e+05   7.149044e+05
  -2.358558e+05   1.228551e+06
  -1.441373e+06   9.053035e+05
  -2.142614e+06  -4.542801e+05
  -1.488348e+06  -2.022151e+06
   2.537096e+05  -2.490492e+06
   1.685190e+06  -1.426475e+06
   1.734536e+06   1.625100e+05
   8.549149e+05   9.335539e+05
   3.038834e+05   6.582722e+05
   4.925030e+05   2.141023e+05
   6.571010e+05   3.282394e+05
   9.056935e+04   7.958062e+05
  -9.195879e+05   9.172437e+05
  -1.497463e+06   3.080281e+05
  -1.061435e+06  -7.600345e+05
   2.881554e+05  -1.493139e+06
   1.790598e+06  -1.074927e+06
   2.307039e+06   5.307470e+05
   1.136663e+06   2.183946e+06
  -1.079957e+06   2.431555e+06
  -2.644663e+06   1.027687e+06
  -2.414814e+06  -7.228562e+05
  -9.527567e+05  -1.399996e+06
   2.394756e+05  -9.627751e+05
   4.041132e+05  -5.038150e+05
   7.162215e+04  -7.681186e+05
   1.081331e+05  -1.351980e+06
   7.050632e+05  -1.329443e+06
   1.341109e+06  -3.186837e+05
   1.368130e+06   1.126175e+06
   5.531360e+05   1.957189e+06
  -6.556432e+05   1.473016e+06
  -1.324620e+06  -2.041344e+04
  -8.209861e+05  -1.339173e+06
   4.275722e+05  -1.438937e+06
   1.218132e+06  -3.980839e+05
   8.362194e+05   7.440019e+05
  -1.468897e+05   1.121199e+06
  -5.775326e+05   8.040907e+05
  -1.012585e+05   4.243648e+05
   4.441577e+05   3.461725e+05
   5.878829e+04   3.933914e+05
  -1.192177e+06   2.034928e+05
  -2.130960e+06  -3.660049e+05
  -1.657000e+06  -1.092161e+06
   6.202367e+04  -1.489631e+06
   1.660803e+06  -1.165397e+06
   1.897790e+06  -2.595468e+05
   8.551484e+05   5.336418e+05
  -2.782017e+05   5.918175e+05
  -5.334740e+05   2.486192e+04
  -3.463471e+04  -4.408881e+05
   4.533880e+05  -2.626493e+05
   4.945255e+05   3.562404e+05
   2.642402e+05   7.402482e+05
   1.047437e+05   4.902072e+05
   1.439510e+05  -8.774221e+04
   2.853355e+05  -2.852886e+05
   2.795248e+05   2.444225e+05
  -1.510786e+05   1.008947e+06
  -9.371660e+05   1.092178e+06
  -1.417215e+06   1.803908e+05
  -8.841877e+05  -9.453736e+05
   4.348133e+05  -1.182380e+06
   1.304393e+06  -3.515738e+05
   7.517998e+05   5.922840e+05
  -7.346116e+05   6.592581e+05
  -1.631713e+06  -1.254660e+05
  -1.009124e+06  -9.095837e+05
   5.271627e+05  -1.005752e+06
   1.551201e+06  -4.548716e+05
   1.257747e+06   2.250572e+05
   1.237611e+05   5.297096e+05
  -6.761401e+05   2.633884e+05
  -3.997404e+05  -3.108486e+05
   5.978492e+05  -5.400695e+05
   1.218230e+06   7.915241e+04
   6.985414e+05   1.212507e+06
  -5.986400e+05   1.755069e+06
  -1.523873e+06   9.145458e+05
  -1.289572e+06  -7.819173e+05
  -1.980442e+05  -1.843426e+06
   7.748271e+05  -1.317719e+06
   9.507755e+05   2.030973e+05
   4.210282e+05   1.236324e+06
  -2.543414e+05   9.896460e+05
  -5.868407e+05   7.498740e+04
  -4.630800e+05  -3.919470e+05
  -1.512731e+05  -1.404857e+05
  -5.760435e+04   9.395332e+04
  -3.101944e+05  -3.138438e+05
  -5.271462e+05  -1.003213e+06
  -1.684399e+05  -1.112274e+06
   7.623901e+05  -4.011848e+05
   1.513233e+06   4.899540e+05
   1.294140e+06   8.745535e+05
   1.838243e+05   7.257665e+05
  -8.646945e+05   4.264006e+05
  -1.009975e+06   1.736895e+05
  -3.879214e+05  -6.578226e+04
   1.440352e+05  -2.328493e+05
   6.095111e+04  -2.030726e+05
  -2.477217e+05  -8.876175e+04
  -6.085327e+04  -1.349920e+05
   6.564195e+05  -2.475470e+05
   1.082169e+06   6.770547e+03
   4.816397e+05   7.154070e+05
  -8.454037e+05   1.226161e+06
  -1.770386e+06   7.981028e+05
  -1.485828e+06  -4.291562e+05
  -2.920490e+05  -1.445931e+06
   7.993047e+05  -1.428257e+06
   1.082507e+06  -5.726056e+05
   6.710703e+05   2.257799e+05
   1.494598e+05   3.693350e+05
  -4.807425e+04   8.204887e+04
   9.423715e+04   5.417512e+01
   2.980734e+05   3.892822e+05
   2.436776e+05   8.357697e+05
  -1.787947e+05   7.065966e+05
  -6.961361e+05  -1.058752e+05
  -7.792069e+05  -9.609290e+05
  -1.528074e+05  -1.064863e+06
   7.572194e+05  -2.833393e+05
   1.077097e+06   7.147406e+05
   3.813636e+05   1.123739e+06
  -7.278547e+05   7.220816e+05
  -1.168333e+06  -6.455067e+04
  -5.683101e+05  -6.488593e+05
   2.942022e+05  -7.269832e+05
   4.135955e+05  -3.889895e+05
  -2.286147e+05  -9.088299e+02
  -6.632148e+05   4.605156e+04
  -1.617527e+05  -3.219034e+05
   8.509630e+05  -6.991560e+05
   1.323149e+06  -5.426717e+05
   8.156144e+05   1.998091e+05
  -9.370327e+04   9.081938e+05
  -5.900326e+05   8.984413e+05
  -4.640300e+05   1.902250e+05
  -7.060747e+04  -4.821470e+05
   2.389017e+05  -4.647671e+05
   3.605456e+05   1.262750e+05
   2.686191e+05   5.937436e+05
  -4.400277e+04   4.633510e+05
  -4.040809e+05  -3.332248e+04
  -5.024370e+05  -3.042527e+05
  -2.523484e+05  -1.140260e+05
   5.033656e+04   1.733011e+05
   8.942664e+04   8.477246e+04
  -4.752747e+04  -3.458745e+05
  -3.190037e+03  -5.917930e+05
   3.083629e+05  -2.721614e+05
   5.064908e+05   3.559787e+05
   2.105417e+05   6.601340e+05
  -4.055545e+05   3.389390e+05
  -7.036619e+05  -2.658409e+05
  -2.782169e+05  -5.790674e+05
   5.293060e+05  -3.851138e+05
   9.265208e+05   5.930718e+04
   5.049338e+05   3.856392e+05
  -2.991511e+05   4.350176e+05
  -6.636227e+05   2.646333e+05
  -2.789607e+05   2.655081e+04
   3.261343e+05  -9.209636e+04
   4.074859e+05   3.400488e+04
  -1.489437e+05   2.821499e+05
  -7.260200e+05   2.836440e+05
