
 $NMID
 id='ANONYMOUS ', fmtdat='(2E16.6)'
 volume=1.0
 tramp=1.0
 $END
   6.061485e+07  -1.006724e+06
   3.659727e+07   3.777448e+07
  -8.129792e+06   4.133203e+07
  -2.967459e+07   1.527184e+07
  -1.734198e+07  -8.193354e+06
   3.868865e+06  -9.964369e+06
   1.036334e+07   1.790709e+06
   2.536841e+06   1.047859e+07
  -6.816173e+06   9.463806e+06
  -1.019679e+07   1.804441e+06
  -7.414269e+06  -6.404330e+06
  -1.028836e+06  -8.887254e+06
   4.087535e+06  -3.068143e+06
   2.785063e+06   5.319231e+06
  -3.933077e+06   6.569691e+06
  -8.296556e+06  -1.540085e+06
  -4.692427e+06  -1.077529e+07
   3.963766e+06  -1.250061e+07
   1.067868e+07  -6.458960e+06
   1.165735e+07   1.874136e+06
   7.478713e+06   7.902192e+06
   1.048028e+06   9.566747e+06
  -3.328830e+06   6.832969e+06
  -2.570922e+06   2.713307e+06
   8.566068e+05   1.627187e+06
   5.930873e+05   3.918432e+06
  -5.070133e+06   4.779772e+06
  -9.807025e+06   1.057121e+06
  -7.545145e+06  -3.963333e+06
  -7.449718e+05  -5.351840e+06
   3.471674e+06  -3.074832e+06
   2.628551e+06  -5.169677e+05
  -6.300326e+04   6.919627e+05
  -1.768857e+06   7.225858e+05
  -2.236210e+06  -9.400614e+05
  -1.161206e+06  -3.776240e+06
   1.639643e+06  -4.227413e+06
   3.698296e+06  -2.359701e+05
   2.232850e+06   3.861816e+06
  -7.977052e+05   2.457645e+06
  -6.704671e+05  -2.195083e+06
   2.390071e+06  -2.295465e+06
   2.527730e+06   3.407262e+06
  -2.771385e+06   6.546207e+06
  -7.729737e+06   1.067284e+06
  -5.652691e+06  -7.484724e+06
   2.054305e+06  -9.223119e+06
   7.893989e+06  -2.701631e+06
   7.203299e+06   4.556778e+06
   1.807385e+06   6.160897e+06
  -3.562914e+06   2.682232e+06
  -5.256599e+06  -1.644690e+06
  -2.320493e+06  -3.605979e+06
   2.628284e+06  -2.248322e+06
   4.751010e+06   1.011329e+06
   1.999123e+06   2.897743e+06
  -1.822658e+06   1.455738e+06
  -1.719054e+06  -1.055349e+06
   1.557488e+06  -8.093137e+05
   2.577001e+06   2.149264e+06
  -9.623115e+05   3.860923e+06
  -5.199982e+06   1.984734e+06
  -5.658320e+06  -1.604459e+06
  -2.408349e+06  -4.281164e+06
   1.707207e+06  -5.528114e+06
   4.881372e+06  -5.169107e+06
   6.302306e+06  -2.079638e+06
   4.951388e+06   3.055005e+06
   1.207879e+06   6.318758e+06
  -1.927952e+06   4.854575e+06
  -1.893334e+06   1.028002e+06
   2.789024e+03  -5.351620e+05
   4.514378e+05   9.363475e+05
  -1.262372e+06   2.059802e+06
  -2.758536e+06   6.388747e+05
  -2.209915e+06  -1.608042e+06
  -3.017697e+05  -2.023306e+06
   1.338423e+06  -3.199192e+05
   1.663047e+06   1.855008e+06
   1.613961e+05   2.867403e+06
  -2.683834e+06   1.850334e+06
  -4.660527e+06  -9.543268e+05
  -3.546158e+06  -3.782003e+06
  -1.143926e+05  -4.505990e+06
   2.386190e+06  -2.978597e+06
   2.410800e+06  -1.203265e+06
   1.907907e+06  -6.309542e+05
   2.934208e+06  -4.555941e+05
   4.339623e+06   7.178878e+05
   3.506590e+06   2.690332e+06
   2.140663e+05   4.069696e+06
  -3.032434e+06   3.935722e+06
  -4.007068e+06   2.287951e+06
  -2.669468e+06  -2.235244e+05
  -4.702526e+05  -2.168337e+06
   9.359492e+05  -2.006371e+06
   5.749558e+05  -2.398149e+04
  -1.002337e+06   1.347167e+06
  -1.906219e+06   4.574284e+05
  -1.002718e+06  -1.193320e+06
   4.386009e+05  -1.112534e+06
   3.514777e+05   3.823616e+05
  -1.151312e+06   5.785013e+05
  -1.843702e+06  -1.515278e+06
  -4.530467e+05  -3.602949e+06
   1.820787e+06  -3.248654e+06
   3.168296e+06  -8.328341e+05
   3.121308e+06   1.533673e+06
   2.101677e+06   2.608132e+06
   4.542924e+05   2.450778e+06
  -1.144343e+06   1.461788e+06
  -1.522615e+06   2.966130e+05
  -4.862477e+05  -3.248553e+04
   3.676047e+05   7.365979e+05
  -4.122579e+05   1.366503e+06
  -1.936332e+06   6.157030e+05
  -2.055879e+06  -8.928276e+05
  -3.768410e+05  -1.436256e+06
   1.160917e+06  -5.693040e+05
   8.354337e+05   4.342597e+05
  -8.590380e+05   4.430450e+05
  -2.077216e+06  -3.703932e+05
  -1.615199e+06  -1.292795e+06
   2.643111e+05  -1.853242e+06
   2.219718e+06  -1.611160e+06
   2.712057e+06  -3.110734e+05
   1.234526e+06   1.253580e+06
  -9.005460e+05   1.554313e+06
  -1.598144e+06   2.320922e+05
  -2.542866e+05  -1.098410e+06
   1.495407e+06  -7.741215e+05
   1.707117e+06   7.640863e+05
   3.116627e+05   1.628023e+06
  -1.101697e+06   9.265374e+05
  -1.226293e+06  -3.519951e+05
  -2.042319e+05  -7.876307e+05
   8.207640e+05  -5.801176e+04
   7.674282e+05   1.035961e+06
  -5.211178e+05   1.434006e+06
  -1.967934e+06   6.061483e+05
  -2.049386e+06  -9.798378e+05
  -4.276051e+05  -2.052095e+06
   1.408997e+06  -1.655895e+06
   1.709422e+06  -2.216122e+05
   4.893137e+05   8.592247e+05
  -6.462275e+05   7.910332e+05
  -5.900429e+05   9.473704e+04
   1.345637e+05  -2.958693e+05
   4.274726e+05  -1.563452e+05
   2.386230e+04   3.882541e+04
  -4.897199e+05  -1.556784e+05
  -4.907423e+05  -7.202248e+05
   2.293745e+05  -1.185101e+06
   1.362869e+06  -8.989128e+05
   2.064270e+06   3.721015e+05
   1.493904e+06   1.889414e+06
  -1.556896e+05   2.379037e+06
  -1.548356e+06   1.382933e+06
  -1.618013e+06  -1.192789e+05
  -7.967593e+05  -8.155076e+05
  -3.118894e+05  -5.265605e+05
  -5.351954e+05  -1.426857e+05
  -6.904643e+05  -3.235659e+05
  -1.137732e+05  -7.958131e+05
   8.644231e+05  -8.933469e+05
   1.403503e+06  -3.160397e+05
   9.999985e+05   6.721934e+05
  -2.432289e+05   1.383601e+06
  -1.662646e+06   1.053620e+06
  -2.200398e+06  -4.356232e+05
  -1.129219e+06  -2.052136e+06
   9.943097e+05  -2.353792e+06
   2.518659e+06  -1.032518e+06
   2.299685e+06   6.523488e+05
   8.910682e+05   1.294385e+06
  -2.206492e+05   8.646856e+05
  -3.191928e+05   4.513594e+05
   2.825500e+04   7.573487e+05
  -3.092586e+04   1.347108e+06
  -6.475726e+05   1.325243e+06
  -1.295615e+06   3.566356e+05
  -1.357529e+06  -1.026489e+06
  -6.023334e+05  -1.848943e+06
   5.689341e+05  -1.430938e+06
   1.259294e+06  -1.750460e+04
   8.127188e+05   1.269981e+06
  -3.949463e+05   1.385547e+06
  -1.181933e+06   3.720703e+05
  -8.160135e+05  -7.468740e+05
   1.534526e+05  -1.102635e+06
   5.783638e+05  -7.686728e+05
   1.002679e+05  -3.815735e+05
  -4.492660e+05  -3.051493e+05
  -7.767421e+04  -3.700582e+05
   1.149866e+06  -2.239439e+05
   2.073200e+06   2.937791e+05
   1.616887e+06   1.005904e+06
  -4.787543e+04   1.444286e+06
  -1.589568e+06   1.173684e+06
  -1.813476e+06   2.847666e+05
  -8.128603e+05  -5.238811e+05
   2.682075e+05  -5.927151e+05
   5.172467e+05  -2.065402e+04
   5.686825e+04   4.505865e+05
  -4.106676e+05   2.782948e+05
  -4.907807e+05  -3.230348e+05
  -3.150266e+05  -6.950710e+05
  -1.501388e+05  -4.689319e+05
  -1.255594e+05   6.596871e+04
  -2.299276e+05   2.585461e+05
  -2.680901e+05  -2.261761e+05
   8.930765e+04  -9.607017e+05
   8.596449e+05  -1.082375e+06
   1.392420e+06  -2.369151e+05
   9.187972e+05   8.786626e+05
  -3.799159e+05   1.177088e+06
  -1.263606e+06   4.107851e+05
  -7.469408e+05  -5.286809e+05
   6.855474e+05  -6.464309e+05
   1.542294e+06   7.860625e+04
   9.467211e+05   8.320606e+05
  -4.957245e+05   9.420687e+05
  -1.444116e+06   4.412755e+05
  -1.170577e+06  -1.896200e+05
  -1.203375e+05  -4.887410e+05
   6.362652e+05  -2.574106e+05
   4.013712e+05   2.957148e+05
  -5.381469e+05   5.574592e+05
  -1.174312e+06  -5.567809e+03
  -7.459188e+05  -1.124470e+06
   4.712811e+05  -1.718200e+06
   1.406424e+06  -9.571500e+05
   1.263626e+06   6.838720e+05
   2.649317e+05   1.741901e+06
  -6.837551e+05   1.265537e+06
  -9.015040e+05  -1.784446e+05
  -4.230738e+05  -1.159288e+06
   2.310239e+05  -9.282416e+05
   5.618987e+05  -7.866183e+04
   4.349117e+05   3.459608e+05
   1.269935e+05   1.150604e+05
   5.886477e+04  -8.207385e+04
   3.378052e+05   3.112331e+05
   5.508534e+05   9.451129e+05
   1.742292e+05   1.040429e+06
  -7.426568e+05   3.977269e+05
  -1.454017e+06  -4.072126e+05
  -1.237149e+06  -7.774278e+05
  -1.976928e+05  -6.889601e+05
   7.834840e+05  -4.469910e+05
   9.436772e+05  -1.965374e+05
   3.888967e+05   6.679396e+04
  -1.193275e+05   2.319294e+05
  -7.544708e+04   1.751185e+05
   2.127923e+05   5.170986e+04
   7.555975e+04   1.270089e+05
  -5.858174e+05   2.809477e+05
  -1.037832e+06   4.540470e+04
  -5.314262e+05  -6.777486e+05
   7.317311e+05  -1.228234e+06
   1.681360e+06  -8.507964e+05
   1.475926e+06   3.398751e+05
   3.508798e+05   1.364512e+06
  -7.142513e+05   1.403224e+06
  -1.014319e+06   6.110058e+05
  -6.488348e+05  -1.699498e+05
  -1.706528e+05  -3.496137e+05
   2.050467e+04  -1.038695e+05
  -9.499850e+04  -1.872127e+04
  -2.842466e+05  -3.650253e+05
  -2.546823e+05  -7.846813e+05
   1.366846e+05  -6.893116e+05
   6.672913e+05   5.059471e+04
   8.057864e+05   8.685978e+05
   2.222570e+05   1.020297e+06
  -6.994006e+05   3.343228e+05
  -1.073423e+06  -6.125996e+05
  -4.300545e+05  -1.062186e+06
   6.642495e+05  -7.423093e+05
   1.133899e+06   7.071776e+03
   5.817798e+05   6.185338e+05
  -2.579288e+05   7.319145e+05
  -4.031988e+05   3.895900e+05
   1.946876e+05  -2.467630e+04
   6.251592e+05  -7.779973e+04
   1.758568e+05   3.074467e+05
  -7.818089e+05   6.995853e+05
  -1.257661e+06   5.491973e+05
  -8.081397e+05  -1.824914e+05
   5.095818e+04  -8.816784e+05
   5.501903e+05  -8.880556e+05
   4.649652e+05  -2.142329e+05
   1.041541e+05   4.496163e+05
  -2.064603e+05   4.690755e+05
  -3.533386e+05  -8.163257e+04
  -2.857769e+05  -5.552157e+05
   2.063828e+04  -4.669356e+05
   3.905267e+05   4.421461e+03
   4.972142e+05   2.870156e+05
   2.427459e+05   1.126774e+05
  -6.316143e+04  -1.842605e+05
  -8.083420e+04  -1.150969e+05
   9.617807e+04   3.204404e+05
   6.893089e+04   6.010162e+05
  -2.775044e+05   3.193080e+05
  -5.365046e+05  -2.970322e+05
  -2.721962e+05  -6.268639e+05
   3.631631e+05  -3.556496e+05
   7.027735e+05   2.110602e+05
   3.051819e+05   5.340340e+05
  -4.965046e+05   3.927175e+05
  -9.037525e+05  -8.710013e+03
  -5.061987e+05  -3.471903e+05
   2.706435e+05  -4.462230e+05
   6.334374e+05  -3.020699e+05
   2.846311e+05  -3.717240e+04
  -2.857547e+05   1.271983e+05
  -3.864104e+05   1.419108e+04
   1.049973e+05  -2.649838e+05
   6.461511e+05  -3.116590e+05
