
 $NMID
 id='ANONYMOUS ', fmtdat='(2E16.6)'
 volume=1.0
 tramp=1.0
 $END
   3.929291e+07  -4.680913e+05
   2.486266e+07   2.204824e+07
  -3.089051e+06   2.610102e+07
  -1.837805e+07   1.264744e+07
  -1.255822e+07  -2.500336e+06
   1.119550e+06  -6.756753e+06
   7.284931e+06  -7.655725e+05
   3.455466e+06   6.638364e+06
  -3.400112e+06   8.102248e+06
  -6.963205e+06   2.687879e+06
  -5.468676e+06  -4.548607e+06
  -7.228859e+05  -6.800410e+06
   3.129052e+06  -1.882704e+06
   2.307517e+06   4.856929e+06
  -2.471189e+06   5.841343e+06
  -5.912759e+06  -2.738306e+05
  -3.832121e+06  -7.317957e+06
   2.240668e+06  -8.839688e+06
   7.179467e+06  -4.409749e+06
   7.611156e+06   1.638791e+06
   4.210349e+06   5.277454e+06
   1.918081e+05   5.439537e+06
  -1.329166e+06   3.599696e+06
   1.881147e+05   2.288135e+06
   1.767775e+06   2.957343e+06
  -2.231237e+05   4.253780e+06
  -5.225809e+06   3.362070e+06
  -8.128221e+06  -2.304312e+05
  -5.283251e+06  -3.587675e+06
   6.214218e+05  -3.814063e+06
   3.718490e+06  -1.385266e+06
   1.896283e+06   9.976593e+05
  -1.658786e+06   1.530795e+06
  -3.166389e+06   1.519322e+05
  -2.011496e+06  -2.231788e+06
   1.697398e+05  -3.817456e+06
   1.749926e+06  -2.647132e+06
   1.813493e+06   7.409021e+05
   4.912737e+05   2.625948e+06
  -5.971967e+05   4.958589e+05
   2.372041e+05  -2.784007e+06
   2.145921e+06  -2.205746e+06
   2.117573e+06   2.140749e+06
  -9.891502e+05   4.479238e+06
  -4.182108e+06   1.073988e+06
  -3.570252e+06  -4.497998e+06
   9.025558e+05  -5.909863e+06
   5.276543e+06  -1.848434e+06
   5.744887e+06   3.220875e+06
   2.070373e+06   4.835778e+06
  -2.652287e+06   2.648042e+06
  -4.680659e+06  -7.166881e+05
  -2.568158e+06  -2.597763e+06
   1.483565e+06  -1.919197e+06
   3.475997e+06   3.472124e+05
   1.733381e+06   1.845306e+06
  -1.181712e+06   1.090582e+06
  -1.633564e+06  -7.160036e+05
   5.232144e+05  -1.107615e+06
   1.977981e+06   4.545463e+05
   4.340192e+05   1.995831e+06
  -2.579846e+06   1.674062e+06
  -3.836490e+06  -3.092088e+05
  -2.020155e+06  -2.619048e+06
   1.500456e+06  -4.120500e+06
   4.416693e+06  -3.826615e+06
   5.108437e+06  -1.139240e+06
   3.371731e+06   2.766008e+06
   5.922804e+05   5.045803e+06
  -1.174203e+06   4.095354e+06
  -1.126554e+06   1.622871e+06
  -5.066781e+05   4.884155e+05
  -8.988615e+05   1.040238e+06
  -2.146231e+06   1.113744e+06
  -2.672860e+06  -5.241163e+05
  -1.561793e+06  -2.364471e+06
   4.559455e+05  -2.243364e+06
   1.896593e+06  -6.287373e+04
   1.713332e+06   2.247981e+06
  -1.547975e+05   2.794263e+06
  -2.567135e+06   1.210359e+06
  -3.631773e+06  -1.336268e+06
  -2.333695e+06  -3.104060e+06
   1.491986e+05  -3.107162e+06
   1.612929e+06  -1.922918e+06
   1.490631e+06  -9.727786e+05
   1.398372e+06  -8.387001e+05
   2.605565e+06  -6.784044e+05
   3.959826e+06   4.954344e+05
   3.259424e+06   2.428338e+06
   1.961582e+05   3.837569e+06
  -3.034324e+06   3.651669e+06
  -4.021549e+06   1.815323e+06
  -2.416840e+06  -6.619871e+05
   4.207332e+04  -2.177079e+06
   1.253631e+06  -1.673558e+06
   4.945065e+05   1.344912e+05
  -1.100224e+06   1.179671e+06
  -1.709003e+06   3.474890e+05
  -7.276897e+05  -1.070337e+06
   5.769989e+05  -1.056104e+06
   5.861813e+05   3.324528e+05
  -7.146942e+05   9.509551e+05
  -1.753331e+06  -5.369241e+05
  -1.208363e+06  -2.818838e+06
   6.973166e+05  -3.503039e+06
   2.666362e+06  -1.809140e+06
   3.473697e+06   8.859889e+05
   2.618737e+06   2.673662e+06
   5.818170e+05   2.685497e+06
  -1.249398e+06   1.419002e+06
  -1.549253e+06   1.584236e+05
  -4.675025e+05  -4.140785e+04
   3.517374e+05   7.013541e+05
  -3.091199e+05   1.196430e+06
  -1.656811e+06   5.544684e+05
  -1.863709e+06  -6.931356e+05
  -4.443536e+05  -1.236338e+06
   1.067577e+06  -5.917963e+05
   9.515981e+05   4.094511e+05
  -7.236875e+05   6.777608e+05
  -2.220321e+06  -6.745570e+04
  -1.936345e+06  -1.268838e+06
   8.258069e+04  -2.055008e+06
   2.204511e+06  -1.732351e+06
   2.658088e+06  -3.265899e+05
   1.150427e+06   1.124256e+06
  -8.078562e+05   1.326078e+06
  -1.352240e+06   1.682397e+05
  -1.344436e+05  -9.534979e+05
   1.403590e+06  -6.858911e+05
   1.645993e+06   6.667311e+05
   4.448139e+05   1.550991e+06
  -9.356852e+05   1.049585e+06
  -1.230670e+06  -1.478288e+05
  -3.426898e+05  -6.948306e+05
   6.877312e+05  -8.208050e+04
   6.773335e+05   9.718179e+05
  -5.635790e+05   1.331761e+06
  -1.907655e+06   4.879706e+05
  -1.914243e+06  -1.000068e+06
  -3.783480e+05  -1.944145e+06
   1.308904e+06  -1.567391e+06
   1.617642e+06  -2.578744e+05
   5.303518e+05   7.960660e+05
  -5.930020e+05   7.983667e+05
  -6.644128e+05   7.090903e+04
   5.699183e+04  -4.584654e+05
   5.585936e+05  -3.194531e+05
   3.026761e+05   9.555927e+04
  -3.329629e+05   9.387384e+04
  -5.558830e+05  -5.033619e+05
   9.151291e+04  -1.107372e+06
   1.269751e+06  -8.887914e+05
   1.979170e+06   3.570346e+05
   1.400787e+06   1.825939e+06
  -1.894653e+05   2.329302e+06
  -1.542593e+06   1.442840e+06
  -1.697740e+06  -4.118875e+04
  -9.532889e+05  -9.291980e+05
  -3.451665e+05  -8.161352e+05
  -3.508818e+05  -3.251751e+05
  -4.763108e+05  -2.449468e+05
  -7.651337e+04  -6.448048e+05
   7.864095e+05  -8.883889e+05
   1.401770e+06  -3.885839e+05
   1.097518e+06   7.031306e+05
  -1.672700e+05   1.497840e+06
  -1.644240e+06   1.111908e+06
  -2.189386e+06  -4.210096e+05
  -1.159911e+06  -1.971990e+06
   8.465979e+05  -2.256934e+06
   2.342887e+06  -1.074175e+06
   2.295995e+06   5.056355e+05
   1.066979e+06   1.265671e+06
  -1.123620e+05   1.027822e+06
  -4.560295e+05   6.017946e+05
  -2.275761e+05   7.013403e+05
  -1.652386e+05   1.146457e+06
  -6.005726e+05   1.159248e+06
  -1.179518e+06   2.898134e+05
  -1.258767e+06  -1.030082e+06
  -5.309026e+05  -1.808664e+06
   5.975203e+05  -1.374750e+06
   1.236824e+06  -2.742488e+04
   8.129699e+05   1.171214e+06
  -2.853226e+05   1.327478e+06
  -1.018465e+06   4.878848e+05
  -7.702827e+05  -5.187848e+05
   1.127460e+04  -9.499055e+05
   3.839117e+05  -7.688382e+05
   2.937375e+04  -4.476912e+05
  -3.921620e+05  -3.435853e+05
  -4.466102e+04  -3.759179e+05
   1.051364e+06  -2.254234e+05
   1.910230e+06   2.752305e+05
   1.549221e+06   9.345441e+05
   5.016338e+04   1.312902e+06
  -1.418195e+06   1.075397e+06
  -1.713618e+06   3.334787e+05
  -8.283719e+05  -3.657894e+05
   2.040688e+05  -4.985047e+05
   4.616629e+05  -7.724746e+04
   2.853814e+03   3.410120e+05
  -4.524883e+05   2.307524e+05
  -4.495621e+05  -3.250346e+05
  -1.726550e+05  -7.075435e+05
  -2.594653e+04  -4.600404e+05
  -1.398944e+05   1.414199e+05
  -3.221779e+05   3.420080e+05
  -2.785537e+05  -2.119630e+05
   1.649862e+05  -9.664042e+05
   8.474166e+05  -1.009618e+06
   1.212783e+06  -1.299246e+05
   7.343645e+05   8.683350e+05
  -3.877266e+05   1.022759e+06
  -1.148400e+06   2.616641e+05
  -6.923745e+05  -5.657213e+05
   6.485630e+05  -6.389294e+05
   1.551665e+06   4.217528e+04
   1.062959e+06   8.024796e+05
  -3.882322e+05   1.010267e+06
  -1.452856e+06   5.676285e+05
  -1.247282e+06  -1.239311e+05
  -1.680833e+05  -5.092887e+05
   6.127544e+05  -2.960717e+05
   3.478355e+05   2.565046e+05
  -5.886690e+05   4.691180e+05
  -1.125590e+06  -1.218719e+05
  -5.868005e+05  -1.152626e+06
   6.284723e+05  -1.607174e+06
   1.452458e+06  -8.098935e+05
   1.205474e+06   7.472797e+05
   1.929755e+05   1.737190e+06
  -7.090020e+05   1.284575e+06
  -9.055290e+05  -1.242988e+05
  -4.649172e+05  -1.141489e+06
   1.528637e+05  -9.678434e+05
   5.253913e+05  -1.078352e+05
   4.905597e+05   3.722269e+05
   2.018214e+05   1.474508e+05
   2.999147e+04  -1.064348e+05
   2.090724e+05   2.505868e+05
   4.725806e+05   9.146729e+05
   2.416916e+05   1.050241e+06
  -6.266594e+05   3.960259e+05
  -1.432598e+06  -4.430418e+05
  -1.287348e+06  -8.021488e+05
  -1.881033e+05  -6.621034e+05
   8.626940e+05  -4.015859e+05
   9.642430e+05  -1.958917e+05
   3.132717e+05   2.288066e+04
  -1.555261e+05   2.129769e+05
   1.473149e+04   2.242783e+05
   3.065486e+05   1.200830e+05
   2.888230e+04   1.305016e+05
  -6.909164e+05   2.074388e+05
  -1.000393e+06  -2.375571e+04
  -3.435264e+05  -6.538738e+05
   8.544197e+05  -1.102764e+06
   1.598340e+06  -6.953263e+05
   1.295412e+06   4.384229e+05
   2.472926e+05   1.360329e+06
  -7.215569e+05   1.308795e+06
  -1.006462e+06   4.862585e+05
  -6.370780e+05  -2.498857e+05
  -1.083563e+05  -3.429308e+05
   1.085351e+05  -3.382959e+04
  -6.363869e+04   4.965914e+04
  -3.127743e+05  -3.395042e+05
  -2.585741e+05  -7.776040e+05
   1.804974e+05  -6.431863e+05
   6.635360e+05   1.469453e+05
   6.839018e+05   9.434426e+05
   6.312096e+04   9.849420e+05
  -7.492070e+05   1.956818e+05
  -9.806801e+05  -7.304612e+05
  -3.082637e+05  -1.043657e+06
   6.904260e+05  -6.201637e+05
   1.053667e+06   8.161191e+04
   4.884718e+05   5.572814e+05
  -2.702767e+05   6.131844e+05
  -3.281908e+05   3.464441e+05
   2.762428e+05   2.491662e+04
   6.345774e+05  -3.222130e+04
   1.283420e+05   2.878805e+05
  -7.929069e+05   6.596409e+05
  -1.178031e+06   5.521128e+05
  -6.958624e+05  -1.373416e+05
   9.401980e+04  -8.205677e+05
   4.951566e+05  -8.096953e+05
   3.696098e+05  -1.300843e+05
   3.161369e+04   4.756562e+05
  -2.356616e+05   3.980840e+05
  -3.396762e+05  -1.748111e+05
  -2.399060e+05  -5.558020e+05
   5.790173e+04  -3.795346e+05
   3.739769e+05   5.707313e+04
   4.468237e+05   2.448946e+05
   2.337892e+05   7.109669e+04
  -1.720165e+04  -1.170450e+05
  -8.122089e+04   1.348245e+04
  -3.569849e+04   3.597813e+05
  -1.120940e+05   4.893388e+05
  -3.251612e+05   1.483225e+05
  -3.949567e+05  -4.021553e+05
  -9.202624e+04  -6.254781e+05
   4.083941e+05  -2.858625e+05
   6.160518e+05   2.889388e+05
   2.273647e+05   5.637905e+05
  -4.771333e+05   3.477502e+05
  -8.283965e+05  -8.535201e+04
  -4.512996e+05  -3.627798e+05
   2.808249e+05  -3.604222e+05
   6.039349e+05  -1.901662e+05
   2.146232e+05  -1.377443e+04
  -3.679488e+05   3.825184e+04
  -4.047753e+05  -9.800237e+04
   1.916110e+05  -3.011188e+05
   7.627000e+05  -2.590180e+05
