
 $NMID
 id='ANONYMOUS ', fmtdat='(2E16.6)'
 volume=1.0
 tramp=1.0
 $END
  -4.000948e+07  -1.947658e+06
  -2.342797e+07  -2.402225e+07
   5.077268e+06  -2.607974e+07
   1.913426e+07  -1.132338e+07
   1.205761e+07   3.390490e+06
  -1.645794e+06   6.559804e+06
  -7.106020e+06   2.279639e+05
  -2.903979e+06  -6.702418e+06
   3.757369e+06  -7.682891e+06
   6.981142e+06  -2.208933e+06
   5.275024e+06   4.825487e+06
   4.659094e+05   6.851358e+06
  -3.268954e+06   1.803228e+06
  -2.211788e+06  -4.870250e+06
   2.641132e+06  -5.622342e+06
   5.832972e+06   6.334181e+05
   3.416966e+06   7.526055e+06
  -2.746336e+06   8.727895e+06
  -7.515101e+06   4.055564e+06
  -7.696519e+06  -2.090269e+06
  -4.037766e+06  -5.710203e+06
   2.128030e+05  -5.690173e+06
   1.781351e+06  -3.530166e+06
   4.753706e+04  -2.003855e+06
  -1.788556e+06  -2.749177e+06
   1.709101e+05  -4.240128e+06
   5.296420e+06  -3.365104e+06
   8.220790e+06   3.808778e+05
   5.267161e+06   3.818739e+06
  -7.104724e+05   3.975373e+06
  -3.819481e+06   1.460141e+06
  -2.051538e+06  -9.752564e+05
   1.461351e+06  -1.597225e+06
   3.083958e+06  -2.968883e+05
   2.100790e+06   2.152925e+06
  -1.121026e+05   3.880809e+06
  -1.892230e+06   2.696714e+06
  -1.990412e+06  -8.697648e+05
  -4.466035e+05  -2.835020e+06
   7.981503e+05  -5.843810e+05
  -1.417080e+05   2.788396e+06
  -2.152075e+06   2.131922e+06
  -1.963809e+06  -2.241526e+06
   1.325317e+06  -4.346945e+06
   4.339924e+06  -6.688949e+05
   3.305623e+06   4.843572e+06
  -1.336466e+06   5.893965e+06
  -5.449808e+06   1.566715e+06
  -5.579052e+06  -3.441823e+06
  -1.847374e+06  -4.827491e+06
   2.689492e+06  -2.493007e+06
   4.539341e+06   8.583384e+05
   2.387702e+06   2.613338e+06
  -1.578277e+06   1.781332e+06
  -3.427692e+06  -5.380061e+05
  -1.600804e+06  -1.920305e+06
   1.246881e+06  -1.021429e+06
   1.571642e+06   7.471089e+05
  -5.582947e+05   9.635168e+05
  -1.809980e+06  -6.279665e+05
  -1.384747e+05  -1.943132e+06
   2.743641e+06  -1.383838e+06
   3.753735e+06   5.969699e+05
   1.823491e+06   2.733261e+06
  -1.661793e+06   4.105164e+06
  -4.535813e+06   3.762317e+06
  -5.198863e+06   1.017394e+06
  -3.361038e+06  -2.921880e+06
  -4.521755e+05  -5.105458e+06
   1.310588e+06  -3.988700e+06
   1.109668e+06  -1.473052e+06
   3.690535e+05  -4.628602e+05
   7.981879e+05  -1.142569e+06
   2.158158e+06  -1.223392e+06
   2.743934e+06   4.738450e+05
   1.630885e+06   2.354855e+06
  -3.981431e+05   2.263117e+06
  -1.855935e+06   1.172559e+05
  -1.701457e+06  -2.194940e+06
   1.631415e+05  -2.781641e+06
   2.604540e+06  -1.196627e+06
   3.660937e+06   1.422256e+06
   2.276381e+06   3.233306e+06
  -2.948999e+05   3.166315e+06
  -1.754317e+06   1.865808e+06
  -1.553473e+06   8.669845e+05
  -1.392742e+06   7.494624e+05
  -2.565484e+06   5.988188e+05
  -3.890274e+06  -5.715145e+05
  -3.173441e+06  -2.455221e+06
  -1.389449e+05  -3.790522e+06
   3.041515e+06  -3.582462e+06
   4.014660e+06  -1.781859e+06
   2.429614e+06   6.688072e+05
  -2.686609e+04   2.190185e+06
  -1.259703e+06   1.686944e+06
  -5.057448e+05  -1.345153e+05
   1.102018e+06  -1.170670e+06
   1.706188e+06  -3.146175e+05
   7.113359e+05   1.093241e+06
  -5.731079e+05   1.050669e+06
  -5.540234e+05  -3.115828e+05
   7.007398e+05  -8.625635e+05
   1.627888e+06   6.121303e+05
   1.039843e+06   2.755068e+06
  -7.592695e+05   3.310871e+06
  -2.570763e+06   1.645980e+06
  -3.321502e+06  -9.052551e+05
  -2.526557e+06  -2.594994e+06
  -5.649321e+05  -2.617746e+06
   1.237829e+06  -1.397653e+06
   1.536425e+06  -1.540244e+05
   4.612954e+05   4.591921e+04
  -3.374425e+05  -6.962051e+05
   3.371364e+05  -1.173983e+06
   1.656873e+06  -5.073779e+05
   1.818584e+06   7.284317e+05
   4.025204e+05   1.224905e+06
  -1.058069e+06   5.622671e+05
  -9.224726e+05  -4.005045e+05
   7.022256e+05  -6.323234e+05
   2.143331e+06   8.941820e+04
   1.870746e+06   1.233189e+06
  -8.959510e+04   1.989060e+06
  -2.170633e+06   1.675661e+06
  -2.617699e+06   2.925772e+05
  -1.113998e+06  -1.131228e+06
   8.336562e+05  -1.301909e+06
   1.352392e+06  -1.336907e+05
   1.172887e+05   9.593973e+05
  -1.400049e+06   6.589741e+05
  -1.606768e+06  -6.813039e+05
  -4.084524e+05  -1.520090e+06
   9.267574e+05  -9.999572e+05
   1.188154e+06   1.678484e+05
   3.133169e+05   6.780160e+05
  -6.826839e+05   6.031056e+04
  -6.570495e+05  -9.739434e+05
   5.726323e+05  -1.315123e+06
   1.894930e+06  -4.651963e+05
   1.883946e+06   1.011260e+06
   3.480970e+05   1.926025e+06
  -1.314846e+06   1.525552e+06
  -1.594559e+06   2.286568e+05
  -5.059327e+05  -7.869145e+05
   5.922376e+05  -7.742108e+05
   6.515466e+05  -7.300749e+04
  -4.853658e+04   4.324921e+05
  -5.275190e+05   3.122964e+05
  -2.851058e+05  -6.530642e+04
   3.130909e+05  -5.850351e+04
   5.167512e+05   5.064664e+05
  -1.154424e+05   1.079037e+06
  -1.262464e+06   8.545833e+05
  -1.946522e+06  -3.768601e+05
  -1.361372e+06  -1.819915e+06
   2.085250e+05  -2.294778e+06
   1.522979e+06  -1.401291e+06
   1.656010e+06   5.160608e+04
   9.309607e+05   8.988820e+05
   3.591355e+05   7.839515e+05
   3.717465e+05   3.295364e+05
   4.717103e+05   2.708596e+05
   5.719759e+04   6.475825e+05
  -7.858353e+05   8.593782e+05
  -1.374207e+06   3.656631e+05
  -1.070105e+06  -6.887897e+05
   1.703128e+05  -1.456495e+06
   1.621064e+06  -1.073966e+06
   2.148096e+06   4.341363e+05
   1.114023e+06   1.950259e+06
  -8.698635e+05   2.203107e+06
  -2.319023e+06   1.016484e+06
  -2.238665e+06  -5.257095e+05
  -1.024629e+06  -1.237537e+06
   1.095925e+05  -9.886658e+05
   4.299475e+05  -5.920415e+05
   2.192574e+05  -7.164041e+05
   1.835566e+05  -1.151451e+06
   6.194525e+05  -1.140284e+06
   1.175820e+06  -2.677205e+05
   1.235382e+06   1.032731e+06
   5.072852e+05   1.792097e+06
  -6.026821e+05   1.352849e+06
  -1.216565e+06   1.380566e+04
  -7.796656e+05  -1.164300e+06
   3.041231e+05  -1.295405e+06
   1.003989e+06  -4.477710e+05
   7.331817e+05   5.351140e+05
  -4.295010e+04   9.291455e+05
  -3.958774e+05   7.333747e+05
  -3.046339e+04   4.287585e+05
   3.900094e+05   3.443142e+05
   4.339863e+04   3.728337e+05
  -1.041426e+06   2.029970e+05
  -1.883907e+06  -3.037926e+05
  -1.512371e+06  -9.427913e+05
  -1.927954e+04  -1.289571e+06
   1.423553e+06  -1.034520e+06
   1.688807e+06  -3.006367e+05
   7.947041e+05   3.747868e+05
  -2.180831e+05   4.878652e+05
  -4.523429e+05   6.307724e+04
   7.543077e+03  -3.474062e+05
   4.488758e+05  -2.301563e+05
   4.419979e+05   3.272487e+05
   1.738928e+05   7.103423e+05
   2.848868e+04   4.653285e+05
   1.303437e+05  -1.346006e+05
   3.055926e+05  -3.375046e+05
   2.700213e+05   2.105330e+05
  -1.649894e+05   9.558218e+05
  -8.494627e+05   9.887889e+05
  -1.215094e+06   1.064712e+05
  -7.251240e+05  -8.786782e+05
   4.044959e+05  -1.012578e+06
   1.153075e+06  -2.455012e+05
   6.829989e+05   5.650386e+05
  -6.459648e+05   6.195176e+05
  -1.520889e+06  -5.573973e+04
  -1.028155e+06  -7.881024e+05
   3.900080e+05  -9.750723e+05
   1.419975e+06  -5.389429e+05
   1.213901e+06   1.287166e+05
   1.600679e+05   4.960800e+05
  -6.024986e+05   2.812325e+05
  -3.392581e+05  -2.628030e+05
   5.882441e+05  -4.667620e+05
   1.120086e+06   1.268107e+05
   5.799218e+05   1.152046e+06
  -6.325025e+05   1.597210e+06
  -1.446387e+06   7.977712e+05
  -1.188742e+06  -7.465312e+05
  -1.792137e+05  -1.716848e+06
   7.042819e+05  -1.258263e+06
   8.835734e+05   1.327087e+05
   4.431817e+05   1.123031e+06
  -1.592749e+05   9.400168e+05
  -5.167843e+05   9.621115e+04
  -4.783153e+05  -3.628872e+05
  -1.957503e+05  -1.372262e+05
  -2.975273e+04   1.000163e+05
  -2.054267e+05  -2.645998e+05
  -4.588018e+05  -9.127918e+05
  -2.256326e+05  -1.027220e+06
   6.267315e+05  -3.727258e+05
   1.409560e+06   4.474041e+05
   1.258229e+06   7.928256e+05
   1.773362e+05   6.550922e+05
  -8.510436e+05   3.982558e+05
  -9.483652e+05   1.866128e+05
  -3.081252e+05  -3.531602e+04
   1.543082e+05  -2.128374e+05
  -1.188553e+04  -2.086323e+05
  -3.013229e+05  -1.070862e+05
  -3.054921e+04  -1.329400e+05
   6.817270e+05  -2.131328e+05
   9.924530e+05   3.111595e+04
   3.415516e+05   6.657683e+05
  -8.539916e+05   1.096920e+06
  -1.597660e+06   6.716583e+05
  -1.290803e+06  -4.535787e+05
  -2.377724e+05  -1.349909e+06
   7.291699e+05  -1.287229e+06
   1.006340e+06  -4.766019e+05
   6.328683e+05   2.471808e+05
   1.068680e+05   3.446191e+05
  -1.084579e+05   4.541097e+04
   5.815116e+04  -4.094505e+04
   3.003612e+05   3.351313e+05
   2.467773e+05   7.666713e+05
  -1.846616e+05   6.380088e+05
  -6.608683e+05  -1.443934e+05
  -6.794391e+05  -9.406278e+05
  -6.020246e+04  -9.867669e+05
   7.488134e+05  -1.996494e+05
   9.754263e+05   7.281696e+05
   3.000622e+05   1.041792e+06
  -6.943966e+05   6.140843e+05
  -1.047527e+06  -9.234203e+04
  -4.752887e+05  -5.649688e+05
   2.818087e+05  -6.091488e+05
   3.344543e+05  -3.331026e+05
  -2.712166e+05  -1.565336e+04
  -6.280457e+05   3.014179e+04
  -1.247794e+05  -2.900004e+05
   7.882729e+05  -6.454506e+05
   1.167372e+06  -5.248887e+05
   6.854445e+05   1.547396e+05
  -1.026568e+05   8.139641e+05
  -5.047101e+05   7.912868e+05
  -3.786879e+05   1.205790e+05
  -3.418583e+04  -4.734453e+05
   2.402154e+05  -3.966800e+05
   3.425462e+05   1.702654e+05
   2.341157e+05   5.529121e+05
  -6.643108e+04   3.817429e+05
  -3.734176e+05  -5.760267e+04
  -4.361819e+05  -2.520826e+05
  -2.256825e+05  -7.530988e+04
   1.213035e+04   1.239270e+05
   6.720778e+04  -4.643892e+03
   2.602625e+04  -3.640182e+05
   1.141147e+05  -5.049757e+05
   3.348744e+05  -1.584200e+05
   4.041068e+05   4.061478e+05
   9.628492e+04   6.335939e+05
  -4.079791e+05   2.864272e+05
  -6.163129e+05  -2.929498e+05
  -2.265886e+05  -5.620147e+05
   4.776203e+05  -3.387618e+05
   8.259399e+05   9.352761e+04
   4.455914e+05   3.648805e+05
  -2.869477e+05   3.583143e+05
  -6.082200e+05   1.859296e+05
  -2.177660e+05   6.269958e+03
   3.657593e+05  -4.818689e+04
   4.070843e+05   9.095024e+04
  -1.819380e+05   3.007652e+05
  -7.499547e+05   2.630779e+05
