
 $NMID
 id='ANONYMOUS ', fmtdat='(2E16.6)'
 volume=1.0
 tramp=1.0
 $END
  -1.158259e+07  -3.151481e+05
  -7.656519e+06  -5.392367e+06
   7.555217e+03  -7.230335e+06
   4.990284e+06  -4.993611e+06
   4.294368e+06  -6.821122e+05
   3.602480e+05   2.095958e+06
  -2.391757e+06   1.200001e+06
  -1.913897e+06  -1.847320e+06
   4.726585e+05  -3.366599e+06
   2.215385e+06  -1.545853e+06
   1.935002e+06   1.576661e+06
   2.167516e+05   2.558288e+06
  -1.192881e+06   4.877767e+05
  -9.438981e+05  -2.178927e+06
   6.910833e+05  -2.533029e+06
   2.001244e+06  -2.658122e+05
   1.492157e+06   2.344653e+06
  -5.448740e+05   2.967514e+06
  -2.287694e+06   1.362610e+06
  -2.272279e+06  -7.742141e+05
  -8.616263e+05  -1.694875e+06
   2.722514e+05  -1.216272e+06
   8.668860e+03  -5.863759e+05
  -1.032907e+06  -9.042263e+05
  -1.191152e+06  -1.861188e+06
   3.767002e+05  -2.176284e+06
   2.588518e+06  -1.138651e+06
   3.355583e+06   5.732968e+05
   1.761846e+06   1.629227e+06
  -7.889571e+05   1.330517e+06
  -1.899384e+06   9.597186e+04
  -6.890973e+05  -1.009556e+06
   1.327201e+06  -1.055956e+06
   2.013638e+06   9.206760e+04
   9.200389e+05   1.519366e+06
  -5.305876e+05   1.877992e+06
  -9.060275e+05   7.375300e+05
  -2.462290e+05  -7.234163e+05
   3.804439e+05  -8.701861e+05
   2.547447e+05   4.383640e+05
  -4.110582e+05   1.558604e+06
  -9.477608e+05   1.028395e+06
  -8.571511e+05  -5.986411e+05
  -1.034304e+05  -1.410457e+06
   7.906738e+05  -4.562772e+05
   9.494605e+05   1.171690e+06
  -9.514407e+04   1.682156e+06
  -1.652402e+06   5.518164e+05
  -2.239630e+06  -1.110976e+06
  -1.066812e+06  -1.862897e+06
   9.589237e+05  -1.248146e+06
   2.036102e+06   2.992196e+04
   1.306467e+06   8.940151e+05
  -3.208069e+05   7.903465e+05
  -1.220413e+06   4.329617e+04
  -7.265336e+05  -5.267171e+05
   3.516000e+05  -3.881524e+05
   7.509499e+05   2.259394e+05
   1.125392e+05   6.154177e+05
  -7.129610e+05   3.558993e+05
  -6.560524e+05  -2.901646e+05
   3.440111e+05  -6.510957e+05
   1.195615e+06  -2.666702e+05
   8.103429e+05   6.938824e+05
  -6.731593e+05   1.497657e+06
  -1.987111e+06   1.377319e+06
  -2.064674e+06   2.088376e+05
  -1.077933e+06  -1.257373e+06
  -5.664969e+04  -2.001299e+06
   3.140863e+05  -1.697432e+06
   2.653051e+05  -9.737125e+05
   4.002605e+05  -5.981876e+05
   8.944248e+05  -5.623654e+05
   1.352533e+06  -2.287616e+05
   1.277974e+06   6.503461e+05
   5.456291e+05   1.406481e+06
  -4.715058e+05   1.168664e+06
  -1.107426e+06  -4.455639e+04
  -8.514199e+05  -1.211774e+06
   1.800624e+05  -1.324411e+06
   1.204562e+06  -3.637408e+05
   1.402702e+06   7.884250e+05
   6.979165e+05   1.280540e+06
  -1.846598e+05   1.020105e+06
  -5.285313e+05   5.504500e+05
  -4.051185e+05   3.735050e+05
  -4.932249e+05   4.666994e+05
  -1.135509e+06   3.992109e+05
  -1.770757e+06  -1.650218e+05
  -1.480994e+06  -1.079154e+06
  -8.828558e+04  -1.766041e+06
   1.461395e+06  -1.662284e+06
   1.946011e+06  -7.162446e+05
   1.084583e+06   4.700413e+05
  -1.930230e+05   1.059390e+06
  -7.153134e+05   6.986678e+05
  -2.128274e+05  -1.189623e+05
   5.637515e+05  -5.125260e+05
   7.547436e+05  -1.282983e+05
   2.546818e+05   4.758781e+05
  -3.232579e+05   4.916373e+05
  -3.608159e+05  -1.367333e+05
   1.850978e+05  -5.766473e+05
   7.930716e+05  -7.751764e+04
   8.286082e+05   1.070562e+06
   5.990648e+04   1.751348e+06
  -1.089144e+06   1.198975e+06
  -1.781071e+06  -1.926659e+05
  -1.442236e+06  -1.295273e+06
  -3.315053e+05  -1.369160e+06
   6.362593e+05  -6.717045e+05
   7.568907e+05  -3.168837e+04
   2.188592e+05   2.251295e+04
  -1.636330e+05  -3.247090e+05
   1.149149e+05  -5.147343e+05
   7.005935e+05  -2.421503e+05
   8.266232e+05   2.653567e+05
   2.347310e+05   5.227790e+05
  -4.790652e+05   2.910548e+05
  -4.962457e+05  -1.846616e+05
   2.968377e+05  -4.036968e+05
   1.110979e+06  -7.602083e+04
   1.042051e+06   5.937336e+05
   2.877643e+04   1.053911e+06
  -1.050469e+06   8.769883e+05
  -1.259035e+06   1.649711e+05
  -5.235854e+05  -4.959274e+05
   3.588285e+05  -5.584748e+05
   5.664645e+05  -5.644880e+04
   2.202955e+04   4.102481e+05
  -6.437913e+05   2.992984e+05
  -7.691812e+05  -2.859663e+05
  -2.603254e+05  -7.157173e+05
   3.885276e+05  -5.447261e+05
   5.888131e+05  -1.110366e+03
   2.112303e+05   2.981117e+05
  -2.838537e+05   4.498804e+04
  -2.936605e+05  -4.465420e+05
   2.868148e+05  -6.063505e+05
   8.986336e+05  -1.945372e+05
   8.756450e+05   4.884801e+05
   1.653161e+05   8.983269e+05
  -5.946367e+05   7.231728e+05
  -7.452380e+05   1.373117e+05
  -2.691724e+05  -3.588430e+05
   2.650665e+05  -3.857104e+05
   3.446127e+05  -2.851965e+04
   2.455274e+03   2.739376e+05
  -3.099376e+05   2.119557e+05
  -2.417776e+05  -5.990931e+04
   1.020729e+05  -1.276604e+05
   2.861869e+05   1.665193e+05
   2.572767e+03   5.037930e+05
  -5.784531e+05   4.235686e+05
  -9.229891e+05  -1.662590e+05
  -6.426571e+05  -8.568881e+05
   1.007554e+05  -1.104318e+06
   7.367960e+05  -7.164903e+05
   8.425330e+05  -1.092364e+04
   5.161517e+05   4.814356e+05
   1.848201e+05   4.907909e+05
   1.099833e+05   2.225142e+05
   1.545166e+05   9.512308e+04
   2.158453e+04   2.597298e+05
  -3.511999e+05   4.253874e+05
  -6.725790e+05   2.131063e+05
  -5.631545e+05  -3.463169e+05
   5.075532e+04  -7.587833e+05
   7.827140e+05  -5.562386e+05
   1.049686e+06   1.954826e+05
   5.688707e+05   9.190599e+05
  -3.560454e+05   1.050078e+06
  -1.064400e+06   5.300059e+05
  -1.100515e+06  -1.900651e+05
  -5.744193e+05  -5.937554e+05
   1.227032e+04  -5.480429e+05
   2.623629e+05  -3.443972e+05
   1.973515e+05  -3.237955e+05
   1.281185e+05  -4.857639e+05
   2.746924e+05  -5.005386e+05
   5.285639e+05  -1.155605e+05
   5.729245e+05   4.971524e+05
   2.322497e+05   8.568640e+05
  -2.965662e+05   6.431931e+05
  -5.867257e+05   1.759673e+04
  -3.902985e+05  -5.284599e+05
   9.931343e+04  -6.165595e+05
   4.307906e+05  -2.719794e+05
   3.505597e+05   1.716012e+05
   4.104626e+04   4.016015e+05
  -1.172312e+05   3.660186e+05
   1.220894e+04   2.363857e+05
   1.705479e+05   1.793335e+05
   1.078363e+04   1.837360e+05
  -4.719682e+05   1.080921e+05
  -8.632309e+05  -1.274701e+05
  -7.215437e+05  -4.247773e+05
  -5.621376e+04  -5.841976e+05
   6.243549e+05  -4.815002e+05
   7.884364e+05  -1.770577e+05
   4.006141e+05   1.204278e+05
  -7.771399e+04   2.064683e+05
  -2.018123e+05   5.584792e+04
   1.897107e+04  -1.280431e+05
   2.327772e+05  -9.656926e+04
   2.028432e+05   1.573319e+05
   3.574063e+04   3.476888e+05
  -2.948586e+04   2.209841e+05
   7.050366e+04  -9.437597e+04
   1.844247e+05  -1.952830e+05
   1.374982e+05   9.700379e+04
  -1.042242e+05   4.689919e+05
  -4.041887e+05   4.614002e+05
  -5.243582e+05   2.309639e+04
  -2.910084e+05  -4.175242e+05
   1.914599e+05  -4.399036e+05
   5.161644e+05  -7.379888e+04
   3.160511e+05   2.851397e+05
  -2.986965e+05   3.048906e+05
  -7.489616e+05  -5.571309e+03
  -5.514923e+05  -3.720489e+05
   1.472554e+05  -5.075162e+05
   6.983942e+05  -3.182802e+05
   6.248739e+05   3.394249e+04
   9.825263e+04   2.507042e+05
  -2.853746e+05   1.557948e+05
  -1.483161e+05  -1.107181e+05
   3.018335e+05  -1.972126e+05
   5.274483e+05   9.809341e+04
   2.299598e+05   5.668476e+05
  -3.563813e+05   7.395053e+05
  -7.166373e+05   3.422854e+05
  -5.624796e+05  -3.808054e+05
  -7.047147e+04  -8.354375e+05
   3.475915e+05  -6.259327e+05
   4.359013e+05   4.009557e+04
   2.388936e+05   5.414827e+05
  -4.482587e+04   4.773845e+05
  -2.394642e+05   6.152001e+04
  -2.559320e+05  -1.861739e+05
  -1.234428e+05  -7.999623e+04
  -3.816650e+03   5.889749e+04
  -5.551202e+04  -1.024958e+05
  -2.010475e+05  -4.306757e+05
  -1.408818e+05  -5.065698e+05
   2.613144e+05  -1.880519e+05
   6.831570e+05   2.239297e+05
   6.379736e+05   3.914736e+05
   8.743534e+04   3.093596e+05
  -4.425527e+05   1.806384e+05
  -4.706139e+05   9.570310e+04
  -1.239371e+05   2.637102e+03
   8.724238e+04  -9.701749e+04
  -3.933226e+04  -1.226444e+05
  -1.811070e+05  -7.866181e+04
   1.918432e+03  -6.502560e+04
   3.696683e+05  -7.791144e+04
   4.699777e+05   3.467075e+04
   1.013718e+05   3.102195e+05
  -4.542685e+05   4.914924e+05
  -7.431209e+05   2.815579e+05
  -5.643523e+05  -2.469846e+05
  -8.524835e+04  -6.549917e+05
   3.501403e+05  -5.984056e+05
   4.837353e+05  -1.923364e+05
   3.045179e+05   1.470317e+05
   3.103873e+04   1.639641e+05
  -8.383369e+04  -5.521464e+03
   1.830219e+04  -4.657788e+04
   1.599832e+05   1.535719e+05
   1.264419e+05   3.711405e+05
  -1.020050e+05   2.947476e+05
  -3.201670e+05  -1.028416e+05
  -2.902110e+05  -4.811812e+05
   2.346012e+04  -4.651902e+05
   3.802404e+05  -4.893498e+04
   4.437074e+05   3.923989e+05
   1.076487e+05   4.980866e+05
  -3.430595e+05   2.581199e+05
  -4.812664e+05  -6.522682e+04
  -2.023633e+05  -2.487169e+05
   1.362396e+05  -2.550180e+05
   1.328199e+05  -1.505131e+05
  -1.619335e+05  -2.662508e+04
  -3.095004e+05   9.529977e+02
  -4.545206e+04  -1.327541e+05
   3.852318e+05  -3.049317e+05
   5.386659e+05  -2.662446e+05
   2.955480e+05   5.232206e+04
  -6.023456e+04   3.749421e+05
  -2.201502e+05   3.621121e+05
  -1.470468e+05   3.214774e+04
   8.318784e+03  -2.393246e+05
   1.244620e+05  -1.682530e+05
   1.611172e+05   1.157556e+05
   1.004735e+05   2.682997e+05
  -4.208844e+04   1.536745e+05
  -1.755075e+05  -4.530438e+04
  -1.970701e+05  -1.039882e+05
  -1.085493e+05  -1.990826e+04
  -8.820116e+03   3.439247e+04
   3.622306e+04  -5.046861e+04
   6.079296e+04  -1.895435e+05
   1.175993e+05  -2.015777e+05
   1.763946e+05  -1.454370e+04
   1.446313e+05   2.320351e+05
  -1.642222e+04   3.044190e+05
  -2.131232e+05   1.152628e+05
  -2.689107e+05  -1.667747e+05
  -8.420461e+04  -2.828571e+05
   2.235047e+05  -1.520867e+05
   3.746194e+05   6.788921e+04
   1.991602e+05   1.804927e+05
  -1.400385e+05   1.446739e+05
  -2.827250e+05   5.341308e+04
  -7.988497e+04  -2.648423e+03
   2.069654e+05   9.588480e+03
   2.036393e+05   8.443272e+04
  -1.204700e+05   1.593715e+05
  -4.074629e+05   1.102940e+05
