
 $NMID
 id='ANONYMOUS ', fmtdat='(2E16.6)'
 volume=1.0
 tramp=1.0
 $END
  -1.713270e+07  -2.944792e+06
  -9.982973e+06  -8.935962e+06
   1.250084e+06  -1.018345e+07
   7.788617e+06  -6.709016e+06
   6.242970e+06  -8.738784e+05
   3.987678e+05   2.986231e+06
  -3.563508e+06   1.736961e+06
  -2.760497e+06  -2.790589e+06
   8.684488e+05  -5.081023e+06
   3.404668e+06  -2.172210e+06
   2.727409e+06   2.705076e+06
  -2.811693e+04   4.023487e+06
  -1.984674e+06   5.305236e+05
  -1.287380e+06  -3.612521e+06
   1.259921e+06  -3.897324e+06
   2.992056e+06  -2.063501e+05
   1.926564e+06   3.706994e+06
  -1.234406e+06   4.357826e+06
  -3.679221e+06   1.622158e+06
  -3.284437e+06  -1.696402e+06
  -8.223722e+05  -2.834859e+06
   8.921312e+05  -1.684651e+06
   1.290881e+05  -5.551378e+05
  -1.790566e+06  -1.318416e+06
  -1.951007e+06  -3.150000e+06
   8.212170e+05  -3.583573e+06
   4.399833e+06  -1.544460e+06
   5.357672e+06   1.413707e+06
   2.524624e+06   2.914614e+06
  -1.604765e+06   2.073786e+06
  -3.231627e+06  -1.108591e+05
  -1.088121e+06  -1.864522e+06
   2.303439e+06  -1.785550e+06
   3.406672e+06   2.557881e+05
   1.440299e+06   2.651032e+06
  -1.113348e+06   3.094396e+06
  -1.645118e+06   1.003700e+06
  -2.589942e+05  -1.402718e+06
   9.103528e+05  -1.406506e+06
   4.995911e+05   8.981693e+05
  -8.193868e+05   2.604498e+06
  -1.603766e+06   1.568836e+06
  -1.220980e+06  -9.694320e+05
  -5.106404e+04  -2.012409e+06
   1.041931e+06  -4.326371e+05
   1.079785e+06   1.887832e+06
  -4.248383e+05   2.384568e+06
  -2.578439e+06   5.184772e+05
  -3.340018e+06  -1.974402e+06
  -1.512366e+06  -2.983370e+06
   1.586610e+06  -1.881957e+06
   3.190754e+06   1.782121e+05
   1.993519e+06   1.458118e+06
  -5.219060e+05   1.149989e+06
  -1.838574e+06  -6.640003e+04
  -1.039104e+06  -8.510094e+05
   5.799833e+05  -5.286995e+05
   1.169054e+06   4.074389e+05
   2.319833e+05   9.592563e+05
  -1.021193e+06   6.092256e+05
  -1.019009e+06  -2.831168e+05
   4.273046e+05  -8.239922e+05
   1.726797e+06  -3.127430e+05
   1.113263e+06   1.085414e+06
  -1.288803e+06   2.249107e+06
  -3.383932e+06   1.938284e+06
  -3.334015e+06   2.003974e+04
  -1.504260e+06  -2.209602e+06
   2.036772e+05  -3.191432e+06
   6.381454e+05  -2.613535e+06
   4.047348e+05  -1.547766e+06
   6.615076e+05  -1.051759e+06
   1.590087e+06  -9.446125e+05
   2.346113e+06  -2.547373e+05
   2.097032e+06   1.251119e+06
   7.763330e+05   2.429441e+06
  -9.025168e+05   1.929123e+06
  -1.855961e+06  -1.419089e+05
  -1.316616e+06  -2.061560e+06
   4.276353e+05  -2.150622e+06
   2.018366e+06  -4.361246e+05
   2.157992e+06   1.490727e+06
   8.877029e+05   2.161691e+06
  -4.976352e+05   1.546905e+06
  -9.116522e+05   7.135386e+05
  -6.283443e+05   4.914883e+05
  -7.810835e+05   6.992748e+05
  -1.831214e+06   5.539235e+05
  -2.813095e+06  -4.140722e+05
  -2.279123e+06  -1.861938e+06
   1.261616e+04  -2.854038e+06
   2.519439e+06  -2.559326e+06
   3.245632e+06  -9.723151e+05
   1.732716e+06   9.006296e+05
  -4.363499e+05   1.739799e+06
  -1.264454e+06   1.071700e+06
  -3.412306e+05  -2.296842e+05
   9.752335e+05  -7.813398e+05
   1.228140e+06  -1.251790e+05
   3.450395e+05   8.029431e+05
  -5.804534e+05   7.771417e+05
  -5.911982e+05  -2.317201e+05
   2.865937e+05  -9.215252e+05
   1.219681e+06  -1.345876e+05
   1.265272e+06   1.687665e+06
   6.446469e+04   2.787267e+06
  -1.753625e+06   1.900609e+06
  -2.854707e+06  -3.771560e+05
  -2.280879e+06  -2.182998e+06
  -4.561299e+05  -2.255643e+06
   1.095231e+06  -1.042588e+06
   1.241076e+06   1.793931e+04
   3.518164e+05   5.608413e+04
  -2.365888e+05  -5.385136e+05
   2.308577e+05  -8.065078e+05
   1.138932e+06  -3.137098e+05
   1.292032e+06   4.945799e+05
   3.304687e+05   8.483269e+05
  -7.932366e+05   4.308802e+05
  -7.999775e+05  -3.294446e+05
   4.855013e+05  -6.426452e+05
   1.798697e+06  -7.142762e+04
   1.667881e+06   1.020319e+06
  -7.479747e+03   1.715296e+06
  -1.763083e+06   1.348497e+06
  -2.049565e+06   1.655044e+05
  -7.940064e+05  -8.420091e+05
   6.354378e+05  -8.533383e+05
   9.089520e+05  -2.403733e+04
  -1.627938e+04   6.652118e+05
  -1.067555e+06   4.218753e+05
  -1.214064e+06  -5.216104e+05
  -3.704461e+05  -1.167058e+06
   6.529531e+05  -8.513384e+05
   9.426106e+05   2.929898e+04
   3.236479e+05   4.853123e+05
  -4.532657e+05   4.510855e+04
  -4.318148e+05  -7.481850e+05
   5.216853e+05  -9.569452e+05
   1.475867e+06  -2.329423e+05
   1.372956e+06   8.713049e+05
   1.863172e+05   1.464955e+06
  -1.019867e+06   1.112081e+06
  -1.209906e+06   1.594902e+05
  -4.065125e+05  -5.968633e+05
   4.569397e+05  -6.022851e+05
   5.699957e+05  -2.159487e+04
   3.381815e+02   4.536899e+05
  -5.188911e+05   3.427685e+05
  -4.145006e+05  -1.011793e+05
   1.450059e+05  -2.089428e+05
   4.413508e+05   2.695404e+05
  -2.871992e+04   8.009746e+05
  -9.636123e+05   6.347666e+05
  -1.475833e+06  -3.457947e+05
  -9.635251e+05  -1.440741e+06
   2.562205e+05  -1.780915e+06
   1.246846e+06  -1.107922e+06
   1.367797e+06   3.736433e+04
   8.181422e+05   8.197911e+05
   2.822288e+05   8.307381e+05
   1.580257e+05   3.956705e+05
   2.208047e+05   1.735323e+05
   2.066066e+03   4.121897e+05
  -5.956909e+05   6.560455e+05
  -1.100815e+06   2.992502e+05
  -8.953523e+05  -6.000725e+05
   1.271853e+05  -1.229540e+06
   1.306252e+06  -8.444416e+05
   1.684699e+06   3.980787e+05
   8.480206e+05   1.526489e+06
  -6.541223e+05   1.657902e+06
  -1.751083e+06   7.678451e+05
  -1.759848e+06  -3.834683e+05
  -8.968431e+05  -9.944020e+05
   4.365011e+04  -8.936868e+05
   4.533934e+05  -5.587997e+05
   3.694977e+05  -5.218545e+05
   2.699756e+05  -7.703765e+05
   4.920851e+05  -7.736727e+05
   8.613912e+05  -1.329004e+05
   8.824359e+05   8.579921e+05
   3.010268e+05   1.409379e+06
  -5.375713e+05   1.017296e+06
  -9.507723e+05  -1.819401e+04
  -5.852664e+05  -8.798200e+05
   2.044963e+05  -9.803732e+05
   6.994753e+05  -4.059994e+05
   5.366743e+05   2.903584e+05
   3.666336e+04   6.330562e+05
  -2.032067e+05   5.720357e+05
   1.094878e+04   3.850997e+05
   2.600408e+05   3.105576e+05
   8.517162e+02   3.008899e+05
  -7.653048e+05   1.320925e+05
  -1.375126e+06  -2.829095e+05
  -1.126818e+06  -7.438521e+05
  -4.506642e+04  -9.352529e+05
   1.042770e+06  -7.131977e+05
   1.281545e+06  -2.225643e+05
   6.315113e+05   2.132623e+05
  -1.429876e+05   3.169493e+05
  -3.233872e+05   7.575749e+04
   5.223827e+04  -2.001951e+05
   3.911794e+05  -1.365202e+05
   3.129001e+05   2.738309e+05
   1.965684e+04   5.762341e+05
  -7.590714e+04   3.630630e+05
   1.178027e+05  -1.543725e+05
   3.162059e+05  -3.151061e+05
   2.154175e+05   1.654010e+05
  -2.108812e+05   7.570079e+05
  -6.945331e+05   7.101335e+05
  -8.440843e+05  -2.299145e+04
  -4.236951e+05  -7.103056e+05
   3.550999e+05  -6.862771e+05
   8.425578e+05  -5.983483e+04
   4.877612e+05   4.935238e+05
  -5.057252e+05   4.677094e+05
  -1.212101e+06  -6.452936e+04
  -8.722482e+05  -6.367076e+05
   2.655947e+05  -8.097479e+05
   1.149964e+06  -4.718434e+05
   1.012544e+06   9.392304e+04
   1.447600e+05   4.128986e+05
  -4.708289e+05   2.319279e+05
  -2.252707e+05  -1.914647e+05
   5.144962e+05  -2.923277e+05
   8.510424e+05   2.128519e+05
   3.172652e+05   9.494701e+05
  -6.557560e+05   1.171815e+06
  -1.201810e+06   4.893604e+05
  -8.810912e+05  -6.705494e+05
  -4.224302e+04  -1.364097e+06
   6.136633e+05  -9.905506e+05
   7.005395e+05   9.458664e+04
   3.471766e+05   8.926728e+05
  -1.012577e+05   7.690716e+05
  -3.883608e+05   8.128495e+04
  -4.066645e+05  -3.206009e+05
  -2.021174e+05  -1.374756e+05
  -7.083752e+03   9.535724e+04
  -6.783583e+04  -1.736339e+05
  -2.838901e+05  -7.166536e+05
  -1.945663e+05  -8.292487e+05
   4.292910e+05  -2.770432e+05
   1.090541e+06   4.211822e+05
   1.009176e+06   6.838506e+05
   1.150156e+05   5.067664e+05
  -7.409395e+05   2.591905e+05
  -7.722615e+05   1.193820e+05
  -1.922466e+05  -6.547215e+03
   1.533452e+05  -1.510913e+05
  -6.439455e+04  -2.002302e+05
  -2.994343e+05  -1.413778e+05
   1.155982e+04  -1.084277e+05
   6.185228e+05  -9.790594e+04
   7.606511e+05   1.010186e+05
   1.232809e+05   5.206691e+05
  -7.930316e+05   7.586011e+05
  -1.229973e+06   3.802696e+05
  -8.869786e+05  -4.640223e+05
  -7.801761e+04  -1.074714e+06
   6.210754e+05  -9.355202e+05
   8.064379e+05  -2.633686e+05
   4.862977e+05   2.694075e+05
   3.215151e+04   2.716196e+05
  -1.469348e+05  -1.571051e+04
   2.653150e+04  -7.771918e+04
   2.481550e+05   2.577144e+05
   1.758516e+05   6.110371e+05
  -1.950225e+05   4.690671e+05
  -5.168916e+05  -1.999495e+05
  -4.275366e+05  -8.167993e+05
   8.982961e+04  -7.594993e+05
   6.330791e+05  -4.118307e+04
   6.882774e+05   6.865402e+05
   1.242782e+05   8.220707e+05
  -5.861738e+05   3.831982e+05
  -7.732743e+05  -1.545503e+05
  -2.973148e+05  -4.199044e+05
   2.491525e+05  -3.939838e+05
   2.237797e+05  -2.256573e+05
  -2.700283e+05  -5.500376e+04
  -5.054024e+05  -2.587975e+04
  -5.816920e+04  -2.201039e+05
   6.520186e+05  -4.615432e+05
   8.877563e+05  -3.846327e+05
   4.631672e+05   1.113774e+05
  -1.345018e+05   6.009014e+05
  -3.858149e+05   5.600316e+05
  -2.383266e+05   2.783748e+04
   3.664225e+04  -3.939357e+05
   2.217446e+05  -2.590082e+05
   2.567079e+05   2.087790e+05
   1.381016e+05   4.457891e+05
  -8.874447e+04   2.410357e+05
  -2.829255e+05  -9.259735e+04
  -3.046683e+05  -1.838352e+05
  -1.711179e+05  -3.800360e+04
  -2.485252e+04   5.245333e+04
   5.482586e+04  -8.945938e+04
   1.218066e+05  -3.138877e+05
   2.281787e+05  -3.196444e+05
   3.015699e+05   1.320377e+03
   2.111738e+05   4.049015e+05
  -6.534464e+04   5.032587e+05
  -3.625820e+05   1.672159e+05
  -4.206155e+05  -3.032090e+05
  -1.098101e+05  -4.724347e+05
   3.755181e+05  -2.241783e+05
   6.006771e+05   1.504032e+05
   3.052309e+05   3.129939e+05
  -2.446033e+05   2.172209e+05
  -4.671654e+05   5.338352e+04
  -1.250263e+05  -1.686851e+04
   3.470937e+05   3.401918e+04
   3.319868e+05   1.610095e+05
  -2.127584e+05   2.572541e+05
  -6.821458e+05   1.496376e+05
