
 $NMID
 id='ANONYMOUS ', fmtdat='(2E16.6)'
 volume=1.0
 tramp=1.0
 $END
  -3.486175e+07   1.860715e+06
  -2.318264e+07  -1.751253e+07
   8.957056e+05  -2.282039e+07
   1.524558e+07  -1.298726e+07
   1.155119e+07   4.780934e+05
  -1.409278e+05   6.049624e+06
  -6.511747e+06   1.795334e+06
  -4.051735e+06  -5.547878e+06
   2.128197e+06  -8.044109e+06
   6.097011e+06  -3.303959e+06
   5.331786e+06   3.934240e+06
   1.010870e+06   6.427690e+06
  -2.909381e+06   1.787101e+06
  -2.555508e+06  -4.756433e+06
   1.806523e+06  -5.919981e+06
   5.417073e+06  -3.252250e+05
   4.033082e+06   6.417256e+06
  -1.452776e+06   8.203990e+06
  -6.287034e+06   4.301331e+06
  -6.872876e+06  -1.329405e+06
  -3.691237e+06  -4.635031e+06
  -1.191857e+05  -4.546996e+06
   7.688920e+05  -2.839084e+06
  -1.055992e+06  -2.089031e+06
  -2.332370e+06  -3.234985e+06
   1.429565e+05  -4.532692e+06
   5.278185e+06  -3.450358e+06
   8.019758e+06   1.208789e+05
   5.070123e+06   3.364177e+06
  -8.273891e+05   3.639705e+06
  -3.895910e+06   1.244039e+06
  -1.908265e+06  -1.341149e+06
   1.986507e+06  -1.996077e+06
   3.655073e+06  -2.912209e+05
   2.231623e+06   2.520761e+06
  -2.701691e+05   4.028586e+06
  -1.739377e+06   2.433591e+06
  -1.471526e+06  -1.000606e+06
  -1.564589e+05  -2.438903e+06
   6.322311e+05  -2.100086e+04
  -2.673099e+05   3.090273e+06
  -2.004565e+06   2.381711e+06
  -2.152210e+06  -1.751383e+06
   3.549957e+05  -4.044121e+06
   3.299562e+06  -1.204231e+06
   3.275255e+06   3.715665e+06
  -4.017882e+05   5.215821e+06
  -4.667443e+06   1.897101e+06
  -5.683457e+06  -2.657473e+06
  -2.459775e+06  -4.482232e+06
   2.317702e+06  -2.851962e+06
   4.673449e+06   2.089928e+05
   2.835232e+06   2.226610e+06
  -1.115267e+06   1.932013e+06
  -3.235374e+06  -1.546059e+04
  -1.785847e+06  -1.522058e+06
   9.947806e+05  -1.074006e+06
   1.692317e+06   5.433916e+05
  -1.754720e+05   1.202575e+06
  -1.822882e+06   8.189685e+04
  -8.541941e+05  -1.461723e+06
   1.869502e+06  -1.679934e+06
   3.425896e+06  -1.864041e+05
   2.068732e+06   2.144783e+06
  -1.289653e+06   3.965147e+06
  -4.244443e+06   3.861493e+06
  -4.923628e+06   1.205535e+06
  -3.228316e+06  -2.632019e+06
  -7.192946e+05  -4.858070e+06
   7.762522e+05  -4.060930e+06
   8.186633e+05  -1.866138e+06
   5.710922e+05  -8.350504e+05
   1.209085e+06  -1.230977e+06
   2.421729e+06  -1.088281e+06
   2.829480e+06   6.734004e+05
   1.637266e+06   2.567697e+06
  -5.087417e+05   2.442175e+06
  -2.113083e+06   1.535245e+05
  -1.951817e+06  -2.304540e+06
   5.962396e+04  -2.889070e+06
   2.568553e+06  -1.244748e+06
   3.581911e+06   1.289300e+06
   2.257631e+06   2.927994e+06
  -8.866454e+04   2.856881e+06
  -1.384501e+06   1.770437e+06
  -1.239848e+06   9.935060e+05
  -1.239516e+06   9.868970e+05
  -2.542120e+06   9.163010e+05
  -4.003735e+06  -2.058678e+05
  -3.444484e+06  -2.228519e+06
  -4.430649e+05  -3.883154e+06
   2.898796e+06  -3.893757e+06
   4.053421e+06  -2.017270e+06
   2.492707e+06   6.498132e+05
  -3.246078e+04   2.276949e+06
  -1.282151e+06   1.738403e+06
  -5.062261e+05  -1.517159e+05
   1.089952e+06  -1.251232e+06
   1.692621e+06  -4.337502e+05
   7.430578e+05   1.036777e+06
  -5.638355e+05   1.120389e+06
  -6.866830e+05  -2.777566e+05
   5.376168e+05  -1.104620e+06
   1.768702e+06   1.809629e+05
   1.594389e+06   2.577860e+06
  -1.726630e+05   3.667468e+06
  -2.443586e+06   2.276944e+06
  -3.700617e+06  -4.903024e+05
  -3.020139e+06  -2.571408e+06
  -8.263101e+05  -2.785509e+06
   1.223128e+06  -1.541105e+06
   1.601210e+06  -2.320324e+05
   4.803491e+05   1.473847e+04
  -4.038445e+05  -6.910358e+05
   2.198366e+05  -1.204046e+06
   1.600305e+06  -6.522805e+05
   1.907117e+06   5.466390e+05
   5.488933e+05   1.188653e+06
  -1.035112e+06   6.833418e+05
  -1.038457e+06  -3.453735e+05
   6.521633e+05  -8.025964e+05
   2.315789e+06  -1.675547e+05
   2.165688e+06   1.154931e+06
   1.117111e+05   2.168422e+06
  -2.146351e+06   1.965659e+06
  -2.703826e+06   5.165050e+05
  -1.232728e+06  -1.052249e+06
   7.313938e+05  -1.356381e+06
   1.321355e+06  -2.344919e+05
   1.634290e+05   9.421309e+05
  -1.381512e+06   7.734436e+05
  -1.720817e+06  -5.543079e+05
  -5.941749e+05  -1.542125e+06
   8.439128e+05  -1.169210e+06
   1.269573e+06   1.532195e+04
   4.321268e+05   6.616917e+05
  -6.669483e+05   1.305192e+05
  -7.365150e+05  -9.439953e+05
   5.080541e+05  -1.386044e+06
   1.924255e+06  -5.968292e+05
   2.006146e+06   9.149938e+05
   5.019841e+05   1.953191e+06
  -1.222529e+06   1.675393e+06
  -1.624590e+06   3.792880e+05
  -6.080405e+05  -7.665070e+05
   5.433422e+05  -8.624120e+05
   7.014832e+05  -1.154501e+05
   1.389513e+03   5.156269e+05
  -5.805590e+05   4.171866e+05
  -3.954537e+05  -7.843941e+04
   2.821585e+05  -1.770208e+05
   6.126898e+05   4.206780e+05
   1.246197e+04   1.119935e+06
  -1.225283e+06   9.940233e+05
  -2.041226e+06  -2.356766e+05
  -1.538880e+06  -1.776653e+06
   5.057134e+04  -2.403054e+06
   1.489104e+06  -1.606906e+06
   1.770420e+06  -9.635049e+04
   1.092781e+06   9.162048e+05
   4.346120e+05   8.935638e+05
   3.441734e+05   3.698537e+05
   4.464849e+05   2.108961e+05
   1.042547e+05   6.214594e+05
  -7.307703e+05   9.632086e+05
  -1.414815e+06   5.138000e+05
  -1.206130e+06  -6.543720e+05
   4.580678e+04  -1.581816e+06
   1.612643e+06  -1.271262e+06
   2.281936e+06   2.837806e+05
   1.332368e+06   1.932480e+06
  -6.871571e+05   2.350510e+06
  -2.294760e+06   1.266789e+06
  -2.392744e+06  -3.284301e+05
  -1.230402e+06  -1.216592e+06
   9.529532e+03  -1.105006e+06
   4.582677e+05  -6.982439e+05
   2.584557e+05  -7.369640e+05
   1.396165e+05  -1.146980e+06
   5.376602e+05  -1.189100e+06
   1.169425e+06  -3.541998e+05
   1.341055e+06   9.837326e+05
   6.478005e+05   1.822331e+06
  -5.343255e+05   1.444245e+06
  -1.266990e+06   1.128352e+05
  -9.118239e+05  -1.126779e+06
   1.789653e+05  -1.366767e+06
   9.678735e+05  -5.936809e+05
   8.049612e+05   4.249621e+05
   8.194819e+04   9.321565e+05
  -2.925065e+05   8.083959e+05
   2.207784e+04   4.774846e+05
   4.141943e+05   3.411705e+05
   6.276145e+04   3.878626e+05
  -1.042630e+06   2.981968e+05
  -1.943741e+06  -1.591598e+05
  -1.638413e+06  -8.441382e+05
  -1.591216e+05  -1.310286e+06
   1.349654e+06  -1.168980e+06
   1.715469e+06  -4.666546e+05
   8.745822e+05   2.786900e+05
  -1.648327e+05   4.992854e+05
  -4.530777e+05   1.227633e+05
  -5.654792e+03  -3.250997e+05
   4.647494e+05  -2.577887e+05
   4.744850e+05   3.077145e+05
   1.882489e+05   7.287537e+05
   2.412058e+04   4.767655e+05
   1.346076e+05  -1.759824e+05
   3.293332e+05  -4.012865e+05
   3.033801e+05   1.954558e+05
  -1.250936e+05   1.012901e+06
  -8.064623e+05   1.077852e+06
  -1.199499e+06   1.775316e+05
  -7.658657e+05  -8.529140e+05
   3.412711e+05  -1.039924e+06
   1.143701e+06  -3.011629e+05
   7.392920e+05   5.495737e+05
  -6.164289e+05   6.983919e+05
  -1.603352e+06   7.081038e+04
  -1.179232e+06  -7.421476e+05
   3.003574e+05  -1.080239e+06
   1.455652e+06  -7.168582e+05
   1.311352e+06   2.256087e+04
   2.212826e+05   5.168137e+05
  -6.036586e+05   3.555031e+05
  -3.596072e+05  -2.334743e+05
   5.935217e+05  -5.023826e+05
   1.161910e+06   8.356636e+04
   6.415795e+05   1.164910e+06
  -5.877896e+05   1.678061e+06
  -1.463268e+06   8.958044e+05
  -1.280987e+06  -7.095595e+05
  -2.961696e+05  -1.780812e+06
   6.505640e+05  -1.378513e+06
   9.402685e+05   5.275827e+04
   5.662154e+05   1.138844e+06
  -6.973507e+04   1.014652e+06
  -5.232189e+05   1.523311e+05
  -5.469979e+05  -3.549238e+05
  -2.396320e+05  -1.431736e+05
  -1.482882e+04   1.167452e+05
  -1.949649e+05  -2.349358e+05
  -5.262771e+05  -9.074081e+05
  -3.382029e+05  -1.065794e+06
   5.887880e+05  -4.439011e+05
   1.503099e+06   3.713239e+05
   1.395904e+06   7.446467e+05
   2.344275e+05   6.634179e+05
  -8.860478e+05   4.640374e+05
  -9.865971e+05   2.676154e+05
  -3.021145e+05   5.161046e+03
   1.567118e+05  -2.269099e+05
  -5.680192e+04  -2.386352e+05
  -3.526714e+05  -1.165047e+05
  -2.630957e+04  -1.359640e+05
   7.302926e+05  -2.462068e+05
   1.026760e+06  -2.230980e+04
   3.468439e+05   6.546350e+05
  -8.462075e+05   1.167467e+06
  -1.587439e+06   7.785231e+05
  -1.322248e+06  -4.008002e+05
  -3.184994e+05  -1.390359e+06
   6.630264e+05  -1.373177e+06
   1.009544e+06  -5.353269e+05
   6.747153e+05   2.367622e+05
   1.178280e+05   3.477847e+05
  -1.367297e+05   2.813283e+04
   5.035094e+04  -7.203386e+04
   3.515541e+05   3.207677e+05
   3.195103e+05   7.823385e+05
  -1.569883e+05   6.653466e+05
  -6.980967e+05  -1.327906e+05
  -7.400121e+05  -9.531874e+05
  -8.699796e+04  -1.010288e+06
   7.799134e+05  -2.177718e+05
   1.041718e+06   7.235981e+05
   3.545158e+05   1.056884e+06
  -6.836417e+05   6.546519e+05
  -1.074460e+06  -3.746190e+04
  -5.130287e+05  -5.303876e+05
   2.470070e+05  -6.194303e+05
   2.974108e+05  -3.638528e+05
  -3.108239e+05  -1.610212e+04
  -6.570408e+05   6.417367e+04
  -1.379766e+05  -2.854990e+05
   7.783451e+05  -7.233422e+05
   1.156272e+06  -6.449833e+05
   6.944796e+05   8.876569e+04
  -5.652812e+04   8.384043e+05
  -4.456635e+05   8.443822e+05
  -3.513931e+05   1.315379e+05
  -4.657077e+04  -4.990660e+05
   2.277648e+05  -4.089094e+05
   3.632177e+05   1.829778e+05
   2.724960e+05   5.595478e+05
  -4.872509e+04   3.739103e+05
  -3.877998e+05  -4.862795e+04
  -4.615492e+05  -2.139451e+05
  -2.412733e+05  -4.701798e+04
   9.841697e+03   1.040400e+05
   7.621289e+04  -5.360890e+04
   4.570700e+04  -3.907559e+05
   1.367819e+05  -4.918398e+05
   3.469714e+05  -1.317351e+05
   4.020615e+05   4.235627e+05
   8.883065e+04   6.478295e+05
  -4.176084e+05   3.059556e+05
  -6.355982e+05  -2.818509e+05
  -2.531226e+05  -5.780606e+05
   4.658271e+05  -3.776084e+05
   8.438480e+05   5.674726e+04
   4.758971e+05   3.507966e+05
  -2.725726e+05   3.681835e+05
  -6.079758e+05   2.052892e+05
  -2.029697e+05   1.870484e+04
   4.033791e+05  -4.477820e+04
   4.347275e+05   1.027884e+05
  -1.985239e+05   3.375186e+05
  -8.028381e+05   3.103725e+05
