
 $NMID
 id='ANONYMOUS ', fmtdat='(2E16.6)'
 volume=1.0
 tramp=1.0
 $END
  -3.644671e+07  -1.850259e+05
  -2.280792e+07  -2.077731e+07
   3.181586e+06  -2.418327e+07
   1.727217e+07  -1.155735e+07
   1.171490e+07   2.445947e+06
  -1.101907e+06   6.289514e+06
  -6.829625e+06   6.508723e+05
  -3.167316e+06  -6.244494e+06
   3.287054e+06  -7.551604e+06
   6.545084e+06  -2.429291e+06
   5.015552e+06   4.331930e+06
   5.440651e+05   6.355619e+06
  -2.945635e+06   1.683455e+06
  -2.051328e+06  -4.600099e+06
   2.414538e+06  -5.435548e+06
   5.513856e+06   3.326760e+05
   3.460273e+06   6.875673e+06
  -2.220587e+06   8.196413e+06
  -6.741406e+06   3.980282e+06
  -7.026511e+06  -1.654436e+06
  -3.797424e+06  -4.952008e+06
  -9.274203e+04  -5.011226e+06
   1.242277e+06  -3.307223e+06
  -1.914972e+05  -2.183640e+06
  -1.594218e+06  -2.862526e+06
   3.313846e+05  -3.987930e+06
   4.972002e+06  -3.003900e+06
   7.576539e+06   4.104040e+05
   4.835691e+06   3.453459e+06
  -6.813632e+05   3.515703e+06
  -3.507888e+06   1.174042e+06
  -1.720969e+06  -1.005065e+06
   1.641692e+06  -1.396314e+06
   3.002138e+06  -3.692715e+04
   1.815266e+06   2.169568e+06
  -2.783611e+05   3.565453e+06
  -1.686019e+06   2.409904e+06
  -1.630964e+06  -7.336476e+05
  -3.790374e+05  -2.426701e+06
   5.406539e+05  -4.109099e+05
  -3.160822e+05   2.610947e+06
  -2.060873e+06   2.024258e+06
  -1.948686e+06  -2.026490e+06
   9.644395e+05  -4.164542e+06
   3.875164e+06  -9.619924e+05
   3.245539e+06   4.213200e+06
  -9.129979e+05   5.474066e+06
  -4.930336e+06   1.631969e+06
  -5.309421e+06  -3.109405e+06
  -1.857680e+06  -4.565934e+06
   2.532708e+06  -2.438681e+06
   4.381602e+06   7.531213e+05
   2.372642e+06   2.481373e+06
  -1.408150e+06   1.777593e+06
  -3.238813e+06  -3.740798e+05
  -1.594797e+06  -1.746738e+06
   1.116127e+06  -9.981143e+05
   1.521195e+06   7.018299e+05
  -4.982666e+05   1.049766e+06
  -1.858335e+06  -4.265777e+05
  -4.189686e+05  -1.863126e+06
   2.399878e+06  -1.542896e+06
   3.575099e+06   3.249748e+05
   1.852076e+06   2.465159e+06
  -1.481161e+06   3.808404e+06
  -4.209736e+06   3.469671e+06
  -4.786662e+06   9.476288e+05
  -3.072735e+06  -2.648692e+06
  -4.435528e+05  -4.717867e+06
   1.170766e+06  -3.814529e+06
   1.087358e+06  -1.522948e+06
   5.132503e+05  -4.630516e+05
   9.005367e+05  -9.399980e+05
   2.049106e+06  -9.630770e+05
   2.481129e+06   5.793964e+05
   1.387523e+06   2.265841e+06
  -5.005148e+05   2.091659e+06
  -1.792440e+06   1.496835e+03
  -1.553368e+06  -2.161525e+06
   2.163216e+05  -2.615925e+06
   2.428665e+06  -1.065047e+06
   3.353174e+06   1.334004e+06
   2.103190e+06   2.938678e+06
  -1.985673e+05   2.881154e+06
  -1.528088e+06   1.756654e+06
  -1.399417e+06   8.872386e+05
  -1.324952e+06   7.674366e+05
  -2.459822e+06   5.865849e+05
  -3.703963e+06  -5.471311e+05
  -3.004506e+06  -2.348088e+06
  -9.811951e+04  -3.605054e+06
   2.932001e+06  -3.354473e+06
   3.814656e+06  -1.601663e+06
   2.243792e+06   6.843710e+05
  -1.016468e+05   2.037701e+06
  -1.219214e+06   1.531561e+06
  -4.574857e+05  -1.402362e+05
   1.061015e+06  -1.077792e+06
   1.607910e+06  -2.871754e+05
   6.544933e+05   1.015971e+06
  -5.689331e+05   9.757479e+05
  -5.489972e+05  -3.281380e+05
   6.890522e+05  -8.913965e+05
   1.646700e+06   5.220419e+05
   1.097929e+06   2.669763e+06
  -7.148873e+05   3.296872e+06
  -2.549847e+06   1.666995e+06
  -3.260487e+06  -9.035323e+05
  -2.409343e+06  -2.581767e+06
  -4.839635e+05  -2.543968e+06
   1.208677e+06  -1.301954e+06
   1.458088e+06  -1.094661e+05
   4.377876e+05   4.968207e+04
  -3.143596e+05  -6.661615e+05
   3.135305e+05  -1.114654e+06
   1.562531e+06  -4.850920e+05
   1.733599e+06   6.873525e+05
   3.931569e+05   1.168443e+06
  -1.015061e+06   5.330787e+05
  -8.875613e+05  -4.078885e+05
   6.960239e+05  -6.271802e+05
   2.092199e+06   1.101612e+05
   1.797549e+06   1.241165e+06
  -1.240482e+05   1.936121e+06
  -2.113011e+06   1.579565e+06
  -2.504239e+06   2.463184e+05
  -1.054840e+06  -1.078995e+06
   7.845699e+05  -1.223472e+06
   1.268102e+06  -1.287397e+05
   1.035489e+05   8.941148e+05
  -1.331478e+06   6.112217e+05
  -1.531155e+06  -6.616327e+05
  -3.860466e+05  -1.467815e+06
   9.015404e+05  -9.695926e+05
   1.155886e+06   1.629355e+05
   3.102709e+05   6.606649e+05
  -6.454672e+05   6.352671e+04
  -6.127428e+05  -9.262011e+05
   5.600223e+05  -1.235406e+06
   1.800849e+06  -4.124242e+05
   1.772188e+06   9.827003e+05
   3.108083e+05   1.832473e+06
  -1.262780e+06   1.441840e+06
  -1.524431e+06   2.068961e+05
  -4.816781e+05  -7.594491e+05
   5.746221e+05  -7.373077e+05
   6.272555e+05  -4.964352e+04
  -6.475520e+04   4.341698e+05
  -5.375153e+05   2.889937e+05
  -2.876177e+05  -1.020063e+05
   3.150592e+05  -8.825455e+04
   5.151591e+05   4.819645e+05
  -1.075260e+05   1.038625e+06
  -1.211536e+06   8.067626e+05
  -1.849750e+06  -3.798976e+05
  -1.272678e+06  -1.745530e+06
   2.321335e+05  -2.182744e+06
   1.483670e+06  -1.321395e+06
   1.597200e+06   7.745065e+04
   8.761288e+05   8.999601e+05
   3.021167e+05   7.818323e+05
   3.154986e+05   3.152068e+05
   4.381955e+05   2.364815e+05
   5.820954e+04   6.037923e+05
  -7.577685e+05   8.175254e+05
  -1.327198e+06   3.342481e+05
  -1.016735e+06  -6.882450e+05
   1.918404e+05  -1.407202e+06
   1.571237e+06  -1.008210e+06
   2.047450e+06   4.459360e+05
   1.045946e+06   1.878529e+06
  -8.432253e+05   2.100965e+06
  -2.223059e+06   9.583617e+05
  -2.147652e+06  -5.250558e+05
  -9.775498e+05  -1.215846e+06
   1.292838e+05  -9.683395e+05
   4.476307e+05  -5.563486e+05
   2.350524e+05  -6.489103e+05
   1.820652e+05  -1.067071e+06
   5.878521e+05  -1.072294e+06
   1.111525e+06  -2.450803e+05
   1.156635e+06   9.958217e+05
   4.558576e+05   1.709922e+06
  -5.932087e+05   1.276254e+06
  -1.162442e+06  -2.396410e+03
  -7.381054e+05  -1.117186e+06
   2.956447e+05  -1.240968e+06
   9.662776e+05  -4.396712e+05
   7.139125e+05   4.996170e+05
  -2.733217e+04   8.908836e+05
  -3.742414e+05   7.162372e+05
  -3.732227e+04   4.224513e+05
   3.587200e+05   3.320166e+05
   3.242647e+04   3.539476e+05
  -9.909727e+05   1.888310e+05
  -1.785185e+06  -3.002660e+05
  -1.433518e+06  -9.115570e+05
  -2.068302e+04  -1.233254e+06
   1.352361e+06  -9.777731e+05
   1.616375e+06  -2.760710e+05
   7.724318e+05   3.596161e+05
  -2.005768e+05   4.624750e+05
  -4.351429e+05   6.391149e+04
   4.905417e+03  -3.173092e+05
   4.308058e+05  -2.046976e+05
   4.139494e+05   3.153163e+05
   1.424752e+05   6.671501e+05
   1.106197e+04   4.309519e+05
   1.361079e+05  -1.311282e+05
   3.138989e+05  -3.144661e+05
   2.572592e+05   2.054806e+05
  -1.792305e+05   9.033410e+05
  -8.184301e+05   9.275671e+05
  -1.137115e+06   9.404217e+04
  -6.659231e+05  -8.301803e+05
   3.860895e+05  -9.484857e+05
   1.080523e+06  -2.175027e+05
   6.357344e+05   5.477108e+05
  -6.233144e+05   5.856729e+05
  -1.457761e+06  -7.494285e+04
  -9.832001e+05  -7.796690e+05
   3.867903e+05  -9.433116e+05
   1.380299e+06  -5.023638e+05
   1.171757e+06   1.449930e+05
   1.469022e+05   4.835740e+05
  -5.826524e+05   2.651724e+05
  -3.202359e+05  -2.474751e+05
   5.639275e+05  -4.244690e+05
   1.052124e+06   1.425536e+05
   5.206998e+05   1.095093e+06
  -6.297925e+05   1.490934e+06
  -1.382569e+06   7.233954e+05
  -1.113208e+06  -7.307507e+05
  -1.394894e+05  -1.635721e+06
   6.968429e+05  -1.190675e+06
   8.488380e+05   1.366556e+05
   4.115529e+05   1.083571e+06
  -1.649049e+05   9.078518e+05
  -4.957773e+05   9.028970e+04
  -4.531902e+05  -3.625054e+05
  -1.874349e+05  -1.449959e+05
  -3.034275e+04   1.002595e+05
  -1.886099e+05  -2.371736e+05
  -4.215136e+05  -8.686657e+05
  -2.041072e+05  -9.936156e+05
   5.954147e+05  -3.591580e+05
   1.334882e+06   4.500399e+05
   1.191820e+06   7.848527e+05
   1.615491e+05   6.257787e+05
  -8.210822e+05   3.552238e+05
  -9.110441e+05   1.613979e+05
  -2.927590e+05  -2.673874e+04
   1.516217e+05  -1.955895e+05
  -9.970090e+03  -2.134351e+05
  -2.864015e+05  -1.227791e+05
  -2.301738e+04  -1.227275e+05
   6.553561e+05  -1.757885e+05
   9.376687e+05   4.655718e+04
   3.037636e+05   6.192392e+05
  -8.294306e+05   1.011883e+06
  -1.513997e+06   6.139652e+05
  -1.201667e+06  -4.417080e+05
  -1.985558e+05  -1.282437e+06
   7.072293e+05  -1.210859e+06
   9.550974e+05  -4.308852e+05
   5.914578e+05   2.512089e+05
   9.256003e+04   3.237351e+05
  -1.037614e+05   2.648401e+04
   6.120126e+04  -4.714580e+04
   2.870097e+05   3.260996e+05
   2.251084e+05   7.365677e+05
  -1.848638e+05   5.985392e+05
  -6.186552e+05  -1.555703e+05
  -6.169773e+05  -9.023448e+05
  -3.340314e+04  -9.239617e+05
   7.077138e+05  -1.627071e+05
   9.008418e+05   7.104672e+05
   2.629880e+05   9.857180e+05
  -6.620339e+05   5.636306e+05
  -9.853586e+05  -1.016820e+05
  -4.448299e+05  -5.323221e+05
   2.668215e+05  -5.670869e+05
   3.141511e+05  -3.179965e+05
  -2.601245e+05  -3.205733e+04
  -5.966059e+05   1.440649e+04
  -1.131302e+05  -2.723890e+05
   7.600494e+05  -6.003890e+05
   1.118007e+06  -4.926306e+05
   6.488025e+05   1.426308e+05
  -1.074937e+05   7.669019e+05
  -4.817429e+05   7.483575e+05
  -3.470279e+05   1.131063e+05
  -1.669212e+04  -4.472568e+05
   2.303408e+05  -3.666039e+05
   3.135229e+05   1.740291e+05
   2.115014e+05   5.272005e+05
  -6.283008e+04   3.528197e+05
  -3.489817e+05  -6.324889e+04
  -4.136359e+05  -2.388418e+05
  -2.184081e+05  -7.117803e+04
   1.335568e+04   1.082433e+05
   7.842539e+04  -1.364572e+04
   4.537743e+04  -3.362851e+05
   1.191666e+05  -4.522022e+05
   3.076662e+05  -1.273540e+05
   3.571750e+05   3.874254e+05
   6.796362e+04   5.873321e+05
  -3.904188e+05   2.569515e+05
  -5.691540e+05  -2.863264e+05
  -1.984138e+05  -5.346234e+05
   4.553499e+05  -3.149591e+05
   7.736764e+05   1.000834e+05
   4.142049e+05   3.509408e+05
  -2.712734e+05   3.300996e+05
  -5.696851e+05   1.625929e+05
  -2.001043e+05   8.415758e+03
   3.472251e+05  -2.428181e+04
   3.769227e+05   1.042337e+05
  -1.894648e+05   2.781016e+05
  -7.245446e+05   2.228986e+05
