
 $NMID
 id='ANONYMOUS ', fmtdat='(2E16.6)'
 volume=1.0
 tramp=1.0
 $END
   4.018101e+07  -8.019326e+05
   2.569687e+07   2.213486e+07
  -2.763575e+06   2.665460e+07
  -1.860595e+07   1.330742e+07
  -1.295694e+07  -2.219295e+06
   9.761584e+05  -6.936927e+06
   7.481522e+06  -1.000647e+06
   3.734252e+06   6.740134e+06
  -3.319201e+06   8.468036e+06
  -7.120169e+06   2.930736e+06
  -5.685389e+06  -4.634096e+06
  -8.054216e+05  -7.030645e+06
   3.222690e+06  -1.944627e+06
   2.446881e+06   5.058585e+06
  -2.464697e+06   6.121366e+06
  -6.088877e+06  -1.690883e+05
  -4.046512e+06  -7.473885e+06
   2.185424e+06  -9.116301e+06
   7.322838e+06  -4.590240e+06
   7.803097e+06   1.643651e+06
   4.300595e+06   5.375282e+06
   2.008237e+05   5.501831e+06
  -1.265387e+06   3.622481e+06
   3.629020e+05   2.372487e+06
   1.938601e+06   3.156068e+06
  -2.329235e+05   4.491925e+06
  -5.469658e+06   3.512504e+06
  -8.460117e+06  -2.320868e+05
  -5.468963e+06  -3.704060e+06
   6.906554e+05  -3.938077e+06
   3.911584e+06  -1.405469e+06
   1.968823e+06   1.110348e+06
  -1.808367e+06   1.673098e+06
  -3.399613e+06   1.656775e+05
  -2.127552e+06  -2.391992e+06
   2.090151e+05  -4.017957e+06
   1.821774e+06  -2.716991e+06
   1.817349e+06   8.161409e+05
   4.486338e+05   2.694978e+06
  -6.174884e+05   4.248108e+05
   2.667137e+05  -2.960822e+06
   2.220136e+06  -2.334127e+06
   2.221685e+06   2.163739e+06
  -9.078093e+05   4.605006e+06
  -4.200083e+06   1.161443e+06
  -3.681115e+06  -4.541729e+06
   8.380810e+05  -6.044830e+06
   5.392821e+06  -1.944401e+06
   5.990265e+06   3.261436e+06
   2.234331e+06   4.991254e+06
  -2.713480e+06   2.804819e+06
  -4.893268e+06  -6.597157e+05
  -2.734286e+06  -2.650897e+06
   1.481854e+06  -2.010973e+06
   3.588195e+06   2.994718e+05
   1.822724e+06   1.867978e+06
  -1.199026e+06   1.136987e+06
  -1.718174e+06  -7.188488e+05
   4.847400e+05  -1.181725e+06
   2.047456e+06   3.719198e+05
   5.430858e+05   1.992777e+06
  -2.559336e+06   1.762012e+06
  -3.936462e+06  -2.240644e+05
  -2.124524e+06  -2.646542e+06
   1.527854e+06  -4.271260e+06
   4.581492e+06  -3.994643e+06
   5.296813e+06  -1.196766e+06
   3.488120e+06   2.861605e+06
   6.377342e+05   5.231537e+06
  -1.155617e+06   4.273408e+06
  -1.125773e+06   1.745017e+06
  -5.505950e+05   5.726808e+05
  -1.003458e+06   1.111471e+06
  -2.292569e+06   1.145622e+06
  -2.812880e+06  -5.843272e+05
  -1.633329e+06  -2.510029e+06
   4.955268e+05  -2.375403e+06
   2.022129e+06  -7.306965e+04
   1.826539e+06   2.365448e+06
  -1.513675e+05   2.934837e+06
  -2.681117e+06   1.264039e+06
  -3.777296e+06  -1.390172e+06
  -2.418700e+06  -3.206161e+06
   1.428437e+05  -3.194475e+06
   1.637988e+06  -1.979969e+06
   1.509198e+06  -1.022847e+06
   1.433863e+06  -9.049028e+05
   2.713482e+06  -7.499527e+05
   4.145752e+06   4.699735e+05
   3.435995e+06   2.505797e+06
   2.432891e+05   4.018609e+06
  -3.152468e+06   3.853162e+06
  -4.209528e+06   1.923581e+06
  -2.534317e+06  -6.948560e+05
   4.893592e+04  -2.289996e+06
   1.317961e+06  -1.754577e+06
   5.172116e+05   1.450768e+05
  -1.149991e+06   1.242282e+06
  -1.782562e+06   3.758558e+05
  -7.606842e+05  -1.111936e+06
   6.033643e+05  -1.112860e+06
   6.314787e+05   3.405606e+05
  -7.180499e+05   1.024800e+06
  -1.840863e+06  -4.960878e+05
  -1.335311e+06  -2.907275e+06
   6.386317e+05  -3.698226e+06
   2.754993e+06  -1.977204e+06
   3.675496e+06   8.614023e+05
   2.805553e+06   2.785040e+06
   6.456687e+05   2.827855e+06
  -1.304033e+06   1.501694e+06
  -1.628000e+06   1.749054e+05
  -4.906394e+05  -3.933405e+04
   3.757661e+05   7.317760e+05
  -3.079968e+05   1.251374e+06
  -1.721261e+06   5.953535e+05
  -1.954941e+06  -7.000125e+05
  -4.821383e+05  -1.284401e+06
   1.111320e+06  -6.335512e+05
   1.010264e+06   4.193316e+05
  -7.460242e+05   7.316244e+05
  -2.340626e+06  -3.224966e+04
  -2.064252e+06  -1.311727e+06
   5.609772e+04  -2.170336e+06
   2.298000e+06  -1.848851e+06
   2.786987e+06  -3.705394e+05
   1.215368e+06   1.163387e+06
  -8.314910e+05   1.389463e+06
  -1.406701e+06   1.862795e+05
  -1.441635e+05  -9.935273e+05
   1.463623e+06  -7.300397e+05
   1.732945e+06   6.792813e+05
   4.895929e+05   1.621075e+06
  -9.639364e+05   1.118222e+06
  -1.294481e+06  -1.325714e+05
  -3.739193e+05  -7.217724e+05
   7.151755e+05  -9.420870e+04
   7.169818e+05   1.011377e+06
  -5.811547e+05   1.400153e+06
  -1.996912e+06   5.258917e+05
  -2.014716e+06  -1.032955e+06
  -4.143199e+05  -2.033674e+06
   1.354709e+06  -1.655315e+06
   1.692342e+06  -2.887509e+05
   5.671018e+05   8.279431e+05
  -6.125328e+05   8.451454e+05
  -7.015019e+05   7.997575e+04
   5.085581e+04  -4.908251e+05
   5.902889e+05  -3.502724e+05
   3.337994e+05   9.962900e+04
  -3.400887e+05   1.147332e+05
  -5.921129e+05  -5.117446e+05
   7.787094e+04  -1.160157e+06
   1.320394e+06  -9.461029e+05
   2.078904e+06   3.545363e+05
   1.485444e+06   1.901467e+06
  -1.774776e+05   2.447005e+06
  -1.605984e+06   1.534706e+06
  -1.788276e+06  -2.196880e+04
  -1.019324e+06  -9.722635e+05
  -3.732259e+05  -8.689445e+05
  -3.628338e+05  -3.479416e+05
  -4.917448e+05  -2.488890e+05
  -8.475410e+04  -6.689293e+05
   8.131684e+05  -9.410166e+05
   1.468658e+06  -4.264094e+05
   1.165525e+06   7.289285e+05
  -1.562858e+05   1.581311e+06
  -1.715337e+06   1.188087e+06
  -2.304268e+06  -4.194660e+05
  -1.240205e+06  -2.056274e+06
   8.594036e+05  -2.374864e+06
   2.441919e+06  -1.154155e+06
   2.417221e+06   5.006300e+05
   1.142955e+06   1.317380e+06
  -1.017622e+05   1.089392e+06
  -4.798793e+05   6.450501e+05
  -2.454359e+05   7.369030e+05
  -1.694826e+05   1.196231e+06
  -6.173341e+05   1.215467e+06
  -1.230651e+06   3.127066e+05
  -1.327991e+06  -1.070130e+06
  -5.723108e+05  -1.893283e+06
   6.156532e+05  -1.447773e+06
   1.298246e+06  -4.173070e+04
   8.659105e+05   1.217433e+06
  -2.808876e+05   1.394574e+06
  -1.056610e+06   5.286115e+05
  -8.118397e+05  -5.256417e+05
  -4.802507e+03  -9.900917e+05
   3.856020e+05  -8.114239e+05
   2.258642e+04  -4.740134e+05
  -4.126462e+05  -3.591190e+05
  -4.905758e+04  -3.948734e+05
   1.097336e+06  -2.474002e+05
   2.001551e+06   2.692170e+05
   1.633732e+06   9.628158e+05
   7.079420e+04   1.372163e+06
  -1.470727e+06   1.138946e+06
  -1.792069e+06   3.699905e+05
  -8.746585e+05  -3.678442e+05
   2.062471e+05  -5.208824e+05
   4.813333e+05  -8.866736e+04
   3.458309e+03   3.526543e+05
  -4.753316e+05   2.445864e+05
  -4.734850e+05  -3.371647e+05
  -1.811921e+05  -7.425785e+05
  -2.544054e+04  -4.828867e+05
  -1.461364e+05   1.539502e+05
  -3.397025e+05   3.671806e+05
  -2.954251e+05  -2.190639e+05
   1.674142e+05  -1.017560e+06
   8.797100e+05  -1.065742e+06
   1.263975e+06  -1.429980e+05
   7.708934e+05   9.047900e+05
  -3.977501e+05   1.070653e+06
  -1.198353e+06   2.786290e+05
  -7.304592e+05  -5.894648e+05
   6.731416e+05  -6.774368e+05
   1.631270e+06   2.677646e+04
   1.130981e+06   8.307518e+05
  -3.920539e+05   1.068799e+06
  -1.521126e+06   6.176594e+05
  -1.315736e+06  -1.141055e+05
  -1.842603e+05  -5.344447e+05
   6.396382e+05  -3.192474e+05
   3.652779e+05   2.641156e+05
  -6.166148e+05   4.944243e+05
  -1.181690e+06  -1.228156e+05
  -6.200365e+05  -1.206988e+06
   6.525255e+05  -1.689633e+06
   1.520676e+06  -8.580876e+05
   1.271286e+06   7.764619e+05
   2.165333e+05   1.823316e+06
  -7.333314e+05   1.357971e+06
  -9.528893e+05  -1.186659e+05
  -5.021876e+05  -1.193790e+06
   1.467549e+05  -1.020497e+06
   5.490696e+05  -1.200902e+05
   5.221749e+05   3.874605e+05
   2.175000e+05   1.544824e+05
   2.892188e+04  -1.133474e+05
   2.154664e+05   2.582797e+05
   5.016918e+05   9.549327e+05
   2.680329e+05   1.101562e+06
  -6.485072e+05   4.221765e+05
  -1.508757e+06  -4.530107e+05
  -1.363439e+06  -8.311154e+05
  -2.037994e+05  -6.924440e+05
   9.066164e+05  -4.284391e+05
   1.012300e+06  -2.155581e+05
   3.254237e+05   1.872344e+04
  -1.631973e+05   2.244209e+05
   2.248028e+04   2.379007e+05
   3.283130e+05   1.264717e+05
   2.928518e+04   1.371030e+05
  -7.294685e+05   2.213155e+05
  -1.049628e+06  -1.851460e+04
  -3.578036e+05  -6.826836e+05
   8.932599e+05  -1.161073e+06
   1.668456e+06  -7.385597e+05
   1.356420e+06   4.530143e+05
   2.681930e+05   1.426859e+06
  -7.455217e+05   1.377668e+06
  -1.052463e+06   5.146542e+05
  -6.714925e+05  -2.602996e+05
  -1.141034e+05  -3.590199e+05
   1.183721e+05  -3.316620e+04
  -6.463726e+04   5.631754e+04
  -3.335309e+05  -3.522300e+05
  -2.797431e+05  -8.141431e+05
   1.855403e+05  -6.753765e+05
   6.986994e+05   1.527220e+05
   7.219527e+05   9.885560e+05
   6.794124e+04   1.032755e+06
  -7.880858e+05   2.060567e+05
  -1.033218e+06  -7.639310e+05
  -3.280979e+05  -1.092779e+06
   7.207785e+05  -6.523333e+05
   1.103966e+06   7.911190e+04
   5.139902e+05   5.776341e+05
  -2.786351e+05   6.409427e+05
  -3.375652e+05   3.650199e+05
   2.947993e+05   2.584437e+04
   6.670308e+05  -3.791740e+04
   1.352728e+05   3.002593e+05
  -8.271696e+05   6.990761e+05
  -1.228176e+06   5.920453e+05
  -7.267014e+05  -1.351449e+05
   9.285950e+04  -8.600889e+05
   5.094176e+05  -8.516613e+05
   3.822557e+05  -1.359165e+05
   3.429525e+04   5.009459e+05
  -2.452312e+05   4.170437e+05
  -3.581170e+05  -1.851069e+05
  -2.553164e+05  -5.817098e+05
   5.907960e+04  -3.949245e+05
   3.927692e+05   5.895938e+04
   4.693093e+05   2.507325e+05
   2.458470e+05   7.021322e+04
  -1.677595e+04  -1.194110e+05
  -8.503486e+04   2.164066e+04
  -4.065643e+04   3.806515e+05
  -1.224015e+05   5.098113e+05
  -3.429061e+05   1.503463e+05
  -4.118934e+05  -4.242583e+05
  -9.367155e+04  -6.565147e+05
   4.286982e+05  -3.009511e+05
   6.458785e+05   3.015635e+05
   2.406150e+05   5.917888e+05
  -4.969234e+05   3.678653e+05
  -8.675462e+05  -8.542036e+04
  -4.750569e+05  -3.775510e+05
   2.921200e+05  -3.771290e+05
   6.313372e+05  -2.000607e+05
   2.217868e+05  -1.531138e+04
  -3.906526e+05   3.941459e+04
  -4.274410e+05  -1.046948e+05
   2.027480e+05  -3.203468e+05
   8.049456e+05  -2.773008e+05
