
 $NMID
 id='ANONYMOUS ', fmtdat='(2E16.6)'
 volume=1.0
 tramp=1.0
 $END
   3.553671e+07  -1.470676e+04
   2.154273e+07   2.195253e+07
  -4.566946e+06   2.412411e+07
  -1.748966e+07   9.399194e+06
  -1.057453e+07  -4.362644e+06
   2.045516e+06  -5.959481e+06
   6.312072e+06   7.176008e+05
   1.835320e+06   6.238766e+06
  -3.956314e+06   6.019013e+06
  -6.169478e+06   1.308243e+06
  -4.422523e+06  -3.955038e+06
  -4.736879e+05  -5.469385e+06
   2.531699e+06  -1.705592e+06
   1.620103e+06   3.512111e+06
  -2.440628e+06   4.200697e+06
  -5.021577e+06  -8.342935e+05
  -2.825981e+06  -6.484161e+06
   2.396541e+06  -7.488407e+06
   6.388882e+06  -3.731153e+06
   6.803611e+06   1.303918e+06
   4.153030e+06   4.695621e+06
   4.595480e+05   5.405281e+06
  -1.763306e+06   3.826380e+06
  -1.117693e+06   1.803899e+06
   6.661337e+05   1.488430e+06
   6.627608e+04   2.677052e+06
  -3.495060e+06   2.705723e+06
  -6.128630e+06   2.078181e+05
  -4.420332e+06  -2.658601e+06
  -1.019759e+05  -3.160741e+06
   2.379453e+06  -1.537234e+06
   1.512222e+06   5.205493e+04
  -4.953387e+05   5.678478e+05
  -1.507563e+06   2.121114e+05
  -1.339588e+06  -9.908410e+05
  -3.451406e+05  -2.494351e+06
   1.155892e+06  -2.399226e+06
   1.975444e+06   7.337092e+04
   1.037972e+06   2.255796e+06
  -4.431938e+05   1.166504e+06
  -1.320105e+05  -1.578544e+06
   1.606329e+06  -1.461227e+06
   1.569773e+06   2.032202e+06
  -1.503977e+06   3.918634e+06
  -4.366363e+06   6.987389e+05
  -3.247570e+06  -4.348559e+06
   1.178388e+06  -5.399902e+06
   4.696369e+06  -1.529129e+06
   4.425551e+06   2.862906e+06
   1.170694e+06   3.883016e+06
  -2.249074e+06   1.737817e+06
  -3.392703e+06  -1.003299e+06
  -1.566220e+06  -2.259720e+06
   1.537265e+06  -1.417045e+06
   2.889564e+06   5.860791e+05
   1.251293e+06   1.734947e+06
  -1.091512e+06   8.718160e+05
  -1.120174e+06  -6.730555e+05
   8.399896e+05  -6.288525e+05
   1.621448e+06   1.077595e+06
  -3.160597e+05   2.197771e+06
  -2.900648e+06   1.258083e+06
  -3.386846e+06  -8.253515e+05
  -1.493568e+06  -2.520706e+06
   1.174250e+06  -3.330829e+06
   3.233457e+06  -3.027305e+06
   3.944647e+06  -1.053826e+06
   2.868005e+06   2.031340e+06
   5.504793e+05   3.930141e+06
  -1.211145e+06   3.059465e+06
  -1.150803e+06   8.198969e+05
  -1.634423e+05  -1.441922e+05
  -5.362043e+04   5.866580e+05
  -1.063247e+06   1.065488e+06
  -1.779479e+06   7.322291e+04
  -1.233568e+06  -1.286737e+06
   5.310038e+04  -1.373043e+06
   1.025581e+06  -7.916715e+04
   1.048085e+06   1.390877e+06
  -4.897202e+04   1.890857e+06
  -1.788487e+06   1.014177e+06
  -2.827046e+06  -8.083818e+05
  -2.015168e+06  -2.405899e+06
   3.660106e+04  -2.673392e+06
   1.439580e+06  -1.719465e+06
   1.417354e+06  -7.350526e+05
   1.188001e+06  -4.467965e+05
   1.915508e+06  -2.917328e+05
   2.810807e+06   5.336267e+05
   2.227782e+06   1.829986e+06
   3.242640e+04   2.678441e+06
  -2.133272e+06   2.481055e+06
  -2.729624e+06   1.301062e+06
  -1.696364e+06  -3.194641e+05
  -1.274462e+05  -1.439467e+06
   7.435977e+05  -1.218147e+06
   3.573406e+05   3.498470e+04
  -7.261337e+05   8.275405e+05
  -1.238278e+06   2.347048e+05
  -5.778296e+05  -7.845272e+05
   3.578482e+05  -7.105865e+05
   2.837260e+05   2.698459e+05
  -7.075889e+05   4.693066e+05
  -1.228813e+06  -8.313396e+05
  -4.245406e+05  -2.286686e+06
   1.063797e+06  -2.251860e+06
   2.087073e+06  -7.279244e+05
   2.169727e+06   9.866273e+05
   1.451129e+06   1.857217e+06
   2.483949e+05   1.720279e+06
  -8.328942e+05   9.295062e+05
  -1.027443e+06   1.188225e+05
  -3.197830e+05  -3.726158e+04
   2.229002e+05   4.957371e+05
  -2.825285e+05   8.697648e+05
  -1.246508e+06   3.571252e+05
  -1.317898e+06  -6.012077e+05
  -2.374055e+05  -9.310496e+05
   7.753164e+05  -3.581265e+05
   5.771278e+05   3.177616e+05
  -5.709192e+05   3.367300e+05
  -1.434667e+06  -2.455698e+05
  -1.123304e+06  -9.282561e+05
   2.007378e+05  -1.294140e+06
   1.539804e+06  -1.044343e+06
   1.815509e+06  -1.347706e+05
   7.776889e+05   8.413648e+05
  -6.145451e+05   9.661150e+05
  -1.015785e+06   1.070681e+05
  -1.174705e+05  -7.025264e+05
   9.988133e+05  -4.588943e+05
   1.113127e+06   5.364441e+05
   1.966486e+05   1.090574e+06
  -7.343806e+05   6.276409e+05
  -8.252210e+05  -2.244884e+05
  -1.518139e+05  -5.209410e+05
   5.224990e+05  -2.853022e+04
   4.668530e+05   6.969936e+05
  -3.957609e+05   9.197202e+05
  -1.316198e+06   3.238623e+05
  -1.311709e+06  -7.144529e+05
  -2.204421e+05  -1.359879e+06
   9.647334e+05  -1.053062e+06
   1.132745e+06  -1.115536e+05
   3.156022e+05   5.783430e+05
  -4.451021e+05   5.160554e+05
  -4.151061e+05   3.527806e+04
   9.033160e+04  -2.386766e+05
   3.328846e+05  -1.237546e+05
   7.867756e+04   5.717593e+04
  -3.009930e+05  -4.921213e+04
  -3.365558e+05  -4.489703e+05
   1.507738e+05  -7.774362e+05
   9.172672e+05  -5.657986e+05
   1.353660e+06   3.016631e+05
   9.273264e+05   1.290168e+06
  -1.800035e+05   1.576367e+06
  -1.081373e+06   8.957315e+05
  -1.104829e+06  -1.141906e+05
  -5.401731e+05  -6.068534e+05
  -1.836528e+05  -4.332248e+05
  -2.994289e+05  -1.437157e+05
  -4.070561e+05  -2.053052e+05
  -5.333925e+04  -4.982533e+05
   5.865090e+05  -5.769318e+05
   9.539693e+05  -1.883342e+05
   6.721436e+05   4.929719e+05
  -1.923285e+05   9.522531e+05
  -1.144763e+06   6.725905e+05
  -1.460693e+06  -3.527998e+05
  -7.086577e+05  -1.392143e+06
   6.952345e+05  -1.534711e+06
   1.679906e+06  -6.382703e+05
   1.530541e+06   4.704148e+05
   6.027136e+05   8.982161e+05
  -1.576998e+05   6.188021e+05
  -2.692376e+05   3.207546e+05
  -6.123165e+04   4.795753e+05
  -8.058383e+04   8.460144e+05
  -4.521432e+05   8.324228e+05
  -8.474108e+05   1.917708e+05
  -8.558955e+05  -7.233359e+05
  -3.343554e+05  -1.243573e+06
   4.273920e+05  -9.273506e+05
   8.401973e+05   2.194699e+04
   5.134019e+05   8.520838e+05
  -2.761665e+05   9.101211e+05
  -7.715943e+05   2.521284e+05
  -5.281090e+05  -4.676099e+05
   9.218099e+04  -7.070008e+05
   3.641501e+05  -5.103095e+05
   6.577630e+04  -2.730010e+05
  -2.761155e+05  -2.233714e+05
  -3.297590e+04  -2.496170e+05
   7.539673e+05  -1.226037e+05
   1.343454e+06   2.436967e+05
   1.042544e+06   7.010924e+05
  -4.335832e+04   9.417598e+05
  -1.053587e+06   7.269639e+05
  -1.203508e+06   1.548299e+05
  -5.429487e+05  -3.386562e+05
   1.761975e+05  -3.708862e+05
   3.375739e+05  -1.551313e+04
   1.873120e+04   2.740461e+05
  -2.904101e+05   1.602909e+05
  -3.093281e+05  -2.289578e+05
  -1.557889e+05  -4.692922e+05
  -5.760641e+04  -3.089409e+05
  -9.411380e+04   5.765943e+04
  -1.889953e+05   1.809212e+05
  -1.766418e+05  -1.565663e+05
   1.064443e+05  -6.380648e+05
   6.008237e+05  -6.838254e+05
   8.910705e+05  -1.034558e+05
   5.466652e+05   6.023045e+05
  -2.817867e+05   7.406017e+05
  -8.224602e+05   2.095531e+05
  -4.696934e+05  -3.819684e+05
   4.694153e+05  -4.134839e+05
   1.036015e+06   9.031667e+04
   6.395719e+05   5.859663e+05
  -3.387667e+05   6.397593e+05
  -9.911143e+05   2.826456e+05
  -8.015629e+05  -1.508929e+05
  -7.629959e+04  -3.391174e+05
   4.310827e+05  -1.643915e+05
   2.500544e+05   1.975487e+05
  -3.839142e+05   3.336251e+05
  -7.683169e+05  -6.328782e+04
  -4.269940e+05  -7.728139e+05
   3.975378e+05  -1.101566e+06
   9.730217e+05  -5.618581e+05
   8.089197e+05   5.074542e+05
   1.090194e+05   1.169938e+06
  -5.031261e+05   8.310725e+05
  -6.034336e+05  -1.336693e+05
  -2.603988e+05  -7.881343e+05
   1.662233e+05  -6.299025e+05
   3.722136e+05  -4.540516e+04
   2.930246e+05   2.546084e+05
   9.760205e+04   9.338677e+04
   3.656796e+04  -6.086789e+04
   1.903376e+05   1.961585e+05
   3.244605e+05   6.378421e+05
   1.013524e+05   7.092995e+05
  -4.819307e+05   2.514552e+05
  -9.553194e+05  -3.233877e+05
  -8.167393e+05  -5.669444e+05
  -1.115245e+05  -4.607005e+05
   5.545284e+05  -2.605973e+05
   6.433381e+05  -1.023300e+05
   2.434314e+05   4.106659e+04
  -9.436972e+04   1.451052e+05
  -3.734101e+04   1.324870e+05
   1.592914e+05   6.315061e+04
   3.561627e+04   8.533585e+04
  -4.215472e+05   1.468908e+05
  -6.839043e+05  -1.449771e+04
  -2.928309e+05  -4.526661e+05
   5.484455e+05  -7.640566e+05
   1.122880e+06  -4.885795e+05
   9.300981e+05   2.838222e+05
   1.703007e+05   9.176678e+05
  -5.162413e+05   8.965858e+05
  -6.884362e+05   3.503339e+05
  -4.221994e+05  -1.514958e+05
  -8.964999e+04  -2.339892e+05
   3.344755e+04  -4.682301e+04
  -5.993128e+04   2.933801e+03
  -1.881839e+05  -2.488553e+05
  -1.488602e+05  -5.322467e+05
   1.197054e+05  -4.443771e+05
   4.389956e+05   7.650534e+04
   4.806540e+05   6.165163e+05
   8.291634e+04   6.722077e+05
  -4.820073e+05   1.671263e+05
  -6.718941e+05  -4.648722e+05
  -2.288834e+05  -7.127753e+05
   4.659013e+05  -4.471477e+05
   7.361506e+05   5.110564e+04
   3.533150e+05   4.114555e+05
  -1.900955e+05   4.539802e+05
  -2.613014e+05   2.436999e+05
   1.475391e+05   6.198071e+03
   4.207884e+05  -2.217262e+04
   9.867075e+04   2.036538e+05
  -5.450405e+05   4.355703e+05
  -8.406389e+05   3.365552e+05
  -5.123974e+05  -1.285020e+05
   6.678752e+04  -5.722738e+05
   3.771437e+05  -5.637823e+05
   2.900066e+05  -1.157489e+05
   3.753429e+04   3.061524e+05
  -1.548152e+05   2.895659e+05
  -2.253252e+05  -8.657845e+04
  -1.641307e+05  -3.779513e+05
   3.108700e+04  -2.892205e+05
   2.544235e+05   2.609220e+04
   3.154361e+05   1.939673e+05
   1.598585e+05   7.225392e+04
  -3.013999e+04  -1.064861e+05
  -5.895425e+04  -4.890005e+04
   2.101255e+04   2.187824e+05
  -7.817147e+03   3.669273e+05
  -1.961344e+05   1.620091e+05
  -3.104540e+05  -2.312451e+05
  -1.209652e+05  -4.166618e+05
   2.604168e+05  -2.081565e+05
   4.392898e+05   1.754674e+05
   1.683260e+05   3.692814e+05
  -3.370544e+05   2.390487e+05
  -5.828317e+05  -4.620415e+04
  -3.149769e+05  -2.480589e+05
   1.917373e+05  -2.699987e+05
   4.195563e+05  -1.588309e+05
   1.737138e+05  -1.527414e+04
  -2.094064e+05   5.037330e+04
  -2.568002e+05  -2.992323e+04
   1.012307e+05  -1.777157e+05
   4.669605e+05  -1.698498e+05
