
 $NMID
 id='ANONYMOUS ', fmtdat='(2E16.6)'
 volume=1.0
 tramp=1.0
 $END
  -4.344026e+07  -2.054365e+06
  -2.562666e+07  -2.649239e+07
   5.664818e+06  -2.867850e+07
   2.120327e+07  -1.210430e+07
   1.328759e+07   4.158384e+06
  -1.970607e+06   7.269320e+06
  -7.879915e+06  -2.408991e+04
  -2.977349e+06  -7.506120e+06
   4.415383e+06  -8.246630e+06
   7.720320e+06  -2.194600e+06
   5.621090e+06   5.270400e+06
   3.902367e+05   7.337992e+06
  -3.486280e+06   1.928550e+06
  -2.193929e+06  -5.179172e+06
   3.053104e+06  -5.935561e+06
   6.359666e+06   8.300963e+05
   3.585189e+06   8.229056e+06
  -3.108728e+06   9.437023e+06
  -8.165715e+06   4.351332e+06
  -8.310990e+06  -2.228733e+06
  -4.447113e+06  -6.113384e+06
   8.233511e+04  -6.217962e+06
   1.935996e+06  -4.034212e+06
   3.354004e+05  -2.333970e+06
  -1.575618e+06  -2.902202e+06
   3.105476e+05  -4.331226e+06
   5.550130e+06  -3.403574e+06
   8.616507e+06   5.004862e+05
   5.568209e+06   4.067088e+06
  -6.696702e+05   4.155220e+06
  -3.901500e+06   1.499364e+06
  -2.054045e+06  -9.181557e+05
   1.519867e+06  -1.420890e+06
   3.076167e+06  -1.261130e+05
   2.029018e+06   2.218067e+06
  -1.730616e+05   3.955007e+06
  -1.967860e+06   2.864740e+06
  -2.133281e+06  -7.721227e+05
  -5.889903e+05  -2.955894e+06
   7.284384e+05  -7.556966e+05
  -2.312850e+05   2.790491e+06
  -2.350983e+06   2.162444e+06
  -2.090265e+06  -2.498337e+06
   1.554660e+06  -4.790168e+06
   4.854122e+06  -7.838202e+05
   3.648244e+06   5.285167e+06
  -1.486628e+06   6.457879e+06
  -5.908516e+06   1.676151e+06
  -5.904053e+06  -3.825892e+06
  -1.806989e+06  -5.247984e+06
   2.984870e+06  -2.566610e+06
   4.824958e+06   1.116184e+06
   2.445228e+06   2.934393e+06
  -1.790029e+06   1.915927e+06
  -3.716856e+06  -6.590965e+05
  -1.699833e+06  -2.141701e+06
   1.368021e+06  -1.098114e+06
   1.646636e+06   8.662413e+05
  -7.274346e+05   1.039149e+06
  -2.042511e+06  -8.232879e+05
  -9.253239e+04  -2.293504e+06
   3.114924e+06  -1.553367e+06
   4.144882e+06   7.514175e+05
   1.947218e+06   3.040619e+06
  -1.822256e+06   4.350700e+06
  -4.836950e+06   3.885452e+06
  -5.503490e+06   1.011540e+06
  -3.542137e+06  -3.100116e+06
  -4.061909e+05  -5.414749e+06
   1.542174e+06  -4.235037e+06
   1.332735e+06  -1.502000e+06
   4.433184e+05  -3.429802e+05
   7.773339e+05  -1.047343e+06
   2.158062e+06  -1.199699e+06
   2.765141e+06   5.040946e+05
   1.605497e+06   2.414866e+06
  -4.600359e+05   2.274491e+06
  -1.878020e+06   2.896198e+04
  -1.655882e+06  -2.332637e+06
   2.515905e+05  -2.882869e+06
   2.732514e+06  -1.205966e+06
   3.823591e+06   1.529354e+06
   2.395157e+06   3.440164e+06
  -3.150200e+05   3.393317e+06
  -1.898035e+06   2.020637e+06
  -1.719772e+06   9.268255e+05
  -1.543939e+06   7.442465e+05
  -2.747275e+06   5.240311e+05
  -4.086286e+06  -7.496782e+05
  -3.252072e+06  -2.700254e+06
  -6.867867e+03  -3.982380e+06
   3.303829e+06  -3.638188e+06
   4.231457e+06  -1.733176e+06
   2.500031e+06   7.427889e+05
  -7.542107e+04   2.248051e+06
  -1.334648e+06   1.716686e+06
  -5.195214e+05  -1.399890e+05
   1.176987e+06  -1.185032e+06
   1.803571e+06  -2.849758e+05
   7.321888e+05   1.160540e+06
  -6.243110e+05   1.071461e+06
  -5.508193e+05  -3.664225e+05
   8.282898e+05  -8.733202e+05
   1.752401e+06   7.790336e+05
   9.672553e+05   3.040634e+06
  -1.041151e+06   3.489528e+06
  -2.866961e+06   1.569165e+06
  -3.451404e+06  -1.164203e+06
  -2.484678e+06  -2.849379e+06
  -4.536482e+05  -2.747982e+06
   1.339966e+06  -1.404280e+06
   1.600142e+06  -1.068709e+05
   4.816129e+05   6.520869e+04
  -3.281817e+05  -7.418915e+05
   3.949266e+05  -1.233599e+06
   1.769036e+06  -4.887394e+05
   1.901212e+06   8.358065e+05
   3.822280e+05   1.316627e+06
  -1.134774e+06   5.504881e+05
  -9.386957e+05  -4.637012e+05
   7.860713e+05  -6.195372e+05
   2.242926e+06   2.180051e+05
   1.877042e+06   1.390037e+06
  -2.053178e+05   2.069605e+06
  -2.346159e+06   1.651593e+06
  -2.752544e+06   2.006622e+05
  -1.134871e+06  -1.232176e+06
   9.144448e+05  -1.352384e+06
   1.434429e+06  -1.087493e+05
   1.052028e+05   1.009662e+06
  -1.489534e+06   6.455743e+05
  -1.662892e+06  -7.802397e+05
  -3.602412e+05  -1.620750e+06
   1.030713e+06  -1.009877e+06
   1.249175e+06   2.392258e+05
   2.970328e+05   7.375030e+05
  -7.252691e+05   4.313154e+04
  -6.564537e+05  -1.040760e+06
   6.409918e+05  -1.352745e+06
   1.993156e+06  -4.205776e+05
   1.934683e+06   1.122323e+06
   2.961861e+05   2.031167e+06
  -1.438010e+06   1.554447e+06
  -1.686417e+06   1.777950e+05
  -4.994806e+05  -8.508065e+05
   6.537167e+05  -7.887267e+05
   6.756575e+05  -4.805950e+04
  -8.521254e+04   4.400431e+05
  -5.628657e+05   2.808375e+05
  -2.667056e+05  -9.442105e+04
   3.601556e+05  -3.703446e+04
   5.275530e+05   5.739393e+05
  -1.724472e+05   1.137872e+06
  -1.361115e+06   8.464417e+05
  -2.024677e+06  -4.700247e+05
  -1.357948e+06  -1.955763e+06
   3.067657e+05  -2.390241e+06
   1.653892e+06  -1.396801e+06
   1.727530e+06   1.346459e+05
   9.151878e+05   9.806430e+05
   3.195467e+05   8.140455e+05
   3.761642e+05   3.326328e+05
   5.033548e+05   2.942572e+05
   4.494689e+04   6.885734e+05
  -8.639817e+05   8.698699e+05
  -1.455947e+06   3.168556e+05
  -1.077516e+06  -7.699196e+05
   2.542576e+05  -1.509878e+06
   1.743666e+06  -1.049361e+06
   2.226810e+06   5.437642e+05
   1.085520e+06   2.091233e+06
  -1.004465e+06   2.282577e+06
  -2.480949e+06   9.747704e+05
  -2.327401e+06  -6.529259e+05
  -1.007446e+06  -1.349622e+06
   1.753529e+05  -1.022752e+06
   4.733637e+05  -5.789191e+05
   2.344425e+05  -7.258012e+05
   2.146504e+05  -1.202019e+06
   6.863888e+05  -1.182224e+06
   1.243841e+06  -2.445033e+05
   1.255267e+06   1.122571e+06
   4.643566e+05   1.890952e+06
  -6.789814e+05   1.390699e+06
  -1.273480e+06  -3.472688e+04
  -7.729657e+05  -1.255865e+06
   3.757924e+05  -1.352612e+06
   1.087904e+06  -4.283506e+05
   7.627559e+05   6.041111e+05
  -8.409649e+04   9.903963e+05
  -4.589357e+05   7.627576e+05
  -5.941965e+04   4.464609e+05
   3.947346e+05   3.695296e+05
   3.145944e+04   3.887821e+05
  -1.104301e+06   1.748564e+05
  -1.968889e+06  -3.865136e+05
  -1.550476e+06  -1.048382e+06
   3.181598e+04  -1.364137e+06
   1.536164e+06  -1.040771e+06
   1.787592e+06  -2.474891e+05
   8.242225e+05   4.374176e+05
  -2.467826e+05   5.122067e+05
  -4.833516e+05   4.627717e+04
   1.123935e+04  -3.679560e+05
   4.728428e+05  -2.228203e+05
   4.515282e+05   3.577527e+05
   1.621768e+05   7.392702e+05
   2.070614e+04   4.798377e+05
   1.460436e+05  -1.280921e+05
   3.314600e+05  -3.265521e+05
   2.723456e+05   2.333669e+05
  -2.075795e+05   9.856026e+05
  -9.244482e+05   1.003021e+06
  -1.279722e+06   8.040387e+04
  -7.354415e+05  -9.364129e+05
   4.537711e+05  -1.052061e+06
   1.213762e+06  -2.275314e+05
   6.918303e+05   6.123685e+05
  -7.031480e+05   6.235436e+05
  -1.588567e+06  -1.250047e+05
  -1.034304e+06  -8.763873e+05
   4.611537e+05  -1.004457e+06
   1.513717e+06  -4.935800e+05
   1.261123e+06   1.951217e+05
   1.415962e+05   5.264420e+05
  -6.451898e+05   2.675419e+05
  -3.501557e+05  -2.876639e+05
   6.237981e+05  -4.664131e+05
   1.160556e+06   1.665990e+05
   5.683994e+05   1.214653e+06
  -7.075276e+05   1.640538e+06
  -1.531020e+06   7.818187e+05
  -1.211406e+06  -8.206347e+05
  -1.218181e+05  -1.796874e+06
   7.873937e+05  -1.282191e+06
   9.207464e+05   1.797826e+05
   4.142386e+05   1.195559e+06
  -2.138382e+05   9.771777e+05
  -5.482345e+05   7.909389e+04
  -4.784326e+05  -4.004129e+05
  -1.909180e+05  -1.536658e+05
  -3.898617e+04   1.034431e+05
  -2.174032e+05  -2.809728e+05
  -4.495849e+05  -9.696279e+05
  -1.876148e+05  -1.086126e+06
   6.788292e+05  -3.712595e+05
   1.453400e+06   5.216132e+05
   1.276174e+06   8.818691e+05
   1.604276e+05   6.931853e+05
  -8.967213e+05   3.790051e+05
  -9.968713e+05   1.542763e+05
  -3.290642e+05  -4.814766e+04
   1.659828e+05  -2.152215e+05
   6.424532e+03  -2.208197e+05
  -2.984276e+05  -1.252669e+05
  -2.953302e+04  -1.365533e+05
   7.080853e+05  -1.929193e+05
   1.033616e+06   6.586750e+04
   3.450723e+05   6.990869e+05
  -9.199511e+05   1.112108e+06
  -1.693014e+06   6.527856e+05
  -1.336996e+06  -5.081021e+05
  -2.005127e+05  -1.413652e+06
   8.084503e+05  -1.321019e+06
   1.063330e+06  -4.659388e+05
   6.462611e+05   2.775686e+05
   1.024192e+05   3.606286e+05
  -1.038167e+05   4.240193e+04
   6.931716e+04  -3.715524e+04
   2.992704e+05   3.662828e+05
   2.262281e+05   8.116719e+05
  -2.127204e+05   6.593788e+05
  -6.781764e+05  -1.704469e+05
  -6.752789e+05  -9.968837e+05
  -3.660965e+04  -1.025623e+06
   7.776750e+05  -1.849635e+05
   9.882752e+05   7.860684e+05
   2.807634e+05   1.094267e+06
  -7.409458e+05   6.202756e+05
  -1.091632e+06  -1.290405e+05
  -4.840332e+05  -6.083650e+05
   3.109279e+05  -6.326688e+05
   3.658484e+05  -3.421885e+05
  -2.734338e+05  -2.924190e+04
  -6.536533e+05   8.175349e+03
  -1.231613e+05  -3.065698e+05
   8.467723e+05  -6.439703e+05
   1.247498e+06  -5.049999e+05
   7.211908e+05   1.861522e+05
  -1.336534e+05   8.479733e+05
  -5.591396e+05   8.152964e+05
  -4.023970e+05   1.228223e+05
  -1.987012e+04  -4.893616e+05
   2.606091e+05  -4.079010e+05
   3.457758e+05   1.841639e+05
   2.250857e+05   5.842958e+05
  -7.670228e+04   4.002559e+05
  -3.855524e+05  -7.052904e+04
  -4.518411e+05  -2.812973e+05
  -2.360744e+05  -9.063105e+04
   1.541391e+04   1.320232e+05
   7.876247e+04   7.716758e+03
   3.479029e+04  -3.676143e+05
   1.190879e+05  -5.195294e+05
   3.416750e+05  -1.615435e+05
   4.092779e+05   4.238456e+05
   8.809198e+04   6.542851e+05
  -4.301232e+05   2.846412e+05
  -6.331834e+05  -3.200609e+05
  -2.173235e+05  -5.891637e+05
   5.115440e+05  -3.387220e+05
   8.596503e+05   1.212057e+05
   4.535400e+05   3.948547e+05
  -3.081995e+05   3.683272e+05
  -6.380686e+05   1.795551e+05
  -2.316614e+05   3.875247e+03
   3.719909e+05  -3.670731e+04
   4.128614e+05   1.044502e+05
  -1.982048e+05   2.983044e+05
  -7.820576e+05   2.402484e+05
