
 $NMID
 id='ANONYMOUS ', fmtdat='(2E16.6)'
 volume=1.0
 tramp=1.0
 $END
  -5.433961e+07  -1.803664e+06
  -3.148742e+07  -3.462630e+07
   8.376711e+06  -3.642451e+07
   2.694474e+07  -1.327681e+07
   1.558537e+07   7.165529e+06
  -3.443623e+06   8.841695e+06
  -9.374694e+06  -1.423104e+06
  -2.405137e+06  -9.432292e+06
   6.171022e+06  -8.814120e+06
   9.315858e+06  -1.669968e+06
   6.580515e+06   6.183996e+06
   5.600162e+05   8.343460e+06
  -3.951408e+06   2.538132e+06
  -2.435891e+06  -5.342620e+06
   3.772728e+06  -6.229490e+06
   7.533744e+06   1.500578e+06
   3.994346e+06   9.959447e+06
  -3.982042e+06   1.126318e+07
  -9.928934e+06   5.395531e+06
  -1.038120e+07  -2.324443e+06
  -6.147335e+06  -7.459279e+06
  -3.569122e+05  -8.369090e+06
   3.014219e+06  -5.697829e+06
   1.810036e+06  -2.478057e+06
  -1.107088e+06  -2.108792e+06
  -1.738048e+05  -4.100864e+06
   5.382546e+06  -4.160155e+06
   9.415913e+06  -2.320034e+05
   6.720202e+06   4.209117e+06
   7.472398e+04   4.945856e+06
  -3.727861e+06   2.413449e+06
  -2.448937e+06  -8.638363e+04
   6.081042e+05  -9.825200e+05
   2.278800e+06  -4.813225e+05
   2.158027e+06   1.465531e+06
   5.845272e+05   3.887303e+06
  -1.877680e+06   3.689808e+06
  -3.138109e+06  -2.458836e+05
  -1.519623e+06  -3.603082e+06
   8.559166e+05  -1.808189e+06
   2.949081e+05   2.445494e+06
  -2.430891e+06   2.191150e+06
  -2.271463e+06  -3.136182e+06
   2.502541e+06  -5.813641e+06
   6.696575e+06  -7.374526e+05
   4.703025e+06   6.836162e+06
  -2.103177e+06   8.146329e+06
  -7.240461e+06   2.108285e+06
  -6.607077e+06  -4.475777e+06
  -1.650179e+06  -5.866276e+06
   3.413704e+06  -2.546695e+06
   5.050258e+06   1.579019e+06
   2.270962e+06   3.407876e+06
  -2.376566e+06   2.047692e+06
  -4.338145e+06  -1.009594e+06
  -1.806636e+06  -2.668076e+06
   1.694992e+06  -1.271833e+06
   1.663425e+06   1.026770e+06
  -1.267101e+06   8.435053e+05
  -2.307785e+06  -1.728486e+06
   6.886521e+05  -3.242460e+06
   4.483011e+06  -1.671633e+06
   5.048089e+06   1.443608e+06
   2.119550e+06   3.885347e+06
  -1.894962e+06   5.056128e+06
  -5.003901e+06   4.582545e+06
  -6.072128e+06   1.527378e+06
  -4.360787e+06  -3.208083e+06
  -7.511084e+05  -6.024408e+06
   1.906613e+06  -4.573774e+06
   1.700274e+06  -1.150568e+06
   1.341349e+05   2.017051e+05
   2.332127e+04  -1.009233e+06
   1.657003e+06  -1.727083e+06
   2.795059e+06  -1.511531e+05
   1.960957e+06   1.968277e+06
  -2.445078e+04   2.134647e+06
  -1.550181e+06   1.880750e+05
  -1.623736e+06  -2.071421e+06
   5.866307e+04  -2.883040e+06
   2.755086e+06  -1.549746e+06
   4.337818e+06   1.288287e+06
   3.027774e+06   3.755285e+06
  -1.655238e+05   4.103681e+06
  -2.288838e+06   2.562097e+06
  -2.186906e+06   1.035501e+06
  -1.786320e+06   6.238350e+05
  -2.875666e+06   4.105268e+05
  -4.231401e+06  -8.338471e+05
  -3.351378e+06  -2.779473e+06
  -4.166063e+04  -4.046687e+06
   3.229601e+06  -3.760888e+06
   4.152405e+06  -1.993650e+06
   2.609427e+06   4.808121e+05
   2.186548e+05   2.217509e+06
  -1.134555e+06   1.882800e+06
  -5.566264e+05  -5.185492e+04
   1.101806e+06  -1.266203e+06
   1.881605e+06  -3.464080e+05
   8.734068e+05   1.209016e+06
  -5.346381e+05   1.088607e+06
  -4.156239e+05  -3.831554e+05
   1.042288e+06  -6.558742e+05
   1.764784e+06   1.288423e+06
   5.512600e+05   3.398633e+06
  -1.604605e+06   3.283865e+06
  -3.065469e+06   1.027351e+06
  -3.202610e+06  -1.463836e+06
  -2.186885e+06  -2.740087e+06
  -4.019992e+05  -2.571715e+06
   1.251313e+06  -1.417437e+06
   1.560814e+06  -1.923803e+05
   4.840461e+05   5.577195e+04
  -3.357407e+05  -7.482813e+05
   4.405268e+05  -1.307851e+06
   1.891535e+06  -5.205288e+05
   1.976796e+06   9.231382e+05
   3.421702e+05   1.401199e+06
  -1.166270e+06   5.340319e+05
  -8.642024e+05  -4.646576e+05
   8.409277e+05  -4.883860e+05
   2.129297e+06   3.597745e+05
   1.684408e+06   1.363119e+06
  -2.825072e+05   1.927113e+06
  -2.304052e+06   1.576857e+06
  -2.736238e+06   2.077168e+05
  -1.167782e+06  -1.276006e+06
   9.454365e+05  -1.458597e+06
   1.544782e+06  -1.462005e+05
   1.714789e+05   1.074090e+06
  -1.513977e+06   6.913462e+05
  -1.673307e+06  -8.111380e+05
  -2.909732e+05  -1.632106e+06
   1.096464e+06  -9.300576e+05
   1.224797e+06   3.395568e+05
   2.183497e+05   7.731212e+05
  -7.885670e+05   3.154277e+04
  -7.032100e+05  -1.058694e+06
   6.005100e+05  -1.395152e+06
   1.995457e+06  -4.927617e+05
   1.987288e+06   1.082278e+06
   3.310058e+05   2.056871e+06
  -1.460090e+06   1.586153e+06
  -1.706502e+06   1.649754e+05
  -4.720311e+05  -8.674912e+05
   6.683061e+05  -7.747841e+05
   6.246182e+05  -6.406330e+04
  -1.219409e+05   3.461881e+05
  -4.804419e+05   1.946252e+05
  -1.141059e+05  -5.698206e+04
   4.357627e+05   9.686210e+04
   4.864256e+05   6.768341e+05
  -2.359386e+05   1.162271e+06
  -1.384238e+06   8.488225e+05
  -2.043498e+06  -4.565879e+05
  -1.401634e+06  -1.951157e+06
   2.664138e+05  -2.382312e+06
   1.619473e+06  -1.353777e+06
   1.656007e+06   1.608525e+05
   8.238450e+05   8.928754e+05
   3.066659e+05   6.392650e+05
   4.763224e+05   2.270824e+05
   6.142666e+05   3.312849e+05
   6.924775e+04   7.601327e+05
  -8.849382e+05   8.655520e+05
  -1.430731e+06   2.857337e+05
  -1.015551e+06  -7.298943e+05
   2.769261e+05  -1.425517e+06
   1.717554e+06  -1.015825e+06
   2.202720e+06   5.259748e+05
   1.066591e+06   2.094370e+06
  -1.054260e+06   2.305732e+06
  -2.530601e+06   9.525445e+05
  -2.295422e+06  -7.059713e+05
  -9.047096e+05  -1.334292e+06
   2.220331e+05  -9.174321e+05
   3.847673e+05  -4.932321e+05
   8.644959e+04  -7.502317e+05
   1.318357e+05  -1.295809e+06
   6.948038e+05  -1.258406e+06
   1.286817e+06  -2.846286e+05
   1.297807e+06   1.095205e+06
   5.092729e+05   1.881001e+06
  -6.435969e+05   1.404849e+06
  -1.266196e+06  -3.100789e+04
  -7.686907e+05  -1.284872e+06
   4.207680e+05  -1.364550e+06
   1.155824e+06  -3.641540e+05
   7.776302e+05   7.143708e+05
  -1.550920e+05   1.057416e+06
  -5.527724e+05   7.518952e+05
  -9.343019e+04   4.026029e+05
   4.233030e+05   3.397943e+05
   5.266683e+04   3.794130e+05
  -1.139362e+06   1.790092e+05
  -2.030328e+06  -3.771421e+05
  -1.570493e+06  -1.060393e+06
   7.671955e+04  -1.414408e+06
   1.599775e+06  -1.087803e+06
   1.811800e+06  -2.285137e+05
   8.040229e+05   5.112717e+05
  -2.751805e+05   5.569404e+05
  -5.051626e+05   1.772711e+04
  -2.068531e+04  -4.224354e+05
   4.404080e+05  -2.492876e+05
   4.694016e+05   3.475415e+05
   2.436267e+05   7.205435e+05
   9.197112e+04   4.781133e+05
   1.337549e+05  -8.628076e+04
   2.725827e+05  -2.798041e+05
   2.651485e+05   2.349643e+05
  -1.542842e+05   9.699281e+05
  -9.099712e+05   1.035064e+06
  -1.359494e+06   1.461733e+05
  -8.324974e+05  -9.238428e+05
   4.359851e+05  -1.123985e+06
   1.257619e+06  -3.139617e+05
   7.157918e+05   5.774782e+05
  -7.074429e+05   6.225713e+05
  -1.558493e+06  -1.307715e+05
  -9.604995e+05  -8.694079e+05
   5.041772e+05  -9.533805e+05
   1.479766e+06  -4.280393e+05
   1.199982e+06   2.177629e+05
   1.172777e+05   5.053170e+05
  -6.457740e+05   2.464699e+05
  -3.758142e+05  -3.030232e+05
   5.839726e+05  -5.129447e+05
   1.171711e+06   9.211853e+04
   6.561371e+05   1.177535e+06
  -5.988984e+05   1.682303e+06
  -1.476893e+06   8.620854e+05
  -1.230672e+06  -7.641561e+05
  -1.728322e+05  -1.770515e+06
   7.511555e+05  -1.257510e+06
   9.048480e+05   1.997005e+05
   3.935611e+05   1.183091e+06
  -2.459133e+05   9.411485e+05
  -5.591333e+05   6.568171e+04
  -4.437240e+05  -3.757460e+05
  -1.482308e+05  -1.315685e+05
  -5.328321e+04   8.825870e+04
  -2.863001e+05  -3.096190e+05
  -4.922586e+05  -9.685539e+05
  -1.554191e+05  -1.061507e+06
   7.292151e+05  -3.701443e+05
   1.446240e+06   4.831116e+05
   1.235107e+06   8.442906e+05
   1.682508e+05   6.958329e+05
  -8.363946e+05   4.054303e+05
  -9.686320e+05   1.598598e+05
  -3.654127e+05  -6.969573e+04
   1.420487e+05  -2.235908e+05
   5.370165e+04  -1.892806e+05
  -2.440122e+05  -8.264422e+04
  -5.597685e+04  -1.329862e+05
   6.384476e+05  -2.367300e+05
   1.039194e+06   1.952288e+04
   4.479527e+05   7.004251e+05
  -8.308950e+05   1.171418e+06
  -1.708463e+06   7.397179e+05
  -1.419784e+06  -4.374877e+05
  -2.648887e+05  -1.393001e+06
   7.826087e+05  -1.358356e+06
   1.048692e+06  -5.352770e+05
   6.456126e+05   2.245662e+05
   1.377930e+05   3.586823e+05
  -5.417380e+04   8.195373e+04
   8.456301e+04   7.620028e+02
   2.814465e+05   3.721339e+05
   2.264110e+05   8.012893e+05
  -1.810869e+05   6.764067e+05
  -6.718675e+05  -1.099818e+05
  -7.396134e+05  -9.362966e+05
  -1.306660e+05  -1.030010e+06
   7.378550e+05  -2.643919e+05
   1.030457e+06   7.023096e+05
   3.512911e+05   1.086111e+06
  -7.112684e+05   6.834515e+05
  -1.120241e+06  -7.853988e+04
  -5.318478e+05  -6.298128e+05
   2.956315e+05  -6.906526e+05
   3.994414e+05  -3.626523e+05
  -2.247032e+05   1.391349e+03
  -6.384942e+05   3.820694e+04
  -1.495287e+05  -3.119412e+05
   8.228530e+05  -6.620984e+05
   1.267809e+06  -5.038763e+05
   7.724703e+05   2.037114e+05
  -1.021567e+05   8.694815e+05
  -5.751992e+05   8.491372e+05
  -4.483062e+05   1.693879e+05
  -6.338250e+04  -4.677287e+05
   2.379481e+05  -4.427493e+05
   3.500043e+05   1.274561e+05
   2.511332e+05   5.734480e+05
  -5.277739e+04   4.429182e+05
  -3.895306e+05  -3.776908e+04
  -4.740793e+05  -2.971557e+05
  -2.375286e+05  -1.103711e+05
   4.083337e+04   1.672738e+05
   7.620526e+04   7.777373e+04
  -4.137891e+04  -3.415801e+05
   1.474185e+04  -5.752153e+05
   3.103184e+05  -2.560002e+05
   4.847261e+05   3.574860e+05
   1.907083e+05   6.456072e+05
  -3.969003e+05   3.221682e+05
  -6.739948e+05  -2.681579e+05
  -2.614178e+05  -5.625659e+05
   5.119905e+05  -3.617948e+05
   8.891386e+05   7.139810e+04
   4.796301e+05   3.771793e+05
  -2.957989e+05   4.120421e+05
  -6.438337e+05   2.426616e+05
  -2.665768e+05   1.778565e+04
   3.214492e+05  -8.842715e+04
   3.979132e+05   3.793779e+04
  -1.449729e+05   2.758968e+05
  -7.042390e+05   2.721550e+05
