
 $NMID
 id='ANONYMOUS ', fmtdat='(2E16.6)'
 volume=1.0
 tramp=1.0
 $END
  -5.811451e+07  -1.794949e+06
  -3.352648e+07  -3.720006e+07
   9.155421e+06  -3.897027e+07
   2.878869e+07  -1.390913e+07
   1.643374e+07   7.906789e+06
  -3.812152e+06   9.381686e+06
  -9.896820e+06  -1.701469e+06
  -2.380270e+06  -1.003632e+07
   6.628345e+06  -9.178963e+06
   9.865810e+06  -1.644322e+06
   6.988319e+06   6.531461e+06
   6.456422e+05   8.801280e+06
  -4.170016e+06   2.751794e+06
  -2.608319e+06  -5.529538e+06
   3.975094e+06  -6.485726e+06
   7.972768e+06   1.653419e+06
   4.212354e+06   1.057619e+07
  -4.248020e+06   1.195591e+07
  -1.056958e+07   5.772117e+06
  -1.111374e+07  -2.414992e+06
  -6.666416e+06  -7.968488e+06
  -4.278057e+05  -9.052537e+06
   3.335380e+06  -6.165312e+06
   2.125020e+06  -2.528901e+06
  -1.114608e+06  -1.992791e+06
  -3.231353e+05  -4.209309e+06
   5.515654e+06  -4.496588e+06
   9.897295e+06  -4.339627e+05
   7.185940e+06   4.356971e+06
   2.291150e+05   5.288256e+06
  -3.834456e+06   2.709936e+06
  -2.643458e+06   7.224479e+04
   4.255200e+05  -9.841755e+05
   2.215685e+06  -6.252463e+05
   2.302081e+06   1.358451e+06
   7.850434e+05   4.031453e+06
  -1.925746e+06   3.983738e+06
  -3.454317e+06  -1.749989e+05
  -1.746178e+06  -3.869101e+06
   9.402074e+05  -2.063590e+06
   4.442703e+05   2.481843e+06
  -2.501868e+06   2.286255e+06
  -2.378515e+06  -3.340336e+06
   2.747723e+06  -6.166964e+06
   7.240450e+06  -7.302869e+05
   5.041779e+06   7.343368e+06
  -2.283066e+06   8.707746e+06
  -7.715806e+06   2.263747e+06
  -6.960168e+06  -4.704200e+06
  -1.702904e+06  -6.141895e+06
   3.574470e+06  -2.638397e+06
   5.246070e+06   1.673863e+06
   2.322983e+06   3.573519e+06
  -2.546333e+06   2.135165e+06
  -4.585495e+06  -1.091779e+06
  -1.886836e+06  -2.838498e+06
   1.804630e+06  -1.347366e+06
   1.722974e+06   1.072978e+06
  -1.388418e+06   8.217108e+05
  -2.404109e+06  -1.939916e+06
   8.674930e+05  -3.490218e+06
   4.866987e+06  -1.725277e+06
   5.356390e+06   1.611135e+06
   2.216413e+06   4.152298e+06
  -1.952711e+06   5.362169e+06
  -5.181865e+06   4.898538e+06
  -6.379899e+06   1.704453e+06
  -4.677913e+06  -3.326178e+06
  -8.698973e+05  -6.338531e+06
   2.005646e+06  -4.783821e+06
   1.794885e+06  -1.120826e+06
   5.730827e+04   2.939567e+05
  -1.285310e+05  -1.070232e+06
   1.623508e+06  -1.921279e+06
   2.919399e+06  -3.055388e+05
   2.132012e+06   1.944828e+06
   8.522262e+04   2.198840e+06
  -1.544649e+06   2.567657e+05
  -1.704339e+06  -2.070012e+06
  -5.368792e+03  -2.985136e+06
   2.847889e+06  -1.690322e+06
   4.596058e+06   1.265568e+06
   3.263671e+06   3.933689e+06
  -1.368796e+05   4.374833e+06
  -2.435128e+06   2.747256e+06
  -2.338014e+06   1.086843e+06
  -1.875437e+06   6.269355e+05
  -2.980143e+06   4.252552e+05
  -4.395838e+06  -8.399776e+05
  -3.499882e+06  -2.852861e+06
  -8.772864e+04  -4.187670e+06
   3.285288e+06  -3.938925e+06
   4.261675e+06  -2.151427e+06
   2.730769e+06   4.258422e+05
   3.048401e+05   2.294509e+06
  -1.122564e+06   1.995565e+06
  -5.868981e+05  -3.275292e+04
   1.113245e+06  -1.336943e+06
   1.955531e+06  -3.851644e+05
   9.380897e+05   1.254401e+06
  -5.243106e+05   1.137431e+06
  -4.074174e+05  -3.864049e+05
   1.096471e+06  -6.366274e+05
   1.810235e+06   1.405305e+06
   5.085057e+05   3.545894e+06
  -1.715910e+06   3.338254e+06
  -3.161757e+06   9.808114e+05
  -3.257846e+06  -1.521147e+06
  -2.234265e+06  -2.769793e+06
  -4.401088e+05  -2.613692e+06
   1.260869e+06  -1.481730e+06
   1.605575e+06  -2.321361e+05
   5.010550e+05   5.113107e+04
  -3.554162e+05  -7.698100e+05
   4.526042e+05  -1.365306e+06
   1.970123e+06  -5.568214e+05
   2.059105e+06   9.513423e+05
   3.568609e+05   1.455771e+06
  -1.201961e+06   5.592167e+05
  -8.826646e+05  -4.658242e+05
   8.652055e+05  -4.848500e+05
   2.171285e+06   3.697719e+05
   1.716978e+06   1.373883e+06
  -2.786593e+05   1.960383e+06
  -2.349008e+06   1.638619e+06
  -2.818199e+06   2.445664e+05
  -1.222192e+06  -1.314341e+06
   9.712494e+05  -1.533081e+06
   1.614861e+06  -1.685398e+05
   1.976087e+05   1.121609e+06
  -1.561322e+06   7.364785e+05
  -1.735246e+06  -8.255080e+05
  -3.040619e+05  -1.679564e+06
   1.129558e+06  -9.533160e+05
   1.257891e+06   3.544124e+05
   2.177540e+05   7.978177e+05
  -8.234295e+05   3.586355e+04
  -7.438012e+05  -1.089648e+06
   5.993407e+05  -1.454534e+06
   2.056845e+06  -5.418867e+05
   2.072664e+06   1.091124e+06
   3.678287e+05   2.124935e+06
  -1.495678e+06   1.656272e+06
  -1.762344e+06   1.845207e+05
  -4.906864e+05  -8.919837e+05
   6.830680e+05  -8.034208e+05
   6.353042e+05  -7.871425e+04
  -1.235924e+05   3.387322e+05
  -4.732996e+05   1.939552e+05
  -9.166132e+04  -4.247674e+04
   4.574385e+05   1.246295e+05
   4.953003e+05   7.103220e+05
  -2.448543e+05   1.202285e+06
  -1.423552e+06   8.885811e+05
  -2.116489e+06  -4.486877e+05
  -1.473889e+06  -1.999702e+06
   2.427429e+05  -2.460923e+06
   1.648429e+06  -1.407070e+06
   1.695684e+06   1.503363e+05
   8.467349e+05   8.923340e+05
   3.293002e+05   6.239607e+05
   5.172406e+05   2.152982e+05
   6.551517e+05   3.480074e+05
   7.945962e+04   7.976864e+05
  -9.080304e+05   8.995009e+05
  -1.466501e+06   3.041610e+05
  -1.045000e+06  -7.323838e+05
   2.714612e+05  -1.456290e+06
   1.754761e+06  -1.059987e+06
   2.273729e+06   5.157549e+05
   1.117941e+06   2.148932e+06
  -1.074068e+06   2.390792e+06
  -2.608569e+06   1.001926e+06
  -2.366624e+06  -7.127790e+05
  -9.290305e+05  -1.359110e+06
   2.227686e+05  -9.270018e+05
   3.712806e+05  -5.015422e+05
   5.569571e+04  -7.868559e+05
   1.124365e+05  -1.359565e+06
   7.093531e+05  -1.318827e+06
   1.334455e+06  -3.119371e+05
   1.359170e+06   1.113643e+06
   5.533837e+05   1.935610e+06
  -6.436963e+05   1.460240e+06
  -1.305286e+06  -1.780819e+04
  -8.038389e+05  -1.322497e+06
   4.288599e+05  -1.411757e+06
   1.197568e+06  -3.722848e+05
   8.063947e+05   7.497934e+05
  -1.655899e+05   1.100835e+06
  -5.789498e+05   7.743758e+05
  -9.612313e+04   4.065992e+05
   4.467177e+05   3.424325e+05
   6.232573e+04   3.902448e+05
  -1.180063e+06   1.949898e+05
  -2.109657e+06  -3.699980e+05
  -1.633756e+06  -1.080965e+06
   7.533904e+04  -1.466424e+06
   1.652989e+06  -1.143662e+06
   1.870061e+06  -2.496524e+05
   8.271593e+05   5.314421e+05
  -2.857061e+05   5.839182e+05
  -5.233763e+05   1.704190e+04
  -2.835358e+04  -4.471883e+05
   4.475443e+05  -2.680759e+05
   4.915619e+05   3.530007e+05
   2.742606e+05   7.418121e+05
   1.127276e+05   4.957523e+05
   1.327458e+05  -8.329875e+04
   2.650574e+05  -2.858425e+05
   2.741107e+05   2.395823e+05
  -1.390597e+05   1.001762e+06
  -9.270501e+05   1.083199e+06
  -1.418462e+06   1.722173e+05
  -8.862277e+05  -9.472533e+05
   4.388519e+05  -1.177709e+06
   1.306563e+06  -3.498987e+05
   7.504002e+05   5.834415e+05
  -7.242476e+05   6.490119e+05
  -1.603327e+06  -1.186095e+05
  -9.865950e+05  -8.820222e+05
   5.156176e+05  -9.770663e+05
   1.512540e+06  -4.464540e+05
   1.227753e+06   2.133130e+05
   1.228437e+05   5.149540e+05
  -6.625662e+05   2.570610e+05
  -3.946071e+05  -3.127470e+05
   5.922978e+05  -5.455468e+05
   1.215473e+06   7.013619e+04
   7.066547e+05   1.205865e+06
  -5.832460e+05   1.754785e+06
  -1.509254e+06   9.216883e+05
  -1.283795e+06  -7.666331e+05
  -2.068701e+05  -1.822629e+06
   7.542493e+05  -1.302286e+06
   9.314699e+05   1.995575e+05
   4.149270e+05   1.212995e+06
  -2.478805e+05   9.650477e+05
  -5.772296e+05   7.044431e+04
  -4.565481e+05  -3.767098e+05
  -1.477413e+05  -1.278784e+05
  -5.584031e+04   8.814422e+04
  -3.093843e+05  -3.252366e+05
  -5.254639e+05  -9.961306e+05
  -1.667288e+05  -1.087286e+06
   7.574485e+05  -3.864212e+05
   1.497578e+06   4.762913e+05
   1.277267e+06   8.494094e+05
   1.818561e+05   7.169535e+05
  -8.492258e+05   4.346710e+05
  -9.927584e+05   1.772547e+05
  -3.830372e+05  -7.400980e+04
   1.403963e+05  -2.349352e+05
   6.036339e+04  -1.876593e+05
  -2.449255e+05  -7.215360e+04
  -6.402057e+04  -1.372645e+05
   6.458991e+05  -2.622435e+05
   1.075576e+06   1.457963e+03
   4.876782e+05   7.236252e+05
  -8.322544e+05   1.232270e+06
  -1.762213e+06   7.953089e+05
  -1.487677e+06  -4.285305e+05
  -3.000916e+05  -1.433938e+06
   7.907821e+05  -1.417190e+06
   1.077280e+06  -5.760457e+05
   6.708726e+05   2.154461e+05
   1.522592e+05   3.700279e+05
  -4.817137e+04   9.482456e+04
   8.796341e+04   7.579512e+03
   2.905679e+05   3.810691e+05
   2.423458e+05   8.223130e+05
  -1.750125e+05   7.043270e+05
  -6.962143e+05  -9.529198e+04
  -7.873419e+05  -9.507315e+05
  -1.620419e+05  -1.066974e+06
   7.554987e+05  -2.967078e+05
   1.082192e+06   7.011267e+05
   3.865590e+05   1.119080e+06
  -7.247627e+05   7.251826e+05
  -1.164166e+06  -6.204306e+04
  -5.624625e+05  -6.506046e+05
   2.982120e+05  -7.266240e+05
   4.153887e+05  -3.800491e+05
  -2.246824e+05   1.177807e+04
  -6.570913e+05   5.208856e+04
  -1.618554e+05  -3.226341e+05
   8.387156e+05  -6.959131e+05
   1.306252e+06  -5.314264e+05
   8.072180e+05   2.081555e+05
  -9.198375e+04   9.035162e+05
  -5.893851e+05   8.870177e+05
  -4.714599e+05   1.852079e+05
  -7.910982e+04  -4.802706e+05
   2.387359e+05  -4.665927e+05
   3.661188e+05   1.179545e+05
   2.701516e+05   5.884098e+05
  -4.789954e+04   4.663713e+05
  -4.046694e+05  -2.929711e+04
  -4.952326e+05  -3.057261e+05
  -2.453628e+05  -1.150735e+05
   4.652931e+04   1.798119e+05
   7.521362e+04   9.191447e+04
  -6.126375e+04  -3.513058e+05
  -6.462821e+03  -6.090943e+05
   3.169024e+05  -2.859058e+05
   5.207746e+05   3.559114e+05
   2.222155e+05   6.679352e+05
  -4.021617e+05   3.448801e+05
  -7.080708e+05  -2.625935e+05
  -2.847241e+05  -5.751920e+05
   5.257528e+05  -3.825293e+05
   9.258488e+05   5.719524e+04
   5.042402e+05   3.823871e+05
  -3.010145e+05   4.365942e+05
  -6.660817e+05   2.679491e+05
  -2.818604e+05   2.169494e+04
   3.243426e+05  -1.065344e+05
   4.117353e+05   2.229253e+04
  -1.359361e+05   2.849011e+05
  -7.113792e+05   2.978301e+05
