
 $NMID
 id='ANONYMOUS ', fmtdat='(2E16.6)'
 volume=1.0
 tramp=1.0
 $END
  -4.193365e+07   2.107617e+06
  -2.686312e+07  -2.359679e+07
   3.233747e+06  -2.823957e+07
   1.944327e+07  -1.301896e+07
   1.288298e+07   3.363625e+06
  -1.524070e+06   7.102292e+06
  -7.466779e+06   2.838060e+05
  -3.165996e+06  -6.983941e+06
   3.714291e+06  -7.917030e+06
   7.148049e+06  -2.494707e+06
   5.738083e+06   4.460229e+06
   1.031931e+06   6.784394e+06
  -3.063945e+06   2.186323e+06
  -2.464377e+06  -4.480728e+06
   2.413713e+06  -5.650835e+06
   6.078999e+06   3.632346e+05
   4.042450e+06   7.504652e+06
  -2.175121e+06   9.200772e+06
  -7.377874e+06   4.895726e+06
  -8.173630e+06  -1.270457e+06
  -4.976800e+06  -5.416133e+06
  -6.106948e+05  -6.136500e+06
   1.651569e+06  -4.234688e+06
   4.969378e+05  -2.171216e+06
  -1.518634e+06  -2.246719e+06
  -2.221776e+05  -3.825406e+06
   4.609707e+06  -3.717513e+06
   7.943686e+06  -4.983902e+05
   5.631405e+06   3.179700e+06
  -3.406806e+04   3.970005e+06
  -3.297550e+06   1.913745e+06
  -2.007046e+06  -4.149796e+05
   9.948386e+05  -1.265603e+06
   2.512675e+06  -4.609930e+05
   2.024248e+06   1.596131e+06
   3.901358e+05   3.511373e+06
  -1.471941e+06   2.947244e+06
  -2.233166e+06  -3.481247e+05
  -1.039741e+06  -2.750569e+06
   6.054255e+05  -1.025733e+06
   1.705114e+05   2.409664e+06
  -1.934571e+06   2.141470e+06
  -2.136679e+06  -2.223030e+06
   1.224098e+06  -4.703443e+06
   4.771588e+06  -1.128858e+06
   4.020176e+06   4.817026e+06
  -9.191691e+05   6.365650e+06
  -5.490768e+06   2.140151e+06
  -5.801604e+06  -3.079073e+06
  -2.028723e+06  -4.702492e+06
   2.563565e+06  -2.546133e+06
   4.470964e+06   7.083346e+05
   2.390402e+06   2.540940e+06
  -1.595198e+06   1.903978e+06
  -3.548342e+06  -3.604127e+05
  -1.733500e+06  -1.908609e+06
   1.216460e+06  -1.147261e+06
   1.549347e+06   6.771506e+05
  -7.132906e+05   9.429284e+05
  -1.978959e+06  -8.058098e+05
  -7.645250e+04  -2.311227e+06
   3.021407e+06  -1.705638e+06
   4.020929e+06   4.916941e+05
   2.058172e+06   2.775510e+06
  -1.261716e+06   4.234025e+06
  -4.018526e+06   4.076850e+06
  -4.973570e+06   1.524700e+06
  -3.652804e+06  -2.480905e+06
  -9.290113e+05  -4.959257e+06
   1.108297e+06  -4.008552e+06
   1.164148e+06  -1.363037e+06
   2.868312e+05  -1.918517e+05
   3.983311e+05  -9.826746e+05
   1.681515e+06  -1.393956e+06
   2.512193e+06   3.484171e+04
   1.729811e+06   1.892899e+06
  -1.012796e+05   2.025226e+06
  -1.583146e+06   2.232077e+05
  -1.664166e+06  -1.871624e+06
  -7.320897e+04  -2.592289e+06
   2.337856e+06  -1.403550e+06
   3.680798e+06   9.649644e+05
   2.609785e+06   2.941953e+06
   6.114356e+04   3.247166e+06
  -1.618798e+06   2.120140e+06
  -1.580597e+06   1.012122e+06
  -1.382251e+06   7.682662e+05
  -2.445309e+06   6.748707e+05
  -3.754371e+06  -3.393125e+05
  -3.163649e+06  -2.152076e+06
  -3.576379e+05  -3.572653e+06
   2.616375e+06  -3.564568e+06
   3.604168e+06  -1.979611e+06
   2.321147e+06   3.770907e+05
   2.039950e+05   2.001176e+06
  -9.880626e+05   1.687825e+06
  -4.838904e+05  -5.759250e+04
   9.291445e+05  -1.179478e+06
   1.606742e+06  -4.248284e+05
   7.909694e+05   9.854311e+05
  -4.427493e+05   1.011849e+06
  -4.866003e+05  -2.887778e+05
   7.282676e+05  -7.950792e+05
   1.644211e+06   6.852446e+05
   1.016170e+06   2.736623e+06
  -7.882916e+05   3.157031e+06
  -2.487975e+06   1.501721e+06
  -3.117400e+06  -8.287575e+05
  -2.379015e+06  -2.305383e+06
  -6.236520e+05  -2.367322e+06
   1.051211e+06  -1.370805e+06
   1.406819e+06  -2.549049e+05
   4.356330e+05   1.432830e+04
  -3.584947e+05  -6.366659e+05
   2.593389e+05  -1.156741e+06
   1.571642e+06  -5.975893e+05
   1.790805e+06   6.079526e+05
   4.425499e+05   1.167653e+06
  -9.770552e+05   5.839577e+05
  -8.583387e+05  -3.370390e+05
   6.667136e+05  -5.872878e+05
   1.994072e+06   4.250045e+04
   1.742912e+06   1.076579e+06
  -2.952640e+04   1.828517e+06
  -1.943553e+06   1.654612e+06
  -2.435789e+06   4.160166e+05
  -1.127536e+06  -1.014753e+06
   7.083694e+05  -1.314684e+06
   1.300891e+06  -2.307400e+05
   1.984481e+05   9.096241e+05
  -1.281597e+06   7.163317e+05
  -1.554808e+06  -5.635170e+05
  -4.406173e+05  -1.420827e+06
   8.541609e+05  -9.684076e+05
   1.130893e+06   1.359324e+05
   3.062140e+05   6.452827e+05
  -6.632688e+05   9.851366e+04
  -6.896589e+05  -8.784592e+05
   4.447734e+05  -1.275303e+06
   1.744051e+06  -5.668255e+05
   1.837950e+06   8.247924e+05
   4.481507e+05   1.794995e+06
  -1.156722e+06   1.519717e+06
  -1.495766e+06   2.990862e+05
  -5.102649e+05  -7.224301e+05
   5.216639e+05  -7.561810e+05
   5.853447e+05  -1.029969e+05
  -5.065039e+04   3.765857e+05
  -4.586481e+05   2.747082e+05
  -2.049010e+05  -5.429195e+04
   3.411974e+05  -2.982155e+04
   5.115277e+05   4.952792e+05
  -7.245387e+04   1.038798e+06
  -1.148850e+06   8.742926e+05
  -1.853534e+06  -2.417286e+05
  -1.392461e+06  -1.627917e+06
   5.815595e+04  -2.157510e+06
   1.348417e+06  -1.376116e+06
   1.534504e+06  -1.924865e+04
   8.739415e+05   7.742637e+05
   3.480005e+05   6.510660e+05
   3.900018e+05   2.334067e+05
   5.063027e+05   2.271673e+05
   1.081186e+05   6.297974e+05
  -7.016716e+05   8.504505e+05
  -1.266202e+06   4.000991e+05
  -1.011120e+06  -5.841256e+05
   1.043342e+05  -1.347418e+06
   1.460117e+06  -1.077806e+06
   2.028467e+06   2.896633e+05
   1.143771e+06   1.775885e+06
  -7.147121e+05   2.132170e+06
  -2.146216e+06   1.077932e+06
  -2.126422e+06  -3.990757e+05
  -9.864444e+05  -1.116796e+06
   8.397940e+04  -9.002891e+05
   3.503596e+05  -5.322122e+05
   1.059188e+05  -6.719219e+05
   6.405119e+04  -1.115711e+06
   5.124343e+05  -1.135459e+06
   1.100788e+06  -3.367655e+05
   1.228263e+06   8.865380e+05
   5.887639e+05   1.645253e+06
  -4.773405e+05   1.303211e+06
  -1.138326e+06   7.876918e+04
  -7.973822e+05  -1.063537e+06
   2.318823e+05  -1.244373e+06
   9.550183e+05  -4.595027e+05
   7.395369e+05   5.041503e+05
  -8.270399e+03   9.117319e+05
  -3.706855e+05   7.196981e+05
  -2.532385e+04   3.923453e+05
   3.914453e+05   2.868963e+05
   6.739285e+04   3.411874e+05
  -9.804893e+05   2.530918e+05
  -1.808204e+06  -1.718726e+05
  -1.480459e+06  -8.061158e+05
  -7.724414e+04  -1.236191e+06
   1.299255e+06  -1.075700e+06
   1.582282e+06  -3.693096e+05
   7.696201e+05   3.410572e+05
  -1.831803e+05   4.915811e+05
  -4.342754e+05   7.550089e+04
  -3.187528e+04  -3.434881e+05
   3.930500e+05  -2.458799e+05
   4.383253e+05   2.772392e+05
   2.303549e+05   6.387604e+05
   7.927255e+04   4.244024e+05
   1.167801e+05  -1.151748e+05
   2.528423e+05  -3.061143e+05
   2.618650e+05   1.852368e+05
  -8.577025e+04   8.924541e+05
  -7.345564e+05   9.841161e+05
  -1.156685e+06   2.021990e+05
  -7.639173e+05  -7.672207e+05
   3.081776e+05  -9.980261e+05
   1.074271e+06  -3.324382e+05
   6.760201e+05   4.770834e+05
  -5.754589e+05   6.168310e+05
  -1.420797e+06   2.238672e+04
  -9.781286e+05  -6.934844e+05
   3.385585e+05  -9.232631e+05
   1.301385e+06  -5.516724e+05
   1.126526e+06   7.375321e+04
   1.643348e+05   4.527062e+05
  -5.540349e+05   2.883583e+05
  -3.449337e+05  -2.306895e+05
   5.049920e+05  -4.820743e+05
   1.052064e+06   2.836230e+04
   6.351479e+05   1.023517e+06
  -4.599739e+05   1.534412e+06
  -1.282952e+06   8.502184e+05
  -1.155863e+06  -6.126864e+05
  -2.763475e+05  -1.585309e+06
   5.836346e+05  -1.204662e+06
   8.337243e+05   8.743400e+04
   4.664862e+05   1.029187e+06
  -1.169793e+05   8.819620e+05
  -4.863112e+05   1.143431e+05
  -4.514562e+05  -3.106354e+05
  -1.713083e+05  -1.159489e+05
  -3.034743e+04   9.178302e+04
  -2.381301e+05  -2.385071e+05
  -4.963660e+05  -8.259946e+05
  -2.509522e+05  -9.478247e+05
   5.884129e+05  -3.906708e+05
   1.339521e+06   3.306922e+05
   1.202805e+06   6.686319e+05
   2.050373e+05   6.057092e+05
  -7.507063e+05   4.211171e+05
  -8.689420e+05   2.241125e+05
  -3.086122e+05  -1.975931e+04
   1.229481e+05  -2.080123e+05
   7.104836e+02  -1.900677e+05
  -2.611935e+05  -7.581960e+04
  -4.548400e+04  -1.178601e+05
   5.953208e+05  -2.434828e+05
   9.291098e+05  -4.283492e+04
   3.967165e+05   5.924218e+05
  -6.999085e+05   1.086108e+06
  -1.457866e+06   7.526143e+05
  -1.258594e+06  -3.172538e+05
  -3.176762e+05  -1.237706e+06
   6.004019e+05  -1.258768e+06
   9.037502e+05  -5.263062e+05
   5.995167e+05   1.777136e+05
   1.322601e+05   3.119154e+05
  -7.428862e+04   5.653568e+04
   6.391945e+04  -2.902255e+04
   2.939348e+05   3.035331e+05
   2.714208e+05   7.026732e+05
  -1.243248e+05   6.110630e+05
  -6.170350e+05  -7.751051e+04
  -7.047653e+05  -8.139362e+05
  -1.467721e+05  -9.115056e+05
   6.654718e+05  -2.528015e+05
   9.593883e+05   5.928477e+05
   3.639294e+05   9.489339e+05
  -5.985188e+05   6.342224e+05
  -9.925364e+05  -6.780917e+03
  -4.983582e+05  -5.064855e+05
   2.176064e+05  -6.074671e+05
   3.062649e+05  -3.436023e+05
  -2.322162e+05   4.600089e+03
  -5.779824e+05   7.138326e+04
  -1.437661e+05  -2.639547e+05
   6.938112e+05  -6.520550e+05
   1.076365e+06  -5.581249e+05
   6.746415e+05   1.079233e+05
  -3.735614e+04   7.737969e+05
  -4.329397e+05   7.857931e+05
  -3.602944e+05   1.583620e+05
  -7.124377e+04  -4.280907e+05
   1.904765e+05  -3.956908e+05
   3.242249e+05   1.188989e+05
   2.580676e+05   4.987460e+05
  -2.638979e+04   3.752151e+05
  -3.505766e+05  -2.073688e+04
  -4.341806e+05  -2.162880e+05
  -2.194779e+05  -6.611804e+04
   3.308091e+04   1.257258e+05
   7.212640e+04   1.967106e+04
  -2.091638e+04  -3.220213e+05
   3.135050e+04  -4.868396e+05
   2.800355e+05  -1.989405e+05
   4.210044e+05   3.229565e+05
   1.630582e+05   5.715692e+05
  -3.494371e+05   3.006274e+05
  -6.028490e+05  -2.159747e+05
  -2.561835e+05  -4.989203e+05
   4.272504e+05  -3.527966e+05
   7.849435e+05   1.988606e+04
   4.456441e+05   3.081197e+05
  -2.390644e+05   3.671372e+05
  -5.543178e+05   2.326804e+05
  -2.158023e+05   2.809213e+04
   3.136821e+05  -7.765177e+04
   3.717023e+05   3.985279e+04
  -1.372752e+05   2.757439e+05
  -6.553189e+05   2.883673e+05
