
 $NMID
 id='ANONYMOUS ', fmtdat='(2E16.6)'
 volume=1.0
 tramp=1.0
 $END
   5.586944e+07   4.757392e+05
   3.334957e+07   3.491497e+07
  -7.697668e+06   3.778537e+07
  -2.753554e+07   1.430121e+07
  -1.632672e+07  -7.117259e+06
   3.372958e+06  -9.236288e+06
   9.768676e+06   1.321413e+06
   2.663081e+06   9.746526e+06
  -6.271653e+06   9.215633e+06
  -9.610979e+06   1.884355e+06
  -6.867785e+06  -6.213842e+06
  -7.181005e+05  -8.524406e+06
   3.969648e+06  -2.673352e+06
   2.527887e+06   5.422715e+06
  -3.823131e+06   6.457407e+06
  -7.809582e+06  -1.403003e+06
  -4.317690e+06  -1.017044e+07
   3.852875e+06  -1.167617e+07
   1.006529e+07  -5.780146e+06
   1.069610e+07   2.109641e+06
   6.514586e+06   7.459458e+06
   6.419400e+05   8.576593e+06
  -2.918339e+06   6.001750e+06
  -1.872023e+06   2.693269e+06
   1.045337e+06   2.167380e+06
   1.904476e+05   4.129632e+06
  -5.394537e+06   4.281733e+06
  -9.564404e+06   3.857428e+05
  -6.930477e+06  -4.153302e+06
  -2.024563e+05  -4.995256e+06
   3.693718e+06  -2.489185e+06
   2.426684e+06   8.386599e+03
  -6.279045e+05   8.950856e+05
  -2.257288e+06   4.349226e+05
  -2.139903e+06  -1.439119e+06
  -6.419158e+05  -3.880731e+06
   1.806245e+06  -3.797421e+06
   3.185163e+06   1.103426e+05
   1.667418e+06   3.597797e+06
  -7.634188e+05   1.902142e+06
  -2.970686e+05  -2.428637e+06
   2.470873e+06  -2.258869e+06
   2.402778e+06   3.194715e+06
  -2.462487e+06   6.080181e+06
  -6.908339e+06   9.676390e+05
  -5.028570e+06  -6.911586e+06
   1.964293e+06  -8.455252e+06
   7.390752e+06  -2.337138e+06
   6.859144e+06   4.494115e+06
   1.768624e+06   6.020764e+06
  -3.490703e+06   2.655904e+06
  -5.216234e+06  -1.584115e+06
  -2.373276e+06  -3.499291e+06
   2.424906e+06  -2.158617e+06
   4.488054e+06   9.633890e+05
   1.909516e+06   2.720427e+06
  -1.719746e+06   1.341295e+06
  -1.716740e+06  -1.044347e+06
   1.331508e+06  -9.102291e+05
   2.462968e+06   1.763270e+06
  -6.257195e+05   3.427081e+06
  -4.610362e+06   1.869333e+06
  -5.264012e+06  -1.383809e+06
  -2.274865e+06  -3.970266e+06
   1.838983e+06  -5.206859e+06
   5.019809e+06  -4.749064e+06
   6.160697e+06  -1.667993e+06
   4.510084e+06   3.173856e+06
   8.716452e+05   6.132519e+06
  -1.901391e+06   4.725777e+06
  -1.775460e+06   1.206995e+06
  -1.783195e+05  -2.535799e+05
   4.673121e+03   9.561277e+05
  -1.614313e+06   1.740435e+06
  -2.788699e+06   1.933223e+05
  -1.977430e+06  -1.947842e+06
   1.448048e+04  -2.127660e+06
   1.552056e+06  -1.692961e+05
   1.636928e+06   2.100840e+06
  -4.030254e+04   2.922105e+06
  -2.770473e+06   1.608900e+06
  -4.428609e+06  -1.232722e+06
  -3.165397e+06  -3.765274e+06
   6.993499e+04  -4.201264e+06
   2.282619e+06  -2.688106e+06
   2.233480e+06  -1.121264e+06
   1.842328e+06  -6.667816e+05
   2.951579e+06  -4.420355e+05
   4.339769e+06   8.191746e+05
   3.447636e+06   2.814347e+06
   6.934038e+04   4.130670e+06
  -3.264814e+06   3.853033e+06
  -4.200075e+06   2.057020e+06
  -2.642255e+06  -4.580373e+05
  -2.406289e+05  -2.231252e+06
   1.123989e+06  -1.911373e+06
   5.586366e+05   4.444724e+04
  -1.109030e+06   1.291690e+06
  -1.914846e+06   3.702514e+05
  -9.054475e+05  -1.217359e+06
   5.361577e+05  -1.102052e+06
   4.208727e+05   4.061668e+05
  -1.093861e+06   6.870519e+05
  -1.861492e+06  -1.327815e+06
  -5.993379e+05  -3.524153e+06
   1.665638e+06  -3.408979e+06
   3.187742e+06  -1.062785e+06
   3.297526e+06   1.514728e+06
   2.223072e+06   2.811916e+06
   4.028806e+05   2.622046e+06
  -1.265324e+06   1.444993e+06
  -1.581266e+06   2.034199e+05
  -4.930423e+05  -5.355317e+04
   3.464028e+05   7.624723e+05
  -4.393453e+05   1.344545e+06
  -1.930604e+06   5.523336e+05
  -2.032539e+06  -9.305571e+05
  -3.600193e+05  -1.435961e+06
   1.192892e+06  -5.506827e+05
   8.809656e+05   4.809116e+05
  -8.742865e+05   5.044094e+05
  -2.187968e+06  -3.749921e+05
  -1.716539e+06  -1.403703e+06
   2.976057e+05  -1.971897e+06
   2.351433e+06  -1.613332e+06
   2.790559e+06  -2.232229e+05
   1.202723e+06   1.295034e+06
  -9.491201e+05   1.499473e+06
  -1.575790e+06   1.681445e+05
  -1.876574e+05  -1.091258e+06
   1.539308e+06  -7.159054e+05
   1.714830e+06   8.213497e+05
   3.017341e+05   1.671914e+06
  -1.126372e+06   9.564894e+05
  -1.260228e+06  -3.491238e+05
  -2.246789e+05  -7.981245e+05
   8.108701e+05  -4.042258e+04
   7.271500e+05   1.076021e+06
  -6.019187e+05   1.426626e+06
  -2.029415e+06   5.158612e+05
  -2.032679e+06  -1.089246e+06
  -3.512915e+05  -2.096021e+06
   1.480803e+06  -1.629118e+06
   1.742252e+06  -1.774761e+05
   4.846683e+05   8.863643e+05
  -6.817375e+05   7.934867e+05
  -6.330381e+05   6.190730e+04
   1.359854e+05  -3.551395e+05
   4.971744e+05  -1.887688e+05
   1.075003e+05   7.335535e+04
  -4.631716e+05  -9.284729e+04
  -5.105112e+05  -6.968740e+05
   2.344575e+05  -1.196527e+06
   1.410363e+06  -8.769746e+05
   2.088996e+06   4.537481e+05
   1.442356e+06   1.981105e+06
  -2.595491e+05   2.428992e+06
  -1.649692e+06   1.384150e+06
  -1.690742e+06  -1.645667e+05
  -8.321585e+05  -9.123364e+05
  -2.976072e+05  -6.439973e+05
  -4.812760e+05  -2.140064e+05
  -6.384771e+05  -3.251039e+05
  -8.433847e+04  -7.767319e+05
   8.999156e+05  -8.915049e+05
   1.462441e+06  -2.965763e+05
   1.035461e+06   7.444126e+05
  -2.845703e+05   1.456708e+06
  -1.751696e+06   1.042835e+06
  -2.249743e+06  -5.278949e+05
  -1.098747e+06  -2.136246e+06
   1.065861e+06  -2.366118e+06
   2.584320e+06  -9.887390e+05
   2.351062e+06   7.159171e+05
   9.235037e+05   1.368223e+06
  -2.356982e+05   9.379841e+05
  -3.955591e+05   4.923577e+05
  -7.539330e+04   7.519056e+05
  -1.147000e+05   1.318981e+06
  -6.956884e+05   1.292346e+06
  -1.310267e+06   3.030262e+05
  -1.329357e+06  -1.106485e+06
  -5.297217e+05  -1.913131e+06
   6.476577e+05  -1.434245e+06
   1.292433e+06   2.672026e+04
   7.938117e+05   1.310488e+06
  -4.241411e+05   1.400722e+06
  -1.188715e+06   3.814616e+05
  -8.101404e+05  -7.294613e+05
   1.495119e+05  -1.091420e+06
   5.667685e+05  -7.800616e+05
   9.995265e+04  -4.128726e+05
  -4.324575e+05  -3.400347e+05
  -5.618176e+04  -3.844636e+05
   1.163866e+06  -1.928146e+05
   2.077610e+06   3.678476e+05
   1.611320e+06   1.073905e+06
  -6.871406e+04   1.452408e+06
  -1.626806e+06   1.127629e+06
  -1.852128e+06   2.433348e+05
  -8.302437e+05  -5.242930e+05
   2.747888e+05  -5.753957e+05
   5.199425e+05  -2.168303e+04
   3.125129e+04   4.302996e+05
  -4.433116e+05   2.546677e+05
  -4.807090e+05  -3.496626e+05
  -2.546586e+05  -7.244505e+05
  -9.966011e+04  -4.797673e+05
  -1.399248e+05   8.568461e+04
  -2.795429e+05   2.787630e+05
  -2.727633e+05  -2.395615e+05
   1.512190e+05  -9.853811e+05
   9.203832e+05  -1.062274e+06
   1.385239e+06  -1.681577e+05
   8.585329e+05   9.283483e+05
  -4.310289e+05   1.151880e+06
  -1.275520e+06   3.361336e+05
  -7.312013e+05  -5.816031e+05
   7.194327e+05  -6.395948e+05
   1.590967e+06   1.292182e+05
   9.807143e+05   8.905253e+05
  -5.175764e+05   9.781438e+05
  -1.514285e+06   4.374680e+05
  -1.225898e+06  -2.243081e+05
  -1.186480e+05  -5.170288e+05
   6.607182e+05  -2.535861e+05
   3.881440e+05   3.059383e+05
  -5.870367e+05   5.247276e+05
  -1.189554e+06  -8.357054e+04
  -6.761120e+05  -1.187877e+06
   5.932147e+05  -1.710930e+06
   1.492114e+06  -8.856559e+05
   1.255057e+06   7.690821e+05
   1.849568e+05   1.799922e+06
  -7.616292e+05   1.282493e+06
  -9.263897e+05  -2.022648e+05
  -4.052373e+05  -1.207984e+06
   2.524033e+05  -9.641224e+05
   5.730094e+05  -7.028669e+04
   4.505143e+05   3.842832e+05
   1.472762e+05   1.373866e+05
   5.638928e+04  -9.101977e+04
   3.006178e+05   3.088253e+05
   5.093136e+05   9.819621e+05
   1.592109e+05   1.085374e+06
  -7.456552e+05   3.868685e+05
  -1.474419e+06  -4.851005e+05
  -1.258993e+06  -8.586520e+05
  -1.760353e+05  -7.090289e+05
   8.459077e+05  -4.128829e+05
   9.862534e+05  -1.651643e+05
   3.778126e+05   6.646232e+04
  -1.417461e+05   2.266384e+05
  -5.974661e+04   1.969575e+05
   2.422196e+05   8.708284e+04
   5.887328e+04   1.327057e+05
  -6.424468e+05   2.395790e+05
  -1.056601e+06  -1.195698e+04
  -4.663935e+05  -7.018801e+05
   8.316058e+05  -1.193455e+06
   1.732237e+06  -7.698854e+05
   1.448536e+06   4.269263e+05
   2.784507e+05   1.412991e+06
  -7.871091e+05   1.390200e+06
  -1.060076e+06   5.538829e+05
  -6.547007e+05  -2.235856e+05
  -1.441118e+05  -3.618361e+05
   4.803207e+04  -8.062986e+04
  -9.136121e+04  -6.508860e+02
  -2.889659e+05  -3.810276e+05
  -2.338157e+05  -8.167797e+05
   1.783568e+05  -6.890044e+05
   6.797017e+05   1.067885e+05
   7.563529e+05   9.423852e+05
   1.437341e+05   1.040957e+06
  -7.412637e+05   2.732630e+05
  -1.048558e+06  -7.030664e+05
  -3.668421e+05  -1.099134e+06
   7.144341e+05  -7.014851e+05
   1.140370e+06   6.891869e+04
   5.511592e+05   6.365709e+05
  -2.914287e+05   7.082720e+05
  -4.058974e+05   3.770647e+05
   2.233540e+05   1.105729e+03
   6.477471e+05  -4.213013e+04
   1.562694e+05   3.151687e+05
  -8.337846e+05   6.783703e+05
  -1.293404e+06   5.227911e+05
  -7.944275e+05  -1.995460e+05
   9.608546e+04  -8.859660e+05
   5.803578e+05  -8.734498e+05
   4.542684e+05  -1.827644e+05
   6.696312e+04   4.713202e+05
  -2.357361e+05   4.526758e+05
  -3.519878e+05  -1.249066e+05
  -2.594330e+05  -5.809051e+05
   4.574668e+04  -4.521822e+05
   3.945183e+05   3.452525e+04
   4.884408e+05   2.995548e+05
   2.453291e+05   1.124158e+05
  -4.774142e+04  -1.697282e+05
  -8.579813e+04  -8.308236e+04
   4.506916e+04   3.387830e+05
  -5.413405e+02   5.788525e+05
  -3.034766e+05   2.644765e+05
  -4.933692e+05  -3.507849e+05
  -2.024097e+05  -6.465103e+05
   3.978004e+05  -3.292670e+05
   6.860379e+05   2.632593e+05
   2.691307e+05   5.669461e+05
  -5.185642e+05   3.732569e+05
  -9.044002e+05  -6.269922e+04
  -4.910241e+05  -3.790339e+05
   2.945941e+05  -4.231037e+05
   6.495583e+05  -2.548461e+05
   2.723655e+05  -2.408905e+04
  -3.194089e+05   8.890097e+04
  -3.982687e+05  -3.497969e+04
   1.464115e+05  -2.752880e+05
   7.101217e+05  -2.743310e+05
