
 $NMID
 id='ANONYMOUS ', fmtdat='(2E16.6)'
 volume=1.0
 tramp=1.0
 $END
   7.882067e+06  -1.677334e+06
   6.629931e+06   2.022579e+06
   1.762136e+06   5.011066e+06
  -2.666395e+06   4.870973e+06
  -3.378596e+06   1.638126e+06
  -8.522412e+05  -1.486785e+06
   1.711904e+06  -1.459023e+06
   1.921647e+06   1.099207e+06
   1.832104e+05   2.800157e+06
  -1.462087e+06   1.645469e+06
  -1.612158e+06  -8.483647e+05
  -4.714902e+05  -1.825602e+06
   7.315531e+05  -4.182103e+05
   8.527069e+05   1.631250e+06
  -2.526655e+05   2.124189e+06
  -1.509690e+06   5.930673e+05
  -1.544946e+06  -1.500320e+06
  -1.507559e+05  -2.326449e+06
   1.372131e+06  -1.391072e+06
   1.642258e+06   1.684306e+05
   7.600399e+05   9.189601e+05
   5.797579e+04   6.456384e+05
   4.038855e+05   3.439557e+05
   1.193311e+06   8.048090e+05
   1.131585e+06   1.627977e+06
  -2.504910e+05   1.812140e+06
  -1.997445e+06   9.831792e+05
  -2.573476e+06  -2.635941e+05
  -1.357199e+06  -1.039067e+06
   5.977946e+05  -8.853451e+05
   1.452054e+06  -4.204676e+03
   4.584123e+05   8.734511e+05
  -1.197931e+06   9.236440e+05
  -1.738475e+06  -5.061276e+04
  -8.004300e+05  -1.237031e+06
   3.565169e+05  -1.484668e+06
   5.669238e+05  -5.566154e+05
   3.191805e+04   5.080419e+05
  -3.220214e+05   5.216700e+05
  -1.155472e+05  -4.879721e+05
   3.334058e+05  -1.307284e+06
   6.828186e+05  -9.337105e+05
   7.747832e+05   2.906966e+05
   4.196618e+05   1.076978e+06
  -3.490688e+05   6.147396e+05
  -8.495172e+05  -5.702941e+05
  -2.832614e+05  -1.213050e+06
   1.090344e+06  -6.421315e+05
   1.885427e+06   5.931479e+05
   1.102683e+06   1.374621e+06
  -6.186005e+05   1.125889e+06
  -1.667155e+06   2.207496e+05
  -1.207704e+06  -5.384494e+05
   8.010720e+04  -6.572466e+05
   9.009233e+05  -2.339117e+05
   6.474396e+05   2.450510e+05
  -1.855145e+05   3.148310e+05
  -6.244957e+05  -9.115430e+04
  -1.971853e+05  -5.443932e+05
   5.828193e+05  -4.987933e+05
   7.416346e+05   1.043359e+05
  -2.794638e+04   6.675575e+05
  -8.951297e+05   5.141947e+05
  -7.864418e+05  -3.601704e+05
   3.362134e+05  -1.209125e+06
   1.418541e+06  -1.236079e+06
   1.547871e+06  -3.366276e+05
   8.860514e+05   8.388159e+05
   2.306693e+05   1.500177e+06
  -9.571392e+03   1.395127e+06
  -9.040918e+04   9.240334e+05
  -3.687041e+05   6.074968e+05
  -8.228094e+05   4.855395e+05
  -1.139916e+06   1.578709e+05
  -1.033904e+06  -5.478553e+05
  -4.422287e+05  -1.143218e+06
   3.849269e+05  -9.507564e+05
   9.303002e+05   2.711004e+04
   7.485629e+05   9.681247e+05
  -7.967151e+04   1.064364e+06
  -9.126099e+05   3.338694e+05
  -1.107386e+06  -5.140108e+05
  -6.219571e+05  -8.731924e+05
   4.897692e+03  -7.317791e+05
   2.678323e+05  -4.697645e+05
   2.224036e+05  -3.903421e+05
   3.510346e+05  -4.751013e+05
   9.071284e+05  -4.475151e+05
   1.471871e+06  -2.876681e+04
   1.305003e+06   7.507965e+05
   2.081135e+05   1.436471e+06
  -1.078968e+06   1.460945e+06
  -1.526935e+06   6.955305e+05
  -8.713592e+05  -3.298711e+05
   1.302058e+05  -8.526218e+05
   5.334895e+05  -5.702768e+05
   1.484144e+05   9.446168e+04
  -4.321540e+05   4.294582e+05
  -5.772201e+05   1.460407e+05
  -2.140254e+05  -3.419614e+05
   2.356588e+05  -3.894462e+05
   3.081948e+05   1.118109e+05
  -1.171990e+05   5.284356e+05
  -7.019643e+05   1.761241e+05
  -8.583148e+05  -8.157485e+05
  -2.417683e+05  -1.517140e+06
   8.326321e+05  -1.167511e+06
   1.549545e+06  -7.184685e+03
   1.320365e+06   9.898748e+05
   3.695955e+05   1.130475e+06
  -4.778700e+05   5.961125e+05
  -6.089527e+05   7.382910e+04
  -1.774194e+05   2.429710e+03
   1.511600e+05   2.556048e+05
  -5.222631e+04   4.205464e+05
  -5.361934e+05   2.470213e+05
  -6.804021e+05  -1.435554e+05
  -2.251790e+05  -3.944929e+05
   3.767721e+05  -2.571693e+05
   4.198662e+05   1.425615e+05
  -2.421471e+05   3.828885e+05
  -9.549433e+05   1.453397e+05
  -9.282904e+05  -4.440427e+05
  -9.314425e+04  -8.963129e+05
   8.138641e+05  -8.050965e+05
   1.018312e+06  -2.288926e+05
   4.601997e+05   3.507696e+05
  -2.363336e+05   4.636169e+05
  -4.310046e+05   9.049833e+04
  -3.532615e+04  -3.139730e+05
   4.997488e+05  -2.802278e+05
   6.470445e+05   1.759629e+05
   2.695731e+05   5.666379e+05
  -2.773411e+05   4.800632e+05
  -4.848837e+05   4.586644e+04
  -1.909878e+05  -2.295985e+05
   2.367390e+05  -4.980009e+04
   2.697254e+05   3.584722e+05
  -2.050844e+05   5.224374e+05
  -7.307764e+05   2.179229e+05
  -7.505142e+05  -3.405846e+05
  -2.001820e+05  -7.195866e+05
   4.253526e+05  -6.337380e+05
   5.894414e+05  -1.730951e+05
   2.404243e+05   2.661307e+05
  -1.923532e+05   3.258061e+05
  -2.762838e+05   2.981936e+04
   6.150174e+02  -2.447143e+05
   2.733816e+05  -1.932236e+05
   2.204391e+05   6.537996e+04
  -9.083012e+04   1.477145e+05
  -2.787811e+05  -1.091229e+05
  -5.608412e+04  -4.303655e+05
   4.467863e+05  -4.047727e+05
   7.779670e+05   6.578434e+04
   5.946702e+05   6.560972e+05
  -4.487962e+02   9.136254e+05
  -5.560385e+05   6.459265e+05
  -7.003677e+05   7.279927e+04
  -4.630305e+05  -3.663421e+05
  -1.762877e+05  -4.008614e+05
  -9.199755e+04  -1.706010e+05
  -1.370948e+05  -5.105169e+04
  -5.432661e+04  -2.094456e+05
   2.519861e+05  -3.945971e+05
   5.550192e+05  -2.413706e+05
   5.091791e+05   2.516362e+05
   1.585466e+04   6.519166e+05
  -6.161170e+05   5.308800e+05
  -8.900379e+05  -8.388812e+04
  -5.420706e+05  -7.221262e+05
   2.117547e+05  -9.000424e+05
   8.382073e+05  -5.246271e+05
   9.286317e+05   7.281012e+04
   5.229178e+05   4.575747e+05
   2.241142e+04   4.661833e+05
  -2.068986e+05   3.015185e+05
  -1.459478e+05   2.630264e+05
  -6.222998e+04   3.919593e+05
  -1.771496e+05   4.277655e+05
  -4.187987e+05   1.374467e+05
  -5.038422e+05  -3.638027e+05
  -2.510494e+05  -6.847538e+05
   1.978839e+05  -5.461513e+05
   4.825782e+05  -5.449021e+04
   3.648360e+05   4.073899e+05
  -3.168001e+04   5.210155e+05
  -3.396513e+05   2.683015e+05
  -3.165449e+05  -1.078980e+05
  -7.654701e+04  -3.347230e+05
   6.745799e+04  -3.235884e+05
  -2.404907e+04  -1.985644e+05
  -1.537803e+05  -1.306058e+05
  -2.531610e+04  -1.502460e+05
   3.811277e+05  -1.344317e+05
   7.248329e+05   2.919560e+04
   6.312648e+05   2.944473e+05
   9.568539e+04   4.843883e+05
  -4.732267e+05   4.511812e+05
  -6.374090e+05   2.082716e+05
  -3.481413e+05  -6.979659e+04
   4.096119e+04  -1.794709e+05
   1.659448e+05  -6.710709e+04
   5.417477e+03   1.011794e+05
  -1.773424e+05   9.604151e+04
  -1.786289e+05  -1.080955e+05
  -5.542514e+04  -2.725820e+05
   8.630272e+03  -1.744457e+05
  -5.628594e+04   8.633866e+04
  -1.494104e+05   1.720631e+05
  -1.297500e+05  -7.331035e+04
   4.986958e+04  -3.969427e+05
   2.995648e+05  -4.160571e+05
   4.282896e+05  -6.909501e+04
   2.718370e+05   3.126772e+05
  -1.157549e+05   3.769284e+05
  -4.094209e+05   1.071129e+05
  -2.794305e+05  -2.070268e+05
   2.210377e+05  -2.766869e+05
   6.201339e+05  -5.315327e+04
   4.879609e+05   2.725071e+05
  -8.495448e+04   4.392872e+05
  -5.615313e+05   3.167353e+05
  -5.246554e+05   1.333367e+04
  -9.835291e+04  -2.033322e+05
   2.271979e+05  -1.495227e+05
   1.313555e+05   7.877854e+04
  -2.314279e+05   1.802331e+05
  -4.345400e+05  -4.198506e+04
  -2.271668e+05  -4.404832e+05
   2.325936e+05  -6.232102e+05
   5.538177e+05  -3.308018e+05
   4.862865e+05   2.669278e+05
   1.208686e+05   6.771454e+05
  -2.411680e+05   5.404019e+05
  -3.670822e+05  -8.219201e+02
  -2.383973e+05  -4.333095e+05
   6.632787e+03  -4.041127e+05
   1.974392e+05  -7.040790e+04
   2.234229e+05   1.407899e+05
   1.046398e+05   6.398112e+04
   6.745373e+01  -4.996958e+04
   5.694676e+04   7.184102e+04
   1.978793e+05   3.346695e+05
   1.511855e+05   4.111178e+05
  -2.012206e+05   1.815939e+05
  -5.759900e+05  -1.328489e+05
  -5.530001e+05  -2.791660e+05
  -9.785987e+04  -2.483570e+05
   3.477292e+05  -1.764393e+05
   3.811954e+05  -1.122903e+05
   1.055142e+05  -1.730252e+04
  -6.280576e+04   8.246367e+04
   3.943730e+04   1.041956e+05
   1.516674e+05   5.997369e+04
   2.723730e+03   5.267632e+04
  -2.952838e+05   8.410835e+04
  -3.857881e+05   7.282465e+03
  -1.075289e+05  -2.351890e+05
   3.297370e+05  -4.286681e+05
   5.803421e+05  -2.921188e+05
   4.762229e+05   1.486150e+05
   1.191754e+05   5.263783e+05
  -2.383966e+05   5.198951e+05
  -3.775924e+05   1.951669e+05
  -2.574407e+05  -9.961460e+04
  -3.757359e+04  -1.302128e+05
   6.541370e+04   4.648375e+03
  -1.685508e+04   4.240487e+04
  -1.452931e+05  -1.179134e+05
  -1.305293e+05  -2.982922e+05
   6.122178e+04  -2.466394e+05
   2.646471e+05   6.318101e+04
   2.673371e+05   3.675290e+05
   1.621582e+04   3.727488e+05
  -2.992005e+05   6.374231e+04
  -3.852386e+05  -2.839297e+05
  -1.268150e+05  -3.935882e+05
   2.549067e+05  -2.364779e+05
   3.969368e+05   1.270803e+04
   1.900055e+05   1.847443e+05
  -8.612288e+04   2.205214e+05
  -9.713838e+04   1.388607e+05
   1.311790e+05   1.469461e+04
   2.523790e+05  -2.346677e+04
   4.925210e+04   1.026240e+05
  -2.922182e+05   2.785115e+05
  -4.246849e+05   2.643097e+05
  -2.505343e+05  -1.310328e+04
   1.772271e+04  -3.097728e+05
   1.490492e+05  -3.186807e+05
   1.128804e+05  -4.487725e+04
   9.282622e+03   1.923898e+05
  -8.481111e+04   1.462616e+05
  -1.346458e+05  -8.206458e+04
  -1.026694e+05  -2.104677e+05
   1.689523e+04  -1.271915e+05
   1.438731e+05   2.337742e+04
   1.728258e+05   6.765055e+04
   9.393629e+04   7.533307e+03
   2.679732e+00  -2.597339e+04
  -3.554990e+04   4.402480e+04
  -3.912883e+04   1.508144e+05
  -7.364305e+04   1.613090e+05
  -1.312877e+05   2.159774e+04
  -1.284981e+05  -1.698053e+05
  -9.331555e+03  -2.387739e+05
   1.620056e+05  -1.076819e+05
   2.286933e+05   1.111869e+05
   8.833237e+04   2.216421e+05
  -1.700685e+05   1.435715e+05
  -3.085051e+05  -2.304647e+04
  -1.761403e+05  -1.302746e+05
   9.860164e+04  -1.284332e+05
   2.203806e+05  -6.662719e+04
   6.377799e+04  -9.317029e+03
  -1.644234e+05   3.547210e+02
  -1.649163e+05  -5.616163e+04
   9.057763e+04  -1.331352e+05
   3.234583e+05  -1.116438e+05
