
 $NMID
 id='ANONYMOUS ', fmtdat='(2E16.6)'
 volume=1.0
 tramp=1.0
 $END
   2.697467e+07  -1.041772e+06
   1.812476e+07   1.313812e+07
  -3.256842e+05   1.750260e+07
  -1.177708e+07   1.064827e+07
  -9.353007e+06   2.182563e+05
  -1.594362e+05  -4.822512e+06
   5.304454e+06  -1.833981e+06
   3.587754e+06   4.369623e+06
  -1.524428e+06   6.796446e+06
  -4.909877e+06   2.895103e+06
  -4.247461e+06  -3.256831e+06
  -6.688552e+05  -5.288004e+06
   2.430963e+06  -1.292598e+06
   2.039650e+06   4.139765e+06
  -1.482087e+06   5.014868e+06
  -4.358097e+06   3.810256e+05
  -3.252307e+06  -5.108077e+06
   1.138536e+06  -6.511336e+06
   4.964906e+06  -3.284243e+06
   5.276288e+06   1.230241e+06
   2.603870e+06   3.643895e+06
  -8.294165e+04   3.284281e+06
  -3.841186e+05   1.965788e+06
   1.287152e+06   1.799690e+06
   2.060906e+06   3.065439e+06
  -3.590242e+05   3.962417e+06
  -4.661627e+06   2.649068e+06
  -6.682889e+06  -4.757870e+05
  -3.977118e+06  -2.970417e+06
   1.009421e+06  -2.902785e+06
   3.447904e+06  -7.262521e+05
   1.498837e+06   1.439542e+06
  -2.033475e+06   1.790481e+06
  -3.378909e+06   4.784546e+04
  -1.794380e+06  -2.436789e+06
   5.653212e+05  -3.457692e+06
   1.566880e+06  -1.799777e+06
   9.356996e+05   1.041581e+06
  -1.806144e+05   1.907648e+06
  -4.856040e+05  -2.947485e+05
   4.573011e+05  -2.747199e+06
   1.752500e+06  -2.000352e+06
   1.776587e+06   1.379575e+06
  -9.827740e+04   3.219597e+06
  -2.347201e+06   1.029836e+06
  -2.490147e+06  -2.806815e+06
   2.290535e+05  -4.026682e+06
   3.671600e+06  -1.451384e+06
   4.665005e+06   2.206045e+06
   2.085767e+06   3.744949e+06
  -1.947691e+06   2.426103e+06
  -3.978463e+06  -1.498991e+05
  -2.444648e+06  -1.863484e+06
   8.581907e+05  -1.624524e+06
   2.634004e+06  -1.985188e+04
   1.480370e+06   1.218278e+06
  -7.988658e+05   8.697311e+05
  -1.448583e+06  -4.701554e+05
   3.945718e+04  -1.112858e+06
   1.529974e+06  -2.901086e+05
   9.526011e+05   1.042243e+06
  -1.255039e+06   1.414897e+06
  -2.712733e+06   3.042107e+05
  -1.704787e+06  -1.645738e+06
   1.155972e+06  -3.176995e+06
   3.668003e+06  -3.027283e+06
   4.085576e+06  -7.936574e+05
   2.486012e+06   2.286589e+06
   4.205146e+05   4.017663e+06
  -6.555525e+05   3.388282e+06
  -6.525133e+05   1.685410e+06
  -6.033324e+05   8.421557e+05
  -1.273657e+06   1.027296e+06
  -2.238576e+06   7.329972e+05
  -2.406246e+06  -8.232871e+05
  -1.247310e+06  -2.375561e+06
   6.261002e+05  -2.133549e+06
   1.926826e+06  -3.218059e+04
   1.640527e+06   2.114636e+06
  -1.746874e+05   2.491802e+06
  -2.233130e+06   9.178388e+05
  -2.905026e+06  -1.250411e+06
  -1.700893e+06  -2.467099e+06
   1.688041e+05  -2.246978e+06
   1.103136e+06  -1.341888e+06
   9.462963e+05  -8.040424e+05
   1.017869e+06  -8.638256e+05
   2.173735e+06  -7.749184e+05
   3.403615e+06   2.302440e+05
   2.892383e+06   1.966652e+06
   2.920586e+05   3.338039e+06
  -2.597201e+06   3.258573e+06
  -3.554511e+06   1.573309e+06
  -2.100826e+06  -6.919163e+05
   1.635748e+05  -1.968695e+06
   1.205245e+06  -1.417422e+06
   4.272673e+05   1.730257e+05
  -9.908389e+05   1.036200e+06
  -1.454910e+06   3.202359e+05
  -5.800467e+05  -9.005913e+05
   5.469299e+05  -9.526132e+05
   6.365630e+05   2.562536e+05
  -4.312480e+05   1.019136e+06
  -1.537685e+06  -3.859476e+04
  -1.452143e+06  -2.162786e+06
   7.160773e+04  -3.234612e+06
   2.111909e+06  -2.073398e+06
   3.254885e+06   4.234967e+05
   2.627489e+06   2.322825e+06
   6.622810e+05   2.471130e+06
  -1.112228e+06   1.293135e+06
  -1.394697e+06   1.355320e+05
  -4.117670e+05  -2.812375e+04
   3.344333e+05   6.046713e+05
  -1.994627e+05   1.018813e+06
  -1.362913e+06   5.253923e+05
  -1.621008e+06  -4.893497e+05
  -4.638182e+05  -1.023931e+06
   9.055095e+05  -5.817944e+05
   9.207939e+05   3.211122e+05
  -5.596961e+05   7.250614e+05
  -2.036840e+06   1.417174e+05
  -1.901888e+06  -1.051613e+06
  -7.176090e+04  -1.917362e+06
   1.907257e+06  -1.671542e+06
   2.348884e+06  -3.828501e+05
   1.031423e+06   9.251442e+05
  -6.523408e+05   1.126604e+06
  -1.116281e+06   1.632085e+05
  -1.040072e+05  -8.011985e+05
   1.203369e+06  -6.280891e+05
   1.473999e+06   5.076902e+05
   4.995338e+05   1.346757e+06
  -7.414261e+05   1.019234e+06
  -1.111803e+06  -1.375093e+04
  -3.864896e+05  -5.796827e+05
   5.624300e+05  -1.129687e+05
   6.098309e+05   8.184277e+05
  -4.703808e+05   1.173130e+06
  -1.666184e+06   4.580518e+05
  -1.694917e+06  -8.391285e+05
  -3.824034e+05  -1.687315e+06
   1.084963e+06  -1.410282e+06
   1.406746e+06  -2.924812e+05
   5.166221e+05   6.772957e+05
  -4.875673e+05   7.419877e+05
  -6.290341e+05   7.788309e+04
  -4.184501e+03  -4.792017e+05
   5.352077e+05  -3.775323e+05
   3.877652e+05   8.772854e+04
  -2.221968e+05   1.902733e+05
  -5.318838e+05  -3.407659e+05
  -9.613654e+03  -9.557759e+05
   1.065609e+06  -8.307901e+05
   1.746599e+06   2.466964e+05
   1.275906e+06   1.561424e+06
  -1.078751e+05   2.070528e+06
  -1.331562e+06   1.364283e+06
  -1.550196e+06   4.844233e+04
  -9.430522e+05  -8.451580e+05
  -3.486557e+05  -8.335409e+05
  -2.514625e+05  -3.529814e+05
  -3.460394e+05  -1.720943e+05
  -7.185089e+04  -5.094650e+05
   6.397357e+05  -8.122025e+05
   1.231506e+06  -4.220062e+05
   1.038360e+06   5.984165e+05
  -6.673821e+04   1.383751e+06
  -1.420074e+06   1.070641e+06
  -1.964991e+06  -2.960369e+05
  -1.115896e+06  -1.692086e+06
   6.229454e+05  -2.008060e+06
   1.990411e+06  -1.054161e+06
   2.068971e+06   3.190436e+05
   1.066494e+06   1.085354e+06
  -2.168776e+04   9.876415e+05
  -4.408072e+05   6.146159e+05
  -2.833689e+05   6.152537e+05
  -1.669526e+05   9.526266e+05
  -4.832131e+05   9.901844e+05
  -1.000509e+06   2.701957e+05
  -1.121136e+06  -8.827622e+05
  -5.061827e+05  -1.586067e+06
   5.016359e+05  -1.228755e+06
   1.098108e+06  -7.007575e+04
   7.664905e+05   9.813321e+05
  -1.677909e+05   1.173342e+06
  -8.285932e+05   5.160815e+05
  -6.860272e+05  -3.464501e+05
  -7.785251e+04  -7.872889e+05
   2.388848e+05  -6.999239e+05
  -1.694515e+04  -4.286059e+05
  -3.371567e+05  -3.097167e+05
  -3.809045e+04  -3.354218e+05
   8.911427e+05  -2.353046e+05
   1.649174e+06   1.757496e+05
   1.388965e+06   7.554225e+05
   1.291386e+05   1.119629e+06
  -1.163775e+06   9.690384e+05
  -1.482773e+06   3.739747e+05
  -7.598255e+05  -2.360440e+05
   1.404430e+05  -4.134966e+05
   3.868258e+05  -1.067505e+05
  -1.052784e+04   2.587239e+05
  -4.150263e+05   1.991571e+05
  -3.942784e+05  -2.781562e+05
  -1.175167e+05  -6.322730e+05
   1.332182e+04  -4.076126e+05
  -1.251175e+05   1.608149e+05
  -3.121713e+05   3.516429e+05
  -2.587826e+05  -1.709006e+05
   1.453696e+05  -8.688888e+05
   7.166365e+05  -9.008669e+05
   1.004919e+06  -1.137637e+05
   6.096034e+05   7.473333e+05
  -3.160622e+05   8.637519e+05
  -9.708846e+05   2.096115e+05
  -6.145548e+05  -4.989974e+05
   5.445813e+05  -5.884895e+05
   1.392266e+06  -2.649060e+04
   1.023198e+06   6.705394e+05
  -2.704905e+05   9.425498e+05
  -1.283710e+06   6.061481e+05
  -1.150629e+06  -4.273851e+04
  -1.866778e+05  -4.584332e+05
   5.292237e+05  -3.014930e+05
   2.987249e+05   2.018315e+05
  -5.314850e+05   4.035825e+05
  -9.914876e+05  -1.193183e+05
  -4.974952e+05  -1.023838e+06
   5.752747e+05  -1.412729e+06
   1.292647e+06  -7.102897e+05
   1.078168e+06   6.564081e+05
   1.983600e+05   1.545772e+06
  -6.030949e+05   1.179524e+06
  -8.153666e+05  -5.922594e+04
  -4.706843e+05  -9.981425e+05
   7.181422e+04  -8.874361e+05
   4.508210e+05  -1.266816e+05
   4.745100e+05   3.271341e+05
   2.171433e+05   1.385721e+05
   1.193027e+04  -1.064341e+05
   1.423173e+05   1.921459e+05
   4.205416e+05   7.908163e+05
   2.783311e+05   9.366666e+05
  -5.000934e+05   3.742282e+05
  -1.287346e+06  -3.651074e+05
  -1.198298e+06  -6.862128e+05
  -1.855999e+05  -5.745199e+05
   7.914436e+05  -3.678855e+05
   8.645629e+05  -2.062315e+05
   2.493533e+05  -7.929416e+03
  -1.478827e+05   1.878628e+05
   5.711989e+04   2.202453e+05
   3.170548e+05   1.248632e+05
   1.160149e+04   1.165644e+05
  -6.542613e+05   1.778478e+05
  -8.803461e+05  -1.674375e+04
  -2.509551e+05  -5.637680e+05
   7.795818e+05  -9.625300e+05
   1.373035e+06  -6.095114e+05
   1.097944e+06   3.910644e+05
   2.222831e+05   1.206847e+06
  -6.053268e+05   1.154804e+06
  -8.804185e+05   4.164451e+05
  -5.732150e+05  -2.350210e+05
  -8.304848e+04  -3.000530e+05
   1.320968e+05  -4.959053e+03
  -4.216104e+04   7.484140e+04
  -3.029376e+05  -2.826000e+05
  -2.590965e+05  -6.844244e+05
   1.583142e+05  -5.630328e+05
   5.974488e+05   1.491638e+05
   5.927069e+05   8.530850e+05
   2.246181e+04   8.649704e+05
  -6.849403e+05   1.418602e+05
  -8.625806e+05  -6.708358e+05
  -2.589574e+05  -9.158854e+05
   6.081709e+05  -5.263299e+05
   9.116735e+05   6.936963e+04
   4.167291e+05   4.566130e+05
  -2.261327e+05   5.080874e+05
  -2.507795e+05   3.035202e+05
   2.814718e+05   3.462089e+04
   5.700857e+05  -3.050569e+04
   1.042508e+05   2.450027e+05
  -6.926483e+05   5.993244e+05
  -1.003111e+06   5.335405e+05
  -5.804328e+05  -8.160733e+04
   7.552007e+04  -7.119359e+05
   3.938531e+05  -7.078824e+05
   2.865230e+05  -9.337128e+04
   1.335710e+04   4.351445e+05
  -2.098591e+05   3.340155e+05
  -3.035686e+05  -1.841494e+05
  -2.135516e+05  -4.895726e+05
   5.488395e+04  -3.050140e+05
   3.296359e+05   6.083320e+04
   3.869191e+05   1.871722e+05
   2.076879e+05   3.885479e+04
  -3.301749e+02  -7.617612e+04
  -7.255146e+04   6.812425e+04
  -7.510657e+04   3.393501e+05
  -1.596634e+05   3.948766e+05
  -3.058590e+05   7.198887e+04
  -3.073868e+05  -3.906755e+05
  -2.762538e+04  -5.557766e+05
   3.747210e+05  -2.398322e+05
   5.242143e+05   2.706668e+05
   1.893810e+05   5.090611e+05
  -4.072716e+05   3.078985e+05
  -7.124529e+05  -8.110972e+04
  -3.927870e+05  -3.163530e+05
   2.438152e+05  -2.960544e+05
   5.220822e+05  -1.431731e+05
   1.624719e+05  -9.257514e+03
  -3.624294e+05   9.328392e+03
  -3.731887e+05  -1.214125e+05
   1.977911e+05  -2.908827e+05
   7.226362e+05  -2.345526e+05
