
 $NMID
 id='ANONYMOUS ', fmtdat='(2E16.6)'
 volume=1.0
 tramp=1.0
 $END
   5.181441e+07  -1.294240e+06
   3.213432e+07   3.092079e+07
  -5.633056e+06   3.512010e+07
  -2.488776e+07   1.452556e+07
  -1.549947e+07  -5.631804e+06
   2.618042e+06  -8.694232e+06
   9.145052e+06   6.022314e+05
   3.055732e+06   8.888120e+06
  -5.319608e+06   9.025419e+06
  -8.872987e+06   2.293302e+06
  -6.679074e+06  -5.594848e+06
  -9.671065e+05  -8.046845e+06
   3.679523e+06  -2.603476e+06
   2.633002e+06   5.152215e+06
  -3.288206e+06   6.349180e+06
  -7.348567e+06  -9.318143e+05
  -4.448715e+06  -9.325625e+06
   3.142702e+06  -1.104716e+07
   9.187397e+06  -5.708246e+06
   1.000029e+07   1.689486e+06
   6.177723e+06   6.753335e+06
   7.692336e+05   7.828531e+06
  -2.414709e+06   5.510564e+06
  -1.361135e+06   2.590401e+06
   1.264711e+06   2.233236e+06
   2.572208e+05   4.095800e+06
  -5.152511e+06   4.228546e+06
  -9.148862e+06   5.658963e+05
  -6.646799e+06  -3.779013e+06
  -1.893359e+05  -4.711523e+06
   3.586075e+06  -2.375171e+06
   2.315817e+06   1.267845e+05
  -7.719897e+05   1.054843e+06
  -2.393696e+06   4.747942e+05
  -2.151643e+06  -1.503971e+06
  -6.049717e+05  -3.811881e+06
   1.667081e+06  -3.579108e+06
   2.892510e+06   1.561566e+05
   1.517912e+06   3.327990e+06
  -6.866079e+05   1.623338e+06
  -2.831964e+05  -2.465147e+06
   2.293008e+06  -2.293976e+06
   2.400993e+06   2.866298e+06
  -1.960745e+06   5.732199e+06
  -6.238306e+06   1.154270e+06
  -4.858797e+06  -6.195196e+06
   1.487880e+06  -7.877736e+06
   6.797782e+06  -2.418906e+06
   6.669904e+06   3.962353e+06
   1.986375e+06   5.631586e+06
  -3.183366e+06   2.720772e+06
  -5.072693e+06  -1.219743e+06
  -2.479692e+06  -3.187617e+06
   2.137040e+06  -2.148887e+06
   4.248126e+06   6.935344e+05
   1.925185e+06   2.450525e+06
  -1.548750e+06   1.324295e+06
  -1.706743e+06  -9.072410e+05
   1.116937e+06  -9.664652e+05
   2.365767e+06   1.405665e+06
  -3.199698e+05   3.096242e+06
  -4.084347e+06   1.919425e+06
  -4.931938e+06  -1.002928e+06
  -2.299161e+06  -3.574772e+06
   1.590008e+06  -4.973561e+06
   4.684448e+06  -4.659234e+06
   5.818877e+06  -1.730639e+06
   4.323259e+06   2.917059e+06
   9.933678e+05   5.808259e+06
  -1.582472e+06   4.584598e+06
  -1.573420e+06   1.316519e+06
  -2.324744e+05  -9.413688e+04
  -1.345385e+05   9.777374e+05
  -1.645686e+06   1.663012e+06
  -2.735309e+06   1.479795e+05
  -1.947923e+06  -1.940761e+06
   2.145243e+04  -2.132381e+06
   1.594574e+06  -2.111052e+05
   1.707927e+06   2.039406e+06
   3.878033e+04   2.860351e+06
  -2.644020e+06   1.601625e+06
  -4.255071e+06  -1.098354e+06
  -3.073079e+06  -3.490752e+06
  -3.611829e+04  -3.930892e+06
   2.043100e+06  -2.562543e+06
   2.020056e+06  -1.135046e+06
   1.700607e+06  -7.439794e+05
   2.818475e+06  -5.774981e+05
   4.221821e+06   5.998560e+05
   3.449707e+06   2.580580e+06
   2.322534e+05   4.007150e+06
  -3.040061e+06   3.866583e+06
  -4.037202e+06   2.123723e+06
  -2.582043e+06  -4.031193e+05
  -2.602019e+05  -2.187068e+06
   1.072184e+06  -1.881307e+06
   5.436751e+05   4.270035e+04
  -1.047543e+06   1.291402e+06
  -1.835522e+06   4.247698e+05
  -8.985761e+05  -1.143821e+06
   4.986379e+05  -1.099563e+06
   4.614268e+05   3.653810e+05
  -9.713698e+05   7.592521e+05
  -1.840378e+06  -1.088499e+06
  -8.173097e+05  -3.298150e+06
   1.329017e+06  -3.413568e+06
   2.983437e+06  -1.293264e+06
   3.321847e+06   1.249912e+06
   2.363760e+06   2.656639e+06
   5.260015e+05   2.577624e+06
  -1.193758e+06   1.462640e+06
  -1.546569e+06   2.462831e+05
  -4.827504e+05  -3.405473e+04
   3.685997e+05   7.267019e+05
  -3.624078e+05   1.308809e+06
  -1.829279e+06   6.076435e+05
  -1.998642e+06  -8.018185e+05
  -4.193448e+05  -1.361962e+06
   1.129632e+06  -5.920938e+05
   8.983123e+05   4.249912e+05
  -8.078625e+05   5.577408e+05
  -2.166560e+06  -2.302726e+05
  -1.780657e+06  -1.289669e+06
   1.787563e+05  -1.964288e+06
   2.228065e+06  -1.692908e+06
   2.714057e+06  -3.357531e+05
   1.217404e+06   1.202097e+06
  -8.588014e+05   1.474872e+06
  -1.504113e+06   2.165840e+05
  -2.108723e+05  -1.043515e+06
   1.465502e+06  -7.517862e+05
   1.702458e+06   7.195994e+05
   3.825210e+05   1.610363e+06
  -1.036403e+06   9.974205e+05
  -1.244678e+06  -2.596231e+05
  -2.721271e+05  -7.555901e+05
   7.710610e+05  -7.521073e+04
   7.423335e+05   1.013429e+06
  -5.361841e+05   1.406405e+06
  -1.957034e+06   5.717201e+05
  -2.015740e+06  -9.863570e+05
  -4.221223e+05  -2.022546e+06
   1.369584e+06  -1.641878e+06
   1.685274e+06  -2.493428e+05
   5.170457e+05   8.382681e+05
  -6.257425e+05   8.062169e+05
  -6.284470e+05   8.713866e+04
   1.017002e+05  -3.727260e+05
   4.907108e+05  -2.313785e+05
   1.472393e+05   6.681402e+04
  -4.284651e+05  -4.257567e+04
  -5.305308e+05  -6.293444e+05
   1.633409e+05  -1.165227e+06
   1.330346e+06  -9.119763e+05
   2.049754e+06   3.570463e+05
   1.478778e+06   1.871428e+06
  -1.589633e+05   2.381450e+06
  -1.554664e+06   1.431404e+06
  -1.670685e+06  -7.831372e+04
  -8.766392e+05  -8.710433e+05
  -3.293133e+05  -6.579693e+05
  -4.581531e+05  -2.196121e+05
  -6.056141e+05  -2.859709e+05
  -1.046084e+05  -7.359023e+05
   8.333492e+05  -9.055478e+05
   1.415484e+06  -3.592433e+05
   1.056420e+06   6.876037e+05
  -2.054615e+05   1.449811e+06
  -1.665851e+06   1.099360e+06
  -2.220209e+06  -4.213543e+05
  -1.166124e+06  -2.031793e+06
   9.255732e+05  -2.341862e+06
   2.461539e+06  -1.076624e+06
   2.326247e+06   5.820341e+05
   9.847274e+05   1.291953e+06
  -1.722629e+05   9.476638e+05
  -3.818798e+05   5.224971e+05
  -7.962420e+04   7.374065e+05
  -8.120740e+04   1.270876e+06
  -6.245920e+05   1.269279e+06
  -1.254876e+06   3.388796e+05
  -1.333102e+06  -1.030150e+06
  -5.871794e+05  -1.845899e+06
   5.791320e+05  -1.423344e+06
   1.262224e+06  -2.896495e+04
   8.289323e+05   1.234970e+06
  -3.425898e+05   1.377233e+06
  -1.121099e+06   4.349981e+05
  -8.106081e+05  -6.489316e+05
   8.470165e+04  -1.048800e+06
   4.943642e+05  -7.818105e+05
   6.880702e+04  -4.158889e+05
  -4.297515e+05  -3.219524e+05
  -6.590105e+04  -3.754218e+05
   1.116660e+06  -2.341881e+05
   2.023928e+06   2.754245e+05
   1.609578e+06   9.751198e+05
   4.120578e+03   1.402419e+06
  -1.522678e+06   1.152678e+06
  -1.786803e+06   3.198197e+05
  -8.325028e+05  -4.553884e+05
   2.383493e+05  -5.592833e+05
   4.984211e+05  -4.924438e+04
   3.732201e+04   4.056745e+05
  -4.310344e+05   2.616630e+05
  -4.790795e+05  -3.240093e+05
  -2.589329e+05  -7.040620e+05
  -9.945089e+04  -4.674362e+05
  -1.335354e+05   1.004096e+05
  -2.724327e+05   2.982859e+05
  -2.769439e+05  -2.205821e+05
   1.181919e+05  -9.723909e+05
   8.560760e+05  -1.066135e+06
   1.324725e+06  -2.019263e+05
   8.516318e+05   8.757860e+05
  -3.790027e+05   1.122842e+06
  -1.221480e+06   3.572982e+05
  -7.327057e+05  -5.456400e+05
   6.725393e+05  -6.536229e+05
   1.562619e+06   5.522854e+04
   1.012197e+06   8.235807e+05
  -4.490048e+05   9.853926e+05
  -1.461505e+06   5.090112e+05
  -1.217925e+06  -1.571767e+05
  -1.449616e+05  -5.026312e+05
   6.314506e+05  -2.807169e+05
   3.839192e+05   2.786976e+05
  -5.618345e+05   5.264766e+05
  -1.163356e+06  -5.004781e+04
  -6.889322e+05  -1.142338e+06
   5.348665e+05  -1.687102e+06
   1.433947e+06  -9.086962e+05
   1.253458e+06   7.112692e+05
   2.451520e+05   1.754951e+06
  -6.952095e+05   1.289925e+06
  -9.139176e+05  -1.515793e+05
  -4.522067e+05  -1.161325e+06
   1.943832e+05  -9.572801e+05
   5.514192e+05  -9.583728e+04
   4.654116e+05   3.593688e+05
   1.615312e+05   1.307732e+05
   4.662012e+04  -9.427433e+04
   2.868596e+05   2.842821e+05
   5.272573e+05   9.373503e+05
   2.110793e+05   1.055134e+06
  -6.968671e+05   4.063147e+05
  -1.460873e+06  -4.191361e+05
  -1.275506e+06  -7.901486e+05
  -1.994676e+05  -6.828207e+05
   8.232941e+05  -4.346404e+05
   9.611439e+05  -2.030063e+05
   3.603306e+05   4.509241e+04
  -1.350625e+05   2.260567e+05
  -3.612538e+04   1.999853e+05
   2.557755e+05   8.233985e+04
   5.646032e+04   1.288781e+05
  -6.356329e+05   2.532536e+05
  -1.030707e+06   2.136798e+04
  -4.578301e+05  -6.689214e+05
   7.851321e+05  -1.187636e+06
   1.655214e+06  -8.007284e+05
   1.411730e+06   3.766679e+05
   3.160515e+05   1.373201e+06
  -7.159664e+05   1.379409e+06
  -1.016249e+06   5.677096e+05
  -6.501600e+05  -2.032592e+05
  -1.469084e+05  -3.485409e+05
   5.811393e+04  -7.310499e+04
  -8.304838e+04   1.213831e+04
  -3.019685e+05  -3.562692e+05
  -2.632516e+05  -7.881920e+05
   1.531841e+05  -6.761575e+05
   6.715047e+05   8.999738e+04
   7.638611e+05   9.046074e+05
   1.601419e+05   1.011852e+06
  -7.249286e+05   2.796333e+05
  -1.045101e+06  -6.638895e+05
  -3.865408e+05  -1.060884e+06
   6.769929e+05  -6.991169e+05
   1.109035e+06   3.296170e+04
   5.505731e+05   5.934903e+05
  -2.605781e+05   6.881865e+05
  -3.716060e+05   3.776049e+05
   2.318013e+05  -3.083188e+03
   6.345899e+05  -6.172539e+04
   1.585515e+05   3.003632e+05
  -7.903453e+05   6.930079e+05
  -1.232301e+06   5.636474e+05
  -7.682588e+05  -1.587524e+05
   6.504102e+04  -8.633191e+05
   5.257621e+05  -8.660082e+05
   4.253962e+05  -1.829329e+05
   7.528541e+04   4.641442e+05
  -2.180180e+05   4.432165e+05
  -3.501332e+05  -1.214757e+05
  -2.713672e+05  -5.589539e+05
   3.371481e+04  -4.327345e+05
   3.865283e+05   2.541181e+04
   4.820260e+05   2.680766e+05
   2.423290e+05   9.407417e+04
  -4.534571e+04  -1.555854e+05
  -8.400864e+04  -5.913931e+04
   4.021262e+04   3.388737e+05
  -5.633557e+03   5.552099e+05
  -2.974981e+05   2.479977e+05
  -4.797518e+05  -3.417718e+05
  -1.988380e+05  -6.288694e+05
   3.839878e+05  -3.298244e+05
   6.717524e+05   2.426938e+05
   2.764262e+05   5.499238e+05
  -4.902923e+05   3.797220e+05
  -8.787074e+05  -3.684812e+04
  -4.887300e+05  -3.541883e+05
   2.744383e+05  -4.141834e+05
   6.238144e+05  -2.594670e+05
   2.561111e+05  -2.958232e+04
  -3.231265e+05   8.974976e+04
  -3.969325e+05  -3.333907e+04
   1.433020e+05  -2.830775e+05
   7.017360e+05  -2.935616e+05
