
 $NMID
 id='ANONYMOUS ', fmtdat='(2E16.6)'
 volume=1.0
 tramp=1.0
 $END
   3.928152e+07   5.435626e+05
   2.412825e+07   2.241125e+07
  -3.680746e+06   2.576086e+07
  -1.838595e+07   1.225569e+07
  -1.231140e+07  -2.531799e+06
   1.180623e+06  -6.616037e+06
   7.160088e+06  -7.453842e+05
   3.378057e+06   6.549575e+06
  -3.367090e+06   8.035247e+06
  -6.911018e+06   2.630450e+06
  -5.422406e+06  -4.648235e+06
  -6.446972e+05  -6.869380e+06
   3.212020e+06  -1.837339e+06
   2.336783e+06   4.950768e+06
  -2.472165e+06   5.860613e+06
  -5.867598e+06  -3.330856e+05
  -3.719005e+06  -7.357937e+06
   2.378288e+06  -8.788750e+06
   7.280115e+06  -4.258764e+06
   7.602657e+06   1.851482e+06
   4.047241e+06   5.445199e+06
  -4.375827e+04   5.436456e+06
  -1.443344e+06   3.438841e+06
   2.880346e+05   2.157740e+06
   1.932420e+06   3.005945e+06
  -2.155139e+05   4.400641e+06
  -5.399134e+06   3.413645e+06
  -8.301772e+06  -3.348482e+05
  -5.300566e+06  -3.744860e+06
   7.535714e+05  -3.913136e+06
   3.892111e+06  -1.383043e+06
   1.998844e+06   1.107866e+06
  -1.697144e+06   1.695646e+06
  -3.316428e+06   2.314891e+05
  -2.130429e+06  -2.328264e+06
   2.005380e+05  -3.973407e+06
   1.865065e+06  -2.655313e+06
   1.837099e+06   8.918183e+05
   3.774109e+05   2.728042e+06
  -7.114360e+05   4.213832e+05
   2.273331e+05  -2.916524e+06
   2.171998e+06  -2.244958e+06
   2.083674e+06   2.145880e+06
  -1.032754e+06   4.392017e+06
  -4.121542e+06   9.158425e+05
  -3.415097e+06  -4.571427e+06
   1.032417e+06  -5.838688e+06
   5.319206e+06  -1.732244e+06
   5.745381e+06   3.284403e+06
   2.073918e+06   4.854361e+06
  -2.656857e+06   2.662879e+06
  -4.703110e+06  -7.010922e+05
  -2.586428e+06  -2.581679e+06
   1.476701e+06  -1.887675e+06
   3.460063e+06   3.816450e+05
   1.707990e+06   1.846736e+06
  -1.195246e+06   1.068242e+06
  -1.647696e+06  -7.126801e+05
   4.699162e+05  -1.085002e+06
   1.899542e+06   4.207732e+05
   4.012913e+05   1.880512e+06
  -2.537957e+06   1.559753e+06
  -3.769982e+06  -3.476979e+05
  -1.965148e+06  -2.617699e+06
   1.579792e+06  -4.145348e+06
   4.542588e+06  -3.850087e+06
   5.212243e+06  -1.086347e+06
   3.377400e+06   2.881820e+06
   5.361168e+05   5.129739e+06
  -1.188519e+06   4.111570e+06
  -1.075759e+06   1.641043e+06
  -4.749720e+05   5.703238e+05
  -9.575095e+05   1.148101e+06
  -2.271808e+06   1.162579e+06
  -2.793234e+06  -5.694171e+05
  -1.625162e+06  -2.469743e+06
   4.689870e+05  -2.343284e+06
   1.970891e+06  -9.720871e+04
   1.785344e+06   2.295696e+06
  -1.582886e+05   2.866702e+06
  -2.644060e+06   1.217902e+06
  -3.694468e+06  -1.416235e+06
  -2.312349e+06  -3.196395e+06
   2.250135e+05  -3.131235e+06
   1.664916e+06  -1.885316e+06
   1.492440e+06  -9.390261e+05
   1.389863e+06  -8.424068e+05
   2.628434e+06  -6.968559e+05
   4.014739e+06   4.957262e+05
   3.314302e+06   2.462376e+06
   2.082115e+05   3.905609e+06
  -3.090677e+06   3.731686e+06
  -4.119705e+06   1.857495e+06
  -2.484668e+06  -6.929464e+05
   4.978382e+04  -2.250929e+06
   1.300695e+06  -1.719783e+06
   5.112168e+05   1.451379e+05
  -1.128987e+06   1.208864e+06
  -1.740016e+06   3.487191e+05
  -7.307238e+05  -1.098700e+06
   5.911378e+05  -1.086444e+06
   6.061533e+05   3.203040e+05
  -6.851468e+05   9.635780e+05
  -1.731874e+06  -5.047163e+05
  -1.233220e+06  -2.794562e+06
   6.327406e+05  -3.522764e+06
   2.633816e+06  -1.870039e+06
   3.525117e+06   8.382557e+05
   2.710741e+06   2.685102e+06
   6.274994e+05   2.737943e+06
  -1.272881e+06   1.459135e+06
  -1.588484e+06   1.667115e+05
  -4.769274e+05  -4.096659e+04
   3.602161e+05   7.129690e+05
  -3.141996e+05   1.209722e+06
  -1.679573e+06   5.567189e+05
  -1.886222e+06  -6.995980e+05
  -4.515534e+05  -1.246969e+06
   1.080702e+06  -6.053676e+05
   9.761944e+05   4.045390e+05
  -7.155515e+05   6.969176e+05
  -2.253500e+06  -3.596223e+04
  -1.993736e+06  -1.263759e+06
   5.368804e+04  -2.094209e+06
   2.231275e+06  -1.783765e+06
   2.706666e+06  -3.460080e+05
   1.169341e+06   1.140028e+06
  -8.259711e+05   1.343195e+06
  -1.372566e+06   1.627964e+05
  -1.296503e+05  -9.731536e+05
   1.429361e+06  -6.990735e+05
   1.674965e+06   6.703616e+05
   4.634669e+05   1.568954e+06
  -9.348983e+05   1.071333e+06
  -1.244694e+06  -1.354955e+05
  -3.536433e+05  -6.952451e+05
   6.945251e+05  -8.098425e+04
   6.893701e+05   9.901384e+05
  -5.747583e+05   1.360263e+06
  -1.947657e+06   5.007332e+05
  -1.954421e+06  -1.017690e+06
  -3.890558e+05  -1.979691e+06
   1.327372e+06  -1.597268e+06
   1.643026e+06  -2.685329e+05
   5.435781e+05   8.041928e+05
  -5.978232e+05   8.150701e+05
  -6.816312e+05   7.952479e+04
   4.311370e+04  -4.698794e+05
   5.636996e+05  -3.429982e+05
   3.234323e+05   8.189599e+04
  -3.186543e+05   9.837697e+04
  -5.600249e+05  -4.980850e+05
   8.606492e+04  -1.119211e+06
   1.287112e+06  -9.082467e+05
   2.016856e+06   3.570952e+05
   1.432226e+06   1.857459e+06
  -1.839995e+05   2.377249e+06
  -1.561611e+06   1.482766e+06
  -1.730731e+06  -2.458413e+04
  -9.904625e+05  -9.377966e+05
  -3.747815e+05  -8.399111e+05
  -3.631444e+05  -3.473981e+05
  -4.744448e+05  -2.563861e+05
  -7.163569e+04  -6.535972e+05
   7.943430e+05  -9.061147e+05
   1.423475e+06  -4.072186e+05
   1.129227e+06   7.065248e+05
  -1.524525e+05   1.529005e+06
  -1.666815e+06   1.144976e+06
  -2.234579e+06  -4.168967e+05
  -1.191210e+06  -2.000064e+06
   8.504136e+05  -2.294943e+06
   2.374562e+06  -1.100815e+06
   2.336503e+06   4.970457e+05
   1.100941e+06   1.273722e+06
  -9.508243e+04   1.049260e+06
  -4.583939e+05   6.302612e+05
  -2.412832e+05   7.293020e+05
  -1.787154e+05   1.170387e+06
  -6.136788e+05   1.176865e+06
  -1.200892e+06   2.931721e+05
  -1.286394e+06  -1.049352e+06
  -5.469273e+05  -1.844515e+06
   6.059434e+05  -1.405306e+06
   1.260094e+06  -3.421273e+04
   8.304099e+05   1.186214e+06
  -2.824688e+05   1.347254e+06
  -1.023102e+06   4.986794e+05
  -7.738641e+05  -5.185232e+05
   9.270524e+03  -9.549475e+05
   3.796140e+05  -7.753338e+05
   2.081449e+04  -4.553581e+05
  -4.020225e+05  -3.530126e+05
  -4.678257e+04  -3.853480e+05
   1.067287e+06  -2.304180e+05
   1.942826e+06   2.783899e+05
   1.579035e+06   9.455078e+05
   5.500989e+04   1.328260e+06
  -1.439492e+06   1.091528e+06
  -1.739465e+06   3.462317e+05
  -8.386499e+05  -3.613155e+05
   2.082189e+05  -5.023508e+05
   4.650810e+05  -8.047135e+04
  -3.527487e+03   3.466971e+05
  -4.646193e+05   2.385626e+05
  -4.589913e+05  -3.314248e+05
  -1.753899e+05  -7.294545e+05
  -2.377970e+04  -4.759434e+05
  -1.381070e+05   1.488337e+05
  -3.254695e+05   3.593043e+05
  -2.849692e+05  -2.134616e+05
   1.653403e+05  -9.913696e+05
   8.623391e+05  -1.031281e+06
   1.235588e+06  -1.250398e+05
   7.463755e+05   8.917687e+05
  -3.988026e+05   1.040009e+06
  -1.174082e+06   2.611250e+05
  -7.095740e+05  -5.776817e+05
   6.569084e+05  -6.531043e+05
   1.581382e+06   3.210456e+04
   1.091793e+06   8.046386e+05
  -3.820966e+05   1.029295e+06
  -1.471865e+06   5.928561e+05
  -1.272287e+06  -1.122488e+05
  -1.774459e+05  -5.166124e+05
   6.202276e+05  -3.057168e+05
   3.519721e+05   2.612089e+05
  -6.048487e+05   4.814213e+05
  -1.153728e+06  -1.251528e+05
  -6.006858e+05  -1.182671e+06
   6.443370e+05  -1.647850e+06
   1.487258e+06  -8.314876e+05
   1.235419e+06   7.611606e+05
   2.038177e+05   1.774970e+06
  -7.157289e+05   1.316698e+06
  -9.214988e+05  -1.192295e+05
  -4.814642e+05  -1.158660e+06
   1.450270e+05  -9.852342e+05
   5.322349e+05  -1.120728e+05
   5.062527e+05   3.746995e+05
   2.115084e+05   1.462050e+05
   2.745416e+04  -1.080351e+05
   2.062236e+05   2.594667e+05
   4.825691e+05   9.336582e+05
   2.558085e+05   1.066466e+06
  -6.325579e+05   4.008681e+05
  -1.465196e+06  -4.463051e+05
  -1.321248e+06  -8.089191e+05
  -1.937915e+05  -6.738392e+05
   8.834204e+05  -4.174358e+05
   9.833413e+05  -2.065587e+05
   3.142334e+05   2.417437e+04
  -1.599235e+05   2.195039e+05
   2.266214e+04   2.254276e+05
   3.209912e+05   1.179933e+05
   2.860105e+04   1.357815e+05
  -7.119345e+05   2.187881e+05
  -1.023172e+06  -2.330219e+04
  -3.455240e+05  -6.749239e+05
   8.772300e+05  -1.132053e+06
   1.632184e+06  -7.077122e+05
   1.322642e+06   4.539824e+05
   2.558498e+05   1.392057e+06
  -7.342279e+05   1.336029e+06
  -1.030768e+06   4.965428e+05
  -6.554762e+05  -2.550196e+05
  -1.097067e+05  -3.525267e+05
   1.179796e+05  -3.747662e+04
  -5.947594e+04   5.188224e+04
  -3.206670e+05  -3.418905e+05
  -2.680095e+05  -7.912497e+05
   1.847724e+05  -6.578900e+05
   6.831278e+05   1.500346e+05
   7.026678e+05   9.683938e+05
   6.185027e+04   1.012168e+06
  -7.730614e+05   2.014142e+05
  -1.007794e+06  -7.494124e+05
  -3.146841e+05  -1.069154e+06
   7.087777e+05  -6.333756e+05
   1.076495e+06   8.468631e+04
   4.943573e+05   5.686534e+05
  -2.794841e+05   6.231665e+05
  -3.323536e+05   3.493110e+05
   2.879705e+05   2.105923e+04
   6.501429e+05  -3.530227e+04
   1.296104e+05   2.949016e+05
  -8.077741e+05   6.765703e+05
  -1.195267e+06   5.655511e+05
  -7.036818e+05  -1.407887e+05
   9.636434e+04  -8.377128e+05
   5.028058e+05  -8.226218e+05
   3.774229e+05  -1.260723e+05
   3.367169e+04   4.902277e+05
  -2.433239e+05   4.063682e+05
  -3.523475e+05  -1.807779e+05
  -2.461891e+05  -5.682568e+05
   6.335436e+04  -3.862444e+05
   3.842134e+05   5.906279e+04
   4.528389e+05   2.484995e+05
   2.361600e+05   7.007328e+04
  -1.256658e+04  -1.193282e+05
  -7.539201e+04   1.924962e+04
  -3.720753e+04   3.763436e+05
  -1.249950e+05   5.058982e+05
  -3.425388e+05   1.492707e+05
  -4.057626e+05  -4.201996e+05
  -9.039696e+04  -6.478401e+05
   4.207330e+05  -2.938568e+05
   6.312163e+05   2.992136e+05
   2.338770e+05   5.794523e+05
  -4.865543e+05   3.546345e+05
  -8.470270e+05  -8.960385e+04
  -4.612313e+05  -3.712353e+05
   2.897249e+05  -3.665389e+05
   6.202739e+05  -1.914253e+05
   2.174816e+05  -1.035147e+04
  -3.834456e+05   4.241429e+04
  -4.206532e+05  -1.009455e+05
   1.950171e+05  -3.146722e+05
   7.841086e+05  -2.732903e+05
