
 $NMID
 id='ANONYMOUS ', fmtdat='(2E16.6)'
 volume=1.0
 tramp=1.0
 $END
   1.113699e+07  -2.312832e+06
   9.291005e+06   3.340652e+06
   2.106431e+06   7.335772e+06
  -4.156457e+06   6.509691e+06
  -4.790911e+06   1.726453e+06
  -9.461980e+05  -2.290226e+06
   2.546672e+06  -1.838002e+06
   2.548905e+06   1.732092e+06
   4.481970e+03   3.851287e+06
  -2.172524e+06   2.120548e+06
  -2.216409e+06  -1.282670e+06
  -5.563407e+05  -2.565658e+06
   1.080032e+06  -6.120241e+05
   1.151024e+06   2.193408e+06
  -4.375026e+05   2.830953e+06
  -2.100130e+06   6.913457e+05
  -2.000165e+06  -2.135293e+06
  -3.224759e+04  -3.146039e+06
   1.967920e+06  -1.797342e+06
   2.262397e+06   2.981319e+05
   1.083928e+06   1.303903e+06
   1.199809e+05   1.007122e+06
   4.319230e+05   6.343290e+05
   1.338324e+06   1.128805e+06
   1.303908e+06   2.058998e+06
  -3.425993e+05   2.277275e+06
  -2.558828e+06   1.276778e+06
  -3.392191e+06  -3.208613e+05
  -1.883875e+06  -1.398327e+06
   6.917907e+05  -1.255012e+06
   1.872801e+06  -1.030925e+05
   6.150555e+05   1.045795e+06
  -1.509894e+06   1.099482e+06
  -2.166149e+06  -1.366723e+05
  -9.346246e+05  -1.606063e+06
   5.280140e+05  -1.903415e+06
   7.776084e+05  -7.405620e+05
   1.121530e+05   6.331322e+05
  -3.316020e+05   7.207731e+05
  -1.046977e+05  -5.363743e+05
   4.457135e+05  -1.627923e+06
   9.227314e+05  -1.167154e+06
   1.041302e+06   4.797632e+05
   4.811875e+05   1.548456e+06
  -6.244565e+05   8.622951e+05
  -1.246655e+06  -8.356695e+05
  -3.705069e+05  -1.724161e+06
   1.503385e+06  -8.842861e+05
   2.493430e+06   8.380952e+05
   1.382817e+06   1.868334e+06
  -8.928765e+05   1.466170e+06
  -2.220659e+06   1.929289e+05
  -1.546319e+06  -8.413582e+05
   2.050769e+05  -9.474919e+05
   1.288827e+06  -2.712595e+05
   8.852098e+05   4.372798e+05
  -2.842861e+05   4.739089e+05
  -8.381436e+05  -1.701848e+05
  -1.822656e+05  -7.597069e+05
   8.622146e+05  -5.657338e+05
   9.613527e+05   3.008443e+05
  -1.581363e+05   9.397311e+05
  -1.276475e+06   5.931884e+05
  -1.035727e+06  -5.631939e+05
   4.821554e+05  -1.574068e+06
   1.876571e+06  -1.553031e+06
   2.028258e+06  -4.067518e+05
   1.162517e+06   1.108151e+06
   2.650118e+05   1.996724e+06
  -1.217318e+05   1.850091e+06
  -2.372239e+05   1.151060e+06
  -5.095288e+05   6.653777e+05
  -9.961252e+05   5.320180e+05
  -1.382124e+06   1.937215e+05
  -1.285270e+06  -6.671713e+05
  -5.600884e+05  -1.442295e+06
   4.922093e+05  -1.212320e+06
   1.186392e+06   4.642449e+04
   9.440832e+05   1.262800e+06
  -1.223040e+05   1.385190e+06
  -1.192762e+06   4.353750e+05
  -1.446925e+06  -6.782869e+05
  -8.158323e+05  -1.169173e+06
   1.929088e+04  -9.946801e+05
   3.883118e+05  -6.310453e+05
   3.361921e+05  -4.937520e+05
   4.871121e+05  -5.839488e+05
   1.184871e+06  -5.356318e+05
   1.890956e+06   2.036768e+04
   1.649235e+06   1.019398e+06
   2.213018e+05   1.856632e+06
  -1.425185e+06   1.838944e+06
  -1.980728e+06   8.515691e+05
  -1.126598e+06  -4.345424e+05
   1.695084e+05  -1.090478e+06
   7.048109e+05  -7.376942e+05
   2.149241e+05   1.156090e+05
  -5.583436e+05   5.610866e+05
  -7.744996e+05   1.937739e+05
  -2.958948e+05  -4.591104e+05
   3.174717e+05  -5.262985e+05
   4.100067e+05   1.433744e+05
  -1.734115e+05   6.854453e+05
  -9.249707e+05   1.916941e+05
  -1.058524e+06  -1.115362e+06
  -2.055499e+05  -1.974946e+06
   1.148370e+06  -1.438329e+06
   1.981900e+06   9.523505e+04
   1.631164e+06   1.340382e+06
   4.197792e+05   1.458658e+06
  -6.367313e+05   7.395134e+05
  -7.905346e+05   6.895831e+04
  -2.317893e+05  -9.705046e+03
   1.961838e+05   3.320670e+05
  -6.974333e+04   5.549685e+05
  -7.097507e+05   3.224987e+05
  -9.032816e+05  -2.042300e+05
  -3.030510e+05  -5.381792e+05
   4.896110e+05  -3.489431e+05
   5.482694e+05   1.759348e+05
  -3.048117e+05   4.731023e+05
  -1.211632e+06   1.518955e+05
  -1.162848e+06  -5.960077e+05
  -8.555699e+04  -1.145829e+06
   1.073454e+06  -1.003208e+06
   1.326199e+06  -2.568183e+05
   5.934366e+05   4.810677e+05
  -3.219167e+05   6.115422e+05
  -5.797816e+05   1.131197e+05
  -5.516067e+04  -4.163388e+05
   6.532948e+05  -3.609550e+05
   8.406164e+05   2.468273e+05
   3.338478e+05   7.535528e+05
  -3.832387e+05   6.244930e+05
  -6.455545e+05   4.678188e+04
  -2.587114e+05  -3.130033e+05
   2.945821e+05  -7.974699e+04
   3.412599e+05   4.444392e+05
  -2.598585e+05   6.525681e+05
  -9.283958e+05   2.610345e+05
  -9.508021e+05  -4.541634e+05
  -2.373601e+05  -9.340541e+05
   5.746915e+05  -8.086877e+05
   7.821035e+05  -2.007333e+05
   3.154812e+05   3.663314e+05
  -2.568579e+05   4.316516e+05
  -3.670283e+05   4.260598e+04
  -8.734677e+03  -3.077612e+05
   3.387838e+05  -2.413790e+05
   2.708606e+05   7.773594e+04
  -1.147915e+05   1.702698e+05
  -3.376536e+05  -1.531793e+05
  -4.840731e+04  -5.431803e+05
   5.822701e+05  -4.931818e+05
   9.871423e+05   1.115858e+05
   7.354604e+05   8.588994e+05
  -3.755812e+04   1.173128e+06
  -7.448824e+05   8.091687e+05
  -9.058002e+05   5.895209e+04
  -5.745729e+05  -5.012395e+05
  -1.999736e+05  -5.289187e+05
  -1.027841e+05  -2.220100e+05
  -1.655085e+05  -6.677143e+04
  -5.095307e+04  -2.621474e+05
   3.419464e+05  -4.796689e+05
   7.072979e+05  -2.714124e+05
   6.210617e+05   3.438062e+05
  -1.420156e+04   8.217977e+05
  -8.014994e+05   6.431866e+05
  -1.127345e+06  -1.419113e+05
  -6.693518e+05  -9.402844e+05
   2.973008e+05  -1.145869e+06
   1.093038e+06  -6.463478e+05
   1.194274e+06   1.271877e+05
   6.583305e+05   6.112783e+05
   1.052245e+04   6.021024e+05
  -2.795444e+05   3.769101e+05
  -1.987502e+05   3.285542e+05
  -9.521101e+04   5.000108e+05
  -2.433788e+05   5.436168e+05
  -5.418436e+05   1.620110e+05
  -6.329147e+05  -4.843469e+05
  -2.984192e+05  -8.872886e+05
   2.724915e+05  -6.954868e+05
   6.221119e+05  -5.687044e+04
   4.560767e+05   5.324190e+05
  -5.670780e+04   6.682376e+05
  -4.432682e+05   3.369276e+05
  -4.019838e+05  -1.441181e+05
  -9.030095e+04  -4.292491e+05
   9.167317e+04  -4.145486e+05
  -2.473106e+04  -2.608345e+05
  -1.849518e+05  -1.766741e+05
  -2.015714e+04  -1.914051e+05
   4.892132e+05  -1.528018e+05
   9.171446e+05   6.640333e+04
   7.952395e+05   3.970745e+05
   1.131928e+05   6.194260e+05
  -6.152253e+05   5.602978e+05
  -8.261110e+05   2.478795e+05
  -4.489254e+05  -9.656815e+04
   5.747205e+04  -2.248783e+05
   2.132347e+05  -7.996381e+04
  -5.034923e+03   1.256113e+05
  -2.391133e+05   1.096190e+05
  -2.222238e+05  -1.510817e+05
  -4.965759e+04  -3.540111e+05
   2.411153e+04  -2.240672e+05
  -7.705658e+04   1.072145e+05
  -1.969916e+05   2.145182e+05
  -1.538299e+05  -9.443176e+04
   8.679089e+04  -4.971303e+05
   3.933519e+05  -5.117621e+05
   5.351092e+05  -6.788623e+04
   3.251156e+05   4.074007e+05
  -1.622608e+05   4.694549e+05
  -5.229089e+05   1.123162e+05
  -3.461845e+05  -2.805797e+05
   2.960864e+05  -3.448651e+05
   7.997080e+05  -4.028418e+04
   6.173687e+05   3.713357e+05
  -1.263431e+05   5.618750e+05
  -7.351134e+05   3.863237e+05
  -6.763031e+05  -2.009575e+03
  -1.201752e+05  -2.660982e+05
   2.962182e+05  -1.871917e+05
   1.651770e+05   1.013382e+05
  -3.029539e+05   2.180509e+05
  -5.523333e+05  -7.405574e+04
  -2.669324e+05  -5.744680e+05
   3.320393e+05  -7.856182e+05
   7.289262e+05  -3.940198e+05
   6.109404e+05   3.685541e+05
   1.215642e+05   8.758471e+05
  -3.346840e+05   6.843563e+05
  -4.708275e+05  -1.362263e+04
  -2.905298e+05  -5.637296e+05
   1.815039e+04  -5.196094e+05
   2.513949e+05  -8.509924e+04
   2.837418e+05   1.890853e+05
   1.371029e+05   8.658033e+04
   1.308791e+03  -6.693716e+04
   6.386217e+04   8.969120e+04
   2.381152e+05   4.361350e+05
   1.829832e+05   5.367400e+05
  -2.596206e+05   2.266331e+05
  -7.344716e+05  -1.966462e+05
  -7.016255e+05  -3.835774e+05
  -1.135869e+05  -3.208093e+05
   4.591740e+05  -2.082956e+05
   4.951555e+05  -1.280128e+05
   1.314574e+05  -2.005980e+04
  -8.709421e+04   1.037364e+05
   4.939861e+04   1.392969e+05
   1.957985e+05   8.540830e+04
  -9.319383e+02   6.482386e+04
  -3.866622e+05   9.084066e+04
  -4.925484e+05  -8.659912e+03
  -1.182089e+05  -3.038872e+05
   4.476382e+05  -5.305784e+05
   7.526745e+05  -3.431893e+05
   5.946497e+05   2.163645e+05
   1.246468e+05   6.802682e+05
  -3.269979e+05   6.507160e+05
  -4.896179e+05   2.273360e+05
  -3.239778e+05  -1.410311e+05
  -4.012955e+04  -1.658713e+05
   8.749974e+04   1.319724e+04
  -2.146533e+04   5.744448e+04
  -1.833038e+05  -1.547641e+05
  -1.576900e+05  -3.866181e+05
   8.855309e+04  -3.125292e+05
   3.368535e+05   9.490386e+04
   3.232910e+05   4.860647e+05
  -2.384306e+03   4.782233e+05
  -3.903588e+05   6.230636e+04
  -4.783500e+05  -3.877074e+05
  -1.393274e+05  -5.097257e+05
   3.384413e+05  -2.854622e+05
   5.033925e+05   3.662227e+04
   2.307061e+05   2.394575e+05
  -1.184396e+05   2.712794e+05
  -1.236080e+05   1.728318e+05
   1.733123e+05   2.925009e+04
   3.247458e+05  -1.623238e+04
   5.549982e+04   1.325362e+05
  -3.875642e+05   3.438053e+05
  -5.519428e+05   3.231504e+05
  -3.151481e+05  -2.437614e+04
   3.790153e+04  -3.943031e+05
   2.013362e+05  -3.988208e+05
   1.407247e+05  -4.752112e+04
  -1.010558e+03   2.491180e+05
  -1.167927e+05   1.793861e+05
  -1.682962e+05  -1.171367e+05
  -1.202667e+05  -2.744997e+05
   2.906357e+04  -1.572508e+05
   1.831388e+05   3.889933e+04
   2.168528e+05   9.135049e+04
   1.200042e+05   1.141221e+04
   3.343128e+03  -2.885159e+04
  -4.790604e+04   6.296007e+04
  -6.435083e+04   1.944422e+05
  -1.121121e+05   1.974110e+05
  -1.726104e+05   1.185837e+04
  -1.494826e+05  -2.299446e+05
   9.067974e+03  -3.067994e+05
   2.151847e+05  -1.269774e+05
   2.832640e+05   1.568754e+05
   9.926708e+04   2.894715e+05
  -2.227619e+05   1.743787e+05
  -3.903572e+05  -4.650304e+04
  -2.178475e+05  -1.752690e+05
   1.323067e+05  -1.563284e+05
   2.846261e+05  -7.033933e+04
   7.880598e+04  -7.423904e+03
  -2.164666e+05  -1.064340e+04
  -2.115901e+05  -8.551450e+04
   1.267325e+05  -1.702195e+05
   4.276217e+05  -1.274784e+05
