
 $NMID
 id='ANONYMOUS ', fmtdat='(2E16.6)'
 volume=1.0
 tramp=1.0
 $END
   5.439524e+07  -6.468568e+04
   3.276369e+07   3.353645e+07
  -7.070952e+06   3.676273e+07
  -2.655137e+07   1.426952e+07
  -1.593028e+07  -6.624083e+06
   3.126726e+06  -9.004990e+06
   9.486603e+06   1.085844e+06
   2.762536e+06   9.397736e+06
  -5.906430e+06   9.085699e+06
  -9.306361e+06   2.004282e+06
  -6.793038e+06  -5.982665e+06
  -8.190034e+05  -8.342694e+06
   3.869519e+06  -2.659780e+06
   2.589503e+06   5.294290e+06
  -3.600508e+06   6.385810e+06
  -7.613412e+06  -1.245121e+06
  -4.339355e+06  -9.848764e+06
   3.610573e+06  -1.141964e+07
   9.753557e+06  -5.732220e+06
   1.044980e+07   1.976041e+06
   6.389449e+06   7.232718e+06
   6.581928e+05   8.331798e+06
  -2.783172e+06   5.811931e+06
  -1.712149e+06   2.599404e+06
   1.144845e+06   2.132381e+06
   2.586075e+05   4.103528e+06
  -5.275446e+06   4.295973e+06
  -9.409496e+06   4.937498e+05
  -6.843613e+06  -4.004230e+06
  -2.192362e+05  -4.919011e+06
   3.650450e+06  -2.493080e+06
   2.418539e+06   2.719042e+04
  -6.283947e+05   9.752106e+05
  -2.283861e+06   4.990165e+05
  -2.171572e+06  -1.431820e+06
  -6.656430e+05  -3.862688e+06
   1.759206e+06  -3.733728e+06
   3.113370e+06   1.358424e+05
   1.625928e+06   3.526571e+06
  -7.644949e+05   1.818955e+06
  -3.313439e+05  -2.437178e+06
   2.384270e+06  -2.268842e+06
   2.388680e+06   3.070500e+06
  -2.296399e+06   5.925817e+06
  -6.669048e+06   9.968994e+05
  -4.946963e+06  -6.665819e+06
   1.813799e+06  -8.229124e+06
   7.172468e+06  -2.354678e+06
   6.769760e+06   4.281638e+06
   1.842331e+06   5.846805e+06
  -3.356447e+06   2.668663e+06
  -5.133648e+06  -1.435051e+06
  -2.397167e+06  -3.363687e+06
   2.315825e+06  -2.143453e+06
   4.387969e+06   8.663554e+05
   1.906414e+06   2.618127e+06
  -1.655335e+06   1.333003e+06
  -1.706052e+06  -9.845076e+05
   1.246787e+06  -9.099464e+05
   2.398303e+06   1.643209e+06
  -5.465171e+05   3.288093e+06
  -4.423984e+06   1.853890e+06
  -5.120459e+06  -1.263606e+06
  -2.264349e+06  -3.822709e+06
   1.741971e+06  -5.117987e+06
   4.878233e+06  -4.726513e+06
   6.028907e+06  -1.704478e+06
   4.451549e+06   3.074379e+06
   9.289941e+05   6.007623e+06
  -1.774717e+06   4.655817e+06
  -1.686158e+06   1.226016e+06
  -1.721235e+05  -1.991960e+05
  -1.824054e+04   9.830932e+05
  -1.610901e+06   1.744051e+06
  -2.777007e+06   2.090631e+05
  -1.994270e+06  -1.924172e+06
  -1.359667e+04  -2.131768e+06
   1.555383e+06  -2.110977e+05
   1.675984e+06   2.048828e+06
   1.087961e+04   2.892160e+06
  -2.714575e+06   1.621957e+06
  -4.371440e+06  -1.166772e+06
  -3.139229e+06  -3.661965e+06
   3.307285e+04  -4.105882e+06
   2.201540e+06  -2.638575e+06
   2.155480e+06  -1.115297e+06
   1.779032e+06  -6.871059e+05
   2.882424e+06  -4.957481e+05
   4.276100e+06   7.203798e+05
   3.442645e+06   2.701624e+06
   1.486476e+05   4.064666e+06
  -3.146445e+06   3.858770e+06
  -4.114297e+06   2.102040e+06
  -2.622127e+06  -4.177512e+05
  -2.685219e+05  -2.212031e+06
   1.089976e+06  -1.909738e+06
   5.564273e+05   3.824552e+04
  -1.073340e+06   1.296487e+06
  -1.878401e+06   3.991156e+05
  -9.082233e+05  -1.185652e+06
   5.108689e+05  -1.104381e+06
   4.321866e+05   3.797497e+05
  -1.034819e+06   7.014914e+05
  -1.829688e+06  -1.235964e+06
  -6.686598e+05  -3.411962e+06
   1.522844e+06  -3.373468e+06
   3.074288e+06  -1.135006e+06
   3.277648e+06   1.392229e+06
   2.272784e+06   2.714453e+06
   4.644369e+05   2.582254e+06
  -1.223252e+06   1.453404e+06
  -1.561794e+06   2.299290e+05
  -4.877282e+05  -4.371657e+04
   3.571282e+05   7.431517e+05
  -4.045201e+05   1.326565e+06
  -1.883883e+06   5.770749e+05
  -2.013613e+06  -8.713079e+05
  -3.853347e+05  -1.399640e+06
   1.158599e+06  -5.692011e+05
   8.830083e+05   4.477992e+05
  -8.370062e+05   5.185065e+05
  -2.159250e+06  -3.078628e+05
  -1.732712e+06  -1.335975e+06
   2.383153e+05  -1.952009e+06
   2.280182e+06  -1.645325e+06
   2.746085e+06  -2.788823e+05
   1.208445e+06   1.250254e+06
  -9.073813e+05   1.489858e+06
  -1.545115e+06   1.909778e+05
  -2.014960e+05  -1.071025e+06
   1.501717e+06  -7.343736e+05
   1.704687e+06   7.709186e+05
   3.372637e+05   1.636324e+06
  -1.080140e+06   9.686611e+05
  -1.245434e+06  -3.080175e+05
  -2.433703e+05  -7.741947e+05
   7.907653e+05  -5.532884e+04
   7.340288e+05   1.043585e+06
  -5.667571e+05   1.415360e+06
  -1.990313e+06   5.453756e+05
  -2.023098e+06  -1.035439e+06
  -3.863648e+05  -2.057419e+06
   1.425084e+06  -1.632909e+06
   1.711774e+06  -2.113495e+05
   4.987084e+05   8.608456e+05
  -6.520474e+05   7.974933e+05
  -6.270692e+05   7.811843e+04
   1.166182e+05  -3.551764e+05
   4.837573e+05  -2.067930e+05
   1.184551e+05   6.183043e+04
  -4.444711e+05  -7.949070e+04
  -5.120328e+05  -6.671158e+05
   2.045127e+05  -1.176810e+06
   1.369132e+06  -8.901805e+05
   2.065402e+06   4.057195e+05
   1.458487e+06   1.923773e+06
  -2.075892e+05   2.400774e+06
  -1.596111e+06   1.402824e+06
  -1.672326e+06  -1.212995e+05
  -8.500876e+05  -8.828020e+05
  -3.176331e+05  -6.400481e+05
  -4.775770e+05  -2.144470e+05
  -6.248478e+05  -3.114349e+05
  -9.166170e+04  -7.595655e+05
   8.671045e+05  -8.941247e+05
   1.433141e+06  -3.239037e+05
   1.039753e+06   7.114093e+05
  -2.447050e+05   1.443616e+06
  -1.702787e+06   1.065493e+06
  -2.228215e+06  -4.733623e+05
  -1.127307e+06  -2.078930e+06
   9.979735e+05  -2.347212e+06
   2.519460e+06  -1.026071e+06
   2.329477e+06   6.503686e+05
   9.463041e+05   1.323046e+06
  -2.028183e+05   9.330125e+05
  -3.801481e+05   5.043075e+05
  -7.032450e+04   7.495386e+05
  -9.711541e+04   1.300312e+06
  -6.625121e+05   1.281698e+06
  -1.283647e+06   3.203372e+05
  -1.331003e+06  -1.066473e+06
  -5.591974e+05  -1.876448e+06
   6.110371e+05  -1.427345e+06
   1.273973e+06  -1.245397e+03
   8.075662e+05   1.271406e+06
  -3.860182e+05   1.384568e+06
  -1.153703e+06   4.007318e+05
  -8.047567e+05  -6.945863e+05
   1.237833e+05  -1.068519e+06
   5.342947e+05  -7.746699e+05
   8.449625e+04  -4.098826e+05
  -4.323519e+05  -3.302882e+05
  -6.176612e+04  -3.794649e+05
   1.139869e+06  -2.108511e+05
   2.049154e+06   3.242701e+05
   1.606535e+06   1.024341e+06
  -3.711741e+04   1.424720e+06
  -1.576630e+06   1.136695e+06
  -1.816008e+06   2.782708e+05
  -8.254151e+05  -4.921389e+05
   2.595920e+05  -5.671499e+05
   5.081246e+05  -3.258897e+04
   3.318362e+04   4.214112e+05
  -4.361563e+05   2.599438e+05
  -4.800691e+05  -3.368397e+05
  -2.606132e+05  -7.152135e+05
  -1.028770e+05  -4.753485e+05
  -1.343987e+05   9.077337e+04
  -2.703823e+05   2.870685e+05
  -2.728573e+05  -2.296544e+05
   1.321722e+05  -9.773044e+05
   8.871389e+05  -1.062750e+06
   1.358137e+06  -1.838253e+05
   8.578164e+05   9.034983e+05
  -4.066542e+05   1.138728e+06
  -1.251498e+06   3.478016e+05
  -7.325260e+05  -5.620350e+05
   6.951554e+05  -6.445163e+05
   1.571503e+06   9.230272e+04
   9.899387e+05   8.526971e+05
  -4.833392e+05   9.748794e+05
  -1.480541e+06   4.689757e+05
  -1.214804e+06  -1.899171e+05
  -1.307486e+05  -5.066629e+05
   6.438126e+05  -2.651504e+05
   3.857018e+05   2.934103e+05
  -5.729327e+05   5.279145e+05
  -1.177008e+06  -6.378090e+04
  -6.862860e+05  -1.164218e+06
   5.597421e+05  -1.701263e+06
   1.460697e+06  -9.005831e+05
   1.254281e+06   7.371895e+05
   2.171131e+05   1.774290e+06
  -7.247612e+05   1.282966e+06
  -9.162597e+05  -1.775201e+05
  -4.263682e+05  -1.180602e+06
   2.235613e+05  -9.550045e+05
   5.607558e+05  -8.134637e+04
   4.557508e+05   3.684532e+05
   1.526536e+05   1.308602e+05
   5.155867e+04  -9.115672e+04
   2.952662e+05   3.001660e+05
   5.188601e+05   9.593131e+05
   1.835872e+05   1.065357e+06
  -7.223214e+05   3.932608e+05
  -1.465236e+06  -4.496552e+05
  -1.263239e+06  -8.197202e+05
  -1.870816e+05  -6.948864e+05
   8.309851e+05  -4.260054e+05
   9.703266e+05  -1.844518e+05
   3.691660e+05   5.848265e+04
  -1.373261e+05   2.272585e+05
  -4.918888e+04   1.945991e+05
   2.471068e+05   8.025143e+04
   5.885636e+04   1.312035e+05
  -6.358021e+05   2.503830e+05
  -1.043249e+06   6.280350e+03
  -4.658367e+05  -6.882110e+05
   8.049681e+05  -1.193949e+06
   1.694537e+06  -7.863428e+05
   1.433644e+06   4.014791e+05
   2.997858e+05   1.391579e+06
  -7.508232e+05   1.383942e+06
  -1.037986e+06   5.628603e+05
  -6.526932e+05  -2.105252e+05
  -1.467993e+05  -3.555963e+05
   5.197969e+04  -8.060568e+04
  -8.626209e+04   3.094506e+03
  -2.933517e+05  -3.674862e+05
  -2.479616e+05  -8.000766e+05
   1.646637e+05  -6.829903e+05
   6.759682e+05   9.506625e+04
   7.635975e+05   9.211378e+05
   1.557229e+05   1.028129e+06
  -7.327249e+05   2.811110e+05
  -1.049575e+06  -6.799269e+05
  -3.790913e+05  -1.080171e+06
   6.955647e+05  -7.026396e+05
   1.125475e+06   5.009830e+04
   5.506970e+05   6.168554e+05
  -2.772863e+05   6.998626e+05
  -3.904396e+05   3.758733e+05
   2.259095e+05  -4.290280e+03
   6.401239e+05  -5.348142e+04
   1.579404e+05   3.085072e+05
  -8.100897e+05   6.855269e+05
  -1.261218e+06   5.403764e+05
  -7.813585e+05  -1.821546e+05
   8.012636e+04  -8.749725e+05
   5.544848e+05  -8.684682e+05
   4.431459e+05  -1.826340e+05
   7.373714e+04   4.673735e+05
  -2.269091e+05   4.494242e+05
  -3.526786e+05  -1.204446e+05
  -2.661907e+05  -5.692669e+05
   4.041424e+04  -4.445384e+05
   3.911358e+05   2.859954e+04
   4.844595e+05   2.851274e+05
   2.424988e+05   1.042345e+05
  -4.621689e+04  -1.650903e+05
  -8.171098e+04  -7.444764e+04
   4.728340e+04   3.398189e+05
  -3.527163e+02   5.727804e+05
  -3.021908e+05   2.615509e+05
  -4.917655e+05  -3.454519e+05
  -2.053317e+05  -6.400464e+05
   3.900232e+05  -3.317740e+05
   6.813065e+05   2.518282e+05
   2.750856e+05   5.577061e+05
  -5.044282e+05   3.764301e+05
  -8.929314e+05  -4.884357e+04
  -4.905683e+05  -3.661846e+05
   2.852095e+05  -4.202562e+05
   6.382251e+05  -2.592168e+05
   2.660491e+05  -2.590572e+04
  -3.200667e+05   9.368502e+04
  -3.986372e+05  -3.027062e+04
   1.410138e+05  -2.794909e+05
   7.017861e+05  -2.876940e+05
