
 $NMID
 id='ANONYMOUS ', fmtdat='(2E16.6)'
 volume=1.0
 tramp=1.0
 $END
   2.547042e+07   1.072564e+06
   1.668196e+07   1.202615e+07
  -1.964186e+05   1.586378e+07
  -1.109718e+07   1.089286e+07
  -9.481381e+06   1.446784e+06
  -7.522894e+05  -4.628042e+06
   5.318143e+06  -2.622598e+06
   4.206206e+06   4.119003e+06
  -1.112685e+06   7.452293e+06
  -4.930793e+06   3.374676e+06
  -4.224418e+06  -3.549846e+06
  -3.897619e+05  -5.671530e+06
   2.666801e+06  -1.026497e+06
   2.034248e+06   4.876366e+06
  -1.590211e+06   5.603953e+06
  -4.421400e+06   5.460865e+05
  -3.229985e+06  -5.206745e+06
   1.278530e+06  -6.519385e+06
   5.074844e+06  -2.921007e+06
   4.967061e+06   1.793259e+06
   1.813275e+06   3.763465e+06
  -6.642989e+05   2.642251e+06
  -2.204369e+04   1.251257e+06
   2.303675e+06   2.016542e+06
   2.615389e+06   4.176886e+06
  -9.012256e+05   4.834399e+06
  -5.791138e+06   2.448506e+06
  -7.431484e+06  -1.386266e+06
  -3.844807e+06  -3.679622e+06
   1.818811e+06  -2.930587e+06
   4.244391e+06  -1.439191e+05
   1.505734e+06   2.287857e+06
  -2.997094e+06   2.330040e+06
  -4.492150e+06  -2.619035e+05
  -1.998086e+06  -3.418223e+06
   1.254752e+06  -4.159457e+06
   2.041687e+06  -1.587432e+06
   5.031324e+05   1.639204e+06
  -8.981350e+05   1.916729e+06
  -5.584273e+05  -1.006237e+06
   9.645334e+05  -3.463814e+06
   2.129095e+06  -2.257498e+06
   1.878560e+06   1.342024e+06
   2.085421e+05   3.110445e+06
  -1.726144e+06   9.850629e+05
  -2.048959e+06  -2.598603e+06
   2.461397e+05  -3.694169e+06
   3.656101e+06  -1.167903e+06
   4.929136e+06   2.513697e+06
   2.322116e+06   4.151090e+06
  -2.156436e+06   2.745908e+06
  -4.516855e+06  -1.127160e+05
  -2.875082e+06  -2.012875e+06
   7.302063e+05  -1.742645e+06
   2.700722e+06  -6.397841e+04
   1.590955e+06   1.184893e+06
  -7.906448e+05   8.493980e+05
  -1.661546e+06  -5.221796e+05
  -2.430113e+05  -1.375222e+06
   1.585396e+06  -7.889047e+05
   1.462575e+06   6.410342e+05
  -7.506038e+05   1.429450e+06
  -2.636553e+06   5.712533e+05
  -1.771791e+06  -1.542953e+06
   1.535198e+06  -3.287560e+06
   4.446283e+06  -2.985331e+06
   4.577882e+06  -3.929083e+05
   2.338831e+06   2.822791e+06
   5.810718e+04   4.433556e+06
  -7.394144e+05   3.749317e+06
  -6.048857e+05   2.156424e+06
  -9.051839e+05   1.327991e+06
  -2.014463e+06   1.231375e+06
  -3.024326e+06   4.674228e+05
  -2.827469e+06  -1.491706e+06
  -1.170993e+06  -3.154001e+06
   1.089977e+06  -2.593104e+06
   2.471915e+06   1.303079e+05
   1.863619e+06   2.723908e+06
  -4.413151e+05   2.941064e+06
  -2.689276e+06   7.675793e+05
  -3.083953e+06  -1.798468e+06
  -1.497094e+06  -2.858822e+06
   4.461970e+05  -2.242776e+06
   1.180882e+06  -1.190776e+06
   8.963714e+05  -8.118496e+05
   1.099354e+06  -1.025207e+06
   2.527937e+06  -8.608139e+05
   3.924048e+06   4.092393e+05
   3.258180e+06   2.433088e+06
   1.497851e+05   3.924213e+06
  -3.290617e+06   3.652709e+06
  -4.344996e+06   1.534079e+06
  -2.397255e+06  -1.081356e+06
   4.637704e+05  -2.352541e+06
   1.616263e+06  -1.530038e+06
   4.717415e+05   2.748614e+05
  -1.269797e+06   1.124568e+06
  -1.682255e+06   2.626602e+05
  -5.499893e+05  -1.066494e+06
   7.375101e+05  -1.085810e+06
   8.052375e+05   3.135340e+05
  -4.201479e+05   1.284117e+06
  -1.763709e+06   1.667444e+05
  -1.822540e+06  -2.388479e+06
  -1.017862e+05  -3.895099e+06
   2.442887e+06  -2.647813e+06
   3.954317e+06   4.660960e+05
   3.176418e+06   2.916535e+06
   7.028100e+05   3.054015e+06
  -1.432775e+06   1.474621e+06
  -1.683559e+06   4.721562e+04
  -4.851249e+05  -5.682221e+04
   3.559724e+05   7.263835e+05
  -2.677397e+05   1.140608e+06
  -1.561924e+06   5.194858e+05
  -1.830073e+06  -6.110036e+05
  -5.090448e+05  -1.169242e+06
   1.073804e+06  -6.376882e+05
   1.103673e+06   4.227375e+05
  -6.653212e+05   8.950939e+05
  -2.472300e+06   1.474235e+05
  -2.306095e+06  -1.344522e+06
  -4.039633e+04  -2.345990e+06
   2.357228e+06  -1.923871e+06
   2.802390e+06  -3.329318e+05
   1.148961e+06   1.116242e+06
  -8.131092e+05   1.229518e+06
  -1.259125e+06   1.081194e+05
  -3.651413e+04  -9.128734e+05
   1.439130e+06  -6.481555e+05
   1.702517e+06   6.554041e+05
   5.612416e+05   1.598296e+06
  -8.774612e+05   1.203184e+06
  -1.311066e+06  -1.104900e+04
  -4.647215e+05  -6.696237e+05
   6.313445e+05  -9.612334e+04
   6.427022e+05   9.977809e+05
  -6.511587e+05   1.339792e+06
  -2.000629e+06   4.092330e+05
  -1.931986e+06  -1.108021e+06
  -3.432798e+05  -1.999820e+06
   1.340201e+06  -1.590390e+06
   1.659729e+06  -2.843719e+05
   5.892356e+05   8.064192e+05
  -6.002267e+05   8.522634e+05
  -7.703805e+05   5.386708e+04
  -1.764425e+03  -6.132950e+05
   6.956384e+05  -4.681611e+05
   5.415443e+05   1.384353e+05
  -2.251813e+05   2.851158e+05
  -6.313601e+05  -3.721880e+05
   4.359490e+03  -1.116666e+06
   1.293458e+06  -9.259504e+05
   2.044880e+06   3.922772e+05
   1.404463e+06   1.919242e+06
  -2.537046e+05   2.450444e+06
  -1.656783e+06   1.573457e+06
  -1.873655e+06   2.518931e+03
  -1.135376e+06  -1.085999e+06
  -3.967094e+05  -1.100242e+06
  -2.345655e+05  -4.996745e+05
  -3.368011e+05  -2.127665e+05
  -4.059729e+04  -5.732211e+05
   7.887056e+05  -9.343664e+05
   1.497358e+06  -4.574127e+05
   1.242253e+06   7.827049e+05
  -1.304893e+05   1.684799e+06
  -1.751450e+06   1.216529e+06
  -2.326489e+06  -4.604854e+05
  -1.241543e+06  -2.055513e+06
   8.152918e+05  -2.323419e+06
   2.376514e+06  -1.151416e+06
   2.441297e+06   4.490249e+05
   1.264104e+06   1.334934e+06
  -4.007863e+04   1.220775e+06
  -5.945745e+05   7.607322e+05
  -4.514279e+05   7.129084e+05
  -2.997966e+05   1.072420e+06
  -6.228172e+05   1.102317e+06
  -1.175663e+06   2.419936e+05
  -1.258609e+06  -1.119786e+06
  -4.926835e+05  -1.909749e+06
   6.764834e+05  -1.421001e+06
   1.304580e+06  -2.424763e+04
   8.542687e+05   1.182888e+06
  -2.346668e+05   1.367045e+06
  -9.619353e+05   5.960043e+05
  -7.744632e+05  -3.859002e+05
  -8.401451e+04  -8.911062e+05
   2.662416e+05  -8.113045e+05
  -2.177321e+04  -5.274127e+05
  -3.723534e+05  -4.031612e+05
  -1.828166e+04  -4.078230e+05
   1.048990e+06  -2.280166e+05
   1.911039e+06   3.043847e+05
   1.591398e+06   9.608470e+05
   1.127226e+05   1.297886e+06
  -1.396234e+06   1.052879e+06
  -1.755553e+06   3.740810e+05
  -8.885015e+05  -2.752993e+05
   1.763773e+05  -4.550206e+05
   4.488102e+05  -1.201117e+05
  -4.663294e+04   2.808618e+05
  -5.204775e+05   2.062710e+05
  -4.451058e+05  -3.551188e+05
  -6.664942e+04  -7.728045e+05
   7.411771e+04  -4.895037e+05
  -1.594057e+05   2.089714e+05
  -4.164978e+05   4.307217e+05
  -3.029255e+05  -2.175278e+05
   2.447966e+05  -1.037990e+06
   9.084275e+05  -1.013366e+06
   1.160821e+06  -3.715005e+04
   6.319621e+05   9.337003e+05
  -4.360350e+05   9.691029e+05
  -1.145387e+06   1.477564e+05
  -6.930997e+05  -6.424751e+05
   6.710885e+05  -6.692753e+05
   1.664173e+06   3.189507e+04
   1.217758e+06   8.411760e+05
  -3.388251e+05   1.125319e+06
  -1.560927e+06   6.911375e+05
  -1.389482e+06  -9.084459e+04
  -2.126191e+05  -5.603996e+05
   6.382048e+05  -3.398713e+05
   3.262198e+05   2.488048e+05
  -6.762988e+05   4.284991e+05
  -1.168014e+06  -2.338057e+05
  -4.926374e+05  -1.265443e+06
   8.144089e+05  -1.630594e+06
   1.601827e+06  -7.378878e+05
   1.237952e+06   8.624311e+05
   1.325654e+05   1.857730e+06
  -7.897031e+05   1.381778e+06
  -9.678883e+05  -9.942374e+04
  -5.177018e+05  -1.209316e+06
   1.104156e+05  -1.061175e+06
   5.330054e+05  -1.316443e+05
   5.650819e+05   4.211838e+05
   2.739372e+05   1.822111e+05
   9.753683e+03  -1.315299e+05
   1.183547e+05   2.270584e+05
   4.339514e+05   9.614147e+05
   3.010273e+05   1.130411e+06
  -5.832639e+05   4.117442e+05
  -1.511524e+06  -5.165684e+05
  -1.408185e+06  -8.877794e+05
  -1.860077e+05  -6.889119e+05
   9.896290e+05  -3.879601e+05
   1.048711e+06  -2.000287e+05
   2.739819e+05  -4.056087e+03
  -1.973688e+05   2.126375e+05
   8.559631e+04   2.751105e+05
   4.020830e+05   1.813930e+05
  -6.699013e+03   1.440290e+05
  -8.251882e+05   1.611646e+05
  -1.042278e+06  -9.057422e+04
  -2.131281e+05  -6.902915e+05
   1.024511e+06  -1.076650e+06
   1.656048e+06  -6.030361e+05
   1.242783e+06   5.648596e+05
   1.697398e+05   1.456896e+06
  -7.932476e+05   1.318262e+06
  -1.078785e+06   4.120697e+05
  -6.720929e+05  -3.361703e+05
  -6.359149e+04  -3.645224e+05
   1.875266e+05   1.652079e+04
  -4.159337e+04   1.047498e+05
  -3.523573e+05  -3.450074e+05
  -2.715807e+05  -8.280604e+05
   2.350686e+05  -6.513182e+05
   7.083074e+05   2.389368e+05
   6.292128e+05   1.077998e+06
  -6.782289e+04   1.031509e+06
  -8.466270e+05   9.521285e+04
  -9.727545e+05  -8.859102e+05
  -2.233402e+05  -1.108471e+06
   7.689097e+05  -5.615299e+05
   1.065380e+06   1.587252e+05
   4.415649e+05   5.558861e+05
  -3.087227e+05   5.604071e+05
  -2.970788e+05   3.307859e+05
   3.604982e+05   6.533711e+04
   6.875467e+05   7.153641e+03
   9.648846e+04   2.953697e+05
  -8.641920e+05   6.664382e+05
  -1.202411e+06   5.779768e+05
  -6.531701e+05  -1.224082e+05
   1.444472e+05  -8.300009e+05
   4.970948e+05  -7.974327e+05
   3.248215e+05  -6.625687e+04
  -2.671346e+04   5.316511e+05
  -2.811684e+05   3.687137e+05
  -3.539391e+05  -2.635316e+05
  -2.150996e+05  -5.985589e+05
   9.785114e+04  -3.381408e+05
   3.881294e+05   1.064337e+05
   4.343624e+05   2.350810e+05
   2.407335e+05   4.616481e+04
   2.102773e+04  -7.437621e+04
  -8.273447e+04   1.140788e+05
  -1.433728e+05   4.196158e+05
  -2.700527e+05   4.410880e+05
  -3.923214e+05   2.339787e+04
  -3.113002e+05  -5.209305e+05
   4.866839e+04  -6.747634e+05
   4.771710e+05  -2.485638e+05
   5.906067e+05   3.788628e+05
   1.776839e+05   6.308656e+05
  -4.998974e+05   3.311569e+05
  -8.284598e+05  -1.619723e+05
  -4.364758e+05  -4.063722e+05
   3.147377e+05  -3.158276e+05
   6.283793e+05  -1.088232e+05
   1.757044e+05   8.191298e+03
  -4.610742e+05  -2.931503e+04
  -4.500542e+05  -1.957888e+05
   2.741982e+05  -3.512985e+05
   9.107855e+05  -2.323037e+05
