
 $NMID
 id='ANONYMOUS ', fmtdat='(2E16.6)'
 volume=1.0
 tramp=1.0
 $END
  -6.550073e+06  -4.860238e+05
  -4.505034e+06  -2.043251e+06
  -7.388631e+05  -3.600712e+06
   2.315110e+06  -3.841529e+06
   2.774701e+06  -1.627878e+06
   7.902729e+05   1.208179e+06
  -1.459370e+06   1.518203e+06
  -1.820367e+06  -8.613470e+05
  -2.767534e+05  -2.662639e+06
   1.307994e+06  -1.519712e+06
   1.385815e+06   1.046876e+06
   1.848261e+05   1.899584e+06
  -9.034447e+05   2.494041e+05
  -8.311967e+05  -1.817686e+06
   2.706328e+05  -2.097604e+06
   1.305964e+06  -4.698760e+05
   1.165971e+06   1.431841e+06
  -1.647218e+05   1.955652e+06
  -1.414333e+06   8.395531e+05
  -1.327852e+06  -6.649544e+05
  -1.884776e+05  -1.097788e+06
   4.553754e+05  -3.936441e+05
  -2.704488e+05   9.831453e+04
  -1.411848e+06  -6.031472e+05
  -1.321254e+06  -1.795413e+06
   3.732805e+05  -2.015029e+06
   2.301450e+06  -8.714196e+05
   2.730033e+06   6.350689e+05
   1.222385e+06   1.363294e+06
  -9.188554e+05   9.821925e+05
  -1.762807e+06  -1.184306e+05
  -5.674448e+05  -1.143647e+06
   1.379016e+06  -1.177119e+06
   2.037838e+06   5.774642e+04
   8.701914e+05   1.534042e+06
  -6.225438e+05   1.724391e+06
  -8.346429e+05   4.166686e+05
   5.058319e+04  -8.520968e+05
   6.353352e+05  -6.196150e+05
   2.630115e+05   7.211504e+05
  -4.385139e+05   1.518994e+06
  -7.535308e+05   9.230850e+05
  -6.750438e+05  -2.857672e+05
  -4.016349e+05  -8.327197e+05
   6.350215e+04  -3.379598e+05
   4.428629e+05   5.337543e+05
   9.440732e+04   8.805566e+05
  -1.003826e+06   3.346390e+05
  -1.731145e+06  -6.951301e+05
  -1.026615e+06  -1.361605e+06
   6.377854e+05  -1.110185e+06
   1.672308e+06  -2.027957e+05
   1.204410e+06   5.551912e+05
  -6.228052e+04   6.245806e+05
  -8.374274e+05   1.688134e+05
  -5.887419e+05  -2.619661e+05
   1.935260e+05  -2.779417e+05
   6.486795e+05   1.123530e+05
   3.124434e+05   5.628951e+05
  -4.644600e+05   6.207737e+05
  -7.821508e+05   1.321438e+05
  -1.693580e+05  -4.622189e+05
   6.917344e+05  -4.575936e+05
   6.292354e+05   3.015911e+05
  -5.362815e+05   1.097642e+06
  -1.653110e+06   1.049202e+06
  -1.631372e+06   7.198301e+04
  -7.201813e+05  -1.058990e+06
   1.044543e+04  -1.560081e+06
   9.902049e+04  -1.357968e+06
   4.617271e+04  -9.504870e+05
   3.887650e+05  -7.335638e+05
   9.955597e+05  -5.871984e+05
   1.361286e+06  -1.188581e+05
   1.171270e+06   7.233672e+05
   4.492568e+05   1.366820e+06
  -4.919197e+05   1.110677e+06
  -1.083141e+06  -2.120976e+04
  -8.220208e+05  -1.100166e+06
   1.604042e+05  -1.172587e+06
   1.045453e+06  -2.570963e+05
   1.102426e+06   7.326042e+05
   4.388872e+05   1.017646e+06
  -2.064083e+05   6.723490e+05
  -3.395408e+05   3.018508e+05
  -1.889686e+05   2.792946e+05
  -3.212597e+05   4.530609e+05
  -9.209344e+05   4.283264e+05
  -1.495360e+06  -4.434155e+04
  -1.299884e+06  -8.518495e+05
  -1.415091e+05  -1.513692e+06
   1.227698e+06  -1.476756e+06
   1.702251e+06  -6.305470e+05
   9.451639e+05   4.525867e+05
  -2.144338e+05   9.584578e+05
  -6.669197e+05   5.978123e+05
  -1.843241e+05  -1.255252e+05
   4.971955e+05  -4.499258e+05
   6.300151e+05  -1.208215e+05
   1.941621e+05   3.959145e+05
  -2.904031e+05   4.426470e+05
  -3.642619e+05  -8.945751e+04
   5.216722e+04  -5.692315e+05
   6.527251e+05  -2.695967e+05
   8.840960e+05   7.521849e+05
   3.273683e+05   1.554853e+06
  -7.962910e+05   1.257588e+06
  -1.621311e+06   2.536668e+04
  -1.416730e+06  -1.079947e+06
  -3.775801e+05  -1.230758e+06
   5.529480e+05  -6.138680e+05
   6.750755e+05  -3.576219e+04
   1.911073e+05   1.315442e+04
  -1.544622e+05  -2.737060e+05
   6.621543e+04  -4.265915e+05
   5.610181e+05  -2.249258e+05
   7.020337e+05   1.699459e+05
   2.360734e+05   4.152203e+05
  -3.930630e+05   2.791985e+05
  -4.654102e+05  -1.334618e+05
   2.136413e+05  -4.049213e+05
   9.918790e+05  -1.702001e+05
   9.984110e+05   4.665388e+05
   1.066417e+05   9.578265e+05
  -8.837311e+05   8.376154e+05
  -1.093949e+06   1.988707e+05
  -4.645414e+05  -3.959570e+05
   2.836092e+05  -4.658229e+05
   4.569518e+05  -5.562690e+04
   1.226427e+04   3.393878e+05
  -5.417436e+05   2.733833e+05
  -6.773161e+05  -2.048050e+05
  -2.807627e+05  -6.036692e+05
   2.877325e+05  -5.140462e+05
   5.149504e+05  -6.161920e+04
   2.212167e+05   2.342567e+05
  -2.238216e+05   5.284646e+04
  -2.600671e+05  -3.717687e+05
   2.372083e+05  -5.293063e+05
   7.763798e+05  -1.866287e+05
   7.692512e+05   4.014303e+05
   1.715720e+05   7.679167e+05
  -4.796098e+05   6.444471e+05
  -6.351964e+05   1.557522e+05
  -2.584087e+05  -2.936597e+05
   2.080256e+05  -3.517608e+05
   3.168500e+05  -3.812739e+04
   3.262876e+04   2.672962e+05
  -2.818517e+05   2.321725e+05
  -2.656369e+05  -4.404751e+04
   4.977509e+04  -1.551855e+05
   2.636497e+05   9.531955e+04
   4.462462e+04   4.260466e+05
  -4.762796e+05   3.925162e+05
  -8.050180e+05  -1.081621e+05
  -5.838604e+05  -7.203345e+05
   5.058718e+04  -9.702585e+05
   6.175905e+05  -6.727091e+05
   7.544065e+05  -6.016007e+04
   5.055771e+05   4.191612e+05
   1.970560e+05   4.752643e+05
   7.881683e+04   2.289812e+05
   1.000073e+05   6.979298e+04
   1.834679e+04   2.024320e+05
  -2.788038e+05   3.857472e+05
  -5.812836e+05   2.275575e+05
  -5.278639e+05  -2.848317e+05
  -2.752185e+03  -6.883323e+05
   6.618944e+05  -5.318457e+05
   9.308132e+05   1.267584e+05
   5.427345e+05   7.716192e+05
  -2.470490e+05   9.193472e+05
  -8.845098e+05   5.138186e+05
  -9.736186e+05  -9.636432e+04
  -5.612925e+05  -4.898231e+05
  -3.555154e+04  -5.093245e+05
   2.368118e+05  -3.447703e+05
   2.071195e+05  -2.911569e+05
   1.222279e+05  -4.023838e+05
   2.180717e+05  -4.223743e+05
   4.428643e+05  -1.087770e+05
   5.085888e+05   4.180848e+05
   2.266877e+05   7.409219e+05
  -2.414082e+05   5.705136e+05
  -5.124252e+05   4.113243e+04
  -3.633460e+05  -4.323233e+05
   4.436790e+04  -5.344561e+05
   3.364710e+05  -2.734317e+05
   3.015596e+05   9.790692e+04
   7.348183e+04   3.213921e+05
  -5.383519e+04   3.220387e+05
   3.497120e+04   2.176802e+05
   1.486063e+05   1.596429e+05
   1.119288e+04   1.634781e+05
  -3.942101e+05   1.119909e+05
  -7.368562e+05  -7.826976e+04
  -6.397240e+05  -3.339648e+05
  -8.747586e+04  -4.866554e+05
   5.030487e+05  -4.281672e+05
   6.689924e+05  -1.946160e+05
   3.565577e+05   6.117212e+04
  -5.141623e+04   1.667365e+05
  -1.641654e+05   6.589188e+04
   2.445575e+04  -9.591229e+04
   2.103549e+05  -8.740439e+04
   1.781137e+05   1.321495e+05
   2.084901e+04   3.115722e+05
  -3.914313e+04   1.981836e+05
   5.865975e+04  -9.970659e+04
   1.682140e+05  -1.970887e+05
   1.262086e+05   7.689270e+04
  -8.597380e+04   4.206269e+05
  -3.370183e+05   4.099727e+05
  -4.323132e+05   1.783949e+04
  -2.407419e+05  -3.595321e+05
   1.564827e+05  -3.685823e+05
   4.359967e+05  -5.652306e+04
   2.818290e+05   2.466343e+05
  -2.446033e+05   2.787539e+05
  -6.613447e+05   3.255283e+04
  -5.212775e+05  -2.968187e+05
   8.806114e+04  -4.625033e+05
   6.006291e+05  -3.320086e+05
   5.640443e+05  -9.713418e+03
   1.060553e+05   2.192690e+05
  -2.398865e+05   1.554518e+05
  -1.248142e+05  -8.596497e+04
   2.693798e+05  -1.721868e+05
   4.638514e+05   8.662485e+04
   1.988446e+05   4.999304e+05
  -3.148576e+05   6.517680e+05
  -6.303872e+05   3.066400e+05
  -5.033110e+05  -3.256502e+05
  -8.364548e+04  -7.351649e+05
   2.846699e+05  -5.704176e+05
   3.851488e+05   7.652626e+03
   2.399195e+05   4.631844e+05
  -4.665668e+03   4.275026e+05
  -2.011493e+05   6.828833e+04
  -2.439972e+05  -1.565402e+05
  -1.264437e+05  -6.892660e+04
   4.879188e+03   5.564481e+04
  -2.857643e+04  -8.101852e+04
  -1.803762e+05  -3.683592e+05
  -1.575187e+05  -4.407476e+05
   2.021230e+05  -1.730047e+05
   6.089949e+05   1.762656e+05
   5.884063e+05   3.218417e+05
   8.732325e+04   2.646845e+05
  -3.982521e+05   1.717602e+05
  -4.147240e+05   1.042904e+05
  -9.444368e+04   1.301231e+04
   7.995209e+04  -8.692203e+04
  -5.711974e+04  -1.126804e+05
  -1.815230e+05  -7.122148e+04
   7.195051e+03  -5.926537e+04
   3.435121e+05  -7.393876e+04
   4.111960e+05   2.447809e+04
   6.813668e+04   2.705846e+05
  -4.057503e+05   4.335106e+05
  -6.334971e+05   2.489537e+05
  -4.786615e+05  -2.173137e+05
  -8.365169e+04  -5.763587e+05
   2.880922e+05  -5.255097e+05
   4.207692e+05  -1.671453e+05
   2.747657e+05   1.315493e+05
   2.290041e+04   1.438288e+05
  -9.178973e+04  -1.130422e+04
   6.637187e+03  -5.304970e+04
   1.517329e+05   1.233983e+05
   1.273978e+05   3.206217e+05
  -8.679090e+04   2.572505e+05
  -2.887164e+05  -9.458228e+04
  -2.564113e+05  -4.291485e+05
   3.073188e+04  -4.096075e+05
   3.462285e+05  -3.571218e+04
   3.944857e+05   3.513922e+05
   9.329557e+04   4.350726e+05
  -3.000942e+05   2.208151e+05
  -4.149651e+05  -5.323700e+04
  -1.703222e+05  -2.027313e+05
   1.152049e+05  -2.096963e+05
   9.872854e+04  -1.283811e+05
  -1.598883e+05  -2.330935e+04
  -2.758653e+05   5.750629e+03
  -3.650986e+04  -1.131039e+05
   3.302736e+05  -2.780560e+05
   4.497995e+05  -2.552587e+05
   2.415323e+05   2.919495e+04
  -4.707196e+04   3.235629e+05
  -1.717026e+05   3.128890e+05
  -1.138425e+05   1.664369e+04
   9.619201e+03  -2.181540e+05
   1.100902e+05  -1.417139e+05
   1.471446e+05   1.124240e+05
   9.153238e+04   2.338976e+05
  -3.995359e+04   1.227994e+05
  -1.552550e+05  -4.254109e+04
  -1.679164e+05  -7.754420e+04
  -9.374609e+04  -5.959479e+03
  -1.647963e+04   2.006521e+04
   2.617833e+04  -6.888332e+04
   6.807824e+04  -1.805176e+05
   1.308425e+05  -1.680636e+05
   1.684489e+05   8.905135e+03
   1.150344e+05   2.214995e+05
  -3.400783e+04   2.741572e+05
  -1.932716e+05   9.933948e+04
  -2.308565e+05  -1.523585e+05
  -7.294932e+04  -2.535059e+05
   1.886748e+05  -1.347660e+05
   3.219882e+05   6.022064e+04
   1.737884e+05   1.553133e+05
  -1.218311e+05   1.184305e+05
  -2.451741e+05   3.804204e+04
  -5.882884e+04  -5.268763e+03
   2.001392e+05   1.326950e+04
   1.896622e+05   8.544807e+04
  -1.139809e+05   1.545125e+05
  -3.770564e+05   1.081694e+05
