
 $NMID
 id='ANONYMOUS ', fmtdat='(2E16.6)'
 volume=1.0
 tramp=1.0
 $END
  -3.996030e+07   4.042386e+05
  -2.485376e+07  -2.282339e+07
   3.632961e+06  -2.649418e+07
   1.867424e+07  -1.227254e+07
   1.233559e+07   2.969254e+06
  -1.379275e+06   6.712956e+06
  -7.177234e+06   4.582803e+05
  -3.166670e+06  -6.661500e+06
   3.523595e+06  -7.813892e+06
   6.919855e+06  -2.472245e+06
   5.455258e+06   4.523099e+06
   7.758756e+05   6.726220e+06
  -3.107320e+06   1.952145e+06
  -2.337317e+06  -4.666786e+06
   2.435502e+06  -5.651796e+06
   5.868117e+06   3.826518e+05
   3.763793e+06   7.336547e+06
  -2.303373e+06   8.830614e+06
  -7.245987e+06   4.445969e+06
  -7.751005e+06  -1.604604e+06
  -4.388093e+06  -5.389468e+06
  -2.146849e+05  -5.693470e+06
   1.558419e+06  -3.741519e+06
   9.639422e+04  -2.107862e+06
  -1.711749e+06  -2.600196e+06
   1.634157e+04  -4.070258e+06
   4.969749e+06  -3.490294e+06
   8.018243e+06  -2.106669e+04
   5.359312e+06   3.459209e+06
  -4.314006e+05   3.888402e+06
  -3.572494e+06   1.598878e+06
  -1.981118e+06  -7.781127e+05
   1.338169e+06  -1.474573e+06
   2.891540e+06  -3.386110e+05
   2.052346e+06   1.952447e+06
   7.194158e+04   3.702853e+06
  -1.670328e+06   2.748260e+06
  -2.000607e+06  -6.418477e+05
  -6.647725e+05  -2.713329e+06
   6.694281e+05  -6.973582e+05
  -3.972022e+04   2.640225e+06
  -2.034721e+06   2.154066e+06
  -2.058261e+06  -2.160276e+06
   1.142340e+06  -4.455162e+06
   4.372348e+06  -9.578565e+05
   3.609681e+06   4.651409e+06
  -1.012894e+06   5.990311e+06
  -5.336179e+06   1.859755e+06
  -5.665156e+06  -3.171022e+06
  -1.994278e+06  -4.715012e+06
   2.582215e+06  -2.549920e+06
   4.511782e+06   7.153352e+05
   2.435888e+06   2.528169e+06
  -1.520830e+06   1.848581e+06
  -3.441614e+06  -3.904729e+05
  -1.676427e+06  -1.855192e+06
   1.195262e+06  -1.077949e+06
   1.569628e+06   6.915749e+05
  -5.806868e+05   9.889582e+05
  -1.891477e+06  -6.101067e+05
  -2.161472e+05  -2.045743e+06
   2.738518e+06  -1.573960e+06
   3.820059e+06   4.387427e+05
   1.957209e+06   2.663008e+06
  -1.429448e+06   4.119720e+06
  -4.249018e+06   3.883497e+06
  -5.033029e+06   1.252295e+06
  -3.446470e+06  -2.672710e+06
  -6.872427e+05  -4.978599e+06
   1.151586e+06  -3.989665e+06
   1.099362e+06  -1.474210e+06
   3.693421e+05  -3.868283e+05
   6.808794e+05  -1.063513e+06
   1.971968e+06  -1.256232e+06
   2.627970e+06   3.180536e+05
   1.648541e+06   2.171156e+06
  -2.945554e+05   2.162032e+06
  -1.760239e+06   1.525095e+05
  -1.696131e+06  -2.066492e+06
   5.698182e+04  -2.695585e+06
   2.469010e+06  -1.277455e+06
   3.631467e+06   1.201941e+06
   2.402982e+06   3.045366e+06
  -1.074463e+05   3.140775e+06
  -1.632564e+06   1.957098e+06
  -1.516370e+06   9.479337e+05
  -1.366435e+06   7.865995e+05
  -2.503541e+06   6.653043e+05
  -3.829165e+06  -4.298369e+05
  -3.184173e+06  -2.291193e+06
  -2.614467e+05  -3.691056e+06
   2.834638e+06  -3.587971e+06
   3.824126e+06  -1.874892e+06
   2.371226e+06   5.435844e+05
   6.350167e+04   2.103360e+06
  -1.141430e+06   1.676531e+06
  -4.905843e+05  -1.048086e+05
   1.023737e+06  -1.173599e+06
   1.652884e+06  -3.708390e+05
   7.426746e+05   1.033637e+06
  -5.168132e+05   1.032627e+06
  -5.384449e+05  -3.021130e+05
   6.968045e+05  -8.632644e+05
   1.655632e+06   5.904057e+05
   1.096305e+06   2.723677e+06
  -7.066732e+05   3.285063e+06
  -2.523334e+06   1.654806e+06
  -3.271013e+06  -8.289069e+05
  -2.505009e+06  -2.468775e+06
  -6.097463e+05  -2.522436e+06
   1.153486e+06  -1.392632e+06
   1.479922e+06  -2.012533e+05
   4.498827e+05   2.924061e+04
  -3.511347e+05  -6.679817e+05
   2.897604e+05  -1.164909e+06
   1.606373e+06  -5.592338e+05
   1.808429e+06   6.547073e+05
   4.332530e+05   1.192081e+06
  -1.018655e+06   5.808889e+05
  -9.043705e+05  -3.703318e+05
   6.831800e+05  -6.321619e+05
   2.095668e+06   4.458815e+04
   1.841478e+06   1.160548e+06
  -4.673814e+04   1.935926e+06
  -2.066817e+06   1.688765e+06
  -2.538845e+06   3.646524e+05
  -1.126712e+06  -1.068162e+06
   7.646817e+05  -1.305723e+06
   1.318972e+06  -1.853613e+05
   1.551357e+05   9.302080e+05
  -1.341664e+06   6.909540e+05
  -1.589891e+06  -6.163356e+05
  -4.391860e+05  -1.475802e+06
   8.857933e+05  -1.001351e+06
   1.169807e+06   1.388313e+05
   3.216319e+05   6.618186e+05
  -6.709277e+05   8.427653e+04
  -6.762739e+05  -9.267620e+05
   5.102391e+05  -1.299571e+06
   1.825778e+06  -5.183617e+05
   1.867657e+06   9.187779e+05
   4.039162e+05   1.864642e+06
  -1.232793e+06   1.531425e+06
  -1.548848e+06   2.724984e+05
  -5.154949e+05  -7.549445e+05
   5.562352e+05  -7.720185e+05
   6.262075e+05  -8.685845e+04
  -4.713412e+04   4.186837e+05
  -5.063077e+05   3.048779e+05
  -2.630766e+05  -6.698625e+04
   3.232620e+05  -6.292917e+04
   5.261959e+05   4.903883e+05
  -8.194663e+04   1.063650e+06
  -1.205560e+06   8.745727e+05
  -1.908866e+06  -3.039595e+05
  -1.386226e+06  -1.726551e+06
   1.294134e+05  -2.237475e+06
   1.441509e+06  -1.404886e+06
   1.610948e+06   8.326518e+03
   9.179461e+05   8.476048e+05
   3.559746e+05   7.378858e+05
   3.712261e+05   2.901224e+05
   4.819198e+05   2.416840e+05
   8.554085e+04   6.333231e+05
  -7.409773e+05   8.638557e+05
  -1.328692e+06   3.943339e+05
  -1.055245e+06  -6.401596e+05
   1.306933e+05  -1.419469e+06
   1.547347e+06  -1.091570e+06
   2.102832e+06   3.572353e+05
   1.144300e+06   1.868186e+06
  -7.819621e+05   2.180526e+06
  -2.234855e+06   1.064738e+06
  -2.199570e+06  -4.511274e+05
  -1.025559e+06  -1.182800e+06
   9.086675e+04  -9.617231e+05
   4.010417e+05  -5.737249e+05
   1.757506e+05  -6.924163e+05
   1.265828e+05  -1.127729e+06
   5.615721e+05  -1.137691e+06
   1.137263e+06  -3.049340e+05
   1.236634e+06   9.614603e+05
   5.525373e+05   1.725121e+06
  -5.409831e+05   1.334406e+06
  -1.183912e+06   5.040616e+04
  -7.980036e+05  -1.113541e+06
   2.593070e+05  -1.277048e+06
   9.769797e+05  -4.680764e+05
   7.432081e+05   5.073495e+05
  -1.300462e+04   9.198077e+05
  -3.728292e+05   7.351089e+05
  -2.395899e+04   4.179495e+05
   3.904657e+05   3.176904e+05
   5.506209e+04   3.589595e+05
  -1.011223e+06   2.340632e+05
  -1.849876e+06  -2.306485e+05
  -1.505812e+06  -8.710836e+05
  -5.931448e+04  -1.265142e+06
   1.356405e+06  -1.062562e+06
   1.640233e+06  -3.455613e+05
   7.912682e+05   3.495372e+05
  -1.955370e+05   4.890498e+05
  -4.436341e+05   7.506188e+04
  -1.201168e+04  -3.404578e+05
   4.242935e+05  -2.373959e+05
   4.413502e+05   3.022437e+05
   1.971811e+05   6.767197e+05
   4.856245e+04   4.451588e+05
   1.257911e+05  -1.302462e+05
   2.867224e+05  -3.283117e+05
   2.695617e+05   1.976541e+05
  -1.275507e+05   9.299573e+05
  -7.927285e+05   9.915733e+05
  -1.181796e+06   1.554815e+05
  -7.415801e+05  -8.229499e+05
   3.539915e+05  -1.004107e+06
   1.111326e+06  -2.873394e+05
   6.816880e+05   5.236975e+05
  -6.106093e+05   6.239178e+05
  -1.481261e+06  -1.069755e+04
  -1.018670e+06  -7.426834e+05
   3.587716e+05  -9.616834e+05
   1.370213e+06  -5.596345e+05
   1.183371e+06   9.607166e+04
   1.669194e+05   4.788787e+05
  -5.805733e+05   2.906456e+05
  -3.425597e+05  -2.445875e+05
   5.505142e+05  -4.733356e+05
   1.088928e+06   8.100467e+04
   6.050536e+05   1.092385e+06
  -5.526196e+05   1.568720e+06
  -1.371428e+06   8.240207e+05
  -1.177367e+06  -6.833450e+05
  -2.298365e+05  -1.659570e+06
   6.463525e+05  -1.241803e+06
   8.655443e+05   1.054188e+05
   4.633682e+05   1.081489e+06
  -1.328317e+05   9.207758e+05
  -5.030525e+05   1.095644e+05
  -4.715948e+05  -3.400646e+05
  -1.887432e+05  -1.299719e+05
  -2.875256e+04   9.832313e+04
  -2.176377e+05  -2.472755e+05
  -4.790364e+05  -8.708316e+05
  -2.460025e+05  -9.947811e+05
   6.039639e+05  -3.874254e+05
   1.382614e+06   3.894904e+05
   1.242813e+06   7.341789e+05
   1.940938e+05   6.322643e+05
  -8.085454e+05   4.107800e+05
  -9.150614e+05   2.088390e+05
  -3.068871e+05  -2.322038e+04
   1.406779e+05  -2.104443e+05
  -1.050288e+04  -2.046479e+05
  -2.876283e+05  -9.655750e+04
  -3.602143e+04  -1.257183e+05
   6.467955e+05  -2.258850e+05
   9.638758e+05  -5.197125e+03
   3.631122e+05   6.279531e+05
  -7.839140e+05   1.091725e+06
  -1.528606e+06   7.134515e+05
  -1.272344e+06  -3.870918e+05
  -2.773713e+05  -1.299514e+06
   6.645083e+05  -1.277709e+06
   9.575405e+05  -5.005550e+05
   6.189802e+05   2.164393e+05
   1.178971e+05   3.288415e+05
  -9.569580e+04   4.633943e+04
   6.063581e+04  -3.969486e+04
   3.019584e+05   3.196336e+05
   2.630560e+05   7.384724e+05
  -1.556543e+05   6.257602e+05
  -6.417491e+05  -1.153458e+05
  -6.909318e+05  -8.834346e+05
  -9.832595e+04  -9.505145e+05
   7.116988e+05  -2.210482e+05
   9.683842e+05   6.672540e+05
   3.303459e+05   9.979138e+05
  -6.484589e+05   6.227382e+05
  -1.021146e+06  -4.998646e+04
  -4.872311e+05  -5.330482e+05
   2.485330e+05  -6.062004e+05
   3.167706e+05  -3.401907e+05
  -2.570391e+05  -8.840616e+03
  -6.065786e+05   5.011108e+04
  -1.335800e+05  -2.765433e+05
   7.440354e+05  -6.525201e+05
   1.123212e+06  -5.493998e+05
   6.791866e+05   1.260739e+05
  -6.976946e+04   7.950641e+05
  -4.653996e+05   7.913555e+05
  -3.648602e+05   1.381977e+05
  -4.986173e+04  -4.538184e+05
   2.161434e+05  -3.949333e+05
   3.337104e+05   1.495427e+05
   2.465532e+05   5.278497e+05
  -4.639073e+04   3.755944e+05
  -3.626806e+05  -4.112768e+04
  -4.364371e+05  -2.313935e+05
  -2.243307e+05  -6.809297e+04
   2.156967e+04   1.211386e+05
   7.214476e+04   2.283514e+02
   9.598689e+03  -3.453724e+05
   8.019670e+04  -4.902495e+05
   3.089210e+05  -1.703958e+05
   4.066699e+05   3.694111e+05
   1.221512e+05   6.032110e+05
  -3.817607e+05   2.918740e+05
  -6.081738e+05  -2.574021e+05
  -2.396206e+05  -5.336763e+05
   4.526233e+05  -3.470573e+05
   8.054047e+05   5.797342e+04
   4.460920e+05   3.374761e+05
  -2.629636e+05   3.608152e+05
  -5.810355e+05   2.064169e+05
  -2.138168e+05   1.766836e+04
   3.449458e+05  -5.796210e+04
   3.913142e+05   7.133369e+04
  -1.652703e+05   2.911850e+05
  -7.120664e+05   2.746247e+05
