
 $NMID
 id='ANONYMOUS ', fmtdat='(2E16.6)'
 volume=1.0
 tramp=1.0
 $END
   2.298581e+07   9.148393e+05
   1.296372e+07   1.545346e+07
  -4.241806e+06   1.563114e+07
  -1.175958e+07   4.811219e+06
  -6.298389e+06  -3.877242e+06
   1.868820e+06  -3.689733e+06
   3.866028e+06   1.166403e+06
   5.048047e+05   4.093459e+06
  -2.971571e+06   3.212140e+06
  -3.897877e+06   2.576447e+05
  -2.574429e+06  -2.554666e+06
  -1.617016e+05  -3.257987e+06
   1.551185e+06  -1.074399e+06
   8.376266e+05   1.908872e+06
  -1.685407e+06   2.202905e+06
  -3.060900e+06  -8.712467e+05
  -1.433442e+06  -4.163439e+06
   1.835615e+06  -4.564952e+06
   4.159910e+06  -2.179843e+06
   4.358349e+06   9.108685e+05
   2.739590e+06   3.120364e+06
   2.715865e+05   3.732673e+06
  -1.494324e+06   2.644991e+06
  -1.284863e+06   9.534348e+05
   8.349498e+04   4.235430e+05
   1.719113e+05   1.262037e+06
  -1.783773e+06   1.615630e+06
  -3.487872e+06   2.574522e+05
  -2.695354e+06  -1.545886e+06
  -2.980816e+05  -1.970532e+06
   1.178135e+06  -1.128392e+06
   9.472368e+05  -3.043364e+05
   1.397689e+05   7.924952e+04
  -4.187327e+05   2.224309e+05
  -7.120170e+05  -2.116815e+05
  -4.399684e+05  -1.256136e+06
   6.226544e+05  -1.559991e+06
   1.457629e+06  -1.390479e+05
   8.812907e+05   1.470863e+06
  -3.164877e+05   1.052417e+06
  -2.563545e+05  -6.541437e+05
   8.981652e+05  -7.100381e+05
   8.239891e+05   1.367470e+06
  -1.302497e+06   2.411301e+06
  -3.068608e+06   2.090057e+05
  -2.000348e+06  -3.002218e+06
   1.032552e+06  -3.470428e+06
   3.032306e+06  -8.351476e+05
   2.485420e+06   1.877855e+06
   4.132334e+05   2.289764e+06
  -1.388606e+06   8.131067e+05
  -1.802062e+06  -8.161796e+05
  -6.574870e+05  -1.411593e+06
   1.085278e+06  -7.411646e+05
   1.735515e+06   5.367361e+05
   6.391231e+05   1.157257e+06
  -7.262101e+05   4.929638e+05
  -5.609429e+05  -4.469564e+05
   6.855959e+05  -2.107799e+05
   9.150366e+05   9.990313e+05
  -5.710129e+05   1.534972e+06
  -2.125327e+06   6.100610e+05
  -2.106893e+06  -8.292967e+05
  -7.647011e+05  -1.706846e+06
   7.309453e+05  -1.978429e+06
   1.814261e+06  -1.758446e+06
   2.296771e+06  -6.505982e+05
   1.768197e+06   1.168991e+06
   3.194908e+05   2.293836e+06
  -8.709495e+05   1.677953e+06
  -7.779287e+05   2.284191e+05
   5.585059e+04  -3.231331e+05
   2.918895e+05   2.776764e+05
  -3.472259e+05   7.462833e+05
  -9.210105e+05   2.788193e+05
  -7.507888e+05  -4.914221e+05
  -1.291168e+05  -6.365194e+05
   3.783758e+05  -8.331110e+04
   4.806191e+05   6.219275e+05
   7.197007e+03   9.632281e+05
  -9.514831e+05   6.193858e+05
  -1.647959e+06  -3.872477e+05
  -1.239691e+06  -1.427580e+06
   3.100510e+04  -1.680165e+06
   9.603307e+05  -1.076045e+06
   9.540615e+05  -3.807303e+05
   7.273742e+05  -1.382328e+05
   1.041787e+06  -4.104581e+04
   1.481066e+06   3.929996e+05
   1.125685e+06   1.034177e+06
  -4.659496e+04   1.394592e+06
  -1.126952e+06   1.256052e+06
  -1.394476e+06   6.994800e+05
  -9.049709e+05  -9.471186e+04
  -1.550070e+05  -7.238025e+05
   3.252563e+05  -6.749236e+05
   1.987379e+05  -1.255550e+04
  -3.595418e+05   4.374166e+05
  -6.729192e+05   1.127089e+05
  -3.361086e+05  -4.380132e+05
   1.617686e+05  -3.612540e+05
   7.662641e+04   1.512428e+05
  -4.682276e+05   1.211168e+05
  -6.059100e+05  -6.862659e+05
   3.681247e+04  -1.337428e+06
   8.595818e+05  -1.025051e+06
   1.173783e+06  -6.769648e+04
   9.663373e+05   7.013293e+05
   5.525630e+05   9.412769e+05
   5.293978e+04   8.055824e+05
  -4.128488e+05   4.551645e+05
  -5.104349e+05   6.872334e+04
  -1.634758e+05  -2.430185e+04
   1.027683e+05   2.614452e+05
  -1.888648e+05   4.678997e+05
  -6.997834e+05   1.605618e+05
  -6.884516e+05  -3.825157e+05
  -7.772019e+04  -5.185870e+05
   4.178569e+05  -1.534806e+05
   2.511358e+05   1.772739e+05
  -3.241952e+05   9.472391e+04
  -6.716866e+05  -2.308674e+05
  -4.585186e+05  -4.934052e+05
   1.745001e+05  -5.894394e+05
   7.962872e+05  -4.537422e+05
   9.223810e+05  -1.898899e+04
   3.873470e+05   4.712019e+05
  -3.547971e+05   5.225779e+05
  -5.705406e+05   4.247865e+04
  -6.990657e+04  -3.899904e+05
   5.327380e+05  -2.256571e+05
   5.565435e+05   3.190296e+05
   3.837648e+04   5.665688e+05
  -4.211381e+05   2.636422e+05
  -4.032513e+05  -1.819599e+05
  -2.833666e+04  -2.848526e+05
   2.935567e+05   5.762553e+03
   2.372517e+05   3.756140e+05
  -2.104401e+05   4.745668e+05
  -6.804731e+05   1.579379e+05
  -6.705263e+05  -3.846605e+05
  -8.813332e+04  -7.109086e+05
   5.323375e+05  -5.229944e+05
   5.902541e+05  -1.862510e+04
   1.330073e+05   3.112129e+05
  -2.473643e+05   2.444136e+05
  -1.897317e+05   1.432713e+04
   6.843083e+04  -7.581776e+04
   1.351290e+05  -1.450615e+04
  -3.047934e+04   1.385599e+04
  -1.853929e+05  -9.500166e+04
  -1.388847e+05  -2.852286e+05
   1.290074e+05  -4.021654e+05
   4.946150e+05  -2.615350e+05
   6.889211e+05   1.880604e+05
   4.536471e+05   6.828887e+05
  -1.202603e+05   7.948708e+05
  -5.622041e+05   4.060218e+05
  -5.282864e+05  -1.022230e+05
  -2.175604e+05  -2.865457e+05
  -7.583195e+04  -1.491927e+05
  -1.930641e+05  -3.596656e+04
  -2.500333e+05  -1.338917e+05
  -2.206698e+04  -2.876153e+05
   3.262070e+05  -2.741220e+05
   4.805507e+05  -5.267938e+04
   2.996817e+05   2.540919e+05
  -1.369448e+05   4.417451e+05
  -5.917378e+05   2.931244e+05
  -7.228831e+05  -2.153959e+05
  -3.113912e+05  -7.313062e+05
   4.215042e+05  -7.712480e+05
   8.965950e+05  -2.657261e+05
   7.518141e+05   3.079882e+05
   2.354293e+05   4.681596e+05
  -1.187565e+05   2.637497e+05
  -1.070185e+05   1.178398e+05
   2.020357e+04   2.541218e+05
  -2.963929e+04   4.709421e+05
  -2.590051e+05   4.448355e+05
  -4.567420e+05   9.044044e+04
  -4.338744e+05  -3.818044e+05
  -1.538456e+05  -6.392566e+05
   2.292594e+05  -4.664732e+05
   4.240989e+05   3.398686e+04
   2.344310e+05   4.619258e+05
  -1.874471e+05   4.606393e+05
  -4.301985e+05   7.694466e+04
  -2.611290e+05  -3.027656e+05
   9.969840e+04  -3.867145e+05
   2.419436e+05  -2.437771e+05
   5.618804e+04  -1.176559e+05
  -1.468249e+05  -1.093782e+05
  -1.852789e+04  -1.243318e+05
   4.035230e+05  -4.146357e+04
   7.044254e+05   1.605597e+05
   5.191105e+05   3.934397e+05
  -6.998424e+04   5.001540e+05
  -5.865486e+05   3.595844e+05
  -6.283737e+05   3.509099e+04
  -2.572807e+05  -2.208698e+05
   1.136935e+05  -2.033369e+05
   1.819598e+05   1.496579e+04
   1.484040e+04   1.648248e+05
  -1.390983e+05   8.514746e+04
  -1.590440e+05  -1.217309e+05
  -1.015282e+05  -2.364492e+05
  -5.173264e+04  -1.590584e+05
  -4.412549e+04   8.064721e+03
  -7.517912e+04   6.601642e+04
  -8.153422e+04  -8.594838e+04
   5.009155e+04  -3.152343e+05
   3.202806e+05  -3.443167e+05
   4.924649e+05  -5.432616e+04
   3.033932e+05   3.183314e+05
  -1.583184e+05   4.007738e+05
  -4.454513e+05   1.200792e+05
  -2.389578e+05  -1.934999e+05
   2.534972e+05  -1.964476e+05
   5.122007e+05   7.908898e+04
   2.760648e+05   3.140744e+05
  -2.103724e+05   2.931962e+05
  -4.980504e+05   8.598846e+04
  -3.767939e+05  -1.101508e+05
  -1.830851e+04  -1.655314e+05
   2.244605e+05  -6.181378e+04
   1.327158e+05   1.148200e+05
  -1.881594e+05   1.793835e+05
  -3.950376e+05  -2.213342e+04
  -2.337575e+05  -3.907435e+05
   1.875985e+05  -5.690461e+05
   4.894447e+05  -2.935185e+05
   4.063815e+05   2.578831e+05
   4.368207e+04   5.884444e+05
  -2.648556e+05   3.981270e+05
  -2.963374e+05  -9.464835e+04
  -1.003118e+05  -4.035690e+05
   1.170694e+05  -2.997008e+05
   1.955024e+05  -6.018979e+03
   1.265986e+05   1.271227e+05
   2.834740e+04   4.019052e+04
   2.655592e+04  -2.320405e+04
   1.212436e+05   1.187769e+05
   1.653819e+05   3.344711e+05
   1.689991e+04   3.532807e+05
  -2.751441e+05   1.129915e+05
  -4.745535e+05  -1.759618e+05
  -3.817481e+05  -2.961417e+05
  -4.653563e+04  -2.393440e+05
   2.640700e+05  -1.286079e+05
   3.184895e+05  -3.582362e+04
   1.386345e+05   3.801581e+04
  -4.189013e+04   7.518816e+04
  -4.351205e+04   5.219379e+04
   5.558093e+04   1.758743e+04
   2.718079e+04   4.306992e+04
  -1.888568e+05   8.224062e+04
  -3.508600e+05  -7.222880e+03
  -1.811163e+05  -2.408581e+05
   2.633664e+05  -4.001521e+05
   5.942861e+05  -2.539497e+05
   5.027340e+05   1.418823e+05
   8.815079e+04   4.642247e+05
  -2.786128e+05   4.581985e+05
  -3.553163e+05   1.886911e+05
  -2.107209e+05  -6.632650e+04
  -5.428376e+04  -1.212310e+05
  -3.089238e+03  -4.069942e+04
  -3.697626e+04  -1.715158e+04
  -8.056389e+04  -1.347332e+05
  -6.032095e+04  -2.708923e+05
   6.020929e+04  -2.306337e+05
   2.191241e+05   2.516076e+04
   2.556745e+05   3.021724e+05
   6.386440e+04   3.478402e+05
  -2.338005e+05   1.063577e+05
  -3.480968e+05  -2.202702e+05
  -1.266957e+05  -3.671141e+05
   2.382191e+05  -2.421665e+05
   3.866536e+05   2.589602e+04
   1.886129e+05   2.299686e+05
  -1.041200e+05   2.512553e+05
  -1.552082e+05   1.250631e+05
   5.396738e+04  -6.397197e+03
   2.087048e+05  -1.215120e+04
   5.577819e+04   1.093556e+05
  -2.802565e+05   2.140892e+05
  -4.472334e+05   1.459973e+05
  -2.797387e+05  -8.885707e+04
   3.725981e+04  -2.994621e+05
   2.162638e+05  -2.908974e+05
   1.718975e+05  -7.041165e+04
   2.942586e+04   1.480667e+05
  -7.786674e+04   1.585262e+05
  -1.147043e+05  -2.590048e+04
  -8.402656e+04  -1.929428e+05
   1.429448e+04  -1.654789e+05
   1.309641e+05   6.411170e+03
   1.646605e+05   1.153433e+05
   7.979094e+04   5.026265e+04
  -2.304650e+04  -7.089161e+04
  -2.677225e+04  -5.746267e+04
   3.804405e+04   1.014111e+05
   3.055091e+04   2.123250e+05
  -9.190420e+04   1.186718e+05
  -1.852670e+05  -9.857376e+04
  -9.456913e+04  -2.131276e+05
   1.246293e+05  -1.152089e+05
   2.371295e+05   7.999547e+04
   9.449272e+04   1.818809e+05
  -1.792543e+05   1.219669e+05
  -3.090859e+05  -1.915004e+04
  -1.648378e+05  -1.281791e+05
   1.006349e+05  -1.513062e+05
   2.216730e+05  -9.631310e+04
   1.045460e+05  -8.429256e+03
  -8.643064e+04   4.282312e+04
  -1.241009e+05   6.651062e+03
   3.312315e+04  -7.825679e+04
   2.090293e+05  -8.762937e+04
