
 $NMID
 id='ANONYMOUS ', fmtdat='(2E16.6)'
 volume=1.0
 tramp=1.0
 $END
  -3.910143e+07  -2.801999e+06
  -2.262654e+07  -2.328879e+07
   4.951684e+06  -2.513370e+07
   1.862069e+07  -1.138557e+07
   1.197556e+07   2.759104e+06
  -1.360333e+06   6.410814e+06
  -7.037817e+06   6.169803e+05
  -3.184854e+06  -6.508082e+06
   3.487956e+06  -7.931980e+06
   6.914801e+06  -2.438488e+06
   5.252492e+06   4.914831e+06
   3.647773e+05   6.991794e+06
  -3.369788e+06   1.683790e+06
  -2.249254e+06  -5.174501e+06
   2.622202e+06  -5.870530e+06
   5.810424e+06   5.263570e+05
   3.410133e+06   7.495090e+06
  -2.754408e+06   8.667028e+06
  -7.498481e+06   3.878126e+06
  -7.514894e+06  -2.320611e+06
  -3.661411e+06  -5.736834e+06
   4.893295e+05  -5.372670e+06
   1.622963e+06  -3.159261e+06
  -4.344967e+05  -2.033878e+06
  -2.091394e+06  -3.198622e+06
   3.581690e+05  -4.631940e+06
   5.768793e+06  -3.323278e+06
   8.548210e+06   7.292794e+05
   5.215766e+06   4.108729e+06
  -1.066070e+06   4.008204e+06
  -4.188177e+06   1.236973e+06
  -2.087905e+06  -1.352122e+06
   1.862351e+06  -1.885539e+06
   3.583222e+06  -2.143707e+05
   2.222419e+06   2.570108e+06
  -3.912695e+05   4.200059e+06
  -2.098047e+06   2.598119e+06
  -1.803297e+06  -1.157335e+06
  -1.217865e+05  -2.851421e+06
   8.556757e+05  -2.597022e+05
  -3.294254e+05   3.119160e+06
  -2.285532e+06   2.256964e+06
  -2.001079e+06  -2.197822e+06
   1.160310e+06  -4.257908e+06
   4.020029e+06  -6.353665e+05
   3.092178e+06   4.715129e+06
  -1.318079e+06   5.702243e+06
  -5.403619e+06   1.449441e+06
  -5.686360e+06  -3.517236e+06
  -1.980292e+06  -4.956409e+06
   2.742708e+06  -2.641372e+06
   4.754798e+06   7.933370e+05
   2.578957e+06   2.637849e+06
  -1.504422e+06   1.826253e+06
  -3.437549e+06  -5.002416e+05
  -1.642845e+06  -1.886909e+06
   1.235788e+06  -1.012639e+06
   1.663716e+06   7.533478e+05
  -4.126348e+05   1.070868e+06
  -1.805704e+06  -3.861382e+05
  -3.627712e+05  -1.726510e+06
   2.483755e+06  -1.371323e+06
   3.677720e+06   4.586043e+05
   1.844674e+06   2.652684e+06
  -1.799380e+06   4.140885e+06
  -4.838880e+06   3.760040e+06
  -5.392535e+06   8.665055e+05
  -3.299085e+06  -3.136567e+06
  -3.178349e+05  -5.268607e+06
   1.310532e+06  -4.128679e+06
   1.053651e+06  -1.673481e+06
   4.778512e+05  -6.907750e+05
   1.112461e+06  -1.262729e+06
   2.505817e+06  -1.140226e+06
   2.949150e+06   7.434799e+05
   1.629736e+06   2.692173e+06
  -5.795892e+05   2.482559e+06
  -2.102688e+06   7.448474e+04
  -1.829294e+06  -2.443280e+06
   2.540587e+05  -2.981158e+06
   2.797271e+06  -1.149144e+06
   3.743462e+06   1.640841e+06
   2.192044e+06   3.386784e+06
  -4.091943e+05   3.149849e+06
  -1.773772e+06   1.788272e+06
  -1.511166e+06   8.648570e+05
  -1.406107e+06   8.263299e+05
  -2.698951e+06   6.616479e+05
  -4.105792e+06  -6.068847e+05
  -3.345532e+06  -2.617945e+06
  -1.159074e+05  -4.034308e+06
   3.300196e+06  -3.778478e+06
   4.339094e+06  -1.801208e+06
   2.568062e+06   8.204898e+05
  -1.381256e+05   2.364214e+06
  -1.429682e+06   1.748830e+06
  -5.305016e+05  -1.784630e+05
   1.213646e+06  -1.221745e+06
   1.802206e+06  -3.031139e+05
   7.048171e+05   1.162104e+06
  -6.498050e+05   1.117443e+06
  -6.357643e+05  -3.261140e+05
   6.736526e+05  -9.841026e+05
   1.714363e+06   4.915160e+05
   1.225211e+06   2.814121e+06
  -6.295813e+05   3.583963e+06
  -2.668581e+06   1.923137e+06
  -3.619700e+06  -8.724207e+05
  -2.794279e+06  -2.812003e+06
  -6.160528e+05  -2.859730e+06
   1.360698e+06  -1.487870e+06
   1.660099e+06  -1.298918e+05
   4.923778e+05   5.453055e+04
  -3.544722e+05  -7.447090e+05
   3.544313e+05  -1.227108e+06
   1.734698e+06  -5.183628e+05
   1.911905e+06   7.622884e+05
   4.335106e+05   1.282105e+06
  -1.124094e+06   5.997924e+05
  -1.009934e+06  -4.307575e+05
   7.310621e+05  -7.158960e+05
   2.325508e+06   5.344986e+04
   2.061336e+06   1.329760e+06
  -7.386724e+04   2.172260e+06
  -2.341020e+06   1.808453e+06
  -2.806514e+06   2.982262e+05
  -1.172436e+06  -1.201692e+06
   8.919936e+05  -1.350676e+06
   1.410908e+06  -1.187656e+05
   9.515865e+04   1.007620e+06
  -1.494482e+06   6.810991e+05
  -1.710117e+06  -7.269017e+05
  -4.517526e+05  -1.621095e+06
   9.711105e+05  -1.088677e+06
   1.273980e+06   1.512747e+05
   3.560917e+05   7.120212e+05
  -7.096569e+05   6.238511e+04
  -6.820757e+05  -1.041446e+06
   6.343367e+05  -1.391899e+06
   2.031500e+06  -4.642418e+05
   1.994063e+06   1.106362e+06
   3.500518e+05   2.054294e+06
  -1.407452e+06   1.613292e+06
  -1.698704e+06   2.399180e+05
  -5.450283e+05  -8.374100e+05
   6.323199e+05  -8.287976e+05
   7.150523e+05  -7.070825e+04
  -3.850502e+04   4.932883e+05
  -5.909318e+05   3.639962e+05
  -3.580964e+05  -7.834536e+04
   3.044729e+05  -1.040588e+05
   5.606777e+05   5.074293e+05
  -1.076289e+05   1.143023e+06
  -1.346522e+06   9.067006e+05
  -2.074453e+06  -4.174434e+05
  -1.432926e+06  -1.956174e+06
   2.472897e+05  -2.457330e+06
   1.645394e+06  -1.506909e+06
   1.793642e+06   5.155464e+04
   1.025164e+06   9.914751e+05
   3.912344e+05   8.980585e+05
   3.664072e+05   3.932673e+05
   4.647934e+05   2.834456e+05
   4.777943e+04   6.695915e+05
  -8.367717e+05   9.164024e+05
  -1.478739e+06   3.967857e+05
  -1.164142e+06  -7.523183e+05
   1.776742e+05  -1.584663e+06
   1.746295e+06  -1.153767e+06
   2.304390e+06   4.793859e+05
   1.188505e+06   2.089611e+06
  -9.251762e+05   2.342659e+06
  -2.467712e+06   1.081578e+06
  -2.400422e+06  -5.541166e+05
  -1.124838e+06  -1.329831e+06
   1.023946e+05  -1.090517e+06
   4.892268e+05  -6.632670e+05
   2.885780e+05  -7.624320e+05
   2.331865e+05  -1.202044e+06
   6.679968e+05  -1.190531e+06
   1.245881e+06  -2.655488e+05
   1.302992e+06   1.121275e+06
   5.191296e+05   1.924175e+06
  -6.636278e+05   1.440509e+06
  -1.303891e+06   7.770352e+03
  -8.286490e+05  -1.239233e+06
   3.168871e+05  -1.378361e+06
   1.050876e+06  -4.931149e+05
   7.726560e+05   5.393865e+05
  -2.899172e+04   9.685203e+05
  -3.951370e+05   7.827773e+05
  -2.173525e+04   4.718253e+05
   4.070550e+05   3.808938e+05
   3.807934e+04   4.027785e+05
  -1.103108e+06   2.096986e+05
  -1.993312e+06  -3.390057e+05
  -1.605993e+06  -1.012294e+06
  -2.761459e+04  -1.361087e+06
   1.507989e+06  -1.081652e+06
   1.798877e+06  -3.187808e+05
   8.522441e+05   3.793187e+05
  -2.276099e+05   5.047595e+05
  -4.757434e+05   7.416453e+04
   2.215188e+04  -3.542337e+05
   4.926680e+05  -2.362555e+05
   4.654264e+05   3.559735e+05
   1.560698e+05   7.694966e+05
   4.449407e+03   5.008259e+05
   1.425597e+05  -1.578742e+05
   3.465850e+05  -3.774777e+05
   2.905525e+05   2.255138e+05
  -1.979179e+05   1.028791e+06
  -9.192041e+05   1.043662e+06
  -1.275958e+06   8.352557e+04
  -7.395073e+05  -9.508379e+05
   4.458638e+05  -1.057721e+06
   1.222721e+06  -2.267332e+05
   7.209772e+05   6.199796e+05
  -6.922397e+05   6.596380e+05
  -1.636063e+06  -6.378292e+04
  -1.120827e+06  -8.473820e+05
   4.054213e+05  -1.056530e+06
   1.530222e+06  -5.928240e+05
   1.317362e+06   1.336886e+05
   1.777003e+05   5.375490e+05
  -6.448803e+05   3.048806e+05
  -3.524998e+05  -2.785913e+05
   6.464086e+05  -4.823171e+05
   1.196315e+06   1.663060e+05
   5.867049e+05   1.250409e+06
  -7.218485e+05   1.694989e+06
  -1.571517e+06   8.213335e+05
  -1.263241e+06  -8.235645e+05
  -1.673710e+05  -1.847506e+06
   7.704314e+05  -1.351852e+06
   9.490055e+05   1.389042e+05
   4.760285e+05   1.206708e+06
  -1.629113e+05   1.015656e+06
  -5.491857e+05   1.045985e+05
  -5.223576e+05  -3.974994e+05
  -2.237347e+05  -1.537022e+05
  -2.701738e+04   1.113511e+05
  -1.944678e+05  -2.768204e+05
  -4.720751e+05  -9.803051e+05
  -2.479185e+05  -1.106823e+06
   6.552429e+05  -3.942497e+05
   1.509076e+06   4.978590e+05
   1.356900e+06   8.650544e+05
   1.838999e+05   7.008407e+05
  -9.330915e+05   4.151408e+05
  -1.024797e+06   1.941911e+05
  -3.165047e+05  -3.325648e+04
   1.743407e+05  -2.248503e+05
  -2.861882e+04  -2.320288e+05
  -3.414917e+05  -1.283461e+05
  -2.340247e+04  -1.445206e+05
   7.549234e+05  -2.125245e+05
   1.061094e+06   5.369360e+04
   3.277350e+05   7.167845e+05
  -9.503816e+05   1.152328e+06
  -1.709742e+06   6.811607e+05
  -1.353139e+06  -5.176381e+05
  -2.271154e+05  -1.453965e+06
   7.958676e+05  -1.361732e+06
   1.085883e+06  -4.823816e+05
   6.778208e+05   2.850652e+05
   1.009538e+05   3.710339e+05
  -1.341685e+05   3.658412e+04
   5.600087e+04  -5.567115e+04
   3.254362e+05   3.573275e+05
   2.605575e+05   8.247148e+05
  -2.117840e+05   6.769208e+05
  -7.103693e+05  -1.776268e+05
  -7.027475e+05  -1.031771e+06
  -2.806758e+04  -1.057400e+06
   8.178278e+05  -1.847554e+05
   1.028507e+06   8.128485e+05
   2.926939e+05   1.120757e+06
  -7.576407e+05   6.334055e+05
  -1.112119e+06  -1.215622e+05
  -4.890076e+05  -6.010206e+05
   3.113950e+05  -6.314060e+05
   3.488649e+05  -3.467297e+05
  -3.072378e+05  -2.656322e+04
  -6.779370e+05   1.978490e+04
  -1.231114e+05  -3.098413e+05
   8.547561e+05  -6.813139e+05
   1.244220e+06  -5.554733e+05
   7.146258e+05   1.646542e+05
  -1.249398e+05   8.639316e+05
  -5.393549e+05   8.320396e+05
  -3.918391e+05   1.100767e+05
  -2.053328e+04  -5.152017e+05
   2.675290e+05  -4.122662e+05
   3.660593e+05   2.027801e+05
   2.394401e+05   5.969674e+05
  -8.229993e+04   3.945410e+05
  -3.988840e+05  -7.447089e+04
  -4.573265e+05  -2.671641e+05
  -2.398424e+05  -7.507232e+04
   2.699346e+03   1.217198e+05
   7.037077e+04  -2.810932e+04
   5.411601e+04  -4.004798e+05
   1.611783e+05  -5.244880e+05
   3.725713e+05  -1.373664e+05
   4.073247e+05   4.610137e+05
   6.601352e+04   6.844736e+05
  -4.500591e+05   2.930112e+05
  -6.459206e+05  -3.349443e+05
  -2.258759e+05  -6.125482e+05
   5.130730e+05  -3.523422e+05
   8.747814e+05   1.215897e+05
   4.667206e+05   3.991678e+05
  -3.142472e+05   3.676741e+05
  -6.516026e+05   1.746640e+05
  -2.217150e+05  -1.641629e+02
   4.100645e+05  -3.420593e+04
   4.421763e+05   1.209405e+05
  -2.130592e+05   3.300827e+05
  -8.304069e+05   2.697559e+05
