
 $NMID
 id='ANONYMOUS ', fmtdat='(2E16.6)'
 volume=1.0
 tramp=1.0
 $END
  -2.391532e+07   1.473411e+06
  -1.700245e+07  -1.089691e+07
  -6.957762e+05  -1.572149e+07
   1.042286e+07  -1.046625e+07
   9.011206e+06  -8.572245e+05
   5.415808e+05   4.524931e+06
  -5.047120e+06   2.088647e+06
  -3.698449e+06  -4.010175e+06
   1.250505e+06  -6.633102e+06
   4.579984e+06  -2.967660e+06
   3.936204e+06   2.959602e+06
   5.950767e+05   4.904031e+06
  -2.195779e+06   1.117691e+06
  -1.797736e+06  -3.995047e+06
   1.418141e+06  -4.837468e+06
   4.088108e+06  -5.179699e+05
   3.137012e+06   4.660278e+06
  -8.971056e+05   6.042296e+06
  -4.436991e+06   3.064731e+06
  -4.684274e+06  -1.065178e+06
  -2.247310e+06  -3.121425e+06
  -1.351703e+04  -2.685537e+06
  -1.632377e+04  -1.701634e+06
  -1.523322e+06  -1.973130e+06
  -1.887119e+06  -3.288905e+06
   6.238972e+05  -3.818834e+06
   4.550307e+06  -2.222113e+06
   6.193255e+06   7.374453e+05
   3.527638e+06   2.816373e+06
  -1.117465e+06   2.492289e+06
  -3.260547e+06   3.613126e+05
  -1.196752e+06  -1.563766e+06
   2.283016e+06  -1.630819e+06
   3.401543e+06   2.480939e+05
   1.548296e+06   2.562870e+06
  -8.112561e+05   3.256347e+06
  -1.481419e+06   1.526404e+06
  -5.975153e+05  -1.001043e+06
   3.421965e+05  -1.577118e+06
   2.931958e+05   5.063529e+05
  -6.948083e+05   2.652636e+06
  -1.753205e+06   1.890718e+06
  -1.726524e+06  -1.234102e+06
  -1.263693e+05  -3.025830e+06
   1.934130e+06  -1.168502e+06
   2.296569e+06   2.347837e+06
  -2.063837e+04   3.627890e+06
  -3.283079e+06   1.362463e+06
  -4.388112e+06  -2.080277e+06
  -2.009569e+06  -3.600740e+06
   1.880056e+06  -2.347130e+06
   3.866005e+06   1.519270e+05
   2.417727e+06   1.803893e+06
  -7.284424e+05   1.587616e+06
  -2.460691e+06   9.168237e+04
  -1.446322e+06  -1.090561e+06
   7.024051e+05  -8.148505e+05
   1.404331e+06   4.615338e+05
   1.834233e+04   1.180537e+06
  -1.550181e+06   4.573390e+05
  -1.174575e+06  -9.363405e+05
   9.658488e+05  -1.480836e+06
   2.550145e+06  -4.694361e+05
   1.678448e+06   1.458599e+06
  -1.124139e+06   2.920039e+06
  -3.545568e+06   2.704391e+06
  -3.815751e+06   6.037471e+05
  -2.186194e+06  -2.175301e+06
  -2.880242e+05  -3.744150e+06
   6.214153e+05  -3.250315e+06
   6.558422e+05  -1.749374e+06
   7.568230e+05  -8.839661e+05
   1.445975e+06  -8.647346e+05
   2.239866e+06  -4.496644e+05
   2.211762e+06   1.021897e+06
   9.909895e+05   2.391638e+06
  -7.880299e+05   2.012768e+06
  -1.910096e+06  -1.137007e+05
  -1.486437e+06  -2.162110e+06
   2.928368e+05  -2.381564e+06
   2.144500e+06  -7.456156e+05
   2.639651e+06   1.292626e+06
   1.483694e+06   2.303800e+06
  -1.729204e+05   2.013094e+06
  -9.654913e+05   1.212144e+06
  -8.400078e+05   7.941351e+05
  -9.883919e+05   8.629431e+05
  -2.130414e+06   7.155560e+05
  -3.283725e+06  -3.087242e+05
  -2.734258e+06  -1.983315e+06
  -1.675819e+05  -3.234950e+06
   2.638611e+06  -3.039788e+06
   3.488657e+06  -1.341858e+06
   1.954939e+06   7.811117e+05
  -2.923230e+05   1.869675e+06
  -1.231623e+06   1.272972e+06
  -3.822837e+05  -1.918631e+05
   1.000601e+06  -9.391614e+05
   1.390867e+06  -2.574181e+05
   5.065674e+05   8.593384e+05
  -5.722259e+05   8.835092e+05
  -6.295475e+05  -2.847355e+05
   4.404694e+05  -1.039649e+06
   1.552459e+06  -8.037135e+03
   1.466147e+06   2.133739e+06
  -9.146883e+04   3.253957e+06
  -2.154216e+06   2.078200e+06
  -3.241689e+06  -4.928207e+05
  -2.522246e+06  -2.406924e+06
  -5.457244e+05  -2.466840e+06
   1.141758e+06  -1.205963e+06
   1.355357e+06  -6.413716e+04
   3.976913e+05   4.092600e+04
  -3.000353e+05  -5.953495e+05
   2.117578e+05  -9.686357e+05
   1.308647e+06  -4.686099e+05
   1.545681e+06   5.015314e+05
   4.302329e+05   9.897913e+05
  -8.912839e+05   5.318799e+05
  -8.892708e+05  -3.563290e+05
   5.826182e+05  -7.141260e+05
   2.027322e+06  -7.369450e+04
   1.844068e+06   1.122249e+06
  -2.967721e+03   1.903359e+06
  -1.929286e+06   1.565271e+06
  -2.295109e+06   2.880101e+05
  -9.680766e+05  -9.166794e+05
   6.491981e+05  -1.050539e+06
   1.057489e+06  -1.278295e+05
   6.612229e+04   7.550512e+05
  -1.176976e+06   5.582940e+05
  -1.411831e+06  -5.357031e+05
  -4.530617e+05  -1.327241e+06
   7.485582e+05  -9.844588e+05
   1.090653e+06   3.460565e+04
   3.707819e+05   5.734306e+05
  -5.384620e+05   9.208639e+04
  -5.507077e+05  -8.121029e+05
   5.077063e+05  -1.108747e+06
   1.628173e+06  -3.683558e+05
   1.600712e+06   8.780730e+05
   3.081031e+05   1.641769e+06
  -1.092344e+06   1.327580e+06
  -1.370418e+06   2.431966e+05
  -4.842446e+05  -6.696847e+05
   4.955350e+05  -7.028380e+05
   6.157009e+05  -4.281244e+04
  -2.368523e+04   4.855098e+05
  -5.632304e+05   3.487730e+05
  -3.963266e+05  -1.303250e+05
   2.305938e+05  -2.135124e+05
   5.298120e+05   3.386660e+05
  -9.864168e+03   9.368259e+05
  -1.063435e+06   7.735361e+05
  -1.685176e+06  -3.031949e+05
  -1.176253e+06  -1.559217e+06
   1.850171e+05  -2.004872e+06
   1.351560e+06  -1.283531e+06
   1.524909e+06   8.812023e+03
   8.962535e+05   8.796738e+05
   2.939470e+05   8.558407e+05
   2.024484e+05   3.600900e+05
   3.160684e+05   1.611190e+05
   5.760705e+04   4.856488e+05
  -6.492264e+05   7.751397e+05
  -1.226736e+06   3.709350e+05
  -1.000103e+06  -6.369655e+05
   1.204329e+05  -1.366149e+06
   1.431518e+06  -9.952588e+05
   1.904175e+06   3.648901e+05
   1.027356e+06   1.686706e+06
  -6.660006e+05   1.930276e+06
  -1.964605e+06   9.633329e+05
  -2.010336e+06  -3.762712e+05
  -1.014776e+06  -1.105976e+06
   5.983497e+04  -9.834457e+05
   4.766554e+05  -5.871904e+05
   3.210408e+05  -5.658584e+05
   1.987874e+05  -8.925548e+05
   4.928479e+05  -9.321279e+05
   9.687239e+05  -2.251424e+05
   1.046997e+06   8.970642e+05
   4.261652e+05   1.554939e+06
  -5.352854e+05   1.168494e+06
  -1.069229e+06   2.689542e+04
  -7.133123e+05  -9.761290e+05
   1.952070e+05  -1.136957e+06
   8.186906e+05  -4.909088e+05
   6.646234e+05   3.403230e+05
   6.772476e+04   7.644673e+05
  -2.423548e+05   6.838586e+05
   2.702991e+03   4.278831e+05
   3.102334e+05   3.151906e+05
   2.137944e+04   3.281265e+05
  -8.695172e+05   2.014625e+05
  -1.587241e+06  -2.243812e+05
  -1.321156e+06  -7.798715e+05
  -9.758220e+04  -1.088834e+06
   1.149690e+06  -8.988565e+05
   1.451041e+06  -3.168705e+05
   7.407976e+05   2.457196e+05
  -1.413196e+05   3.929434e+05
  -3.798165e+05   9.768093e+04
   1.705666e+04  -2.397062e+05
   4.122190e+05  -1.732312e+05
   3.706145e+05   2.828996e+05
   7.795290e+04   6.132067e+05
  -3.875207e+04   3.879973e+05
   1.346527e+05  -1.585831e+05
   3.327397e+05  -3.317257e+05
   2.485364e+05   1.787414e+05
  -1.834715e+05   8.393309e+05
  -7.302351e+05   8.439772e+05
  -9.626869e+05   7.135612e+04
  -5.490469e+05  -7.408204e+05
   3.335193e+05  -8.152282e+05
   9.352802e+05  -1.606063e+05
   5.728529e+05   5.095613e+05
  -5.490353e+05   5.543204e+05
  -1.360454e+06  -2.437404e+04
  -9.835764e+05  -6.970345e+05
   2.941038e+05  -9.209962e+05
   1.282356e+06  -5.518654e+05
   1.129874e+06   8.518994e+04
   1.669561e+05   4.582895e+05
  -5.269095e+05   2.772007e+05
  -2.796986e+05  -2.017755e+05
   5.330151e+05  -3.609678e+05
   9.494336e+05   1.626262e+05
   4.289303e+05   1.009330e+06
  -6.215891e+05   1.334471e+06
  -1.281114e+06   6.268520e+05
  -1.016210e+06  -6.822042e+05
  -1.283203e+05  -1.508326e+06
   6.359666e+05  -1.125865e+06
   7.954787e+05   8.488042e+04
   4.240936e+05   9.914725e+05
  -1.007502e+05   8.690970e+05
  -4.429505e+05   1.097113e+05
  -4.522497e+05  -3.429762e+05
  -2.099432e+05  -1.505844e+05
  -1.427768e+04   1.067756e+05
  -1.233580e+05  -1.801165e+05
  -3.736583e+05  -7.787980e+05
  -2.399316e+05  -9.268339e+05
   4.911560e+05  -3.513948e+05
   1.235351e+06   4.066970e+05
   1.143325e+06   7.193198e+05
   1.594623e+05   5.642029e+05
  -7.890243e+05   3.196906e+05
  -8.516943e+05   1.662409e+05
  -2.394743e+05   6.177502e+03
   1.527084e+05  -1.733846e+05
  -5.250060e+04  -2.262489e+05
  -3.078963e+05  -1.457951e+05
  -1.972158e+03  -1.121326e+05
   6.491430e+05  -1.353916e+05
   8.493252e+05   5.454943e+04
   2.078251e+05   5.458909e+05
  -7.992992e+05   8.892127e+05
  -1.344374e+06   5.320891e+05
  -1.033286e+06  -4.210456e+05
  -1.614618e+05  -1.177659e+06
   6.297323e+05  -1.092969e+06
   8.662481e+05  -3.610601e+05
   5.434741e+05   2.578524e+05
   6.377097e+04   2.915971e+05
  -1.325495e+05  -1.144091e+04
   4.536347e+04  -7.885749e+04
   2.877552e+05   2.866784e+05
   2.258750e+05   6.760293e+05
  -1.773247e+05   5.349991e+05
  -5.696371e+05  -1.768338e+05
  -5.289205e+05  -8.526895e+05
   2.297354e+04  -8.304965e+05
   6.683145e+05  -9.708687e+04
   7.993495e+05   6.908752e+05
   2.077177e+05   8.932795e+05
  -6.078297e+05   4.773706e+05
  -8.742198e+05  -1.046762e+05
  -3.835553e+05  -4.506815e+05
   2.346826e+05  -4.752929e+05
   2.474749e+05  -2.859134e+05
  -2.769740e+05  -5.289663e+04
  -5.548243e+05   3.327921e+03
  -8.933787e+04  -2.383857e+05
   6.961288e+05  -5.527917e+05
   9.906542e+05  -4.855104e+05
   5.551344e+05   9.152062e+04
  -1.009881e+05   6.825417e+05
  -4.016570e+05   6.706781e+05
  -2.699561e+05   7.834666e+04
   1.120499e+04  -4.223510e+05
   2.157173e+05  -3.097080e+05
   2.821894e+05   1.979962e+05
   1.852024e+05   4.824369e+05
  -6.335064e+04   2.854594e+05
  -3.141156e+05  -7.539860e+04
  -3.675921e+05  -1.906744e+05
  -2.024185e+05  -4.174776e+04
  -2.778535e+03   6.593219e+04
   8.061113e+04  -7.430088e+04
   9.953930e+04  -3.232258e+05
   1.794102e+05  -3.585920e+05
   2.947247e+05  -4.134516e+04
   2.664105e+05   3.928776e+05
  -9.481537e+03   5.318753e+05
  -3.740080e+05   2.107252e+05
  -4.884199e+05  -2.854520e+05
  -1.565019e+05  -5.012318e+05
   4.044215e+05  -2.814462e+05
   6.799320e+05   1.087167e+05
   3.646783e+05   3.213603e+05
  -2.446941e+05   2.709487e+05
  -5.047631e+05   1.116049e+05
  -1.513147e+05   5.071677e+03
   3.547551e+05   1.724024e+04
   3.535351e+05   1.429160e+05
  -2.130706e+05   2.734148e+05
  -7.192111e+05   1.893636e+05
