
 $NMID
 id='ANONYMOUS ', fmtdat='(2E16.6)'
 volume=1.0
 tramp=1.0
 $END
  -4.410147e+07  -1.193824e+06
  -2.597342e+07  -2.711780e+07
   5.959546e+06  -2.928714e+07
   2.139112e+07  -1.171202e+07
   1.294518e+07   4.816783e+06
  -2.311465e+06   7.217210e+06
  -7.691492e+06  -4.938332e+05
  -2.542816e+06  -7.504588e+06
   4.553913e+06  -7.727975e+06
   7.580642e+06  -1.881989e+06
   5.593274e+06   5.065247e+06
   5.706079e+05   7.074794e+06
  -3.340164e+06   2.074449e+06
  -2.227242e+06  -4.717295e+06
   2.923317e+06  -5.546242e+06
   6.245588e+06   9.299173e+05
   3.551755e+06   8.117208e+06
  -3.030214e+06   9.364595e+06
  -8.089152e+06   4.514051e+06
  -8.471835e+06  -1.949031e+06
  -4.847488e+06  -6.092156e+06
  -1.562952e+05  -6.582858e+06
   2.203988e+06  -4.352086e+06
   8.740065e+05  -2.089693e+06
  -1.364729e+06  -2.214242e+06
  -6.659721e+04  -3.867371e+06
   4.908733e+06  -3.579665e+06
   8.211437e+06  -5.629064e+04
   5.644107e+06   3.660586e+06
  -2.231830e+05   4.169396e+06
  -3.478691e+06   1.870178e+06
  -2.109667e+06  -4.445860e+05
   9.190213e+05  -1.202702e+06
   2.465193e+06  -4.067423e+05
   2.005306e+06   1.634811e+06
   2.866070e+05   3.604645e+06
  -1.712041e+06   3.009500e+06
  -2.416043e+06  -4.769840e+05
  -9.742481e+05  -2.997147e+06
   7.604572e+05  -1.147691e+06
   1.185667e+05   2.421617e+06
  -2.102780e+06   2.035254e+06
  -2.001585e+06  -2.487532e+06
   1.742282e+06  -4.762959e+06
   5.161699e+06  -7.127638e+05
   3.811144e+06   5.415986e+06
  -1.532013e+06   6.579528e+06
  -5.903750e+06   1.790371e+06
  -5.721071e+06  -3.619091e+06
  -1.683132e+06  -4.957489e+06
   2.812912e+06  -2.375131e+06
   4.470597e+06   1.084838e+06
   2.193495e+06   2.778242e+06
  -1.827950e+06   1.803751e+06
  -3.629557e+06  -6.816061e+05
  -1.611215e+06  -2.123337e+06
   1.360522e+06  -1.086448e+06
   1.512761e+06   8.076983e+05
  -8.492193e+05   8.433478e+05
  -1.929600e+06  -1.092670e+06
   2.468312e+05  -2.432183e+06
   3.371308e+06  -1.460807e+06
   4.118951e+06   9.143954e+05
   1.872230e+06   3.070476e+06
  -1.599283e+06   4.292143e+06
  -4.383800e+06   3.949388e+06
  -5.232729e+06   1.261714e+06
  -3.642829e+06  -2.803830e+06
  -6.336901e+05  -5.176159e+06
   1.451554e+06  -4.001927e+06
   1.296734e+06  -1.224495e+06
   2.220762e+05  -1.109411e+05
   3.481201e+05  -1.005473e+06
   1.741326e+06  -1.408808e+06
   2.576283e+06   9.837715e+04
   1.705201e+06   1.974216e+06
  -1.568975e+05   2.042306e+06
  -1.571409e+06   1.685371e+05
  -1.570375e+06  -1.952827e+06
   6.277999e+04  -2.631755e+06
   2.472862e+06  -1.316937e+06
   3.743956e+06   1.204562e+06
   2.520317e+06   3.222003e+06
  -1.679302e+05   3.396454e+06
  -1.861818e+06   2.092611e+06
  -1.737042e+06   9.068943e+05
  -1.472901e+06   6.528477e+05
  -2.522088e+06   4.986452e+05
  -3.781722e+06  -6.049036e+05
  -3.063104e+06  -2.391905e+06
  -1.329734e+05  -3.638405e+06
   2.863906e+06  -3.450695e+06
   3.766565e+06  -1.810028e+06
   2.350148e+06   4.960463e+05
   1.241607e+05   2.045188e+06
  -1.084869e+06   1.677118e+06
  -4.958761e+05  -7.768127e+04
   1.006121e+06  -1.147365e+06
   1.663697e+06  -3.305822e+05
   7.535544e+05   1.060721e+06
  -4.986628e+05   1.001043e+06
  -4.510485e+05  -3.160943e+05
   8.040561e+05  -7.092403e+05
   1.584677e+06   8.741290e+05
   7.643986e+05   2.854009e+06
  -1.070181e+06   3.068183e+06
  -2.602573e+06   1.260901e+06
  -3.035269e+06  -1.066241e+06
  -2.213527e+06  -2.443352e+06
  -4.802506e+05  -2.398035e+06
   1.135806e+06  -1.322695e+06
   1.434944e+06  -1.822602e+05
   4.395826e+05   4.118503e+04
  -3.216805e+05  -6.664525e+05
   3.469131e+05  -1.158588e+06
   1.643966e+06  -4.996063e+05
   1.773747e+06   7.455124e+05
   3.608749e+05   1.216448e+06
  -1.026253e+06   5.224010e+05
  -8.328622e+05  -3.899162e+05
   7.099238e+05  -5.260084e+05
   1.982219e+06   1.851766e+05
   1.661315e+06   1.181491e+06
  -1.498211e+05   1.815988e+06
  -2.055430e+06   1.535659e+06
  -2.481715e+06   2.656158e+05
  -1.074833e+06  -1.104590e+06
   8.099229e+05  -1.295131e+06
   1.346190e+06  -1.484753e+05
   1.482543e+05   9.440749e+05
  -1.345005e+06   6.460460e+05
  -1.531997e+06  -6.731924e+05
  -3.424801e+05  -1.458914e+06
   9.285032e+05  -9.062579e+05
   1.122271e+06   2.228890e+05
   2.538758e+05   6.708672e+05
  -6.836775e+05   5.138763e+04
  -6.450616e+05  -9.354159e+05
   5.267167e+05  -1.266328e+06
   1.800003e+06  -4.705552e+05
   1.811293e+06   9.469051e+05
   3.406880e+05   1.845315e+06
  -1.269495e+06   1.462317e+06
  -1.530436e+06   2.027641e+05
  -4.636196e+05  -7.622790e+05
   5.757353e+05  -7.265745e+05
   5.903628e+05  -7.234407e+04
  -7.462298e+04   3.598264e+05
  -4.620217e+05   2.397121e+05
  -1.822287e+05  -5.251703e+04
   3.490819e+05   1.709461e+04
   4.712711e+05   5.455182e+05
  -1.510655e+05   1.042716e+06
  -1.218508e+06   8.068458e+05
  -1.857588e+06  -3.619315e+05
  -1.306862e+06  -1.733323e+06
   1.905017e+05  -2.173845e+06
   1.440568e+06  -1.297320e+06
   1.536757e+06   7.854729e+04
   8.236573e+05   8.183421e+05
   3.182129e+05   6.521292e+05
   3.999927e+05   2.509326e+05
   5.103125e+05   2.742003e+05
   6.753529e+04   6.544734e+05
  -7.654369e+05   8.105867e+05
  -1.297024e+06   3.187925e+05
  -9.752198e+05  -6.443881e+05
   1.901094e+05  -1.338101e+06
   1.535855e+06  -9.897192e+05
   2.024750e+06   4.182256e+05
   1.036654e+06   1.863780e+06
  -8.664959e+05   2.105029e+06
  -2.239930e+06   9.431795e+05
  -2.111153e+06  -5.448255e+05
  -9.089581e+05  -1.180984e+06
   1.428359e+05  -8.839442e+05
   3.688537e+05  -5.070028e+05
   1.292332e+05  -6.839022e+05
   1.296102e+05  -1.140606e+06
   5.957497e+05  -1.123395e+06
   1.140894e+06  -2.724313e+05
   1.190151e+06   9.715248e+05
   4.957518e+05   1.698552e+06
  -5.605647e+05   1.288249e+06
  -1.152327e+06   7.550866e+03
  -7.336071e+05  -1.127888e+06
   3.211668e+05  -1.239215e+06
   9.988492e+05  -3.883350e+05
   7.088306e+05   5.734000e+05
  -8.169735e+04   9.246206e+05
  -4.333759e+05   6.945606e+05
  -5.299406e+04   3.854386e+05
   3.825197e+05   3.119438e+05
   4.973875e+04   3.484213e+05
  -1.010733e+06   1.906655e+05
  -1.822501e+06  -2.919581e+05
  -1.443717e+06  -9.110896e+05
   1.122895e+04  -1.256404e+06
   1.391905e+06  -1.004645e+06
   1.622077e+06  -2.667138e+05
   7.467269e+05   4.030773e+05
  -2.234051e+05   4.889552e+05
  -4.443288e+05   4.260010e+04
  -1.131330e+04  -3.587426e+05
   4.092133e+05  -2.287987e+05
   4.276870e+05   3.074689e+05
   2.046661e+05   6.615317e+05
   6.348216e+04   4.374687e+05
   1.207374e+05  -1.031464e+05
   2.628365e+05  -2.891831e+05
   2.508473e+05   2.034581e+05
  -1.349858e+05   8.955836e+05
  -8.038813e+05   9.510020e+05
  -1.195594e+06   1.343790e+05
  -7.364910e+05  -8.271414e+05
   3.768102e+05  -9.986863e+05
   1.116943e+06  -2.764384e+05
   6.570502e+05   5.209507e+05
  -6.206470e+05   5.848340e+05
  -1.429721e+06  -6.758439e+04
  -9.314924e+05  -7.565686e+05
   4.039765e+05  -8.991660e+05
   1.338827e+06  -4.652807e+05
   1.120945e+06   1.461740e+05
   1.344285e+05   4.624586e+05
  -5.760297e+05   2.521601e+05
  -3.359639e+05  -2.586667e+05
   5.372489e+05  -4.632910e+05
   1.065703e+06   8.567255e+04
   5.904279e+05   1.073147e+06
  -5.488649e+05   1.531347e+06
  -1.345695e+06   7.906937e+05
  -1.133064e+06  -6.849955e+05
  -1.862925e+05  -1.616128e+06
   6.590245e+05  -1.176271e+06
   8.316669e+05   1.436498e+05
   4.021805e+05   1.064806e+06
  -1.770203e+05   8.746049e+05
  -4.985515e+05   8.141821e+04
  -4.318014e+05  -3.363537e+05
  -1.604064e+05  -1.218742e+05
  -3.765370e+04   8.748295e+04
  -2.333118e+05  -2.644945e+05
  -4.541182e+05  -8.675307e+05
  -1.891410e+05  -9.663996e+05
   6.259840e+05  -3.529306e+05
   1.331307e+06   4.132937e+05
   1.166600e+06   7.433710e+05
   1.689110e+05   6.249988e+05
  -7.769512e+05   3.843763e+05
  -8.869846e+05   1.729265e+05
  -3.140401e+05  -4.528125e+04
   1.343290e+05  -2.047375e+05
   1.795616e+04  -1.839775e+05
  -2.531623e+05  -8.338848e+04
  -4.245461e+04  -1.229035e+05
   6.084989e+05  -2.183419e+05
   9.436508e+05   9.845702e+03
   3.773660e+05   6.297633e+05
  -7.661657e+05   1.065135e+06
  -1.526620e+06   6.775485e+05
  -1.265966e+06  -3.955502e+05
  -2.518997e+05  -1.269837e+06
   6.849042e+05  -1.238299e+06
   9.475521e+05  -4.840900e+05
   5.965415e+05   2.097662e+05
   1.187688e+05   3.250235e+05
  -7.368244e+04   6.130687e+04
   6.617465e+04  -1.854204e+04
   2.739553e+05   3.247258e+05
   2.293929e+05   7.245789e+05
  -1.609309e+05   6.129162e+05
  -6.202975e+05  -1.083192e+05
  -6.721174e+05  -8.612468e+05
  -1.033129e+05  -9.354832e+05
   6.866066e+05  -2.266881e+05
   9.413062e+05   6.497586e+05
   3.172095e+05   9.837966e+05
  -6.440197e+05   6.125973e+05
  -1.008152e+06  -6.484503e+04
  -4.758844e+05  -5.490664e+05
   2.598870e+05  -6.083228e+05
   3.372196e+05  -3.278034e+05
  -2.292601e+05  -2.601358e+03
  -5.872196e+05   4.033447e+04
  -1.316396e+05  -2.779563e+05
   7.392426e+05  -6.174149e+05
   1.124423e+06  -4.924349e+05
   6.800629e+05   1.580385e+05
  -8.400710e+04   7.833201e+05
  -4.916585e+05   7.688178e+05
  -3.833879e+05   1.405877e+05
  -5.224634e+04  -4.359405e+05
   2.163829e+05  -3.935183e+05
   3.236641e+05   1.325744e+05
   2.328656e+05   5.196707e+05
  -4.986846e+04   3.846452e+05
  -3.549720e+05  -3.878201e+04
  -4.263575e+05  -2.497929e+05
  -2.160894e+05  -8.380734e+04
   2.682513e+04   1.357994e+05
   6.661741e+04   3.472596e+04
  -1.344400e+04  -3.271566e+05
   5.089937e+04  -5.040177e+05
   2.966184e+05  -1.987626e+05
   4.194099e+05   3.477274e+05
   1.436163e+05   5.922632e+05
  -3.692121e+05   2.885132e+05
  -6.035934e+05  -2.514209e+05
  -2.346415e+05  -5.185321e+05
   4.551217e+05  -3.318271e+05
   7.980235e+05   6.489775e+04
   4.347444e+05   3.384116e+05
  -2.656351e+05   3.622803e+05
  -5.789477e+05   2.081638e+05
  -2.255766e+05   1.431805e+04
   3.171642e+05  -6.915780e+04
   3.744139e+05   5.317389e+04
  -1.467792e+05   2.694082e+05
  -6.699507e+05   2.585694e+05
