
 $NMID
 id='ANONYMOUS ', fmtdat='(2E16.6)'
 volume=1.0
 tramp=1.0
 $END
  -5.339298e+07  -2.531620e+05
  -3.206852e+07  -3.282297e+07
   6.917378e+06  -3.594593e+07
   2.601645e+07  -1.414302e+07
   1.570721e+07   6.275194e+06
  -2.968647e+06   8.837996e+06
  -9.345393e+06  -9.062642e+05
  -2.851472e+06  -9.203325e+06
   5.717047e+06  -9.084519e+06
   9.166501e+06  -2.081846e+06
   6.709464e+06   5.945195e+06
   7.746674e+05   8.303646e+06
  -3.866004e+06   2.582720e+06
  -2.582523e+06  -5.356449e+06
   3.542722e+06  -6.416597e+06
   7.514623e+06   1.180386e+06
   4.293127e+06   9.716599e+06
  -3.562650e+06   1.126255e+07
  -9.628642e+06   5.598644e+06
  -1.025542e+07  -2.041503e+06
  -6.164827e+06  -7.157510e+06
  -5.393260e+05  -8.105317e+06
   2.684956e+06  -5.590745e+06
   1.490946e+06  -2.576363e+06
  -1.263479e+06  -2.287638e+06
  -1.866249e+05  -4.218983e+06
   5.405432e+06  -4.238567e+06
   9.438348e+06  -3.556515e+05
   6.748920e+06   4.072813e+06
   7.354229e+04   4.879741e+06
  -3.761474e+06   2.379172e+06
  -2.410111e+06  -1.803528e+05
   7.824058e+05  -1.088093e+06
   2.463408e+06  -4.667193e+05
   2.201440e+06   1.583731e+06
   5.487066e+05   3.951048e+06
  -1.821640e+06   3.652214e+06
  -3.002638e+06  -2.530946e+05
  -1.475610e+06  -3.494678e+06
   7.815499e+05  -1.665075e+06
   2.559185e+05   2.546897e+06
  -2.407784e+06   2.297183e+06
  -2.377845e+06  -3.014419e+06
   2.197621e+06  -5.820047e+06
   6.458678e+06  -9.734560e+05
   4.805503e+06   6.533165e+06
  -1.779798e+06   8.055236e+06
  -7.068658e+06   2.284537e+06
  -6.739376e+06  -4.255419e+06
  -1.881969e+06  -5.828298e+06
   3.335462e+06  -2.701928e+06
   5.162915e+06   1.384934e+06
   2.450373e+06   3.330594e+06
  -2.256984e+06   2.138030e+06
  -4.341357e+06  -8.374057e+05
  -1.902731e+06  -2.572355e+06
   1.631002e+06  -1.315205e+06
   1.724910e+06   9.735043e+05
  -1.170663e+06   9.432386e+05
  -2.367373e+06  -1.522638e+06
   4.474679e+05  -3.158770e+06
   4.263678e+06  -1.827980e+06
   5.028384e+06   1.188436e+06
   2.248655e+06   3.742415e+06
  -1.773315e+06   5.075202e+06
  -4.941486e+06   4.677195e+06
  -6.037884e+06   1.629435e+06
  -4.378525e+06  -3.123665e+06
  -8.692500e+05  -6.004971e+06
   1.748755e+06  -4.659998e+06
   1.639988e+06  -1.294365e+06
   2.120404e+05   1.020418e+05
   1.448322e+05  -1.024780e+06
   1.734690e+06  -1.695127e+06
   2.832211e+06  -1.003823e+05
   1.976041e+06   2.039260e+06
  -5.732218e+04   2.199634e+06
  -1.639609e+06   1.950572e+05
  -1.713737e+06  -2.124676e+06
   2.224057e+04  -2.941751e+06
   2.761599e+06  -1.587760e+06
   4.357567e+06   1.238728e+06
   3.072148e+06   3.680536e+06
  -7.670032e+04   4.051970e+06
  -2.182221e+06   2.577398e+06
  -2.111508e+06   1.102456e+06
  -1.761974e+06   7.123747e+05
  -2.902341e+06   5.199780e+05
  -4.315629e+06  -7.201543e+05
  -3.477246e+06  -2.731936e+06
  -1.437391e+05  -4.117599e+06
   3.210461e+06  -3.899987e+06
   4.197735e+06  -2.092492e+06
   2.650641e+06   4.717942e+05
   2.233101e+05   2.259046e+06
  -1.145276e+06   1.915627e+06
  -5.608832e+05  -5.546913e+04
   1.105286e+06  -1.304739e+06
   1.896131e+06  -3.922700e+05
   8.966768e+05   1.199762e+06
  -5.352700e+05   1.120441e+06
  -4.617301e+05  -3.801719e+05
   1.009572e+06  -7.443435e+05
   1.843866e+06   1.168883e+06
   7.409801e+05   3.393522e+06
  -1.445556e+06   3.446367e+06
  -3.074375e+06   1.239750e+06
  -3.362730e+06  -1.356167e+06
  -2.361095e+06  -2.767100e+06
  -4.850068e+05  -2.650701e+06
   1.257230e+06  -1.475858e+06
   1.594503e+06  -2.198493e+05
   4.948950e+05   4.607374e+04
  -3.612591e+05  -7.540300e+05
   4.051542e+05  -1.333669e+06
   1.893463e+06  -5.774380e+05
   2.029880e+06   8.724600e+05
   3.954780e+05   1.406548e+06
  -1.171633e+06   5.800719e+05
  -9.098882e+05  -4.532948e+05
   8.374146e+05  -5.482726e+05
   2.208914e+06   2.851308e+05
   1.793393e+06   1.356335e+06
  -2.251461e+05   2.004755e+06
  -2.320765e+06   1.684746e+06
  -2.791460e+06   2.823533e+05
  -1.220181e+06  -1.263121e+06
   9.191347e+05  -1.494002e+06
   1.551287e+06  -1.844422e+05
   1.914761e+05   1.078645e+06
  -1.522312e+06   7.373565e+05
  -1.728631e+06  -7.781318e+05
  -3.536823e+05  -1.658210e+06
   1.084152e+06  -9.954511e+05
   1.266581e+06   2.956276e+05
   2.593381e+05   7.787794e+05
  -7.926842e+05   5.689909e+04
  -7.377441e+05  -1.058094e+06
   5.831454e+05  -1.431720e+06
   2.022697e+06  -5.420813e+05
   2.046777e+06   1.059387e+06
   3.858926e+05   2.085833e+06
  -1.444222e+06   1.652203e+06
  -1.734420e+06   2.159920e+05
  -5.102661e+05  -8.709872e+05
   6.598194e+05  -8.118572e+05
   6.461442e+05  -7.745004e+04
  -1.099130e+05   3.763518e+05
  -5.034816e+05   2.271231e+05
  -1.475933e+05  -6.544816e+04
   4.350023e+05   5.933447e+04
   5.246724e+05   6.584717e+05
  -1.969691e+05   1.189292e+06
  -1.386140e+06   9.033822e+05
  -2.094628e+06  -4.142977e+05
  -1.474084e+06  -1.955153e+06
   2.172493e+05  -2.440161e+06
   1.625518e+06  -1.432623e+06
   1.709543e+06   1.169475e+05
   8.805948e+05   9.089550e+05
   3.287280e+05   6.790303e+05
   4.704560e+05   2.377805e+05
   6.149661e+05   3.122621e+05
   8.766077e+04   7.594596e+05
  -8.762822e+05   9.083122e+05
  -1.458486e+06   3.354333e+05
  -1.067500e+06  -7.270697e+05
   2.420532e+05  -1.479653e+06
   1.732363e+06  -1.088811e+06
   2.267317e+06   4.826187e+05
   1.148286e+06   2.110085e+06
  -1.005266e+06   2.378767e+06
  -2.549518e+06   1.044865e+06
  -2.369801e+06  -6.505762e+05
  -9.787815e+05  -1.343741e+06
   1.955467e+05  -9.642810e+05
   3.989981e+05  -5.287388e+05
   9.699844e+04  -7.604031e+05
   1.147443e+05  -1.306387e+06
   6.730086e+05  -1.288426e+06
   1.297137e+06  -3.176049e+05
   1.345139e+06   1.088501e+06
   5.606331e+05   1.908228e+06
  -6.267718e+05   1.447947e+06
  -1.295145e+06   8.734747e+02
  -8.203335e+05  -1.286076e+06
   3.845187e+05  -1.403047e+06
   1.158625e+06  -4.164379e+05
   8.123559e+05   6.868647e+05
  -1.150069e+05   1.072154e+06
  -5.263530e+05   7.865590e+05
  -7.909932e+04   4.229136e+05
   4.348644e+05   3.408614e+05
   5.947379e+04   3.872564e+05
  -1.151505e+06   2.128743e+05
  -2.070690e+06  -3.317768e+05
  -1.627959e+06  -1.038382e+06
   3.097451e+04  -1.437438e+06
   1.591214e+06  -1.145206e+06
   1.839643e+06  -2.853892e+05
   8.400935e+05   4.867974e+05
  -2.596648e+05   5.677524e+05
  -5.116260e+05   3.755780e+04
  -2.721152e+04  -4.192067e+05
   4.487790e+05  -2.600922e+05
   4.845954e+05   3.440423e+05
   2.513030e+05   7.310224e+05
   9.245221e+04   4.844667e+05
   1.375416e+05  -9.956324e+04
   2.834672e+05  -3.009010e+05
   2.784775e+05   2.325080e+05
  -1.425013e+05   9.962076e+05
  -9.037251e+05   1.074418e+06
  -1.367071e+06   1.742429e+05
  -8.551376e+05  -9.214965e+05
   4.172711e+05  -1.144637e+06
   1.265155e+06  -3.378140e+05
   7.405626e+05   5.770042e+05
  -7.050315e+05   6.545847e+05
  -1.600684e+06  -9.191410e+04
  -1.017975e+06  -8.652855e+05
   4.822414e+05  -9.976820e+05
   1.507675e+06  -4.882528e+05
   1.243507e+06   1.875318e+05
   1.374038e+05   5.175561e+05
  -6.532701e+05   2.728924e+05
  -3.871031e+05  -2.959130e+05
   5.894919e+05  -5.291957e+05
   1.194982e+06   7.746541e+04
   6.829827e+05   1.190305e+06
  -5.874883e+05   1.722825e+06
  -1.493996e+06   9.021672e+05
  -1.271612e+06  -7.584030e+05
  -2.125685e+05  -1.807169e+06
   7.414121e+05  -1.307807e+06
   9.327362e+05   1.764181e+05
   4.369232e+05   1.200506e+06
  -2.206988e+05   9.753356e+05
  -5.673474e+05   8.480059e+04
  -4.693072e+05  -3.775655e+05
  -1.627610e+05  -1.357769e+05
  -4.964011e+04   9.482478e+04
  -2.876374e+05  -3.013613e+05
  -5.197876e+05  -9.752000e+05
  -1.924660e+05  -1.085365e+06
   7.249232e+05  -3.985762e+05
   1.489948e+06   4.628349e+05
   1.290598e+06   8.377601e+05
   1.887127e+05   7.052923e+05
  -8.545110e+05   4.294484e+05
  -9.902041e+05   1.870733e+05
  -3.682753e+05  -5.641558e+04
   1.436826e+05  -2.298277e+05
   4.127640e+04  -2.019327e+05
  -2.610974e+05  -8.753517e+04
  -5.545375e+04  -1.344033e+05
   6.583002e+05  -2.483972e+05
   1.059446e+06   1.440323e+03
   4.556926e+05   7.006975e+05
  -8.336004e+05   1.204301e+06
  -1.719829e+06   7.836689e+05
  -1.443281e+06  -4.211522e+05
  -2.941318e+05  -1.417867e+06
   7.673614e+05  -1.399688e+06
   1.057873e+06  -5.603293e+05
   6.640800e+05   2.226332e+05
   1.432208e+05   3.621699e+05
  -6.199450e+04   7.620913e+04
   8.422996e+04  -9.275335e+03
   3.008724e+05   3.717817e+05
   2.521085e+05   8.142502e+05
  -1.728755e+05   6.914041e+05
  -6.888162e+05  -1.065820e+05
  -7.658833e+05  -9.469382e+05
  -1.422003e+05  -1.045222e+06
   7.524139e+05  -2.728839e+05
   1.060448e+06   7.053832e+05
   3.733082e+05   1.099647e+06
  -7.125380e+05   7.035070e+05
  -1.139092e+06  -5.984080e+04
  -5.508104e+05  -6.236722e+05
   2.852348e+05  -7.012705e+05
   3.911960e+05  -3.776437e+05
  -2.382311e+05   1.841038e+02
  -6.531863e+05   4.964135e+04
  -1.558541e+05  -3.128677e+05
   8.269678e+05  -6.936475e+05
   1.277216e+06  -5.486651e+05
   7.844190e+05   1.829525e+05
  -8.704937e+04   8.855143e+05
  -5.609225e+05   8.759107e+05
  -4.431339e+05   1.767045e+05
  -6.800666e+04  -4.791286e+05
   2.348904e+05  -4.509636e+05
   3.585745e+05   1.319441e+05
   2.661933e+05   5.804030e+05
  -4.589967e+04   4.446801e+05
  -3.971861e+05  -3.463356e+04
  -4.878992e+05  -2.872572e+05
  -2.456056e+05  -1.025012e+05
   4.193743e+04   1.621958e+05
   8.199554e+04   6.367307e+04
  -3.567805e+04  -3.510327e+05
   1.910100e+04  -5.743241e+05
   3.140600e+05  -2.502589e+05
   4.879736e+05   3.635103e+05
   1.913828e+05   6.534693e+05
  -4.023959e+05   3.312773e+05
  -6.860231e+05  -2.652438e+05
  -2.725011e+05  -5.716971e+05
   5.125702e+05  -3.784140e+05
   9.027801e+05   5.851500e+04
   4.941480e+05   3.753202e+05
  -2.925740e+05   4.196402e+05
  -6.483813e+05   2.524781e+05
  -2.645078e+05   2.325875e+04
   3.346494e+05  -8.742198e+04
   4.086920e+05   4.168344e+04
  -1.517486e+05   2.887167e+05
  -7.264561e+05   2.883928e+05
