
 $NMID
 id='ANONYMOUS ', fmtdat='(2E16.6)'
 volume=1.0
 tramp=1.0
 $END
   4.906715e+07  -9.538816e+05
   3.060289e+07   2.885606e+07
  -4.956035e+06   3.310115e+07
  -2.346817e+07   1.431696e+07
  -1.501228e+07  -4.748924e+06
   2.186481e+06  -8.315183e+06
   8.820204e+06   1.560972e+05
   3.291130e+06   8.418688e+06
  -4.860794e+06   9.008843e+06
  -8.519075e+06   2.491665e+06
  -6.454685e+06  -5.431158e+06
  -8.808087e+05  -7.874488e+06
   3.608124e+06  -2.419429e+06
   2.570733e+06   5.232242e+06
  -3.145731e+06   6.376494e+06
  -7.093351e+06  -7.497507e+05
  -4.355343e+06  -8.942882e+06
   2.958854e+06  -1.062956e+07
   8.792567e+06  -5.414719e+06
   9.470935e+06   1.746940e+06
   5.666472e+06   6.451001e+06
   5.892850e+05   7.228454e+06
  -2.100622e+06   5.023435e+06
  -8.665155e+05   2.602992e+06
   1.447015e+06   2.593495e+06
   5.402216e+04   4.278808e+06
  -5.363788e+06   4.014529e+06
  -9.074060e+06   2.512438e+05
  -6.356836e+06  -3.855069e+06
   1.075783e+05  -4.527610e+06
   3.745310e+06  -2.067463e+06
   2.217761e+06   4.497644e+05
  -1.137721e+06   1.228866e+06
  -2.746195e+06   3.327444e+05
  -2.141281e+06  -1.830617e+06
  -3.155853e+05  -3.927181e+06
   1.757799e+06  -3.350696e+06
   2.586968e+06   3.645854e+05
   1.193731e+06   3.172830e+06
  -6.595215e+05   1.271127e+06
  -7.622260e+04  -2.650115e+06
   2.335258e+06  -2.324299e+06
   2.377199e+06   2.715614e+06
  -1.692087e+06   5.487530e+06
  -5.719898e+06   1.169429e+06
  -4.556198e+06  -5.801075e+06
   1.340315e+06  -7.442122e+06
   6.486793e+06  -2.280837e+06
   6.550432e+06   3.861458e+06
   2.057744e+06   5.556131e+06
  -3.121561e+06   2.774729e+06
  -5.107454e+06  -1.112687e+06
  -2.585573e+06  -3.107861e+06
   1.985853e+06  -2.140251e+06
   4.118915e+06   6.063936e+05
   1.918851e+06   2.327168e+06
  -1.473437e+06   1.282827e+06
  -1.736197e+06  -8.814582e+05
   9.534768e+05  -1.057055e+06
   2.321689e+06   1.121108e+06
  -5.536602e+04   2.824799e+06
  -3.692602e+06   1.903933e+06
  -4.717554e+06  -7.995463e+05
  -2.273452e+06  -3.365248e+06
   1.630755e+06  -4.825245e+06
   4.764041e+06  -4.485874e+06
   5.759553e+06  -1.547294e+06
   4.107953e+06   2.971917e+06
   8.553287e+05   5.728990e+06
  -1.515069e+06   4.562983e+06
  -1.487078e+06   1.470617e+06
  -3.552346e+05   1.016713e+05
  -4.234949e+05   1.009702e+06
  -1.878883e+06   1.493484e+06
  -2.786972e+06  -1.094479e+05
  -1.846768e+06  -2.163358e+06
   1.986648e+05  -2.231453e+06
   1.753767e+06  -1.433158e+05
   1.744262e+06   2.197252e+06
  -5.146628e+04   2.928042e+06
  -2.708213e+06   1.495366e+06
  -4.159575e+06  -1.239373e+06
  -2.893370e+06  -3.475851e+06
   3.943708e+04  -3.764124e+06
   1.962331e+06  -2.414896e+06
   1.904331e+06  -1.112908e+06
   1.659136e+06  -7.968177e+05
   2.845223e+06  -6.146533e+05
   4.268294e+06   6.119656e+05
   3.480136e+06   2.637708e+06
   1.974366e+05   4.082613e+06
  -3.167923e+06   3.893975e+06
  -4.177475e+06   2.050769e+06
  -2.599302e+06  -5.265967e+05
  -1.424445e+05  -2.250837e+06
   1.183336e+06  -1.856439e+06
   5.414548e+05   7.975080e+04
  -1.109291e+06   1.284431e+06
  -1.853318e+06   3.997137e+05
  -8.602536e+05  -1.158636e+06
   5.510901e+05  -1.114832e+06
   5.191868e+05   3.728678e+05
  -9.238165e+05   8.520922e+05
  -1.877046e+06  -9.411127e+05
  -9.699853e+05  -3.255906e+06
   1.179434e+06  -3.567323e+06
   2.996362e+06  -1.504937e+06
   3.488196e+06   1.194817e+06
   2.511771e+06   2.780116e+06
   5.385169e+05   2.709437e+06
  -1.265488e+06   1.484641e+06
  -1.599547e+06   2.099229e+05
  -4.932274e+05  -4.150993e+04
   3.694443e+05   7.446429e+05
  -3.634360e+05   1.310897e+06
  -1.832656e+06   5.983583e+05
  -2.013851e+06  -8.028509e+05
  -4.346452e+05  -1.366774e+06
   1.149994e+06  -6.039474e+05
   9.440510e+05   4.425865e+05
  -8.131699e+05   6.143982e+05
  -2.261237e+06  -2.002456e+05
  -1.885716e+06  -1.345441e+06
   1.698661e+05  -2.064066e+06
   2.310430e+06  -1.745614e+06
   2.788275e+06  -3.222028e+05
   1.226604e+06   1.223209e+06
  -8.777444e+05   1.465508e+06
  -1.500920e+06   1.982478e+05
  -1.843971e+05  -1.045905e+06
   1.497120e+06  -7.427415e+05
   1.734937e+06   7.377520e+05
   4.058070e+05   1.648303e+06
  -1.044993e+06   1.043771e+06
  -1.282388e+06  -2.382876e+05
  -3.019628e+05  -7.631957e+05
   7.676056e+05  -7.567117e+04
   7.360750e+05   1.037147e+06
  -5.742927e+05   1.421358e+06
  -2.007865e+06   5.452555e+05
  -2.038409e+06  -1.039102e+06
  -4.055207e+05  -2.065076e+06
   1.406000e+06  -1.660638e+06
   1.720367e+06  -2.485195e+05
   5.335340e+05   8.559786e+05
  -6.414608e+05   8.261314e+05
  -6.625762e+05   7.816254e+04
   9.472653e+04  -4.159229e+05
   5.357898e+05  -2.642805e+05
   2.061509e+05   8.494740e+04
  -4.123631e+05   3.497192e+03
  -5.554971e+05  -6.110824e+05
   1.518545e+05  -1.184504e+06
   1.360951e+06  -9.245156e+05
   2.090556e+06   3.849700e+05
   1.485821e+06   1.928970e+06
  -1.942916e+05   2.441036e+06
  -1.615418e+06   1.470907e+06
  -1.737239e+06  -8.270144e+04
  -9.248386e+05  -9.309837e+05
  -3.363095e+05  -7.402369e+05
  -4.304904e+05  -2.659991e+05
  -5.783566e+05  -2.828276e+05
  -9.402366e+04  -7.284874e+05
   8.523475e+05  -9.241030e+05
   1.462529e+06  -3.697519e+05
   1.100422e+06   7.269939e+05
  -2.128102e+05   1.515336e+06
  -1.724393e+06   1.127003e+06
  -2.280489e+06  -4.539282e+05
  -1.187278e+06  -2.088794e+06
   9.464046e+05  -2.384531e+06
   2.511267e+06  -1.094090e+06
   2.390981e+06   5.934231e+05
   1.037081e+06   1.336756e+06
  -1.668974e+05   1.008469e+06
  -4.279628e+05   5.632612e+05
  -1.406653e+05   7.447486e+05
  -1.215888e+05   1.266318e+06
  -6.450005e+05   1.268044e+06
  -1.271838e+06   3.240009e+05
  -1.342627e+06  -1.074343e+06
  -5.719958e+05  -1.898369e+06
   6.161325e+05  -1.448495e+06
   1.295850e+06  -1.925638e+04
   8.422314e+05   1.260467e+06
  -3.441409e+05   1.404449e+06
  -1.127278e+06   4.616845e+05
  -8.213482e+05  -6.301523e+05
   6.769874e+04  -1.049976e+06
   4.778603e+05  -8.021492e+05
   6.135333e+04  -4.417563e+05
  -4.275066e+05  -3.433891e+05
  -5.722665e+04  -3.883870e+05
   1.132861e+06  -2.310097e+05
   2.049209e+06   2.992169e+05
   1.634928e+06   1.005786e+06
   1.099539e+04   1.418826e+06
  -1.544518e+06   1.153491e+06
  -1.823959e+06   3.221311e+05
  -8.575144e+05  -4.456465e+05
   2.373733e+05  -5.552497e+05
   5.032651e+05  -5.758509e+04
   2.440190e+04   3.957781e+05
  -4.548254e+05   2.552922e+05
  -4.819805e+05  -3.387044e+05
  -2.306823e+05  -7.291933e+05
  -7.269382e+04  -4.795690e+05
  -1.423155e+05   1.171741e+05
  -3.031689e+05   3.202851e+05
  -2.850904e+05  -2.275472e+05
   1.473325e+05  -1.000917e+06
   8.897044e+05  -1.074621e+06
   1.329240e+06  -1.742762e+05
   8.309975e+05   9.070607e+05
  -4.020588e+05   1.121415e+06
  -1.237234e+06   3.264722e+05
  -7.378528e+05  -5.765482e+05
   6.919245e+05  -6.653271e+05
   1.611408e+06   6.553213e+04
   1.058071e+06   8.538741e+05
  -4.515360e+05   1.025341e+06
  -1.513676e+06   5.348809e+05
  -1.269067e+06  -1.617968e+05
  -1.536574e+05  -5.238164e+05
   6.488234e+05  -2.907506e+05
   3.820811e+05   2.824902e+05
  -5.934593e+05   5.181523e+05
  -1.186812e+06  -8.648771e+04
  -6.655537e+05  -1.187898e+06
   5.988728e+05  -1.708519e+06
   1.494313e+06  -8.912926e+05
   1.271659e+06   7.577118e+05
   2.201859e+05   1.808691e+06
  -7.345596e+05   1.325293e+06
  -9.411685e+05  -1.545667e+05
  -4.625457e+05  -1.197632e+06
   1.945658e+05  -9.927085e+05
   5.618129e+05  -9.924108e+04
   4.866850e+05   3.807276e+05
   1.798438e+05   1.435246e+05
   4.332759e+04  -1.018467e+05
   2.670775e+05   2.823103e+05
   5.180282e+05   9.639939e+05
   2.202945e+05   1.091555e+06
  -6.984538e+05   4.121469e+05
  -1.495905e+06  -4.536299e+05
  -1.315769e+06  -8.323508e+05
  -1.967875e+05  -6.999110e+05
   8.681299e+05  -4.294603e+05
   9.962812e+05  -1.989994e+05
   3.558239e+05   4.058394e+04
  -1.485335e+05   2.273625e+05
  -2.144160e+04   2.164398e+05
   2.809052e+05   1.021234e+05
   4.728936e+04   1.335911e+05
  -6.779278e+05   2.385373e+05
  -1.053680e+06  -2.153992e+03
  -4.269907e+05  -6.871787e+05
   8.444909e+05  -1.188894e+06
   1.694961e+06  -7.772773e+05
   1.412995e+06   4.206977e+05
   2.906559e+05   1.415971e+06
  -7.522307e+05   1.394414e+06
  -1.049899e+06   5.492014e+05
  -6.644829e+05  -2.320903e+05
  -1.351747e+05  -3.585770e+05
   7.778139e+04  -5.972839e+04
  -7.994829e+04   2.575169e+04
  -3.133784e+05  -3.651527e+05
  -2.639574e+05  -8.131124e+05
   1.730800e+05  -6.851427e+05
   6.890848e+05   1.189759e+05
   7.522928e+05   9.535647e+05
   1.228380e+05   1.035316e+06
  -7.583901e+05   2.522180e+05
  -1.049992e+06  -7.174775e+05
  -3.629125e+05  -1.091907e+06
   7.086965e+05  -6.883195e+05
   1.125158e+06   5.963435e+04
   5.427102e+05   6.037365e+05
  -2.768988e+05   6.820581e+05
  -3.710429e+05   3.770536e+05
   2.549114e+05   9.922456e+03
   6.558232e+05  -4.779192e+04
   1.508234e+05   3.066567e+05
  -8.230478e+05   6.976353e+05
  -1.259007e+06   5.693577e+05
  -7.674549e+05  -1.612142e+05
   8.392694e+04  -8.758872e+05
   5.385685e+05  -8.713515e+05
   4.200476e+05  -1.679239e+05
   5.793008e+04   4.835120e+05
  -2.343852e+05   4.397186e+05
  -3.558573e+05  -1.474229e+05
  -2.645563e+05  -5.782462e+05
   4.589958e+04  -4.274074e+05
   3.940793e+05   4.059776e+04
   4.839798e+05   2.720685e+05
   2.472279e+05   9.088404e+04
  -3.641805e+04  -1.467183e+05
  -8.714435e+04  -3.577642e+04
   1.096911e+04   3.562598e+05
  -4.705918e+04   5.476799e+05
  -3.170997e+05   2.174530e+05
  -4.611691e+05  -3.769358e+05
  -1.620038e+05  -6.479468e+05
   4.074341e+05  -3.213251e+05
   6.712639e+05   2.718283e+05
   2.631277e+05   5.746130e+05
  -5.046000e+05   3.772174e+05
  -8.888375e+05  -6.174014e+04
  -4.885819e+05  -3.724742e+05
   2.881913e+05  -4.064094e+05
   6.382527e+05  -2.385814e+05
   2.497775e+05  -2.377191e+04
  -3.495565e+05   7.046961e+04
  -4.112516e+05  -6.119211e+04
   1.682949e+05  -2.966649e+05
   7.489072e+05  -2.835946e+05
