
 $NMID
 id='ANONYMOUS ', fmtdat='(2E16.6)'
 volume=1.0
 tramp=1.0
 $END
   2.411078e+07   4.842222e+05
   1.574609e+07   1.284276e+07
  -1.145839e+06   1.586595e+07
  -1.137043e+07   8.959789e+06
  -8.665119e+06  -4.542044e+05
   1.160073e+05  -4.438286e+06
   4.988130e+06  -1.272711e+06
   2.955032e+06   4.255160e+06
  -1.920889e+06   6.037862e+06
  -4.671146e+06   2.272149e+06
  -3.578124e+06  -3.160773e+06
  -2.451056e+05  -4.726937e+06
   2.183568e+06  -9.990054e+05
   1.432505e+06   3.794734e+06
  -1.754388e+06   4.362067e+06
  -3.981836e+06   4.131805e+04
  -2.595455e+06  -4.821181e+06
   1.444460e+06  -5.808383e+06
   4.646306e+06  -2.672761e+06
   4.630423e+06   1.360830e+06
   2.153089e+06   3.322491e+06
  -1.382031e+05   2.899900e+06
  -3.587017e+05   1.858769e+06
   9.664248e+05   1.893074e+06
   1.438710e+06   2.960933e+06
  -7.169992e+05   3.416667e+06
  -4.288906e+06   1.888391e+06
  -5.788307e+06  -9.494058e+05
  -3.268664e+06  -2.855371e+06
   1.046916e+06  -2.379709e+06
   2.984749e+06  -3.099601e+05
   1.092893e+06   1.347129e+06
  -1.995539e+06   1.281685e+06
  -2.946402e+06  -3.519169e+05
  -1.304214e+06  -2.301431e+06
   7.946257e+05  -2.942165e+06
   1.461836e+06  -1.473675e+06
   7.031424e+05   8.756269e+05
  -2.452016e+05   1.574431e+06
  -2.916064e+05  -2.772997e+05
   6.920778e+05  -2.326576e+06
   1.743667e+06  -1.617967e+06
   1.517989e+06   1.368947e+06
  -2.963638e+05   2.943728e+06
  -2.203791e+06   8.765217e+05
  -2.104644e+06  -2.629913e+06
   4.297977e+05  -3.624142e+06
   3.363905e+06  -1.074165e+06
   3.991135e+06   2.335634e+06
   1.552849e+06   3.538102e+06
  -1.951093e+06   2.007975e+06
  -3.553125e+06  -4.842694e+05
  -2.051116e+06  -1.891857e+06
   8.786281e+05  -1.415187e+06
   2.364736e+06   1.568819e+05
   1.263337e+06   1.192603e+06
  -7.579776e+05   7.244257e+05
  -1.253643e+06  -5.409263e+05
   1.542837e+05  -1.024133e+06
   1.469344e+06  -1.351386e+05
   8.328961e+05   1.090027e+06
  -1.250349e+06   1.270518e+06
  -2.520096e+06   9.986674e+04
  -1.448633e+06  -1.615370e+06
   1.256607e+06  -2.736637e+06
   3.476487e+06  -2.376967e+06
   3.658982e+06  -3.884826e+05
   2.017768e+06   2.178455e+06
   7.270239e+04   3.574817e+06
  -8.590108e+05   2.991117e+06
  -7.769419e+05   1.481588e+06
  -6.773521e+05   6.635201e+05
  -1.231943e+06   7.095061e+05
  -1.992601e+06   3.807376e+05
  -1.977942e+06  -9.497651e+05
  -8.343653e+05  -2.169752e+06
   7.566031e+05  -1.772282e+06
   1.674902e+06   1.838793e+05
   1.220303e+06   2.015856e+06
  -3.808893e+05   2.162422e+06
  -2.021535e+06   6.114129e+05
  -2.439192e+06  -1.319598e+06
  -1.324644e+06  -2.285209e+06
   2.804801e+05  -1.976800e+06
   1.057680e+06  -1.142463e+06
   9.185140e+05  -6.790221e+05
   1.005555e+06  -6.925429e+05
   2.015907e+06  -4.872988e+05
   3.007518e+06   5.191891e+05
   2.387621e+06   2.010694e+06
  -5.269095e+04   2.980910e+06
  -2.599269e+06   2.632279e+06
  -3.268373e+06   1.054389e+06
  -1.765580e+06  -7.899328e+05
   3.281544e+05  -1.691507e+06
   1.171133e+06  -1.124609e+06
   3.460766e+05   1.802194e+05
  -9.603922e+05   8.106480e+05
  -1.302169e+06   1.572842e+05
  -4.348791e+05  -8.292878e+05
   5.582259e+05  -7.768124e+05
   5.266634e+05   2.968612e+05
  -5.035328e+05   8.686188e+05
  -1.401958e+06  -1.958338e+05
  -1.106494e+06  -2.102910e+06
   3.990130e+05  -2.909221e+06
   2.126065e+06  -1.645618e+06
   2.874025e+06   7.129461e+05
   2.095195e+06   2.333033e+06
   3.339756e+05   2.253841e+06
  -1.105602e+06   1.034337e+06
  -1.238683e+06  -9.802887e+03
  -3.624529e+05  -6.086502e+04
   2.362710e+05   5.637404e+05
  -2.669213e+05   8.827371e+05
  -1.249246e+06   3.457027e+05
  -1.390524e+06  -5.753709e+05
  -3.197440e+05  -9.440270e+05
   8.506398e+05  -4.223360e+05
   7.709726e+05   3.791940e+05
  -5.864746e+05   5.831130e+05
  -1.828893e+06  -9.175017e+04
  -1.573054e+06  -1.134314e+06
   1.378168e+05  -1.707361e+06
   1.853661e+06  -1.291104e+06
   2.113032e+06  -1.171253e+05
   8.315218e+05   9.088316e+05
  -6.690444e+05   9.379800e+05
  -9.967273e+05   5.394373e+04
  -2.337142e+04  -7.071368e+05
   1.116237e+06  -4.417253e+05
   1.255579e+06   5.861779e+05
   3.149866e+05   1.240579e+06
  -7.558130e+05   8.329263e+05
  -9.843132e+05  -1.194129e+05
  -2.851240e+05  -5.491478e+05
   5.074346e+05  -4.220317e+04
   4.555779e+05   7.829773e+05
  -5.315392e+05   9.876330e+05
  -1.514628e+06   2.426230e+05
  -1.416609e+06  -9.009937e+05
  -1.808993e+05  -1.526213e+06
   1.089106e+06  -1.148200e+06
   1.271530e+06  -1.320575e+05
   3.944825e+05   6.433825e+05
  -4.983740e+05   6.059756e+05
  -5.535863e+05   5.617575e+03
   5.812574e+04  -4.191263e+05
   5.170033e+05  -2.651478e+05
   3.223300e+05   1.326222e+05
  -2.369077e+05   1.489790e+05
  -4.501865e+05  -3.655075e+05
   8.543799e+04  -8.591579e+05
   1.028578e+06  -6.365001e+05
   1.524682e+06   3.862256e+05
   9.818158e+05   1.503106e+06
  -2.911254e+05   1.820698e+06
  -1.309920e+06   1.078536e+06
  -1.378507e+06  -1.091988e+05
  -7.486757e+05  -8.413591e+05
  -2.186007e+05  -7.665635e+05
  -1.863909e+05  -3.260571e+05
  -2.991100e+05  -1.811554e+05
  -2.203833e+04  -4.648291e+05
   6.502753e+05  -6.651775e+05
   1.141557e+06  -2.521141e+05
   8.621335e+05   6.397394e+05
  -2.022422e+05   1.224235e+06
  -1.368722e+06   8.095378e+05
  -1.712675e+06  -4.546023e+05
  -8.240743e+05  -1.608446e+06
   7.459636e+05  -1.722385e+06
   1.867041e+06  -7.454072e+05
   1.803917e+06   4.838017e+05
   8.355441e+05   1.068998e+06
  -1.236231e+05   8.715880e+05
  -4.526192e+05   4.921229e+05
  -3.015583e+05   5.075334e+05
  -2.268836e+05   8.254149e+05
  -5.158685e+05   8.349765e+05
  -9.102963e+05   1.489204e+05
  -9.080313e+05  -8.843265e+05
  -2.975355e+05  -1.448499e+06
   5.585339e+05  -1.037094e+06
   9.769622e+05   4.405805e+04
   5.856391e+05   9.440414e+05
  -2.621579e+05   1.026527e+06
  -7.908260e+05   3.789737e+05
  -5.829555e+05  -3.776130e+05
   5.671654e+03  -7.133216e+05
   2.846698e+05  -6.021984e+05
   2.991284e+04  -3.806467e+05
  -2.706021e+05  -3.043533e+05
  -2.648655e+03  -3.011841e+05
   8.159789e+05  -1.262778e+05
   1.449403e+06   3.107411e+05
   1.159694e+06   8.027722e+05
   6.057936e+03   1.008885e+06
  -1.124558e+06   7.523669e+05
  -1.350412e+06   1.901047e+05
  -6.530107e+05  -2.865846e+05
   1.629567e+05  -3.577107e+05
   3.568218e+05  -5.749348e+04
  -2.738731e+04   2.315674e+05
  -3.833178e+05   1.393573e+05
  -3.251584e+05  -2.816743e+05
  -4.912146e+04  -5.665113e+05
   4.592499e+04  -3.555091e+05
  -1.293673e+05   1.283667e+05
  -3.119328e+05   2.742003e+05
  -2.135212e+05  -1.810141e+05
   2.121681e+05  -7.553673e+05
   7.223736e+05  -7.301600e+05
   9.043930e+05  -1.038796e+04
   4.734760e+05   7.159596e+05
  -3.586261e+05   7.388517e+05
  -8.791846e+05   1.009383e+05
  -4.973272e+05  -4.974814e+05
   5.390021e+05  -4.707647e+05
   1.236041e+06   1.105991e+05
   8.391533e+05   6.965192e+05
  -3.353554e+05   8.104951e+05
  -1.198241e+06   4.091200e+05
  -1.013592e+06  -1.533286e+05
  -1.187813e+05  -4.242051e+05
   4.984093e+05  -2.144796e+05
   2.464633e+05   2.069694e+05
  -5.050907e+05   3.062448e+05
  -8.630417e+05  -1.962353e+05
  -3.458582e+05  -9.475373e+05
   6.352183e+05  -1.193543e+06
   1.205206e+06  -5.089183e+05
   8.916302e+05   6.793181e+05
   3.086822e+04   1.384682e+06
  -6.461890e+05   9.846391e+05
  -7.172891e+05  -1.329102e+05
  -3.190621e+05  -9.303408e+05
   1.537470e+05  -7.783284e+05
   4.134578e+05  -6.755087e+04
   3.848655e+05   3.361954e+05
   1.742393e+05   1.443550e+05
   2.194113e+04  -9.284190e+04
   1.133748e+05   1.822743e+05
   2.994330e+05   7.381305e+05
   1.536874e+05   8.557503e+05
  -4.819827e+05   2.861061e+05
  -1.103266e+06  -4.439908e+05
  -9.917853e+05  -7.222326e+05
  -1.102756e+05  -5.273048e+05
   7.313316e+05  -2.495271e+05
   7.839339e+05  -9.896282e+04
   2.256441e+05   1.649746e+04
  -1.462397e+05   1.516482e+05
   2.537864e+04   2.014110e+05
   2.628483e+05   1.419046e+05
  -3.144802e+02   1.033422e+05
  -5.904322e+05   9.391283e+04
  -7.762462e+05  -9.632408e+04
  -1.752077e+05  -5.184531e+05
   7.735802e+05  -7.775779e+05
   1.271486e+06  -4.155186e+05
   9.379362e+05   4.425007e+05
   8.494466e+04   1.086423e+06
  -6.440536e+05   9.668817e+05
  -8.163463e+05   2.881035e+05
  -4.824528e+05  -2.605610e+05
  -4.626659e+04  -2.721880e+05
   1.124642e+05   8.421944e+03
  -4.770319e+04   6.045857e+04
  -2.401385e+05  -2.811048e+05
  -1.626556e+05  -6.303153e+05
   1.914057e+05  -4.822993e+05
   5.108074e+05   1.861544e+05
   4.441061e+05   8.048089e+05
  -5.607880e+04   7.635298e+05
  -6.133067e+05   6.366719e+04
  -6.988401e+05  -6.687591e+05
  -1.464541e+05  -8.323479e+05
   5.842778e+05  -4.112396e+05
   8.008997e+05   1.441867e+05
   3.295149e+05   4.441558e+05
  -2.458741e+05   4.316475e+05
  -2.528509e+05   2.471694e+05
   2.416461e+05   5.733169e+04
   5.060326e+05   2.631619e+04
   7.119782e+04   2.264086e+05
  -6.684594e+05   4.648456e+05
  -9.412407e+05   3.776897e+05
  -5.110031e+05  -1.263386e+05
   1.315392e+05  -6.234261e+05
   4.161314e+05  -5.928574e+05
   2.639886e+05  -6.094704e+04
  -2.767029e+04   3.833806e+05
  -2.147986e+05   2.774496e+05
  -2.491126e+05  -1.880397e+05
  -1.437043e+05  -4.523290e+05
   7.404675e+04  -2.668907e+05
   2.848039e+05   8.289474e+04
   3.272017e+05   2.027356e+05
   1.815374e+05   5.550634e+04
   3.653288e+03  -6.870145e+04
  -7.408025e+04   4.841655e+04
  -9.498534e+04   2.878233e+05
  -1.690624e+05   3.333312e+05
  -2.709349e+05   3.975369e+04
  -2.370974e+05  -3.670814e+05
   2.184658e+04  -4.895385e+05
   3.509582e+05  -1.777439e+05
   4.390869e+05   2.845335e+05
   1.207663e+05   4.654321e+05
  -3.894938e+05   2.354927e+05
  -6.231922e+05  -1.352771e+05
  -3.186483e+05  -3.153675e+05
   2.411900e+05  -2.413168e+05
   4.733025e+05  -8.175544e+04
   1.466636e+05   4.237279e+03
  -3.154785e+05  -2.545653e+04
  -3.144053e+05  -1.390910e+05
   2.003257e+05  -2.342920e+05
   6.554558e+05  -1.370462e+05
