
 $NMID
 id='ANONYMOUS ', fmtdat='(2E16.6)'
 volume=1.0
 tramp=1.0
 $END
   5.290442e+07   4.561027e+06
   2.867776e+07   3.470063e+07
  -9.755106e+06   3.454410e+07
  -2.627377e+07   1.190464e+07
  -1.454162e+07  -7.025987e+06
   3.501493e+06  -8.239229e+06
   8.810919e+06   1.410669e+06
   2.163104e+06   8.952627e+06
  -5.914872e+06   8.444360e+06
  -8.947755e+06   1.493204e+06
  -6.292107e+06  -6.312612e+06
  -3.226535e+05  -8.339079e+06
   4.088183e+06  -2.341787e+06
   2.454689e+06   5.494195e+06
  -3.686756e+06   6.151831e+06
  -7.228612e+06  -1.616168e+06
  -3.590006e+06  -9.824044e+06
   4.259275e+06  -1.084618e+07
   9.957176e+06  -4.839689e+06
   1.008734e+07   2.861918e+06
   5.523863e+06   7.729966e+06
  -3.089293e+05   8.127408e+06
  -3.232548e+06   5.095318e+06
  -1.456627e+06   2.074039e+06
   1.544290e+06   2.230797e+06
   1.686784e+05   4.428892e+06
  -5.760436e+06   4.188347e+06
  -9.680236e+06  -9.095463e+04
  -6.595747e+06  -4.557321e+06
   3.156554e+05  -5.092656e+06
   4.135973e+06  -2.325067e+06
   2.665233e+06   4.148874e+05
  -7.349349e+05   1.423224e+06
  -2.670110e+06   6.705108e+05
  -2.430996e+06  -1.728095e+06
  -4.579238e+05  -4.237699e+06
   2.160295e+06  -3.610658e+06
   3.106084e+06   6.705148e+05
   1.146807e+06   3.789234e+06
  -1.144636e+06   1.534886e+06
  -2.937795e+05  -2.769777e+06
   2.455665e+06  -2.252278e+06
   2.128096e+06   3.071543e+06
  -2.545399e+06   5.431815e+06
  -6.343445e+06   2.929769e+05
  -4.152957e+06  -6.855901e+06
   2.399751e+06  -7.740549e+06
   7.175065e+06  -1.733169e+06
   6.455917e+06   4.547580e+06
   1.628453e+06   5.787299e+06
  -3.350487e+06   2.536517e+06
  -5.007652e+06  -1.496916e+06
  -2.280399e+06  -3.287349e+06
   2.295771e+06  -1.917779e+06
   4.191706e+06   1.075949e+06
   1.697843e+06   2.605962e+06
  -1.689990e+06   1.180164e+06
  -1.669011e+06  -9.952182e+05
   1.081916e+06  -7.732095e+05
   2.042955e+06   1.575339e+06
  -7.388539e+05   2.837436e+06
  -4.239378e+06   1.324314e+06
  -4.741309e+06  -1.500775e+06
  -1.921781e+06  -3.781371e+06
   2.076268e+06  -5.001276e+06
   5.248907e+06  -4.529460e+06
   6.219815e+06  -1.331009e+06
   4.261638e+06   3.461224e+06
   5.664418e+05   6.117328e+06
  -1.902035e+06   4.518218e+06
  -1.520226e+06   1.188823e+06
  -5.733792e+04   4.175894e+04
  -2.091629e+05   1.281973e+06
  -1.984410e+06   1.805485e+06
  -3.066379e+06  -6.230742e+02
  -2.079903e+06  -2.233900e+06
   7.775648e+04  -2.369275e+06
   1.733949e+06  -2.692039e+05
   1.786312e+06   2.173295e+06
  -7.754111e+04   3.024752e+06
  -2.912219e+06   1.525587e+06
  -4.405943e+06  -1.493472e+06
  -2.886790e+06  -3.926114e+06
   3.765708e+05  -4.066224e+06
   2.374811e+06  -2.391032e+06
   2.135226e+06  -9.190669e+05
   1.722174e+06  -6.247102e+05
   2.879821e+06  -4.535884e+05
   4.294677e+06   8.208266e+05
   3.430271e+06   2.820567e+06
   6.745263e+04   4.152727e+06
  -3.328513e+06   3.898534e+06
  -4.344951e+06   2.055895e+06
  -2.739181e+06  -5.679673e+05
  -1.804757e+05  -2.376670e+06
   1.249928e+06  -1.964897e+06
   5.900267e+05   8.360691e+04
  -1.163182e+06   1.317249e+06
  -1.928097e+06   3.388544e+05
  -8.588956e+05  -1.262413e+06
   5.676641e+05  -1.148993e+06
   4.664945e+05   3.434258e+05
  -9.365572e+05   6.848444e+05
  -1.672916e+06  -1.161124e+06
  -6.195296e+05  -3.258187e+06
   1.384458e+06  -3.282262e+06
   2.915385e+06  -1.188686e+06
   3.289249e+06   1.301188e+06
   2.401666e+06   2.726948e+06
   5.163427e+05   2.672279e+06
  -1.296248e+06   1.497213e+06
  -1.639178e+06   2.060606e+05
  -5.002751e+05  -5.451983e+04
   3.512935e+05   7.659352e+05
  -4.458625e+05   1.316405e+06
  -1.914102e+06   5.137454e+05
  -1.997267e+06  -9.226652e+05
  -3.551419e+05  -1.401529e+06
   1.179729e+06  -5.601851e+05
   9.169261e+05   4.438645e+05
  -8.019339e+05   5.350016e+05
  -2.183090e+06  -2.654504e+05
  -1.813345e+06  -1.327204e+06
   1.989076e+05  -2.002005e+06
   2.336930e+06  -1.686213e+06
   2.817308e+06  -2.526526e+05
   1.194423e+06   1.294740e+06
  -9.773500e+05   1.472807e+06
  -1.567180e+06   1.256567e+05
  -1.517746e+05  -1.105110e+06
   1.555359e+06  -7.107171e+05
   1.719172e+06   8.067875e+05
   3.364391e+05   1.650402e+06
  -1.072953e+06   9.731946e+05
  -1.240663e+06  -2.979073e+05
  -2.458950e+05  -7.591639e+05
   7.901009e+05  -2.780143e+04
   7.199124e+05   1.088470e+06
  -6.223749e+05   1.443903e+06
  -2.066634e+06   5.132123e+05
  -2.055547e+06  -1.113373e+06
  -3.500883e+05  -2.113990e+06
   1.483890e+06  -1.634427e+06
   1.742830e+06  -1.890062e+05
   4.989084e+05   8.734821e+05
  -6.694356e+05   8.053070e+05
  -6.615502e+05   8.469945e+04
   8.129557e+04  -3.740131e+05
   4.886008e+05  -2.571639e+05
   1.735179e+05   2.065774e+04
  -3.862160e+05  -7.842075e+04
  -4.893228e+05  -6.467638e+05
   2.158080e+05  -1.171411e+06
   1.405379e+06  -8.838423e+05
   2.105892e+06   4.510572e+05
   1.456505e+06   2.001614e+06
  -2.510354e+05   2.467263e+06
  -1.643636e+06   1.435884e+06
  -1.716649e+06  -1.142413e+05
  -9.108403e+05  -9.038258e+05
  -3.801917e+05  -6.982676e+05
  -4.964010e+05  -2.870229e+05
  -5.933949e+05  -3.550957e+05
  -5.313552e+04  -7.670094e+05
   8.900300e+05  -8.963096e+05
   1.463786e+06  -3.301298e+05
   1.083436e+06   7.280717e+05
  -2.327125e+05   1.485734e+06
  -1.748566e+06   1.085306e+06
  -2.283854e+06  -5.082999e+05
  -1.129482e+06  -2.132308e+06
   1.045757e+06  -2.363439e+06
   2.568359e+06  -1.004651e+06
   2.362481e+06   6.705161e+05
   9.816711e+05   1.333045e+06
  -1.708459e+05   9.618907e+05
  -3.879515e+05   5.633795e+05
  -1.280787e+05   8.104610e+05
  -1.701623e+05   1.332542e+06
  -7.183106e+05   1.278938e+06
  -1.319257e+06   2.854861e+05
  -1.345324e+06  -1.129287e+06
  -5.391698e+05  -1.943651e+06
   6.572927e+05  -1.459856e+06
   1.305698e+06   1.374049e+04
   8.001806e+05   1.301301e+06
  -4.051745e+05   1.391695e+06
  -1.144907e+06   3.876488e+05
  -7.716610e+05  -6.971979e+05
   1.452929e+05  -1.048844e+06
   5.283389e+05  -7.553923e+05
   6.792909e+04  -4.173875e+05
  -4.404757e+05  -3.604136e+05
  -5.615571e+04  -3.981082e+05
   1.159985e+06  -1.877241e+05
   2.077726e+06   3.812126e+05
   1.619771e+06   1.071582e+06
  -6.207346e+04   1.427714e+06
  -1.626306e+06   1.107643e+06
  -1.847287e+06   2.572868e+05
  -8.171230e+05  -4.879714e+05
   2.807666e+05  -5.550328e+05
   5.042445e+05  -2.659790e+04
   1.492680e+03   4.278086e+05
  -4.663752e+05   2.640860e+05
  -4.849714e+05  -3.592251e+05
  -2.425352e+05  -7.670297e+05
  -8.119750e+04  -5.121408e+05
  -1.270591e+05   1.060151e+05
  -2.789450e+05   3.225724e+05
  -2.775006e+05  -2.348039e+05
   1.554529e+05  -1.019442e+06
   9.348931e+05  -1.071986e+06
   1.392761e+06  -1.264922e+05
   8.447223e+05   9.710642e+05
  -4.595478e+05   1.146398e+06
  -1.302039e+06   3.020839e+05
  -7.472115e+05  -6.010807e+05
   7.173761e+05  -6.484188e+05
   1.610617e+06   1.028817e+05
   1.022081e+06   8.605959e+05
  -4.778885e+05   9.883332e+05
  -1.505404e+06   4.887309e+05
  -1.247167e+06  -1.828922e+05
  -1.406159e+05  -5.166492e+05
   6.542540e+05  -2.679466e+05
   3.787447e+05   3.098934e+05
  -6.187189e+05   5.341249e+05
  -1.225152e+06  -1.033445e+05
  -6.766858e+05  -1.238635e+06
   6.364764e+05  -1.758247e+06
   1.546145e+06  -8.994485e+05
   1.286803e+06   7.909039e+05
   1.948096e+05   1.840557e+06
  -7.582102e+05   1.320714e+06
  -9.314927e+05  -1.826643e+05
  -4.302423e+05  -1.208369e+06
   2.201691e+05  -9.716953e+05
   5.668907e+05  -7.578881e+04
   4.786136e+05   3.769293e+05
   1.730071e+05   1.268557e+05
   4.506866e+04  -9.147038e+04
   2.704453e+05   3.269249e+05
   5.073323e+05   1.002288e+06
   1.905004e+05   1.086728e+06
  -7.301400e+05   3.756310e+05
  -1.506891e+06  -4.860863e+05
  -1.304025e+06  -8.497967e+05
  -1.793630e+05  -7.146156e+05
   8.794013e+05  -4.385284e+05
   1.003355e+06  -1.842516e+05
   3.598209e+05   7.142969e+04
  -1.524188e+05   2.365053e+05
  -2.986314e+04   1.900694e+05
   2.802674e+05   7.744537e+04
   5.305469e+04   1.448802e+05
  -6.860218e+05   2.604133e+05
  -1.080984e+06  -2.084963e+04
  -4.403741e+05  -7.444163e+05
   8.815269e+05  -1.225260e+06
   1.768079e+06  -7.541714e+05
   1.463067e+06   4.754216e+05
   2.789675e+05   1.453601e+06
  -8.046824e+05   1.404186e+06
  -1.095746e+06   5.492384e+05
  -6.828790e+05  -2.369450e+05
  -1.371545e+05  -3.780419e+05
   8.048463e+04  -8.862464e+04
  -7.127790e+04   6.596498e+03
  -2.977522e+05  -3.717965e+05
  -2.467037e+05  -8.238559e+05
   1.911756e+05  -7.025958e+05
   7.122058e+05   1.193081e+05
   7.728659e+05   9.891719e+05
   1.201089e+05   1.084081e+06
  -7.900961e+05   2.710225e+05
  -1.081845e+06  -7.446033e+05
  -3.581567e+05  -1.135237e+06
   7.492963e+05  -7.031225e+05
   1.159708e+06   8.848801e+04
   5.353780e+05   6.484760e+05
  -3.161933e+05   7.022006e+05
  -4.023634e+05   3.625129e+05
   2.538920e+05  -1.023792e+04
   6.691353e+05  -4.390818e+04
   1.488315e+05   3.249864e+05
  -8.492818e+05   6.937576e+05
  -1.290568e+06   5.293606e+05
  -7.770918e+05  -2.093564e+05
   1.087281e+05  -8.985696e+05
   5.854550e+05  -8.663178e+05
   4.594177e+05  -1.532638e+05
   6.553158e+04   4.991093e+05
  -2.554676e+05   4.552270e+05
  -3.772288e+05  -1.436934e+05
  -2.617432e+05  -5.970148e+05
   6.781243e+04  -4.510729e+05
   4.096327e+05   4.410250e+04
   4.803530e+05   3.012702e+05
   2.393673e+05   1.051005e+05
  -2.651669e+04  -1.689981e+05
  -5.923644e+04  -5.825811e+04
   3.324006e+04   3.807435e+05
  -5.369827e+04   6.068488e+05
  -3.526686e+05   2.498379e+05
  -5.014719e+05  -4.023750e+05
  -1.781662e+05  -6.942230e+05
   4.243257e+05  -3.357979e+05
   7.004061e+05   2.935088e+05
   2.717613e+05   5.955380e+05
  -5.282299e+05   3.721795e+05
  -9.215592e+05  -8.436236e+04
  -4.960482e+05  -3.941331e+05
   3.151506e+05  -4.188789e+05
   6.758622e+05  -2.384511e+05
   2.680163e+05  -7.464905e+03
  -3.591478e+05   9.559108e+04
  -4.337051e+05  -4.815736e+04
   1.538282e+05  -3.078717e+05
   7.520408e+05  -3.033947e+05
