
 $NMID
 id='ANONYMOUS ', fmtdat='(2E16.6)'
 volume=1.0
 tramp=1.0
 $END
  -5.930426e+07   1.744882e+06
  -3.649776e+07  -3.632469e+07
   7.203831e+06  -4.057627e+07
   2.887404e+07  -1.560687e+07
   1.730287e+07   7.592988e+06
  -3.545755e+06   9.880111e+06
  -1.029025e+07  -1.469179e+06
  -2.785219e+06  -1.027853e+07
   6.534132e+06  -9.565159e+06
   1.004623e+07  -2.019292e+06
   7.381853e+06   6.233831e+06
   1.085434e+06   8.779485e+06
  -3.999688e+06   3.026108e+06
  -2.784060e+06  -5.316925e+06
   3.819265e+06  -6.625776e+06
   8.215547e+06   1.356083e+06
   4.789374e+06   1.054569e+07
  -3.716742e+06   1.236417e+07
  -1.039919e+07   6.469109e+06
  -1.142136e+07  -1.724237e+06
  -7.357357e+06  -7.626884e+06
  -1.133797e+06  -9.261669e+06
   3.063321e+06  -6.686595e+06
   2.333556e+06  -2.807096e+06
  -8.963256e+05  -1.799941e+06
  -5.100840e+05  -3.959128e+06
   5.086476e+06  -4.692307e+06
   9.709287e+06  -1.009137e+06
   7.430693e+06   3.889480e+06
   6.837791e+05   5.216424e+06
  -3.467829e+06   2.941547e+06
  -2.531869e+06   4.113538e+05
   2.406426e+05  -7.136400e+05
   1.892103e+06  -6.239164e+05
   2.189164e+06   1.058720e+06
   1.049485e+06   3.768387e+06
  -1.608285e+06   4.123364e+06
  -3.528860e+06   2.203093e+05
  -2.143405e+06  -3.725053e+06
   7.144455e+05  -2.313311e+06
   5.714562e+05   2.236917e+06
  -2.390999e+06   2.319309e+06
  -2.563054e+06  -3.314379e+06
   2.565014e+06  -6.494489e+06
   7.491464e+06  -1.209698e+06
   5.633195e+06   7.217786e+06
  -1.851268e+06   9.063703e+06
  -7.709694e+06   2.747960e+06
  -7.195366e+06  -4.433030e+06
  -1.896730e+06  -6.117077e+06
   3.518495e+06  -2.739406e+06
   5.293858e+06   1.559760e+06
   2.402895e+06   3.563256e+06
  -2.541560e+06   2.283341e+06
  -4.709972e+06  -9.167670e+05
  -2.033719e+06  -2.823910e+06
   1.771105e+06  -1.460804e+06
   1.741238e+06   1.033697e+06
  -1.492734e+06   8.828863e+05
  -2.613130e+06  -1.997871e+06
   7.780076e+05  -3.785802e+06
   5.007513e+06  -2.074301e+06
   5.601498e+06   1.438165e+06
   2.459401e+06   4.162500e+06
  -1.655684e+06   5.465813e+06
  -4.842012e+06   5.116945e+06
  -6.225672e+06   2.058418e+06
  -4.869711e+06  -3.003379e+06
  -1.209636e+06  -6.246838e+06
   1.853928e+06  -4.864051e+06
   1.866830e+06  -1.120473e+06
   8.152108e+04   4.675391e+05
  -3.296718e+05  -9.045734e+05
   1.320896e+06  -1.961422e+06
   2.735786e+06  -5.418244e+05
   2.144284e+06   1.669968e+06
   2.264246e+05   2.035342e+06
  -1.393189e+06   2.774120e+05
  -1.668407e+06  -1.913105e+06
  -1.352099e+05  -2.878642e+06
   2.678058e+06  -1.814405e+06
   4.601025e+06   9.624122e+05
   3.497294e+06   3.716000e+06
   1.426246e+05   4.416669e+06
  -2.302579e+06   2.942620e+06
  -2.344707e+06   1.228959e+06
  -1.890215e+06   6.747716e+05
  -2.944231e+06   4.912800e+05
  -4.359030e+06  -6.934655e+05
  -3.529400e+06  -2.687587e+06
  -2.209222e+05  -4.090893e+06
   3.056100e+06  -3.949390e+06
   4.033685e+06  -2.266060e+06
   2.657498e+06   2.576602e+05
   4.269966e+05   2.172488e+06
  -9.629774e+05   1.984245e+06
  -5.674271e+05   1.238045e+04
   1.016359e+06  -1.341596e+06
   1.904424e+06  -4.582413e+05
   9.920336e+05   1.184885e+06
  -4.544760e+05   1.113116e+06
  -3.779026e+05  -3.914727e+05
   1.138957e+06  -6.341652e+05
   1.891642e+06   1.440814e+06
   5.537186e+05   3.599269e+06
  -1.750400e+06   3.347465e+06
  -3.194174e+06   9.468718e+05
  -3.209581e+06  -1.506654e+06
  -2.166090e+06  -2.662412e+06
  -4.599791e+05  -2.502802e+06
   1.165021e+06  -1.468485e+06
   1.535716e+06  -2.852216e+05
   4.892003e+05   3.319489e+04
  -3.708160e+05  -7.408760e+05
   4.018415e+05  -1.369182e+06
   1.929564e+06  -6.258848e+05
   2.066995e+06   8.784206e+05
   3.932331e+05   1.436180e+06
  -1.166218e+06   5.798778e+05
  -8.553705e+05  -4.419628e+05
   8.653680e+05  -4.737633e+05
   2.123575e+06   3.537671e+05
   1.661305e+06   1.317696e+06
  -2.596956e+05   1.897783e+06
  -2.247383e+06   1.638096e+06
  -2.736329e+06   3.159500e+05
  -1.243829e+06  -1.252614e+06
   8.939842e+05  -1.552807e+06
   1.590305e+06  -2.369646e+05
   2.507666e+05   1.092443e+06
  -1.500036e+06   7.766728e+05
  -1.722647e+06  -7.622355e+05
  -3.286279e+05  -1.643439e+06
   1.103737e+06  -9.527998e+05
   1.247079e+06   3.384992e+05
   2.216309e+05   7.931079e+05
  -8.186562e+05   6.527170e+04
  -7.692919e+05  -1.038353e+06
   5.275049e+05  -1.438112e+06
   1.979169e+06  -6.029655e+05
   2.057346e+06   9.881297e+05
   4.304014e+05   2.062274e+06
  -1.412439e+06   1.668091e+06
  -1.720448e+06   2.294831e+05
  -4.997418e+05  -8.644414e+05
   6.491944e+05  -8.014491e+05
   6.020712e+05  -9.008271e+04
  -1.356182e+05   3.167426e+05
  -4.504032e+05   1.674214e+05
  -4.719744e+04  -5.523894e+04
   4.902616e+05   1.288653e+05
   5.098251e+05   7.109394e+05
  -2.169634e+05   1.195765e+06
  -1.368942e+06   9.102804e+05
  -2.078674e+06  -3.726418e+05
  -1.502469e+06  -1.900885e+06
   1.599712e+05  -2.398044e+06
   1.567236e+06  -1.401961e+06
   1.644994e+06   1.176094e+05
   8.142017e+05   8.407147e+05
   3.066095e+05   5.594891e+05
   5.171125e+05   1.537434e+05
   6.813635e+05   3.119835e+05
   1.171212e+05   7.891745e+05
  -8.666753e+05   9.048537e+05
  -1.421067e+06   3.253065e+05
  -1.017817e+06  -6.862646e+05
   2.440617e+05  -1.411239e+06
   1.681328e+06  -1.069746e+06
   2.222846e+06   4.397849e+05
   1.145628e+06   2.068421e+06
  -9.892750e+05   2.374892e+06
  -2.531572e+06   1.052237e+06
  -2.328676e+06  -6.473877e+05
  -9.164363e+05  -1.312769e+06
   2.201260e+05  -8.924624e+05
   3.409525e+05  -4.641145e+05
  -7.232713e+03  -7.503475e+05
   3.642772e+04  -1.337920e+06
   6.445602e+05  -1.325568e+06
   1.296392e+06  -3.580061e+05
   1.362059e+06   1.034637e+06
   6.025529e+05   1.862334e+06
  -5.762605e+05   1.439385e+06
  -1.270895e+06   1.857525e+04
  -8.242620e+05  -1.274999e+06
   3.879050e+05  -1.398853e+06
   1.184403e+06  -3.919413e+05
   8.288618e+05   7.329749e+05
  -1.370679e+05   1.105920e+06
  -5.675025e+05   7.839506e+05
  -9.780383e+04   3.941752e+05
   4.471823e+05   3.097952e+05
   7.512620e+04   3.732013e+05
  -1.153251e+06   2.295837e+05
  -2.080872e+06  -2.901076e+05
  -1.629917e+06  -1.008462e+06
   3.542802e+04  -1.451484e+06
   1.587820e+06  -1.182822e+06
   1.825595e+06  -2.947808e+05
   8.285721e+05   5.163626e+05
  -2.619588e+05   5.928063e+05
  -5.198927e+05   2.780300e+04
  -5.666989e+04  -4.433564e+05
   4.169441e+05  -2.750386e+05
   4.919043e+05   3.252449e+05
   3.046542e+05   6.980473e+05
   1.406219e+05   4.682653e+05
   1.311118e+05  -7.281706e+04
   2.440597e+05  -2.650554e+05
   2.723734e+05   2.278108e+05
  -9.775323e+04   9.683190e+05
  -8.654112e+05   1.087230e+06
  -1.386956e+06   2.360036e+05
  -9.117844e+05  -8.803237e+05
   3.793053e+05  -1.175067e+06
   1.260934e+06  -4.054474e+05
   7.480769e+05   5.358492e+05
  -6.894980e+05   6.535167e+05
  -1.560606e+06  -7.749519e+04
  -9.676724e+05  -8.432279e+05
   4.945059e+05  -9.619104e+05
   1.465212e+06  -4.559629e+05
   1.192157e+06   1.894612e+05
   1.247538e+05   4.976437e+05
  -6.425237e+05   2.640571e+05
  -4.021253e+05  -2.935071e+05
   5.452425e+05  -5.530795e+05
   1.177714e+06   1.491232e+04
   7.376449e+05   1.133029e+06
  -4.870531e+05   1.719763e+06
  -1.420086e+06   9.512534e+05
  -1.268686e+06  -6.952215e+05
  -2.603263e+05  -1.757022e+06
   6.947149e+05  -1.279045e+06
   9.133091e+05   1.761947e+05
   4.312085e+05   1.171752e+06
  -2.286129e+05   9.444492e+05
  -5.657428e+05   8.317903e+04
  -4.432121e+05  -3.544146e+05
  -1.336770e+05  -1.222075e+05
  -5.790932e+04   8.618894e+04
  -3.319997e+05  -3.042479e+05
  -5.501752e+05  -9.495781e+05
  -1.809988e+05  -1.054950e+06
   7.402463e+05  -4.057900e+05
   1.465626e+06   4.147872e+05
   1.253104e+06   7.905362e+05
   1.995293e+05   6.935111e+05
  -7.972577e+05   4.439943e+05
  -9.554903e+05   1.971245e+05
  -3.878793e+05  -6.083852e+04
   1.232244e+05  -2.311397e+05
   7.019748e+04  -1.848151e+05
  -2.207233e+05  -6.218970e+04
  -7.197483e+04  -1.268990e+05
   5.986603e+05  -2.728274e+05
   1.042678e+06  -4.048073e+04
   5.206735e+05   6.756849e+05
  -7.462457e+05   1.224561e+06
  -1.685973e+06   8.479477e+05
  -1.471126e+06  -3.461113e+05
  -3.445731e+05  -1.374571e+06
   7.195725e+05  -1.408729e+06
   1.019747e+06  -6.059155e+05
   6.513566e+05   1.788439e+05
   1.669119e+05   3.503677e+05
  -2.592347e+04   9.523432e+04
   9.585754e+04   1.162434e+04
   2.905496e+05   3.678742e+05
   2.574577e+05   7.926048e+05
  -1.407033e+05   6.905998e+05
  -6.701442e+05  -6.005381e+04
  -7.997993e+05  -8.801470e+05
  -2.110502e+05  -1.021705e+06
   7.059481e+05  -3.229938e+05
   1.071320e+06   6.266100e+05
   4.236974e+05   1.067133e+06
  -6.692215e+05   7.376951e+05
  -1.135665e+06  -1.139257e+04
  -5.815408e+05  -6.162526e+05
   2.575496e+05  -7.283247e+05
   3.992936e+05  -3.925001e+05
  -2.020680e+05   1.718215e+04
  -6.308043e+05   7.377625e+04
  -1.740225e+05  -3.071555e+05
   7.898672e+05  -7.023830e+05
   1.264167e+06  -5.575061e+05
   8.081987e+05   1.764788e+05
  -5.352214e+04   8.837040e+05
  -5.485205e+05   8.921372e+05
  -4.581312e+05   2.123973e+05
  -9.744547e+04  -4.538617e+05
   2.087410e+05  -4.663566e+05
   3.520991e+05   9.050598e+04
   2.842828e+05   5.594588e+05
  -2.105652e+04   4.625260e+05
  -3.910593e+05  -8.785289e+03
  -4.993710e+05  -2.845985e+05
  -2.460397e+05  -1.099394e+05
   6.223059e+04   1.784181e+05
   8.668827e+04   1.048693e+05
  -8.363249e+04  -3.221948e+05
  -5.745438e+04  -5.902458e+05
   2.781574e+05  -3.052990e+05
   5.251302e+05   3.043288e+05
   2.585783e+05   6.263950e+05
  -3.684945e+05   3.511195e+05
  -6.991774e+05  -2.172787e+05
  -2.999067e+05  -5.394264e+05
   4.984546e+05  -3.932489e+05
   9.034558e+05   1.328306e+04
   5.057449e+05   3.503925e+05
  -2.713108e+05   4.426361e+05
  -6.332230e+05   2.959574e+05
  -2.804394e+05   3.803291e+04
   2.926913e+05  -1.171454e+05
   3.876900e+05  -3.321143e+03
  -1.154448e+05   2.675137e+05
  -6.614712e+05   3.052037e+05
