
 $NMID
 id='ANONYMOUS ', fmtdat='(2E16.6)'
 volume=1.0
 tramp=1.0
 $END
   3.056420e+06  -4.391510e+05
   2.118166e+06   1.500743e+06
  -2.227363e+04   2.058663e+06
  -1.295818e+06   1.112541e+06
  -9.549853e+05  -1.091558e+05
   4.224246e+04  -5.203082e+05
   5.327081e+05  -1.020115e+05
   3.010564e+05   4.696044e+05
  -1.852381e+05   6.198260e+05
  -4.955648e+05   2.543465e+05
  -4.628591e+05  -2.856061e+05
  -1.329984e+05  -5.021075e+05
   2.163638e+05  -1.843959e+05
   2.313073e+05   3.239798e+05
  -1.213504e+05   4.494417e+05
  -4.470607e+05   2.954182e+04
  -3.606148e+05  -5.180181e+05
   8.472318e+04  -6.944521e+05
   5.075320e+05  -4.142613e+05
   6.118215e+05   4.182569e+04
   3.947927e+05   3.705606e+05
   7.304371e+04   4.400598e+05
  -8.948494e+04   3.025442e+05
   7.316151e+03   1.507982e+05
   1.606951e+05   1.663045e+05
   5.160790e+04   3.062318e+05
  -3.339720e+05   3.260957e+05
  -6.094897e+05   9.669481e+04
  -4.489419e+05  -2.031945e+05
  -1.407723e+04  -3.060134e+05
   2.528477e+05  -1.693675e+05
   1.652858e+05   3.166586e+04
  -7.405372e+04   1.291317e+05
  -2.095453e+05   6.682521e+04
  -1.822398e+05  -1.180454e+05
  -5.440180e+04  -2.808351e+05
   9.718127e+04  -2.313966e+05
   1.672150e+05   2.727246e+04
   8.399809e+04   2.051494e+05
  -4.910835e+04   6.605144e+04
  -3.384833e+04  -1.991173e+05
   1.274412e+05  -1.849934e+05
   1.770349e+05   1.424656e+05
  -4.478013e+04   3.476520e+05
  -3.271843e+05   1.119953e+05
  -3.225280e+05  -3.214353e+05
   1.890687e+04  -4.670756e+05
   3.882730e+05  -1.970398e+05
   4.619995e+05   1.784214e+05
   2.004140e+05   3.321268e+05
  -1.655694e+05   2.188451e+05
  -3.448141e+05  -4.221890e+03
  -2.084656e+05  -1.624009e+05
   9.632406e+04  -1.539662e+05
   2.641456e+05  -5.767302e+03
   1.451915e+05   1.230527e+05
  -7.970689e+04   9.415660e+04
  -1.249453e+05  -3.422236e+04
   3.380149e+04  -7.650427e+04
   1.450047e+05   3.044428e+04
   2.988391e+04   1.517401e+05
  -1.955691e+05   1.426553e+05
  -2.926006e+05   2.517726e+03
  -1.739508e+05  -1.825306e+05
   6.306145e+04  -3.292512e+05
   2.774363e+05  -3.443146e+05
   3.686450e+05  -1.530888e+05
   2.941483e+05   1.649486e+05
   1.089082e+05   3.705567e+05
  -4.333533e+04   3.122983e+05
  -6.515422e+04   1.189262e+05
  -1.792707e+04   3.166062e+04
  -3.332590e+04   9.189963e+04
  -1.325977e+05   1.237895e+05
  -2.045897e+05   1.143025e+04
  -1.542285e+05  -1.422229e+05
  -7.358277e+03  -1.671723e+05
   1.288342e+05  -3.547766e+04
   1.529888e+05   1.326090e+05
   2.903689e+04   2.036675e+05
  -1.718963e+05   1.270276e+05
  -2.908391e+05  -4.851653e+04
  -2.180407e+05  -2.053926e+05
  -2.571944e+04  -2.418126e+05
   1.048762e+05  -1.668212e+05
   1.059408e+05  -8.665332e+04
   9.373200e+04  -7.275555e+04
   1.795255e+05  -7.794015e+04
   2.919888e+05  -1.178941e+04
   2.655746e+05   1.348296e+05
   6.318932e+04   2.737178e+05
  -1.698293e+05   3.033281e+05
  -2.650626e+05   1.878276e+05
  -1.862821e+05  -1.150795e+04
  -3.182600e+04  -1.582886e+05
   6.529520e+04  -1.414132e+05
   3.882607e+04   1.600975e+03
  -6.262975e+04   1.010138e+05
  -1.201889e+05   4.740929e+04
  -6.854840e+04  -6.970281e+04
   2.588228e+04  -8.422102e+04
   4.296654e+04   1.534553e+04
  -4.178082e+04   7.017841e+04
  -1.277347e+05  -2.774055e+04
  -1.095052e+05  -1.904679e+05
   1.616298e+04  -2.494651e+05
   1.670931e+05  -1.491251e+05
   2.512205e+05   2.363673e+04
   2.155748e+05   1.525543e+05
   7.631951e+04   1.801085e+05
  -6.935920e+04   1.185282e+05
  -1.087004e+05   3.340651e+04
  -3.412002e+04   3.180261e+03
   3.424206e+04   4.586837e+04
  -8.532646e+03   9.079217e+04
  -1.145041e+05   6.042810e+04
  -1.430993e+05  -2.844854e+04
  -4.593425e+04  -8.432570e+04
   6.931397e+04  -5.535378e+04
   7.158918e+04   1.637909e+04
  -4.305898e+04   5.415074e+04
  -1.556481e+05   2.133915e+04
  -1.504839e+05  -6.357881e+04
  -1.989682e+04  -1.440090e+05
   1.338727e+05  -1.506993e+05
   1.856353e+05  -5.758933e+04
   9.699646e+04   6.705258e+04
  -4.254671e+04   1.073260e+05
  -9.747015e+04   2.914244e+04
  -2.274466e+04  -6.857787e+04
   9.259630e+04  -6.781884e+04
   1.261962e+05   2.745823e+04
   4.994927e+04   1.048744e+05
  -5.426953e+04   8.461195e+04
  -8.843872e+04   3.112326e+03
  -3.131324e+04  -4.539147e+04
   4.940930e+04  -1.383859e+04
   6.172765e+04   6.162477e+04
  -2.273787e+04   1.037218e+05
  -1.308689e+05   6.085862e+04
  -1.512101e+05  -4.665121e+04
  -5.242718e+04  -1.351139e+05
   7.441112e+04  -1.293268e+05
   1.127743e+05  -3.861168e+04
   4.735802e+04   5.030939e+04
  -3.239623e+04   6.425558e+04
  -4.561684e+04   1.444512e+04
  -1.874751e+03  -3.099449e+04
   3.311938e+04  -2.878368e+04
   1.970756e+04   6.411456e+02
  -2.305529e+04   7.146584e+03
  -4.421746e+04  -3.087538e+04
  -5.876027e+03  -8.028163e+04
   7.999934e+04  -7.955638e+04
   1.466113e+05   1.587063e+02
   1.244847e+05   1.129984e+05
   1.715100e+04   1.691885e+05
  -9.073132e+04   1.222101e+05
  -1.200720e+05   1.877431e+04
  -7.877115e+04  -5.146619e+04
  -3.643284e+04  -4.989148e+04
  -3.249301e+04  -1.733220e+04
  -3.932945e+04  -1.333016e+04
  -1.353283e+04  -4.697613e+04
   4.536350e+04  -7.321683e+04
   9.438847e+04  -4.513852e+04
   8.635841e+04   3.480606e+04
   7.388541e+03   1.070736e+05
  -1.024686e+05   9.992033e+04
  -1.615190e+05  -1.556584e+03
  -1.076351e+05  -1.260901e+05
   3.307903e+04  -1.722337e+05
   1.547422e+05  -1.057337e+05
   1.694169e+05   7.764607e+03
   9.026815e+04   7.558141e+04
   5.013758e+03   7.210217e+04
  -2.211507e+04   4.773771e+04
  -4.199880e+03   5.500546e+04
   3.800600e+03   8.700678e+04
  -2.907104e+04   9.221407e+04
  -8.200348e+04   3.627875e+04
  -1.043786e+05  -5.737937e+04
  -6.215675e+04  -1.227581e+05
   2.451317e+04  -1.065900e+05
   8.796116e+04  -1.790697e+04
   7.270782e+04   7.398643e+04
  -4.595012e+03   9.841004e+04
  -6.752949e+04   4.578826e+04
  -6.098653e+04  -2.990335e+04
  -9.070915e+03  -6.890860e+04
   1.965557e+04  -5.873802e+04
  -3.260751e+03  -3.108157e+04
  -3.333938e+04  -1.917694e+04
  -8.539391e+03  -2.629871e+04
   7.313363e+04  -2.927380e+04
   1.415631e+05  -4.301658e+03
   1.230308e+05   4.751924e+04
   1.885596e+04   9.393795e+04
  -8.956345e+04   9.544737e+04
  -1.186521e+05   4.505782e+04
  -6.275025e+04  -1.705737e+04
   9.301927e+03  -3.898626e+04
   3.224650e+04  -1.055502e+04
   4.736885e+03   2.588535e+04
  -2.895466e+04   2.316961e+04
  -3.679369e+04  -1.746365e+04
  -2.337247e+04  -4.875494e+04
  -9.343419e+03  -3.320942e+04
  -7.529348e+03   1.105994e+04
  -1.689034e+04   2.805832e+04
  -2.241222e+04  -1.156770e+04
  -1.859699e+03  -7.133714e+04
   4.768358e+04  -8.383599e+04
   8.746116e+04  -2.547312e+04
   6.587982e+04   5.335886e+04
  -1.496384e+04   7.985844e+04
  -8.058981e+04   3.487765e+04
  -5.759385e+04  -3.107173e+04
   3.832329e+04  -5.389572e+04
   1.107659e+05  -1.692017e+04
   8.464148e+04   4.297423e+04
  -1.537017e+04   7.562979e+04
  -9.526360e+04   5.795935e+04
  -8.917336e+04   7.117081e+03
  -1.816892e+04  -3.356603e+04
   3.984792e+04  -2.851326e+04
   2.857805e+04   1.448505e+04
  -3.564764e+04   4.247781e+04
  -8.299681e+04   7.217840e+03
  -5.899018e+04  -7.493369e+04
   2.239783e+04  -1.249173e+05
   9.308650e+04  -7.875906e+04
   9.670596e+04   3.698193e+04
   3.734902e+04   1.216600e+05
  -3.326883e+04   1.006886e+05
  -6.578653e+04   2.363689e+03
  -4.745596e+04  -7.521162e+04
  -1.043715e+03  -7.003420e+04
   3.630030e+04  -1.400688e+04
   3.927838e+04   1.946756e+04
   1.556658e+04   7.059148e+03
   9.639188e+02  -7.519964e+03
   1.942028e+04   1.654957e+04
   4.643246e+04   5.975941e+04
   3.019666e+04   7.115888e+04
  -4.087901e+04   3.580855e+04
  -1.083015e+05  -1.247547e+04
  -1.017219e+05  -3.970525e+04
  -2.204097e+04  -4.507881e+04
   5.546768e+04  -4.088588e+04
   6.586983e+04  -2.669939e+04
   2.330148e+04  -1.526379e+03
  -7.948925e+03   1.763460e+04
   3.149155e+03   1.469341e+04
   2.263102e+04   3.195825e+03
   4.356047e+03   9.127168e+03
  -4.560968e+04   2.529109e+04
  -7.240115e+04   1.205157e+04
  -3.520113e+04  -4.338529e+04
   4.559754e+04  -9.193697e+04
   1.066008e+05  -7.191119e+04
   1.007545e+05   1.403628e+04
   3.667274e+04   9.426948e+04
  -3.467912e+04   1.038690e+05
  -6.609361e+04   4.929932e+04
  -4.922756e+04  -8.542622e+03
  -1.293478e+04  -2.342674e+04
   6.590050e+03  -5.163789e+03
  -3.896421e+03   3.364572e+03
  -2.623781e+04  -2.024496e+04
  -2.851519e+04  -5.206826e+04
   4.147827e+03  -4.897900e+04
   4.975506e+04   6.196455e+02
   6.296452e+04   5.798950e+04
   1.914928e+04   7.062410e+04
  -5.094427e+04   2.571456e+04
  -8.119127e+04  -3.824869e+04
  -3.701393e+04  -7.118843e+04
   4.139847e+04  -5.485113e+04
   7.750601e+04  -8.462445e+03
   4.290155e+04   3.455249e+04
  -1.171326e+04   4.873551e+04
  -1.999116e+04   2.909698e+04
   1.927378e+04  -2.890324e+03
   4.491039e+04  -1.121343e+04
   1.338699e+04   1.932142e+04
  -4.792106e+04   5.791809e+04
  -7.763949e+04   5.428715e+04
  -5.249396e+04  -1.829979e+03
  -4.244569e+03  -6.066069e+04
   2.576396e+04  -6.481960e+04
   2.624534e+04  -1.461951e+04
   9.508739e+03   3.354089e+04
  -1.160004e+04   3.246785e+04
  -2.715543e+04  -6.937896e+03
  -2.493106e+04  -3.668916e+04
  -8.287626e+02  -2.906310e+04
   2.787299e+04  -1.386441e+03
   3.542274e+04   1.238040e+04
   1.746850e+04   2.559764e+03
  -2.956597e+03  -9.182595e+03
  -4.908634e+03   4.533317e+02
   3.994400e+03   2.632682e+04
   3.364891e+01   3.866863e+04
  -2.156087e+04   1.717222e+04
  -3.569899e+04  -2.295334e+04
  -1.694199e+04  -4.433921e+04
   2.517077e+04  -2.680822e+04
   4.914707e+04   1.203035e+04
   2.469087e+04   3.723841e+04
  -2.991257e+04   3.146364e+04
  -6.146070e+04   5.298183e+03
  -3.765257e+04  -2.003727e+04
   1.562295e+04  -3.045488e+04
   4.149420e+04  -2.266333e+04
   1.609011e+04  -3.699208e+03
  -2.518385e+04   9.075527e+03
  -3.049773e+04  -2.085144e+02
   8.450425e+03  -2.398437e+04
   4.979447e+04  -2.971178e+04
