
 $NMID
 id='ANONYMOUS ', fmtdat='(2E16.6)'
 volume=1.0
 tramp=1.0
 $END
  -5.484711e+07  -1.820642e+05
  -3.274160e+07  -3.425538e+07
   7.564885e+06  -3.711063e+07
   2.694780e+07  -1.393704e+07
   1.587674e+07   7.088630e+06
  -3.372739e+06   9.036506e+06
  -9.512239e+06  -1.367030e+06
  -2.532807e+06  -9.521091e+06
   6.130243e+06  -8.916821e+06
   9.362774e+06  -1.797255e+06
   6.737814e+06   6.032142e+06
   7.626902e+05   8.300762e+06
  -3.869502e+06   2.664422e+06
  -2.525514e+06  -5.204512e+06
   3.676678e+06  -6.246723e+06
   7.610431e+06   1.376408e+06
   4.233744e+06   9.911614e+06
  -3.733420e+06   1.140325e+07
  -9.824866e+06   5.696622e+06
  -1.050873e+07  -1.998033e+06
  -6.470988e+06  -7.302145e+06
  -6.748203e+05  -8.484716e+06
   2.929773e+06  -5.935287e+06
   1.949630e+06  -2.547626e+06
  -1.007324e+06  -1.937355e+06
  -3.097310e+05  -3.945683e+06
   5.123788e+06  -4.276481e+06
   9.293817e+06  -5.496025e+05
   6.834708e+06   3.966287e+06
   3.116049e+05   4.928205e+06
  -3.538147e+06   2.561973e+06
  -2.419772e+06   1.057194e+05
   4.588508e+05  -8.587041e+05
   2.076436e+06  -5.246228e+05
   2.110245e+06   1.270594e+06
   7.470016e+05   3.736210e+06
  -1.715554e+06   3.757576e+06
  -3.198477e+06  -5.674867e+04
  -1.725434e+06  -3.551272e+06
   7.702820e+05  -1.954008e+06
   3.963679e+05   2.304974e+06
  -2.346745e+06   2.193111e+06
  -2.336800e+06  -3.118920e+06
   2.437359e+06  -5.941212e+06
   6.824716e+06  -9.313655e+05
   4.969762e+06   6.786871e+06
  -1.914002e+06   8.299866e+06
  -7.225481e+06   2.330654e+06
  -6.685734e+06  -4.320059e+06
  -1.726874e+06  -5.810077e+06
   3.362949e+06  -2.570587e+06
   5.027089e+06   1.515776e+06
   2.274206e+06   3.378616e+06
  -2.380301e+06   2.097973e+06
  -4.379421e+06  -9.356853e+05
  -1.855306e+06  -2.659789e+06
   1.681649e+06  -1.320500e+06
   1.656381e+06   1.002011e+06
  -1.322132e+06   8.485556e+05
  -2.379268e+06  -1.778317e+06
   6.874029e+05  -3.376727e+06
   4.560768e+06  -1.806850e+06
   5.136967e+06   1.382821e+06
   2.211389e+06   3.882627e+06
  -1.735172e+06   5.086227e+06
  -4.795844e+06   4.682293e+06
  -5.967220e+06   1.710549e+06
  -4.451333e+06  -3.031646e+06
  -9.244590e+05  -5.952176e+06
   1.824957e+06  -4.574704e+06
   1.718379e+06  -1.114136e+06
   1.117070e+05   3.009109e+05
  -1.155525e+05  -9.416550e+05
   1.481709e+06  -1.778152e+06
   2.702279e+06  -3.039846e+05
   1.986188e+06   1.802985e+06
   7.318709e+04   2.046064e+06
  -1.456512e+06   2.193718e+05
  -1.607676e+06  -1.959962e+06
  -2.281058e+04  -2.811893e+06
   2.653381e+06  -1.618865e+06
   4.330902e+06   1.118696e+06
   3.139668e+06   3.632987e+06
  -2.958845e+04   4.115559e+06
  -2.223267e+06   2.647616e+06
  -2.184065e+06   1.090711e+06
  -1.777260e+06   6.354323e+05
  -2.828410e+06   4.433534e+05
  -4.177006e+06  -7.426171e+05
  -3.344869e+06  -2.662735e+06
  -1.230868e+05  -3.963329e+06
   3.070003e+06  -3.750277e+06
   3.997505e+06  -2.059615e+06
   2.564292e+06   3.782915e+05
   2.975939e+05   2.145426e+06
  -1.038438e+06   1.876225e+06
  -5.487332e+05  -2.730582e+04
   1.039857e+06  -1.268539e+06
   1.845673e+06  -3.857157e+05
   9.006030e+05   1.169189e+06
  -4.920124e+05   1.073973e+06
  -3.968739e+05  -3.778110e+05
   1.051735e+06  -6.407539e+05
   1.779358e+06   1.303504e+06
   5.553433e+05   3.389409e+06
  -1.608304e+06   3.237422e+06
  -3.037242e+06   9.860299e+05
  -3.132478e+06  -1.433429e+06
  -2.133671e+06  -2.638390e+06
  -4.218402e+05  -2.481895e+06
   1.182997e+06  -1.404488e+06
   1.511789e+06  -2.259225e+05
   4.737131e+05   4.505060e+04
  -3.442996e+05  -7.267876e+05
   4.099368e+05  -1.302350e+06
   1.858933e+06  -5.555225e+05
   1.968232e+06   8.778301e+05
   3.588481e+05   1.382524e+06
  -1.138593e+06   5.454320e+05
  -8.455570e+05  -4.423906e+05
   8.260447e+05  -4.776758e+05
   2.077719e+06   3.382229e+05
   1.641348e+06   1.306849e+06
  -2.597013e+05   1.871585e+06
  -2.221416e+06   1.570013e+06
  -2.668938e+06   2.519740e+05
  -1.171892e+06  -1.233140e+06
   8.986632e+05  -1.462050e+06
   1.524395e+06  -1.815056e+05
   2.010076e+05   1.055428e+06
  -1.470270e+06   7.127709e+05
  -1.655185e+06  -7.676958e+05
  -3.037582e+05  -1.597672e+06
   1.071414e+06  -9.215936e+05
   1.207638e+06   3.272377e+05
   2.186276e+05   7.642763e+05
  -7.815678e+05   4.995612e+04
  -7.174976e+05  -1.020851e+06
   5.505842e+05  -1.379888e+06
   1.937251e+06  -5.309326e+05
   1.968671e+06   1.012129e+06
   3.677536e+05   2.007225e+06
  -1.401251e+06   1.583216e+06
  -1.670241e+06   1.897886e+05
  -4.739140e+05  -8.461305e+05
   6.438290e+05  -7.700494e+05
   6.032393e+05  -7.354643e+04
  -1.215040e+05   3.301482e+05
  -4.576608e+05   1.837927e+05
  -8.870376e+04  -5.467124e+04
   4.442324e+05   1.027044e+05
   4.859975e+05   6.688381e+05
  -2.169729e+05   1.145921e+06
  -1.339486e+06   8.563240e+05
  -2.007229e+06  -4.051660e+05
  -1.411889e+06  -1.877866e+06
   2.119197e+05  -2.329816e+06
   1.556372e+06  -1.343877e+06
   1.612147e+06   1.360118e+05
   8.014613e+05   8.505442e+05
   2.980921e+05   5.939568e+05
   4.778217e+05   1.913782e+05
   6.244618e+05   3.107778e+05
   8.902394e+04   7.491751e+05
  -8.512596e+05   8.609654e+05
  -1.388611e+06   2.992558e+05
  -9.926474e+05  -6.905970e+05
   2.521781e+05  -1.385179e+06
   1.656322e+06  -1.017433e+06
   2.157093e+06   4.718114e+05
   1.078689e+06   2.028830e+06
  -9.938389e+05   2.279746e+06
  -2.464990e+06   9.771417e+05
  -2.255287e+06  -6.583102e+05
  -8.925733e+05  -1.292027e+06
   2.134295e+05  -8.881229e+05
   3.589431e+05  -4.711563e+05
   4.760881e+04  -7.297599e+05
   8.791750e+04  -1.277983e+06
   6.533579e+05  -1.254394e+06
   1.256745e+06  -3.100550e+05
   1.293277e+06   1.040421e+06
   5.382276e+05   1.825470e+06
  -5.976154e+05   1.385297e+06
  -1.237461e+06  -6.841925e+03
  -7.763271e+05  -1.246398e+06
   3.922096e+05  -1.346081e+06
   1.136981e+06  -3.720052e+05
   7.819921e+05   6.989557e+05
  -1.383778e+05   1.050370e+06
  -5.406262e+05   7.494411e+05
  -9.181887e+04   3.912188e+05
   4.215663e+05   3.180441e+05
   6.065560e+04   3.665364e+05
  -1.114438e+06   1.982853e+05
  -1.998790e+06  -3.259579e+05
  -1.558073e+06  -1.007881e+06
   5.185105e+04  -1.394136e+06
   1.549836e+06  -1.103559e+06
   1.771846e+06  -2.551817e+05
   7.972915e+05   4.970581e+05
  -2.600083e+05   5.573944e+05
  -4.980768e+05   2.375759e+04
  -3.539897e+04  -4.176262e+05
   4.196808e+05  -2.524550e+05
   4.664255e+05   3.288435e+05
   2.610439e+05   6.916867e+05
   1.083797e+05   4.608571e+05
   1.296977e+05  -7.968899e+04
   2.551836e+05  -2.683591e+05
   2.621215e+05   2.242134e+05
  -1.258968e+05   9.440394e+05
  -8.651947e+05   1.031916e+06
  -1.332424e+06   1.829065e+05
  -8.434766e+05  -8.791786e+05
   3.981429e+05  -1.115377e+06
   1.223731e+06  -3.447018e+05
   7.109329e+05   5.449075e+05
  -6.808428e+05   6.211477e+05
  -1.521357e+06  -1.025688e+05
  -9.432334e+05  -8.358457e+05
   4.848365e+05  -9.359930e+05
   1.437603e+06  -4.336009e+05
   1.169436e+06   1.979769e+05
   1.190561e+05   4.903187e+05
  -6.282802e+05   2.499781e+05
  -3.778672e+05  -2.897708e+05
   5.525568e+05  -5.162994e+05
   1.143779e+06   5.716395e+04
   6.728304e+05   1.128011e+06
  -5.368527e+05   1.653926e+06
  -1.415048e+06   8.769235e+05
  -1.215508e+06  -7.155216e+05
  -2.062602e+05  -1.720157e+06
   7.078107e+05  -1.236695e+06
   8.869533e+05   1.824498e+05
   4.026423e+05   1.148572e+06
  -2.296712e+05   9.215209e+05
  -5.475204e+05   7.360150e+04
  -4.342554e+05  -3.577541e+05
  -1.401410e+05  -1.255863e+05
  -5.363346e+04   8.609111e+04
  -2.970946e+05  -2.968101e+05
  -5.047703e+05  -9.348590e+05
  -1.651259e+05  -1.033618e+06
   7.131770e+05  -3.782980e+05
   1.418803e+06   4.410756e+05
   1.214241e+06   8.001817e+05
   1.783345e+05   6.766639e+05
  -7.998660e+05   4.110017e+05
  -9.394047e+05   1.727926e+05
  -3.647837e+05  -6.203931e+04
   1.310956e+05  -2.207221e+05
   5.791621e+04  -1.845822e+05
  -2.296607e+05  -7.367734e+04
  -6.088326e+04  -1.265161e+05
   6.068881e+05  -2.446241e+05
   1.013793e+06  -6.891406e+03
   4.650625e+05   6.697580e+05
  -7.744893e+05   1.162473e+06
  -1.652737e+06   7.672001e+05
  -1.402329e+06  -3.864314e+05
  -2.918161e+05  -1.349376e+06
   7.338237e+05  -1.345243e+06
   1.008284e+06  -5.511201e+05
   6.315383e+05   2.000676e+05
   1.462748e+05   3.453224e+05
  -4.182010e+04   8.339006e+04
   8.723006e+04   3.464213e+03
   2.798629e+05   3.604458e+05
   2.355187e+05   7.776184e+05
  -1.590234e+05   6.649702e+05
  -6.540140e+05  -8.705059e+04
  -7.451137e+05  -8.890476e+05
  -1.598188e+05  -9.988758e+05
   7.056741e+05  -2.802353e+05
   1.020234e+06   6.533033e+05
   3.723252e+05   1.049281e+06
  -6.743308e+05   6.876789e+05
  -1.096841e+06  -4.731877e+04
  -5.394673e+05  -6.054685e+05
   2.701123e+05  -6.874659e+05
   3.869753e+05  -3.670597e+05
  -2.106762e+05   6.267125e+03
  -6.190892e+05   5.215867e+04
  -1.557844e+05  -3.010650e+05
   7.876651e+05  -6.630376e+05
   1.232864e+06  -5.167928e+05
   7.669660e+05   1.840956e+05
  -7.827004e+04   8.525932e+05
  -5.466881e+05   8.461229e+05
  -4.382469e+05   1.831956e+05
  -7.500111e+04  -4.500402e+05
   2.189810e+05  -4.403005e+05
   3.411349e+05   1.100694e+05
   2.587703e+05   5.526155e+05
  -3.735147e+04   4.381455e+05
  -3.798096e+05  -2.503010e+04
  -4.729305e+05  -2.825454e+05
  -2.356412e+05  -1.062149e+05
   4.888276e+04   1.659353e+05
   8.021997e+04   8.449807e+04
  -5.547938e+04  -3.244439e+05
  -1.418888e+04  -5.632288e+05
   2.880293e+05  -2.667965e+05
   4.862618e+05   3.263888e+05
   2.117505e+05   6.194484e+05
  -3.749022e+05   3.250559e+05
  -6.657547e+05  -2.398473e+05
  -2.701102e+05  -5.383620e+05
   4.922536e+05  -3.661569e+05
   8.710593e+05   4.466222e+04
   4.781088e+05   3.557157e+05
  -2.770063e+05   4.133776e+05
  -6.215249e+05   2.579885e+05
  -2.641187e+05   2.637031e+04
   3.022575e+05  -9.613599e+04
   3.832028e+05   2.169581e+04
  -1.308275e+05   2.657507e+05
  -6.705314e+05   2.780769e+05
