
 $NMID
 id='ANONYMOUS ', fmtdat='(2E16.6)'
 volume=1.0
 tramp=1.0
 $END
   2.079290e+06   1.658887e+06
   5.128720e+05   1.483345e+06
  -7.315003e+05   9.125305e+05
  -1.085667e+06   5.450303e+05
  -7.068926e+05   1.550593e+05
  -3.671141e+04  -2.918945e+05
   4.324567e+05  -2.685406e+05
   3.592735e+05   3.328261e+05
  -1.252760e+05   7.204972e+05
  -4.672415e+05   2.633917e+05
  -2.916161e+05  -5.237895e+05
   1.636887e+05  -6.479528e+05
   3.713989e+05   2.845857e+04
   1.382219e+05   6.788428e+05
  -2.494060e+05   6.033472e+05
  -3.873232e+05  -3.951379e+04
  -1.199045e+05  -5.753894e+05
   3.524639e+05  -5.355720e+05
   6.094121e+05  -5.055219e+03
   3.699451e+05   5.075987e+05
  -1.541001e+05   5.313837e+05
  -3.910634e+05   1.270952e+05
  -5.965730e+04  -1.346965e+05
   4.258052e+05   1.431807e+05
   4.039759e+05   6.385282e+05
  -2.340641e+05   6.924155e+05
  -8.939095e+05   1.509223e+05
  -9.285945e+05  -4.712698e+05
  -2.926450e+05  -6.433564e+05
   4.528420e+05  -3.328718e+05
   6.682028e+05   1.440573e+05
   1.929232e+05   4.612132e+05
  -4.961822e+05   3.936882e+05
  -7.111813e+05  -7.453865e+04
  -2.614904e+05  -5.807907e+05
   3.161933e+05  -6.037140e+05
   3.839966e+05  -8.565641e+04
  -2.864741e+04   3.816433e+05
  -3.216405e+05   2.506430e+05
  -1.433798e+05  -2.759959e+05
   2.129240e+05  -5.286846e+05
   3.106183e+05  -2.488248e+05
   1.399925e+05   1.511924e+05
  -1.519892e+04   2.005836e+05
  -2.487887e+04  -7.353538e+04
   4.832109e+04  -2.981837e+05
   1.872637e+05  -2.249588e+05
   3.866825e+05   8.806550e+04
   4.591331e+05   4.061251e+05
   1.921870e+05   4.965791e+05
  -2.776969e+05   2.835543e+05
  -5.188145e+05  -5.994596e+04
  -3.161189e+05  -2.402567e+05
   7.064034e+04  -1.426242e+05
   2.485314e+05   5.787425e+04
   1.238208e+05   1.313958e+05
  -9.750044e+04   4.534951e+04
  -1.908536e+05  -7.988210e+04
  -8.943592e+04  -1.542865e+05
   1.024040e+05  -1.552275e+05
   1.786620e+05  -7.680319e+04
   2.430287e+04   2.824991e+04
  -1.831122e+05   2.303184e+04
  -1.041839e+05  -1.507304e+05
   3.162070e+05  -3.159144e+05
   6.807267e+05  -2.190692e+05
   5.902735e+05   1.407263e+05
   1.531369e+05   4.760346e+05
  -1.667088e+05   5.441717e+05
  -1.507997e+05   4.035361e+05
  -3.838158e+04   2.771530e+05
  -1.234035e+05   2.521568e+05
  -3.685359e+05   2.053768e+05
  -5.140749e+05  -2.329419e+03
  -4.057031e+05  -3.226332e+05
  -1.017321e+05  -5.198355e+05
   2.243995e+05  -3.796548e+05
   3.753655e+05   4.627473e+04
   2.266870e+05   4.161888e+05
  -1.305557e+05   3.964907e+05
  -3.961989e+05   1.254964e+04
  -3.371142e+05  -3.658223e+05
  -4.365006e+04  -4.244058e+05
   1.824676e+05  -2.180747e+05
   1.816097e+05  -3.535863e+04
   8.716420e+04  -3.359309e+04
   1.215536e+05  -1.064696e+05
   3.201724e+05  -7.092291e+04
   4.826066e+05   1.241873e+05
   3.667266e+05   3.743941e+05
  -5.715130e+04   5.128931e+05
  -5.137382e+05   4.161310e+05
  -6.298356e+05   1.047900e+05
  -3.083397e+05  -2.236470e+05
   1.321071e+05  -3.325268e+05
   2.771800e+05  -1.727794e+05
   6.115448e+04   5.829349e+04
  -2.024618e+05   1.235832e+05
  -2.219058e+05  -9.326445e+03
  -3.252058e+04  -1.573400e+05
   1.276016e+05  -1.360238e+05
   1.142758e+05   4.031672e+04
  -3.146449e+04   1.658220e+05
  -1.837367e+05   4.960446e+04
  -2.120966e+05  -2.623064e+05
  -3.243836e+04  -4.815268e+05
   2.896491e+05  -3.493058e+05
   5.101093e+05   6.907355e+04
   4.118674e+05   4.197878e+05
   6.340372e+04   4.276204e+05
  -2.241906e+05   1.760321e+05
  -2.340886e+05  -2.853627e+04
  -6.311617e+04  -1.698260e+04
   3.277515e+04   1.014221e+05
  -5.660823e+04   1.320525e+05
  -2.026434e+05   2.583231e+04
  -2.121816e+05  -1.087679e+05
  -4.284819e+04  -1.484621e+05
   1.468752e+05  -6.400864e+04
   1.462298e+05   6.736028e+04
  -8.360782e+04   1.164211e+05
  -3.264558e+05   4.967425e+03
  -3.046531e+05  -1.999850e+05
   1.179995e+04  -3.174369e+05
   3.393637e+05  -2.249525e+05
   3.754654e+05   3.254814e+03
   1.233505e+05   1.639395e+05
  -1.343114e+05   1.318646e+05
  -1.576279e+05  -2.248983e+04
   2.489766e+04  -1.193337e+05
   2.014458e+05  -5.272699e+04
   2.077981e+05   1.124507e+05
   5.310155e+04   2.110690e+05
  -1.203619e+05   1.454977e+05
  -1.647977e+05  -1.009865e+04
  -5.488953e+04  -8.423614e+04
   7.644161e+04   2.885105e+03
   6.051732e+04   1.444659e+05
  -1.168756e+05   1.640004e+05
  -2.761241e+05   1.135145e+04
  -2.323820e+05  -1.877460e+05
  -4.523658e+03  -2.683891e+05
   2.032012e+05  -1.798134e+05
   2.186470e+05  -8.447344e+03
   6.475780e+04   1.112251e+05
  -9.042970e+04   1.015905e+05
  -1.094301e+05  -3.299236e+03
  -2.933415e+03  -8.813379e+04
   1.007056e+05  -6.767092e+04
   9.019600e+04   1.712233e+04
  -1.267710e+04   4.213438e+04
  -7.154709e+04  -4.338639e+04
   1.421445e+04  -1.374440e+05
   1.827184e+05  -9.719040e+04
   2.606438e+05   8.929870e+04
   1.470987e+05   2.800887e+05
  -7.865693e+04   3.216471e+05
  -2.436600e+05   1.863483e+05
  -2.512743e+05  -2.152749e+04
  -1.492432e+05  -1.628126e+05
  -5.152423e+04  -1.697051e+05
  -2.085233e+04  -9.111355e+04
  -2.432693e+04  -3.979670e+04
   1.377552e+04  -6.979500e+04
   1.160834e+05  -1.077596e+05
   2.038798e+05  -4.100259e+04
   1.607978e+05   1.220143e+05
  -3.464034e+04   2.262711e+05
  -2.499034e+05   1.364760e+05
  -3.017760e+05  -9.934919e+04
  -1.299231e+05  -2.884004e+05
   1.427394e+05  -2.834747e+05
   3.232622e+05  -1.085144e+05
   3.110286e+05   9.111044e+04
   1.563427e+05   1.884056e+05
  -1.052355e+04   1.670519e+05
  -9.285345e+04   1.080022e+05
  -9.064404e+04   9.710082e+04
  -7.597328e+04   1.325385e+05
  -1.066206e+05   1.243183e+05
  -1.570927e+05   3.066551e+03
  -1.437299e+05  -1.753463e+05
  -2.798170e+04  -2.641633e+05
   1.182426e+05  -1.765622e+05
   1.726911e+05   1.871833e+04
   8.970779e+04   1.658574e+05
  -4.989588e+04   1.696048e+05
  -1.223198e+05   6.277803e+04
  -8.285072e+04  -5.242142e+04
   2.250705e+03  -1.038142e+05
   3.684593e+04  -9.424206e+04
  -1.949667e+03  -7.130721e+04
  -4.154204e+04  -6.517601e+04
   5.966209e+03  -5.680344e+04
   1.376833e+05  -8.432458e+03
   2.392447e+05   7.901425e+04
   1.889868e+05   1.534188e+05
  -6.804906e+03   1.621370e+05
  -1.980648e+05   1.030089e+05
  -2.319223e+05   1.914133e+04
  -1.071479e+05  -4.079725e+04
   3.176597e+04  -4.884453e+04
   5.564743e+04  -9.402600e+03
  -1.960513e+04   3.269095e+04
  -7.781230e+04   1.821024e+04
  -5.118651e+04  -5.687230e+04
   1.190672e+04  -1.121779e+05
   2.603046e+04  -6.980424e+04
  -2.183441e+04   3.069819e+04
  -6.425653e+04   6.045772e+04
  -3.688008e+04  -3.267726e+04
   5.410812e+04  -1.388129e+05
   1.408889e+05  -1.153421e+05
   1.499483e+05   2.970483e+04
   5.718060e+04   1.436740e+05
  -8.234566e+04   1.131356e+05
  -1.557370e+05  -1.401462e+04
  -8.051290e+04  -1.021676e+05
   9.866775e+04  -7.606249e+04
   2.204582e+05   2.881035e+04
   1.545339e+05   1.246522e+05
  -5.363701e+04   1.435645e+05
  -2.139956e+05   7.493895e+04
  -1.855091e+05  -2.703634e+04
  -2.317090e+04  -7.719881e+04
   8.740881e+04  -3.610127e+04
   3.418949e+04   3.885204e+04
  -1.048998e+05   4.318726e+04
  -1.549449e+05  -6.002059e+04
  -3.660460e+04  -1.867632e+05
   1.507446e+05  -2.053873e+05
   2.361909e+05  -6.548532e+04
   1.507474e+05   1.422680e+05
  -1.742611e+04   2.535428e+05
  -1.287130e+05   1.740012e+05
  -1.251582e+05  -2.561466e+04
  -5.097543e+04  -1.667954e+05
   2.537750e+04  -1.384205e+05
   6.964216e+04  -8.788813e+03
   7.328691e+04   6.436440e+04
   3.980812e+04   2.708604e+04
   4.523509e+02  -1.745158e+04
   1.101447e+03   3.497358e+04
   3.581192e+04   1.375327e+05
   2.629151e+04   1.530921e+05
  -7.756891e+04   3.949110e+04
  -1.938243e+05  -9.704690e+04
  -1.778046e+05  -1.406513e+05
  -1.160983e+04  -9.387598e+04
   1.456605e+05  -3.674873e+04
   1.446189e+05  -1.049855e+04
   2.979910e+04   5.030212e+03
  -3.301024e+04   2.579110e+04
   1.495114e+04   3.665462e+04
   5.992145e+04   3.035719e+04
  -5.970142e+03   2.169534e+04
  -1.230028e+05   8.713838e+03
  -1.388471e+05  -3.534348e+04
  -4.356469e+03  -1.036100e+05
   1.683045e+05  -1.253607e+05
   2.336875e+05  -3.961860e+04
   1.504975e+05   1.109170e+05
  -7.820783e+03   2.022559e+05
  -1.327359e+05   1.575738e+05
  -1.565921e+05   2.924465e+04
  -8.751395e+04  -6.144830e+04
   1.673919e+03  -5.244004e+04
   3.370934e+04   5.192652e+03
  -1.920338e+03   1.595022e+04
  -4.186871e+04  -4.885859e+04
  -2.254642e+04  -1.144008e+05
   4.709846e+04  -8.245076e+04
   9.524516e+04   4.966927e+04
   6.255211e+04   1.649814e+05
  -3.755829e+04   1.424003e+05
  -1.246120e+05  -7.227720e+03
  -1.155402e+05  -1.461510e+05
  -3.211012e+03  -1.566317e+05
   1.196127e+05  -5.615739e+04
   1.384524e+05   4.728469e+04
   4.102660e+04   8.238342e+04
  -5.713781e+04   6.307630e+04
  -4.264951e+04   3.287091e+04
   5.457219e+04   1.359498e+04
   9.456132e+04   1.456674e+04
   4.137840e+03   4.219934e+04
  -1.290089e+05   7.290495e+04
  -1.649841e+05   5.364095e+04
  -7.603047e+04  -2.989689e+04
   3.861344e+04  -1.068454e+05
   7.998918e+04  -9.074429e+04
   4.280274e+04   6.433949e+03
  -1.544806e+04   7.578885e+04
  -4.894575e+04   4.171668e+04
  -4.676518e+04  -4.741514e+04
  -1.610859e+04  -8.578735e+04
   2.528347e+04  -4.002968e+04
   5.169394e+04   2.465097e+04
   4.892732e+04   3.844252e+04
   2.875494e+04   7.997509e+03
   1.022737e+04  -7.748923e+03
  -6.504555e+03   2.181436e+04
  -3.218200e+04   6.270236e+04
  -6.003433e+04   5.665012e+04
  -6.426174e+04  -1.145533e+04
  -2.956663e+04  -8.822354e+04
   2.873140e+04  -9.823688e+04
   7.407437e+04  -2.333187e+04
   7.121022e+04   6.941696e+04
   1.007474e+04   9.288744e+04
  -7.324534e+04   3.228125e+04
  -1.071639e+05  -4.371439e+04
  -4.901276e+04  -6.513186e+04
   5.212917e+04  -3.222960e+04
   8.947017e+04   4.148077e+03
   2.018285e+04   8.914975e+03
  -7.059499e+04  -1.284951e+04
  -6.362231e+04  -3.951595e+04
   4.590282e+04  -4.896456e+04
   1.352353e+05  -1.866668e+04
