
 $NMID
 id='ANONYMOUS ', fmtdat='(2E16.6)'
 volume=1.0
 tramp=1.0
 $END
  -6.023216e+07  -5.332643e+05
  -3.567296e+07  -3.803547e+07
   8.706208e+06  -4.078805e+07
   2.977259e+07  -1.493035e+07
   1.731802e+07   8.114094e+06
  -3.857147e+06   9.886690e+06
  -1.039385e+07  -1.716167e+06
  -2.576970e+06  -1.048817e+07
   6.876125e+06  -9.596171e+06
   1.027082e+07  -1.793753e+06
   7.311315e+06   6.629745e+06
   7.867855e+05   9.034517e+06
  -4.216631e+06   2.916730e+06
  -2.688001e+06  -5.608181e+06
   4.093768e+06  -6.703861e+06
   8.312826e+06   1.622893e+06
   4.522926e+06   1.089618e+07
  -4.207753e+06   1.245431e+07
  -1.081735e+07   6.183856e+06
  -1.153269e+07  -2.224951e+06
  -7.119371e+06  -8.046461e+06
  -7.379907e+05  -9.385808e+06
   3.313010e+06  -6.581436e+06
   2.313188e+06  -2.767163e+06
  -9.748018e+05  -1.995143e+06
  -3.463203e+05  -4.188671e+06
   5.496102e+06  -4.621782e+06
   1.005214e+07  -6.068134e+05
   7.440298e+06   4.309159e+06
   4.084472e+05   5.367975e+06
  -3.763901e+06   2.828404e+06
  -2.625380e+06   2.135762e+05
   3.850173e+05  -8.342677e+05
   2.116409e+06  -5.712125e+05
   2.256512e+06   1.282877e+06
   8.679688e+05   3.994543e+06
  -1.849930e+06   4.126214e+06
  -3.557383e+06   2.257954e+03
  -1.954228e+06  -3.889850e+06
   8.409938e+05  -2.230051e+06
   4.631666e+05   2.416250e+06
  -2.551186e+06   2.330797e+06
  -2.510892e+06  -3.446864e+06
   2.781217e+06  -6.493957e+06
   7.570687e+06  -9.544649e+05
   5.421868e+06   7.511567e+06
  -2.193312e+06   9.109184e+06
  -7.938236e+06   2.501115e+06
  -7.221957e+06  -4.776614e+06
  -1.777995e+06  -6.331553e+06
   3.686497e+06  -2.725083e+06
   5.409169e+06   1.733880e+06
   2.393358e+06   3.709751e+06
  -2.639437e+06   2.253281e+06
  -4.770147e+06  -1.078435e+06
  -1.990419e+06  -2.932674e+06
   1.850121e+06  -1.426285e+06
   1.770422e+06   1.108776e+06
  -1.497012e+06   8.776519e+05
  -2.582085e+06  -2.043937e+06
   8.567149e+05  -3.748991e+06
   5.087114e+06  -1.928501e+06
   5.627452e+06   1.611680e+06
   2.369298e+06   4.296281e+06
  -1.913594e+06   5.532450e+06
  -5.204639e+06   5.066204e+06
  -6.483672e+06   1.849261e+06
  -4.852075e+06  -3.296918e+06
  -9.877738e+05  -6.466189e+06
   2.044891e+06  -4.940185e+06
   1.911557e+06  -1.141916e+06
   9.170796e+04   3.993153e+05
  -2.090721e+05  -9.877952e+05
   1.529147e+06  -1.944955e+06
   2.886522e+06  -3.831353e+05
   2.146243e+06   1.883576e+06
   1.148957e+05   2.162796e+06
  -1.511781e+06   2.351796e+05
  -1.690909e+06  -2.079613e+06
  -2.221032e+04  -3.007778e+06
   2.855017e+06  -1.753737e+06
   4.694304e+06   1.201939e+06
   3.419396e+06   3.958232e+06
  -4.100148e+04   4.505702e+06
  -2.455328e+06   2.896734e+06
  -2.416691e+06   1.170568e+06
  -1.948990e+06   6.498904e+05
  -3.056635e+06   4.293225e+05
  -4.490375e+06  -8.530931e+05
  -3.570741e+06  -2.901006e+06
  -9.320354e+04  -4.256518e+06
   3.320559e+06  -3.999107e+06
   4.291018e+06  -2.196974e+06
   2.752452e+06   3.938350e+05
   3.351164e+05   2.290592e+06
  -1.100065e+06   2.018878e+06
  -5.891968e+05  -1.924063e+04
   1.114159e+06  -1.355590e+06
   1.987857e+06  -4.047083e+05
   9.728473e+05   1.263342e+06
  -5.217787e+05   1.145166e+06
  -3.995658e+05  -4.116681e+05
   1.166226e+06  -6.463951e+05
   1.900939e+06   1.487210e+06
   5.073163e+05   3.695468e+06
  -1.838951e+06   3.434822e+06
  -3.303890e+06   9.535280e+05
  -3.315707e+06  -1.616612e+06
  -2.216757e+06  -2.842572e+06
  -4.141005e+05  -2.642062e+06
   1.271856e+06  -1.493084e+06
   1.616165e+06  -2.376939e+05
   5.080366e+05   5.145446e+04
  -3.611849e+05  -7.821803e+05
   4.579918e+05  -1.399868e+06
   2.011785e+06  -5.809248e+05
   2.109108e+06   9.702106e+05
   3.660580e+05   1.493544e+06
  -1.227025e+06   5.677478e+05
  -8.869167e+05  -4.839296e+05
   9.024162e+05  -4.823265e+05
   2.209297e+06   4.103508e+05
   1.715825e+06   1.419799e+06
  -3.134417e+05   1.983967e+06
  -2.393508e+06   1.646092e+06
  -2.860193e+06   2.419905e+05
  -1.248342e+06  -1.337996e+06
   9.793521e+05  -1.571363e+06
   1.648325e+06  -1.865082e+05
   2.143889e+05   1.138396e+06
  -1.584034e+06   7.533987e+05
  -1.765942e+06  -8.437428e+05
  -2.994119e+05  -1.716324e+06
   1.166277e+06  -9.653807e+05
   1.286612e+06   3.765181e+05
   2.153116e+05   8.242897e+05
  -8.446964e+05   4.127421e+04
  -7.605894e+05  -1.104237e+06
   6.017503e+05  -1.475670e+06
   2.081303e+06  -5.547490e+05
   2.103998e+06   1.101068e+06
   3.767957e+05   2.157507e+06
  -1.520735e+06   1.685908e+06
  -1.794289e+06   1.854014e+05
  -4.959129e+05  -9.120092e+05
   6.983979e+05  -8.149616e+05
   6.373986e+05  -7.442198e+04
  -1.421203e+05   3.373607e+05
  -4.823260e+05   1.756988e+05
  -7.068755e+04  -5.815589e+04
   4.899216e+05   1.334879e+05
   5.098483e+05   7.395518e+05
  -2.553971e+05   1.231490e+06
  -1.450093e+06   9.028624e+05
  -2.149315e+06  -4.560264e+05
  -1.497560e+06  -2.028001e+06
   2.476144e+05  -2.493238e+06
   1.678420e+06  -1.416951e+06
   1.717262e+06   1.677653e+05
   8.371911e+05   9.094188e+05
   3.101747e+05   6.162178e+05
   5.232444e+05   1.952876e+05
   6.819814e+05   3.452811e+05
   9.071251e+04   8.156778e+05
  -9.272182e+05   9.140475e+05
  -1.491364e+06   2.992036e+05
  -1.047954e+06  -7.493822e+05
   2.918444e+05  -1.471968e+06
   1.785758e+06  -1.066049e+06
   2.303495e+06   5.293394e+05
   1.129532e+06   2.187509e+06
  -1.098308e+06   2.435011e+06
  -2.659817e+06   1.016306e+06
  -2.405382e+06  -7.384364e+05
  -9.274710e+05  -1.393198e+06
   2.464230e+05  -9.349337e+05
   3.786492e+05  -4.879427e+05
   3.818323e+04  -7.835082e+05
   9.567545e+04  -1.381128e+06
   7.144708e+05  -1.347945e+06
   1.355907e+06  -3.242159e+05
   1.379832e+06   1.125306e+06
   5.622718e+05   1.960314e+06
  -6.507520e+05   1.479139e+06
  -1.324383e+06  -2.103529e+04
  -8.170085e+05  -1.348592e+06
   4.419199e+05  -1.440022e+06
   1.232746e+06  -3.769356e+05
   8.329524e+05   7.738450e+05
  -1.701022e+05   1.134223e+06
  -6.015497e+05   7.957632e+05
  -1.076661e+05   4.120124e+05
   4.526869e+05   3.418357e+05
   6.377025e+04   3.928873e+05
  -1.202538e+06   2.005549e+05
  -2.147954e+06  -3.713060e+05
  -1.661066e+06  -1.099993e+06
   7.826814e+04  -1.500501e+06
   1.682549e+06  -1.171622e+06
   1.904969e+06  -2.508686e+05
   8.459339e+05   5.522301e+05
  -2.890436e+05   6.011545e+05
  -5.376692e+05   1.572977e+04
  -3.828851e+04  -4.566407e+05
   4.482107e+05  -2.705367e+05
   4.994675e+05   3.561481e+05
   2.841455e+05   7.418963e+05
   1.214778e+05   4.947950e+05
   1.388138e+05  -7.807228e+04
   2.688653e+05  -2.771427e+05
   2.772496e+05   2.450957e+05
  -1.391919e+05   1.008920e+06
  -9.381983e+05   1.100185e+06
  -1.442049e+06   1.893801e+05
  -9.077842e+05  -9.504942e+05
   4.371652e+05  -1.201353e+06
   1.322155e+06  -3.681169e+05
   7.595355e+05   5.871501e+05
  -7.375063e+05   6.582804e+05
  -1.625647e+06  -1.279047e+05
  -9.911693e+05  -9.061257e+05
   5.368281e+05  -9.909668e+05
   1.541417e+06  -4.389187e+05
   1.242462e+06   2.291549e+05
   1.184124e+05   5.238672e+05
  -6.760904e+05   2.574939e+05
  -4.049772e+05  -3.169731e+05
   5.923739e+05  -5.533290e+05
   1.226497e+06   6.372296e+04
   7.208603e+05   1.211127e+06
  -5.782483e+05   1.772648e+06
  -1.518713e+06   9.358029e+05
  -1.297794e+06  -7.723347e+05
  -2.092196e+05  -1.842430e+06
   7.675190e+05  -1.314057e+06
   9.463650e+05   2.087213e+05
   4.152026e+05   1.233973e+06
  -2.617302e+05   9.795253e+05
  -5.893036e+05   7.020573e+04
  -4.559730e+05  -3.849614e+05
  -1.422103e+05  -1.328737e+05
  -6.036212e+04   8.946101e+04
  -3.249750e+05  -3.257312e+05
  -5.365444e+05  -1.007398e+06
  -1.605985e+05  -1.105814e+06
   7.759508e+05  -3.971062e+05
   1.514661e+06   4.831216e+05
   1.286424e+06   8.659715e+05
   1.845410e+05   7.279315e+05
  -8.533063e+05   4.354863e+05
  -1.004802e+06   1.752975e+05
  -3.957101e+05  -7.391094e+04
   1.392753e+05  -2.363909e+05
   7.092411e+04  -1.927356e+05
  -2.371661e+05  -7.560543e+04
  -6.729215e+04  -1.358794e+05
   6.432425e+05  -2.615358e+05
   1.087392e+06  -2.408053e+03
   5.058303e+05   7.234449e+05
  -8.302508e+05   1.245858e+06
  -1.782512e+06   8.162339e+05
  -1.511008e+06  -4.199150e+05
  -3.068495e+05  -1.446802e+06
   7.984286e+05  -1.439009e+06
   1.085140e+06  -5.890917e+05
   6.743844e+05   2.141825e+05
   1.576978e+05   3.715538e+05
  -3.859891e+04   9.461529e+04
   9.572904e+04   1.032239e+04
   2.930689e+05   3.904714e+05
   2.433008e+05   8.344602e+05
  -1.733994e+05   7.130763e+05
  -6.987872e+05  -9.200582e+04
  -7.977699e+05  -9.523433e+05
  -1.738182e+05  -1.072987e+06
   7.536387e+05  -3.040984e+05
   1.092386e+06   6.994859e+05
   3.975255e+05   1.127827e+06
  -7.264169e+05   7.387432e+05
  -1.179397e+06  -5.600332e+04
  -5.781040e+05  -6.584878e+05
   2.954530e+05  -7.421715e+05
   4.239464e+05  -3.916433e+05
  -2.189522e+05   9.050000e+03
  -6.621146e+05   5.319230e+04
  -1.674414e+05  -3.254031e+05
   8.482743e+05  -7.043716e+05
   1.330241e+06  -5.396380e+05
   8.275058e+05   2.086788e+05
  -8.892229e+04   9.161243e+05
  -5.980264e+05   9.056555e+05
  -4.787525e+05   1.981487e+05
  -8.173707e+04  -4.801745e+05
   2.365360e+05  -4.746598e+05
   3.651781e+05   1.135345e+05
   2.749033e+05   5.937457e+05
  -4.158834e+04   4.755356e+05
  -4.074036e+05  -2.630651e+04
  -5.069084e+05  -3.105516e+05
  -2.515916e+05  -1.194238e+05
   5.413235e+04   1.836195e+05
   8.452176e+04   1.017996e+05
  -6.704238e+04  -3.446288e+05
  -2.412473e+04  -6.122253e+05
   3.072699e+05  -2.967167e+05
   5.287392e+05   3.456822e+05
   2.350570e+05   6.652842e+05
  -4.007587e+05   3.497280e+05
  -7.169770e+05  -2.571658e+05
  -2.898469e+05  -5.763401e+05
   5.319747e+05  -3.902087e+05
   9.375328e+05   5.058182e+04
   5.122322e+05   3.841441e+05
  -2.997969e+05   4.463373e+05
  -6.699707e+05   2.787933e+05
  -2.886155e+05   2.737472e+04
   3.175195e+05  -1.072881e+05
   4.082963e+05   1.766834e+04
  -1.352866e+05   2.800268e+05
  -7.103343e+05   2.952426e+05
