
 $NMID
 id='ANONYMOUS ', fmtdat='(2E16.6)'
 volume=1.0
 tramp=1.0
 $END
  -3.092307e+07  -5.216487e+05
  -2.003358e+07  -1.642981e+07
   1.544202e+06  -2.023048e+07
   1.440572e+07  -1.135844e+07
   1.087377e+07   5.850619e+05
  -1.817853e+05   5.591877e+06
  -6.255237e+06   1.603656e+06
  -3.720537e+06  -5.344136e+06
   2.365316e+06  -7.608646e+06
   5.874581e+06  -2.887925e+06
   4.591962e+06   3.987767e+06
   3.848970e+05   6.014349e+06
  -2.788827e+06   1.315401e+06
  -1.918063e+06  -4.780644e+06
   2.139027e+06  -5.534032e+06
   5.037109e+06  -7.265037e+04
   3.333372e+06   6.104681e+06
  -1.793972e+06   7.394257e+06
  -5.914370e+06   3.445465e+06
  -5.957349e+06  -1.706936e+06
  -2.802610e+06  -4.281692e+06
   1.972173e+05  -3.774982e+06
   5.389117e+05  -2.360165e+06
  -1.206849e+06  -2.279761e+06
  -1.930432e+06  -3.635346e+06
   7.721412e+05  -4.354593e+06
   5.399685e+06  -2.551194e+06
   7.415229e+06   1.049897e+06
   4.248718e+06   3.590081e+06
  -1.275415e+06   3.115365e+06
  -3.814050e+06   5.237111e+05
  -1.485588e+06  -1.662361e+06
   2.422769e+06  -1.711885e+06
   3.718478e+06   3.002884e+05
   1.756102e+06   2.844243e+06
  -8.895549e+05   3.773784e+06
  -1.847103e+06   1.935765e+06
  -9.800044e+05  -1.125368e+06
   2.663539e+05  -2.076147e+06
   4.416170e+05   3.061689e+05
  -7.659070e+05   2.974276e+06
  -2.158741e+06   2.089621e+06
  -1.925866e+06  -1.723466e+06
   3.869268e+05  -3.716819e+06
   2.831562e+06  -1.065420e+06
   2.691921e+06   3.384822e+06
  -5.560205e+05   4.625957e+06
  -4.296045e+06   1.398273e+06
  -5.101947e+06  -2.899656e+06
  -2.022342e+06  -4.439669e+06
   2.424855e+06  -2.566603e+06
   4.485196e+06   5.426538e+05
   2.606530e+06   2.341853e+06
  -1.107294e+06   1.784507e+06
  -2.999160e+06  -1.834491e+05
  -1.600694e+06  -1.501850e+06
   9.640584e+05  -9.260535e+05
   1.590090e+06   6.574499e+05
  -1.800922e+05   1.261061e+06
  -1.813408e+06   1.585308e+05
  -9.966229e+05  -1.351321e+06
   1.605883e+06  -1.569773e+06
   3.176260e+06  -1.190419e+05
   1.834479e+06   2.041545e+06
  -1.548647e+06   3.513712e+06
  -4.363915e+06   3.118260e+06
  -4.658795e+06   5.847348e+05
  -2.636389e+06  -2.742287e+06
  -1.723568e+05  -4.555026e+06
   1.034622e+06  -3.792381e+06
   9.330947e+05  -1.853961e+06
   7.893140e+05  -8.496747e+05
   1.498841e+06  -9.735115e+05
   2.514331e+06  -5.914061e+05
   2.565445e+06   1.115926e+06
   1.156812e+06   2.719725e+06
  -8.807106e+05   2.280867e+06
  -2.118894e+06  -1.596909e+05
  -1.613331e+06  -2.500650e+06
   4.124254e+05  -2.754050e+06
   2.557024e+06  -8.424604e+05
   3.152203e+06   1.616114e+06
   1.744734e+06   2.895394e+06
  -3.318900e+05   2.539774e+06
  -1.347647e+06   1.471276e+06
  -1.163115e+06   8.610314e+05
  -1.251355e+06   8.852043e+05
  -2.529692e+06   6.631482e+05
  -3.813366e+06  -5.783310e+05
  -3.072431e+06  -2.477587e+06
  -1.817430e+04  -3.770491e+06
   3.208934e+06  -3.409079e+06
   4.108079e+06  -1.440781e+06
   2.272251e+06   9.435112e+05
  -3.523302e+05   2.162033e+06
  -1.449786e+06   1.471237e+06
  -4.500469e+05  -2.183361e+05
   1.192417e+06  -1.060319e+06
   1.648996e+06  -2.333241e+05
   5.759279e+05   1.046759e+06
  -6.830883e+05   1.003631e+06
  -6.698862e+05  -3.543513e+05
   6.078956e+05  -1.093260e+06
   1.750393e+06   2.263915e+05
   1.422326e+06   2.614510e+06
  -4.313291e+05   3.645902e+06
  -2.614680e+06   2.106978e+06
  -3.621754e+06  -8.151803e+05
  -2.706260e+06  -2.864396e+06
  -4.947402e+05  -2.826248e+06
   1.362898e+06  -1.342928e+06
   1.567385e+06  -2.805273e+04
   4.596336e+05   6.666005e+04
  -3.153047e+05  -7.065213e+05
   3.176629e+05  -1.124445e+06
   1.575890e+06  -4.676967e+05
   1.772582e+06   6.957066e+05
   4.246351e+05   1.186966e+06
  -1.064778e+06   5.574752e+05
  -9.844945e+05  -4.529897e+05
   7.171885e+05  -7.475138e+05
   2.300291e+06   5.987555e+04
   2.014462e+06   1.374335e+06
  -1.189372e+05   2.150766e+06
  -2.297734e+06   1.684073e+06
  -2.665067e+06   2.097212e+05
  -1.074804e+06  -1.128433e+06
   8.261936e+05  -1.206847e+06
   1.264739e+06  -9.132583e+04
   4.889588e+04   9.001607e+05
  -1.401583e+06   5.912922e+05
  -1.602240e+06  -7.064887e+05
  -4.298947e+05  -1.555575e+06
   9.302571e+05  -1.067592e+06
   1.241773e+06   1.259272e+05
   3.713833e+05   6.846605e+05
  -6.428341e+05   6.634926e+04
  -6.013514e+05  -9.781774e+05
   6.414052e+05  -1.267743e+06
   1.909342e+06  -3.547700e+05
   1.819895e+06   1.097309e+06
   2.728447e+05   1.925329e+06
  -1.345296e+06   1.481579e+06
  -1.602552e+06   2.007414e+05
  -5.143571e+05  -8.021366e+05
   6.131380e+05  -7.794589e+05
   6.996173e+05  -2.596366e+04
  -5.640568e+04   5.272132e+05
  -6.374535e+05   3.529326e+05
  -4.084257e+05  -1.476162e+05
   2.889263e+05  -1.865972e+05
   5.716233e+05   4.485621e+05
  -8.556120e+04   1.083908e+06
  -1.280100e+06   8.328168e+05
  -1.937696e+06  -4.428825e+05
  -1.285698e+06  -1.870967e+06
   3.128652e+05  -2.309102e+06
   1.619582e+06  -1.399803e+06
   1.739503e+06   9.560737e+04
   9.698311e+05   1.032881e+06
   3.057649e+05   9.542214e+05
   2.534087e+05   4.069721e+05
   3.849282e+05   2.260761e+05
   3.891726e+04   5.887433e+05
  -8.008596e+05   8.567122e+05
  -1.429615e+06   3.524229e+05
  -1.106191e+06  -7.762024e+05
   2.151834e+05  -1.546253e+06
   1.700451e+06  -1.062550e+06
   2.175457e+06   5.212532e+05
   1.087298e+06   2.005939e+06
  -8.941864e+05   2.195575e+06
  -2.336691e+06   9.927747e+05
  -2.288440e+06  -5.588994e+05
  -1.083264e+06  -1.320254e+06
   1.272001e+05  -1.098215e+06
   5.496562e+05  -6.358643e+05
   3.618806e+05  -6.577939e+05
   2.643119e+05  -1.056264e+06
   6.313318e+05  -1.071636e+06
   1.148722e+06  -2.139043e+05
   1.175371e+06   1.091343e+06
   4.201615e+05   1.822455e+06
  -6.746261e+05   1.328390e+06
  -1.235321e+06  -2.651309e+04
  -7.658807e+05  -1.175881e+06
   3.031862e+05  -1.302313e+06
   9.869670e+05  -4.963607e+05
   7.425439e+05   4.641242e+05
   8.227803e+03   8.998607e+05
  -3.444660e+05   7.642276e+05
  -2.599592e+04   4.785818e+05
   3.525088e+05   3.763266e+05
   1.329286e+04   3.803254e+05
  -1.027436e+06   1.818351e+05
  -1.841254e+06  -3.519422e+05
  -1.488109e+06  -9.807858e+05
  -3.378792e+04  -1.273731e+06
   1.402229e+06  -9.819520e+05
   1.699916e+06  -2.776942e+05
   8.291693e+05   3.445290e+05
  -1.981892e+05   4.565473e+05
  -4.481065e+05   8.110685e+04
   2.942922e+04  -2.958348e+05
   4.798828e+05  -1.887703e+05
   4.193368e+05   3.467067e+05
   8.170983e+04   7.165288e+05
  -4.536439e+04   4.532824e+05
   1.569851e+05  -1.648587e+05
   3.813669e+05  -3.568094e+05
   2.745884e+05   2.210006e+05
  -2.426330e+05   9.611131e+05
  -8.907965e+05   9.450742e+05
  -1.146750e+06   3.900071e+04
  -6.226416e+05  -8.935731e+05
   4.334740e+05  -9.464773e+05
   1.112051e+06  -1.540429e+05
   6.445468e+05   6.134561e+05
  -6.668858e+05   6.096657e+05
  -1.562338e+06  -1.026026e+05
  -1.077511e+06  -8.512691e+05
   3.988404e+05  -1.029233e+06
   1.496773e+06  -5.508391e+05
   1.281237e+06   1.619014e+05
   1.625336e+05   5.304114e+05
  -6.223366e+05   2.848367e+05
  -3.177419e+05  -2.557806e+05
   6.294322e+05  -4.049698e+05
   1.099214e+06   2.204386e+05
   4.689201e+05   1.188910e+06
  -7.655853e+05   1.531539e+06
  -1.508598e+06   6.824400e+05
  -1.148454e+06  -8.308383e+05
  -8.196635e+04  -1.748643e+06
   7.849016e+05  -1.262743e+06
   9.081449e+05   1.467160e+05
   4.300912e+05   1.163995e+06
  -1.706050e+05   9.849438e+05
  -5.198161e+05   9.682113e+04
  -4.959309e+05  -4.108739e+05
  -2.240307e+05  -1.747305e+05
  -2.493457e+04   1.167824e+05
  -1.495484e+05  -2.306184e+05
  -4.011019e+05  -9.251466e+05
  -2.190363e+05  -1.074110e+06
   6.018395e+05  -3.732347e+05
   1.407403e+06   5.269566e+05
   1.273613e+06   8.800388e+05
   1.548002e+05   6.628212e+05
  -9.152539e+05   3.396681e+05
  -9.862253e+05   1.492446e+05
  -2.855451e+05  -1.638057e+04
   1.799889e+05  -1.969802e+05
  -3.764683e+04  -2.504735e+05
  -3.362320e+05  -1.676718e+05
  -3.868435e+03  -1.314080e+05
   7.422967e+05  -1.402511e+05
   9.851380e+05   9.756331e+04
   2.395995e+05   6.538232e+05
  -9.537846e+05   1.010022e+06
  -1.597407e+06   5.638739e+05
  -1.202633e+06  -5.325312e+05
  -1.418800e+05  -1.371215e+06
   7.854766e+05  -1.241878e+06
   1.024586e+06  -3.906056e+05
   6.190801e+05   3.129847e+05
   6.778897e+04   3.437095e+05
  -1.422893e+05  -3.959602e+03
   5.731422e+04  -7.593814e+04
   3.107364e+05   3.472793e+05
   2.244559e+05   7.908977e+05
  -2.272831e+05   6.166670e+05
  -6.529528e+05  -2.178660e+05
  -5.889632e+05  -1.004134e+06
   4.580266e+04  -9.698859e+05
   7.746917e+05  -1.023973e+05
   9.067044e+05   8.232031e+05
   2.117446e+05   1.049315e+06
  -7.273442e+05   5.394880e+05
  -1.018405e+06  -1.581489e+05
  -4.297750e+05  -5.536968e+05
   2.995621e+05  -5.547148e+05
   3.138885e+05  -3.189508e+05
  -3.064201e+05  -6.248580e+04
  -6.403726e+05  -1.682431e+04
  -9.708527e+04  -2.849727e+05
   8.304682e+05  -6.080328e+05
   1.178029e+06  -5.035516e+05
   6.497506e+05   1.472683e+05
  -1.478338e+05   7.929963e+05
  -5.099790e+05   7.610929e+05
  -3.348011e+05   8.420791e+04
   2.152898e+04  -4.859603e+05
   2.637824e+05  -3.585587e+05
   3.224444e+05   2.285669e+05
   1.959218e+05   5.676380e+05
  -8.670230e+04   3.414336e+05
  -3.635281e+05  -9.551659e+04
  -4.191148e+05  -2.478544e+05
  -2.300374e+05  -6.545874e+04
  -3.231992e+03   8.899669e+04
   8.916675e+04  -6.125045e+04
   1.081131e+05  -3.685546e+05
   2.028406e+05  -4.318225e+05
   3.438715e+05  -6.225988e+04
   3.151186e+05   4.576537e+05
  -9.781506e+03   6.226788e+05
  -4.384238e+05   2.371941e+05
  -5.660868e+05  -3.464576e+05
  -1.685825e+05  -5.850855e+05
   4.858104e+05  -3.094409e+05
   7.937827e+05   1.522211e+05
   4.131125e+05   3.894170e+05
  -2.989400e+05   3.136289e+05
  -5.980596e+05   1.187231e+05
  -1.869197e+05  -2.160746e+03
   3.997778e+05   1.923701e+04
   4.033906e+05   1.638566e+05
  -2.435884e+05   3.032599e+05
  -8.226010e+05   1.963819e+05
