
 $NMID
 id='ANONYMOUS ', fmtdat='(2E16.6)'
 volume=1.0
 tramp=1.0
 $END
   4.433945e+07  -4.317517e+06
   2.997597e+07   2.380441e+07
  -1.919963e+06   3.037129e+07
  -2.031049e+07   1.490432e+07
  -1.419228e+07  -3.068598e+06
   1.295932e+06  -7.789519e+06
   8.161294e+06  -6.199025e+05
   3.744356e+06   7.481663e+06
  -3.787538e+06   8.734909e+06
  -7.655536e+06   2.970702e+06
  -6.261194e+06  -4.539329e+06
  -1.293121e+06  -7.164810e+06
   3.139346e+06  -2.404510e+06
   2.665977e+06   4.715263e+06
  -2.478121e+06   6.142953e+06
  -6.560917e+06  -1.425796e+05
  -4.624213e+06  -7.858069e+06
   1.938273e+06  -9.907387e+06
   7.606592e+06  -5.521310e+06
   8.671183e+06   9.551217e+05
   5.514882e+06   5.416358e+06
   1.039728e+06   6.404655e+06
  -1.429763e+06   4.663879e+06
  -4.658535e+05   2.560930e+06
   1.498170e+06   2.476737e+06
   2.059652e+05   3.988789e+06
  -4.759015e+06   3.933259e+06
  -8.307309e+06   6.898441e+05
  -6.007393e+06  -3.158497e+06
  -1.007080e+05  -4.082947e+06
   3.349203e+06  -2.003568e+06
   1.987593e+06   3.819439e+05
  -1.146571e+06   1.202703e+06
  -2.624300e+06   3.566199e+05
  -2.024316e+06  -1.680597e+06
  -4.006953e+05  -3.601001e+06
   1.412068e+06  -3.106333e+06
   2.264531e+06   1.993877e+05
   1.210787e+06   2.748666e+06
  -4.548986e+05   1.095556e+06
  -1.225757e+05  -2.478032e+06
   2.040521e+06  -2.299345e+06
   2.388929e+06   2.312564e+06
  -1.085127e+06   5.154457e+06
  -5.043101e+06   1.543345e+06
  -4.548257e+06  -4.892937e+06
   6.420452e+05  -6.850396e+06
   5.729532e+06  -2.525332e+06
   6.285183e+06   3.113120e+06
   2.289867e+06   5.007540e+06
  -2.711703e+06   2.794645e+06
  -4.835444e+06  -6.859691e+05
  -2.637190e+06  -2.714729e+06
   1.658152e+06  -2.132298e+06
   3.826705e+06   2.547988e+05
   1.940051e+06   1.996752e+06
  -1.254852e+06   1.280171e+06
  -1.678737e+06  -7.089649e+05
   7.798941e+05  -1.105017e+06
   2.261836e+06   7.858646e+05
   2.712435e+05   2.577627e+06
  -3.159324e+06   2.063885e+06
  -4.380895e+06  -3.351589e+05
  -2.344253e+06  -2.896112e+06
   1.198100e+06  -4.506000e+06
   4.129496e+06  -4.367947e+06
   5.180881e+06  -1.732472e+06
   3.898205e+06   2.477614e+06
   1.108277e+06   5.198290e+06
  -1.096361e+06   4.323776e+06
  -1.286043e+06   1.522865e+06
  -4.027880e+05   1.600361e+05
  -4.380752e+05   9.172399e+05
  -1.699752e+06   1.395310e+06
  -2.559108e+06  -3.190552e+04
  -1.765068e+06  -1.953456e+06
   1.320181e+05  -2.083270e+06
   1.663421e+06  -1.846996e+05
   1.734758e+06   1.995158e+06
   8.524688e+04   2.724493e+06
  -2.421129e+06   1.500605e+06
  -3.867364e+06  -9.256375e+05
  -2.830383e+06  -3.001241e+06
  -1.994110e+05  -3.412682e+06
   1.610019e+06  -2.318291e+06
   1.647346e+06  -1.161665e+06
   1.481851e+06  -8.677231e+05
   2.614265e+06  -7.542456e+05
   4.005801e+06   3.156981e+05
   3.386199e+06   2.254852e+06
   4.078098e+05   3.790898e+06
  -2.745656e+06   3.788381e+06
  -3.780550e+06   2.103243e+06
  -2.423576e+06  -3.773001e+05
  -2.150686e+05  -2.077922e+06
   1.019609e+06  -1.761644e+06
   5.000420e+05   5.547618e+04
  -9.709376e+05   1.245187e+06
  -1.696466e+06   4.713053e+05
  -8.516406e+05  -1.020380e+06
   4.668784e+05  -1.063282e+06
   5.262205e+05   3.286270e+05
  -8.045014e+05   8.920166e+05
  -1.841247e+06  -7.078098e+05
  -1.164297e+06  -2.970830e+06
   8.486122e+05  -3.463515e+06
   2.729161e+06  -1.653979e+06
   3.375483e+06   9.044006e+05
   2.527166e+06   2.494882e+06
   6.446890e+05   2.527256e+06
  -1.110973e+06   1.446723e+06
  -1.481003e+06   2.684565e+05
  -4.615133e+05  -1.336521e+04
   3.857157e+05   6.744403e+05
  -2.565821e+05   1.238912e+06
  -1.661809e+06   6.640501e+05
  -1.922476e+06  -6.242281e+05
  -4.918789e+05  -1.246924e+06
   1.039943e+06  -6.329088e+05
   9.179904e+05   3.673525e+05
  -7.268778e+05   6.411558e+05
  -2.147955e+06  -5.135254e+04
  -1.858629e+06  -1.170300e+06
   4.552797e+04  -1.961484e+06
   2.073290e+06  -1.763439e+06
   2.588161e+06  -4.505248e+05
   1.210809e+06   1.068279e+06
  -7.290046e+05   1.405306e+06
  -1.374673e+06   2.694033e+05
  -2.252726e+05  -9.547497e+05
   1.352013e+06  -7.717502e+05
   1.662178e+06   5.900622e+05
   4.785432e+05   1.521884e+06
  -9.174845e+05   1.047629e+06
  -1.222600e+06  -1.419047e+05
  -3.370797e+05  -6.992189e+05
   7.062657e+05  -1.206669e+05
   7.411925e+05   9.219038e+05
  -4.592397e+05   1.351075e+06
  -1.839275e+06   6.109430e+05
  -1.950914e+06  -8.598365e+05
  -4.889428e+05  -1.900659e+06
   1.217623e+06  -1.625043e+06
   1.591845e+06  -3.281431e+05
   5.495279e+05   7.716644e+05
  -5.542233e+05   8.104063e+05
  -6.215304e+05   1.029490e+05
   6.674772e+04  -4.100970e+05
   5.030891e+05  -2.829594e+05
   2.155871e+05   8.349286e+04
  -3.834390e+05   4.958810e+04
  -5.647446e+05  -5.284304e+05
   6.605857e+04  -1.114979e+06
   1.216069e+06  -9.392769e+05
   1.969451e+06   2.448198e+05
   1.486975e+06   1.716860e+06
  -5.407753e+04   2.287880e+06
  -1.436220e+06   1.464645e+06
  -1.637971e+06   1.535175e+04
  -9.190697e+05  -8.376098e+05
  -3.420900e+05  -6.969297e+05
  -3.947096e+05  -2.308847e+05
  -5.433117e+05  -2.183233e+05
  -1.299985e+05  -6.625307e+05
   7.417912e+05  -9.108380e+05
   1.349515e+06  -4.279162e+05
   1.071728e+06   6.272414e+05
  -1.184447e+05   1.438512e+06
  -1.553265e+06   1.149360e+06
  -2.155746e+06  -3.025618e+05
  -1.226227e+06  -1.886350e+06
   7.444181e+05  -2.279578e+06
   2.280325e+06  -1.166121e+06
   2.273730e+06   4.188986e+05
   1.054117e+06   1.201824e+06
  -1.025793e+05   9.686507e+05
  -3.872179e+05   5.539762e+05
  -1.085720e+05   6.883772e+05
  -4.832136e+04   1.170098e+06
  -5.260960e+05   1.209754e+06
  -1.161110e+06   3.700617e+05
  -1.304773e+06  -9.301717e+05
  -6.312833e+05  -1.739414e+06
   4.998685e+05  -1.381901e+06
   1.210067e+06  -8.794901e+04
   8.585904e+05   1.127401e+06
  -2.374634e+05   1.332343e+06
  -1.023333e+06   5.069853e+05
  -8.082034e+05  -5.272247e+05
  -9.286126e+03  -9.806806e+05
   3.903467e+05  -7.843056e+05
   3.215438e+04  -4.246400e+05
  -4.113753e+05  -2.987181e+05
  -7.103217e+04  -3.586523e+05
   1.039605e+06  -2.799328e+05
   1.920326e+06   1.631434e+05
   1.580071e+06   8.461765e+05
   9.847381e+04   1.321267e+06
  -1.366589e+06   1.160659e+06
  -1.684046e+06   4.051277e+05
  -8.340286e+05  -3.608838e+05
   1.837156e+05  -5.275616e+05
   4.659304e+05  -8.697376e+04
   4.426512e+04   3.577306e+05
  -4.129224e+05   2.564402e+05
  -4.649104e+05  -2.899321e+05
  -2.423247e+05  -6.639482e+05
  -8.408624e+04  -4.382405e+05
  -1.312660e+05   1.217592e+05
  -2.769816e+05   3.175778e+05
  -2.797112e+05  -1.963669e+05
   9.077473e+04  -9.398639e+05
   7.705358e+05  -1.046780e+06
   1.214985e+06  -2.336237e+05
   8.113759e+05   7.949067e+05
  -3.103389e+05   1.057761e+06
  -1.124062e+06   3.642837e+05
  -7.141841e+05  -5.007416e+05
   6.091422e+05  -6.593733e+05
   1.512540e+06  -2.516948e+04
   1.043991e+06   7.461977e+05
  -3.637178e+05   9.923030e+05
  -1.393894e+06   5.884133e+05
  -1.203993e+06  -8.337932e+04
  -1.737817e+05  -4.855844e+05
   5.917012e+05  -3.100899e+05
   3.702389e+05   2.386631e+05
  -5.273283e+05   5.068945e+05
  -1.105404e+06  -2.493335e+04
  -6.714658e+05  -1.070663e+06
   4.772525e+05  -1.613379e+06
   1.347372e+06  -8.983292e+05
   1.221378e+06   6.442045e+05
   2.952140e+05   1.676098e+06
  -6.203508e+05   1.277971e+06
  -8.910367e+05  -9.129562e+04
  -4.994075e+05  -1.096287e+06
   1.256562e+05  -9.453447e+05
   5.187082e+05  -1.264399e+05
   4.781899e+05   3.350147e+05
   1.800311e+05   1.307822e+05
   3.427538e+04  -1.007544e+05
   2.577826e+05   2.392969e+05
   5.305527e+05   8.684787e+05
   2.678288e+05   1.013417e+06
  -6.228154e+05   4.274509e+05
  -1.419415e+06  -3.476807e+05
  -1.276655e+06  -7.137724e+05
  -2.212048e+05  -6.416072e+05
   7.931762e+05  -4.397578e+05
   9.227566e+05  -2.372488e+05
   3.311633e+05   1.238119e+04
  -1.289999e+05   2.172638e+05
  -4.366846e+03   2.114589e+05
   2.719486e+05   9.021105e+04
   4.773281e+04   1.203644e+05
  -6.258282e+05   2.481026e+05
  -9.794165e+05   4.986072e+04
  -4.222516e+05  -6.095130e+05
   7.308769e+05  -1.140771e+06
   1.530734e+06  -8.078145e+05
   1.324980e+06   3.183332e+05
   3.382848e+05   1.303643e+06
  -6.263336e+05   1.335853e+06
  -9.463570e+05   5.596294e+05
  -6.289127e+05  -1.875247e+05
  -1.409801e+05  -3.247051e+05
   7.287984e+04  -5.049331e+04
  -7.424752e+04   3.495233e+04
  -3.156408e+05  -3.244045e+05
  -2.902756e+05  -7.462750e+05
   1.270306e+05  -6.444341e+05
   6.459528e+05   8.216057e+04
   7.408441e+05   8.523224e+05
   1.586868e+05   9.516589e+05
  -6.933095e+05   2.626836e+05
  -1.006865e+06  -6.205955e+05
  -3.881680e+05  -9.949075e+05
   6.228405e+05  -6.702551e+05
   1.045652e+06  -1.399977e+03
   5.350723e+05   5.269485e+05
  -2.183247e+05   6.427681e+05
  -3.194115e+05   3.725351e+05
   2.426603e+05   3.728489e+03
   6.092505e+05  -7.514223e+04
   1.543882e+05   2.750736e+05
  -7.321332e+05   6.919656e+05
  -1.141716e+06   6.024281e+05
  -7.197728e+05  -1.018226e+05
   3.302725e+04  -8.168511e+05
   4.501188e+05  -8.397290e+05
   3.727026e+05  -1.771625e+05
   7.269317e+04   4.476265e+05
  -1.949651e+05   4.166442e+05
  -3.349730e+05  -1.256809e+05
  -2.741645e+05  -5.247474e+05
   1.920320e+04  -3.936670e+05
   3.669222e+05   2.055867e+04
   4.650615e+05   2.235113e+05
   2.372421e+05   6.848040e+04
  -4.149311e+04  -1.279968e+05
  -8.954549e+04  -1.912964e+04
   1.699935e+04   3.293166e+05
  -2.380553e+04   4.975147e+05
  -2.806513e+05   2.046399e+05
  -4.352073e+05  -3.296321e+05
  -1.717639e+05  -5.887438e+05
   3.642845e+05  -3.143418e+05
   6.316346e+05   2.208107e+05
   2.688404e+05   5.220856e+05
  -4.484694e+05   3.766964e+05
  -8.250629e+05  -1.339024e+04
  -4.715215e+05  -3.213171e+05
   2.449411e+05  -3.881799e+05
   5.768759e+05  -2.494101e+05
   2.258956e+05  -3.678579e+04
  -3.253216e+05   7.355535e+04
  -3.839215e+05  -4.516458e+04
   1.502004e+05  -2.849426e+05
   6.919475e+05  -2.948733e+05
