
 $NMID
 id='ANONYMOUS ', fmtdat='(2E16.6)'
 volume=1.0
 tramp=1.0
 $END
  -1.547966e+07   5.881316e+05
  -1.029387e+07  -7.209310e+06
   3.227093e+04  -9.787494e+06
   6.426856e+06  -6.290204e+06
   5.244348e+06  -5.097484e+05
   2.617448e+05   2.655161e+06
  -2.906157e+06   1.270194e+06
  -2.199478e+06  -2.321568e+06
   6.049126e+05  -3.969428e+06
   2.704266e+06  -1.827725e+06
   2.528890e+06   1.827214e+06
   4.938205e+05   3.105373e+06
  -1.425740e+06   7.779167e+05
  -1.325149e+06  -2.440001e+06
   7.068595e+05  -3.001145e+06
   2.485239e+06  -3.306014e+05
   1.971482e+06   2.892981e+06
  -5.534783e+05   3.786020e+06
  -2.853893e+06   1.945096e+06
  -3.078780e+06  -7.256871e+05
  -1.462863e+06  -2.154503e+06
   1.452423e+05  -1.859368e+06
   2.079642e+05  -9.895359e+05
  -9.541165e+05  -9.322491e+05
  -1.450183e+06  -1.833086e+06
   1.194326e+05  -2.475943e+06
   2.822024e+06  -1.700622e+06
   4.057180e+06   2.038032e+05
   2.394270e+06   1.746980e+06
  -6.410535e+05   1.770638e+06
  -2.142731e+06   4.780501e+05
  -9.785272e+05  -9.243304e+05
   1.218355e+06  -1.254146e+06
   2.143471e+06  -1.705011e+05
   1.225192e+06   1.490114e+06
  -2.759735e+05   2.183458e+06
  -9.590615e+05   1.091182e+06
  -5.612254e+05  -7.137635e+05
   1.740620e+05  -1.178219e+06
   3.764172e+05   2.603413e+05
  -2.075708e+05   1.752050e+06
  -9.988580e+05   1.264075e+06
  -1.056865e+06  -7.385203e+05
  -3.526735e+04  -1.794153e+06
   1.238814e+06  -5.530169e+05
   1.384679e+06   1.585728e+06
  -1.050290e+05   2.265528e+06
  -2.113222e+06   8.515406e+05
  -2.791084e+06  -1.201248e+06
  -1.346916e+06  -2.146943e+06
   1.065846e+06  -1.499438e+06
   2.361404e+06  -5.519852e+04
   1.523432e+06   9.929156e+05
  -4.214287e+05   9.469771e+05
  -1.510755e+06   7.656005e+04
  -8.862839e+05  -6.467753e+05
   4.389042e+05  -5.058613e+05
   8.768548e+05   2.232440e+05
   7.416599e+04   6.422079e+05
  -8.197000e+05   2.781049e+05
  -5.954508e+05  -4.554314e+05
   6.165086e+05  -7.760490e+05
   1.510381e+06  -2.565589e+05
   1.008126e+06   8.911733e+05
  -6.517570e+05   1.910406e+06
  -2.177211e+06   1.893377e+06
  -2.455649e+06   5.275991e+05
  -1.510991e+06  -1.366557e+06
  -3.105699e+05  -2.404485e+06
   2.818759e+05  -2.023665e+06
   2.803764e+05  -1.050894e+06
   3.232737e+05  -6.088804e+05
   8.064129e+05  -7.303520e+05
   1.424390e+06  -5.078455e+05
   1.535830e+06   4.849806e+05
   8.350442e+05   1.466486e+06
  -3.370909e+05   1.355716e+06
  -1.203121e+06   9.072021e+04
  -1.081682e+06  -1.248344e+06
   4.277255e+04  -1.529930e+06
   1.349837e+06  -5.970171e+05
   1.781137e+06   7.265180e+05
   1.038184e+06   1.468419e+06
  -9.684980e+04   1.326535e+06
  -6.390648e+05   7.796919e+05
  -5.225907e+05   4.767906e+05
  -5.645803e+05   5.488828e+05
  -1.279722e+06   5.367095e+05
  -2.060092e+06  -4.004546e+04
  -1.806687e+06  -1.107105e+06
  -2.728352e+05  -2.017058e+06
   1.494267e+06  -2.057443e+06
   2.137168e+06  -1.053049e+06
   1.306946e+06   3.828739e+05
  -5.979457e+04   1.224470e+06
  -7.127213e+05   8.997329e+05
  -2.639198e+05  -1.000638e+05
   5.813372e+05  -6.558154e+05
   8.670359e+05  -2.272216e+05
   3.627565e+05   5.325417e+05
  -3.068992e+05   5.959965e+05
  -3.979933e+05  -1.245697e+05
   1.978694e+05  -6.280138e+05
   8.921224e+05  -5.886434e+04
   9.532530e+05   1.208222e+06
   1.193682e+05   1.937529e+06
  -1.159660e+06   1.352937e+06
  -1.988952e+06  -1.098742e+05
  -1.703419e+06  -1.312366e+06
  -4.982560e+05  -1.490848e+06
   6.431528e+05  -8.282238e+05
   8.521010e+05  -1.243799e+05
   2.516060e+05   3.697830e+03
  -2.188799e+05  -3.566442e+05
   9.340761e+04  -6.129806e+05
   8.024933e+05  -3.464800e+05
   9.820990e+05   2.454784e+05
   3.065529e+05   5.928389e+05
  -5.268158e+05   3.742612e+05
  -5.698681e+05  -1.632906e+05
   3.080510e+05  -4.620046e+05
   1.232974e+06  -1.656611e+05
   1.204560e+06   5.690910e+05
   1.188376e+05   1.167677e+06
  -1.104387e+06   1.083245e+06
  -1.415566e+06   3.071880e+05
  -6.484759e+05  -5.264197e+05
   3.656538e+05  -6.914805e+05
   6.642250e+05  -1.223694e+05
   7.598621e+04   4.809943e+05
  -7.121050e+05   4.108999e+05
  -9.054220e+05  -2.608238e+05
  -3.488042e+05  -7.932845e+05
   4.052314e+05  -6.399866e+05
   6.655486e+05  -3.532973e+04
   2.522398e+05   3.279571e+05
  -3.331934e+05   7.657293e+04
  -3.879717e+05  -4.848806e+05
   2.603598e+05  -7.280208e+05
   1.006524e+06  -3.222990e+05
   1.055134e+06   4.661276e+05
   2.795113e+05   1.013756e+06
  -6.150036e+05   8.856161e+05
  -8.403432e+05   2.222029e+05
  -3.339129e+05  -3.882161e+05
   2.698981e+05  -4.621038e+05
   3.812713e+05  -6.833660e+04
   2.347573e+04   2.937342e+05
  -3.150671e+05   2.559152e+05
  -2.516363e+05  -3.485045e+04
   1.162640e+05  -1.272484e+05
   3.313373e+05   1.816618e+05
   3.796151e+04   5.766485e+05
  -6.225843e+05   5.372044e+05
  -1.070583e+06  -9.921661e+04
  -8.216902e+05  -9.145274e+05
   2.734796e+03  -1.265813e+06
   7.645268e+05  -8.765681e+05
   9.432814e+05  -8.674441e+04
   6.145612e+05   4.809434e+05
   2.552102e+05   5.056519e+05
   1.673180e+05   2.223572e+05
   2.067622e+05   1.017521e+05
   5.336851e+04   3.072529e+05
  -3.628115e+05   5.155024e+05
  -7.385801e+05   3.005972e+05
  -6.610730e+05  -3.308216e+05
  -1.099438e+04  -8.503676e+05
   8.318619e+05  -7.009491e+05
   1.208729e+06   1.190375e+05
   7.310895e+05   9.933334e+05
  -3.165273e+05   1.234030e+06
  -1.172254e+06   6.990551e+05
  -1.264386e+06  -1.234979e+05
  -6.894121e+05  -6.182876e+05
  -2.925986e+04  -6.036117e+05
   2.474498e+05  -4.004874e+05
   1.646288e+05  -3.937801e+05
   8.465967e+04  -5.850189e+05
   2.684255e+05  -6.111187e+05
   6.002579e+05  -1.889986e+05
   7.082449e+05   5.072094e+05
   3.544258e+05   9.526268e+05
  -2.703547e+05   7.638944e+05
  -6.655326e+05   7.621399e+04
  -4.934496e+05  -5.709686e+05
   6.418028e+04  -7.136579e+05
   4.781847e+05  -3.369714e+05
   4.175178e+05   1.845134e+05
   6.989313e+04   4.663444e+05
  -1.176644e+05   4.251697e+05
   2.949715e+04   2.591119e+05
   2.166874e+05   1.820639e+05
   3.391204e+04   2.059909e+05
  -5.338040e+05   1.681482e+05
  -1.006976e+06  -6.187336e+04
  -8.658000e+05  -4.180221e+05
  -1.101364e+05  -6.700438e+05
   6.786665e+05  -6.164741e+05
   8.862227e+05  -2.718818e+05
   4.632581e+05   1.141922e+05
  -7.493714e+04   2.510972e+05
  -2.285337e+05   7.678437e+04
   3.723625e+03  -1.581253e+05
   2.495195e+05  -1.367284e+05
   2.489741e+05   1.581987e+05
   8.946400e+04   3.889943e+05
   1.291014e+03   2.544555e+05
   6.836809e+04  -1.056947e+05
   1.791625e+05  -2.311577e+05
   1.642822e+05   9.681583e+04
  -6.308883e+04   5.404320e+05
  -4.132513e+05   5.702791e+05
  -6.108399e+05   8.910701e+04
  -3.902696e+05  -4.456522e+05
   1.731243e+05  -5.333524e+05
   5.897266e+05  -1.496450e+05
   3.914938e+05   2.880358e+05
  -3.122271e+05   3.748600e+05
  -8.470434e+05   6.306019e+04
  -6.481265e+05  -3.697077e+05
   1.280724e+05  -5.810355e+05
   7.579364e+05  -4.152871e+05
   7.023973e+05  -1.618448e+04
   1.308032e+05   2.718989e+05
  -3.104610e+05   2.002544e+05
  -1.846524e+05  -1.153294e+05
   3.173494e+05  -2.627394e+05
   6.126136e+05   4.707419e+04
   3.329841e+05   6.168838e+05
  -3.148488e+05   8.844234e+05
  -7.734283e+05   4.732457e+05
  -6.802421e+05  -3.696288e+05
  -1.690019e+05  -9.395375e+05
   3.295051e+05  -7.406375e+05
   4.968448e+05   8.374997e+03
   3.191624e+05   5.914359e+05
  -1.202659e+04   5.407380e+05
  -2.689586e+05   9.021926e+04
  -3.023942e+05  -1.827387e+05
  -1.399402e+05  -7.496236e+04
  -1.690639e+03   6.435774e+04
  -8.650190e+04  -1.174094e+05
  -2.780315e+05  -4.715532e+05
  -2.018311e+05  -5.587658e+05
   2.898992e+05  -2.383929e+05
   7.977514e+05   1.830658e+05
   7.553198e+05   3.780681e+05
   1.302703e+05   3.444347e+05
  -4.750007e+05   2.527382e+05
  -5.212519e+05   1.545547e+05
  -1.479203e+05   1.033149e+04
   8.565299e+04  -1.204063e+05
  -4.699287e+04  -1.294155e+05
  -2.031422e+05  -6.368139e+04
  -9.436013e+03  -7.354615e+04
   3.998777e+05  -1.326003e+05
   5.397917e+05  -1.409984e+04
   1.650738e+05   3.443187e+05
  -4.536162e+05   6.145624e+05
  -8.230414e+05   4.077739e+05
  -6.824375e+05  -2.143641e+05
  -1.716056e+05  -7.338584e+05
   3.371331e+05  -7.218719e+05
   5.298951e+05  -2.785527e+05
   3.607749e+05   1.280353e+05
   5.801093e+04   1.834987e+05
  -8.624950e+04   9.688325e+03
   1.929195e+04  -4.723303e+04
   1.932032e+05   1.608237e+05
   1.792277e+05   4.087524e+05
  -8.216555e+04   3.489550e+05
  -3.734379e+05  -7.486318e+04
  -3.888951e+05  -5.089476e+05
  -3.565255e+04  -5.332401e+05
   4.208642e+05  -1.073542e+05
   5.508381e+05   3.886703e+05
   1.834584e+05   5.556229e+05
  -3.606023e+05   3.388116e+05
  -5.599558e+05  -1.892729e+04
  -2.633797e+05  -2.684266e+05
   1.280899e+05  -3.148154e+05
   1.437343e+05  -1.880535e+05
  -1.772575e+05  -8.960654e+03
  -3.493452e+05   3.628653e+04
  -6.943831e+04  -1.479614e+05
   4.052836e+05  -3.872000e+05
   5.923378e+05  -3.536756e+05
   3.515335e+05   3.538042e+04
  -2.715269e+04   4.369948e+05
  -2.198318e+05   4.397033e+05
  -1.735543e+05   5.951292e+04
  -2.171213e+04  -2.691242e+05
   1.214483e+05  -2.102287e+05
   1.953298e+05   1.054395e+05
   1.448744e+05   2.939579e+05
  -2.884083e+04   1.874374e+05
  -2.050327e+05  -2.861198e+04
  -2.385643e+05  -1.030693e+05
  -1.256782e+05  -1.635331e+04
  -1.853457e+03   4.704315e+04
   3.578098e+04  -4.706294e+04
   3.625629e+04  -2.166800e+05
   9.451934e+04  -2.519252e+05
   1.936030e+05  -5.187883e+04
   2.016246e+05   2.377454e+05
   3.025264e+04   3.467647e+05
  -2.253441e+05   1.588324e+05
  -3.301136e+05  -1.543936e+05
  -1.313648e+05  -3.089900e+05
   2.402775e+05  -1.988193e+05
   4.389559e+05   3.221302e+04
   2.490224e+05   1.833550e+05
  -1.435506e+05   1.866302e+05
  -3.182952e+05   9.986511e+04
  -9.811758e+04   7.071762e+03
   2.268703e+05  -1.895897e+04
   2.371535e+05   6.385824e+04
  -1.116385e+05   1.886379e+05
  -4.383984e+05   1.705236e+05
