
 $NMID
 id='ANONYMOUS ', fmtdat='(2E16.6)'
 volume=1.0
 tramp=1.0
 $END
   1.426937e+07   4.934241e+04
   9.916707e+06   5.698337e+06
   8.368858e+05   8.700655e+06
  -5.730634e+06   7.074092e+06
  -5.619416e+06   1.766361e+06
  -8.936524e+05  -2.648388e+06
   3.062790e+06  -2.092473e+06
   2.921284e+06   2.167202e+06
  -1.853377e+05   4.708056e+06
  -2.772662e+06   2.398781e+06
  -2.617348e+06  -1.988924e+06
  -3.648564e+05  -3.431826e+06
   1.589378e+06  -6.076022e+05
   1.377884e+06   3.047095e+06
  -7.415330e+05   3.584103e+06
  -2.601520e+06   5.975350e+05
  -2.135633e+06  -2.925139e+06
   4.762089e+05  -3.871263e+06
   2.837012e+06  -1.813408e+06
   2.834461e+06   9.948875e+05
   9.372225e+05   2.100178e+06
  -4.334207e+05   1.292894e+06
   2.372906e+05   4.861036e+05
   1.820493e+06   1.217994e+06
   1.873168e+06   2.776307e+06
  -5.544008e+05   3.171538e+06
  -3.689062e+06   1.568411e+06
  -4.647993e+06  -8.451211e+05
  -2.334972e+06  -2.233337e+06
   1.237838e+06  -1.766179e+06
   2.750680e+06  -1.549968e+04
   9.410190e+05   1.593080e+06
  -2.047459e+06   1.651414e+06
  -3.045552e+06  -1.289089e+05
  -1.341533e+06  -2.289374e+06
   8.466745e+05  -2.710838e+06
   1.282339e+06  -9.105633e+05
   1.645455e+05   1.135301e+06
  -7.072877e+05   1.121430e+06
  -3.537994e+05  -8.368185e+05
   6.373869e+05  -2.313800e+06
   1.295663e+06  -1.499096e+06
   1.207439e+06   6.890542e+05
   3.998151e+05   1.797796e+06
  -7.266430e+05   6.932176e+05
  -1.182607e+06  -1.312758e+06
  -6.048598e+04  -2.055146e+06
   2.059726e+06  -7.636960e+05
   3.096092e+06   1.363331e+06
   1.628912e+06   2.489665e+06
  -1.232955e+06   1.822728e+06
  -2.861919e+06   1.312140e+05
  -1.932955e+06  -1.127578e+06
   3.097633e+05  -1.111492e+06
   1.611907e+06  -1.789428e+05
   1.031681e+06   6.160937e+05
  -4.220157e+05   5.308671e+05
  -1.076545e+06  -2.620987e+05
  -2.941060e+05  -9.159342e+05
   9.500705e+05  -7.230411e+05
   1.110191e+06   1.934369e+05
  -1.806583e+05   9.200099e+05
  -1.507241e+06   5.724510e+05
  -1.147958e+06  -7.816326e+05
   8.852982e+05  -2.015120e+06
   2.745209e+06  -1.896619e+06
   2.818390e+06  -2.708380e+05
   1.415307e+06   1.729291e+06
   8.514949e+04   2.725759e+06
  -3.070979e+05   2.362469e+06
  -2.628916e+05   1.471448e+06
  -6.101180e+05   9.823442e+05
  -1.411150e+06   8.467489e+05
  -2.027789e+06   2.705797e+05
  -1.845119e+06  -1.016118e+06
  -7.587398e+05  -2.082219e+06
   7.215468e+05  -1.716890e+06
   1.653455e+06   5.579660e+04
   1.268875e+06   1.754291e+06
  -2.479928e+05   1.898475e+06
  -1.701883e+06   4.929639e+05
  -1.924728e+06  -1.122215e+06
  -9.124650e+05  -1.733983e+06
   2.550637e+05  -1.313122e+06
   6.495116e+05  -6.922301e+05
   4.640825e+05  -5.264629e+05
   6.344672e+05  -7.114547e+05
   1.578997e+06  -6.390691e+05
   2.504583e+06   1.477315e+05
   2.135864e+06   1.465886e+06
   1.876904e+05   2.505118e+06
  -2.037185e+06   2.405261e+06
  -2.767162e+06   1.043297e+06
  -1.543780e+06  -6.852911e+05
   2.969770e+05  -1.527070e+06
   1.037508e+06  -9.891552e+05
   3.009883e+05   1.820853e+05
  -8.023476e+05   7.371191e+05
  -1.057882e+06   1.981251e+05
  -3.517470e+05  -6.609033e+05
   4.639505e+05  -7.104960e+05
   5.503256e+05   1.798269e+05
  -1.985874e+05   8.780726e+05
  -1.129594e+06   2.487166e+05
  -1.313095e+06  -1.422161e+06
  -2.708658e+05  -2.542448e+06
   1.467747e+06  -1.868376e+06
   2.602252e+06   1.430961e+05
   2.171070e+06   1.816582e+06
   5.370918e+05   1.979069e+06
  -9.005308e+05   9.805483e+05
  -1.087181e+06   5.590918e+04
  -3.123815e+05  -2.590060e+04
   2.449283e+05   4.567384e+05
  -1.350495e+05   7.250291e+05
  -9.666361e+05   3.663395e+05
  -1.175753e+06  -3.301768e+05
  -3.630182e+05  -7.218097e+05
   6.685554e+05  -4.383742e+05
   7.333867e+05   2.456221e+05
  -3.965762e+05   6.177640e+05
  -1.608592e+06   1.827630e+05
  -1.552584e+06  -8.132234e+05
  -9.831399e+04  -1.534574e+06
   1.475260e+06  -1.309040e+06
   1.794961e+06  -2.823497e+05
   7.593583e+05   6.794004e+05
  -4.851786e+05   7.890968e+05
  -7.840134e+05   9.381064e+04
  -3.297710e+04  -5.724530e+05
   9.036109e+05  -4.429061e+05
   1.107805e+06   3.729055e+05
   4.133145e+05   1.010606e+06
  -5.214811e+05   8.097833e+05
  -8.471014e+05   4.417941e+04
  -3.294632e+05  -4.120473e+05
   3.919871e+05  -7.908036e+04
   4.288674e+05   6.226278e+05
  -3.934040e+05   8.694335e+05
  -1.275266e+06   2.988763e+05
  -1.258844e+06  -6.715095e+05
  -2.637084e+05  -1.271192e+06
   8.168268e+05  -1.048953e+06
   1.054728e+06  -2.266309e+05
   4.032103e+05   4.998196e+05
  -3.619523e+05   5.644081e+05
  -5.028364e+05   4.965268e+04
  -2.190798e+04  -4.126268e+05
   4.526060e+05  -3.339877e+05
   3.808212e+05   8.431711e+04
  -1.243853e+05   2.157330e+05
  -4.243443e+05  -2.038328e+05
  -3.781039e+04  -7.139539e+05
   8.038254e+05  -6.275171e+05
   1.320532e+06   2.034492e+05
   9.422331e+05   1.198966e+06
  -1.094313e+05   1.582092e+06
  -1.031834e+06   1.060306e+06
  -1.217466e+06   5.327431e+04
  -7.736718e+05  -6.861681e+05
  -2.840789e+05  -7.300466e+05
  -1.437717e+05  -3.345787e+05
  -2.012896e+05  -1.205701e+05
  -3.687658e+04  -3.538508e+05
   4.792025e+05  -6.218907e+05
   9.563390e+05  -3.380151e+05
   8.304158e+05   4.797654e+05
  -3.746552e+04   1.102801e+06
  -1.100612e+06   8.324499e+05
  -1.511466e+06  -2.412270e+05
  -8.527674e+05  -1.289670e+06
   4.565645e+05  -1.509388e+06
   1.489149e+06  -8.036326e+05
   1.586161e+06   2.177439e+05
   8.648646e+05   8.296940e+05
   1.289689e+04   8.057110e+05
  -3.804255e+05   5.194670e+05
  -3.002102e+05   4.637959e+05
  -1.809233e+05   6.781352e+05
  -3.705148e+05   7.093469e+05
  -7.409595e+05   1.774702e+05
  -8.284195e+05  -6.930772e+05
  -3.555681e+05  -1.216467e+06
   4.059406e+05  -9.269523e+05
   8.390358e+05  -4.716068e+04
   5.793786e+05   7.334653e+05
  -1.081487e+05   8.823206e+05
  -5.909008e+05   4.195009e+05
  -5.053033e+05  -2.077861e+05
  -9.006988e+04  -5.584195e+05
   1.333477e+05  -5.306832e+05
  -3.323764e+04  -3.467283e+05
  -2.440139e+05  -2.550138e+05
  -1.816223e+04  -2.633037e+05
   6.618441e+05  -1.724799e+05
   1.224367e+06   1.490277e+05
   1.043075e+06   5.754129e+05
   1.134064e+05   8.222425e+05
  -8.588339e+05   7.030277e+05
  -1.114258e+06   2.878059e+05
  -5.819998e+05  -1.410892e+05
   9.629054e+04  -2.886662e+05
   2.815497e+05  -9.400661e+04
  -2.821509e+04   1.711813e+05
  -3.348560e+05   1.405522e+05
  -2.915095e+05  -2.185938e+05
  -4.699638e+04  -4.977223e+05
   4.868838e+04  -3.161369e+05
  -9.977106e+04   1.462069e+05
  -2.684917e+05   2.957013e+05
  -2.019790e+05  -1.321145e+05
   1.411981e+05  -6.761547e+05
   5.611973e+05  -6.682104e+05
   7.300912e+05  -4.124513e+04
   4.114138e+05   5.859937e+05
  -2.588004e+05   6.202489e+05
  -7.235641e+05   1.079103e+05
  -4.567908e+05  -4.017571e+05
   4.135792e+05  -4.471196e+05
   1.075804e+06  -2.217508e+04
   8.174468e+05   5.118096e+05
  -1.817412e+05   7.415471e+05
  -9.925721e+05   4.952915e+05
  -9.068172e+05  -1.983208e+04
  -1.550208e+05  -3.589294e+05
   4.017136e+05  -2.381784e+05
   2.111043e+05   1.488337e+05
  -4.311318e+05   2.832992e+05
  -7.538608e+05  -1.349684e+05
  -3.315534e+05  -8.071871e+05
   5.024647e+05  -1.059563e+06
   1.020250e+06  -4.988974e+05
   8.130353e+05   5.334816e+05
   1.220532e+05   1.194905e+06
  -4.797721e+05   9.120365e+05
  -6.276164e+05  -3.608114e+04
  -3.666913e+05  -7.667344e+05
   3.886040e+04  -6.917173e+05
   3.374620e+05  -1.004681e+05
   3.799552e+05   2.614935e+05
   1.882995e+05   1.147708e+05
   4.147263e+02  -8.762854e+04
   6.913871e+04   1.371642e+05
   2.948808e+05   6.068477e+05
   2.273981e+05   7.236377e+05
  -3.551717e+05   2.797044e+05
  -9.852103e+05  -3.013463e+05
  -9.344504e+05  -5.425406e+05
  -1.354010e+05  -4.375264e+05
   6.371897e+05  -2.687440e+05
   6.741234e+05  -1.535374e+05
   1.694111e+05  -1.376564e+04
  -1.258514e+05   1.397612e+05
   7.050452e+04   1.808166e+05
   2.727828e+05   1.149252e+05
  -5.638603e+03   9.332823e+04
  -5.389183e+05   1.155763e+05
  -6.707138e+05  -4.077051e+04
  -1.351290e+05  -4.372600e+05
   6.475240e+05  -7.057556e+05
   1.045571e+06  -4.129000e+05
   7.968672e+05   3.443334e+05
   1.334521e+05   9.353217e+05
  -4.813189e+05   8.599419e+05
  -6.852432e+05   2.788537e+05
  -4.401107e+05  -2.091473e+05
  -4.338041e+04  -2.328647e+05
   1.298805e+05   1.362662e+04
  -2.158641e+04   7.552381e+04
  -2.384263e+05  -2.120083e+05
  -1.950266e+05  -5.273428e+05
   1.406393e+05  -4.209908e+05
   4.618653e+05   1.472242e+05
   4.187987e+05   6.878075e+05
  -3.526514e+04   6.629698e+05
  -5.484097e+05   6.727077e+04
  -6.387478e+05  -5.601605e+05
  -1.581152e+05  -7.076865e+05
   4.850796e+05  -3.681628e+05
   6.829586e+05   8.450158e+04
   2.889923e+05   3.419189e+05
  -1.868354e+05   3.570588e+05
  -1.763681e+05   2.164400e+05
   2.420465e+05   3.894345e+04
   4.446221e+05  -6.956420e+03
   6.458377e+04   1.861943e+05
  -5.429667e+05   4.463078e+05
  -7.544743e+05   4.018165e+05
  -4.134115e+05  -5.866891e+04
   7.774467e+04  -5.327150e+05
   2.962517e+05  -5.187221e+05
   1.982176e+05  -4.246285e+04
  -1.207390e+04   3.459735e+05
  -1.753757e+05   2.373720e+05
  -2.328221e+05  -1.709421e+05
  -1.482948e+05  -3.810731e+05
   5.852090e+04  -2.116569e+05
   2.510708e+05   6.473968e+04
   2.809848e+05   1.370984e+05
   1.557320e+05   1.995969e+04
   1.610204e+04  -4.161237e+04
  -5.132849e+04   8.833018e+04
  -9.596318e+04   2.774575e+05
  -1.813996e+05   2.790574e+05
  -2.565731e+05   7.103906e+03
  -1.985693e+05  -3.386577e+05
   3.346233e+04  -4.356307e+05
   3.062801e+05  -1.644712e+05
   3.810695e+05   2.379830e+05
   1.216018e+05   4.055690e+05
  -3.127143e+05   2.210584e+05
  -5.305988e+05  -9.237694e+04
  -2.856661e+05  -2.533075e+05
   1.963219e+05  -2.026043e+05
   3.994916e+05  -7.397116e+04
   1.064986e+05   3.147624e+03
  -3.059726e+05  -1.734424e+04
  -2.963047e+05  -1.270188e+05
   1.774809e+05  -2.363019e+05
   5.936222e+05  -1.654996e+05
