
 $NMID
 id='ANONYMOUS ', fmtdat='(2E16.6)'
 volume=1.0
 tramp=1.0
 $END
  -3.331321e+07   1.893701e+06
  -2.280644e+07  -1.607521e+07
   7.752037e+04  -2.184995e+07
   1.454860e+07  -1.333614e+07
   1.168731e+07  -2.470506e+05
   2.497572e+05   6.002754e+06
  -6.562224e+06   2.224756e+06
  -4.416258e+06  -5.419539e+06
   1.906991e+06  -8.345071e+06
   6.060114e+06  -3.573810e+06
   5.262090e+06   3.910498e+06
   9.122920e+05   6.434202e+06
  -2.894902e+06   1.647141e+06
  -2.467376e+06  -4.974002e+06
   1.832219e+06  -6.114584e+06
   5.397478e+06  -4.848387e+05
   4.073760e+06   6.287273e+06
  -1.331116e+06   8.089179e+06
  -6.085297e+06   4.180983e+06
  -6.553653e+06  -1.360613e+06
  -3.361525e+06  -4.395797e+06
  -7.564299e+04  -4.090058e+06
   4.115241e+05  -2.570738e+06
  -1.480993e+06  -2.320567e+06
  -2.395332e+06  -3.727210e+06
   4.505503e+05  -4.749803e+06
   5.592953e+06  -3.208125e+06
   8.069770e+06   5.033497e+05
   4.873390e+06   3.512233e+06
  -1.112405e+06   3.471307e+06
  -4.065367e+06   8.965542e+05
  -1.753880e+06  -1.660397e+06
   2.442952e+06  -2.059285e+06
   4.021372e+06  -1.141037e+04
   2.143734e+06   2.903071e+06
  -6.269395e+05   4.142596e+06
  -1.832237e+06   2.243403e+06
  -1.163616e+06  -1.139310e+06
   1.147327e+05  -2.271922e+06
   5.195541e+05   2.879599e+05
  -5.594353e+05   3.267167e+06
  -2.140752e+06   2.427539e+06
  -2.205624e+06  -1.692350e+06
   1.202844e+05  -4.012880e+06
   2.958098e+06  -1.353573e+06
   3.158100e+06   3.431035e+06
  -2.346593e+05   5.012801e+06
  -4.508373e+06   1.847489e+06
  -5.718949e+06  -2.693469e+06
  -2.539815e+06  -4.595326e+06
   2.386150e+06  -2.956201e+06
   4.856119e+06   2.052195e+05
   2.990926e+06   2.291175e+06
  -1.040923e+06   2.001635e+06
  -3.233280e+06   4.734481e+04
  -1.839309e+06  -1.480001e+06
   9.602569e+05  -1.072074e+06
   1.761234e+06   5.708014e+05
  -8.431336e+04   1.359057e+06
  -1.919106e+06   3.164750e+05
  -1.165451e+06  -1.356502e+06
   1.599183e+06  -1.799479e+06
   3.393435e+06  -3.801366e+05
   2.130799e+06   2.043017e+06
  -1.375770e+06   3.908602e+06
  -4.433580e+06   3.722898e+06
  -4.965611e+06   1.018974e+06
  -3.068294e+06  -2.734737e+06
  -5.659072e+05  -4.886488e+06
   7.943732e+05  -4.156973e+06
   8.393222e+05  -2.063149e+06
   7.643575e+05  -9.830367e+05
   1.522376e+06  -1.186597e+06
   2.656431e+06  -8.612293e+05
   2.861999e+06   9.764058e+05
   1.484534e+06   2.825658e+06
  -7.458181e+05   2.531589e+06
  -2.290035e+06   1.644218e+04
  -1.950886e+06  -2.545354e+06
   2.061851e+05  -2.996219e+06
   2.680047e+06  -1.124887e+06
   3.530446e+06   1.473783e+06
   2.119239e+06   2.973144e+06
  -1.509341e+05   2.762445e+06
  -1.333211e+06   1.691386e+06
  -1.180071e+06   1.016575e+06
  -1.267476e+06   1.052746e+06
  -2.658758e+06   9.254933e+05
  -4.144107e+06  -2.982346e+05
  -3.510626e+06  -2.400374e+06
  -3.409053e+05  -4.048662e+06
   3.156621e+06  -3.937398e+06
   4.292869e+06  -1.901363e+06
   2.526078e+06   8.193706e+05
  -1.913864e+05   2.356928e+06
  -1.432836e+06   1.708514e+06
  -5.036076e+05  -1.958972e+05
   1.190750e+06  -1.242290e+06
   1.752154e+06  -3.907008e+05
   7.079523e+05   1.077375e+06
  -6.471925e+05   1.137885e+06
  -7.484357e+05  -3.207158e+05
   5.564666e+05  -1.220883e+06
   1.889913e+06   9.641860e+04
   1.742498e+06   2.680678e+06
  -1.506146e+05   3.941323e+06
  -2.619288e+06   2.480058e+06
  -3.952882e+06  -5.629100e+05
  -3.151886e+06  -2.838984e+06
  -7.758591e+05  -2.991149e+06
   1.348695e+06  -1.560495e+06
   1.682256e+06  -1.654193e+05
   4.995679e+05   3.221977e+04
  -3.988893e+05  -7.318577e+05
   2.464987e+05  -1.234132e+06
   1.653395e+06  -6.349901e+05
   1.961785e+06   5.971179e+05
   5.558989e+05   1.237776e+06
  -1.095366e+06   6.889029e+05
  -1.095265e+06  -4.008616e+05
   7.043929e+05  -8.621352e+05
   2.472301e+06  -1.333968e+05
   2.280249e+06   1.300215e+06
   5.822445e+04   2.317772e+06
  -2.322059e+06   2.005370e+06
  -2.844204e+06   4.535256e+05
  -1.250242e+06  -1.120624e+06
   7.859532e+05  -1.366693e+06
   1.351553e+06  -2.046100e+05
   1.287290e+05   9.638477e+05
  -1.455426e+06   7.546016e+05
  -1.780520e+06  -6.219439e+05
  -5.942211e+05  -1.632488e+06
   9.064409e+05  -1.224444e+06
   1.342238e+06   2.897907e+04
   4.563267e+05   7.020030e+05
  -6.845995e+05   1.247692e+05
  -7.290569e+05  -1.000053e+06
   5.812003e+05  -1.417082e+06
   2.021506e+06  -5.443725e+05
   2.049193e+06   1.023644e+06
   4.573539e+05   2.045073e+06
  -1.318683e+06   1.705946e+06
  -1.703707e+06   3.523630e+05
  -6.206297e+05  -8.168247e+05
   5.914379e+05  -8.890735e+05
   7.489280e+05  -8.880828e+04
  -1.412247e+04   5.696109e+05
  -6.523808e+05   4.343141e+05
  -4.509252e+05  -1.207496e+05
   2.925168e+05  -2.229020e+05
   6.501943e+05   4.328759e+05
  -1.457268e+02   1.170471e+06
  -1.303873e+06   1.003384e+06
  -2.119210e+06  -3.103592e+05
  -1.541005e+06  -1.900242e+06
   1.382040e+05  -2.507332e+06
   1.618655e+06  -1.642239e+06
   1.875499e+06  -4.727392e+04
   1.131119e+06   1.024189e+06
   4.132240e+05   9.975089e+05
   3.094836e+05   4.167459e+05
   4.326587e+05   2.122536e+05
   9.088345e+04   6.299669e+05
  -7.870718e+05   9.882199e+05
  -1.504737e+06   5.008815e+05
  -1.254827e+06  -7.379237e+05
   9.763057e+04  -1.678259e+06
   1.734798e+06  -1.286727e+06
   2.381130e+06   3.734088e+05
   1.338941e+06   2.061007e+06
  -7.733670e+05   2.433504e+06
  -2.424448e+06   1.264868e+06
  -2.504258e+06  -4.042515e+05
  -1.275967e+06  -1.323233e+06
   4.101267e+04  -1.188836e+06
   5.338741e+05  -7.310539e+05
   3.320425e+05  -7.402697e+05
   1.948155e+05  -1.159043e+06
   5.878415e+05  -1.205133e+06
   1.216356e+06  -3.273514e+05
   1.356319e+06   1.072196e+06
   6.074568e+05   1.922056e+06
  -6.109918e+05   1.485001e+06
  -1.328904e+06   7.728050e+04
  -9.224258e+05  -1.197427e+06
   2.147536e+05  -1.423735e+06
   1.016674e+06  -6.157731e+05
   8.351158e+05   4.358965e+05
   8.407052e+04   9.647360e+05
  -3.049471e+05   8.483121e+05
   1.366233e+04   5.152847e+05
   4.115229e+05   3.744514e+05
   4.707854e+04   4.077358e+05
  -1.088227e+06   2.824550e+05
  -2.008086e+06  -2.217713e+05
  -1.681855e+06  -9.265939e+05
  -1.438978e+05  -1.364416e+06
   1.423249e+06  -1.173440e+06
   1.801621e+06  -4.429877e+05
   9.183775e+05   2.991388e+05
  -1.748535e+05   5.069774e+05
  -4.739160e+05   1.248210e+05
   7.159194e+03  -3.212377e+05
   4.995880e+05  -2.446185e+05
   4.803521e+05   3.367830e+05
   1.498818e+05   7.640460e+05
  -9.499897e+03   4.920564e+05
   1.536718e+05  -1.904798e+05
   3.778783e+05  -4.166020e+05
   3.136967e+05   2.138756e+05
  -1.779107e+05   1.053946e+06
  -8.765323e+05   1.091524e+06
  -1.229997e+06   1.386454e+05
  -7.458577e+05  -9.082907e+05
   3.859543e+05  -1.054294e+06
   1.183095e+06  -2.601478e+05
   7.455010e+05   6.039993e+05
  -6.641042e+05   7.117069e+05
  -1.686412e+06   2.393060e+04
  -1.229705e+06  -8.206785e+05
   3.396348e+05  -1.138360e+06
   1.558947e+06  -7.198070e+05
   1.389041e+06   6.331929e+04
   2.201583e+05   5.551478e+05
  -6.435817e+05   3.589477e+05
  -3.629169e+05  -2.481132e+05
   6.420414e+05  -4.897330e+05
   1.200839e+06   1.425773e+05
   6.064570e+05   1.238236e+06
  -6.914447e+05   1.712620e+06
  -1.563077e+06   8.634315e+05
  -1.305659e+06  -7.941390e+05
  -2.383496e+05  -1.871821e+06
   7.343163e+05  -1.423805e+06
   9.873730e+05   7.975736e+04
   5.614982e+05   1.212845e+06
  -9.854358e+04   1.071499e+06
  -5.497850e+05   1.480812e+05
  -5.679776e+05  -3.980536e+05
  -2.556861e+05  -1.675243e+05
  -1.656692e+04   1.271827e+05
  -1.801587e+05  -2.364118e+05
  -5.101197e+05  -9.600909e+05
  -3.273528e+05  -1.134018e+06
   6.147112e+05  -4.512851e+05
   1.557248e+06   4.452360e+05
   1.443530e+06   8.352221e+05
   2.228982e+05   6.987983e+05
  -9.540767e+05   4.443830e+05
  -1.046353e+06   2.451709e+05
  -3.078675e+05   5.966718e+03
   1.764617e+05  -2.274612e+05
  -6.219138e+04  -2.646810e+05
  -3.759233e+05  -1.500315e+05
  -1.558074e+04  -1.412991e+05
   7.856607e+05  -2.156874e+05
   1.067265e+06   2.041702e+04
   3.137920e+05   6.837255e+05
  -9.386067e+05   1.168352e+06
  -1.669143e+06   7.423450e+05
  -1.338995e+06  -4.703194e+05
  -2.703773e+05  -1.461651e+06
   7.380164e+05  -1.401597e+06
   1.068265e+06  -5.077525e+05
   6.926395e+05   2.829080e+05
   1.024043e+05   3.640174e+05
  -1.536363e+05   9.111982e+03
   5.441343e+04  -8.592255e+04
   3.631663e+05   3.460932e+05
   3.088426e+05   8.301270e+05
  -1.915213e+05   6.823937e+05
  -7.209870e+05  -1.776852e+05
  -7.199148e+05  -1.028930e+06
  -3.420605e+04  -1.047390e+06
   8.245425e+05  -1.774602e+05
   1.046035e+06   8.068940e+05
   3.176902e+05   1.110161e+06
  -7.360933e+05   6.425282e+05
  -1.108411e+06  -8.306433e+04
  -5.087366e+05  -5.589925e+05
   2.753718e+05  -6.219834e+05
   3.104439e+05  -3.688031e+05
  -3.347510e+05  -3.975581e+04
  -6.896832e+05   3.714235e+04
  -1.286802e+05  -2.983109e+05
   8.401209e+05  -7.245702e+05
   1.222203e+06  -6.410829e+05
   7.103583e+05   1.037314e+05
  -9.120683e+04   8.650291e+05
  -4.834009e+05   8.608645e+05
  -3.535685e+05   1.184307e+05
  -1.911199e+04  -5.244743e+05
   2.531990e+05  -4.082873e+05
   3.669806e+05   2.176502e+05
   2.593045e+05   5.933225e+05
  -6.462654e+04   3.748279e+05
  -3.992452e+05  -7.138306e+04
  -4.711180e+05  -2.308882e+05
  -2.522697e+05  -5.078276e+04
   3.590008e+03   9.656693e+04
   8.912720e+04  -7.302906e+04
   8.362841e+04  -4.063950e+05
   1.813917e+05  -4.834938e+05
   3.656531e+05  -9.745553e+04
   3.793144e+05   4.656471e+05
   4.351662e+04   6.715414e+05
  -4.511165e+05   2.930966e+05
  -6.388419e+05  -3.241888e+05
  -2.318494e+05  -6.146607e+05
   4.957528e+05  -3.739809e+05
   8.666596e+05   9.591161e+04
   4.774562e+05   3.833100e+05
  -2.950208e+05   3.628839e+05
  -6.334136e+05   1.789012e+05
  -2.014197e+05   1.306376e+04
   4.316870e+05  -1.482411e+04
   4.484452e+05   1.407833e+05
  -2.349078e+05   3.474160e+05
  -8.667990e+05   2.829525e+05
