
 $NMID
 id='ANONYMOUS ', fmtdat='(2E16.6)'
 volume=1.0
 tramp=1.0
 $END
  -4.951287e+07  -1.769464e+05
  -2.999665e+07  -3.005734e+07
   6.032335e+06  -3.328413e+07
   2.402724e+07  -1.356734e+07
   1.481375e+07   5.411766e+06
  -2.542803e+06   8.266450e+06
  -8.780650e+06  -5.579068e+05
  -2.921807e+06  -8.537630e+06
   5.173197e+06  -8.732970e+06
   8.573116e+06  -2.157823e+06
   6.320685e+06   5.569960e+06
   7.234766e+05   7.849325e+06
  -3.647233e+06   2.378837e+06
  -2.451782e+06  -5.173021e+06
   3.290400e+06  -6.184436e+06
   7.059863e+06   9.876308e+05
   4.105017e+06   9.065724e+06
  -3.251378e+06   1.056274e+07
  -8.962117e+06   5.236027e+06
  -9.515714e+06  -1.938565e+06
  -5.635046e+06  -6.639811e+06
  -4.562136e+05  -7.398627e+06
   2.347791e+06  -5.084359e+06
   1.120975e+06  -2.499725e+06
  -1.317185e+06  -2.413851e+06
  -6.323370e+04  -4.148166e+06
   5.289057e+06  -3.944118e+06
   8.990811e+06  -1.835555e+05
   6.304354e+06   3.918339e+06
  -8.766752e+04   4.555286e+06
  -3.684003e+06   2.100171e+06
  -2.239985e+06  -3.576809e+05
   9.744205e+05  -1.138188e+06
   2.568638e+06  -3.572162e+05
   2.098127e+06   1.707878e+06
   3.602936e+05   3.844987e+06
  -1.780529e+06   3.365702e+06
  -2.686458e+06  -3.478622e+05
  -1.234969e+06  -3.239743e+06
   7.150587e+05  -1.386400e+06
   1.218500e+05   2.545691e+06
  -2.327323e+06   2.227335e+06
  -2.280127e+06  -2.789756e+06
   1.916731e+06  -5.448030e+06
   5.875396e+06  -9.817167e+05
   4.458936e+06   5.998592e+06
  -1.575431e+06   7.470146e+06
  -6.576315e+06   2.140766e+06
  -6.406427e+06  -3.992454e+06
  -1.869357e+06  -5.538263e+06
   3.153233e+06  -2.635866e+06
   4.978826e+06   1.247248e+06
   2.426710e+06   3.139810e+06
  -2.064918e+06   2.056295e+06
  -4.089114e+06  -7.316249e+05
  -1.832444e+06  -2.384486e+06
   1.512403e+06  -1.243197e+06
   1.675233e+06   9.130284e+05
  -1.023646e+06   9.682588e+05
  -2.257568e+06  -1.278350e+06
   2.493720e+05  -2.874536e+06
   3.843974e+06  -1.770755e+06
   4.701814e+06   9.919424e+05
   2.159987e+06   3.452510e+06
  -1.702387e+06   4.780432e+06
  -4.763713e+06   4.393037e+06
  -5.740731e+06   1.473482e+06
  -4.075810e+06  -3.005659e+06
  -7.725117e+05  -5.700963e+06
   1.619221e+06  -4.462268e+06
   1.520496e+06  -1.342677e+06
   2.843718e+05  -1.760744e+04
   3.116839e+05  -9.926777e+05
   1.793212e+06  -1.520111e+06
   2.737427e+06   5.238963e+04
   1.831883e+06   2.079957e+06
  -1.587946e+05   2.162568e+06
  -1.665250e+06   1.454062e+05
  -1.666139e+06  -2.128287e+06
   6.884558e+04  -2.857991e+06
   2.677411e+06  -1.464498e+06
   4.118810e+06   1.255184e+06
   2.849171e+06   3.502822e+06
  -9.983029e+04   3.781111e+06
  -2.029227e+06   2.391731e+06
  -1.949631e+06   1.054833e+06
  -1.663590e+06   7.224395e+05
  -2.798449e+06   5.297883e+05
  -4.167786e+06  -6.849922e+05
  -3.359298e+06  -2.643238e+06
  -1.276858e+05  -3.991695e+06
   3.143488e+06  -3.761857e+06
   4.099870e+06  -1.970896e+06
   2.548701e+06   5.190518e+05
   1.478375e+05   2.199488e+06
  -1.158038e+06   1.821070e+06
  -5.349923e+05  -7.389758e+04
   1.092690e+06  -1.247955e+06
   1.826347e+06  -3.661955e+05
   8.395999e+05   1.154896e+06
  -5.419216e+05   1.082941e+06
  -4.784720e+05  -3.698770e+05
   9.402339e+05  -7.747937e+05
   1.799232e+06   1.026837e+06
   8.156004e+05   3.230876e+06
  -1.289344e+06   3.407185e+06
  -2.958649e+06   1.326505e+06
  -3.331059e+06  -1.261343e+06
  -2.358065e+06  -2.724871e+06
  -4.767362e+05  -2.619926e+06
   1.244555e+06  -1.429946e+06
   1.558611e+06  -1.921924e+05
   4.806226e+05   4.736492e+04
  -3.486285e+05  -7.327008e+05
   3.849169e+05  -1.281182e+06
   1.815200e+06  -5.539174e+05
   1.957954e+06   8.311462e+05
   3.925165e+05   1.350652e+06
  -1.134384e+06   5.661717e+05
  -9.008743e+05  -4.442325e+05
   8.065435e+05  -5.627568e+05
   2.177381e+06   2.512357e+05
   1.785620e+06   1.332048e+06
  -2.074279e+05   1.983594e+06
  -2.271202e+06   1.651886e+06
  -2.719690e+06   2.690623e+05
  -1.178651e+06  -1.220010e+06
   8.874678e+05  -1.428868e+06
   1.483944e+06  -1.708109e+05
   1.708164e+05   1.034002e+06
  -1.475965e+06   7.052133e+05
  -1.678787e+06  -7.525692e+05
  -3.571350e+05  -1.612354e+06
   1.043060e+06  -9.854951e+05
   1.238762e+06   2.679011e+05
   2.687032e+05   7.515387e+05
  -7.580258e+05   5.743050e+04
  -7.062968e+05  -1.026431e+06
   5.780648e+05  -1.382537e+06
   1.967477e+06  -5.086667e+05
   1.977772e+06   1.041679e+06
   3.652829e+05   2.023657e+06
  -1.401862e+06   1.598784e+06
  -1.683180e+06   2.109874e+05
  -5.011845e+05  -8.446258e+05
   6.402898e+05  -7.918510e+05
   6.395090e+05  -6.950122e+04
  -1.016813e+05   3.877582e+05
  -5.106680e+05   2.377329e+05
  -1.768445e+05  -7.551097e+04
   4.092458e+05   2.676520e+04
   5.211888e+05   6.193363e+05
  -1.784791e+05   1.153090e+06
  -1.344941e+06   8.773869e+05
  -2.033409e+06  -4.085411e+05
  -1.422077e+06  -1.904684e+06
   2.236366e+05  -2.374979e+06
   1.591821e+06  -1.400586e+06
   1.679431e+06   1.114544e+05
   8.742198e+05   9.063661e+05
   3.186865e+05   6.997553e+05
   4.335137e+05   2.533413e+05
   5.744335e+05   2.943929e+05
   8.065661e+04   7.230120e+05
  -8.491346e+05   8.844886e+05
  -1.426108e+06   3.313830e+05
  -1.051301e+06  -7.187963e+05
   2.337841e+05  -1.458906e+06
   1.693712e+06  -1.064496e+06
   2.210819e+06   4.769539e+05
   1.118742e+06   2.054566e+06
  -9.700951e+05   2.309176e+06
  -2.471678e+06   1.019038e+06
  -2.312957e+06  -6.251370e+05
  -9.728450e+05  -1.314076e+06
   1.832854e+05  -9.621015e+05
   4.101015e+05  -5.312052e+05
   1.275627e+05  -7.315705e+05
   1.298392e+05  -1.248668e+06
   6.532293e+05  -1.236063e+06
   1.252315e+06  -2.992441e+05
   1.297473e+06   1.066188e+06
   5.327937e+05   1.858852e+06
  -6.193999e+05   1.404182e+06
  -1.261741e+06  -1.988632e+03
  -7.979236e+05  -1.246278e+06
   3.659479e+05  -1.362913e+06
   1.114265e+06  -4.190256e+05
   7.884182e+05   6.449420e+05
  -9.645938e+04   1.029761e+06
  -4.928879e+05   7.688429e+05
  -7.092602e+04   4.216115e+05
   4.159901e+05   3.381363e+05
   5.268607e+04   3.785888e+05
  -1.113018e+06   2.055378e+05
  -2.000966e+06  -3.263643e+05
  -1.578596e+06  -1.009610e+06
   2.137754e+04  -1.388585e+06
   1.535096e+06  -1.103100e+06
   1.785424e+06  -2.797723e+05
   8.225705e+05   4.590514e+05
  -2.463070e+05   5.428784e+05
  -4.936762e+05   4.260332e+04
  -2.017973e+04  -3.953707e+05
   4.434155e+05  -2.461686e+05
   4.669798e+05   3.371404e+05
   2.255024e+05   7.140832e+05
   7.371646e+04   4.704723e+05
   1.374438e+05  -1.057303e+05
   2.901759e+05  -3.016117e+05
   2.725799e+05   2.264881e+05
  -1.518012e+05   9.718383e+05
  -8.835043e+05   1.037206e+06
  -1.311989e+06   1.549422e+05
  -8.095097e+05  -8.987345e+05
   4.100430e+05  -1.097249e+06
   1.220250e+06  -3.090777e+05
   7.139578e+05   5.695233e+05
  -6.858881e+05   6.363329e+05
  -1.564066e+06  -9.075258e+04
  -1.005481e+06  -8.461909e+05
   4.620316e+05  -9.822097e+05
   1.476362e+06  -4.868564e+05
   1.223593e+06   1.803451e+05
   1.379178e+05   5.088830e+05
  -6.363343e+05   2.692207e+05
  -3.709254e+05  -2.846852e+05
   5.821937e+05  -5.032093e+05
   1.158817e+06   9.308346e+04
   6.430900e+05   1.165546e+06
  -5.968119e+05   1.664336e+06
  -1.465087e+06   8.573049e+05
  -1.230999e+06  -7.515076e+05
  -1.928649e+05  -1.763433e+06
   7.315010e+05  -1.276270e+06
   9.112513e+05   1.688447e+05
   4.278426e+05   1.171901e+06
  -2.098240e+05   9.573013e+05
  -5.501498e+05   8.488806e+04
  -4.632655e+05  -3.741411e+05
  -1.670383e+05  -1.380501e+05
  -4.559344e+04   9.575603e+04
  -2.650158e+05  -2.860507e+05
  -4.951121e+05  -9.490001e+05
  -1.923221e+05  -1.062326e+06
   6.949466e+05  -3.880741e+05
   1.449943e+06   4.608520e+05
   1.262920e+06   8.258620e+05
   1.810880e+05   6.858154e+05
  -8.446456e+05   4.098318e+05
  -9.698149e+05   1.789675e+05
  -3.507928e+05  -4.994925e+04
   1.451412e+05  -2.210997e+05
   3.069313e+04  -2.042134e+05
  -2.650215e+05  -9.593491e+04
  -4.794695e+04  -1.311979e+05
   6.552520e+05  -2.299362e+05
   1.028795e+06   1.283339e+04
   4.200812e+05   6.801160e+05
  -8.309708e+05   1.156034e+06
  -1.669419e+06   7.416247e+05
  -1.384399e+06  -4.254387e+05
  -2.699246e+05  -1.383277e+06
   7.534352e+05  -1.352363e+06
   1.031997e+06  -5.284627e+05
   6.450416e+05   2.291253e+05
   1.311219e+05   3.523951e+05
  -7.049678e+04   6.448641e+04
   7.940492e+04  -1.748992e+04
   2.962837e+05   3.612705e+05
   2.439436e+05   7.949472e+05
  -1.757640e+05   6.681879e+05
  -6.703039e+05  -1.179953e+05
  -7.287188e+05  -9.343982e+05
  -1.165412e+05  -1.014398e+06
   7.395837e+05  -2.464150e+05
   1.020068e+06   7.051770e+05
   3.462780e+05   1.070878e+06
  -6.994775e+05   6.692746e+05
  -1.101116e+06  -7.016910e+04
  -5.251690e+05  -6.020239e+05
   2.807028e+05  -6.691071e+05
   3.734980e+05  -3.631408e+05
  -2.417959e+05  -7.720570e+03
  -6.383797e+05   4.062714e+04
  -1.456259e+05  -3.029489e+05
   8.104446e+05  -6.694291e+05
   1.239111e+06  -5.328202e+05
   7.522013e+05   1.742134e+05
  -9.231012e+04   8.562037e+05
  -5.427870e+05   8.445075e+05
  -4.205083e+05   1.621425e+05
  -5.565409e+04  -4.701503e+05
   2.333924e+05  -4.304813e+05
   3.467008e+05   1.411104e+05
   2.523730e+05   5.669601e+05
  -4.961367e+04   4.228734e+05
  -3.849119e+05  -4.128681e+04
  -4.698260e+05  -2.762675e+05
  -2.389212e+05  -9.572333e+04
   3.574525e+04   1.497114e+05
   8.164084e+04   4.686102e+04
  -1.714434e+04  -3.457780e+05
   4.096413e+04  -5.446192e+05
   3.108716e+05  -2.219082e+05
   4.565931e+05   3.673049e+05
   1.628528e+05   6.359664e+05
  -3.984790e+05   3.129998e+05
  -6.572860e+05  -2.694917e+05
  -2.542857e+05  -5.615840e+05
   4.987106e+05  -3.625365e+05
   8.709756e+05   6.839890e+04
   4.742972e+05   3.691959e+05
  -2.870829e+05   3.981627e+05
  -6.287160e+05   2.311719e+05
  -2.495064e+05   1.996029e+04
   3.357223e+05  -7.232509e+04
   3.995308e+05   5.589101e+04
  -1.600912e+05   2.845388e+05
  -7.235624e+05   2.711511e+05
