
 $NMID
 id='ANONYMOUS ', fmtdat='(2E16.6)'
 volume=1.0
 tramp=1.0
 $END
  -3.332020e+07   1.259577e+06
  -2.179862e+07  -1.780051e+07
   1.694103e+06  -2.213501e+07
   1.521200e+07  -1.155030e+07
   1.093062e+07   1.439180e+06
  -6.131068e+05   5.794080e+06
  -6.273558e+06   1.057738e+06
  -3.326857e+06  -5.565203e+06
   2.603671e+06  -7.236536e+06
   5.918106e+06  -2.638109e+06
   4.810357e+06   3.796567e+06
   7.470415e+05   5.880137e+06
  -2.665288e+06   1.623337e+06
  -2.092313e+06  -4.286418e+06
   1.991546e+06  -5.238892e+06
   5.112163e+06   1.526369e+03
   3.531834e+06   6.177246e+06
  -1.645983e+06   7.662742e+06
  -6.011511e+06   3.944938e+06
  -6.486497e+06  -1.260530e+06
  -3.599401e+06  -4.376987e+06
  -2.365082e+05  -4.480810e+06
   8.991115e+05  -2.971464e+06
  -4.868671e+05  -2.045667e+06
  -1.719080e+06  -2.773435e+06
   2.149610e+05  -3.858848e+06
   4.652462e+06  -2.970331e+06
   7.139169e+06   1.887498e+05
   4.583778e+06   3.083127e+06
  -6.264696e+05   3.264789e+06
  -3.329894e+06   1.121171e+06
  -1.626640e+06  -1.012746e+06
   1.635421e+06  -1.462190e+06
   2.971615e+06  -1.170582e+05
   1.808972e+06   2.082777e+06
  -2.097977e+05   3.409514e+06
  -1.508759e+06   2.253979e+06
  -1.439988e+06  -7.006296e+05
  -3.277924e+05  -2.209378e+06
   4.868047e+05  -2.703076e+05
  -2.628038e+05   2.554375e+06
  -1.868690e+06   2.017219e+06
  -1.910082e+06  -1.763414e+06
   6.301024e+05  -3.870829e+06
   3.412020e+06  -1.075204e+06
   3.122047e+06   3.688508e+06
  -5.719869e+05   5.040116e+06
  -4.465019e+06   1.700422e+06
  -5.103223e+06  -2.665813e+06
  -1.982759e+06  -4.196640e+06
   2.257291e+06  -2.427465e+06
   4.175947e+06   4.777420e+05
   2.380380e+06   2.194022e+06
  -1.194840e+06   1.716359e+06
  -3.012208e+06  -1.867080e+05
  -1.563742e+06  -1.523126e+06
   9.848732e+05  -9.630747e+05
   1.470207e+06   5.856100e+05
  -3.646773e+05   1.037838e+06
  -1.745805e+06  -2.152675e+05
  -5.671946e+05  -1.628357e+06
   2.046466e+06  -1.548842e+06
   3.298046e+06   6.874485e+04
   1.844985e+06   2.159012e+06
  -1.237919e+06   3.604252e+06
  -3.842983e+06   3.401074e+06
  -4.451066e+06   1.040305e+06
  -2.934253e+06  -2.382593e+06
  -5.744686e+05  -4.396330e+06
   9.036171e+05  -3.634495e+06
   9.110483e+05  -1.542859e+06
   4.993515e+05  -5.454502e+05
   9.215319e+05  -9.532425e+05
   1.993342e+06  -9.394685e+05
   2.396014e+06   5.414860e+05
   1.369169e+06   2.169366e+06
  -4.544472e+05   2.034213e+06
  -1.755270e+06   4.903148e+04
  -1.572470e+06  -2.036090e+06
   1.272580e+05  -2.503016e+06
   2.270716e+06  -1.067633e+06
   3.185083e+06   1.165954e+06
   2.044278e+06   2.671030e+06
  -8.730212e+04   2.659545e+06
  -1.328330e+06   1.668278e+06
  -1.231571e+06   8.939578e+05
  -1.198418e+06   8.072439e+05
  -2.308137e+06   6.808020e+05
  -3.542672e+06  -3.525998e+05
  -2.955661e+06  -2.102607e+06
  -2.405918e+05  -3.429999e+06
   2.668754e+06  -3.312274e+06
   3.584432e+06  -1.654767e+06
   2.153296e+06   5.971466e+05
  -5.409879e+04   1.953985e+06
  -1.126271e+06   1.485519e+06
  -4.330819e+05  -1.315169e+05
   9.821925e+05  -1.059629e+06
   1.511300e+06  -3.259893e+05
   6.424701e+05   9.370877e+05
  -5.182624e+05   9.454264e+05
  -5.535068e+05  -2.950825e+05
   5.976585e+05  -9.080809e+05
   1.595812e+06   3.656539e+05
   1.215937e+06   2.454997e+06
  -4.686970e+05   3.201636e+06
  -2.335813e+06   1.771002e+06
  -3.181740e+06  -6.805203e+05
  -2.447951e+06  -2.373396e+06
  -5.771329e+05  -2.431023e+06
   1.108619e+06  -1.292845e+06
   1.389748e+06  -1.546085e+05
   4.179930e+05   2.944906e+04
  -3.254979e+05  -6.240149e+05
   2.505386e+05  -1.067643e+06
   1.457167e+06  -5.203227e+05
   1.670249e+06   5.773289e+05
   4.219840e+05   1.088875e+06
  -9.487283e+05   5.486572e+05
  -8.747808e+05  -3.595707e+05
   6.356718e+05  -6.505650e+05
   2.022869e+06  -2.309119e+03
   1.796551e+06   1.115154e+06
  -2.753010e+04   1.874635e+06
  -1.957544e+06   1.606744e+06
  -2.380956e+06   3.382974e+05
  -1.044300e+06  -9.794476e+05
   6.955592e+05  -1.183504e+06
   1.188524e+06  -1.674500e+05
   1.233062e+05   8.412871e+05
  -1.244602e+06   6.305375e+05
  -1.486511e+06  -5.661077e+05
  -4.354370e+05  -1.383092e+06
   8.137672e+05  -9.699730e+05
   1.111921e+06   9.884485e+04
   3.286310e+05   6.156029e+05
  -6.118289e+05   8.723995e+04
  -6.209868e+05  -8.618930e+05
   4.898445e+05  -1.203012e+06
   1.705644e+06  -4.620528e+05
   1.728349e+06   8.698212e+05
   3.685057e+05   1.733502e+06
  -1.142278e+06   1.423697e+06
  -1.440973e+06   2.610044e+05
  -4.901225e+05  -7.026006e+05
   5.194449e+05  -7.266600e+05
   6.030765e+05  -6.662280e+04
  -4.290030e+04   4.337439e+05
  -5.169913e+05   3.105931e+05
  -3.016777e+05  -9.351728e+04
   2.885818e+05  -1.197734e+05
   5.217512e+05   4.231216e+05
  -4.718260e+04   9.952903e+05
  -1.119590e+06   8.245824e+05
  -1.781932e+06  -2.848811e+05
  -1.285132e+06  -1.613461e+06
   1.339524e+05  -2.094059e+06
   1.364546e+06  -1.328307e+06
   1.535775e+06   3.085241e+03
   8.840319e+05   8.310505e+05
   3.216943e+05   7.526957e+05
   3.023032e+05   2.981606e+05
   4.173220e+05   2.004543e+05
   8.260960e+04   5.648024e+05
  -6.830415e+05   8.164353e+05
  -1.256915e+06   3.845177e+05
  -1.011488e+06  -6.162418e+05
   1.176343e+05  -1.364314e+06
   1.460968e+06  -1.037485e+06
   1.978984e+06   3.397262e+05
   1.081688e+06   1.750869e+06
  -7.110311e+05   2.041297e+06
  -2.077483e+06   1.012334e+06
  -2.077018e+06  -4.052147e+05
  -9.961441e+05  -1.122853e+06
   7.840809e+04  -9.433837e+05
   4.153874e+05  -5.597456e+05
   2.143615e+05  -6.248416e+05
   1.374637e+05  -1.013727e+06
   5.139581e+05  -1.039163e+06
   1.045408e+06  -2.765646e+05
   1.141170e+06   9.050276e+05
   5.017227e+05   1.614600e+06
  -5.173283e+05   1.241468e+06
  -1.111627e+06   4.528372e+04
  -7.531302e+05  -1.033254e+06
   2.247217e+05  -1.197088e+06
   8.978342e+05  -4.692083e+05
   7.036231e+05   4.339665e+05
   2.112065e+04   8.458233e+05
  -3.170466e+05   7.032567e+05
  -1.514214e+04   4.101982e+05
   3.535601e+05   3.033882e+05
   4.482798e+04   3.369312e+05
  -9.339807e+05   2.241049e+05
  -1.711657e+06  -2.092217e+05
  -1.406614e+06  -8.082280e+05
  -7.757907e+04  -1.173563e+06
   1.242916e+06  -9.875700e+05
   1.529685e+06  -3.339172e+05
   7.564549e+05   3.036062e+05
  -1.674857e+05   4.459612e+05
  -4.109459e+05   8.369960e+04
  -7.818768e+03  -2.955255e+05
   4.037933e+05  -2.100849e+05
   4.059732e+05   2.830312e+05
   1.556878e+05   6.300837e+05
   2.103188e+04   4.091476e+05
   1.260363e+05  -1.361068e+05
   2.946377e+05  -3.189260e+05
   2.579270e+05   1.845962e+05
  -1.366766e+05   8.722442e+05
  -7.432405e+05   9.193529e+05
  -1.073525e+06   1.344037e+05
  -6.616678e+05  -7.636813e+05
   3.282644e+05  -9.148007e+05
   1.015623e+06  -2.461628e+05
   6.270025e+05   4.985535e+05
  -5.691880e+05   5.859317e+05
  -1.398014e+06  -8.891034e+03
  -9.803136e+05  -7.043841e+05
   3.247640e+05  -9.238397e+05
   1.301650e+06  -5.453652e+05
   1.132693e+06   8.734936e+04
   1.629832e+05   4.585162e+05
  -5.461591e+05   2.799584e+05
  -3.140848e+05  -2.212996e+05
   5.243153e+05  -4.238164e+05
   1.008397e+06   9.942193e+04
   5.335375e+05   1.025701e+06
  -5.484649e+05   1.443100e+06
  -1.292622e+06   7.395120e+05
  -1.090175e+06  -6.554755e+05
  -1.969494e+05  -1.556959e+06
   6.189235e+05  -1.168376e+06
   8.188822e+05   9.246279e+04
   4.413578e+05   1.019542e+06
  -1.167739e+05   8.795076e+05
  -4.696629e+05   1.093516e+05
  -4.516699e+05  -3.309158e+05
  -1.890681e+05  -1.346046e+05
  -2.370749e+04   9.869115e+04
  -1.838986e+05  -2.138046e+05
  -4.346973e+05  -8.108206e+05
  -2.393045e+05  -9.437325e+05
   5.482792e+05  -3.696714e+05
   1.293373e+06   3.772938e+05
   1.174796e+06   7.037764e+05
   1.806009e+05   5.901832e+05
  -7.742108e+05   3.698359e+05
  -8.659947e+05   1.916931e+05
  -2.776182e+05  -9.547883e+03
   1.387617e+05  -1.912277e+05
  -2.289338e+04  -2.076521e+05
  -2.838251e+05  -1.112398e+05
  -2.472215e+04  -1.164740e+05
   6.246730e+05  -1.895945e+05
   8.960139e+05   9.355498e+03
   3.058427e+05   5.755090e+05
  -7.567674e+05   9.927893e+05
  -1.415622e+06   6.421408e+05
  -1.155738e+06  -3.753716e+05
  -2.371775e+05  -1.216522e+06
   6.253043e+05  -1.182413e+06
   8.937035e+05  -4.451011e+05
   5.747342e+05   2.204003e+05
   9.865925e+04   3.049805e+05
  -1.021685e+05   2.436085e+04
   5.598170e+04  -5.215202e+04
   2.902709e+05   2.993514e+05
   2.458907e+05   6.955528e+05
  -1.544993e+05   5.770116e+05
  -5.967596e+05  -1.292143e+05
  -6.189384e+05  -8.404400e+05
  -6.120246e+04  -8.777223e+05
   6.707274e+05  -1.758059e+05
   8.835187e+05   6.476316e+05
   2.856273e+05   9.288528e+05
  -6.093593e+05   5.591848e+05
  -9.411784e+05  -5.937936e+04
  -4.435734e+05  -4.860777e+05
   2.306248e+05  -5.470364e+05
   2.829613e+05  -3.161809e+05
  -2.535231e+05  -2.392005e+04
  -5.699033e+05   3.590548e+04
  -1.172445e+05  -2.538704e+05
   7.022803e+05  -6.031001e+05
   1.044773e+06  -5.187046e+05
   6.208424e+05   1.052263e+05
  -7.271892e+04   7.336919e+05
  -4.254899e+05   7.321976e+05
  -3.203975e+05   1.195552e+05
  -2.993727e+04  -4.272402e+05
   2.055032e+05  -3.557584e+05
   3.046545e+05   1.584258e+05
   2.214926e+05   4.948058e+05
  -4.611171e+04   3.345173e+05
  -3.345428e+05  -4.889217e+04
  -4.033135e+05  -2.082514e+05
  -2.120062e+05  -5.652271e+04
   1.580321e+04   9.851534e+04
   7.671631e+04  -2.349812e+04
   3.773679e+04  -3.234590e+05
   1.036375e+05  -4.279310e+05
   2.886553e+05  -1.239567e+05
   3.477163e+05   3.592825e+05
   7.912300e+04   5.557313e+05
  -3.641478e+05   2.572228e+05
  -5.500772e+05  -2.532171e+05
  -2.070611e+05  -5.036043e+05
   4.207300e+05  -3.179777e+05
   7.387158e+05   6.686245e+04
   4.072902e+05   3.186224e+05
  -2.450669e+05   3.218329e+05
  -5.345610e+05   1.730087e+05
  -1.864759e+05   1.620945e+04
   3.343279e+05  -3.079902e+04
   3.637530e+05   9.103572e+04
  -1.755028e+05   2.742571e+05
  -6.895695e+05   2.378544e+05
