
 $NMID
 id='ANONYMOUS ', fmtdat='(2E16.6)'
 volume=1.0
 tramp=1.0
 $END
   5.150993e+07   2.583490e+05
   3.099141e+07   3.121380e+07
  -6.359192e+06   3.444314e+07
  -2.480814e+07   1.401568e+07
  -1.519252e+07  -5.543637e+06
   2.650513e+06  -8.475238e+06
   9.004610e+06   5.734798e+05
   3.004124e+06   8.768003e+06
  -5.275398e+06   9.001268e+06
  -8.815997e+06   2.246794e+06
  -6.573637e+06  -5.756946e+06
  -7.963708e+05  -8.144632e+06
   3.797364e+06  -2.478024e+06
   2.618931e+06   5.365410e+06
  -3.335143e+06   6.427268e+06
  -7.293727e+06  -9.977953e+05
  -4.286107e+06  -9.375566e+06
   3.327566e+06  -1.095749e+07
   9.292653e+06  -5.458842e+06
   9.911147e+06   2.011504e+06
   5.858608e+06   6.942222e+06
   4.152760e+05   7.714517e+06
  -2.492611e+06   5.216570e+06
  -1.112376e+06   2.470617e+06
   1.510598e+06   2.442123e+06
   1.714628e+05   4.369562e+06
  -5.505993e+06   4.224608e+06
  -9.420791e+06   2.809757e+05
  -6.605369e+06  -4.070452e+06
   1.003915e+05  -4.803660e+06
   3.891043e+06  -2.254324e+06
   2.414462e+06   3.811394e+05
  -9.570795e+05   1.295505e+06
  -2.702830e+06   5.015203e+05
  -2.288219e+06  -1.738096e+06
  -4.600264e+05  -4.051480e+06
   1.854072e+06  -3.535554e+06
   2.836603e+06   4.061473e+05
   1.275461e+06   3.430646e+06
  -8.201713e+05   1.438983e+06
  -2.098829e+05  -2.700597e+06
   2.375759e+06  -2.359465e+06
   2.358666e+06   2.870492e+06
  -1.987675e+06   5.611170e+06
  -6.085408e+06   9.576375e+05
  -4.604898e+06  -6.257017e+06
   1.654087e+06  -7.746770e+06
   6.842094e+06  -2.230753e+06
   6.685684e+06   4.094447e+06
   1.998313e+06   5.708007e+06
  -3.225832e+06   2.759135e+06
  -5.156757e+06  -1.221428e+06
  -2.532571e+06  -3.192292e+06
   2.125739e+06  -2.108123e+06
   4.227620e+06   7.488311e+05
   1.888599e+06   2.450385e+06
  -1.571441e+06   1.282855e+06
  -1.739277e+06  -9.199586e+05
   1.032241e+06  -9.699143e+05
   2.281651e+06   1.314362e+06
  -3.020021e+05   2.917922e+06
  -3.974973e+06   1.784961e+06
  -4.838305e+06  -1.021359e+06
  -2.234419e+06  -3.559529e+06
   1.734269e+06  -4.999708e+06
   4.924997e+06  -4.654130e+06
   5.987955e+06  -1.598138e+06
   4.288891e+06   3.119635e+06
   8.593449e+05   5.941623e+06
  -1.622380e+06   4.630934e+06
  -1.508899e+06   1.388710e+06
  -2.321144e+05   6.047385e+04
  -3.007363e+05   1.122625e+06
  -1.895371e+06   1.670883e+06
  -2.919609e+06  -6.415097e+03
  -1.988729e+06  -2.167770e+06
   1.154894e+05  -2.295490e+06
   1.748619e+06  -2.103931e+05
   1.798651e+06   2.182942e+06
  -1.880809e+04   2.992637e+06
  -2.790304e+06   1.571208e+06
  -4.330785e+06  -1.273185e+06
  -3.001943e+06  -3.642955e+06
   9.402492e+04  -3.944583e+06
   2.108726e+06  -2.490272e+06
   2.011074e+06  -1.094518e+06
   1.701926e+06  -7.657656e+05
   2.891403e+06  -5.997521e+05
   4.345443e+06   6.373158e+05
   3.544131e+06   2.688684e+06
   2.091672e+05   4.156033e+06
  -3.206203e+06   3.989549e+06
  -4.251167e+06   2.142206e+06
  -2.686017e+06  -5.026818e+05
  -1.979068e+05  -2.315348e+06
   1.185788e+06  -1.932539e+06
   5.637972e+05   7.541349e+04
  -1.124363e+06   1.326656e+06
  -1.899713e+06   4.041799e+05
  -8.873505e+05  -1.200518e+06
   5.493483e+05  -1.141017e+06
   5.042528e+05   3.691498e+05
  -9.466250e+05   8.071300e+05
  -1.849792e+06  -1.033894e+06
  -8.833226e+05  -3.305378e+06
   1.250946e+06  -3.517511e+06
   2.998426e+06  -1.424590e+06
   3.462572e+06   1.215659e+06
   2.520435e+06   2.755886e+06
   5.679531e+05   2.711885e+06
  -1.265231e+06   1.522450e+06
  -1.623951e+06   2.349771e+05
  -5.003907e+05  -3.936896e+04
   3.764458e+05   7.583970e+05
  -3.846833e+05   1.338086e+06
  -1.883438e+06   5.990560e+05
  -2.044758e+06  -8.374418e+05
  -4.219678e+05  -1.396640e+06
   1.174187e+06  -6.068373e+05
   9.492683e+05   4.433578e+05
  -8.182694e+05   6.033590e+05
  -2.263377e+06  -2.033548e+05
  -1.892135e+06  -1.332847e+06
   1.614385e+05  -2.064135e+06
   2.323995e+06  -1.770659e+06
   2.824848e+06  -3.361297e+05
   1.244275e+06   1.249038e+06
  -9.069067e+05   1.499762e+06
  -1.543360e+06   1.939573e+05
  -1.891248e+05  -1.080380e+06
   1.528803e+06  -7.600343e+05
   1.759166e+06   7.526044e+05
   4.004532e+05   1.664881e+06
  -1.060920e+06   1.038282e+06
  -1.285342e+06  -2.556752e+05
  -2.876455e+05  -7.729456e+05
   7.928914e+05  -6.932149e+04
   7.587885e+05   1.062424e+06
  -5.774469e+05   1.460023e+06
  -2.047165e+06   5.724600e+05
  -2.085707e+06  -1.048784e+06
  -4.189270e+05  -2.102631e+06
   1.429768e+06  -1.689363e+06
   1.744245e+06  -2.496379e+05
   5.329286e+05   8.675233e+05
  -6.529194e+05   8.341688e+05
  -6.667666e+05   8.576221e+04
   9.152251e+04  -4.071803e+05
   5.230301e+05  -2.678910e+05
   1.927400e+05   6.288277e+04
  -4.138302e+05  -2.176975e+04
  -5.489331e+05  -6.271147e+05
   1.605164e+05  -1.199082e+06
   1.380942e+06  -9.420256e+05
   2.127847e+06   3.829228e+05
   1.521898e+06   1.956616e+06
  -1.822821e+05   2.479600e+06
  -1.623574e+06   1.492616e+06
  -1.746458e+06  -7.482230e+04
  -9.343830e+05  -9.150641e+05
  -3.604479e+05  -7.177897e+05
  -4.661807e+05  -2.612032e+05
  -6.028922e+05  -3.022434e+05
  -9.637026e+04  -7.519749e+05
   8.613827e+05  -9.384192e+05
   1.473783e+06  -3.817447e+05
   1.115400e+06   7.168844e+05
  -2.018919e+05   1.522029e+06
  -1.736628e+06   1.149320e+06
  -2.314209e+06  -4.460696e+05
  -1.208452e+06  -2.114852e+06
   9.642019e+05  -2.421717e+06
   2.550919e+06  -1.108354e+06
   2.416060e+06   6.008562e+05
   1.040111e+06   1.339556e+06
  -1.626321e+05   1.001174e+06
  -4.082326e+05   5.685325e+05
  -1.187326e+05   7.762179e+05
  -1.164257e+05   1.309046e+06
  -6.604657e+05   1.299440e+06
  -1.300873e+06   3.341790e+05
  -1.375342e+06  -1.086342e+06
  -5.941625e+05  -1.927932e+06
   6.171969e+05  -1.477568e+06
   1.314595e+06  -2.409207e+04
   8.546873e+05   1.281389e+06
  -3.539506e+05   1.423317e+06
  -1.147270e+06   4.538993e+05
  -8.265239e+05  -6.567435e+05
   8.420176e+04  -1.069478e+06
   4.973006e+05  -8.041884e+05
   6.257582e+04  -4.372451e+05
  -4.428528e+05  -3.437910e+05
  -6.481743e+04  -3.937908e+05
   1.154274e+06  -2.360540e+05
   2.091722e+06   3.003845e+05
   1.664729e+06   1.019431e+06
   2.730684e+03   1.444607e+06
  -1.579631e+06   1.177034e+06
  -1.851951e+06   3.260058e+05
  -8.604475e+05  -4.606376e+05
   2.481242e+05  -5.688042e+05
   5.110100e+05  -5.335824e+04
   2.678459e+04   4.127383e+05
  -4.562483e+05   2.675788e+05
  -4.933192e+05  -3.413283e+05
  -2.522063e+05  -7.428188e+05
  -8.741470e+04  -4.926551e+05
  -1.370433e+05   1.138685e+05
  -2.921000e+05   3.251130e+05
  -2.905128e+05  -2.282675e+05
   1.335281e+05  -1.019047e+06
   8.994680e+05  -1.101987e+06
   1.369097e+06  -1.860424e+05
   8.647253e+05   9.247450e+05
  -4.079059e+05   1.153528e+06
  -1.269728e+06   3.461647e+05
  -7.576996e+05  -5.784323e+05
   6.999665e+05  -6.762854e+05
   1.628497e+06   5.905982e+04
   1.064211e+06   8.537250e+05
  -4.564054e+05   1.028384e+06
  -1.521257e+06   5.398692e+05
  -1.275504e+06  -1.577482e+05
  -1.554493e+05  -5.250108e+05
   6.559092e+05  -2.932001e+05
   3.917364e+05   2.911719e+05
  -5.985540e+05   5.399013e+05
  -1.213979e+06  -7.242038e+04
  -6.976555e+05  -1.205337e+06
   5.875470e+05  -1.752521e+06
   1.511099e+06  -9.275633e+05
   1.300644e+06   7.565375e+05
   2.403764e+05   1.833947e+06
  -7.321519e+05   1.345894e+06
  -9.507816e+05  -1.555240e+05
  -4.710265e+05  -1.209638e+06
   1.964396e+05  -9.992155e+05
   5.708344e+05  -9.957489e+04
   4.917688e+05   3.774377e+05
   1.777865e+05   1.376955e+05
   4.482944e+04  -9.924675e+04
   2.812113e+05   2.971389e+05
   5.358676e+05   9.804410e+05
   2.232071e+05   1.099605e+06
  -7.160874e+05   4.153145e+05
  -1.521200e+06  -4.483075e+05
  -1.333821e+06  -8.298546e+05
  -2.032800e+05  -7.104642e+05
   8.710767e+05  -4.486184e+05
   1.005712e+06  -2.087617e+05
   3.653899e+05   4.694671e+04
  -1.467514e+05   2.344438e+05
  -2.621526e+04   2.094119e+05
   2.803948e+05   9.026127e+04
   5.376910e+04   1.376258e+05
  -6.791518e+05   2.585643e+05
  -1.074641e+06   8.655797e+03
  -4.531283e+05  -7.056836e+05
   8.432349e+05  -1.227265e+06
   1.727828e+06  -8.074830e+05
   1.455614e+06   4.175718e+05
   3.125953e+05   1.437869e+06
  -7.574381e+05   1.426273e+06
  -1.067447e+06   5.744133e+05
  -6.802120e+05  -2.240589e+05
  -1.448969e+05  -3.666884e+05
   7.388184e+04  -7.249444e+04
  -8.014268e+04   1.851803e+04
  -3.157255e+05  -3.689374e+05
  -2.714136e+05  -8.228279e+05
   1.699740e+05  -7.018445e+05
   7.044211e+05   1.077685e+05
   7.829040e+05   9.609623e+05
   1.434533e+05   1.059456e+06
  -7.690803e+05   2.754614e+05
  -1.082364e+06  -7.140178e+05
  -3.846245e+05  -1.111592e+06
   7.173471e+05  -7.143161e+05
   1.151450e+06   5.061632e+04
   5.592071e+05   6.190058e+05
  -2.813572e+05   7.047522e+05
  -3.833250e+05   3.844949e+05
   2.526274e+05  -6.128726e+02
   6.652946e+05  -5.742177e+04
   1.581710e+05   3.138477e+05
  -8.303490e+05   7.156707e+05
  -1.278990e+06   5.795018e+05
  -7.863202e+05  -1.688738e+05
   7.899306e+04  -8.954043e+05
   5.494682e+05  -8.900902e+05
   4.377333e+05  -1.757004e+05
   6.987609e+04   4.904579e+05
  -2.354934e+05   4.550106e+05
  -3.673426e+05  -1.388714e+05
  -2.757926e+05  -5.862709e+05
   4.491523e+04  -4.433416e+05
   4.036047e+05   3.469743e+04
   4.942353e+05   2.793420e+05
   2.494887e+05   9.493214e+04
  -3.862774e+04  -1.572614e+05
  -8.169895e+04  -4.795267e+04
   2.778599e+04   3.638435e+05
  -3.302277e+04   5.748847e+05
  -3.241181e+05   2.407688e+05
  -4.881071e+05  -3.762916e+05
  -1.850262e+05  -6.646235e+05
   4.099215e+05  -3.368721e+05
   6.937448e+05   2.682468e+05
   2.789915e+05   5.815407e+05
  -5.128811e+05   3.883865e+05
  -9.116897e+05  -5.382057e+04
  -5.030098e+05  -3.757023e+05
   2.930234e+05  -4.218927e+05
   6.535135e+05  -2.543147e+05
   2.604489e+05  -2.409248e+04
  -3.505270e+05   8.596801e+04
  -4.208070e+05  -4.810149e+04
   1.587280e+05  -3.024554e+05
   7.483824e+05  -3.025589e+05
