
 $NMID
 id='ANONYMOUS ', fmtdat='(2E16.6)'
 volume=1.0
 tramp=1.0
 $END
  -4.477051e+07   2.043205e+06
  -2.905560e+07  -2.507604e+07
   3.154943e+06  -3.029968e+07
   2.101680e+07  -1.434703e+07
   1.428375e+07   3.371314e+06
  -1.478951e+06   7.789923e+06
  -8.292615e+06   4.999325e+05
  -3.648474e+06  -7.664617e+06
   4.078900e+06  -8.863560e+06
   7.880241e+06  -2.825302e+06
   6.163554e+06   4.927663e+06
   9.579000e+05   7.416176e+06
  -3.341893e+06   2.248345e+06
  -2.521025e+06  -5.072207e+06
   2.779318e+06  -6.277332e+06
   6.659719e+06   3.663167e+05
   4.367195e+06   8.178036e+06
  -2.399664e+06   9.970173e+06
  -7.966766e+06   5.201175e+06
  -8.681875e+06  -1.463147e+06
  -5.175650e+06  -5.752995e+06
  -6.425005e+05  -6.380598e+06
   1.554644e+06  -4.487205e+06
   3.175933e+05  -2.620725e+06
  -1.571016e+06  -2.844457e+06
   7.809514e+04  -4.277455e+06
   5.269040e+06  -3.758553e+06
   8.648363e+06  -1.452043e+05
   5.938714e+06   3.623161e+06
  -2.643870e+05   4.159832e+06
  -3.682426e+06   1.759986e+06
  -2.011261e+06  -6.798693e+05
   1.446617e+06  -1.320007e+06
   2.958525e+06  -1.909369e+05
   2.047574e+06   2.030301e+06
   9.609028e+04   3.852207e+06
  -1.678944e+06   3.045011e+06
  -2.186575e+06  -4.485775e+05
  -9.369110e+05  -2.846045e+06
   5.317940e+05  -9.142803e+05
  -9.471519e+04   2.703246e+06
  -2.253134e+06   2.317904e+06
  -2.354362e+06  -2.429943e+06
   1.231323e+06  -5.150691e+06
   5.018848e+06  -1.343191e+06
   4.300498e+06   5.095841e+06
  -9.347923e+05   6.835078e+06
  -5.909350e+06   2.257850e+06
  -6.316258e+06  -3.483234e+06
  -2.184005e+06  -5.268125e+06
   2.910193e+06  -2.807149e+06
   5.009579e+06   8.741822e+05
   2.674891e+06   2.891051e+06
  -1.732662e+06   2.123811e+06
  -3.885585e+06  -3.998633e+05
  -1.914586e+06  -2.092588e+06
   1.321383e+06  -1.242425e+06
   1.727803e+06   7.966851e+05
  -7.605347e+05   1.151753e+06
  -2.269580e+06  -7.612132e+05
  -2.953265e+05  -2.516960e+06
   3.158653e+06  -1.962922e+06
   4.405680e+06   4.498648e+05
   2.275671e+06   3.003906e+06
  -1.490556e+06   4.552217e+06
  -4.559101e+06   4.260345e+06
  -5.450841e+06   1.452496e+06
  -3.821488e+06  -2.805542e+06
  -8.280354e+05  -5.423734e+06
   1.302480e+06  -4.431494e+06
   1.348030e+06  -1.610381e+06
   4.856469e+05  -2.717212e+05
   6.652591e+05  -9.718120e+05
   1.979856e+06  -1.288122e+06
   2.706541e+06   2.985682e+05
   1.700699e+06   2.247916e+06
  -3.287039e+05   2.227665e+06
  -1.832621e+06   8.605226e+04
  -1.741724e+06  -2.242887e+06
   8.483988e+04  -2.881623e+06
   2.631340e+06  -1.391521e+06
   3.934939e+06   1.229853e+06
   2.701988e+06   3.257698e+06
  -5.152646e+03   3.470167e+06
  -1.747152e+06   2.248378e+06
  -1.704464e+06   1.112643e+06
  -1.555956e+06   8.614301e+05
  -2.768725e+06   6.849361e+05
  -4.181210e+06  -5.205350e+05
  -3.439461e+06  -2.535497e+06
  -2.317738e+05  -4.008617e+06
   3.105931e+06  -3.837107e+06
   4.116695e+06  -1.979353e+06
   2.520965e+06   5.744135e+05
   6.346302e+04   2.215216e+06
  -1.206555e+06   1.778240e+06
  -5.171459e+05  -1.011638e+05
   1.103354e+06  -1.248748e+06
   1.796554e+06  -3.979647e+05
   8.168694e+05   1.110646e+06
  -5.621619e+05   1.095075e+06
  -5.632455e+05  -3.664229e+05
   8.453421e+05  -9.382751e+05
   1.892232e+06   7.373557e+05
   1.156411e+06   3.111031e+06
  -9.483740e+05   3.641191e+06
  -2.909911e+06   1.715188e+06
  -3.562136e+06  -1.055469e+06
  -2.606646e+06  -2.774080e+06
  -5.687841e+05  -2.734226e+06
   1.263166e+06  -1.471342e+06
   1.586040e+06  -1.937382e+05
   4.862099e+05   3.848986e+04
  -3.707168e+05  -7.295080e+05
   3.256207e+05  -1.276964e+06
   1.761393e+06  -6.072020e+05
   1.977819e+06   7.381180e+05
   4.617724e+05   1.319693e+06
  -1.121063e+06   6.158123e+05
  -9.628261e+05  -4.325076e+05
   7.872073e+05  -6.643836e+05
   2.284705e+06   1.321974e+05
   1.942033e+06   1.330177e+06
  -1.280348e+05   2.094735e+06
  -2.283052e+06   1.772934e+06
  -2.756651e+06   3.453226e+05
  -1.216412e+06  -1.178390e+06
   8.347366e+05  -1.423147e+06
   1.441030e+06  -2.057412e+05
   1.743966e+05   1.005736e+06
  -1.460631e+06   7.357814e+05
  -1.720506e+06  -6.994667e+05
  -4.424682e+05  -1.624580e+06
   1.004169e+06  -1.073058e+06
   1.283737e+06   1.898433e+05
   3.344477e+05   7.438767e+05
  -7.380698e+05   9.035947e+04
  -7.243622e+05  -1.009044e+06
   5.635822e+05  -1.394964e+06
   1.973819e+06  -5.367236e+05
   2.005833e+06   1.015150e+06
   4.129452e+05   2.025566e+06
  -1.361897e+06   1.646730e+06
  -1.690779e+06   2.696274e+05
  -5.459972e+05  -8.359225e+05
   6.213157e+05  -8.283355e+05
   6.699701e+05  -7.516328e+04
  -8.314302e+04   4.465446e+05
  -5.605115e+05   2.911306e+05
  -2.542924e+05  -1.041900e+05
   3.903866e+05  -5.848874e+04
   5.764861e+05   5.653600e+05
  -1.137085e+05   1.168285e+06
  -1.326946e+06   9.296846e+05
  -2.063396e+06  -3.607842e+05
  -1.474731e+06  -1.888974e+06
   1.792447e+05  -2.414545e+06
   1.594352e+06  -1.483469e+06
   1.743122e+06   5.813251e+04
   9.493644e+05   9.445393e+05
   3.341213e+05   7.869615e+05
   3.883716e+05   2.872416e+05
   5.400483e+05   2.537414e+05
   9.777586e+04   6.934066e+05
  -8.249516e+05   9.259138e+05
  -1.451903e+06   3.912436e+05
  -1.114612e+06  -7.232312e+05
   1.906888e+05  -1.530039e+06
   1.702710e+06  -1.143034e+06
   2.266072e+06   4.308389e+05
   1.202884e+06   2.051633e+06
  -8.912262e+05   2.362412e+06
  -2.454626e+06   1.119219e+06
  -2.383296e+06  -5.445435e+05
  -1.072902e+06  -1.321195e+06
   1.448030e+05  -1.036683e+06
   4.517928e+05  -5.846473e+05
   1.789904e+05  -7.201506e+05
   1.282382e+05  -1.216038e+06
   6.159486e+05  -1.235057e+06
   1.236423e+06  -3.232869e+05
   1.322625e+06   1.053601e+06
   5.702877e+05   1.870398e+06
  -6.041493e+05   1.431212e+06
  -1.282698e+06   3.132274e+04
  -8.493643e+05  -1.227145e+06
   3.089695e+05  -1.390554e+06
   1.090340e+06  -4.943203e+05
   8.206287e+05   5.759413e+05
  -2.742130e+04   1.020481e+06
  -4.328554e+05   8.075594e+05
  -4.724105e+04   4.539612e+05
   4.149845e+05   3.426191e+05
   5.338038e+04   3.849782e+05
  -1.105037e+06   2.418030e+05
  -2.007556e+06  -2.722553e+05
  -1.620983e+06  -9.708463e+05
  -4.446709e+04  -1.388309e+06
   1.489692e+06  -1.145229e+06
   1.792114e+06  -3.460624e+05
   8.636837e+05   4.077429e+05
  -2.161349e+05   5.382319e+05
  -4.912530e+05   7.343631e+04
  -2.150955e+04  -3.705357e+05
   4.555124e+05  -2.464446e+05
   4.733751e+05   3.314932e+05
   2.077580e+05   7.190023e+05
   5.323766e+04   4.691103e+05
   1.460251e+05  -1.306795e+05
   3.188654e+05  -3.319351e+05
   2.872088e+05   2.216371e+05
  -1.530543e+05   9.929381e+05
  -8.703735e+05   1.060588e+06
  -1.281291e+06   1.701646e+05
  -7.982500e+05  -8.853654e+05
   3.863502e+05  -1.087703e+06
   1.199000e+06  -3.103458e+05
   7.253396e+05   5.716739e+05
  -6.750058e+05   6.657188e+05
  -1.603512e+06  -4.691022e+04
  -1.079276e+06  -8.391192e+05
   4.237099e+05  -1.038056e+06
   1.505476e+06  -5.650262e+05
   1.277835e+06   1.422674e+05
   1.643651e+05   5.245842e+05
  -6.392448e+05   3.014483e+05
  -3.731220e+05  -2.683732e+05
   5.912354e+05  -5.006004e+05
   1.165460e+06   9.661248e+04
   6.391897e+05   1.173461e+06
  -6.065680e+05   1.674154e+06
  -1.479770e+06   8.670449e+05
  -1.254965e+06  -7.523233e+05
  -2.188597e+05  -1.790456e+06
   7.249595e+05  -1.323714e+06
   9.384307e+05   1.367700e+05
   4.764052e+05   1.184043e+06
  -1.730920e+05   9.973670e+05
  -5.515081e+05   1.094369e+05
  -4.951868e+05  -3.814367e+05
  -1.920798e+05  -1.500557e+05
  -3.792088e+04   1.070379e+05
  -2.459746e+05  -2.621585e+05
  -5.082149e+05  -9.446437e+05
  -2.387306e+05  -1.086570e+06
   6.690679e+05  -4.185508e+05
   1.483198e+06   4.451466e+05
   1.320717e+06   8.232443e+05
   1.998081e+05   6.881557e+05
  -8.715350e+05   4.213244e+05
  -9.914462e+05   2.039643e+05
  -3.414109e+05  -2.665942e+04
   1.517053e+05  -2.219284e+05
   5.063699e+03  -2.276046e+05
  -2.941849e+05  -1.155580e+05
  -3.922257e+04  -1.311063e+05
   6.877509e+05  -2.241958e+05
   1.036578e+06   5.641567e+03
   3.954132e+05   6.673932e+05
  -8.473416e+05   1.158748e+06
  -1.655805e+06   7.588597e+05
  -1.368976e+06  -4.183478e+05
  -2.801134e+05  -1.398889e+06
   7.342646e+05  -1.372339e+06
   1.032037e+06  -5.303805e+05
   6.561472e+05   2.397738e+05
   1.256607e+05   3.513575e+05
  -9.021012e+04   4.356659e+04
   7.610634e+04  -3.993699e+04
   3.200530e+05   3.566734e+05
   2.690251e+05   8.042131e+05
  -1.730557e+05   6.713263e+05
  -6.805675e+05  -1.306149e+05
  -7.285986e+05  -9.501954e+05
  -1.017215e+05  -1.014288e+06
   7.548320e+05  -2.285741e+05
   1.026105e+06   7.226497e+05
   3.466939e+05   1.073265e+06
  -6.986021e+05   6.651467e+05
  -1.099901e+06  -6.149737e+04
  -5.285241e+05  -5.805397e+05
   2.675359e+05  -6.569297e+05
   3.501638e+05  -3.720914e+05
  -2.661940e+05  -2.027570e+04
  -6.507285e+05   4.352641e+04
  -1.440377e+05  -2.979048e+05
   8.125152e+05  -6.909166e+05
   1.231316e+06  -5.781758e+05
   7.443007e+05   1.417447e+05
  -8.241312e+04   8.573317e+05
  -5.151503e+05   8.568379e+05
  -3.950104e+05   1.580879e+05
  -4.672697e+04  -4.815706e+05
   2.320650e+05  -4.241173e+05
   3.482392e+05   1.603296e+05
   2.584628e+05   5.704813e+05
  -4.585577e+04   4.071818e+05
  -3.864588e+05  -4.643477e+04
  -4.749107e+05  -2.568648e+05
  -2.461095e+05  -8.043423e+04
   3.142591e+04   1.312621e+05
   9.188660e+04   1.128852e+04
   1.224773e+04  -3.556927e+05
   7.156918e+04  -5.165184e+05
   3.152933e+05  -1.849663e+05
   4.305338e+05   3.846160e+05
   1.325749e+05   6.348176e+05
  -4.077352e+05   3.074339e+05
  -6.494878e+05  -2.758628e+05
  -2.500105e+05  -5.709907e+05
   4.929066e+05  -3.707246e+05
   8.660982e+05   6.589870e+04
   4.771305e+05   3.669383e+05
  -2.816587e+05   3.894649e+05
  -6.221392e+05   2.221673e+05
  -2.340464e+05   2.387995e+04
   3.581481e+05  -5.298188e+04
   4.077387e+05   7.905404e+04
  -1.822309e+05   2.990215e+05
  -7.608069e+05   2.728350e+05
