
 $NMID
 id='ANONYMOUS ', fmtdat='(2E16.6)'
 volume=1.0
 tramp=1.0
 $END
  -4.192319e+07   7.044404e+05
  -2.635890e+07  -2.386396e+07
   3.614324e+06  -2.795396e+07
   1.966836e+07  -1.302920e+07
   1.310514e+07   3.129663e+06
  -1.427726e+06   7.130601e+06
  -7.625932e+06   4.870674e+05
  -3.363822e+06  -7.065357e+06
   3.754134e+06  -8.262406e+06
   7.322501e+06  -2.611734e+06
   5.732990e+06   4.741238e+06
   8.075790e+05   7.050725e+06
  -3.239794e+06   2.049993e+06
  -2.410603e+06  -4.892933e+06
   2.598678e+06  -5.937438e+06
   6.193893e+06   3.962278e+05
   3.974408e+06   7.712603e+06
  -2.401582e+06   9.293196e+06
  -7.586318e+06   4.697846e+06
  -8.123930e+06  -1.632440e+06
  -4.639984e+06  -5.593239e+06
  -3.083776e+05  -5.957159e+06
   1.576127e+06  -3.990407e+06
   1.355911e+05  -2.305393e+06
  -1.700384e+06  -2.760639e+06
   7.245661e+04  -4.221361e+06
   5.184205e+06  -3.593476e+06
   8.349296e+06   3.889081e+03
   5.594317e+06   3.602750e+06
  -4.293298e+05   4.025022e+06
  -3.690713e+06   1.635988e+06
  -2.014084e+06  -7.974587e+05
   1.433489e+06  -1.461368e+06
   2.995334e+06  -2.725171e+05
   2.076510e+06   2.050309e+06
   3.702862e+04   3.826211e+06
  -1.724747e+06   2.861500e+06
  -2.065391e+06  -6.213058e+05
  -7.208832e+05  -2.792793e+06
   6.392106e+05  -7.436732e+05
  -8.783807e+04   2.721942e+06
  -2.152469e+06   2.235503e+06
  -2.174975e+06  -2.279297e+06
   1.187122e+06  -4.723606e+06
   4.609742e+06  -1.075714e+06
   3.840347e+06   4.853501e+06
  -1.021123e+06   6.315189e+06
  -5.589487e+06   1.979224e+06
  -5.941663e+06  -3.341279e+06
  -2.072244e+06  -4.972721e+06
   2.736411e+06  -2.667904e+06
   4.746101e+06   7.890663e+05
   2.551035e+06   2.691275e+06
  -1.609012e+06   1.960726e+06
  -3.628265e+06  -4.081027e+05
  -1.772051e+06  -1.959784e+06
   1.253765e+06  -1.140056e+06
   1.646516e+06   7.416371e+05
  -6.368579e+05   1.063113e+06
  -2.036400e+06  -6.515438e+05
  -2.590462e+05  -2.206147e+06
   2.890429e+06  -1.708724e+06
   4.049004e+06   4.505859e+05
   2.075743e+06   2.807227e+06
  -1.497421e+06   4.306577e+06
  -4.446173e+06   4.032874e+06
  -5.252343e+06   1.296142e+06
  -3.592148e+06  -2.782494e+06
  -7.072763e+05  -5.201543e+06
   1.232531e+06  -4.190575e+06
   1.196781e+06  -1.550624e+06
   4.254308e+05  -3.720845e+05
   7.178540e+05  -1.052145e+06
   2.034253e+06  -1.263970e+06
   2.701046e+06   3.518009e+05
   1.675114e+06   2.259937e+06
  -3.353578e+05   2.228044e+06
  -1.828300e+06   1.210389e+05
  -1.734109e+06  -2.179127e+06
   8.682898e+04  -2.806792e+06
   2.574610e+06  -1.314899e+06
   3.775934e+06   1.261269e+06
   2.508116e+06   3.175504e+06
  -9.938571e+04   3.283717e+06
  -1.699687e+06   2.061269e+06
  -1.596328e+06   1.006169e+06
  -1.449541e+06   8.213917e+05
  -2.635133e+06   6.742031e+05
  -4.007396e+06  -4.850492e+05
  -3.310914e+06  -2.427602e+06
  -2.362787e+05  -3.862217e+06
   2.996730e+06  -3.717025e+06
   4.003363e+06  -1.915775e+06
   2.458711e+06   5.844487e+05
   4.474954e+04   2.180982e+06
  -1.199454e+06   1.730608e+06
  -5.073284e+05  -1.106364e+05
   1.076994e+06  -1.212489e+06
   1.730107e+06  -3.764770e+05
   7.711599e+05   1.080541e+06
  -5.491463e+05   1.069899e+06
  -5.595495e+05  -3.298911e+05
   7.545158e+05  -9.066220e+05
   1.758188e+06   6.409618e+05
   1.134486e+06   2.893240e+06
  -7.967540e+05   3.463580e+06
  -2.696761e+06   1.708959e+06
  -3.429469e+06  -9.250523e+05
  -2.581713e+06  -2.629987e+06
  -5.967481e+05  -2.646917e+06
   1.220883e+06  -1.437871e+06
   1.544741e+06  -1.922091e+05
   4.699998e+05   3.552305e+04
  -3.604819e+05  -7.018644e+05
   3.112004e+05  -1.219012e+06
   1.685538e+06  -5.759558e+05
   1.891450e+06   7.002928e+05
   4.461786e+05   1.255126e+06
  -1.072328e+06   5.987452e+05
  -9.407159e+05  -4.011802e+05
   7.303460e+05  -6.545133e+05
   2.198588e+06   7.985996e+04
   1.908456e+06   1.246893e+06
  -8.107834e+04   2.027492e+06
  -2.185325e+06   1.739369e+06
  -2.659447e+06   3.519225e+05
  -1.170445e+06  -1.128455e+06
   8.075803e+05  -1.361046e+06
   1.380918e+06  -1.874138e+05
   1.575542e+05   9.709687e+05
  -1.408018e+06   7.101789e+05
  -1.658489e+06  -6.618367e+05
  -4.433364e+05  -1.553409e+06
   9.434034e+05  -1.041486e+06
   1.228589e+06   1.603029e+05
   3.313373e+05   7.009248e+05
  -7.030190e+05   8.480770e+04
  -6.979022e+05  -9.732366e+05
   5.449896e+05  -1.350364e+06
   1.910273e+06  -5.220431e+05
   1.940787e+06   9.781893e+05
   4.035858e+05   1.952945e+06
  -1.304982e+06   1.590079e+06
  -1.624812e+06   2.691483e+05
  -5.324035e+05  -7.974168e+05
   5.909152e+05  -8.025457e+05
   6.543099e+05  -8.150672e+04
  -6.001364e+04   4.378790e+05
  -5.368684e+05   3.064601e+05
  -2.695865e+05  -8.214198e+04
   3.484224e+05  -6.469047e+04
   5.504274e+05   5.232806e+05
  -9.760150e+04   1.115798e+06
  -1.271188e+06   9.020326e+05
  -1.992206e+06  -3.385805e+05
  -1.430218e+06  -1.818877e+06
   1.609905e+05  -2.336378e+06
   1.526351e+06  -1.450683e+06
   1.686213e+06   3.200459e+04
   9.442057e+05   9.024849e+05
   3.526467e+05   7.753807e+05
   3.791331e+05   3.004800e+05
   5.044945e+05   2.518462e+05
   8.641416e+04   6.627569e+05
  -7.860888e+05   8.959850e+05
  -1.396103e+06   3.943712e+05
  -1.092591e+06  -6.859047e+05
   1.592883e+05  -1.483598e+06
   1.632981e+06  -1.121340e+06
   2.193736e+06   3.993686e+05
   1.175429e+06   1.968140e+06
  -8.416454e+05   2.274995e+06
  -2.351508e+06   1.091193e+06
  -2.298722e+06  -4.993484e+05
  -1.057427e+06  -1.255210e+06
   1.131046e+05  -1.006826e+06
   4.306224e+05  -5.890120e+05
   1.887138e+05  -7.131171e+05
   1.384617e+05  -1.173956e+06
   5.956056e+05  -1.185029e+06
   1.190915e+06  -3.091711e+05
   1.281243e+06   1.016741e+06
   5.581855e+05   1.807723e+06
  -5.796621e+05   1.387534e+06
  -1.238483e+06   3.899656e+04
  -8.237665e+05  -1.174208e+06
   2.853946e+05  -1.335712e+06
   1.031795e+06  -4.821346e+05
   7.785285e+05   5.392400e+05
  -2.059218e+04   9.669368e+05
  -3.997940e+05   7.703065e+05
  -3.276343e+04   4.386842e+05
   4.031063e+05   3.349682e+05
   5.285396e+04   3.747948e+05
  -1.060542e+06   2.352285e+05
  -1.932087e+06  -2.588017e+05
  -1.565850e+06  -9.271599e+05
  -5.038825e+04  -1.326933e+06
   1.428374e+06  -1.100185e+06
   1.720939e+06  -3.442317e+05
   8.280749e+05   3.763754e+05
  -2.076602e+05   5.114170e+05
  -4.668638e+05   7.444937e+04
  -1.207128e+04  -3.549613e+05
   4.449637e+05  -2.417543e+05
   4.578447e+05   3.202108e+05
   1.979609e+05   7.051714e+05
   4.620851e+04   4.618920e+05
   1.356657e+05  -1.335687e+05
   3.059389e+05  -3.358460e+05
   2.792630e+05   2.104673e+05
  -1.450101e+05   9.676569e+05
  -8.384467e+05   1.027013e+06
  -1.234251e+06   1.542207e+05
  -7.660671e+05  -8.632411e+05
   3.772858e+05  -1.045591e+06
   1.160846e+06  -2.910868e+05
   7.051253e+05   5.539471e+05
  -6.460411e+05   6.459182e+05
  -1.549509e+06  -3.012633e+04
  -1.055951e+06  -7.930999e+05
   3.899206e+05  -1.004047e+06
   1.443431e+06  -5.669996e+05
   1.237519e+06   1.179929e+05
   1.676329e+05   5.041048e+05
  -6.117708e+05   2.972909e+05
  -3.566142e+05  -2.581540e+05
   5.779718e+05  -4.866554e+05
   1.133510e+06   9.586130e+04
   6.188160e+05   1.143853e+06
  -5.925813e+05   1.628323e+06
  -1.438728e+06   8.436292e+05
  -1.220523e+06  -7.267027e+05
  -2.202022e+05  -1.735342e+06
   6.915547e+05  -1.289142e+06
   9.051874e+05   1.213267e+05
   4.713209e+05   1.137610e+06
  -1.518496e+05   9.630997e+05
  -5.281876e+05   1.093285e+05
  -4.875409e+05  -3.629272e+05
  -1.942598e+05  -1.404021e+05
  -3.220073e+04   1.033220e+05
  -2.270396e+05  -2.571555e+05
  -4.914151e+05  -9.137168e+05
  -2.443196e+05  -1.045068e+06
   6.365738e+05  -4.013909e+05
   1.439409e+06   4.233281e+05
   1.289002e+06   7.843595e+05
   1.959298e+05   6.631271e+05
  -8.484461e+05   4.169782e+05
  -9.589770e+05   2.062901e+05
  -3.222933e+05  -2.581916e+04
   1.488541e+05  -2.172187e+05
  -6.358036e+03  -2.168624e+05
  -2.966612e+05  -1.072218e+05
  -3.613973e+04  -1.301881e+05
   6.759225e+05  -2.249405e+05
   1.005424e+06   4.891365e+03
   3.734599e+05   6.547806e+05
  -8.281835e+05   1.128071e+06
  -1.601945e+06   7.303594e+05
  -1.322805e+06  -4.139917e+05
  -2.744567e+05  -1.358435e+06
   7.072850e+05  -1.327487e+06
   1.002961e+06  -5.121416e+05
   6.416548e+05   2.331049e+05
   1.196502e+05   3.430725e+05
  -9.785277e+04   4.464807e+04
   6.626600e+04  -4.143407e+04
   3.123511e+05   3.388613e+05
   2.660916e+05   7.752294e+05
  -1.685994e+05   6.509250e+05
  -6.661734e+05  -1.278348e+05
  -7.094715e+05  -9.275428e+05
  -9.300994e+04  -9.897326e+05
   7.418896e+05  -2.213281e+05
   1.000606e+06   7.058503e+05
   3.341461e+05   1.043306e+06
  -6.814149e+05   6.426186e+05
  -1.064665e+06  -6.191339e+04
  -5.050937e+05  -5.603828e+05
   2.633054e+05  -6.306381e+05
   3.341508e+05  -3.543158e+05
  -2.666410e+05  -1.491386e+04
  -6.331256e+05   4.473331e+04
  -1.370455e+05  -2.892709e+05
   7.844373e+05  -6.727220e+05
   1.181337e+06  -5.630350e+05
   7.104144e+05   1.367001e+05
  -8.053120e+04   8.291155e+05
  -4.939513e+05   8.236273e+05
  -3.807840e+05   1.434335e+05
  -4.597361e+04  -4.725161e+05
   2.283797e+05  -4.095020e+05
   3.439920e+05   1.595941e+05
   2.513808e+05   5.533060e+05
  -5.010318e+04   3.912130e+05
  -3.769602e+05  -4.667258e+04
  -4.549794e+05  -2.457962e+05
  -2.350690e+05  -7.385945e+04
   2.346744e+04   1.256724e+05
   7.962539e+04   1.726037e+03
   1.497560e+04  -3.563986e+05
   8.539512e+04  -5.060612e+05
   3.192184e+05  -1.735306e+05
   4.177472e+05   3.860619e+05
   1.210917e+05   6.261604e+05
  -4.001784e+05   2.992022e+05
  -6.303704e+05  -2.733976e+05
  -2.432351e+05  -5.581156e+05
   4.760288e+05  -3.580025e+05
   8.389884e+05   6.773114e+04
   4.618751e+05   3.563935e+05
  -2.764580e+05   3.739888e+05
  -6.063897e+05   2.101049e+05
  -2.233196e+05   1.822459e+04
   3.579800e+05  -5.409258e+04
   4.044325e+05   7.945068e+04
  -1.771050e+05   2.993497e+05
  -7.454570e+05   2.747274e+05
