
 $NMID
 id='ANONYMOUS ', fmtdat='(2E16.6)'
 volume=1.0
 tramp=1.0
 $END
  -2.304266e+07   7.623909e+05
  -1.572648e+07  -1.117772e+07
   8.947850e+04  -1.506849e+07
   1.022781e+07  -9.372163e+06
   8.333104e+06  -3.188505e+05
   2.525288e+05   4.229892e+06
  -4.698338e+06   1.670361e+06
  -3.208102e+06  -3.845478e+06
   1.371470e+06  -6.022978e+06
   4.333011e+06  -2.563235e+06
   3.649923e+06   2.855011e+06
   5.073426e+05   4.597379e+06
  -2.085152e+06   1.065035e+06
  -1.651662e+06  -3.674241e+06
   1.397259e+06  -4.405713e+06
   3.828089e+06  -3.300456e+05
   2.810596e+06   4.474629e+06
  -1.024314e+06   5.675005e+06
  -4.310385e+06   2.816080e+06
  -4.502296e+06  -1.099460e+06
  -2.166199e+06  -3.091763e+06
   5.338190e+04  -2.713338e+06
   1.916895e+05  -1.685160e+06
  -1.215120e+06  -1.749898e+06
  -1.700770e+06  -2.897676e+06
   5.150536e+05  -3.482077e+06
   4.176693e+06  -2.107422e+06
   5.773473e+06   6.455152e+05
   3.333973e+06   2.647662e+06
  -9.776840e+05   2.393776e+06
  -2.997504e+06   4.332610e+05
  -1.172191e+06  -1.355023e+06
   1.963689e+06  -1.479587e+06
   3.034465e+06   1.549409e+05
   1.462866e+06   2.268251e+06
  -6.580952e+05   3.005423e+06
  -1.388199e+06   1.489611e+06
  -6.837514e+05  -9.053550e+05
   2.436875e+05  -1.556205e+06
   3.332376e+05   3.533145e+05
  -5.651700e+05   2.407757e+06
  -1.616217e+06   1.720787e+06
  -1.562257e+06  -1.208636e+06
   4.701077e+04  -2.824954e+06
   1.967553e+06  -9.628810e+05
   2.126096e+06   2.371167e+06
  -1.826820e+05   3.463392e+06
  -3.167900e+06   1.213950e+06
  -4.042648e+06  -2.016939e+06
  -1.776426e+06  -3.351415e+06
   1.766127e+06  -2.114478e+06
   3.529077e+06   2.088022e+05
   2.162807e+06   1.694503e+06
  -7.347198e+05   1.433312e+06
  -2.295353e+06   1.110404e+04
  -1.305976e+06  -1.059331e+06
   6.843908e+05  -7.447166e+05
   1.275029e+06   4.410200e+05
  -3.252805e+04   1.027957e+06
  -1.398208e+06   3.028159e+05
  -9.372211e+05  -9.193988e+05
   1.040706e+06  -1.291861e+06
   2.393961e+06  -3.005392e+05
   1.505085e+06   1.437826e+06
  -1.078923e+06   2.738457e+06
  -3.299781e+06   2.529489e+06
  -3.575271e+06   5.695264e+05
  -2.075957e+06  -2.045329e+06
  -2.622263e+05  -3.504254e+06
   6.312507e+05  -2.986464e+06
   6.264900e+05  -1.540972e+06
   6.343658e+05  -7.624250e+05
   1.239452e+06  -8.185640e+05
   2.016888e+06  -4.859232e+05
   2.051110e+06   8.682400e+05
   9.601133e+05   2.152718e+06
  -6.673484e+05   1.840703e+06
  -1.713156e+06  -7.329645e+04
  -1.361045e+06  -1.944660e+06
   2.504348e+05  -2.182073e+06
   1.978135e+06  -7.127652e+05
   2.475665e+06   1.185294e+06
   1.403628e+06   2.174033e+06
  -1.820836e+05   1.924429e+06
  -9.561156e+05   1.145043e+06
  -8.274941e+05   7.114696e+05
  -9.259696e+05   7.592995e+05
  -1.955039e+06   6.277078e+05
  -3.008406e+06  -3.081272e+05
  -2.497771e+06  -1.831860e+06
  -1.449595e+05  -2.961806e+06
   2.414811e+06  -2.784609e+06
   3.192338e+06  -1.248972e+06
   1.807560e+06   6.933187e+05
  -2.369709e+05   1.716615e+06
  -1.112260e+06   1.188226e+06
  -3.563656e+05  -1.663985e+05
   9.101436e+05  -8.667471e+05
   1.280168e+06  -2.354430e+05
   4.738108e+05   7.965678e+05
  -5.129495e+05   8.113572e+05
  -5.564488e+05  -2.548343e+05
   4.162332e+05  -9.111383e+05
   1.390390e+06   5.419269e+04
   1.267923e+06   1.969448e+06
  -1.428942e+05   2.918074e+06
  -1.965736e+06   1.821299e+06
  -2.915860e+06  -4.785568e+05
  -2.269753e+06  -2.176160e+06
  -4.952261e+05  -2.231067e+06
   1.036514e+06  -1.104332e+06
   1.237681e+06  -6.733197e+04
   3.640582e+05   3.710879e+04
  -2.724890e+05  -5.445698e+05
   2.041993e+05  -8.883277e+05
   1.209501e+06  -4.215134e+05
   1.412338e+06   4.736857e+05
   3.819831e+05   9.096481e+05
  -8.153853e+05   4.787355e+05
  -8.004056e+05  -3.228920e+05
   5.335818e+05  -6.310070e+05
   1.830024e+06  -5.067377e+04
   1.659328e+06   1.016422e+06
  -9.193826e+03   1.716918e+06
  -1.756180e+06   1.417307e+06
  -2.093943e+06   2.591962e+05
  -8.831924e+05  -8.448084e+05
   6.030318e+05  -9.672399e+05
   9.789764e+05  -1.133931e+05
   6.281722e+04   6.987119e+05
  -1.079710e+06   5.101021e+05
  -1.286225e+06  -4.957197e+05
  -4.024612e+05  -1.209226e+06
   6.874880e+05  -8.841901e+05
   9.863078e+05   4.316709e+04
   3.264039e+05   5.223669e+05
  -4.967510e+05   7.663596e+04
  -5.029162e+05  -7.471608e+05
   4.651705e+05  -1.016313e+06
   1.491051e+06  -3.386191e+05
   1.466172e+06   8.042469e+05
   2.794793e+05   1.503670e+06
  -1.004014e+06   1.211412e+06
  -1.252755e+06   2.170598e+05
  -4.369980e+05  -6.115217e+05
   4.536630e+05  -6.373388e+05
   5.559930e+05  -4.266636e+04
  -2.258457e+04   4.291527e+05
  -5.008693e+05   3.102200e+05
  -3.452472e+05  -1.081304e+05
   2.134137e+05  -1.745371e+05
   4.726971e+05   3.210367e+05
  -2.076299e+04   8.549968e+05
  -9.762462e+05   7.019040e+05
  -1.540236e+06  -2.813988e+05
  -1.074380e+06  -1.428535e+06
   1.691050e+05  -1.830997e+06
   1.230582e+06  -1.165438e+06
   1.382753e+06   1.070065e+04
   8.112369e+05   7.904471e+05
   2.749936e+05   7.619970e+05
   2.012169e+05   3.233902e+05
   2.984944e+05   1.589474e+05
   4.962957e+04   4.538238e+05
  -5.979457e+05   7.046422e+05
  -1.117524e+06   3.324469e+05
  -9.067871e+05  -5.776209e+05
   1.123776e+05  -1.236702e+06
   1.305623e+06  -9.018376e+05
   1.735563e+06   3.355725e+05
   9.304158e+05   1.541652e+06
  -6.202221e+05   1.759418e+06
  -1.799927e+06   8.685226e+05
  -1.827203e+06  -3.527266e+05
  -9.126887e+05  -1.004363e+06
   5.647578e+04  -8.829028e+05
   4.218947e+05  -5.300857e+05
   2.792667e+05  -5.268210e+05
   1.796533e+05  -8.295080e+05
   4.574514e+05  -8.576842e+05
   8.918634e+05  -2.050199e+05
   9.595339e+05   8.208754e+05
   3.904158e+05   1.421673e+06
  -4.883536e+05   1.068544e+06
  -9.750397e+05   2.250157e+04
  -6.460463e+05  -8.957854e+05
   1.869977e+05  -1.035851e+06
   7.524117e+05  -4.345375e+05
   6.008613e+05   3.259023e+05
   4.766797e+04   7.013657e+05
  -2.331013e+05   6.165767e+05
   2.267178e+02   3.835059e+05
   2.875767e+05   2.871960e+05
   2.151150e+04   3.001704e+05
  -7.988734e+05   1.798248e+05
  -1.455992e+06  -2.121996e+05
  -1.205176e+06  -7.181784e+05
  -7.772010e+04  -9.968251e+05
   1.061857e+06  -8.185784e+05
   1.326685e+06  -2.817972e+05
   6.686120e+05   2.333093e+05
  -1.360631e+05   3.617322e+05
  -3.478661e+05   8.352231e+04
   1.579120e+04  -2.273654e+05
   3.748650e+05  -1.624910e+05
   3.405676e+05   2.591624e+05
   8.014945e+04   5.630684e+05
  -2.806112e+04   3.582587e+05
   1.196801e+05  -1.404419e+05
   2.953537e+05  -2.997776e+05
   2.253028e+05   1.643478e+05
  -1.633665e+05   7.675021e+05
  -6.697752e+05   7.725545e+05
  -8.922231e+05   6.449578e+04
  -5.108231e+05  -6.825219e+05
   3.092723e+05  -7.525189e+05
   8.646989e+05  -1.511945e+05
   5.265641e+05   4.642535e+05
  -5.031561e+05   5.043164e+05
  -1.238253e+06  -2.466312e+04
  -8.881000e+05  -6.338035e+05
   2.728593e+05  -8.316896e+05
   1.164340e+06  -4.948888e+05
   1.022777e+06   7.978507e+04
   1.496516e+05   4.148629e+05
  -4.803251e+05   2.490552e+05
  -2.565089e+05  -1.881977e+05
   4.858615e+05  -3.355841e+05
   8.719135e+05   1.433128e+05
   4.010427e+05   9.236286e+05
  -5.611026e+05   1.227985e+06
  -1.169916e+06   5.814478e+05
  -9.316585e+05  -6.201423e+05
  -1.206584e+05  -1.377452e+06
   5.779243e+05  -1.025496e+06
   7.228557e+05   8.101676e+04
   3.826859e+05   9.034993e+05
  -9.592434e+04   7.867183e+05
  -4.050155e+05   9.647078e+04
  -4.092675e+05  -3.093610e+05
  -1.875542e+05  -1.327450e+05
  -1.391529e+04   9.480996e+04
  -1.181441e+05  -1.723524e+05
  -3.438970e+05  -7.143461e+05
  -2.144042e+05  -8.416667e+05
   4.549255e+05  -3.161035e+05
   1.128134e+06   3.696448e+05
   1.039358e+06   6.528176e+05
   1.447184e+05   5.163547e+05
  -7.159027e+05   2.965756e+05
  -7.750298e+05   1.518200e+05
  -2.214828e+05   1.753745e+02
   1.375201e+05  -1.603685e+05
  -4.393101e+04  -2.001790e+05
  -2.769612e+05  -1.257364e+05
  -4.548534e+03  -1.036340e+05
   5.877301e+05  -1.311199e+05
   7.785877e+05   4.723228e+04
   1.999081e+05   5.054918e+05
  -7.254734e+05   8.219071e+05
  -1.235845e+06   4.910592e+05
  -9.560823e+05  -3.842798e+05
  -1.528611e+05  -1.077172e+06
   5.773474e+05  -1.001850e+06
   7.944892e+05  -3.359374e+05
   4.985351e+05   2.308673e+05
   6.143142e+04   2.683377e+05
  -1.177783e+05  -3.198439e+03
   4.101490e+04  -6.651307e+04
   2.593725e+05   2.620532e+05
   2.048685e+05   6.164053e+05
  -1.607345e+05   4.916298e+05
  -5.223941e+05  -1.556593e+05
  -4.915953e+05  -7.767452e+05
   1.263178e+04  -7.643692e+05
   6.106708e+05  -9.849700e+04
   7.379340e+05   6.257871e+05
   1.958188e+05   8.195044e+05
  -5.567640e+05   4.432458e+05
  -8.042027e+05  -9.402132e+04
  -3.529062e+05  -4.179941e+05
   2.175574e+05  -4.407602e+05
   2.318273e+05  -2.603626e+05
  -2.491216e+05  -4.235563e+04
  -5.066824e+05   5.885341e+03
  -8.359930e+04  -2.201897e+05
   6.353125e+05  -5.062902e+05
   9.078304e+05  -4.390465e+05
   5.112844e+05   9.030820e+04
  -9.173564e+04   6.272147e+05
  -3.724650e+05   6.139935e+05
  -2.549274e+05   7.322273e+04
   4.979960e+03  -3.858015e+05
   1.974031e+05  -2.875917e+05
   2.611718e+05   1.752504e+05
   1.714199e+05   4.412997e+05
  -5.856749e+04   2.668389e+05
  -2.890400e+05  -6.614039e+04
  -3.365655e+05  -1.782615e+05
  -1.835956e+05  -4.102044e+04
  -2.054453e+03   6.583389e+04
   6.903606e+04  -5.969404e+04
   8.130302e+04  -2.965895e+05
   1.562325e+05  -3.398842e+05
   2.715188e+05  -4.984860e+04
   2.550427e+05   3.564764e+05
   2.278780e+03   4.910113e+05
  -3.405552e+05   1.977682e+05
  -4.530654e+05  -2.585496e+05
  -1.482190e+05  -4.577227e+05
   3.714819e+05  -2.584079e+05
   6.268978e+05   9.726136e+04
   3.361137e+05   2.939455e+05
  -2.254100e+05   2.524652e+05
  -4.656844e+05   1.074428e+05
  -1.430780e+05   3.662684e+03
   3.211437e+05   7.527788e+03
   3.247839e+05   1.227334e+05
  -1.876285e+05   2.497446e+05
  -6.500158e+05   1.795220e+05
