
 $NMID
 id='ANONYMOUS ', fmtdat='(2E16.6)'
 volume=1.0
 tramp=1.0
 $END
  -4.111639e+07   9.286790e+05
  -2.639319e+07  -2.288220e+07
   2.920100e+06  -2.747930e+07
   1.924767e+07  -1.347185e+07
   1.331561e+07   2.564797e+06
  -1.116038e+06   7.154706e+06
  -7.709260e+06   8.396397e+05
  -3.685371e+06  -7.002986e+06
   3.576669e+06  -8.555020e+06
   7.333851e+06  -2.862555e+06
   5.751390e+06   4.728206e+06
   7.825968e+05   7.104085e+06
  -3.241103e+06   1.984817e+06
  -2.390770e+06  -5.069017e+06
   2.605014e+06  -6.131880e+06
   6.226946e+06   2.546291e+05
   4.070375e+06   7.658537e+06
  -2.289266e+06   9.294305e+06
  -7.479705e+06   4.684729e+06
  -7.967246e+06  -1.629261e+06
  -4.466180e+06  -5.443825e+06
  -3.073676e+05  -5.674034e+06
   1.312714e+06  -3.835962e+06
  -1.798028e+05  -2.490557e+06
  -1.771591e+06  -3.127505e+06
   2.736362e+05  -4.408982e+06
   5.430734e+06  -3.471065e+06
   8.446255e+06   2.364524e+05
   5.513083e+06   3.705514e+06
  -6.138437e+05   3.934644e+06
  -3.828241e+06   1.418269e+06
  -1.921691e+06  -1.020809e+06
   1.763337e+06  -1.525104e+06
   3.280106e+06  -8.965525e+04
   2.042600e+06   2.331175e+06
  -1.973771e+05   3.940358e+06
  -1.791312e+06   2.758042e+06
  -1.865615e+06  -7.146059e+05
  -5.463530e+05  -2.690444e+06
   5.602938e+05  -5.301985e+05
  -2.843806e+05   2.870184e+06
  -2.256005e+06   2.295882e+06
  -2.241277e+06  -2.242104e+06
   1.004113e+06  -4.739547e+06
   4.392220e+06  -1.211258e+06
   3.805424e+06   4.666023e+06
  -8.804177e+05   6.218619e+06
  -5.506943e+06   1.983180e+06
  -6.025729e+06  -3.363453e+06
  -2.168906e+06  -5.080254e+06
   2.791256e+06  -2.776179e+06
   4.915527e+06   7.676008e+05
   2.697266e+06   2.743741e+06
  -1.554095e+06   2.033322e+06
  -3.654114e+06  -3.462273e+05
  -1.835092e+06  -1.933188e+06
   1.230287e+06  -1.152960e+06
   1.712182e+06   7.570612e+05
  -5.682745e+05   1.185362e+06
  -2.121843e+06  -4.763306e+05
  -4.954850e+05  -2.142358e+06
   2.708411e+06  -1.819145e+06
   4.057617e+06   2.954172e+05
   2.149029e+06   2.745218e+06
  -1.551232e+06   4.306736e+06
  -4.598221e+06   3.986289e+06
  -5.317335e+06   1.197053e+06
  -3.518402e+06  -2.860911e+06
  -6.284693e+05  -5.258549e+06
   1.233320e+06  -4.298111e+06
   1.212879e+06  -1.711524e+06
   5.670638e+05  -4.850940e+05
   9.448916e+05  -1.031871e+06
   2.212404e+06  -1.119201e+06
   2.745960e+06   5.593431e+05
   1.589383e+06   2.453215e+06
  -4.957097e+05   2.310243e+06
  -1.967278e+06   3.364790e+04
  -1.757437e+06  -2.358272e+06
   1.778030e+05  -2.904777e+06
   2.667060e+06  -1.251836e+06
   3.774060e+06   1.384699e+06
   2.443670e+06   3.220442e+06
  -1.292474e+05   3.242052e+06
  -1.666853e+06   2.028608e+06
  -1.561663e+06   1.037894e+06
  -1.476944e+06   8.814982e+05
  -2.735327e+06   6.979737e+05
  -4.140592e+06  -5.364122e+05
  -3.395119e+06  -2.553580e+06
  -1.833359e+05  -4.008666e+06
   3.186613e+06  -3.790560e+06
   4.196220e+06  -1.866830e+06
   2.504056e+06   6.977538e+05
  -5.789715e+04   2.254305e+06
  -1.307247e+06   1.728848e+06
  -5.093822e+05  -1.394473e+05
   1.150613e+06  -1.219972e+06
   1.782738e+06  -3.575904e+05
   7.572682e+05   1.112995e+06
  -6.060496e+05   1.093159e+06
  -6.084515e+05  -3.591600e+05
   7.682603e+05  -9.990236e+05
   1.859374e+06   5.769473e+05
   1.262558e+06   2.982410e+06
  -7.691225e+05   3.689007e+06
  -2.833839e+06   1.880464e+06
  -3.641091e+06  -9.669229e+05
  -2.709408e+06  -2.828698e+06
  -5.783157e+05  -2.811470e+06
   1.313411e+06  -1.469038e+06
   1.613914e+06  -1.540284e+05
   4.877881e+05   4.578256e+04
  -3.627820e+05  -7.341779e+05
   3.265477e+05  -1.250373e+06
   1.732535e+06  -5.758189e+05
   1.947332e+06   7.315274e+05
   4.609239e+05   1.295965e+06
  -1.119154e+06   6.116403e+05
  -9.889968e+05  -4.386958e+05
   7.703900e+05  -7.042325e+05
   2.327050e+06   9.515283e+04
   2.010376e+06   1.351048e+06
  -1.102159e+05   2.149692e+06
  -2.318966e+06   1.791402e+06
  -2.778231e+06   3.228020e+05
  -1.197590e+06  -1.179641e+06
   8.455162e+05  -1.382416e+06
   1.411548e+06  -1.746098e+05
   1.387157e+05   9.923248e+05
  -1.467460e+06   7.086034e+05
  -1.716487e+06  -7.066732e+05
  -4.546541e+05  -1.626838e+06
   9.890927e+05  -1.093222e+06
   1.289651e+06   1.645325e+05
   3.544941e+05   7.320223e+05
  -7.195808e+05   8.355234e+04
  -7.011535e+05  -1.017548e+06
   5.959240e+05  -1.384686e+06
   1.991989e+06  -4.967303e+05
   1.990717e+06   1.054384e+06
   3.840377e+05   2.031399e+06
  -1.375677e+06   1.630313e+06
  -1.692197e+06   2.604922e+05
  -5.497002e+05  -8.358346e+05
   6.249759e+05  -8.300869e+05
   6.919625e+05  -6.679719e+04
  -6.968679e+04   4.789657e+05
  -5.904304e+05   3.228141e+05
  -3.110246e+05  -1.116912e+05
   3.586056e+05  -9.895867e+04
   5.837630e+05   5.341162e+05
  -1.027155e+05   1.161178e+06
  -1.333376e+06   9.213629e+05
  -2.064861e+06  -3.856046e+05
  -1.451149e+06  -1.914709e+06
   2.136108e+05  -2.429797e+06
   1.623351e+06  -1.494668e+06
   1.774479e+06   5.875897e+04
   9.840711e+05   9.816863e+05
   3.449595e+05   8.540584e+05
   3.593387e+05   3.351865e+05
   4.995892e+05   2.533245e+05
   8.011419e+04   6.743373e+05
  -8.288923e+05   9.247398e+05
  -1.470029e+06   3.943649e+05
  -1.139440e+06  -7.464587e+05
   1.908183e+05  -1.565081e+06
   1.728110e+06  -1.148506e+06
   2.283509e+06   4.565066e+05
   1.198060e+06   2.069431e+06
  -8.992307e+05   2.355126e+06
  -2.456775e+06   1.108902e+06
  -2.397965e+06  -5.461525e+05
  -1.104097e+06  -1.335281e+06
   1.311725e+05  -1.074617e+06
   4.847460e+05  -6.194035e+05
   2.393991e+05  -7.225915e+05
   1.736912e+05  -1.192724e+06
   6.306635e+05  -1.208427e+06
   1.232262e+06  -2.978210e+05
   1.306870e+06   1.081811e+06
   5.422306e+05   1.890246e+06
  -6.322342e+05   1.430059e+06
  -1.291759e+06   1.976787e+04
  -8.428416e+05  -1.229685e+06
   3.069381e+05  -1.387636e+06
   1.071876e+06  -5.059279e+05
   8.078504e+05   5.477938e+05
  -1.524133e+04   9.973260e+05
  -4.081794e+05   8.058459e+05
  -3.658381e+04   4.688732e+05
   4.062848e+05   3.597999e+05
   4.386530e+04   3.920406e+05
  -1.100511e+06   2.304929e+05
  -1.994425e+06  -2.971647e+05
  -1.613068e+06  -9.860903e+05
  -4.552295e+04  -1.375060e+06
   1.487114e+06  -1.117932e+06
   1.793760e+06  -3.379394e+05
   8.667962e+05   3.898067e+05
  -2.144230e+05   5.217148e+05
  -4.849094e+05   7.846038e+04
  -4.396638e+03  -3.555233e+05
   4.724187e+05  -2.369457e+05
   4.674361e+05   3.413933e+05
   1.758386e+05   7.356740e+05
   2.494279e+04   4.767322e+05
   1.495550e+05  -1.456783e+05
   3.411465e+05  -3.509325e+05
   2.896540e+05   2.244287e+05
  -1.795421e+05   1.005785e+06
  -8.907878e+05   1.048524e+06
  -1.265580e+06   1.324525e+05
  -7.618614e+05  -9.067991e+05
   4.079042e+05  -1.065922e+06
   1.197470e+06  -2.692532e+05
   7.180301e+05   5.939516e+05
  -6.820570e+05   6.635377e+05
  -1.620988e+06  -5.624631e+04
  -1.103918e+06  -8.498523e+05
   4.159867e+05  -1.054878e+06
   1.525196e+06  -5.804440e+05
   1.302815e+06   1.418205e+05
   1.706042e+05   5.343308e+05
  -6.433064e+05   3.047975e+05
  -3.626797e+05  -2.691058e+05
   6.151220e+05  -4.843251e+05
   1.171007e+06   1.334627e+05
   6.042832e+05   1.202755e+06
  -6.636175e+05   1.669348e+06
  -1.517706e+06   8.345076e+05
  -1.251607e+06  -7.869652e+05
  -1.891904e+05  -1.813139e+06
   7.503694e+05  -1.334995e+06
   9.461819e+05   1.372462e+05
   4.768935e+05   1.196826e+06
  -1.689374e+05   1.011335e+06
  -5.506044e+05   1.093142e+05
  -5.080041e+05  -3.939196e+05
  -2.078734e+05  -1.574863e+05
  -3.302822e+04   1.115753e+05
  -2.192504e+05  -2.598014e+05
  -4.880260e+05  -9.563629e+05
  -2.435571e+05  -1.100226e+06
   6.581425e+05  -4.122654e+05
   1.491480e+06   4.724032e+05
   1.336896e+06   8.485715e+05
   1.922886e+05   6.927370e+05
  -9.017598e+05   4.108005e+05
  -1.008079e+06   1.966060e+05
  -3.289232e+05  -2.434114e+04
   1.630201e+05  -2.202521e+05
  -1.151383e+04  -2.366792e+05
  -3.162416e+05  -1.301067e+05
  -2.930941e+04  -1.350837e+05
   7.199056e+05  -2.087030e+05
   1.042484e+06   3.074450e+04
   3.559838e+05   6.797891e+05
  -8.955560e+05   1.142204e+06
  -1.670018e+06   7.177204e+05
  -1.347773e+06  -4.612390e+05
  -2.489049e+05  -1.419112e+06
   7.604515e+05  -1.361627e+06
   1.050892e+06  -5.012676e+05
   6.608966e+05   2.648274e+05
   1.111395e+05   3.570600e+05
  -1.107483e+05   3.236423e+04
   6.918848e+04  -5.174072e+04
   3.244794e+05   3.579668e+05
   2.641504e+05   8.139763e+05
  -1.915777e+05   6.690939e+05
  -6.886643e+05  -1.575933e+05
  -7.055614e+05  -9.858116e+05
  -6.088432e+04  -1.024224e+06
   7.790269e+05  -1.983074e+05
   1.015592e+06   7.662306e+05
   3.155676e+05   1.088472e+06
  -7.216589e+05   6.425359e+05
  -1.097942e+06  -9.017421e+04
  -5.083702e+05  -5.833033e+05
   2.832337e+05  -6.387670e+05
   3.446344e+05  -3.617530e+05
  -2.861020e+05  -3.008418e+04
  -6.613970e+05   2.892001e+04
  -1.328359e+05  -3.003051e+05
   8.315331e+05  -6.827210e+05
   1.234880e+06  -5.699223e+05
   7.278254e+05   1.456185e+05
  -1.021223e+05   8.552268e+05
  -5.211989e+05   8.439901e+05
  -3.851852e+05   1.366356e+05
  -2.925751e+04  -4.944699e+05
   2.466901e+05  -4.135986e+05
   3.506549e+05   1.838804e+05
   2.466528e+05   5.807396e+05
  -6.036419e+04   3.954511e+05
  -3.885612e+05  -6.145877e+04
  -4.663621e+05  -2.578820e+05
  -2.449113e+05  -7.606973e+04
   1.947756e+04   1.215087e+05
   8.879018e+04  -1.235853e+04
   4.006045e+04  -3.710300e+05
   1.157950e+05  -5.055300e+05
   3.350218e+05  -1.524383e+05
   4.073629e+05   4.176729e+05
   9.294051e+04   6.483172e+05
  -4.260807e+05   2.946108e+05
  -6.394252e+05  -3.030725e+05
  -2.328677e+05  -5.877870e+05
   4.996325e+05  -3.604358e+05
   8.625918e+05   9.247012e+04
   4.684333e+05   3.803875e+05
  -2.932242e+05   3.745917e+05
  -6.288207e+05   1.958484e+05
  -2.240873e+05   1.512887e+04
   3.810015e+05  -3.540818e+04
   4.182842e+05   1.049433e+05
  -2.026670e+05   3.099710e+05
  -7.956531e+05   2.615859e+05
