
 $NMID
 id='ANONYMOUS ', fmtdat='(2E16.6)'
 volume=1.0
 tramp=1.0
 $END
   4.755765e+07   8.717544e+05
   2.831112e+07   2.924007e+07
  -6.274063e+06   3.180571e+07
  -2.317264e+07   1.267920e+07
  -1.406642e+07  -5.346466e+06
   2.540795e+06  -7.859360e+06
   8.365243e+06   6.295438e+05
   2.691428e+06   8.180464e+06
  -5.020907e+06   8.292732e+06
  -8.216521e+06   1.972137e+06
  -6.008966e+06  -5.419589e+06
  -6.184399e+05  -7.553532e+06
   3.543014e+06  -2.248258e+06
   2.331129e+06   4.995156e+06
  -3.195036e+06   5.900356e+06
  -6.745967e+06  -1.026348e+06
  -3.830208e+06  -8.741121e+06
   3.245854e+06  -1.009256e+07
   8.675864e+06  -4.911968e+06
   9.126160e+06   1.997301e+06
   5.319362e+06   6.478849e+06
   3.053338e+05   7.123768e+06
  -2.349106e+06   4.817520e+06
  -1.083066e+06   2.327027e+06
   1.301204e+06   2.308726e+06
   5.483718e+04   4.015583e+06
  -5.138893e+06   3.778852e+06
  -8.678841e+06   1.018516e+05
  -6.035491e+06  -3.845857e+06
   1.441082e+05  -4.412357e+06
   3.597076e+06  -2.009610e+06
   2.191453e+06   3.771097e+05
  -9.262428e+05   1.139434e+06
  -2.494973e+06   3.714489e+05
  -2.047983e+06  -1.661436e+06
  -3.311790e+05  -3.736843e+06
   1.764997e+06  -3.229463e+06
   2.601140e+06   3.968716e+05
   1.138411e+06   3.161342e+06
  -7.430980e+05   1.317307e+06
  -1.217831e+05  -2.477270e+06
   2.246758e+06  -2.130410e+06
   2.151145e+06   2.695412e+06
  -1.905250e+06   5.180169e+06
  -5.639129e+06   8.347344e+05
  -4.185374e+06  -5.825312e+06
   1.618463e+06  -7.137742e+06
   6.344229e+06  -1.968866e+06
   6.111927e+06   3.891329e+06
   1.750364e+06   5.321145e+06
  -3.037880e+06   2.503871e+06
  -4.760510e+06  -1.224187e+06
  -2.301418e+06  -3.016396e+06
   1.995714e+06  -1.941266e+06
   3.909227e+06   7.455749e+05
   1.727793e+06   2.301412e+06
  -1.465311e+06   1.173499e+06
  -1.600276e+06  -8.836668e+05
   9.746124e+05  -9.029843e+05
   2.121061e+06   1.243793e+06
  -2.904147e+05   2.719232e+06
  -3.699299e+06   1.622579e+06
  -4.478682e+06  -1.009159e+06
  -2.023360e+06  -3.330375e+06
   1.687378e+06  -4.583545e+06
   4.629430e+06  -4.196127e+06
   5.547676e+06  -1.366447e+06
   3.898971e+06   2.943915e+06
   6.914592e+05   5.498499e+06
  -1.586519e+06   4.266168e+06
  -1.447130e+06   1.270624e+06
  -2.489252e+05   3.484526e+04
  -3.064589e+05   9.910112e+05
  -1.759299e+06   1.477057e+06
  -2.664817e+06  -6.565374e+04
  -1.774400e+06  -2.027482e+06
   1.563858e+05  -2.102004e+06
   1.612533e+06  -1.491463e+05
   1.608517e+06   2.053145e+06
  -7.729232e+04   2.758270e+06
  -2.596948e+06   1.396041e+06
  -3.965550e+06  -1.248077e+06
  -2.708642e+06  -3.407424e+06
   1.446064e+05  -3.638632e+06
   1.983454e+06  -2.270540e+06
   1.880619e+06  -9.843355e+05
   1.594818e+06  -6.783087e+05
   2.686940e+06  -4.948121e+05
   4.001285e+06   6.792077e+05
   3.217674e+06   2.557872e+06
   1.060889e+05   3.841092e+06
  -3.042638e+06   3.610611e+06
  -3.963381e+06   1.883959e+06
  -2.461817e+06  -5.151184e+05
  -1.341830e+05  -2.130769e+06
   1.129666e+06  -1.756280e+06
   5.184705e+05   7.545313e+04
  -1.059792e+06   1.199869e+06
  -1.760503e+06   3.417888e+05
  -8.003049e+05  -1.120349e+06
   5.265562e+05  -1.044136e+06
   4.592973e+05   3.507208e+05
  -8.948098e+05   7.333359e+05
  -1.702270e+06  -9.905224e+05
  -7.592041e+05  -3.087398e+06
   1.237462e+06  -3.246819e+06
   2.822260e+06  -1.260203e+06
   3.186805e+06   1.210037e+06
   2.266410e+06   2.615029e+06
   4.587756e+05   2.520305e+06
  -1.203121e+06   1.375428e+06
  -1.504250e+06   1.808853e+05
  -4.625471e+05  -4.738772e+04
   3.325510e+05   7.062863e+05
  -3.778335e+05   1.228345e+06
  -1.748577e+06   5.205209e+05
  -1.875772e+06  -8.091579e+05
  -3.691701e+05  -1.298047e+06
   1.092116e+06  -5.394755e+05
   8.656916e+05   4.266768e+05
  -7.707535e+05   5.369977e+05
  -2.087388e+06  -2.422117e+05
  -1.715832e+06  -1.277932e+06
   1.985742e+05  -1.904523e+06
   2.186746e+06  -1.583905e+06
   2.617327e+06  -2.504074e+05
   1.127197e+06   1.178784e+06
  -8.634477e+05   1.369135e+06
  -1.429011e+06   1.535985e+05
  -1.572012e+05  -9.980018e+05
   1.424157e+06  -6.718870e+05
   1.610701e+06   7.298120e+05
   3.380387e+05   1.548660e+06
  -1.002290e+06   9.418170e+05
  -1.185991e+06  -2.599638e+05
  -2.548023e+05  -7.198038e+05
   7.283528e+05  -4.983302e+04
   6.748494e+05   9.917493e+05
  -5.628876e+05   1.329603e+06
  -1.897610e+06   4.821459e+05
  -1.900448e+06  -1.011378e+06
  -3.430795e+05  -1.949216e+06
   1.355162e+06  -1.531796e+06
   1.618942e+06  -1.963426e+05
   4.786006e+05   8.127373e+05
  -6.178159e+05   7.589608e+05
  -6.166110e+05   6.705686e+04
   9.417093e+04  -3.716276e+05
   4.883766e+05  -2.317313e+05
   1.728736e+05   6.599020e+04
  -3.863527e+05  -2.977900e+04
  -4.944860e+05  -5.945906e+05
   1.761867e+05  -1.105160e+06
   1.296434e+06  -8.382884e+05
   1.954967e+06   4.007099e+05
   1.361378e+06   1.838896e+06
  -2.229614e+05   2.285635e+06
  -1.533954e+06   1.343806e+06
  -1.614220e+06  -1.091696e+05
  -8.427208e+05  -8.709257e+05
  -3.127308e+05  -6.747802e+05
  -4.204889e+05  -2.507517e+05
  -5.488917e+05  -2.901447e+05
  -7.151579e+04  -6.962610e+05
   8.192429e+05  -8.468598e+05
   1.371357e+06  -3.154716e+05
   1.011144e+06   6.920555e+05
  -2.254020e+05   1.401911e+06
  -1.631113e+06   1.019765e+06
  -2.125895e+06  -4.650409e+05
  -1.069229e+06  -1.978957e+06
   9.415155e+05  -2.215277e+06
   2.379339e+06  -9.696835e+05
   2.220305e+06   6.070730e+05
   9.328550e+05   1.262336e+06
  -1.740405e+05   9.233119e+05
  -3.927227e+05   5.145122e+05
  -1.274335e+05   7.102369e+05
  -1.342447e+05   1.203912e+06
  -6.360849e+05   1.185741e+06
  -1.207169e+06   2.812584e+05
  -1.245430e+06  -1.032116e+06
  -5.064155e+05  -1.791982e+06
   6.014178e+05  -1.350173e+06
   1.213860e+06   5.789344e+03
   7.619701e+05   1.200972e+06
  -3.567717e+05   1.307434e+06
  -1.069533e+06   3.965260e+05
  -7.507366e+05  -6.228408e+05
   9.891414e+04  -9.862041e+05
   4.754023e+05  -7.334192e+05
   6.725758e+04  -4.039851e+05
  -4.001866e+05  -3.282100e+05
  -4.970341e+04  -3.653841e+05
   1.071137e+06  -1.922545e+05
   1.923489e+06   3.235971e+05
   1.514276e+06   9.772136e+05
  -2.725362e+04   1.332999e+06
  -1.481992e+06   1.052481e+06
  -1.717157e+06   2.621136e+05
  -7.862557e+05  -4.427502e+05
   2.406603e+05  -5.196229e+05
   4.734234e+05  -3.849601e+04
   1.519868e+04   3.814428e+05
  -4.288379e+05   2.366177e+05
  -4.483638e+05  -3.267828e+05
  -2.147719e+05  -6.916470e+05
  -6.885940e+04  -4.562195e+05
  -1.306069e+05   1.021407e+05
  -2.782752e+05   2.923607e+05
  -2.613998e+05  -2.183326e+05
   1.488603e+05  -9.369013e+05
   8.548561e+05  -9.951550e+05
   1.264983e+06  -1.403459e+05
   7.754937e+05   8.718968e+05
  -4.016460e+05   1.054317e+06
  -1.178536e+06   2.904325e+05
  -6.863010e+05  -5.515957e+05
   6.617594e+05  -6.095491e+05
   1.504019e+06   9.102421e+04
   9.651802e+05   8.137382e+05
  -4.448791e+05   9.414853e+05
  -1.418738e+06   4.654918e+05
  -1.175678e+06  -1.744122e+05
  -1.321663e+05  -4.889162e+05
   6.119424e+05  -2.569708e+05
   3.549045e+05   2.761810e+05
  -5.642030e+05   4.836470e+05
  -1.117808e+06  -9.449750e+04
  -6.157838e+05  -1.127737e+06
   5.824507e+05  -1.603753e+06
   1.416335e+06  -8.216805e+05
   1.184082e+06   7.283137e+05
   1.804857e+05   1.699445e+06
  -7.069372e+05   1.227062e+06
  -8.750779e+05  -1.645157e+05
  -4.083800e+05  -1.127707e+06
   2.030101e+05  -9.188205e+05
   5.287079e+05  -7.941294e+04
   4.458113e+05   3.599220e+05
   1.616137e+05   1.314579e+05
   4.333888e+04  -9.137975e+04
   2.520415e+05   2.791144e+05
   4.727800e+05   9.165134e+05
   1.828740e+05   1.021088e+06
  -6.692850e+05   3.685346e+05
  -1.394992e+06  -4.480649e+05
  -1.214104e+06  -7.968780e+05
  -1.717033e+05  -6.605978e+05
   8.155214e+05  -3.940686e+05
   9.338927e+05  -1.702215e+05
   3.359164e+05   5.079295e+04
  -1.409401e+05   2.132649e+05
  -2.832473e+04   1.942808e+05
   2.570715e+05   9.085718e+04
   4.566188e+04   1.276472e+05
  -6.336609e+05   2.219969e+05
  -9.916903e+05  -1.639451e+04
  -4.009231e+05  -6.605079e+05
   8.066720e+05  -1.112982e+06
   1.612260e+06  -7.063388e+05
   1.332906e+06   4.183567e+05
   2.555047e+05   1.334651e+06
  -7.311828e+05   1.299201e+06
  -9.978229e+05   5.050333e+05
  -6.222278e+05  -2.229016e+05
  -1.247757e+05  -3.411021e+05
   7.030854e+04  -6.387734e+04
  -7.448684e+04   1.612043e+04
  -2.836375e+05  -3.475658e+05
  -2.324962e+05  -7.655244e+05
   1.723502e+05  -6.435117e+05
   6.473070e+05   1.158891e+05
   7.002232e+05   9.047523e+05
   1.077644e+05   9.805824e+05
  -7.163255e+05   2.358416e+05
  -9.824962e+05  -6.843600e+05
  -3.293348e+05  -1.034628e+06
   6.782881e+05  -6.423388e+05
   1.061072e+06   7.292764e+04
   5.017261e+05   5.829304e+05
  -2.751212e+05   6.429290e+05
  -3.611781e+05   3.462770e+05
   2.343910e+05   6.134333e+03
   6.157140e+05  -3.744613e+04
   1.385933e+05   2.930976e+05
  -7.828142e+05   6.421938e+05
  -1.193399e+06   5.073906e+05
  -7.216737e+05  -1.724065e+05
   9.292734e+04  -8.245758e+05
   5.263954e+05  -8.094365e+05
   4.068815e+05  -1.519807e+05
   5.266158e+04   4.546564e+05
  -2.277729e+05   4.140927e+05
  -3.356931e+05  -1.375286e+05
  -2.411712e+05  -5.475050e+05
   5.136952e+04  -4.073896e+05
   3.716343e+05   4.144358e+04
   4.500427e+05   2.682410e+05
   2.285228e+05   9.278440e+04
  -3.199028e+04  -1.450664e+05
  -7.501981e+04  -4.467484e+04
   1.599387e+04   3.365108e+05
  -4.471363e+04   5.282866e+05
  -3.045401e+05   2.131718e+05
  -4.405474e+05  -3.589625e+05
  -1.541325e+05  -6.172462e+05
   3.863811e+05  -3.010322e+05
   6.334839e+05   2.637666e+05
   2.436477e+05   5.433299e+05
  -4.819938e+05   3.468398e+05
  -8.396805e+05  -7.049847e+04
  -4.556167e+05  -3.580842e+05
   2.796590e+05  -3.822698e+05
   6.084925e+05  -2.194818e+05
   2.404474e+05  -1.657288e+04
  -3.260439e+05   7.047414e+04
  -3.874205e+05  -5.489645e+04
   1.542729e+05  -2.758886e+05
   6.990064e+05  -2.618862e+05
