
 $NMID
 id='ANONYMOUS ', fmtdat='(2E16.6)'
 volume=1.0
 tramp=1.0
 $END
  -3.540316e+03   6.706384e+02
  -2.279643e+03  -1.063997e+03
  -9.998531e+00  -2.037825e+03
   1.022424e+03  -8.827552e+02
   9.733772e+02  -7.691624e+01
   2.811161e+01   2.163607e+02
  -3.918994e+02  -2.680012e+02
  -6.319803e+01  -5.128248e+02
   4.939335e+02  -6.742956e+02
   7.372871e+02   9.664769e+00
   5.883538e+02   5.925849e+02
  -6.123305e+01   7.096632e+02
  -2.651158e+02   2.224256e+02
  -3.502207e+02  -4.297458e+02
   1.138478e+02  -5.432985e+02
   4.024888e+02  -1.523577e+02
   3.235254e+02   4.579671e+02
  -1.322833e+02   5.967778e+02
  -4.268207e+02   2.659847e+02
  -4.900666e+02  -1.587231e+02
  -9.532609e+01  -3.605636e+02
   1.364348e+02  -2.470550e+02
   8.594037e+01  -4.778737e+01
  -1.963072e+02  -6.371654e+01
  -2.986425e+02  -1.996258e+02
  -3.773102e+01  -3.071547e+02
   4.586621e+02  -2.633387e+02
   6.120166e+02  -9.236368e+00
   2.563216e+02   3.498947e+02
  -3.368912e+02   2.831724e+02
  -4.908018e+02  -3.236183e+01
  -2.776671e+02  -4.021419e+02
   2.410151e+02  -4.271286e+02
   3.994454e+02  -1.438059e+02
   2.841124e+02   1.241836e+02
   1.781406e+02   2.743728e+02
  -1.574948e+01   2.169690e+02
  -1.439749e+01  -1.225908e+02
   1.644718e+02  -2.514985e+02
   2.781276e+02   1.119748e+02
   5.554664e+01   5.060705e+02
  -1.595359e+02   4.630180e+02
  -3.912312e+02   5.888701e+01
  -1.769284e+02  -3.007935e+02
   8.338970e+01  -2.054762e+02
   2.405297e+02   2.714638e+02
  -8.496113e+01   5.000075e+02
  -4.440170e+02   7.270333e+00
  -5.462171e+02  -2.802089e+02
  -1.882708e+02  -5.042873e+02
   3.036922e+02  -3.132410e+02
   5.523682e+02   3.364091e+01
   3.574805e+02   2.356194e+02
  -2.022040e+01   2.990625e+02
  -2.959275e+02   7.956555e+01
  -2.155817e+02  -4.060928e+01
   1.695332e+01  -4.075930e+01
   5.740107e+01   7.857117e+01
  -1.375028e+02   6.998333e+01
  -2.137375e+02  -8.166766e+01
  -1.254300e+02  -1.882805e+02
   1.268934e+02  -2.553944e+02
   3.052642e+02  -1.185329e+02
   2.382402e+02   9.868080e+01
   4.959960e+00   3.016544e+02
  -2.372072e+02   3.521959e+02
  -3.175635e+02   2.156384e+02
  -2.033891e+02  -1.214730e+02
  -1.162758e+02  -4.078515e+02
   4.893303e+01  -3.051215e+02
   4.240156e+01  -1.684035e+02
   2.999588e+01  -9.565484e+01
   1.270174e+02  -1.377262e+02
   2.529593e+02  -9.611354e+01
   2.128809e+02   7.589059e+01
   1.112638e+02   1.995351e+02
  -9.112512e+01   2.222484e+02
  -1.886002e+02  -2.673457e+01
  -1.613643e+02  -2.179184e+02
   6.377271e+01  -2.446009e+02
   2.226239e+02  -5.105448e+01
   2.849520e+02   9.350253e+01
   1.775355e+02   2.554830e+02
  -3.486714e+01   2.172270e+02
  -1.516445e+02   1.449330e+02
  -1.285961e+02   9.158235e+01
  -1.164782e+02   6.686974e+01
  -2.440783e+02   9.694889e+01
  -4.083921e+02  -6.669876e+01
  -3.565655e+02  -2.681589e+02
   1.870935e+01  -4.225556e+02
   4.089697e+02  -4.257189e+02
   4.442268e+02  -2.054867e+02
   2.850615e+02   4.877653e+01
   4.642916e+01   2.619775e+02
  -7.362117e+01   2.101050e+02
  -1.886994e+01   3.836437e+01
   9.574147e+01  -7.225523e+01
   1.294712e+02   2.220569e+01
   4.216014e+01   1.703526e+02
  -9.525576e+01   1.102059e+02
  -9.730923e+01  -5.605423e+01
   1.555686e+01  -1.446703e+02
   1.406705e+02  -2.811482e+01
   1.666086e+02   2.037617e+02
  -7.717525e+00   3.424621e+02
  -2.082252e+02   2.019140e+02
  -3.374986e+02   4.718532e+00
  -2.899241e+02  -2.065960e+02
  -8.903774e+01  -2.765570e+02
   1.202352e+02  -1.420954e+02
   1.298251e+02  -1.788033e+01
   4.017298e+01   1.519275e+01
  -5.912213e+01  -5.769368e+01
  -1.450959e+01  -1.089735e+02
   1.091276e+02  -7.994053e+01
   1.520043e+02   2.817235e+00
   2.513626e+01   5.807047e+01
  -6.375842e+01  -4.426205e+00
  -3.624937e+01  -7.477950e+01
   1.246391e+02  -7.163216e+01
   2.966278e+02  -3.281657e+01
   2.827606e+02   1.511075e+02
   5.598757e+01   2.361611e+02
  -1.481866e+02   2.474693e+02
  -2.401052e+02   8.646601e+01
  -1.270023e+02  -1.615510e+01
   2.260547e+01  -7.815611e+01
   5.624846e+01   9.728335e+00
  -3.999226e+01   7.998331e+01
  -1.628784e+02   6.083867e+01
  -1.997276e+02  -9.463282e+01
  -6.502958e+01  -1.755194e+02
   6.819891e+01  -1.598220e+02
   1.239318e+02  -4.851619e+01
   4.333573e+01   3.479074e+01
  -4.047450e+01  -8.790346e+00
  -4.573989e+01  -8.982099e+01
   8.509955e+01  -1.244999e+02
   2.003277e+02  -3.537579e+01
   1.688427e+02   9.652773e+01
   6.406261e+00   1.982906e+02
  -1.335714e+02   1.893278e+02
  -1.712424e+02   1.694188e+01
  -6.660438e+01  -9.424774e+01
   4.433303e+01  -9.356212e+01
   6.883282e+01  -3.595796e+01
   8.034860e+00   2.456246e+01
  -3.354331e+01   1.096465e+01
   8.414875e+00  -2.349260e+01
   8.246052e+01  -8.574398e+00
   1.053912e+02   8.644674e+01
   3.662851e+01   1.616608e+02
  -1.158104e+02   1.625021e+02
  -2.325135e+02   3.130084e+01
  -2.034663e+02  -1.253952e+02
  -5.541380e+01  -2.271016e+02
   7.920479e+01  -1.515023e+02
   1.261345e+02  -3.915650e+01
   6.962817e+01   3.043641e+01
   2.944395e+01   1.967056e+01
   4.658364e+01  -1.335005e+01
   7.788293e+01  -9.241109e+00
   6.074260e+01   5.863167e+01
  -3.675913e+01   1.054940e+02
  -1.202354e+02   8.480277e+01
  -1.114685e+02  -3.753067e+01
   1.076727e+01  -1.164651e+02
   1.490471e+02  -8.436731e+01
   1.972716e+02   2.891653e+01
   1.015998e+02   1.573095e+02
  -8.055035e+01   2.546738e+02
  -2.204378e+02   1.088889e+02
  -2.560147e+02  -5.926791e+01
  -1.016344e+02  -1.605448e+02
   8.742916e+00  -1.411083e+02
   8.917942e+01  -7.250144e+01
   6.802592e+01  -6.382620e+01
   4.740380e+01  -9.454354e+01
   8.797988e+01  -8.331787e+01
   1.334306e+02   1.115747e+01
   1.216060e+02   1.332232e+02
   3.973764e+01   1.954443e+02
  -8.640192e+01   1.514842e+02
  -1.686039e+02   2.317968e+01
  -1.324972e+02  -8.464058e+01
  -2.262563e+01  -1.436154e+02
   6.257751e+01  -7.694146e+01
   6.042943e+01   1.852827e+00
   1.465184e+00   4.977439e+01
  -2.076639e+01   3.675910e+01
   3.153148e+01   7.758137e+00
   8.087366e+01   1.210449e+01
   4.386310e+01   2.936273e+01
  -7.171246e+01   4.600231e+01
  -1.641496e+02   1.917263e+01
  -1.458030e+02  -5.026093e+01
  -1.532582e+01  -8.900837e+01
   1.125181e+02  -7.288047e+01
   1.302370e+02  -1.669928e+01
   4.244473e+01   5.472797e+01
  -4.401613e+01   4.890205e+01
  -7.916607e+01  -2.515227e-01
  -2.396139e+01  -7.232538e+01
   3.236701e+01  -7.517839e+01
   6.902963e+01  -9.993588e+00
   4.738380e+01   4.618160e+01
   4.557806e+01   3.862972e+01
   5.415974e+01  -6.120631e+00
   6.738103e+01  -4.298600e+00
   4.847512e+01   6.602269e+01
  -2.197872e+01   1.314107e+02
  -1.098363e+02   1.635384e+02
  -1.796433e+02   4.334780e+01
  -1.480947e+02  -8.594807e+01
  -2.607419e+00  -1.279870e+02
   8.935137e+01  -5.914927e+01
   5.900457e+01   6.052663e+00
  -5.228663e+01   2.788591e+01
  -1.352899e+02  -3.426928e+01
  -8.078413e+01  -9.992016e+01
   7.940280e+01  -9.177055e+01
   1.651267e+02  -7.117765e+01
   1.582266e+02  -3.293268e+00
   2.920718e+01   8.594154e+01
  -6.277395e+01   5.488804e+01
  -4.830495e+01   1.616683e+00
   2.817599e+01  -3.386373e+01
   9.313066e+01   3.413326e+00
   2.577691e+01   1.065374e+02
  -4.751743e+01   1.617212e+02
  -1.522124e+02   8.327313e+01
  -1.316247e+02  -7.264396e+01
  -2.032376e+01  -1.880792e+02
   4.599232e+01  -1.379339e+02
   1.184661e+02   8.346136e+00
   8.754310e+01   1.028719e+02
  -2.556405e+00   1.034302e+02
  -5.464257e+01   1.366651e+01
  -4.622091e+01  -2.638960e+01
  -1.452687e+01  -4.515283e+00
  -4.551253e+00   1.695727e+01
  -2.983263e+01  -2.108946e+01
  -5.458864e+01  -8.139729e+01
  -3.942573e+01  -9.680939e+01
   4.107319e+01  -4.071473e+01
   1.190684e+02   2.661330e+01
   1.273904e+02   4.570968e+01
   2.051546e+01   4.554613e+01
  -6.560967e+01   3.448385e+01
  -8.626449e+01   5.587506e+00
  -1.811466e+01  -1.103973e+01
   3.296427e+01  -2.152092e+01
   1.787115e+01  -1.640406e+01
  -1.536709e+01   6.041767e+00
   4.226529e+00   4.917339e+00
   5.934042e+01  -3.536456e+00
   8.918797e+01   1.018825e+01
   2.885656e+01   7.873103e+01
  -8.479052e+01   1.374802e+02
  -1.744669e+02   6.429715e+01
  -1.341998e+02  -5.148022e+01
  -5.301795e+01  -1.623037e+02
   5.939394e+01  -1.714982e+02
   1.106089e+02  -6.575879e+01
   8.145088e+01   7.354766e+00
   2.862523e+01   3.535744e+01
   2.776137e+00   1.406196e+01
   1.410946e+01   5.751909e+00
   3.281972e+01   4.368687e+01
   2.770776e+01   8.598674e+01
  -2.128157e+01   7.209019e+01
  -7.804069e+01  -1.641015e+01
  -9.806373e+01  -9.300613e+01
  -2.721300e+01  -1.004089e+02
   6.960329e+01  -3.535185e+01
   1.088832e+02   3.611111e+01
   5.445332e+01   9.527642e+01
  -5.450505e+01   7.499022e+01
  -9.695888e+01   8.036836e+00
  -4.716584e+01  -5.146649e+01
   3.009713e+01  -6.105699e+01
   3.450225e+01  -2.817992e+01
  -2.279653e+01   5.235029e+00
  -6.962391e+01   1.434517e+01
  -1.405898e+01  -2.882130e+01
   6.408761e+01  -6.986331e+01
   1.104519e+02  -6.140362e+01
   7.176930e+01   1.303173e+01
  -1.573041e+01   8.004479e+01
  -5.056168e+01   9.114457e+01
  -4.834390e+01   1.226861e+01
  -1.769721e+01  -5.088487e+01
   1.773460e+01  -4.062150e+01
   3.236896e+01   6.304436e+00
   3.714747e+01   4.622079e+01
   4.415732e-01   3.621634e+01
  -2.811678e+01  -1.601710e+00
  -4.594182e+01  -2.196829e+01
  -1.952967e+01  -2.667900e+00
   5.073093e+00   1.732364e+01
   7.445580e+00   6.225072e+00
  -6.031797e+00  -3.134156e+01
  -6.292223e-01  -4.874383e+01
   2.432894e+01  -2.122638e+01
   4.046890e+01   3.208649e+01
   2.180916e+01   5.638853e+01
  -3.240691e+01   2.876613e+01
  -6.261043e+01  -2.554991e+01
  -1.802110e+01  -5.607710e+01
   5.588144e+01  -3.680839e+01
   8.761153e+01   1.176822e+01
   5.409559e+01   3.396044e+01
  -3.080363e+01   4.902958e+01
  -5.722153e+01   3.865384e+01
  -2.585760e+01   1.260625e+01
   2.523251e+01  -1.849504e+00
   3.461132e+01   2.985515e+00
  -1.945535e+01   2.762584e+01
  -6.522245e+01   2.122116e+01
