
 $NMID
 id='ANONYMOUS ', fmtdat='(2E16.6)'
 volume=1.0
 tramp=1.0
 $END
  -3.685525e+03  -2.346679e+02
  -2.264352e+03  -1.426194e+03
   2.267357e+02  -1.605281e+03
   1.021100e+03  -1.215397e+03
   7.835056e+02  -2.804543e+02
   1.512345e+02   2.306496e+02
  -3.109317e+02  -1.385257e+02
  -8.746487e+01  -4.779668e+02
   4.976793e+02  -4.726235e+02
   7.018702e+02   3.570646e+01
   3.860170e+02   6.606632e+02
   4.631128e+00   4.588870e+02
  -2.448485e+02   2.604682e+02
  -1.732498e+02  -3.113621e+02
   9.659446e+01  -4.605427e+02
   2.661862e+02  -1.173330e+02
   3.081304e+02   5.273247e+02
  -8.701657e+01   5.806594e+02
  -4.148720e+02   2.292311e+02
  -4.432877e+02  -1.812768e+02
  -1.356888e+02  -3.292639e+02
   1.345560e+02  -2.427923e+02
   3.623753e+01  -7.687232e+01
  -1.648494e+02  -1.070533e+02
  -2.518735e+02  -2.719582e+02
   1.093475e+01  -3.441011e+02
   5.865546e+02  -1.952001e+02
   5.743317e+02   2.823172e+02
   2.274821e+02   3.699008e+02
  -3.383682e+02   2.270378e+02
  -4.927780e+02  -1.073114e+02
  -1.870058e+02  -3.489937e+02
   2.575469e+02  -3.188458e+02
   4.413388e+02  -5.166595e+01
   2.678793e+02   1.585098e+02
   1.392553e+02   2.277962e+02
  -2.762106e+01   1.857217e+02
   5.986214e+01  -1.127284e+02
   2.215663e+02  -2.266237e+02
   1.937014e+02   1.900569e+02
  -9.745304e+01   5.066079e+02
  -2.214933e+02   3.873531e+02
  -3.066421e+02   1.129240e+02
  -6.883597e+01  -2.114030e+02
   1.172885e+02  -1.490067e+02
   1.901526e+02   2.824431e+02
  -8.930085e+01   3.758887e+02
  -4.017539e+02   6.733265e+01
  -3.739466e+02  -3.343879e+02
  -1.914927e+02  -4.794977e+02
   2.790351e+02  -2.368528e+02
   4.957348e+02   3.316377e+01
   2.554590e+02   2.257394e+02
  -4.786762e+01   2.357714e+02
  -2.401105e+02   9.761158e+01
  -2.288171e+02   2.703524e+01
  -5.630235e+00  -3.058191e+01
   3.944705e+01   3.216685e+01
  -1.023676e+02   3.858376e+01
  -1.773633e+02  -1.079208e+02
  -9.385018e+01  -1.589223e+02
   1.545210e+02  -2.255987e+02
   3.144016e+02  -1.232144e+02
   2.454592e+02   9.438845e+01
  -3.865268e+01   2.884528e+02
  -2.319230e+02   3.350006e+02
  -3.372212e+02   1.822928e+02
  -2.302049e+02  -1.261602e+02
  -1.262698e+01  -4.029073e+02
  -4.682204e+00  -2.751950e+02
  -5.280266e+00  -1.754798e+02
   2.147811e+01  -1.106567e+02
   1.439468e+02  -1.210718e+02
   2.257195e+02  -4.519699e+01
   1.922840e+02   1.250471e+02
   1.021278e+02   2.358768e+02
  -6.451079e+01   1.672198e+02
  -1.632675e+02  -7.925504e+01
  -6.687312e+01  -2.319407e+02
   5.247562e+01  -1.902209e+02
   2.215165e+02  -4.495965e+01
   2.862832e+02   1.412671e+02
   8.668201e+01   2.754526e+02
  -3.570676e+01   2.067220e+02
  -1.340836e+02   1.235515e+02
  -1.658802e+02   1.028877e+02
  -1.353710e+02   7.165198e+01
  -3.128386e+02   6.573622e+01
  -4.158653e+02  -1.079647e+02
  -3.324008e+02  -3.064860e+02
  -6.415052e+00  -3.578633e+02
   4.233337e+02  -3.689082e+02
   4.147576e+02  -1.906618e+02
   2.641103e+02   4.937906e+01
   1.973132e+01   2.552832e+02
  -2.842625e+01   1.858764e+02
   5.786790e+00   3.269201e+01
   1.282070e+02  -2.213865e+01
   1.267966e+02   5.893314e+01
   1.342909e+01   1.569597e+02
  -1.003069e+02   7.443601e+01
  -1.038432e+02  -5.069881e+01
   1.355617e+01  -1.198899e+02
   1.822797e+02   2.257509e+01
   1.903083e+02   2.820729e+02
   2.875688e+01   3.628592e+02
  -2.195954e+02   2.147545e+02
  -3.238361e+02  -1.001761e+01
  -2.241817e+02  -2.298146e+02
  -5.373361e+01  -2.437843e+02
   1.336981e+02  -1.239315e+02
   1.370219e+02  -5.101023e+00
   1.960899e+01   1.273407e+01
  -5.173223e+01  -6.873293e+01
   1.140767e+01  -1.050052e+02
   1.063849e+02  -4.580111e+01
   1.325480e+02   1.371993e+01
   2.127209e+01   4.433272e+01
  -8.503499e+01  -1.169068e+01
  -4.189357e+01  -7.840909e+01
   1.760083e+02  -9.073007e+01
   2.887639e+02   3.657285e+01
   2.830693e+02   2.021003e+02
   1.550931e+01   2.403473e+02
  -1.791899e+02   2.484462e+02
  -2.535147e+02   7.950016e+01
  -1.316979e+02  -4.852172e+01
   1.075181e+01  -7.860749e+01
   6.962388e+01   1.068429e+01
  -4.991634e+01   9.038597e+01
  -1.629260e+02   8.185518e-01
  -1.544588e+02  -9.199983e+01
  -7.094054e+01  -1.661730e+02
   7.640730e+01  -1.237732e+02
   1.322444e+02  -1.441522e+01
   3.400935e+01   3.486525e+01
  -4.849678e+01  -2.198478e+01
  -2.736354e+01  -1.085653e+02
   1.056033e+02  -1.395864e+02
   2.115769e+02  -3.125421e+01
   1.503580e+02   7.553287e+01
   5.146385e+00   1.851000e+02
  -1.772970e+02   1.459126e+02
  -1.442747e+02   7.266626e+00
  -5.069150e+01  -8.370515e+01
   4.270587e+01  -8.560839e+01
   7.105978e+01  -3.062425e+01
  -4.258083e+00   1.943374e+01
  -3.829438e+01   5.081466e+00
   7.252967e+00  -2.696556e+01
   8.864076e+01   1.226714e+00
   1.029750e+02   8.932790e+01
   9.050403e+00   1.960531e+02
  -1.468961e+02   1.241304e+02
  -2.123047e+02   3.603712e+00
  -1.941262e+02  -1.567853e+02
  -9.457455e+00  -2.214378e+02
   1.025227e+02  -1.338941e+02
   1.207018e+02  -3.148519e+01
   6.318062e+01   2.745741e+01
   2.381248e+01   2.607995e+01
   5.666042e+01  -1.397939e+01
   8.923122e+01  -2.667849e+00
   5.884011e+01   5.644401e+01
  -4.276564e+01   9.766946e+01
  -1.342207e+02   7.286483e+01
  -1.043406e+02  -4.756558e+01
   6.609600e+00  -1.284157e+02
   1.604889e+02  -8.407275e+01
   1.993453e+02   8.677279e+01
   1.206535e+02   2.112155e+02
  -1.142437e+02   2.462322e+02
  -2.517832e+02   8.087403e+01
  -2.329808e+02  -1.036650e+02
  -9.453079e+01  -1.897587e+02
   4.132189e+01  -1.368578e+02
   6.873441e+01  -9.312196e+01
   6.552464e+01  -7.804955e+01
   5.518581e+01  -8.917140e+01
   9.134654e+01  -7.659638e+01
   1.239377e+02   3.125340e+00
   1.336827e+02   1.581340e+02
   5.590173e+01   2.109745e+02
  -8.322953e+01   1.458200e+02
  -1.518689e+02   1.139093e+01
  -1.194583e+02  -1.434176e+02
  -2.461108e+01  -1.667253e+02
   5.755771e+01  -8.215208e+01
   5.709803e+01   1.931879e+01
   1.304406e+00   4.849624e+01
  -2.632885e+01   3.674830e+01
   2.041740e+01   1.084965e+01
   8.109273e+01   2.667977e+01
   4.981752e+01   3.903193e+01
  -8.278713e+01   3.817743e+01
  -1.553366e+02  -2.517056e+01
  -1.354522e+02  -6.181010e+01
  -3.858768e-01  -9.776483e+01
   1.239181e+02  -9.694507e+01
   1.434487e+02   8.851973e+00
   4.413725e+01   5.333736e+01
  -5.750407e+01   3.774629e+01
  -6.728696e+01  -1.037103e+01
  -2.923892e+01  -6.459155e+01
   3.256593e+01  -5.456843e+01
   6.693217e+01  -4.972229e+00
   5.245946e+01   4.354600e+01
   4.507990e+01   3.928863e+01
   5.776823e+01  -8.207265e-01
   5.705249e+01  -2.251232e+00
   4.279795e+01   6.815950e+01
  -2.618619e+01   1.769916e+02
  -1.092250e+02   1.420481e+02
  -1.539633e+02   5.802445e+00
  -1.157933e+02  -9.781869e+01
   1.899288e+00  -1.260089e+02
   8.480061e+01  -7.164535e+01
   5.621429e+01   1.434855e+01
  -5.545599e+01   2.324160e+01
  -1.379073e+02  -3.677937e+01
  -6.484331e+01  -1.113329e+02
   8.185256e+01  -1.119054e+02
   2.004117e+02  -4.880629e+01
   1.596543e+02   3.327948e+01
   2.409791e+01   7.527774e+01
  -5.494010e+01   6.316411e+01
  -4.729640e+01  -6.144924e+00
   3.224788e+01  -2.843483e+01
   8.483611e+01   8.385162e+00
   2.939200e+01   1.086091e+02
  -1.038072e+02   1.412293e+02
  -1.602352e+02   8.488827e+01
  -1.130991e+02  -8.573643e+01
  -1.014864e+01  -1.873843e+02
   6.238342e+01  -1.121314e+02
   1.162428e+02   1.179107e+01
   5.234575e+01   1.190726e+02
  -2.395507e+01   9.532921e+01
  -5.624664e+01   7.397829e+00
  -3.951369e+01  -2.586731e+01
  -1.601628e+01  -8.292487e+00
  -5.064948e+00   1.529921e+01
  -2.898184e+01  -1.642844e+01
  -4.829157e+01  -6.883698e+01
  -3.534547e+01  -9.209608e+01
   5.694220e+01  -3.390754e+01
   1.143258e+02   3.135235e+01
   1.147682e+02   7.134005e+01
   1.603514e+01   5.053192e+01
  -7.129855e+01   3.734123e+01
  -8.105781e+01   1.035622e+00
  -1.532537e+01  -1.122656e+01
   3.818737e+01  -2.036238e+01
   1.932140e+01  -1.119597e+01
  -1.311042e+01   5.039882e+00
   2.146160e+00   5.373467e+00
   5.934303e+01  -7.094081e+00
   9.176608e+01   1.784486e+01
   1.660787e+01   7.207819e+01
  -1.000583e+02   1.290126e+02
  -1.649238e+02   2.858891e+01
  -1.613065e+02  -4.443766e+01
  -3.684392e+01  -1.402682e+02
   6.030471e+01  -1.500438e+02
   9.835350e+01  -6.142517e+01
   7.073655e+01   9.800738e+00
   2.022751e+01   3.608764e+01
   4.055655e+00   1.516035e+01
   1.545712e+01   8.979810e+00
   3.155981e+01   4.077023e+01
   8.126541e+00   8.806021e+01
  -2.431839e+01   7.519990e+01
  -6.419732e+01  -5.983179e-01
  -8.727378e+01  -9.572797e+01
  -2.066345e+01  -1.038951e+02
   6.211853e+01  -2.456265e+01
   8.301568e+01   4.472050e+01
   4.050902e+01   9.945678e+01
  -6.350181e+01   6.759584e+01
  -9.865541e+01  -1.298334e+01
  -3.676795e+01  -5.274327e+01
   3.447382e+01  -7.263077e+01
   4.128631e+01  -2.991084e+01
  -1.919529e+01   2.836809e+00
  -6.119708e+01   2.876489e+00
  -2.014369e+01  -2.766212e+01
   5.960629e+01  -5.682665e+01
   1.290924e+02  -4.672537e+01
   6.922892e+01   1.752615e+01
  -1.417092e+01   8.384596e+01
  -6.986174e+01   7.038523e+01
  -4.043498e+01   1.564473e+01
  -8.311434e+00  -5.365468e+01
   1.923346e+01  -5.072597e+01
   3.729861e+01   1.005683e+01
   3.786368e+01   5.598569e+01
   2.390104e+00   3.584990e+01
  -3.155664e+01   2.699187e+00
  -3.995611e+01  -2.411532e+01
  -1.997280e+01  -7.498737e+00
   3.554441e+00   1.996537e+01
   8.246437e+00   7.628281e+00
  -5.842207e+00  -2.785251e+01
  -1.452079e+01  -5.511796e+01
   2.511008e+01  -2.441467e+01
   3.780233e+01   2.482934e+01
   1.616413e+01   6.252453e+01
  -3.699110e+01   1.942731e+01
  -6.042838e+01  -2.668958e+01
  -1.966126e+01  -4.672395e+01
   5.568646e+01  -3.071264e+01
   7.941351e+01   2.295425e+01
   4.908045e+01   4.540596e+01
  -2.877672e+01   4.925186e+01
  -5.511863e+01   3.835079e+01
  -2.654409e+01   5.090185e+00
   2.027952e+01  -6.525152e-01
   3.774284e+01  -6.394926e-01
  -2.369874e+01   2.234907e+01
  -6.556466e+01   1.336290e+01
