
 $NMID
 id='ANONYMOUS ', fmtdat='(2E16.6)'
 volume=1.0
 tramp=1.0
 $END
   1.972141e+03   5.944659e+01
   2.006185e+03   1.167363e+03
  -7.357168e+00   1.390912e+03
  -1.043709e+03   1.460372e+03
  -1.015798e+03   3.980457e+02
  -2.491847e+02  -3.677896e+02
   2.352256e+02  -2.244432e+02
   1.561270e+02   2.959322e+02
  -1.563371e+02   3.091233e+02
  -4.066168e+02   1.613188e+02
  -3.942517e+02  -3.010350e+02
  -7.569700e+01  -5.305844e+02
   1.509846e+02  -1.778540e+02
   3.120248e+02   1.950845e+02
  -1.484642e+01   4.208759e+02
  -2.683662e+02   1.667353e+02
  -2.879629e+02  -2.896877e+02
   2.705975e+01  -5.914071e+02
   4.117851e+02  -3.072204e+02
   4.056979e+02   6.180303e+01
   1.445710e+02   3.062038e+02
  -8.374474e+01   2.249665e+02
  -6.415477e+01   7.303148e+01
   1.253189e+02   1.150313e+02
   1.245393e+02   2.591126e+02
  -1.126731e+02   2.621486e+02
  -4.436703e+02  -3.194210e+00
  -4.716967e+02  -1.340013e+02
  -1.648974e+02  -2.691046e+02
   7.983666e+01  -1.266604e+02
   3.557659e+02   3.214272e+01
   1.106911e+02   2.325092e+02
  -2.229503e+02   2.598556e+02
  -3.788879e+02   1.968453e+02
  -1.654673e+02  -1.213911e+02
  -1.099080e+02  -2.728827e+02
  -6.582199e+01  -1.638553e+02
  -1.467267e+01   8.337168e+01
  -2.021831e+02   8.254911e+01
  -9.052236e+01  -1.367841e+02
   5.146581e+01  -3.251833e+02
   1.158537e+02  -2.808370e+02
   2.273092e+02  -1.162152e+00
   7.269451e+01   2.039628e+02
  -6.168572e+01   1.071577e+02
  -6.080840e+01  -2.049421e+02
   4.106599e+01  -3.443134e+02
   3.359132e+02   4.874769e+00
   4.275473e+02   2.849096e+02
   1.315724e+02   2.889062e+02
  -1.767963e+02   2.153717e+02
  -4.579734e+02   1.940473e-01
  -3.437074e+02  -1.210620e+02
  -1.053311e+02  -1.653461e+02
   1.853229e+02  -1.343478e+02
   1.695316e+02  -3.947392e+01
   2.191258e+01   1.933075e+01
  -1.866723e+01  -5.972889e+01
   4.542688e+01  -2.745399e+01
   1.456522e+02   3.179752e+01
   8.127823e+01   1.566278e+02
  -1.223449e+02   2.078268e+02
  -2.912393e+02   9.982747e+01
  -2.243661e+02  -6.405535e+01
   4.195192e+01  -3.432378e+02
   2.676857e+02  -3.247403e+02
   2.543209e+02  -8.800075e+01
   1.841283e+02   1.705055e+02
   3.399701e+01   2.723192e+02
  -9.931027e+00   2.813394e+02
   2.836460e+01   1.465659e+02
  -3.817429e+01   1.278962e+02
  -1.368041e+02   1.035339e+02
  -2.466260e+02  -2.532422e+00
  -2.184472e+02  -1.755300e+02
  -5.962071e+01  -2.029539e+02
   8.778744e+01  -2.019507e+02
   1.465690e+02   6.673486e+01
   7.360816e+01   1.998701e+02
  -7.026492e+01   2.131203e+02
  -1.839180e+02   3.652707e+01
  -2.604207e+02  -1.232512e+02
  -1.514635e+02  -2.127400e+02
   4.378363e+01  -2.202643e+02
   1.345856e+02  -1.579780e+02
   1.561834e+02  -8.374161e+01
   1.407114e+02  -7.079334e+01
   2.324114e+02  -2.261015e+01
   3.281614e+02   1.147007e+02
   2.627874e+02   2.337023e+02
   7.072212e+00   3.501151e+02
  -3.118673e+02   3.183503e+02
  -4.520584e+02   1.064526e+02
  -2.094505e+02  -6.522518e+01
   3.059586e+01  -1.981790e+02
   5.731159e+01  -1.609639e+02
  -4.430590e+00  -3.566323e+01
  -9.925702e+01  -1.335631e-01
  -9.270110e+01  -3.402729e+01
  -1.571455e+01  -7.547580e+01
   4.374206e+01  -5.300968e+01
   5.556956e+01   2.259770e+01
  -2.233703e+01   9.550272e+01
  -1.094167e+02   9.140822e+00
  -1.186166e+02  -1.737771e+02
   2.039061e+01  -2.688055e+02
   1.999726e+02  -1.810795e+02
   2.986745e+02   3.061378e+01
   2.595283e+02   2.568495e+02
   4.245993e+01   2.023585e+02
  -1.280116e+02   1.027518e+02
  -1.118907e+02   1.588026e+01
  -2.322451e+01  -5.922803e+00
   3.335236e+01   6.511018e+01
  -9.489349e+00   6.432476e+01
  -9.996992e+01   4.098388e+01
  -9.452789e+01  -4.092854e+01
  -7.829647e+00  -4.748460e+01
   6.351362e+01   2.584029e+01
   3.517462e+01   8.973737e+01
  -1.467149e+02   6.125816e+01
  -2.819064e+02  -2.750090e+01
  -2.081715e+02  -1.539259e+02
   3.147099e+01  -2.179474e+02
   1.483337e+02  -1.798376e+02
   2.317352e+02  -6.837934e+01
   9.461751e+01   3.332606e+01
  -2.421817e+01   5.433748e+01
  -4.177683e+01  -3.381342e+00
   3.718769e+01  -4.606726e+01
   1.532875e+02  -5.773074e+01
   1.488210e+02   5.515988e+01
   3.771405e+01   1.616984e+02
  -9.016022e+01   8.798504e+01
  -1.020616e+02   9.023010e+00
  -3.033071e+01  -1.729679e+01
   4.507041e+01   2.036916e+01
   1.901982e+01   1.111023e+02
  -1.037732e+02   1.106438e+02
  -1.928811e+02   1.261859e+00
  -1.612465e+02  -1.338842e+02
  -2.268423e+01  -1.902821e+02
   1.176888e+02  -1.222055e+02
   1.640363e+02  -4.021719e+00
   4.631020e+01   5.942855e+01
  -4.439586e+01   7.388418e+01
  -5.680106e+01   2.375357e+01
   6.711210e+00  -1.796257e+01
   3.835493e+01  -8.850960e+00
  -6.731471e+00   2.763443e+01
  -9.200179e+01   1.859265e+00
  -1.050978e+02  -8.535588e+01
   1.149021e+01  -1.428208e+02
   1.432123e+02  -1.294730e+02
   2.043366e+02  -2.935230e+01
   1.492612e+02   1.526099e+02
   7.301661e+00   2.158195e+02
  -8.351172e+01   1.247923e+02
  -1.058734e+02   4.097713e+01
  -6.824945e+01  -3.698151e+01
  -3.319472e+01  -2.387412e+01
  -4.650312e+01   1.191175e+01
  -8.980836e+01  -5.283842e+00
  -5.492835e+01  -5.604752e+01
   2.800817e+01  -1.062981e+02
   1.076069e+02  -8.181481e+01
   9.856791e+01   3.847114e+01
  -6.629287e+00   1.119813e+02
  -1.684539e+02   6.258732e+01
  -1.801594e+02  -7.819064e+01
  -6.047912e+01  -1.558560e+02
   1.276458e+02  -1.791857e+02
   2.168678e+02  -6.750102e+01
   1.723812e+02   7.855953e+01
   7.555588e+01   1.429759e+02
  -1.931820e+01   1.071592e+02
  -6.889616e+01   5.017937e+01
  -4.235472e+01   5.872182e+01
  -5.327025e+01   7.881546e+01
  -7.096189e+01   7.247950e+01
  -1.281329e+02  -1.642547e+01
  -1.056761e+02  -1.215982e+02
  -5.402293e+01  -1.958863e+02
   1.012329e+02  -1.484550e+02
   1.134438e+02  -1.686093e+01
   1.026037e+02   1.149780e+02
  -6.812447e+00   1.391275e+02
  -5.921831e+01   5.724367e+01
  -5.394444e+01  -1.093548e+01
   9.224605e+00  -4.907232e+01
   2.595075e+01  -2.391705e+01
  -2.839824e+01  -2.180912e+00
  -7.437893e+01  -1.772542e+01
  -4.885934e+01  -3.578205e+01
   6.664142e+01  -2.994706e+01
   1.531861e+02   8.399803e+00
   1.207846e+02   6.226894e+01
  -1.525709e+01   8.368562e+01
  -1.067094e+02   5.127404e+01
  -1.167563e+02  -1.526988e+00
  -2.886525e+01  -4.698998e+01
   4.752540e+01  -3.498479e+01
   7.008653e+01   1.443024e+01
   2.550338e+01   5.961894e+01
  -2.815845e+01   6.105150e+01
  -5.873316e+01   3.484751e+00
  -5.685162e+01  -4.462598e+01
  -4.812000e+01  -4.757295e+01
  -3.576279e+01   4.350990e+00
  -5.807688e+01   2.832015e+00
  -4.112982e+01  -6.846184e+01
   3.658110e+01  -1.121102e+02
   1.090207e+02  -1.051092e+02
   1.905220e+02  -2.247779e+01
   9.929009e+01   9.662288e+01
   8.752255e+00   1.169779e+02
  -7.848262e+01   6.594271e+01
  -5.247483e+01  -4.935559e+00
   5.347272e+01  -1.568179e+01
   1.045373e+02   4.827048e+01
   4.703439e+01   1.013762e+02
  -7.188900e+01   9.327578e+01
  -1.348344e+02   2.741447e+01
  -1.249023e+02  -2.200557e+01
  -1.915793e+01  -7.632581e+01
   5.213972e+01  -6.087977e+01
   4.186305e+01   2.122183e+00
  -3.273500e+01   2.903341e+01
  -6.865399e+01  -1.749067e+01
  -5.032778e+01  -9.135808e+01
   6.161981e+01  -1.290291e+02
   1.367375e+02  -6.189847e+01
   9.531433e+01   7.037689e+01
   1.980592e+01   1.505638e+02
  -6.555202e+01   1.455589e+02
  -8.385835e+01  -1.574734e+01
  -3.835221e+01  -9.750397e+01
   1.848209e+01  -9.375940e+01
   4.103540e+01  -1.184575e+01
   3.103579e+01   2.454579e+01
   1.254396e+01   1.675589e+00
   7.110507e+00  -1.134591e+01
   2.357008e+01   2.341610e+01
   4.124068e+01   7.729437e+01
   2.895453e+01   7.524062e+01
  -4.682674e+01   2.622126e+01
  -1.084784e+02  -1.627001e+01
  -9.862640e+01  -5.089692e+01
  -1.065207e+01  -4.788497e+01
   5.433930e+01  -1.189909e+01
   7.822078e+01   5.315652e+00
   1.735734e+01   1.247670e+01
  -2.851921e+01   1.736677e+01
  -1.958524e+01   9.074632e+00
   1.016530e+01  -7.751083e+00
  -3.326843e+00  -1.580028e+00
  -5.706947e+01   9.857049e+00
  -5.439206e+01  -2.201472e+01
  -1.285696e+01  -7.774462e+01
   8.134535e+01  -1.155787e+02
   1.713859e+02  -4.899823e+01
   1.274568e+02   5.062969e+01
   6.540380e+01   1.498875e+02
  -5.972320e+01   1.237899e+02
  -1.172635e+02   5.124010e+01
  -7.317004e+01  -1.622084e+01
  -2.349021e+01  -2.860064e+01
  -5.986404e+00  -1.328778e+01
  -1.304588e+01  -9.136365e+00
  -2.718102e+01  -3.722087e+01
  -2.142701e+01  -7.454482e+01
   2.355391e+01  -5.259737e+01
   6.175590e+01   5.939826e+00
   6.391771e+01   7.229394e+01
   2.363487e+01   9.275847e+01
  -6.556498e+01   4.061366e+01
  -8.017035e+01  -4.055776e+01
  -3.277227e+01  -7.209488e+01
   3.456078e+01  -6.196931e+01
   8.825337e+01   5.569686e+00
   3.519555e+01   5.458182e+01
  -2.373459e+01   5.418103e+01
  -4.033499e+01   2.373358e+01
   2.149329e+01  -9.733044e+00
   6.348976e+01  -1.692936e+01
   1.353187e+01   2.247979e+01
  -5.897033e+01   6.635336e+01
  -1.091821e+02   3.521870e+01
  -6.018053e+01  -1.548060e+01
   1.360315e+01  -8.458732e+01
   6.468037e+01  -7.154182e+01
   4.219973e+01  -2.098707e+01
   1.031670e+01   4.522275e+01
  -2.315936e+01   5.062933e+01
  -2.950518e+01  -8.209701e+00
  -2.803632e+01  -4.378570e+01
  -2.107019e+00  -3.735887e+01
   2.462889e+01   2.869938e+00
   3.747693e+01   2.530638e+01
   1.847633e+01   4.882413e+00
  -4.598282e+00  -2.186030e+01
  -2.937457e+00  -1.114423e+01
   8.894822e+00   2.494413e+01
   1.015865e+01   3.921060e+01
  -2.116738e+01   2.010239e+01
  -4.010903e+01  -2.001278e+01
  -2.082779e+01  -4.796818e+01
   3.064466e+01  -2.710715e+01
   5.650818e+01   2.312708e+01
   2.434673e+01   5.468276e+01
  -5.503049e+01   2.715913e+01
  -7.741687e+01  -5.081533e+00
  -4.346663e+01  -4.312838e+01
   2.096154e+01  -3.846909e+01
   5.999676e+01  -3.174676e+01
   2.461761e+01  -9.641894e+00
  -2.261805e+01   3.269875e+00
  -2.441843e+01   1.144608e+00
   1.845403e+01  -1.767611e+01
   6.931655e+01  -2.159595e+01
