
 $NMID
 id='ANONYMOUS ', fmtdat='(2E16.6)'
 volume=1.0
 tramp=1.0
 $END
   8.147139e+02  -3.749713e+02
   7.479863e+02  -4.387404e+01
   8.741564e+01   1.135321e+02
  -1.407265e+02   5.952013e+02
  -2.698955e+02   1.004307e+02
  -2.565673e+02  -3.625538e+01
   5.320742e+01  -1.916579e+02
   3.616708e+02  -4.897794e+00
  -6.939065e+01   2.007455e+02
  -2.235748e+02   1.515794e+02
  -3.008397e+02   2.206060e+01
  -1.153244e+01  -2.223966e+02
   1.057041e+02  -1.662104e+02
   6.260164e+01  -6.269858e+01
  -4.312039e+01   8.178728e+01
  -2.970573e+01   6.134174e+01
  -1.851183e+02  -2.899605e+01
  -3.468564e+01  -2.248450e+02
   9.513733e+01  -1.599027e+02
   1.459832e+02  -3.966196e+01
   5.969852e+01   6.767568e+01
  -3.181812e+01   7.890981e+01
   1.466211e+01   1.738662e+01
   1.312811e+01   3.202032e+01
   1.393601e+02  -1.343125e+01
   2.763368e+00   2.741027e+01
  -9.873606e+01   7.141775e+01
  -1.382011e+02   1.587117e+01
  -4.738881e+01  -5.315550e+01
  -1.339699e+00  -3.158219e+01
   1.023387e+02  -1.724873e+01
   7.496976e+01   6.508832e+01
  -6.925986e+01   1.281172e+02
  -7.856204e+00   9.873130e+01
  -1.241065e+02   3.487456e+01
  -1.529497e+01  -3.269335e+01
  -7.008535e+01  -6.349071e+01
  -1.634393e+01   1.768350e+01
   3.220759e-01   7.354778e+01
  -4.685913e+01  -3.932469e+01
   3.851214e-01  -1.154039e+02
  -1.231398e+02  -5.529444e+01
   1.750607e+01  -1.259640e+02
   1.063641e+02   4.314719e+01
   7.414850e+00   5.061219e+01
  -6.875713e+01   4.941060e+01
  -9.713837e+00  -3.265766e+01
   2.287056e+01  -3.310948e+01
   1.610078e+02  -8.877471e+00
   1.434974e+02   7.139716e+01
  -4.504709e+01   2.448052e+01
  -1.024204e+02   1.500991e+01
  -8.436186e+01  -7.786060e+01
  -2.187457e-03  -3.446947e+01
  -1.735292e+01  -6.578479e+01
   5.763877e+01   1.343409e+00
   2.117912e+01   8.366069e+00
  -2.203016e+01  -5.571530e+00
  -1.256266e+01  -1.641677e+01
   5.101000e+01   1.148776e+01
   9.481324e+01   2.846149e+00
  -4.018582e+01   2.395091e+01
  -7.114652e+01   5.054892e+01
  -6.888645e+01  -1.339469e+01
  -1.278420e+01  -1.128839e+02
   8.868749e+01  -1.215271e+02
   5.311407e+01  -5.420058e+01
   6.788491e+01   3.939589e+01
   3.299434e+01   8.999830e+01
   5.026083e+01   9.769634e+01
   2.816038e+01   6.300085e+01
  -8.644382e+00   2.672184e+01
  -1.235479e+01   3.029318e+01
  -1.739929e+01   1.346586e+01
  -4.737834e+01  -1.015687e+01
  -6.692784e+00  -5.792289e+01
   2.056523e+00  -3.748766e+01
   1.628682e+01   7.461515e+00
   3.570239e+01   3.319898e+01
   1.256688e+01   4.074291e+01
  -1.505566e+01   1.574360e+01
  -8.144599e+01  -2.077013e+01
  -3.006616e+01  -5.422782e+01
  -3.063904e+01  -5.544096e+01
   2.735768e+01  -4.546082e+01
   4.482820e+01  -3.173775e+01
   3.154042e+01  -4.269990e+01
   8.171970e+01  -3.909706e+01
   7.629471e+01  -1.406487e+01
   8.478601e+01   6.096498e+01
  -2.029929e+01   9.142789e+01
  -8.729128e+01   1.283923e+02
  -6.986721e+01   9.767814e+01
  -6.863857e+01   3.321785e+01
  -1.406299e+01  -5.741856e+01
  -4.896417e+01  -7.244570e+01
   4.424143e+00  -9.373399e+00
  -1.656296e+01   1.305356e+01
  -2.488212e+01   3.371459e+00
  -1.733013e+01  -1.093567e+01
  -1.940723e+01  -5.242319e+01
   2.083324e+01  -3.424408e+01
   2.418832e+01   3.166119e+01
  -2.939369e+01   2.644168e+01
  -6.010157e+01  -5.461711e+01
  -3.642926e+01  -5.183536e+01
   1.885202e+01  -7.986433e+01
   1.246398e+02  -1.133570e+01
   9.309973e+01  -2.839035e+01
   5.683953e+01   3.085236e+01
   5.512210e+00   3.003296e+01
  -2.542484e+01   3.799132e+01
  -1.328583e+01   1.741298e-01
   1.874055e+01   5.242286e+00
  -2.620747e+00   2.225636e+01
  -1.667548e+01   3.574488e+01
  -3.188225e+01   3.087055e+01
  -1.555641e+01  -2.102435e+01
   1.457535e+01   7.791529e+00
   1.491975e+01   2.296405e+01
  -2.564004e+01   2.387748e+01
  -8.483138e+01   2.770077e+01
  -5.251405e+01  -2.877060e+00
  -7.719859e+00  -7.596233e+01
   4.945319e+01  -6.060761e+01
   9.013290e+01   9.430498e+00
   2.760522e+01   1.051338e+00
   6.450297e+00   2.148938e+01
  -1.219817e+01   1.762833e+00
   1.398406e+01  -1.860571e+01
   2.242068e+01  -2.291382e+01
   5.032280e+01  -3.639852e+00
   2.569240e+01   5.539405e+01
  -2.564178e+00   1.968119e+01
  -1.009553e+01   7.083180e+00
  -1.470679e+01  -3.447093e-01
   8.906953e+00   2.257507e-01
   9.642199e+00   3.628663e+01
  -5.738623e+00   1.998872e+01
  -4.579659e+01  -4.903684e-01
  -4.140978e+01  -1.748685e+01
  -2.477884e+01  -5.829910e+01
   1.425603e+01  -5.203099e+01
   5.746187e+01   1.911895e+00
   2.387565e+01   1.639026e+01
   1.173803e+01   3.543157e+01
  -1.630687e+01   1.491654e+01
   2.361521e-01   2.770944e+00
   1.291526e+01  -5.376339e+00
   3.242882e+00   8.407479e+00
  -1.893714e+01   4.690759e+00
  -2.804259e+01   8.443716e-01
  -1.848459e+01  -3.765398e+01
  -1.216529e+01  -2.468569e+01
   5.485978e+01  -3.624296e+00
   5.510146e+01   1.853034e+01
   1.077785e+01   6.996082e+01
  -1.599545e+00   4.954901e+01
  -2.493736e+01   1.669748e+01
  -2.478746e+01   9.427880e+00
  -7.739376e+00  -3.929378e+00
  -1.528336e+01   5.203413e+00
  -1.411279e+01   7.299932e-01
  -2.771135e+01  -8.184114e+00
   1.202221e+01  -1.276774e+01
   2.036565e+01  -2.946797e+01
   4.647308e+01   6.531941e+00
   2.496442e+00   4.296398e+01
  -2.932645e+01   4.388504e+01
  -3.056898e+01  -1.361734e+01
  -3.566718e+01  -4.077487e+01
  -1.307828e+00  -6.277296e+01
   4.842632e+01  -7.388536e+01
   2.783319e+01  -1.690695e+01
   2.449857e+01   3.357695e+01
   5.454864e+00   2.653135e+01
  -1.997153e+01   1.993496e+01
  -2.555670e+01   3.054697e+01
  -2.266540e+00   2.916969e+01
  -1.275341e+01   2.979177e+01
  -2.775187e+01   2.465923e+01
  -4.207201e+01  -2.593884e+01
  -3.392284e-01  -5.399499e+01
  -4.594014e-01  -3.917564e+01
   5.059193e+01  -2.073986e+01
   2.875757e+01  -8.517438e+00
   2.839645e+00   4.920106e+01
   6.040704e+00   2.541316e+01
  -9.808238e+00  -5.209820e+00
   1.831697e+00  -1.104528e+01
   2.528553e+00  -9.379333e+00
  -1.205044e+01   4.892588e+00
  -2.693569e+01   1.070631e+00
  -1.820654e+01  -1.561073e+01
   1.245444e+01  -1.425673e+01
   3.977312e+01  -8.553476e+00
   3.386600e+01  -5.138825e-03
   1.124602e+01   2.692901e+01
  -2.049967e+01   3.986608e+01
  -2.361223e+01   1.478805e+01
  -9.382002e+00  -8.777596e+00
   6.805638e+00  -2.454641e+01
   1.223549e+01  -5.519235e+00
   2.098836e+01   1.614468e+01
   2.717057e+00   1.808575e+01
  -1.203967e+01   4.795926e+00
  -1.727773e+01  -8.250573e+00
  -7.940286e+00  -6.131947e+00
  -1.058163e+01   8.210714e+00
  -2.718208e+00   1.286075e+01
  -1.982740e+01  -1.329678e+01
  -3.025360e+00  -2.673877e+01
  -9.556560e+00  -3.869591e+01
   2.941683e+01  -1.286526e+01
   3.933450e+01   1.525444e+01
   6.088465e+00   3.812379e+01
  -1.628329e+01   1.391825e+01
  -1.777877e+01   7.636213e+00
   8.196883e+00  -1.456062e+01
   3.569182e+01  -1.140295e+01
   2.585702e+01   1.853918e+01
  -2.599178e+01   1.380476e+01
  -4.999729e+01   4.179805e+01
  -3.039616e+01   1.799318e+01
  -1.670208e+01  -8.338099e+00
   7.076627e+00  -7.026218e+00
   8.122951e+00  -5.031925e+00
  -4.711441e+00   1.025158e+01
  -2.262371e+01   1.377751e+01
  -6.298664e-01  -1.775197e+01
   1.488628e+01  -4.527066e+01
   3.681564e+01  -5.390346e+01
   3.539990e+01   9.667772e+00
   1.118099e+01   3.977936e+01
   3.270163e+00   2.918582e+01
  -2.712477e+01   1.512226e+00
  -2.984596e+01  -3.052331e+01
   7.796800e+00  -2.032498e+01
   1.493188e+01  -3.127061e+00
   1.974798e+01  -1.498478e+00
   2.886515e+00  -8.613942e-02
  -6.233197e-01  -1.318027e+00
   4.915873e+00   7.711043e+00
   2.578751e+01   2.071950e+01
   1.762886e+01   1.280596e+01
  -1.794685e+01   1.115734e+01
  -2.902392e+01  -5.115765e+00
  -2.067992e+01  -2.330379e+01
  -9.692639e+00  -1.096310e+01
   1.094410e+01  -2.409814e+01
   1.895384e+01  -1.316390e+01
   4.520713e+00   2.745977e+00
  -1.134377e+01   9.691786e+00
  -2.912949e+00   2.987161e+00
   1.403216e+00  -2.319938e+00
  -1.120348e+00   2.509318e-02
  -1.730705e+01   7.787661e+00
  -3.514145e+01   1.043314e+01
  -1.771873e+01  -1.650919e+01
   1.319200e+00  -3.715780e+01
   1.804160e+01  -3.688832e+01
   5.949206e+01  -2.573444e+01
   1.159228e+01   3.858227e+01
   7.063358e+00   3.768149e+01
  -2.490330e+01   2.391460e+01
  -9.951387e+00   5.632922e+00
  -7.974064e+00  -4.763724e+00
  -6.565658e-02  -4.877376e+00
  -2.638763e+00  -1.040068e+00
  -1.209854e+01  -9.088469e+00
  -6.900033e+00  -2.090363e+01
   3.340225e+00  -1.585064e+01
   2.156425e+01  -1.116309e+01
   3.134236e+01   1.390470e+01
   1.424819e+01   3.098196e+01
  -6.010991e+00   2.043246e+01
  -2.792929e+01   3.653133e+00
  -3.897896e+01  -2.435765e+01
   1.351582e+01  -2.240007e+01
   2.451341e+01  -5.692086e+00
   6.262910e+00   1.419571e+01
  -5.001128e+00   1.536564e+01
  -4.069786e+00   1.078701e+01
   6.035555e+00  -5.033047e+00
   1.837774e+01  -2.359289e+00
   2.074252e+00   6.940605e+00
  -1.956981e+01   2.460204e+01
  -1.758058e+01   1.849087e+01
  -1.177726e+01   2.490924e+00
   5.441106e+00  -1.921401e+01
   2.264321e+01  -8.023895e+00
   8.901946e+00  -4.628295e+00
   1.382054e+00   1.169265e+01
  -2.406854e+00   1.506638e+01
  -1.180623e+01   8.805275e-01
  -1.808502e+01  -1.070516e+01
  -8.587690e-01  -8.051897e+00
   9.017755e+00  -5.004099e+00
   8.732889e+00   4.237935e+00
   7.905877e+00   5.329466e-02
  -1.897185e+00  -3.516841e+00
  -1.259649e+00  -3.599144e+00
   7.296843e+00   8.414222e+00
   2.855070e+00   1.569816e+01
  -3.726949e+00   8.514102e+00
  -1.561197e+01  -9.441068e+00
  -3.088411e+00  -1.279388e+01
   5.737209e+00  -8.569297e+00
   1.992504e+01   6.453356e-01
   9.232825e+00   1.180779e+01
  -1.497336e+01   1.764458e+01
  -1.681783e+01   1.413653e+01
  -1.538955e+01  -4.616751e+00
   5.347746e+00  -1.463195e+01
   5.470375e+00  -1.633206e+01
   6.868301e+00  -5.064648e+00
  -4.814808e+00   1.874863e+00
  -1.160920e+01   4.908005e+00
  -9.394690e-02  -4.132300e+00
   1.883524e+01  -4.872810e+00
