
 $NMID
 id='ANONYMOUS ', fmtdat='(2E16.6)'
 volume=1.0
 tramp=1.0
 $END
   3.154797e+03   3.193646e+02
   1.749068e+03   2.037567e+03
  -1.264101e+02   1.513655e+03
  -9.343530e+02   1.064812e+03
  -5.539106e+02   3.343533e+01
   6.372366e+00  -6.293645e+01
   4.386745e+02   7.243709e+01
   8.003196e+00   6.092111e+02
  -2.251811e+02   2.191668e+02
  -6.637810e+02   3.675376e+00
  -5.525089e+02  -6.043595e+02
  -2.887080e+00  -5.281708e+02
   3.516640e+02  -2.372883e+02
   1.885057e+02   3.356219e+02
  -1.330837e+02   5.513633e+02
  -3.408387e+02   1.229453e+02
  -3.772650e+02  -5.466747e+02
   8.125235e+01  -4.780980e+02
   4.030058e+02  -2.147710e+02
   4.301963e+02   1.434105e+02
   1.320468e+02   3.038632e+02
  -1.241399e+02   1.452695e+02
  -8.434055e+01   5.252028e+01
   1.136208e+02   3.683301e+01
   2.637953e+02   2.371209e+02
  -4.617605e+01   3.670927e+02
  -5.125646e+02   1.546363e+02
  -4.557804e+02  -3.428652e+02
  -9.472271e+01  -3.162435e+02
   3.588303e+02  -2.825380e+02
   5.281550e+02   1.284283e+02
   2.660970e+02   3.549196e+02
  -2.696107e+02   3.112307e+02
  -4.533970e+02   1.561528e+02
  -2.770441e+02  -1.394091e+02
  -5.044792e+01  -2.422880e+02
   6.989455e+01  -1.754887e+02
  -4.061630e+01   1.094166e+02
  -6.897919e+01   1.248283e+02
  -1.806242e+02  -1.050420e+02
  -3.793310e+00  -4.784353e+02
   1.758436e+02  -4.385667e+02
   2.982859e+02  -4.682961e+01
   1.248353e+02   2.578382e+02
  -1.615131e+02   1.909344e+02
  -1.854782e+02  -3.196512e+02
   5.414702e+01  -3.317463e+02
   5.211658e+02  -4.260357e+01
   5.022519e+02   3.627634e+02
   1.741015e+02   4.575666e+02
  -2.148136e+02   2.051187e+02
  -4.815224e+02  -4.199582e+01
  -2.892887e+02  -2.061824e+02
  -8.289992e+00  -2.208715e+02
   2.386656e+02  -5.514636e+01
   2.297948e+02   1.870381e+01
  -1.511085e+01   2.191523e+01
  -4.772476e+01  -6.171182e+01
   8.492446e+01  -2.043989e+01
   1.849207e+02   9.887667e+00
   9.317379e+01   1.990464e+02
  -1.170366e+02   1.896740e+02
  -3.453417e+02   1.464493e+02
  -2.808029e+02  -7.339731e+01
  -1.480389e+00  -2.291989e+02
   2.967362e+02  -3.247081e+02
   3.793300e+02  -1.790391e+02
   1.439761e+02   1.609161e+02
  -2.617063e+00   3.077686e+02
  -6.229196e+01   2.627597e+02
  -3.707753e+01   1.781867e+02
  -2.911658e+01   8.049408e+01
  -1.345538e+02   1.110958e+02
  -2.645729e+02   4.020579e+01
  -1.804453e+02  -1.330608e+02
  -8.704964e+01  -2.075644e+02
   6.843983e+01  -1.544924e+02
   1.834428e+02   3.513487e+01
   1.178641e+02   2.296069e+02
  -4.398176e+01   2.813451e+02
  -2.317849e+02   2.402732e+01
  -3.361737e+02  -1.557746e+02
  -1.004291e+02  -2.391218e+02
   6.374995e+01  -1.997972e+02
   1.515885e+02  -1.317820e+02
   1.335982e+02  -6.377657e+01
   1.329959e+02  -6.441259e+01
   2.696365e+02  -1.591900e+01
   4.330991e+02   1.097385e+02
   2.709542e+02   2.765895e+02
  -2.757521e+01   3.811892e+02
  -3.068108e+02   2.151871e+02
  -4.450547e+02   1.826611e+02
  -2.907525e+02  -9.508230e+01
  -6.075199e+00  -2.467003e+02
   4.951313e+01  -1.704973e+02
   2.523658e+01  -3.599996e+01
  -1.245749e+02   4.369085e+01
  -9.538020e+01  -4.495103e+01
   1.487869e+01  -1.260388e+02
   1.090709e+02  -1.061913e+02
   1.132743e+02   4.735016e+01
  -2.780881e+01   1.363589e+02
  -1.890977e+02  -2.218836e+00
  -1.652870e+02  -2.623152e+02
   3.184917e+01  -3.417754e+02
   2.233702e+02  -2.132834e+02
   3.318609e+02   6.318971e+01
   2.703247e+02   2.467707e+02
   5.056669e+01   2.522349e+02
  -1.465582e+02   1.264437e+02
  -1.493053e+02   3.491884e+01
  -3.517746e+01  -1.508346e+01
   3.579573e+01   7.172207e+01
  -4.839846e+00   1.117049e+02
  -1.104447e+02   6.227533e+01
  -1.439999e+02  -2.407797e+01
  -1.481186e+01  -6.038379e+01
   6.768046e+01   1.577824e+01
   3.845264e+01   8.469301e+01
  -1.449807e+02   8.116238e+01
  -3.025762e+02  -1.468493e+01
  -2.232540e+02  -1.813544e+02
  -7.366617e-01  -2.319309e+02
   2.056155e+02  -2.444347e+02
   2.188398e+02  -6.469902e+01
   1.229581e+02   4.298056e+01
  -3.005054e+01   7.025268e+01
  -6.032340e+01  -3.997533e+00
   4.054482e+01  -9.199728e+01
   1.458349e+02  -5.098167e+01
   1.685459e+02   7.961277e+01
   2.664685e+01   1.538188e+02
  -7.424229e+01   8.542978e+01
  -1.237915e+02   4.667975e+00
  -4.290712e+01  -3.294128e+01
   3.406705e+01   1.480320e+01
   1.481116e+01   1.080294e+02
  -1.019418e+02   1.257709e+02
  -2.106841e+02   2.115122e+01
  -1.388599e+02  -9.870027e+01
  -1.850961e+01  -1.869653e+02
   1.518248e+02  -1.546653e+02
   1.562301e+02   1.814705e+01
   5.044932e+01   9.634373e+01
  -6.370607e+01   8.844096e+01
  -6.289336e+01   1.377240e+01
  -7.111636e+00  -1.890287e+01
   3.360710e+01  -4.469717e+00
  -5.233735e+00   2.861427e+01
  -6.859058e+01  -8.196053e+00
  -9.127505e+01  -7.177848e+01
  -1.222628e-01  -1.852225e+02
   1.356770e+02  -1.347612e+02
   2.375805e+02   2.013311e+01
   1.495399e+02   1.650652e+02
  -1.368183e+00   1.987026e+02
  -1.214367e+02   1.766273e+02
  -1.244013e+02   3.830980e+01
  -6.700684e+01  -3.221288e+01
  -3.036902e+01  -2.847951e+01
  -5.013691e+01   7.108201e+00
  -8.018108e+01  -5.814006e+00
  -4.462060e+01  -5.018838e+01
   5.068929e+01  -1.172254e+02
   1.075296e+02  -5.770717e+01
   8.733374e+01   3.721002e+01
  -1.168518e+01   1.205189e+02
  -1.558968e+02   8.126255e+01
  -1.647950e+02  -6.320217e+01
  -8.324649e+01  -2.081399e+02
   1.381149e+02  -2.073722e+02
   2.895542e+02  -4.816420e+01
   2.205712e+02   1.166473e+02
   6.798013e+01   1.574985e+02
  -4.010371e+01   1.319581e+02
  -8.893167e+01   7.565855e+01
  -6.908595e+01   6.176509e+01
  -5.942554e+01   8.418143e+01
  -8.127141e+01   7.402135e+01
  -1.411028e+02  -1.849137e+01
  -1.250627e+02  -1.513763e+02
  -5.860362e+01  -2.317089e+02
   1.112362e+02  -1.799750e+02
   1.702561e+02  -3.559133e+01
   1.009318e+02   1.206186e+02
  -1.097673e+01   1.362390e+02
  -7.119355e+01   8.913672e+01
  -6.734012e+01  -1.031460e+01
   2.020957e+00  -6.033322e+01
   2.604113e+01  -3.193493e+01
  -2.005168e+01  -7.924214e+00
  -6.645737e+01  -2.016033e+01
  -4.207191e+01  -3.672723e+01
   6.876077e+01  -3.503588e+01
   1.497424e+02  -3.071135e-01
   1.105041e+02   7.157830e+01
  -1.289852e+01   9.572464e+01
  -1.296988e+02   8.136503e+01
  -1.115059e+02  -6.457707e+00
  -3.660802e+01  -5.830781e+01
   5.877548e+01  -4.110924e+01
   7.573156e+01   1.935767e+01
   1.558895e+01   6.632146e+01
  -4.141591e+01   6.448509e+01
  -6.557228e+01   4.844369e+00
  -5.249886e+01  -4.318240e+01
  -4.015051e+01  -3.752667e+01
  -5.536852e+01  -1.482116e+00
  -5.536478e+01   5.018559e+00
  -4.460849e+01  -7.327240e+01
   4.250169e+01  -1.712683e+02
   1.278402e+02  -1.179946e+02
   1.377464e+02  -3.627787e+01
   1.051706e+02   8.134958e+01
   4.542273e+00   1.335829e+02
  -8.484688e+01   6.777924e+01
  -5.316402e+01  -7.847208e+00
   5.529705e+01  -1.811329e+01
   1.145569e+02   3.935920e+01
   5.055659e+01   9.418176e+01
  -7.731289e+01   1.039969e+02
  -1.856157e+02   4.738542e+01
  -1.423371e+02  -4.062669e+01
  -2.620804e+01  -7.081710e+01
   5.898895e+01  -5.931378e+01
   4.417241e+01   1.363709e+00
  -4.074882e+01   3.545919e+01
  -8.982373e+01  -2.221889e+01
  -2.337400e+01  -9.281579e+01
   9.061414e+01  -1.285850e+02
   1.426449e+02  -6.513250e+01
   1.058789e+02   6.605560e+01
   2.473994e+01   1.921210e+02
  -5.839067e+01   1.185518e+02
  -9.046234e+01  -1.467154e+01
  -3.824889e+01  -1.150843e+02
   2.338417e+01  -8.475389e+01
   4.329652e+01  -1.114058e+01
   4.673677e+01   2.496326e+01
   1.639398e+01   7.831055e+00
   7.741970e+00  -1.283367e+01
   2.771850e+01   1.976382e+01
   4.555865e+01   8.311303e+01
   4.157105e+01   1.078306e+02
  -5.601566e+01   3.778643e+01
  -1.130602e+02  -4.165057e+01
  -1.256213e+02  -6.678378e+01
  -9.368860e+00  -4.612256e+01
   8.955342e+01  -2.575537e+01
   7.163436e+01   2.401588e+00
   1.535831e+01   9.562446e+00
  -2.825199e+01   1.677761e+01
  -1.703200e+01   1.340987e+01
   1.586826e+01  -2.261241e+00
  -1.856886e+00  -6.309436e+00
  -6.628615e+01   7.686157e+00
  -9.384256e+01  -2.885086e+01
  -1.432908e+01  -6.812632e+01
   9.243922e+01  -1.210984e+02
   1.524240e+02  -5.061600e+01
   1.561775e+02   6.110854e+01
   5.196388e+01   1.545581e+02
  -7.524328e+01   1.706333e+02
  -8.664448e+01   3.611799e+01
  -6.955313e+01  -1.550260e+01
  -2.850080e+01  -3.450153e+01
  -3.625383e+00  -1.199900e+01
  -1.423963e+01  -8.956202e+00
  -3.318713e+01  -4.424429e+01
   1.938293e+00  -6.167448e+01
   3.156280e+01  -7.136017e+01
   7.785413e+01   1.420660e+01
   9.633033e+01   1.110737e+02
   2.891263e+00   8.960479e+01
  -6.115974e+01   3.932217e+01
  -9.652925e+01  -7.641019e+01
  -3.887959e+01  -9.441874e+01
   5.729916e+01  -6.112962e+01
   8.485232e+01   8.043761e+00
   4.101240e+01   4.917262e+01
  -3.097046e+01   5.959014e+01
  -4.031821e+01   2.828910e+01
   2.104495e+01  -3.720440e+00
   5.034669e+01  -3.683108e+00
   1.413870e+01   2.861134e+01
  -6.882452e+01   5.824270e+01
  -1.051615e+02   4.723564e+01
  -7.126446e+01  -1.210305e+01
   7.426855e+00  -7.786045e+01
   5.934289e+01  -7.787141e+01
   3.446850e+01  -1.466003e+01
   1.531572e+00   4.864255e+01
  -2.415413e+01   4.347906e+01
  -3.064939e+01  -1.222722e+01
  -2.698887e+01  -5.187879e+01
   6.598478e+00  -2.696499e+01
   3.241357e+01   2.377719e+00
   3.945128e+01   2.362390e+01
   1.823999e+01   4.565254e+00
  -3.588892e+00  -1.650859e+01
  -7.014877e+00  -8.720817e+00
   5.901823e+00   2.158627e+01
  -8.822972e+00   4.924964e+01
  -2.529895e+01   1.825625e+01
  -4.765827e+01  -3.027909e+01
  -1.327432e+01  -5.287753e+01
   3.159884e+01  -2.453252e+01
   5.716593e+01   3.421380e+01
   2.284977e+01   5.564623e+01
  -5.081858e+01   2.091283e+01
  -7.390875e+01  -5.899110e+00
  -3.952292e+01  -4.250139e+01
   3.156775e+01  -4.244575e+01
   5.782108e+01  -2.948394e+01
   2.572583e+01  -4.696190e+00
  -3.010317e+01  -1.548220e+00
  -2.948743e+01  -3.209620e+00
   2.414936e+01  -1.986623e+01
   6.242273e+01  -1.784784e+01
