
 $NMID
 id='ANONYMOUS ', fmtdat='(2E16.6)'
 volume=1.0
 tramp=1.0
 $END
  -3.098177e+03  -7.167989e+02
  -1.721046e+03  -1.831127e+03
   1.344757e+02  -1.699429e+03
   1.176798e+03  -8.872970e+02
   7.331358e+02   5.224365e+01
  -1.798436e+02   1.705508e+02
  -4.190492e+02  -1.812436e+02
   2.813864e+01  -5.743155e+02
   4.187038e+02  -3.038556e+02
   7.102936e+02  -2.410882e+01
   5.138855e+02   5.092954e+02
  -1.169390e+02   5.370291e+02
  -3.645033e+02   2.690144e+02
  -1.920175e+02  -4.304282e+02
   1.098300e+02  -5.725813e+02
   3.735673e+02  -9.887698e+01
   3.161813e+02   5.533602e+02
  -1.420618e+02   5.184080e+02
  -3.940684e+02   3.092134e+02
  -4.363793e+02  -2.176485e+02
  -1.598861e+02  -3.043964e+02
   1.397513e+02  -2.289596e+02
   7.426008e+01  -4.271008e+01
  -1.560703e+02  -3.560254e+01
  -2.743070e+02  -2.610184e+02
   1.437596e+01  -3.241147e+02
   4.575985e+02  -1.315281e+02
   5.333863e+02   3.441538e+02
   1.098682e+02   4.448680e+02
  -3.448146e+02   2.373927e+02
  -5.437881e+02  -1.617308e+02
  -2.812673e+02  -3.905839e+02
   2.410994e+02  -2.924462e+02
   4.493159e+02  -1.493983e+02
   2.665895e+02   1.608826e+02
   8.466277e+01   2.570355e+02
  -7.868399e+01   2.079310e+02
   5.403116e+01  -1.061091e+02
   1.738535e+02  -8.171611e+01
   2.305689e+02   1.564975e+02
  -1.019649e+02   4.623457e+02
  -2.654037e+02   5.001333e+02
  -3.126783e+02  -7.390185e+00
  -1.327908e+02  -3.140974e+02
   1.313516e+02  -1.938490e+02
   2.242780e+02   2.867880e+02
  -6.766097e+01   4.230867e+02
  -5.630654e+02   3.637258e+01
  -5.677068e+02  -3.426637e+02
  -1.319667e+02  -5.159997e+02
   2.130946e+02  -2.402079e+02
   4.882485e+02   6.324692e+01
   2.808505e+02   1.844350e+02
  -5.758952e+01   2.607624e+02
  -2.622924e+02   7.531457e+01
  -2.296080e+02  -8.832745e+01
   1.642811e+01  -2.583692e+01
   3.467452e+01   3.714317e+01
  -1.031308e+02   1.097473e+01
  -2.114369e+02  -5.132308e+00
  -1.272863e+02  -1.982382e+02
   1.491514e+02  -1.906343e+02
   3.425466e+02  -1.297699e+02
   2.707379e+02   1.132861e+02
  -1.715568e+01   2.341198e+02
  -2.836617e+02   3.498565e+02
  -3.489323e+02   2.051787e+02
  -2.051006e+02  -1.813295e+02
   1.526731e+01  -3.746468e+02
   7.324429e+01  -3.152277e+02
   7.259771e+01  -1.849250e+02
   2.349951e+01  -7.510740e+01
   1.468778e+02  -1.489626e+02
   2.704964e+02  -4.549010e+01
   1.887078e+02   1.114042e+02
   8.474517e+01   2.191911e+02
  -9.921349e+01   1.372077e+02
  -2.024772e+02  -5.532445e+01
  -1.345368e+02  -2.251562e+02
   6.809451e+01  -2.603891e+02
   2.092326e+02  -4.253323e+01
   3.137705e+02   1.716670e+02
   1.019474e+02   2.939518e+02
  -6.223876e+01   2.312891e+02
  -1.289908e+02   1.238473e+02
  -1.339437e+02   6.907968e+01
  -1.294070e+02   7.266037e+01
  -2.688695e+02   3.736911e+01
  -3.895880e+02  -8.442440e+01
  -3.175252e+02  -2.776905e+02
   3.020562e+01  -4.226358e+02
   3.459748e+02  -3.148907e+02
   4.648004e+02  -2.074230e+02
   2.613313e+02   1.127095e+02
   4.322693e+01   2.641040e+02
  -1.106696e+02   1.754390e+02
  -2.791213e+01   3.075377e+01
   1.311739e+02  -3.979422e+01
   1.119423e+02   5.093556e+01
   1.467417e+01   1.449043e+02
  -1.244666e+02   1.183224e+02
  -1.061198e+02  -5.200827e+01
   1.965930e+01  -1.294825e+02
   1.680907e+02  -2.524237e+01
   1.846272e+02   2.632335e+02
  -5.508580e+01   3.742759e+02
  -2.077579e+02   2.189956e+02
  -3.456711e+02  -4.321604e+01
  -2.725743e+02  -2.204105e+02
  -4.154093e+01  -2.760417e+02
   1.190544e+02  -1.580891e+02
   1.543513e+02  -2.740422e+01
   3.509702e+01   1.401065e+01
  -4.408325e+01  -7.214604e+01
  -3.700180e+00  -1.192864e+02
   1.150437e+02  -7.591337e+01
   1.338143e+02   2.023680e+00
   2.327287e+01   5.721790e+01
  -7.721090e+01  -2.469165e+01
  -3.811815e+01  -9.102273e+01
   1.535634e+02  -8.791735e+01
   2.953833e+02   1.070073e+01
   2.061061e+02   2.025414e+02
   2.288708e+01   2.393831e+02
  -1.941558e+02   2.346177e+02
  -2.478366e+02   6.750101e+01
  -1.181991e+02  -6.213341e+01
   2.454234e+01  -7.986977e+01
   6.223781e+01   1.836744e+00
  -6.360008e+01   8.440886e+01
  -1.500224e+02   3.298575e+01
  -1.860925e+02  -1.107382e+02
  -6.210973e+01  -1.398294e+02
   9.301643e+01  -1.073055e+02
   1.341630e+02  -2.242400e+01
   4.299866e+01   3.759123e+01
  -3.643743e+01  -1.595229e+01
  -2.133881e+01  -1.108495e+02
   9.298685e+01  -1.233656e+02
   2.038465e+02  -2.590678e+01
   1.417082e+02   8.922867e+01
  -5.815024e-01   1.927247e+02
  -1.749045e+02   1.703351e+02
  -1.667052e+02  -1.951906e+00
  -4.939867e+01  -1.021428e+02
   8.147491e+01  -9.112100e+01
   7.259788e+01  -2.113850e+01
   4.527098e+00   2.348358e+01
  -3.145034e+01   5.424330e+00
   7.885147e+00  -2.560418e+01
   7.465954e+01   9.617418e+00
   8.304907e+01   8.757794e+01
   1.166250e+01   1.886983e+02
  -1.127583e+02   1.415417e+02
  -2.367102e+02   3.008627e+00
  -1.687606e+02  -1.674389e+02
  -4.594440e+01  -2.029108e+02
   1.284716e+02  -1.695584e+02
   1.341298e+02  -3.665631e+01
   6.750107e+01   3.620376e+01
   3.367512e+01   2.642043e+01
   5.101950e+01  -5.610656e+00
   7.695563e+01   7.906794e+00
   5.008613e+01   5.260108e+01
  -4.519062e+01   1.179469e+02
  -1.219765e+02   6.180263e+01
  -9.777601e+01  -3.911979e+01
   2.956272e+01  -1.293747e+02
   1.422057e+02  -8.931491e+01
   1.829916e+02   6.796093e+01
   6.822902e+01   2.197083e+02
  -1.214794e+02   2.301632e+02
  -2.859556e+02   7.115066e+01
  -2.445670e+02  -1.116738e+02
  -7.637155e+01  -1.781802e+02
   5.452929e+01  -1.474974e+02
   8.909693e+01  -7.724924e+01
   7.729993e+01  -6.075837e+01
   4.593376e+01  -8.713355e+01
   9.323975e+01  -6.218675e+01
   1.398747e+02   2.156066e+01
   1.156144e+02   1.625692e+02
   5.293412e+01   2.146178e+02
  -9.385633e+01   1.875882e+02
  -1.844932e+02   1.304298e+00
  -1.179372e+02  -9.602802e+01
   7.040524e+00  -1.433874e+02
   8.040611e+01  -7.952680e+01
   6.489303e+01   7.588914e+00
  -2.572625e+00   5.614481e+01
  -2.692377e+01   3.693419e+01
   2.223392e+01   8.562741e+00
   6.944548e+01   1.128567e+01
   4.793596e+01   3.842849e+01
  -7.966883e+01   3.187666e+01
  -1.731083e+02  -1.030174e+01
  -1.161479e+02  -8.001812e+01
   1.256929e+01  -9.655562e+01
   1.312996e+02  -8.376456e+01
   1.149363e+02   2.481532e+00
   4.625395e+01   5.539640e+01
  -5.572010e+01   4.525505e+01
  -7.464735e+01  -8.188091e+00
  -1.147046e+01  -7.028988e+01
   4.407801e+01  -6.115003e+01
   6.791609e+01  -5.770271e+00
   5.640040e+01   3.774252e+01
   3.765541e+01   3.825606e+01
   5.810698e+01   5.697665e+00
   6.016729e+01  -5.768140e+00
   4.268903e+01   7.582918e+01
  -3.608503e+01   1.690889e+02
  -1.544135e+02   1.270867e+02
  -1.516046e+02   5.518543e+01
  -1.095370e+02  -7.925635e+01
   5.452767e+00  -1.278130e+02
   9.097655e+01  -6.976692e+01
   5.890320e+01   1.256004e+01
  -5.874778e+01   1.532255e+01
  -1.160983e+02  -4.891141e+01
  -4.502082e+01  -1.025145e+02
   7.570800e+01  -1.034524e+02
   1.832340e+02  -5.090239e+01
   1.586290e+02   4.789099e+01
   2.079347e+01   7.459279e+01
  -6.312610e+01   5.418755e+01
  -4.801153e+01   2.021931e+00
   3.460935e+01  -4.069012e+01
   9.056241e+01   1.478452e+01
   2.062569e+01   9.699504e+01
  -8.964900e+01   1.535363e+02
  -1.604998e+02   5.184143e+01
  -1.142831e+02  -7.405716e+01
  -6.486867e+00  -1.983091e+02
   6.140927e+01  -1.207550e+02
   9.533460e+01   2.170640e+01
   4.764294e+01   1.193135e+02
  -1.638600e+01   9.707915e+01
  -5.066163e+01   8.838241e+00
  -4.361621e+01  -3.461283e+01
  -1.908352e+01  -5.841584e+00
  -8.069137e+00   1.529206e+01
  -2.969467e+01  -2.369653e+01
  -5.210781e+01  -8.361119e+01
  -3.785104e+01  -1.069868e+02
   5.103227e+01  -4.830603e+01
   1.331699e+02   3.819948e+01
   1.296771e+02   5.055423e+01
   1.431776e+01   4.745247e+01
  -8.948094e+01   2.763472e+01
  -8.219383e+01   1.257914e+00
  -1.586625e+01  -9.029332e+00
   3.363952e+01  -1.512665e+01
   1.924783e+01  -1.280732e+01
  -1.493806e+01   2.551459e+00
   3.464096e+00   6.295483e+00
   6.734510e+01  -3.380601e+00
   8.563289e+01   2.011381e+01
   1.167302e+01   7.205011e+01
  -9.091997e+01   1.270586e+02
  -1.574637e+02   5.811509e+01
  -1.631408e+02  -6.505738e+01
  -4.701791e+01  -1.600477e+02
   9.154877e+01  -1.623010e+02
   9.730823e+01  -3.777495e+01
   7.792745e+01   8.662787e+00
   3.106444e+01   3.660022e+01
   1.237392e+00   1.206439e+01
   1.535114e+01   9.085651e+00
   4.337803e+01   4.176740e+01
  -5.658999e+00   6.697606e+01
  -2.443359e+01   7.673508e+01
  -8.314578e+01  -7.589152e+00
  -1.086292e+02  -1.100996e+02
  -9.623153e+00  -1.063224e+02
   6.057871e+01  -3.500981e+01
   1.086658e+02   6.629595e+01
   3.848476e+01   9.663255e+01
  -7.265421e+01   5.724691e+01
  -8.033863e+01  -8.876332e-01
  -3.865567e+01  -5.339415e+01
   3.698180e+01  -5.933860e+01
   3.445935e+01  -3.075948e+01
  -2.194162e+01   1.692676e+00
  -5.548042e+01  -2.607984e+00
  -1.694944e+01  -2.868166e+01
   6.800623e+01  -6.772925e+01
   1.135259e+02  -4.767002e+01
   7.205251e+01   1.378851e+01
  -1.729544e+01   7.301213e+01
  -5.751198e+01   7.833707e+01
  -4.111752e+01   1.714139e+01
  -1.245253e+00  -5.256174e+01
   2.182775e+01  -4.137415e+01
   3.311947e+01   1.690984e+01
   2.697152e+01   6.148462e+01
  -2.256390e+00   3.129603e+01
  -3.708719e+01  -2.678015e+00
  -3.665841e+01  -2.385745e+01
  -1.915168e+01  -5.203052e+00
   2.806776e+00   1.554391e+01
   6.723942e+00   7.897165e+00
  -6.344298e+00  -2.372461e+01
   7.646636e+00  -5.330442e+01
   2.140190e+01  -2.011414e+01
   4.889468e+01   3.757898e+01
   1.296926e+01   6.183804e+01
  -3.664762e+01   2.250056e+01
  -5.671098e+01  -3.283299e+01
  -2.130151e+01  -5.140249e+01
   5.222228e+01  -3.129965e+01
   7.539355e+01   7.410552e+00
   4.096951e+01   4.013987e+01
  -3.349569e+01   4.344411e+01
  -6.465887e+01   2.514974e+01
  -2.522495e+01   6.935694e+00
   3.114124e+01  -4.395703e-01
   3.340178e+01   8.072928e+00
  -2.147213e+01   2.246819e+01
  -6.345635e+01   1.503399e+01
