
 $NMID
 id='ANONYMOUS ', fmtdat='(2E16.6)'
 volume=1.0
 tramp=1.0
 $END
  -2.938308e+03  -5.827042e+02
  -2.221375e+03  -1.724480e+03
   4.650959e+02  -2.387117e+03
   1.118359e+03  -7.647038e+02
   8.919843e+02   1.076711e+02
  -2.360213e+02   1.941265e+02
  -4.280016e+02  -3.418212e+02
  -3.659550e+01  -5.648258e+02
   5.931571e+02  -6.152976e+02
   5.767066e+02   3.292191e+01
   3.284703e+02   4.859155e+02
  -1.697281e+02   6.547788e+02
  -2.705761e+02   1.549176e+02
  -2.593708e+02  -5.962295e+02
   1.919402e+02  -5.424781e+02
   5.266630e+02  -6.837961e+01
   2.076323e+02   4.353303e+02
  -2.254767e+02   5.675232e+02
  -4.171845e+02   2.512952e+02
  -4.166007e+02  -2.068546e+02
  -8.306386e+01  -3.383828e+02
   1.303503e+02  -2.247707e+02
   7.080465e+01  -3.776829e+01
  -1.592723e+02  -4.671061e+00
  -3.908856e+02  -1.982577e+02
  -4.591225e+01  -3.310934e+02
   3.752696e+02  -1.529300e+02
   6.694966e+02   1.425051e+02
   2.859497e+02   5.311460e+02
  -3.713126e+02   2.758458e+02
  -6.229911e+02  -9.358317e+01
  -1.625496e+02  -4.421496e+02
   2.479334e+02  -3.062806e+02
   4.554643e+02  -1.951700e+02
   2.778867e+02   1.510350e+02
   8.116057e+01   3.228079e+02
  -1.241890e+02   1.852838e+02
   1.716507e+01  -1.130041e+02
   2.334148e+02  -2.367693e+02
   2.571172e+02   1.155745e+02
   1.789533e+01   5.338457e+02
  -2.262161e+02   5.192444e+02
  -3.997006e+02  -2.562353e+01
  -2.511906e+02  -3.208423e+02
   1.963418e+02  -1.186411e+02
   3.015481e+02   2.806696e+02
  -9.059251e+01   5.015794e+02
  -5.041784e+02   1.036366e+02
  -5.586332e+02  -2.730444e+02
  -2.133270e+02  -5.817454e+02
   3.224276e+02  -2.584358e+02
   5.247817e+02   8.450561e+01
   2.640766e+02   3.081592e+02
  -1.079092e+02   2.827761e+02
  -3.200607e+02   1.903800e+01
  -2.003631e+02  -8.954649e+01
   6.710027e+00  -3.720114e+01
   7.616090e+01   1.098880e+02
  -1.367166e+02   8.794906e+01
  -1.861760e+02  -7.645540e+01
  -1.246637e+02  -2.223724e+02
   1.070750e+02  -2.421133e+02
   2.457605e+02  -1.347544e+02
   2.383429e+02   8.320896e+01
  -5.958200e+00   2.394240e+02
  -2.741995e+02   3.431610e+02
  -3.430635e+02   1.947696e+02
  -2.188133e+02  -1.448191e+02
  -2.161716e+01  -4.278060e+02
   7.157420e+01  -2.664260e+02
   5.250327e+01  -1.400973e+02
   6.492709e+00  -4.771957e+01
   7.542484e+01  -1.308684e+02
   2.116870e+02  -7.476415e+01
   2.279640e+02   6.781922e+01
   1.027661e+02   2.754720e+02
  -1.007478e+02   1.926188e+02
  -2.295921e+02  -1.731022e+01
  -1.357674e+02  -2.568455e+02
   4.267098e+01  -2.754322e+02
   2.324258e+02  -8.770103e+01
   2.949407e+02   1.127919e+02
   1.995085e+02   2.917330e+02
  -7.423590e+01   2.233148e+02
  -1.178997e+02   1.276638e+02
  -1.377503e+02   8.052302e+01
  -1.239513e+02   6.637598e+01
  -2.401888e+02   6.398259e+01
  -3.392444e+02  -7.163440e+01
  -2.978750e+02  -3.336896e+02
   5.741673e+01  -4.406149e+02
   3.524310e+02  -4.321370e+02
   4.038526e+02  -2.292976e+02
   2.938718e+02   8.305534e+01
   3.444041e+01   2.230125e+02
  -1.249616e+02   2.209425e+02
  -1.987280e+01   3.558554e+01
   1.355636e+02  -5.541485e+01
   1.132353e+02   2.347557e+01
   2.687591e+01   1.884880e+02
  -1.188938e+02   1.393797e+02
  -1.157954e+02  -5.861460e+01
   1.092751e+01  -1.307657e+02
   1.430895e+02  -1.654999e+01
   1.015671e+02   2.112327e+02
  -3.339651e+01   3.095455e+02
  -2.012971e+02   2.195484e+02
  -3.412797e+02  -2.370049e+01
  -2.859075e+02  -2.294894e+02
  -8.688502e+01  -2.842959e+02
   1.388036e+02  -1.555820e+02
   1.408284e+02  -2.883653e+01
   3.876974e+01   2.461227e+01
  -5.759928e+01  -5.386883e+01
   1.199313e+00  -1.071429e+02
   1.142032e+02  -9.042476e+01
   1.519579e+02   9.194415e+00
   3.169688e+01   6.054953e+01
  -8.374568e+01  -8.967654e+00
  -3.850351e+01  -7.925253e+01
   1.292735e+02  -7.853928e+01
   2.756424e+02  -5.785475e+01
   2.119473e+02   1.659801e+02
   1.252262e+01   2.552975e+02
  -1.755275e+02   2.063773e+02
  -2.612991e+02   1.150490e+02
  -1.150646e+02  -6.887423e+01
   3.258981e+01  -9.358737e+01
   5.918767e+01  -6.104954e+00
  -3.630336e+01   8.308898e+01
  -1.808520e+02   4.330499e+01
  -1.981793e+02  -5.173700e+01
  -3.117865e+01  -1.510812e+02
   1.011035e+02  -1.437573e+02
   1.252637e+02  -2.338103e+01
   5.403576e+01   3.286902e+01
  -4.331004e+01  -1.146169e+01
  -5.093660e+01  -9.305875e+01
   8.707947e+01  -9.541486e+01
   1.840674e+02   1.315027e+00
   1.744790e+02   1.257707e+02
   7.441654e+00   1.794263e+02
  -1.567423e+02   1.567646e+02
  -1.524227e+02   2.722570e+01
  -4.266695e+01  -1.045610e+02
   5.721027e+01  -1.223045e+02
   7.892142e+01  -1.824581e+01
   9.689356e+00   2.644009e+01
  -2.390758e+01   1.480406e+01
   4.279447e+00  -1.653965e+01
   8.124330e+01  -2.869157e+00
   1.008902e+02   7.673332e+01
   9.938621e+00   1.553756e+02
  -1.334262e+02   1.747392e+02
  -2.236528e+02   3.701208e+01
  -1.819396e+02  -1.045439e+02
  -4.166725e+01  -2.207420e+02
   9.352707e+01  -1.628643e+02
   1.188111e+02  -3.902991e+01
   7.642045e+01   3.876158e+01
   3.635805e+01   2.599834e+01
   4.196803e+01  -9.235967e+00
   7.527429e+01  -4.742022e+00
   5.203783e+01   5.439293e+01
  -2.402702e+01   8.299816e+01
  -1.076047e+02   7.600531e+01
  -9.807742e+01  -2.769192e+01
   6.525134e-01  -1.263194e+02
   1.151692e+02  -8.181700e+01
   1.918527e+02   6.808159e+01
   8.469609e+01   2.138570e+02
  -1.242235e+02   2.203383e+02
  -2.347682e+02   1.107233e+02
  -2.509662e+02  -8.748435e+01
  -8.160000e+01  -1.526072e+02
   3.600238e+01  -1.461005e+02
   8.282468e+01  -6.583831e+01
   5.551606e+01  -6.122676e+01
   3.874726e+01  -6.808295e+01
   8.319088e+01  -7.777116e+01
   1.107290e+02   7.766779e+00
   1.023138e+02   1.227791e+02
   2.568104e+01   1.849917e+02
  -5.268471e+01   1.524132e+02
  -1.619821e+02   5.070471e+00
  -1.184658e+02  -9.704498e+01
  -2.213404e+01  -1.212490e+02
   7.685046e+01  -8.658737e+01
   6.075901e+01   3.055237e-01
   7.300183e-01   5.049759e+01
  -1.821454e+01   3.393665e+01
   3.420732e+01   9.631735e+00
   7.451087e+01   2.036234e+01
   4.807206e+01   3.254631e+01
  -7.201687e+01   3.122239e+01
  -1.731155e+02   2.531714e+01
  -1.367809e+02  -5.450733e+01
   4.052167e+00  -9.275348e+01
   1.048698e+02  -8.822714e+01
   1.327855e+02  -1.710960e+01
   3.857461e+01   4.757736e+01
  -4.656519e+01   4.529657e+01
  -6.649104e+01  -5.911148e+00
  -1.438001e+01  -7.056028e+01
   3.581910e+01  -6.295063e+01
   5.962662e+01  -7.213043e+00
   5.338157e+01   3.121363e+01
   3.651666e+01   3.550415e+01
   5.171486e+01   3.063722e-01
   6.810535e+01   7.013177e+00
   4.285585e+01   5.960413e+01
  -1.454319e+01   1.202772e+02
  -1.369878e+02   1.545974e+02
  -1.687858e+02   4.879210e+01
  -1.259708e+02  -7.660663e+01
  -5.991758e+00  -1.151655e+02
   9.670677e+01  -7.087709e+01
   5.484194e+01   3.878842e+00
  -5.029543e+01   1.528795e+01
  -1.280002e+02  -4.117319e+01
  -6.994285e+01  -1.106934e+02
   8.129267e+01  -9.030503e+01
   1.610035e+02  -4.934876e+01
   1.582176e+02   1.429862e+01
   3.560880e+01   6.492296e+01
  -5.676707e+01   5.434172e+01
  -4.312399e+01  -5.197040e-01
   3.612347e+01  -3.146261e+01
   9.787662e+01   1.496051e+01
   2.899262e+01   1.112599e+02
  -7.013478e+01   1.286989e+02
  -1.537322e+02   7.171569e+01
  -1.370365e+02  -7.948329e+01
  -2.314091e+01  -1.860404e+02
   7.826699e+01  -1.418575e+02
   9.352580e+01   1.516846e+01
   6.193119e+01   1.076301e+02
  -5.879643e+00   9.833136e+01
  -4.104007e+01   1.664043e+01
  -5.132528e+01  -3.246040e+01
  -1.678588e+01  -8.611532e+00
  -4.870901e+00   1.780941e+01
  -2.773811e+01  -1.608889e+01
  -5.344661e+01  -7.271854e+01
  -4.337231e+01  -1.003309e+02
   4.065574e+01  -4.127435e+01
   1.302855e+02   6.508237e+00
   1.133466e+02   5.833043e+01
   1.264113e+01   5.148709e+01
  -6.508151e+01   3.146436e+01
  -7.782886e+01   1.017330e+01
  -1.367831e+01  -1.070428e+01
   3.543223e+01  -1.861956e+01
   1.718641e+01  -1.424207e+01
  -1.677760e+01   2.538137e+00
   3.984485e+00   7.178578e+00
   6.034686e+01   1.814523e+00
   8.255525e+01   1.922317e+01
   1.384218e+01   7.259028e+01
  -9.045759e+01   1.056516e+02
  -1.759546e+02   5.614772e+01
  -1.372548e+02  -3.342760e+01
  -3.394461e+01  -1.449411e+02
   6.269741e+01  -1.624616e+02
   1.020651e+02  -5.906467e+01
   7.480100e+01   2.280939e+01
   2.621531e+01   3.486628e+01
   1.817807e+00   1.079856e+01
   1.336395e+01   4.965357e+00
   3.748002e+01   4.354755e+01
   2.222909e+01   8.600690e+01
  -3.305093e+01   6.982456e+01
  -8.408357e+01  -2.427931e+00
  -6.553019e+01  -8.403240e+01
  -3.107551e+01  -1.056790e+02
   6.441242e+01  -3.611716e+01
   1.042020e+02   3.193905e+01
   5.190615e+01   9.627579e+01
  -5.424659e+01   6.735201e+01
  -9.346039e+01  -3.186159e+00
  -3.910319e+01  -3.847058e+01
   2.450192e+01  -4.943351e+01
   3.390660e+01  -2.106646e+01
  -2.334972e+01   5.491919e+00
  -6.281766e+01   5.101739e+00
  -1.525197e+01  -2.664906e+01
   7.453477e+01  -6.875482e+01
   1.053133e+02  -5.378585e+01
   6.571349e+01   4.983639e+00
  -1.173667e+01   7.617617e+01
  -5.978527e+01   7.485736e+01
  -4.039320e+01   1.215759e+01
  -9.692266e+00  -5.439700e+01
   1.979440e+01  -3.716775e+01
   3.203132e+01   8.846904e+00
   2.823398e+01   5.398257e+01
   4.471852e-01   3.712459e+01
  -2.865049e+01  -1.777247e-01
  -3.586642e+01  -1.737025e+01
  -1.704741e+01  -3.292118e+00
   5.784407e+00   1.747483e+01
   7.864154e+00   4.496283e+00
   2.055481e+00  -2.901202e+01
   1.957362e+00  -4.567834e+01
   1.909169e+01  -1.289794e+01
   3.680583e+01   3.335661e+01
   8.492718e+00   5.526562e+01
  -3.559127e+01   2.718848e+01
  -5.782585e+01  -2.253794e+01
  -5.983342e+00  -4.879821e+01
   5.281434e+01  -3.727155e+01
   8.414140e+01   1.787799e+00
   4.587130e+01   3.446422e+01
  -2.775550e+01   4.742290e+01
  -6.656268e+01   2.827077e+01
  -2.866930e+01   8.478582e+00
   2.768758e+01  -3.957457e+00
   3.265982e+01   9.047847e+00
  -2.654901e+01   2.194405e+01
  -7.376661e+01   1.971504e+01
