
 $NMID
 id='ANONYMOUS ', fmtdat='(2E16.6)'
 volume=1.0
 tramp=1.0
 $END
   1.983950e+03   6.935686e+02
   1.869636e+03   1.229820e+03
   3.194858e+02   1.809137e+03
  -7.938414e+02   9.529032e+02
  -7.919021e+02   2.807956e+02
  -1.446871e+02  -5.894543e+01
   9.971770e+01   4.085113e+01
   9.712789e+01   2.345397e+02
  -2.843940e+02   4.225243e+02
  -2.652392e+02   2.209525e+02
  -3.609809e+02  -2.027464e+02
  -6.701855e+01  -3.830239e+02
   1.338396e+02  -1.267880e+02
   1.456275e+02   2.183040e+02
  -6.222410e+01   2.245269e+02
  -3.155382e+02   3.367436e+01
  -2.143076e+02  -2.906176e+02
  -3.640860e+00  -5.168032e+02
   2.955293e+02  -2.845432e+02
   3.622821e+02   7.988753e+01
   1.659624e+02   2.171407e+02
  -1.182901e+01   1.389215e+02
  -8.283342e+00   9.577912e+01
   1.690200e+02   1.083916e+02
   1.411361e+02   2.869097e+02
  -6.564282e+01   3.031770e+02
  -3.728696e+02   4.464550e+01
  -4.034706e+02  -1.836945e+02
  -1.491501e+02  -1.818873e+02
   2.090596e+02  -1.199290e+02
   3.278249e+02   1.037533e+02
   7.270976e+01   2.493176e+02
  -2.539395e+02   7.563599e+01
  -4.144024e+02   6.468068e+01
  -2.058951e+02  -1.422200e+02
  -1.629578e+02  -2.463172e+02
  -8.051453e+01  -1.186854e+02
  -9.319846e+01   1.335963e+01
  -1.895557e+02   3.253506e+01
  -3.584465e+00  -1.737619e+02
   1.207245e+02  -2.926079e+02
   1.759274e+02  -3.644523e+02
   2.693400e+02   1.358427e+00
   1.229225e+02   2.606195e+02
  -5.995334e+01   7.537320e+01
  -4.323048e+01  -1.304971e+02
   1.349954e+02  -2.389824e+02
   3.795232e+02  -7.182387e+00
   3.289567e+02   2.741516e+02
   1.743438e+02   3.499278e+02
  -1.911584e+02   1.654678e+02
  -3.483140e+02   7.142418e+01
  -2.416191e+02  -1.371575e+02
   1.611154e+01  -1.293983e+02
   2.394629e+02  -1.020584e+02
   1.479348e+02  -1.725978e+00
   4.222282e+01  -2.570595e+01
   1.975515e+01   4.160043e+00
   3.371792e+01   1.531195e+01
   1.241258e+02   1.113921e+01
   8.886252e+01   1.149271e+02
  -1.134661e+02   1.539213e+02
  -2.666561e+02   1.038205e+02
  -2.350581e+02  -1.009084e+02
   5.952861e+01  -2.824100e+02
   2.752958e+02  -2.858695e+02
   3.320874e+02  -1.185726e+02
   1.374701e+02   1.302540e+02
   3.590574e+01   2.081770e+02
   1.788307e+01   2.068479e+02
   2.008070e+01   1.528291e+02
  -3.656209e+01   1.088312e+02
  -1.339769e+02   8.525228e+01
  -2.215731e+02   2.334793e+00
  -1.701187e+02  -1.436652e+02
  -3.169115e+01  -2.204156e+02
   6.333582e+01  -1.075791e+02
   1.543311e+02   8.324617e+01
   3.805879e+01   1.887898e+02
  -9.792227e+01   1.888257e+02
  -2.146510e+02   2.911186e+01
  -2.247518e+02  -1.278307e+02
  -1.207589e+02  -2.164401e+02
   1.543279e+01  -1.739771e+02
   1.414384e+02  -1.127706e+02
   1.051907e+02  -9.537052e+01
   1.443001e+02  -5.887993e+01
   2.185306e+02  -1.564483e+01
   2.579552e+02   7.207785e+01
   2.995494e+02   2.249567e+02
   3.892454e+00   3.659484e+02
  -3.230896e+02   2.462383e+02
  -3.248798e+02   4.889311e+01
  -1.733385e+02  -8.106429e+01
   7.135428e+00  -1.158096e+02
   4.505990e+01  -1.300945e+02
  -1.751845e+01  -3.180523e+01
  -7.905885e+01  -3.131077e+00
  -7.614479e+01  -5.368468e+01
  -9.684238e+00  -8.785885e+01
   6.899573e+01  -5.590852e+01
   7.398052e+01   3.043022e+01
  -1.338645e+01   6.900286e+01
  -1.066192e+02  -1.235839e+01
  -5.858984e+01  -1.327467e+02
   3.708898e+01  -2.356668e+02
   1.645894e+02  -1.866532e+02
   2.958163e+02   6.981324e+01
   1.951422e+02   2.301654e+02
   3.518009e+01   2.184398e+02
  -1.229148e+02   1.300801e+02
  -1.144388e+02  -2.312426e+01
  -9.905927e+00  -1.008868e+01
   1.329909e+01   4.562406e+01
   6.909112e+00   7.698817e+01
  -9.440649e+01   3.617465e+01
  -9.438541e+01  -7.665919e+00
   1.161479e+00  -3.529440e+01
   6.913144e+01   2.398197e+01
   2.643100e+01   8.456813e+01
  -1.360018e+02   5.390609e+01
  -2.353033e+02  -5.674637e+01
  -2.042543e+02  -1.616261e+02
  -1.179880e+01  -1.806013e+02
   1.685776e+02  -1.960980e+02
   1.781565e+02  -1.508037e+00
   6.991006e+01   3.716712e+01
  -1.810250e+01   5.449676e+01
  -3.315278e+01  -1.422441e+01
   6.072019e+01  -3.746228e+01
   1.814529e+02   1.213401e+01
   1.596411e+02   8.350973e+01
   9.097869e+00   1.430725e+02
  -6.364198e+01   1.100354e+02
  -1.018041e+02   7.446144e+00
  -3.183237e+01  -3.784332e+01
   4.168428e+01   2.131801e+01
  -1.027586e+00   9.272566e+01
  -7.924750e+01   8.911864e+01
  -1.445310e+02   4.430988e-01
  -1.592284e+02  -1.111348e+02
   1.561101e+01  -1.758872e+02
   9.757831e+01  -1.064951e+02
   1.171386e+02  -3.905775e+00
   4.673127e+01   5.386602e+01
  -4.253673e+01   4.658507e+01
  -4.163097e+01   2.288322e+01
   5.757276e+00  -2.095283e+01
   3.293170e+01  -1.801356e+00
  -9.748361e+00   2.753628e+01
  -7.801035e+01  -1.418614e+01
  -9.316118e+01  -8.411740e+01
  -4.149438e+00  -1.365611e+02
   1.266299e+02  -1.154265e+02
   1.764762e+02   3.737905e+01
   1.270239e+02   1.252718e+02
   2.048182e+01   1.288690e+02
  -1.083971e+02   1.063349e+02
  -1.037092e+02   2.340708e+01
  -6.257071e+01  -3.428449e+01
  -2.537345e+01  -2.553583e+01
  -4.779111e+01   8.948733e+00
  -7.054059e+01  -3.852210e-01
  -4.265597e+01  -4.234547e+01
   3.004157e+01  -8.456035e+01
   1.230000e+02  -6.407389e+01
   7.717003e+01   4.522039e+01
  -5.338193e+00   1.130368e+02
  -1.298846e+02   5.551254e+01
  -1.675079e+02  -8.827709e+01
  -3.449966e+01  -1.761839e+02
   8.249225e+01  -1.778099e+02
   2.072720e+02  -3.496115e+01
   2.096367e+02   5.827676e+01
   3.603907e+01   1.190802e+02
  -3.382738e+01   9.729017e+01
  -8.333760e+01   4.523241e+01
  -4.842919e+01   4.929853e+01
  -4.110286e+01   6.354846e+01
  -7.739399e+01   6.365735e+01
  -9.387027e+01  -1.416044e+01
  -8.296032e+01  -1.244259e+02
  -2.909488e+01  -1.783029e+02
   9.888144e+01  -1.155994e+02
   1.156842e+02   1.276461e+01
   8.673794e+01   1.011374e+02
  -9.001964e+00   1.329878e+02
  -6.188134e+01   4.059055e+01
  -5.838978e+01  -2.430716e+01
   9.735315e+00  -4.975328e+01
   2.828811e+01  -2.503430e+01
  -2.028327e+01  -4.959692e+00
  -6.255382e+01  -1.915783e+01
  -3.886167e+01  -3.103489e+01
   6.191886e+01  -3.490954e+01
   1.345557e+02   5.459820e+00
   1.034996e+02   6.018210e+01
  -5.179571e+00   7.578574e+01
  -1.039395e+02   6.092336e+01
  -1.101737e+02  -8.695446e+00
  -3.024030e+01  -3.684197e+01
   4.287912e+01  -3.711208e+01
   6.249885e+01   1.811503e+01
   1.159200e+01   6.803856e+01
  -4.266022e+01   6.476142e+01
  -4.467700e+01   5.228073e+00
  -4.822864e+01  -4.518223e+01
  -3.163694e+01  -3.874192e+01
  -4.654776e+01   1.183557e+00
  -5.046092e+01  -5.157892e-01
  -3.354501e+01  -6.820081e+01
   5.528822e+00  -1.117440e+02
   1.294429e+02  -1.317877e+02
   1.454271e+02  -1.301477e+01
   9.081160e+01   7.450337e+01
  -1.205858e+00   1.156069e+02
  -8.884411e+01   5.936459e+01
  -4.770331e+01  -1.052334e+01
   4.821494e+01  -9.165320e+00
   7.938307e+01   2.800747e+01
   4.257959e+01   7.985999e+01
  -6.387016e+01   7.868881e+01
  -1.410831e+02   1.870615e+01
  -1.314558e+02  -4.438708e+01
  -7.279087e+00  -6.417565e+01
   5.084978e+01  -4.756851e+01
   3.814653e+01   8.597042e+00
  -2.919687e+01   2.333963e+01
  -7.554396e+01  -3.857947e-01
  -3.958561e+01  -8.340606e+01
   6.764666e+01  -1.128043e+02
   1.369530e+02  -5.817172e+01
   7.289465e+01   6.522979e+01
   1.946934e+01   1.600782e+02
  -4.859095e+01   1.016618e+02
  -7.555911e+01  -8.235043e+00
  -3.779156e+01  -9.659356e+01
   2.187962e+01  -7.684341e+01
   4.642921e+01  -2.533375e+00
   2.980893e+01   2.621207e+01
   8.863171e+00   4.982492e+00
   8.052335e+00  -1.329176e+01
   2.517056e+01   2.342135e+01
   4.045077e+01   6.882667e+01
   2.027092e+01   9.373777e+01
  -4.660472e+01   2.685545e+01
  -9.964203e+01  -3.143544e+01
  -9.853095e+01  -4.977430e+01
  -1.620667e+01  -4.186240e+01
   5.904405e+01  -2.680582e+01
   6.505899e+01   2.816686e+00
   1.866691e+01   1.259527e+01
  -2.397702e+01   1.134192e+01
  -2.198598e+01   8.452724e+00
   7.172530e+00  -1.810301e+00
  -1.874033e+00  -2.156206e+00
  -4.904767e+01   5.105255e+00
  -6.705239e+01  -2.202866e+01
  -1.316844e+01  -6.674537e+01
   7.730527e+01  -1.101753e+02
   1.593274e+02  -4.232026e+01
   1.246619e+02   4.446161e+01
   3.027626e+01   1.217933e+02
  -5.075415e+01   1.083893e+02
  -9.394743e+01   4.560067e+01
  -6.214635e+01  -8.778842e+00
  -2.342994e+01  -3.880007e+01
  -2.945172e+00  -1.220588e+01
  -1.104226e+01  -8.891322e+00
  -2.390883e+01  -3.822283e+01
  -7.713684e+00  -7.750888e+01
   1.575429e+01  -5.242787e+01
   6.254465e+01   4.781317e+00
   6.356528e+01   5.042119e+01
   1.014172e+01   8.634385e+01
  -5.442869e+01   3.087505e+01
  -9.618330e+01  -4.919441e+01
  -3.025210e+01  -7.675598e+01
   5.167117e+01  -5.024096e+01
   8.022216e+01   8.481899e+00
   3.286029e+01   5.599436e+01
  -2.705028e+01   4.556595e+01
  -2.954091e+01   1.844965e+01
   1.502742e+01  -6.704630e+00
   5.445133e+01   3.802653e+00
   1.829959e+01   2.256425e+01
  -6.533411e+01   4.301869e+01
  -8.784749e+01   3.752586e+01
  -5.380626e+01  -1.522013e+01
   2.047667e+01  -5.635964e+01
   5.146212e+01  -6.570615e+01
   4.280213e+01  -1.431405e+01
   1.222977e+01   3.913362e+01
  -2.030940e+01   3.462653e+01
  -2.406818e+01  -4.798339e+00
  -2.011538e+01  -3.882280e+01
   1.962220e+00  -3.512551e+01
   2.775150e+01   3.152389e+00
   2.820116e+01   2.044705e+01
   1.542174e+01   7.044304e+00
  -2.531152e+00  -1.948532e+01
  -7.024640e+00  -9.750663e+00
   5.792628e+00   2.304535e+01
   1.076802e+01   3.481903e+01
  -1.534339e+01   1.645796e+01
  -3.723225e+01  -2.290889e+01
  -1.924064e+01  -4.486003e+01
   3.005382e+01  -1.575166e+01
   4.637465e+01   2.354551e+01
   1.264637e+01   4.347428e+01
  -3.847641e+01   2.543236e+01
  -7.154662e+01  -5.626285e+00
  -3.313589e+01  -3.777903e+01
   1.753587e+01  -3.629066e+01
   4.792729e+01  -3.142875e+01
   2.640347e+01  -5.958948e+00
  -1.873990e+01   2.081745e+00
  -1.983944e+01  -3.290100e+00
   1.254186e+01  -1.384571e+01
   5.968239e+01  -1.848516e+00
