
 $NMID
 id='ANONYMOUS ', fmtdat='(2E16.6)'
 volume=1.0
 tramp=1.0
 $END
   3.812574e+03  -1.790447e+02
   2.043675e+03   2.659356e+03
  -6.804872e+02   2.541540e+03
  -2.112380e+03   1.004946e+03
  -8.344713e+02  -4.329344e+02
   5.572887e+02  -4.935986e+02
   6.928623e+02   4.739240e+02
  -8.530371e+01   1.005175e+03
  -6.179602e+02   6.567261e+02
  -8.459587e+02  -1.063514e+02
  -3.734204e+02  -8.663746e+02
   1.687433e+02  -7.402721e+02
   6.629184e+02  -3.774292e+01
   2.188778e+02   6.745992e+02
  -1.806033e+02   6.590224e+02
  -5.332246e+02  -1.327668e+02
  -1.716963e+02  -6.482935e+02
   2.048588e+02  -5.189895e+02
   4.833116e+02  -4.062008e+01
   3.403143e+02   3.334139e+02
   4.931541e+01   3.683018e+02
  -2.022627e+02   2.248186e+02
  -1.956247e+02   3.920358e+01
   1.225986e+02  -2.823745e+01
   3.737278e+02   9.024285e+01
   1.611695e+02   4.207733e+02
  -3.913604e+02   3.055737e+02
  -6.635348e+02  -1.562851e+02
  -3.865321e+02  -4.710602e+02
   3.662620e+02  -3.666445e+02
   6.393713e+02   6.489988e+01
   2.178325e+02   4.740531e+02
  -2.866552e+02   4.549621e+02
  -5.025714e+02   2.103684e+02
  -3.172373e+02  -2.229278e+02
   8.789601e+00  -4.982831e+02
   2.127619e+02  -2.417958e+02
   1.162577e+02   1.424576e+02
  -1.267067e+02   3.182171e+02
  -4.090365e+02   2.438076e+01
  -2.228230e+02  -5.946545e+02
   3.074865e+02  -6.308866e+02
   5.435936e+02  -4.441023e+01
   1.293975e+02   5.145566e+02
  -3.179608e+02   2.277338e+02
  -3.086624e+02  -3.445076e+02
   7.561014e+01  -4.882020e+02
   5.408737e+02  -1.888517e+02
   4.741893e+02   4.055853e+02
   2.035408e+02   4.959211e+02
  -3.100497e+02   3.189651e+02
  -5.807548e+02  -1.174032e+02
  -3.096116e+02  -3.037254e+02
   1.113490e+02  -3.214224e+02
   4.269968e+02  -3.178557e+01
   2.202176e+02   1.900470e+02
  -1.150246e+02   8.473577e+01
  -1.226011e+02  -9.163172e+01
   1.825743e+02  -1.498341e+02
   2.952450e+02   1.096727e+02
   1.400740e+02   3.060231e+02
  -1.807298e+02   2.047856e+02
  -2.879181e+02   5.854256e+01
  -1.857574e+02  -6.339030e+01
   4.635618e-01  -2.063866e+02
   1.680673e+02  -3.533834e+02
   3.027250e+02  -1.848837e+02
   2.563297e+02   1.474760e+02
   8.277261e+01   3.572352e+02
  -1.063985e+02   3.563758e+02
  -9.601903e+01   7.636083e+01
  -2.021650e+01   2.471412e+01
  -5.561506e+01   6.666232e+01
  -1.699353e+02   1.070347e+02
  -2.577791e+02  -7.071017e+01
  -1.129423e+02  -3.016437e+02
   7.027164e+01  -2.041378e+02
   2.254633e+02   2.060996e+01
   1.531930e+02   2.000422e+02
  -7.214349e+00   2.992172e+02
  -2.085252e+02   1.395012e+02
  -3.028776e+02  -2.040615e+02
  -1.768554e+02  -2.954917e+02
   6.765548e+01  -2.981291e+02
   1.917876e+02  -6.990431e+01
   1.267211e+02   2.625106e+00
   1.028130e+02  -4.858858e+01
   2.313984e+02  -7.259816e+01
   3.550042e+02   3.352189e+01
   3.354906e+02   2.235933e+02
  -1.007130e+01   3.817154e+02
  -3.059703e+02   4.076698e+02
  -4.913416e+02   1.636220e+02
  -2.923584e+02  -1.275520e+02
  -1.197214e+01  -2.582139e+02
   9.537746e+01  -2.401297e+02
   8.597411e+01  -1.652464e+01
  -1.223000e+02   7.904149e+01
  -1.713245e+02  -6.241775e+00
  -2.290785e+01  -1.751038e+02
   1.650772e+02  -1.687445e+02
   1.689205e+02   4.761635e+01
  -3.028331e+01   1.702967e+02
  -2.000807e+02   3.687060e+01
  -1.407133e+02  -2.107277e+02
   2.980216e+01  -3.154610e+02
   2.204478e+02  -1.782552e+02
   2.798014e+02   7.789697e+01
   1.964119e+02   2.148061e+02
   6.860463e+01   2.341269e+02
  -9.352645e+01   1.481982e+02
  -1.697184e+02   1.686683e+01
  -4.509988e+01  -2.537217e+01
   6.160000e+01   2.951931e+01
   2.882778e+01   1.350760e+02
  -1.127463e+02   8.302274e+01
  -1.561902e+02  -1.166494e+01
  -5.868114e+01  -5.337475e+01
   7.345716e+01  -1.129399e+01
   4.410545e+01   7.328078e+01
  -1.059194e+02   9.151359e+01
  -2.490156e+02  -2.387812e+01
  -2.342984e+02  -1.381541e+02
  -4.727415e+01  -2.488914e+02
   1.898717e+02  -2.208197e+02
   2.793100e+02  -1.202902e+02
   1.638143e+02   5.123604e+01
  -2.932048e+01   9.868909e+01
  -8.051387e+01  -5.849604e-02
   3.846175e+01  -9.344879e+01
   1.805198e+02  -4.710344e+01
   1.954956e+02   9.915195e+01
   7.056627e+01   1.941969e+02
  -7.848796e+01   1.386131e+02
  -1.357038e+02   1.367244e+01
  -7.022492e+01  -3.975083e+01
   2.803917e+01   8.666428e+00
   2.507759e+01   6.154962e+01
  -6.464864e+01   9.866821e+01
  -1.756018e+02   2.277434e+01
  -1.744657e+02  -1.333443e+02
  -2.927964e+01  -2.050220e+02
   1.525147e+02  -1.304577e+02
   1.513279e+02  -2.916230e+00
   5.824707e+01   1.095063e+02
  -6.656499e+01   9.173557e+01
  -8.268313e+01   2.849844e+01
  -1.706352e+01  -2.192921e+01
   1.744413e+01  -1.874363e+01
  -8.122643e+00   4.901420e+00
  -6.844237e+01  -1.008668e+01
  -7.115166e+01  -7.568537e+01
  -1.915271e+01  -1.304070e+02
   1.303040e+02  -1.275098e+02
   1.715966e+02   2.899368e+00
   1.626969e+02   1.579826e+02
   2.858690e+01   2.059424e+02
  -1.233061e+02   1.527445e+02
  -1.176233e+02   2.072795e+01
  -6.449046e+01  -5.230065e+01
  -3.027940e+01  -3.489202e+01
  -5.058731e+01   1.289251e+01
  -7.335122e+01   6.329872e+00
  -3.829741e+01  -4.256328e+01
   3.155138e+01  -7.095947e+01
   8.212170e+01  -5.111908e+01
   7.434852e+01   2.885811e+01
  -5.035904e+00   1.098123e+02
  -1.245163e+02   7.853053e+01
  -1.753652e+02  -5.235827e+01
  -7.288596e+01  -1.938620e+02
   1.115460e+02  -2.101037e+02
   2.474290e+02  -6.849856e+01
   2.297326e+02   9.570960e+01
   9.489404e+01   1.693357e+02
  -4.266079e+01   1.493349e+02
  -7.000235e+01   7.084570e+01
  -6.333960e+01   5.752132e+01
  -6.337527e+01   6.992745e+01
  -8.146287e+01   7.365487e+01
  -1.092128e+02  -2.029241e+01
  -1.147030e+02  -1.392159e+02
   1.849096e-01  -2.244191e+02
   9.385146e+01  -1.441910e+02
   1.696023e+02  -1.435031e+01
   9.993357e+01   1.290393e+02
   2.240838e+01   1.466593e+02
  -6.301671e+01   9.318539e+01
  -5.197088e+01  -1.086697e+01
  -3.527854e+00  -3.919992e+01
   9.792893e+00  -3.547980e+01
  -3.073715e+01  -1.477419e+01
  -6.509061e+01  -2.352576e+01
  -3.772365e+01  -3.309582e+01
   5.115665e+01  -3.899523e+01
   1.507771e+02   2.591674e+01
   1.148997e+02   5.190638e+01
   1.796127e+01   8.971884e+01
  -1.169517e+02   5.781020e+01
  -1.307768e+02   1.254508e+01
  -4.592383e+01  -3.073698e+01
   5.402202e+01  -3.192268e+01
   7.301742e+01   2.751523e+01
   7.790296e+00   5.079177e+01
  -4.667667e+01   4.319925e+01
  -4.382972e+01  -1.071920e+01
  -4.669369e+01  -3.938262e+01
  -3.495281e+01  -4.031652e+01
  -5.368096e+01  -5.196819e+00
  -5.663572e+01  -4.489848e-01
  -4.052814e+01  -5.776932e+01
   2.527135e+01  -1.318439e+02
   1.055960e+02  -1.271451e+02
   1.346132e+02  -3.183637e+01
   1.009997e+02   7.359003e+01
   2.509024e+01   1.025465e+02
  -7.225743e+01   5.702449e+01
  -5.614630e+01  -1.458525e+01
   5.239794e+01  -1.625281e+01
   1.215484e+02   2.856662e+01
   7.362022e+01   9.235938e+01
  -6.284739e+01   9.275638e+01
  -1.612022e+02   3.552377e+01
  -1.650542e+02  -5.091333e+01
  -2.912375e+01  -7.700306e+01
   5.535464e+01  -7.815031e+01
   4.727309e+01  -3.052427e+00
  -3.498582e+01   2.075769e+01
  -7.301761e+01  -1.846318e+01
  -3.945477e+01  -1.119766e+02
   8.517599e+01  -1.353729e+02
   1.390988e+02  -7.794717e+01
   9.715723e+01   1.002192e+02
   1.278667e+01   1.680878e+02
  -1.028806e+02   1.144721e+02
  -8.294351e+01  -8.486497e+00
  -4.848230e+01  -1.197225e+02
   1.318591e+01  -1.053950e+02
   3.880153e+01  -2.151817e+01
   4.342178e+01   2.787973e+01
   2.411161e+01   1.218920e+01
   2.623352e+00  -1.995482e+01
   2.178687e+01   1.132889e+01
   5.957513e+01   8.452865e+01
   2.607402e+01   1.008347e+02
  -4.697426e+01   4.478217e+01
  -1.148737e+02  -4.657090e+01
  -1.061056e+02  -8.548028e+01
  -1.738586e+01  -4.494383e+01
   9.542732e+01  -1.208810e+01
   7.375904e+01  -6.446696e+00
   9.292467e+00   6.309436e+00
  -2.673231e+01   1.459280e+01
  -1.549927e+01   1.826588e+01
   1.865564e+01   1.731668e-01
  -3.733689e+00  -8.105886e+00
  -7.073134e+01  -5.861891e+00
  -8.070547e+01  -2.635490e+01
  -1.161832e+01  -6.417416e+01
   1.153520e+02  -9.656603e+01
   1.604440e+02  -6.062726e+01
   1.402092e+02   6.399600e+01
   1.098390e+01   1.410850e+02
  -8.912873e+01   1.214252e+02
  -9.851880e+01   5.512342e+01
  -7.238528e+01  -2.745888e+01
  -2.189561e+01  -3.205972e+01
   7.247483e-01  -8.088455e+00
  -8.493218e+00  -4.524633e+00
  -2.544820e+01  -4.301792e+01
  -2.732544e+01  -7.458036e+01
   2.768931e+01  -5.558173e+01
   6.714917e+01   1.459948e+01
   5.584696e+01   9.999795e+01
   1.206724e+00   9.198033e+01
  -5.885542e+01   1.659276e+01
  -7.538050e+01  -8.210646e+01
  -1.683264e+01  -9.251254e+01
   6.178927e+01  -4.913305e+01
   8.803649e+01   1.181587e+01
   2.792643e+01   4.831124e+01
  -2.462835e+01   3.881859e+01
  -2.329095e+01   2.966142e+01
   2.905939e+01  -1.844710e+00
   5.800779e+01  -6.689608e+00
   1.542890e+01   1.928386e+01
  -7.640649e+01   4.512656e+01
  -1.032867e+02   4.840107e+01
  -6.009895e+01  -1.639192e+01
   9.048290e+00  -7.148095e+01
   6.225847e+01  -7.109256e+01
   3.168938e+01  -8.120999e+00
  -5.054104e+00   5.269218e+01
  -2.014076e+01   3.880287e+01
  -3.214097e+01  -2.055341e+01
  -2.264515e+01  -5.261379e+01
   4.971644e+00  -3.442162e+01
   3.088094e+01   7.981648e+00
   3.443754e+01   2.001360e+01
   1.934365e+01  -1.563327e-01
  -2.272663e+00  -1.464358e+01
  -6.304222e+00  -6.976311e-01
  -1.404820e+00   3.178411e+01
  -1.559694e+01   3.548007e+01
  -3.221225e+01   4.723664e+00
  -2.000626e+01  -3.339903e+01
  -2.142933e+00  -5.499839e+01
   4.214945e+01  -1.618945e+01
   5.133495e+01   3.567687e+01
   1.413563e+01   5.688915e+01
  -4.183345e+01   2.232069e+01
  -7.964354e+01  -1.308437e+01
  -3.677828e+01  -4.460060e+01
   2.145888e+01  -3.291162e+01
   5.273036e+01  -9.487014e+00
   2.325044e+01  -4.648150e+00
  -3.248157e+01   1.862426e+00
  -3.315005e+01  -1.316850e+01
   2.652028e+01  -2.224649e+01
   7.302793e+01  -1.088687e+01
