
 $NMID
 id='ANONYMOUS ', fmtdat='(2E16.6)'
 volume=1.0
 tramp=1.0
 $END
  -3.709959e+03  -1.164571e+02
  -2.175156e+03  -2.357202e+03
   6.923856e+02  -2.901657e+03
   1.775873e+03  -8.135968e+02
   8.412109e+02   5.281117e+02
  -6.988123e+02   5.568946e+02
  -6.583786e+02  -3.978805e+02
  -5.048399e+01  -1.030464e+03
   7.250719e+02  -8.059765e+02
   6.303859e+02   2.153407e+01
   3.135309e+02   6.820714e+02
  -2.347106e+02   9.421492e+02
  -5.334506e+02   7.981417e+01
  -4.060607e+02  -6.739193e+02
   2.886076e+02  -6.386578e+02
   6.584301e+02  -1.827861e+01
   2.565692e+02   6.846736e+02
  -2.640684e+02   6.153639e+02
  -4.970252e+02   1.375465e+02
  -3.308591e+02  -3.575408e+02
  -2.254018e+01  -4.065735e+02
   1.878925e+02  -2.570082e+02
   2.137392e+02   2.436268e+00
  -1.730121e+02   7.147970e+01
  -3.531220e+02  -1.695857e+02
  -1.943656e+02  -4.571769e+02
   5.201791e+02  -2.980980e+02
   8.471215e+02   2.165295e+02
   3.013079e+02   5.705371e+02
  -3.815555e+02   4.816644e+02
  -7.748550e+02  -9.870750e+01
  -2.774934e+02  -4.874747e+02
   2.208065e+02  -4.872463e+02
   5.337054e+02  -1.828132e+02
   3.816839e+02   1.954488e+02
   6.022565e+01   5.168671e+02
  -1.563289e+02   2.065446e+02
  -1.758472e+02  -2.468962e+02
   1.788938e+02  -3.658008e+02
   3.960903e+02   3.588382e+01
   1.214414e+02   6.363664e+02
  -4.186197e+02   6.618082e+02
  -6.547835e+02  -1.050610e+02
  -1.724473e+02  -5.889630e+02
   2.932302e+02  -2.537644e+02
   2.664161e+02   3.585507e+02
  -9.629708e+01   5.384016e+02
  -5.931387e+02   1.008996e+02
  -6.013157e+02  -4.242366e+02
  -8.442988e+01  -6.221882e+02
   3.686387e+02  -3.503259e+02
   6.365028e+02   1.149260e+02
   3.828792e+02   3.575342e+02
  -1.643890e+02   3.709373e+02
  -4.371517e+02   4.763539e+01
  -2.277049e+02  -1.919825e+02
   1.518565e+02  -6.813772e+01
   1.151243e+02   1.594723e+02
  -1.349061e+02   1.549099e+02
  -2.834153e+02  -1.228190e+02
  -8.649948e+01  -3.230341e+02
   1.670684e+02  -2.471428e+02
   2.966035e+02  -1.100473e+02
   2.059644e+02   7.088532e+01
   1.279630e+01   2.311550e+02
  -2.326328e+02   3.497394e+02
  -3.521960e+02   2.163832e+02
  -2.876905e+02  -1.359568e+02
  -3.441026e+01  -3.800925e+02
   1.006605e+02  -3.245283e+02
   9.568959e+01  -9.375889e+01
   1.722128e+01  -9.205924e+00
   4.485537e+01  -9.746837e+01
   2.182142e+02  -1.231780e+02
   2.879034e+02   4.923227e+01
   1.555962e+02   2.796915e+02
  -1.040007e+02   2.229798e+02
  -2.561293e+02   4.025905e+01
  -2.130137e+02  -2.398450e+02
  -1.556377e+01  -3.046061e+02
   2.691837e+02  -1.235545e+02
   3.583567e+02   1.889345e+02
   2.249612e+02   3.439410e+02
  -5.631221e+01   2.886314e+02
  -1.923424e+02   1.432407e+02
  -1.635120e+02   1.188083e+01
  -9.226496e+01   4.016797e+01
  -2.699632e+02   6.309531e+01
  -4.052295e+02  -9.090223e+01
  -3.272777e+02  -3.525003e+02
   3.597683e+01  -4.756179e+02
   3.244270e+02  -3.824799e+02
   5.007237e+02  -2.486047e+02
   3.150055e+02   7.573736e+01
   5.338658e+01   2.798723e+02
  -1.559890e+02   2.206242e+02
  -7.680234e+01   9.587174e+00
   1.028281e+02  -9.262417e+01
   1.700594e+02  -3.481391e+00
   5.682309e+00   2.048907e+02
  -1.369334e+02   1.587429e+02
  -1.831482e+02  -7.409730e+01
   4.278194e+01  -1.952218e+02
   1.930221e+02  -4.975525e+01
   1.583932e+02   1.802485e+02
  -1.929246e+01   2.949172e+02
  -2.409982e+02   1.908457e+02
  -3.433119e+02  -7.801333e+01
  -2.936910e+02  -2.461144e+02
  -1.018790e+02  -2.898121e+02
   1.379415e+02  -1.768475e+02
   1.762867e+02  -4.277286e+01
   6.218501e+01   3.070115e+01
  -5.585279e+01  -3.223082e+01
  -2.238164e+01  -1.202114e+02
   1.272591e+02  -1.078636e+02
   1.846956e+02   3.004600e+01
   5.791040e+01   6.555414e+01
  -7.641759e+01   9.171539e+00
  -5.496938e+01  -7.816483e+01
   1.265398e+02  -9.745402e+01
   3.081835e+02  -1.309787e+01
   2.397969e+02   1.556815e+02
   5.967249e+01   2.563499e+02
  -2.010311e+02   2.564742e+02
  -2.421447e+02   1.156016e+02
  -1.535179e+02  -3.935864e+01
   4.111698e+01  -1.163016e+02
   8.041423e+01  -1.188813e+01
  -2.841663e+01   1.070237e+02
  -2.162644e+02   9.155539e+01
  -2.269627e+02  -1.033030e+02
  -7.313812e+01  -2.198043e+02
   1.292963e+02  -1.321469e+02
   1.369445e+02  -2.633467e+01
   7.572992e+01   3.873784e+01
  -2.374364e+01  -1.608574e+00
  -5.691195e+01  -8.344267e+01
   6.412214e+01  -9.891711e+01
   1.850721e+02  -3.643886e+01
   2.188280e+02   1.536579e+02
   1.739841e+01   2.347094e+02
  -1.764934e+02   1.247359e+02
  -1.801828e+02   1.236724e+01
  -4.495044e+01  -1.135894e+02
   6.594101e+01  -1.168928e+02
   8.258442e+01  -2.234482e+01
   2.168466e+01   2.734972e+01
  -2.000679e+01   1.589815e+01
   9.421534e+00  -8.070849e+00
   7.019394e+01  -4.353686e+00
   8.591485e+01   8.208110e+01
   1.070504e+01   1.430011e+02
  -1.369958e+02   1.684235e+02
  -2.341160e+02   4.629915e+01
  -2.201250e+02  -1.232125e+02
  -1.331026e+01  -1.926869e+02
   7.927435e+01  -2.106973e+02
   1.397517e+02  -3.805136e+01
   7.934604e+01   5.140100e+01
   2.799342e+01   3.189485e+01
   4.625618e+01  -9.288636e+00
   7.371769e+01  -7.098814e+00
   4.758926e+01   5.052580e+01
  -1.619687e+01   9.006887e+01
  -1.078180e+02   4.996800e+01
  -7.975075e+01  -2.413417e+01
   2.453465e+01  -1.068296e+02
   1.201807e+02  -1.028335e+02
   2.044543e+02   2.360330e+01
   1.049562e+02   1.852686e+02
  -1.379601e+02   2.067203e+02
  -2.630697e+02   1.125848e+02
  -2.523613e+02  -1.024852e+02
  -9.200978e+01  -1.586800e+02
   1.514808e+01  -1.297035e+02
   9.088896e+01  -6.320453e+01
   7.212246e+01  -7.281147e+01
   4.937110e+01  -9.175697e+01
   9.995070e+01  -7.109205e+01
   1.314335e+02   1.788872e+01
   1.101656e+02   1.371938e+02
   2.721324e+01   2.186663e+02
  -8.338169e+01   2.044372e+02
  -1.591656e+02   2.077624e+01
  -1.514746e+02  -9.349513e+01
  -2.035956e+01  -1.470114e+02
   6.308925e+01  -7.137896e+01
   6.477797e+01  -8.948805e+00
   5.289851e+00   4.518135e+01
  -6.998033e+00   3.737350e+01
   3.826528e+01   2.105667e+01
   7.672063e+01   2.101541e+01
   4.916723e+01   2.353856e+01
  -6.524876e+01   3.385462e+01
  -1.636436e+02  -1.105997e+00
  -1.361024e+02  -5.005014e+01
  -4.656538e+00  -8.241369e+01
   1.205236e+02  -7.473452e+01
   1.312725e+02  -2.160819e+01
   4.175386e+01   4.139708e+01
  -5.663074e+01   3.915577e+01
  -7.166147e+01  -8.866027e+00
  -1.162489e+01  -7.465264e+01
   5.886290e+01  -6.539904e+01
   6.370735e+01  -1.183137e+01
   5.179017e+01   3.907109e+01
   4.154304e+01   2.948300e+01
   6.246424e+01   1.207712e+01
   7.232792e+01   5.574464e+00
   3.560535e+01   6.800665e+01
  -2.847717e+01   1.054866e+02
  -1.334696e+02   1.348704e+02
  -1.710804e+02   6.032481e+01
  -1.303443e+02  -9.109563e+01
  -1.620699e+00  -1.329899e+02
   9.364329e+01  -8.370520e+01
   5.728835e+01   1.600561e+01
  -5.522963e+01   2.350691e+01
  -1.142906e+02  -4.048895e+01
  -6.988074e+01  -1.062309e+02
   7.846743e+01  -9.990402e+01
   1.866953e+02  -6.215761e+01
   1.595874e+02   2.423719e+01
   3.842642e+01   7.720363e+01
  -6.869588e+01   5.793922e+01
  -5.240647e+01   4.968714e+00
   3.705504e+01  -2.935348e+01
   9.775526e+01   2.336151e+01
   1.518164e+01   1.102670e+02
  -6.397255e+01   1.424585e+02
  -1.677817e+02   5.469566e+01
  -1.352402e+02  -7.837091e+01
   1.327900e+00  -1.916351e+02
   7.568592e+01  -1.713466e+02
   9.827104e+01   1.600381e+01
   5.554977e+01   1.229749e+02
   4.897319e+00   1.001562e+02
  -4.081125e+01   1.437458e+01
  -5.294029e+01  -3.530302e+01
  -2.298658e+01  -1.017083e+01
  -1.866503e+00   1.949400e+01
  -2.571076e+01  -1.259996e+01
  -6.318985e+01  -8.167065e+01
  -3.948273e+01  -1.071567e+02
   3.925750e+01  -4.729060e+01
   1.520264e+02   1.596684e+01
   1.301098e+02   7.348534e+01
   1.637390e+01   4.396184e+01
  -7.981175e+01   2.121234e+01
  -8.280651e+01   5.619051e+00
  -1.207722e+01  -6.497225e+00
   3.784758e+01  -2.377533e+01
   1.597943e+01  -2.322791e+01
  -1.894700e+01   1.246668e+00
   5.394291e+00   9.663927e+00
   7.064543e+01   9.440550e+00
   8.734298e+01   2.583299e+01
   1.758613e+01   7.063978e+01
  -1.175838e+02   1.107391e+02
  -1.810351e+02   6.885012e+01
  -1.129462e+02  -5.494375e+01
  -3.398063e+01  -1.622821e+02
   6.928405e+01  -1.330137e+02
   1.109741e+02  -4.807468e+01
   8.190103e+01   2.452367e+01
   3.094245e+01   3.708647e+01
  -2.765162e+00   7.932864e+00
   9.246716e+00   4.445912e+00
   3.622962e+01   4.528266e+01
   2.111914e+01   9.043283e+01
  -2.430383e+01   6.563487e+01
  -7.799605e+01  -2.220922e+01
  -6.791971e+01  -9.245279e+01
  -1.692945e+01  -1.096469e+02
   8.042244e+01  -3.012253e+01
   1.079306e+02   7.713692e+01
   3.656129e+01   9.842169e+01
  -6.448598e+01   4.401268e+01
  -9.081126e+01   2.498419e+00
  -4.871093e+01  -4.340125e+01
   2.794698e+01  -4.674935e+01
   2.625622e+01  -2.537407e+01
  -2.999703e+01   5.434873e+00
  -6.453202e+01   1.491758e+01
  -1.601847e+01  -2.344016e+01
   7.241706e+01  -7.981965e+01
   9.831469e+01  -6.320887e+01
   6.003892e+01   2.858337e+00
  -2.368423e-01   7.700247e+01
  -3.197176e+01   8.805266e+01
  -4.153326e+01   7.932917e+00
   2.403672e+00  -5.294630e+01
   2.640367e+01  -4.572874e+01
   3.074207e+01   1.430891e+01
   2.223461e+01   5.338124e+01
  -3.111727e+00   2.989832e+01
  -3.083804e+01  -6.028638e+00
  -4.064894e+01  -1.635784e+01
  -1.811760e+01  -7.747235e-01
   3.309310e+00   1.361038e+01
   8.858780e+00  -1.113591e+00
   6.528493e+00  -3.326980e+01
   1.005532e+01  -4.260188e+01
   2.134761e+01  -1.245669e+01
   3.409973e+01   3.856108e+01
  -1.033717e+01   5.101265e+01
  -3.946939e+01   2.350914e+01
  -5.394384e+01  -3.109938e+01
  -2.054395e+01  -5.387900e+01
   5.167037e+01  -3.810652e+01
   8.401915e+01   5.526993e+00
   4.809700e+01   3.877114e+01
  -3.617304e+01   3.738705e+01
  -6.159240e+01   1.024507e+01
  -2.452427e+01   6.237290e+00
   3.486020e+01   5.983251e-02
   3.504217e+01   1.691539e+01
  -2.802587e+01   2.869051e+01
  -8.642814e+01   1.858665e+01
