
 $NMID
 id='ANONYMOUS ', fmtdat='(2E16.6)'
 volume=1.0
 tramp=1.0
 $END
  -3.533066e+03   3.844099e+02
  -2.713848e+03  -2.465011e+03
   5.649020e+01  -2.402425e+03
   1.445388e+03  -1.046046e+03
   7.416533e+02   1.780867e+02
  -4.530630e+02   2.708982e+02
  -7.351437e+02  -3.910777e+02
  -1.144626e+01  -9.116916e+02
   6.628658e+02  -5.819297e+02
   7.493478e+02   1.056133e+02
   4.362988e+02   7.979848e+02
  -1.455059e+02   6.926599e+02
  -5.795688e+02   6.271530e+01
  -3.248759e+02  -5.236508e+02
   9.883164e+01  -6.013443e+02
   5.001826e+02  -5.412826e+01
   2.477692e+02   5.540473e+02
  -2.214546e+02   4.826334e+02
  -4.356648e+02   2.595748e+02
  -4.121826e+02  -2.450786e+02
  -8.491806e+01  -4.374459e+02
   1.907979e+02  -2.165757e+02
   1.352455e+02  -5.503183e+00
  -1.781855e+02   7.462942e+01
  -4.107222e+02  -2.482992e+02
  -6.224491e+01  -4.420722e+02
   4.145754e+02  -3.168734e+02
   6.385025e+02  -4.417633e+01
   2.668693e+02   4.308400e+02
  -4.348673e+02   4.069399e+02
  -7.066937e+02  -1.101177e+02
  -2.382611e+02  -4.830279e+02
   2.401466e+02  -4.740381e+02
   5.653069e+02  -1.690273e+02
   3.961329e+02   2.035706e+02
   6.621371e+01   3.969629e+02
  -1.543753e+02   2.142623e+02
  -6.179044e+01  -2.094298e+02
   2.299047e+02  -3.241885e+02
   3.240601e+02   1.020523e+02
   5.156015e+01   5.643702e+02
  -2.772433e+02   5.543869e+02
  -5.478787e+02  -3.100096e+01
  -2.269665e+02  -5.390763e+02
   2.737858e+02  -2.559113e+02
   2.938525e+02   3.029515e+02
  -1.255279e+02   4.722089e+02
  -5.278910e+02   1.327639e+02
  -5.608920e+02  -4.092176e+02
  -8.710525e+01  -5.546724e+02
   3.517214e+02  -2.964285e+02
   5.849399e+02   1.355357e+02
   3.693680e+02   3.196187e+02
  -1.619517e+02   2.924116e+02
  -3.498348e+02   4.958948e+01
  -1.974038e+02  -1.991240e+02
   3.809724e+01  -3.602426e+01
   1.101370e+02   1.003465e+02
  -1.408199e+02   1.353006e+02
  -2.983944e+02  -6.268800e+01
  -8.797968e+01  -2.495912e+02
   1.471217e+02  -2.268558e+02
   3.532606e+02  -1.046134e+02
   2.594982e+02   9.489803e+01
  -1.577177e+01   2.361334e+02
  -2.457692e+02   3.051230e+02
  -3.886762e+02   1.940320e+02
  -2.256516e+02  -1.333900e+02
  -4.649239e+01  -3.658374e+02
   1.083540e+02  -3.055259e+02
   8.991372e+01  -1.217803e+02
   2.625714e+00  -4.970557e+01
   5.588718e+01  -1.121436e+02
   2.374992e+02  -1.207543e+02
   2.619543e+02   6.513502e+01
   1.257927e+02   2.747670e+02
  -7.035995e+01   2.329184e+02
  -2.094901e+02  -7.540712e+00
  -1.657136e+02  -2.038105e+02
   3.664345e+01  -3.408096e+02
   2.444101e+02  -9.084743e+01
   3.218577e+02   1.909147e+02
   1.762183e+02   2.577346e+02
  -8.563859e+01   2.660364e+02
  -1.743597e+02   1.587500e+02
  -1.503624e+02   2.419838e+01
  -1.029839e+02   4.841345e+01
  -2.355259e+02   6.192868e+01
  -3.579752e+02  -3.728311e+01
  -3.386382e+02  -2.804376e+02
   6.187461e+01  -4.702352e+02
   3.012179e+02  -3.362870e+02
   4.624007e+02  -2.375120e+02
   3.471437e+02   7.613535e+01
   5.312510e+01   2.703295e+02
  -1.575483e+02   2.215570e+02
  -5.797693e+01   2.578254e+01
   1.161023e+02  -7.301021e+01
   1.613678e+02  -4.939323e+00
   5.361570e+01   1.821105e+02
  -1.829721e+02   1.542296e+02
  -1.723927e+02  -8.721848e+01
   4.601025e+01  -1.932725e+02
   2.053912e+02  -3.111795e+01
   1.688143e+02   2.361992e+02
   1.183811e+00   3.606648e+02
  -2.111789e+02   1.869880e+02
  -3.793721e+02  -3.137699e+01
  -2.880273e+02  -2.094495e+02
  -8.248854e+01  -2.604502e+02
   1.126067e+02  -1.666740e+02
   1.876113e+02  -2.601026e+01
   4.782400e+01   1.710183e+01
  -5.903143e+01  -4.491461e+01
  -4.159952e+00  -1.250982e+02
   1.467597e+02  -8.222045e+01
   1.843469e+02   2.837818e+01
   4.277810e+01   5.437156e+01
  -8.424208e+01   2.647522e+00
  -4.868394e+01  -9.387362e+01
   1.479892e+02  -1.051869e+02
   2.899884e+02  -1.883756e+01
   2.537400e+02   1.373941e+02
   4.237757e+01   2.379161e+02
  -2.558056e+02   2.499394e+02
  -1.994231e+02   8.507256e+01
  -1.378268e+02  -5.350843e+01
   4.093415e+01  -9.933565e+01
   7.316774e+01  -2.120525e+01
  -5.165866e+01   1.149498e+02
  -2.010932e+02   6.346160e+01
  -2.000226e+02  -1.215418e+02
  -8.582949e+01  -2.081987e+02
   8.252786e+01  -1.314530e+02
   1.280770e+02  -2.121430e+01
   6.101709e+01   4.879255e+01
  -2.917925e+01  -4.842065e+00
  -5.292915e+01  -7.697651e+01
   7.524937e+01  -1.141722e+02
   1.974123e+02  -2.538011e+01
   1.798925e+02   1.433384e+02
  -2.419409e+01   2.255417e+02
  -1.798181e+02   1.665175e+02
  -1.822091e+02   4.521578e+00
  -4.411433e+01  -1.143172e+02
   5.019723e+01  -9.085507e+01
   8.055400e+01  -1.073832e+01
   1.453976e+01   3.236804e+01
  -2.420042e+01   1.511949e+01
   1.154974e+01  -9.846715e+00
   6.171097e+01  -5.432054e+00
   9.255149e+01   9.540862e+01
   1.285009e+00   1.663339e+02
  -1.225832e+02   1.422257e+02
  -2.018028e+02   5.129497e+01
  -1.774168e+02  -1.362229e+02
  -4.510872e+01  -2.014744e+02
   7.743474e+01  -1.795550e+02
   1.578933e+02  -2.608054e+01
   7.416428e+01   4.853125e+01
   3.933230e+01   3.636303e+01
   5.476129e+01  -1.407670e+01
   6.909667e+01  -1.185808e+00
   3.972805e+01   4.998446e+01
  -4.531369e+01   9.589776e+01
  -1.008608e+02   6.159892e+01
  -9.596488e+01  -2.999407e+01
   2.796182e+01  -1.148348e+02
   1.479981e+02  -9.884799e+01
   1.835739e+02   4.460867e+01
   1.132063e+02   2.028639e+02
  -1.033552e+02   1.969031e+02
  -2.435966e+02   1.216410e+02
  -2.312229e+02  -1.118286e+02
  -9.675586e+01  -1.553835e+02
   3.459836e+01  -1.428563e+02
   8.985381e+01  -9.022406e+01
   7.649084e+01  -7.058418e+01
   5.820958e+01  -1.051278e+02
   8.707944e+01  -7.475034e+01
   1.341715e+02   1.998568e+01
   1.163670e+02   1.693682e+02
   2.414610e+01   2.383501e+02
  -9.787731e+01   1.725537e+02
  -1.775661e+02   1.440846e+01
  -1.400820e+02  -1.062275e+02
  -3.071553e+01  -1.481865e+02
   9.128601e+01  -9.981076e+01
   6.294181e+01   7.348529e+00
   3.263643e+00   4.937828e+01
  -1.469788e+01   4.384941e+01
   3.362328e+01   1.151309e+01
   7.838485e+01   3.769592e+00
   4.393157e+01   3.761954e+01
  -6.833016e+01   2.740654e+01
  -1.395364e+02  -1.210377e+01
  -1.438891e+02  -5.157691e+01
  -1.172980e+01  -8.228965e+01
   1.332969e+02  -6.407576e+01
   1.492407e+02  -2.376881e+01
   4.235266e+01   4.376051e+01
  -5.816962e+01   4.370482e+01
  -8.930953e+01  -1.262351e+01
  -1.908618e+01  -7.592661e+01
   6.852169e+01  -7.006741e+01
   7.145906e+01   4.200776e+00
   5.509256e+01   4.324382e+01
   4.412871e+01   3.688026e+01
   6.409771e+01   3.077113e+00
   6.682019e+01  -3.653378e-01
   4.329665e+01   6.645628e+01
  -1.731827e+01   1.459954e+02
  -1.169591e+02   1.240841e+02
  -1.592357e+02   4.402489e+01
  -1.178271e+02  -9.145117e+01
  -6.745850e+00  -1.341308e+02
   1.009761e+02  -7.011618e+01
   6.050116e+01   1.684910e+01
  -5.763551e+01   1.653954e+01
  -1.339092e+02  -4.284326e+01
  -5.375558e+01  -9.686845e+01
   8.468773e+01  -1.122670e+02
   2.238363e+02  -5.449331e+01
   1.680235e+02   1.595717e+01
   3.713704e+01   7.923385e+01
  -7.522681e+01   6.184539e+01
  -4.780556e+01   2.367656e+00
   3.513302e+01  -3.327396e+01
   8.378567e+01   3.497880e+01
   3.698961e+01   1.057279e+02
  -5.368963e+01   1.394308e+02
  -1.612348e+02   5.335255e+01
  -1.443922e+02  -7.856221e+01
  -5.969291e-01  -2.183584e+02
   8.564489e+01  -1.504735e+02
   9.730256e+01   1.276965e+01
   5.424995e+01   1.233917e+02
   7.697033e+00   8.545488e+01
  -4.905347e+01   2.089428e+01
  -5.112263e+01  -3.659588e+01
  -2.122899e+01  -7.634158e+00
  -3.732991e+00   1.757221e+01
  -3.128599e+01  -1.899772e+01
  -5.787037e+01  -8.226779e+01
  -3.757959e+01  -1.137077e+02
   4.285126e+01  -5.382461e+01
   1.257325e+02   1.963056e+01
   1.465304e+02   8.569106e+01
   1.802752e+01   4.287307e+01
  -8.545399e+01   1.739407e+01
  -7.639959e+01   1.044107e+01
  -1.140972e+01  -7.017999e+00
   3.480136e+01  -2.108014e+01
   1.823293e+01  -1.615485e+01
  -2.016587e+01   2.500609e+00
   2.855013e+00   7.764862e+00
   6.370905e+01   5.173951e+00
   9.395365e+01   1.805465e+01
   1.106971e+01   6.160720e+01
  -9.889160e+01   1.153322e+02
  -1.471429e+02   6.374103e+01
  -1.575318e+02  -6.465595e+01
  -3.323825e+01  -1.548616e+02
   7.441661e+01  -1.631501e+02
   1.063826e+02  -6.820007e+01
   8.549521e+01   2.340914e+01
   2.627542e+01   3.988678e+01
   5.286225e-02   9.281624e+00
   1.272264e+01   5.651568e+00
   4.669287e+01   5.309673e+01
   3.518284e+01   8.206040e+01
  -3.844863e+01   7.901082e+01
  -8.024393e+01  -1.416908e+01
  -7.614403e+01  -1.161047e+02
  -3.191999e+01  -1.004639e+02
   8.294866e+01  -2.690951e+01
   1.122796e+02   6.382515e+01
   4.265655e+01   1.104464e+02
  -6.321501e+01   6.808192e+01
  -1.058235e+02   4.162818e+00
  -4.999220e+01  -5.820613e+01
   3.075859e+01  -5.886782e+01
   3.540983e+01  -2.596403e+01
  -2.777821e+01   1.280932e+00
  -5.772645e+01   9.106778e+00
  -1.965337e+01  -2.558157e+01
   6.544988e+01  -7.034004e+01
   1.106662e+02  -5.174234e+01
   7.513454e+01   1.835801e+01
  -1.217866e+01   8.342717e+01
  -3.957754e+01   8.492694e+01
  -4.508247e+01   6.884336e+00
  -5.844966e+00  -4.571487e+01
   2.256956e+01  -4.341140e+01
   3.250695e+01   1.345789e+01
   2.423566e+01   4.596011e+01
   2.139071e+00   2.677607e+01
  -3.900105e+01  -1.044713e+01
  -4.149563e+01  -2.020989e+01
  -2.185339e+01  -2.005828e+00
   2.479774e+00   1.504434e+01
   7.954527e+00   2.221762e-01
  -4.325412e+00  -3.235030e+01
   5.397774e+00  -4.414985e+01
   3.170841e+01  -1.604047e+01
   3.309946e+01   5.245316e+01
   2.478220e+00   6.119241e+01
  -3.382444e+01   2.841407e+01
  -6.714569e+01  -2.601473e+01
  -2.064321e+01  -6.460800e+01
   4.093487e+01  -3.170282e+01
   9.012678e+01   1.510390e+01
   4.885263e+01   3.027354e+01
  -2.770233e+01   3.817089e+01
  -5.633033e+01   2.177851e+01
  -2.218856e+01   1.256341e+01
   3.593627e+01   1.990575e+00
   3.759526e+01   1.494075e+01
  -2.585122e+01   2.690391e+01
  -7.194133e+01   2.880789e+01
