
 $NMID
 id='ANONYMOUS ', fmtdat='(2E16.6)'
 volume=1.0
 tramp=1.0
 $END
   3.428979e+03   2.166060e+02
   2.203502e+03   2.451719e+03
  -5.119444e+02   2.780742e+03
  -1.677885e+03   9.179823e+02
  -8.392044e+02  -4.130023e+02
   6.219883e+02  -3.531288e+02
   6.593575e+02   2.610714e+02
  -1.689478e+01   8.818181e+02
  -7.050052e+02   6.363594e+02
  -6.804978e+02  -5.725913e+01
  -3.977607e+02  -7.903110e+02
   2.052414e+02  -7.634773e+02
   5.549021e+02  -8.227728e+01
   4.312989e+02   6.696285e+02
  -1.752149e+02   6.401514e+02
  -6.642543e+02   7.916829e+01
  -2.403884e+02  -6.377045e+02
   2.420748e+02  -5.216793e+02
   4.995075e+02  -1.763716e+02
   4.047427e+02   3.079081e+02
   9.598101e+01   4.233603e+02
  -1.977488e+02   2.364162e+02
  -1.466660e+02  -1.153933e+01
   1.663077e+02  -6.688868e+01
   3.973792e+02   2.601891e+02
   6.829637e+01   4.352470e+02
  -4.383045e+02   2.626625e+02
  -7.372419e+02  -7.865017e+01
  -2.633764e+02  -5.018709e+02
   4.571206e+02  -4.192047e+02
   6.728825e+02   1.665941e+02
   2.692119e+02   4.984237e+02
  -2.009493e+02   4.262107e+02
  -5.082527e+02   1.926134e+02
  -3.974673e+02  -1.938212e+02
  -6.248696e+01  -4.787049e+02
   1.714945e+02  -2.179191e+02
   1.094543e+02   2.110810e+02
  -2.939601e+02   3.223886e+02
  -3.859337e+02  -7.275442e+01
  -3.502244e+01  -5.739616e+02
   3.638927e+02  -5.983313e+02
   5.741398e+02   4.815198e+01
   2.311520e+02   5.443246e+02
  -2.480073e+02   2.326070e+02
  -2.589639e+02  -3.749983e+02
   1.286683e+02  -4.896231e+02
   6.019656e+02  -6.578442e+01
   5.932047e+02   4.397097e+02
   4.345112e+01   5.951773e+02
  -3.806297e+02   3.237198e+02
  -6.623510e+02  -1.094870e+02
  -4.091541e+02  -3.563374e+02
   1.671219e+02  -3.477108e+02
   3.811866e+02   2.048881e+00
   2.116604e+02   2.017657e+02
  -9.240527e+01   6.114151e+01
  -1.036036e+02  -1.458584e+02
   1.525026e+02  -1.244533e+02
   3.028742e+02   7.631439e+01
   6.431960e+01   2.857582e+02
  -1.868231e+02   2.491193e+02
  -3.372023e+02   8.552744e+01
  -2.393808e+02  -8.851777e+01
   2.240572e+01  -2.649492e+02
   2.654462e+02  -3.517178e+02
   4.210739e+02  -2.252697e+02
   2.384121e+02   1.380092e+02
   3.033796e+00   3.882511e+02
  -1.142916e+02   3.423701e+02
  -1.008684e+02   1.118296e+02
   1.348222e+01   2.275746e+01
  -6.857676e+01   1.124055e+02
  -2.269140e+02   1.044842e+02
  -2.768498e+02  -6.597935e+01
  -1.572215e+02  -2.696123e+02
   7.071551e+01  -2.340724e+02
   2.389410e+02  -2.749039e+01
   1.982374e+02   2.386615e+02
  -1.030288e+01   3.324872e+02
  -2.658013e+02   9.436266e+01
  -3.342855e+02  -2.189096e+02
  -1.844195e+02  -3.454481e+02
   1.129274e+02  -2.716172e+02
   1.915259e+02  -1.506449e+02
   1.529828e+02  -1.668583e+01
   9.956991e+01  -4.550494e+01
   2.459429e+02  -5.861464e+01
   3.915333e+02   8.168860e+01
   2.828931e+02   3.369575e+02
  -4.049423e+01   4.956036e+02
  -3.523241e+02   3.206034e+02
  -4.949826e+02   1.980768e+02
  -3.337406e+02  -5.411003e+01
  -3.532420e+01  -2.618388e+02
   1.632536e+02  -2.235319e+02
   7.183524e+01  -1.208169e+01
  -1.209138e+02   7.250838e+01
  -1.782225e+02  -1.092215e+00
  -3.284317e+01  -1.959426e+02
   1.860653e+02  -1.433973e+02
   1.717055e+02   8.794239e+01
  -3.546024e+01   1.972298e+02
  -1.927113e+02   1.998440e+01
  -1.567135e+02  -2.069614e+02
  -1.024731e+00  -3.024134e+02
   2.212413e+02  -1.916772e+02
   3.897010e+02   6.121617e+01
   3.028521e+02   2.525179e+02
   7.648949e+01   3.204309e+02
  -1.272813e+02   1.662556e+02
  -1.879983e+02   1.401149e+01
  -5.030366e+01  -2.111720e+01
   5.539439e+01   4.777530e+01
   7.154490e+00   1.225501e+02
  -1.489465e+02   9.655795e+01
  -1.793260e+02  -5.069223e+01
  -4.780957e+01  -7.019815e+01
   7.277051e+01  -5.461438e+00
   4.459496e+01   9.050140e+01
  -1.464832e+02   1.125629e+02
  -2.629056e+02  -1.027885e+01
  -2.250181e+02  -1.467857e+02
  -1.450413e+01  -2.735481e+02
   2.290319e+02  -2.680330e+02
   2.434662e+02  -1.017922e+02
   1.435725e+02   5.692741e+01
  -4.638951e+01   1.050227e+02
  -7.614605e+01   1.554857e+01
   4.627512e+01  -1.141978e+02
   2.134026e+02  -8.820271e+01
   2.235788e+02   1.194339e+02
   7.405291e+01   2.113218e+02
  -1.354116e+02   1.294669e+02
  -1.377956e+02   6.591053e+00
  -6.613429e+01  -5.373372e+01
   3.001471e+01   3.682305e+00
   5.397427e+01   9.022314e+01
  -6.674539e+01   1.170616e+02
  -1.831068e+02   3.359040e+01
  -2.115499e+02  -1.329950e+02
   9.298083e+00  -2.265245e+02
   1.868607e+02  -1.508917e+02
   1.837287e+02  -4.048588e-01
   4.159347e+01   1.130665e+02
  -5.804892e+01   1.063149e+02
  -8.186925e+01   1.671452e+01
  -1.635729e+01  -3.538289e+01
   2.708279e+01  -1.726040e+01
  -8.650615e+00   1.267638e+01
  -6.592419e+01   7.899533e+00
  -9.355338e+01  -9.163680e+01
   2.951725e+00  -1.531035e+02
   1.429512e+02  -1.379117e+02
   2.234213e+02  -5.602497e+01
   2.175844e+02   1.274824e+02
   1.208156e+01   2.125182e+02
  -6.957315e+01   1.929732e+02
  -1.540937e+02   3.549416e+01
  -8.683775e+01  -5.114913e+01
  -3.312747e+01  -3.253096e+01
  -5.362603e+01   8.459034e+00
  -6.722996e+01   1.385977e+00
  -4.257538e+01  -4.963592e+01
   2.222505e+01  -9.312538e+01
   1.066982e+02  -4.787029e+01
   9.264209e+01   2.849201e+01
  -2.300006e+01   1.126716e+02
  -1.337554e+02   1.125642e+02
  -1.884057e+02  -3.767822e+01
  -1.101805e+02  -1.909475e+02
   1.325302e+02  -2.151119e+02
   2.544771e+02  -1.157196e+02
   2.266913e+02   1.174623e+02
   1.030401e+02   1.512543e+02
  -3.193930e+01   1.355252e+02
  -9.665740e+01   8.285940e+01
  -7.720613e+01   6.567525e+01
  -4.751732e+01   9.750784e+01
  -9.109798e+01   7.465379e+01
  -1.263910e+02  -2.206477e+01
  -1.235046e+02  -1.568158e+02
  -3.648362e+01  -2.307920e+02
   1.116553e+02  -2.018349e+02
   1.734373e+02  -1.709332e+01
   1.551364e+02   1.018286e+02
   3.090746e+01   1.556701e+02
  -7.837582e+01   9.212851e+01
  -6.478893e+01  -1.938087e+00
  -5.383760e+00  -4.908557e+01
   1.317894e+01  -4.269171e+01
  -3.853388e+01  -1.849755e+01
  -7.787496e+01  -1.516653e+01
  -4.944520e+01  -3.336346e+01
   6.933512e+01  -2.693027e+01
   1.510870e+02   1.585603e+01
   1.371694e+02   6.682912e+01
   8.603834e-01   8.606519e+01
  -1.405106e+02   8.987406e+01
  -1.447980e+02   2.609314e+01
  -4.303708e+01  -4.148414e+01
   5.859852e+01  -4.697296e+01
   8.938908e+01   1.587614e+01
   2.104471e+01   7.928643e+01
  -7.050837e+01   7.239973e+01
  -7.165913e+01   3.539461e+00
  -6.249883e+01  -5.099610e+01
  -4.619744e+01  -3.911332e+01
  -5.762948e+01  -6.540578e+00
  -6.900455e+01  -7.018307e+00
  -3.823960e+01  -7.256159e+01
   3.030936e+01  -1.216944e+02
   1.249789e+02  -1.389000e+02
   1.731520e+02  -3.343458e+01
   1.140490e+02   9.526237e+01
  -7.549287e+00   1.355160e+02
  -8.980550e+01   7.970337e+01
  -6.036792e+01  -1.452753e+01
   5.898221e+01  -2.223402e+01
   1.318925e+02   4.715985e+01
   6.509412e+01   1.013577e+02
  -7.854207e+01   1.123432e+02
  -2.289589e+02   4.956232e+01
  -1.567716e+02  -1.417077e+01
  -4.340393e+01  -7.496258e+01
   6.850863e+01  -6.183960e+01
   4.600870e+01  -2.362984e+00
  -4.231463e+01   3.558867e+01
  -1.038067e+02  -3.731252e+01
  -2.259042e+01  -1.125400e+02
   8.102878e+01  -1.333049e+02
   1.635485e+02  -5.347302e+01
   1.541921e+02   6.698994e+01
  -7.615735e+00   2.277766e+02
  -8.098716e+01   1.701114e+02
  -9.883247e+01  -2.021627e+01
  -4.793576e+01  -1.315406e+02
  -6.782366e+00  -9.792038e+01
   4.883913e+01  -1.477316e+01
   5.208215e+01   4.114761e+01
   2.296905e+01   8.965323e+00
   4.165511e+00  -1.905892e+01
   2.612736e+01   1.890639e+01
   5.829745e+01   8.052446e+01
   3.974713e+01   1.164284e+02
  -3.971849e+01   4.477513e+01
  -1.551425e+02  -1.236722e+01
  -1.397100e+02  -8.415512e+01
  -1.295633e+01  -4.575086e+01
   8.364673e+01  -1.775962e+01
   7.994581e+01  -1.001327e+01
   1.396512e+01   8.487008e+00
  -3.812275e+01   2.082825e+01
  -1.966799e+01   1.725683e+01
   1.862299e+01  -2.413858e+00
  -3.473252e+00  -8.874201e+00
  -7.328271e+01  -1.108110e+01
  -9.859734e+01  -2.317821e+01
  -1.880647e+01  -6.404665e+01
   1.047831e+02  -1.151080e+02
   1.644643e+02  -5.229924e+01
   1.478473e+02   6.621057e+01
   4.153449e+01   1.716685e+02
  -7.712474e+01   1.560409e+02
  -1.169456e+02   5.997546e+01
  -9.071943e+01  -2.741597e+01
  -2.619472e+01  -3.975079e+01
   2.409287e+00  -8.258690e+00
  -1.158822e+01  -6.962264e+00
  -4.184583e+01  -4.787175e+01
  -2.658211e+01  -8.360773e+01
   3.918983e+01  -8.172440e+01
   8.765960e+01   2.121693e+01
   7.550262e+01   1.068509e+02
   2.443796e+01   1.103073e+02
  -9.254249e+01   3.199724e+01
  -1.136747e+02  -8.184184e+01
  -4.464542e+01  -1.117309e+02
   6.994377e+01  -5.798423e+01
   1.050154e+02  -6.765011e+00
   4.620436e+01   4.947966e+01
  -2.588833e+01   5.673985e+01
  -3.550040e+01   2.765909e+01
   2.760624e+01   5.598026e-01
   6.385338e+01  -1.517995e+01
   1.872396e+01   2.734445e+01
  -7.838218e+01   7.968042e+01
  -1.061696e+02   5.305870e+01
  -6.587021e+01  -1.155620e+01
   7.337680e+00  -8.525702e+01
   3.456874e+01  -8.188710e+01
   4.498053e+01  -9.650910e+00
   2.851506e+00   5.191394e+01
  -2.472073e+01   4.430355e+01
  -3.379552e+01  -1.034922e+01
  -2.447015e+01  -5.153134e+01
  -9.600583e-01  -3.026427e+01
   3.374483e+01   1.095221e+01
   4.373046e+01   1.916538e+01
   2.134352e+01   2.643670e+00
  -2.962632e+00  -1.532311e+01
  -9.891077e+00  -1.071952e+00
   1.647629e+00   3.460550e+01
  -1.216684e+00   4.669774e+01
  -2.567651e+01   1.816175e+01
  -3.597564e+01  -5.261896e+01
   5.533185e+00  -5.904014e+01
   4.010065e+01  -2.582273e+01
   6.115626e+01   2.419743e+01
   2.052348e+01   5.652666e+01
  -5.244102e+01   3.177264e+01
  -9.432772e+01  -1.158935e+01
  -5.038756e+01  -3.635095e+01
   3.596061e+01  -3.710967e+01
   5.631861e+01  -1.562721e+01
   2.136305e+01  -7.901944e+00
  -3.735956e+01  -4.427390e+00
  -3.536816e+01  -1.691174e+01
   2.608107e+01  -2.889430e+01
   8.418322e+01  -2.383740e+01
