
 $NMID
 id='ANONYMOUS ', fmtdat='(2E16.6)'
 volume=1.0
 tramp=1.0
 $END
  -3.821656e+03   2.625248e+02
  -2.198600e+03  -2.795253e+03
   6.946461e+02  -2.815693e+03
   2.100590e+03  -8.230629e+02
   9.501777e+02   4.791553e+02
  -7.406796e+02   2.707604e+02
  -6.609790e+02  -5.474772e+02
   1.675356e+02  -9.579649e+02
   8.384199e+02  -7.532378e+02
   8.700917e+02   1.282428e+02
   2.481472e+02   8.133004e+02
  -1.573800e+02   7.947154e+02
  -6.666041e+02   6.062342e+01
  -2.533593e+02  -7.828610e+02
   2.830091e+02  -7.090416e+02
   6.073953e+02   6.860049e+01
   2.028384e+02   6.172026e+02
  -2.043772e+02   5.819636e+02
  -5.312994e+02  -1.157581e+00
  -3.370846e+02  -3.377115e+02
  -4.588845e+01  -3.644814e+02
   1.933802e+02  -2.607384e+02
   1.922811e+02   1.098713e+01
  -1.457580e+02   7.395637e+01
  -4.085022e+02  -1.038701e+02
  -2.100746e+02  -4.570806e+02
   4.467766e+02  -3.165590e+02
   8.694796e+02   1.443439e+02
   4.105257e+02   4.772682e+02
  -3.666164e+02   4.241385e+02
  -6.809554e+02  -6.369325e+01
  -2.733739e+02  -4.506390e+02
   2.597782e+02  -4.216757e+02
   6.196883e+02  -2.123026e+02
   3.216565e+02   2.041694e+02
   7.058461e+01   5.325081e+02
  -1.722450e+02   2.685003e+02
  -1.214702e+02  -2.172660e+02
   2.023727e+02  -3.744242e+02
   4.179714e+02  -2.455028e+01
   2.041772e+02   6.721652e+02
  -3.900857e+02   6.800705e+02
  -6.314315e+02   2.543994e+00
  -1.543034e+02  -5.497095e+02
   3.256943e+02  -2.715732e+02
   3.079297e+02   3.647845e+02
  -6.912040e+01   5.106360e+02
  -5.839591e+02   1.604307e+02
  -6.019580e+02  -4.013666e+02
  -1.807597e+02  -5.443644e+02
   3.101515e+02  -2.997589e+02
   5.928839e+02   1.395192e+02
   3.293584e+02   3.109593e+02
  -1.134714e+02   3.632578e+02
  -4.424205e+02   5.544325e+01
  -2.310414e+02  -1.437903e+02
   1.337195e+02  -8.386330e+01
   1.190938e+02   1.353392e+02
  -1.392581e+02   1.690838e+02
  -3.027937e+02  -6.277850e+01
  -1.578051e+02  -2.794106e+02
   1.847076e+02  -2.448458e+02
   2.538792e+02  -7.511275e+01
   1.733375e+02   5.253955e+01
  -1.455549e-01   2.254251e+02
  -1.831454e+02   3.631207e+02
  -3.139925e+02   1.832038e+02
  -2.811804e+02  -1.424967e+02
  -9.605501e+01  -3.845128e+02
   1.176835e+02  -3.535798e+02
   9.012799e+01  -7.423251e+01
   5.841759e+00   1.709851e+01
   4.487437e+01  -9.589836e+01
   2.024732e+02  -1.360496e+02
   2.844629e+02   6.257115e+01
   1.153217e+02   3.240597e+02
  -9.577681e+01   2.218149e+02
  -2.580565e+02  -2.916666e+00
  -2.152254e+02  -2.249411e+02
   5.504069e+00  -3.042830e+02
   2.470652e+02  -1.395876e+02
   3.289341e+02   2.154703e+02
   2.025205e+02   3.416614e+02
  -1.129455e+02   2.865949e+02
  -1.840350e+02   7.775924e+01
  -1.356870e+02   3.559843e+00
  -1.029001e+02   6.815379e+01
  -2.308123e+02   5.950908e+01
  -3.210916e+02  -4.270716e+01
  -3.601296e+02  -2.206600e+02
  -3.611580e+00  -4.051146e+02
   2.665428e+02  -4.466693e+02
   4.601009e+02  -2.109722e+02
   3.069708e+02   1.348975e+02
   5.363613e+01   2.597644e+02
  -1.283974e+02   2.129709e+02
  -8.353246e+01   1.350150e+01
   1.306386e+02  -9.661105e+01
   1.993722e+02  -2.829422e+00
   1.310037e+01   1.885225e+02
  -1.592741e+02   1.523179e+02
  -1.931257e+02  -3.536513e+01
   3.802424e+01  -1.874507e+02
   1.931319e+02  -3.058460e+01
   1.260430e+02   1.905685e+02
  -2.720598e+01   2.855100e+02
  -2.018873e+02   1.732177e+02
  -2.888177e+02  -4.511928e+01
  -3.025084e+02  -2.154753e+02
  -1.028105e+02  -2.331870e+02
   9.207755e+01  -1.951238e+02
   1.795149e+02  -2.570887e+01
   5.589471e+01   2.374004e+01
  -6.192730e+01  -3.273568e+01
  -2.605839e+01  -1.284621e+02
   1.195119e+02  -9.549788e+01
   1.729400e+02   2.965727e+00
   6.580600e+01   6.587623e+01
  -7.987580e+01   1.561210e+01
  -5.266912e+01  -6.621752e+01
   1.021284e+02  -9.288717e+01
   2.723513e+02  -1.980135e+00
   2.446533e+02   1.313866e+02
   7.052118e+01   2.166586e+02
  -2.033932e+02   2.293340e+02
  -2.850814e+02   1.469688e+02
  -1.647932e+02  -4.127758e+01
   3.654218e+01  -1.013731e+02
   8.314805e+01   2.563520e+00
  -3.380496e+01   9.949914e+01
  -2.046747e+02   6.233072e+01
  -2.178163e+02  -8.939944e+01
  -8.040537e+01  -1.800087e+02
   9.125433e+01  -1.562900e+02
   1.426465e+02  -1.545802e+01
   6.991658e+01   4.551969e+01
  -2.206920e+01   8.422807e-02
  -2.854422e+01  -6.899008e+01
   6.390871e+01  -1.047037e+02
   1.813634e+02  -2.419810e+01
   1.912832e+02   1.501207e+02
   3.927232e+01   2.107882e+02
  -1.540584e+02   1.622330e+02
  -1.778645e+02   2.382101e+01
  -6.378822e+01  -1.070792e+02
   6.487295e+01  -1.162405e+02
   8.751856e+01  -2.267323e+01
   1.831361e+01   2.595595e+01
  -1.997613e+01   2.120536e+01
   5.899474e+00  -5.886213e+00
   6.473786e+01   4.650031e+00
   9.367988e+01   6.604587e+01
   3.100511e+01   1.218202e+02
  -1.215996e+02   1.535229e+02
  -1.905930e+02   1.170452e+01
  -1.518686e+02  -1.613553e+02
  -1.598658e+01  -2.032616e+02
   9.911330e+01  -1.772318e+02
   1.167782e+02  -2.203291e+01
   7.264845e+01   5.240900e+01
   3.053076e+01   3.716555e+01
   5.047289e+01  -1.516458e+01
   8.608472e+01  -6.561909e+00
   3.628351e+01   4.331825e+01
  -3.263144e+01   6.422474e+01
  -9.821790e+01   5.649598e+01
  -8.087445e+01  -3.461584e+01
   3.811041e+00  -1.081984e+02
   1.216451e+02  -9.631068e+01
   2.031684e+02   2.703786e+01
   9.578919e+01   2.008693e+02
  -9.881928e+01   2.161795e+02
  -2.328337e+02   9.100487e+01
  -2.793459e+02  -8.322031e+01
  -1.007637e+02  -1.538443e+02
   4.001687e+01  -1.478626e+02
   6.823961e+01  -7.159872e+01
   5.804905e+01  -5.244734e+01
   5.883589e+01  -7.670040e+01
   7.939075e+01  -6.702605e+01
   1.196249e+02   2.601701e+00
   1.243832e+02   1.532450e+02
   2.141825e+01   2.126505e+02
  -7.965715e+01   1.738104e+02
  -1.650387e+02   1.780367e+01
  -1.022438e+02  -1.196778e+02
  -7.496051e+00  -1.575774e+02
   6.152817e+01  -9.375337e+01
   5.145959e+01   9.171967e-01
   7.675573e+00   4.287291e+01
  -3.612650e+00   3.503412e+01
   3.470024e+01   1.981980e+01
   7.065730e+01   1.215197e+01
   4.573815e+01   3.508206e+01
  -4.777436e+01   3.831851e+01
  -1.622058e+02  -8.226921e-01
  -1.400208e+02  -5.058067e+01
  -2.286547e+01  -9.247248e+01
   1.126864e+02  -6.466552e+01
   1.343765e+02  -1.108507e+01
   4.187763e+01   3.297028e+01
  -6.029871e+01   3.375115e+01
  -7.859954e+01  -2.377036e+01
  -7.471734e+00  -5.983182e+01
   4.513296e+01  -5.382669e+01
   4.524619e+01   8.340388e+00
   4.544241e+01   3.591139e+01
   4.688165e+01   3.970763e+01
   5.274157e+01   3.009493e+00
   5.967479e+01  -3.282468e-01
   4.662426e+01   5.584018e+01
  -2.534052e+01   1.320570e+02
  -9.435220e+01   1.400222e+02
  -1.461340e+02   5.624438e+01
  -1.097122e+02  -6.383162e+01
  -1.890999e+01  -1.323224e+02
   8.468610e+01  -6.549179e+01
   6.130867e+01   1.486758e+01
  -5.470209e+01   2.068565e+01
  -1.280218e+02  -3.422099e+01
  -7.650887e+01  -8.982883e+01
   5.934698e+01  -1.029833e+02
   1.530570e+02  -4.529180e+01
   1.620288e+02   4.926464e+01
   4.001429e+01   8.354987e+01
  -7.005169e+01   7.029726e+01
  -4.867538e+01   1.143293e+01
   3.702566e+01  -2.964345e+01
   8.476002e+01   2.202148e+01
   3.255920e+01   1.076633e+02
  -7.542978e+01   1.522491e+02
  -1.496922e+02   7.087037e+01
  -1.044841e+02  -8.150049e+01
  -1.374029e+01  -1.721936e+02
   1.143213e+02  -1.297584e+02
   8.942228e+01   1.702842e+00
   5.257365e+01   1.125326e+02
  -1.749222e+01   1.100485e+02
  -3.904778e+01   2.313436e+01
  -4.945250e+01  -2.926824e+01
  -2.411492e+01  -1.241401e+01
  -3.284353e+00   2.017786e+01
  -1.895300e+01  -1.180197e+01
  -6.315896e+01  -8.472510e+01
  -2.926829e+01  -1.079751e+02
   4.632899e+01  -4.444298e+01
   1.229104e+02   4.513138e+01
   1.111293e+02   6.601438e+01
   2.095416e+01   4.371539e+01
  -8.558386e+01   6.517136e+00
  -8.685325e+01   6.173796e+00
  -9.570593e+00  -5.044607e+00
   2.993814e+01  -2.005810e+01
   1.410229e+01  -1.916271e+01
  -1.837627e+01  -2.105211e+00
   4.018875e+00   9.016566e+00
   7.568682e+01   3.490508e+00
   7.463264e+01   1.370805e+01
   1.014547e+01   7.357783e+01
  -1.255156e+02   8.716958e+01
  -1.807458e+02   8.894718e+01
  -1.437686e+02  -5.509969e+01
  -2.202366e+01  -1.597992e+02
   8.004266e+01  -1.220054e+02
   1.004472e+02  -5.539707e+01
   7.442720e+01   2.582118e+01
   2.676791e+01   3.030543e+01
  -2.475725e+00   6.658258e+00
   8.216733e+00   2.574899e+00
   2.951851e+01   4.130168e+01
   2.333322e+01   8.246299e+01
  -2.538923e+01   5.906835e+01
  -7.724808e+01  -1.953738e+01
  -6.496521e+01  -9.029306e+01
  -8.980178e+00  -9.890787e+01
   6.863591e+01  -2.519985e+01
   9.104694e+01   6.946245e+01
   2.304132e+01   8.442466e+01
  -6.166303e+01   4.611901e+01
  -9.420130e+01  -2.491300e+00
  -3.665689e+01  -4.098882e+01
   2.993881e+01  -3.995637e+01
   2.746190e+01  -2.798827e+01
  -2.816997e+01   3.440738e+00
  -6.250804e+01   8.016533e+00
  -1.845003e+01  -2.308707e+01
   8.566890e+01  -5.184226e+01
   1.042882e+02  -6.575045e+01
   5.409382e+01   1.472930e+01
  -5.626191e+00   7.246261e+01
  -5.439778e+01   7.111762e+01
  -3.521366e+01   1.116336e+01
  -7.123806e-01  -4.628677e+01
   2.157797e+01  -4.007124e+01
   3.216764e+01   1.808289e+01
   1.765028e+01   5.534857e+01
  -5.165368e+00   3.582716e+01
  -3.045377e+01  -6.096734e+00
  -3.398895e+01  -1.557455e+01
  -2.016233e+01   2.300346e+00
   2.917378e+00   1.580532e+01
   7.950565e+00  -1.712490e+00
   9.007286e+00  -3.115476e+01
   1.597604e+01  -3.232899e+01
   2.458374e+01  -6.104530e+00
   2.156617e+01   3.008897e+01
  -2.461078e+00   5.385845e+01
  -4.390739e+01   2.094667e+01
  -4.750294e+01  -3.298239e+01
  -1.374940e+01  -5.315789e+01
   4.399652e+01  -3.285827e+01
   8.103949e+01   1.444595e+01
   4.499542e+01   3.778750e+01
  -2.172245e+01   3.529184e+01
  -6.430260e+01   8.514056e+00
  -2.309773e+01   4.335906e+00
   3.445609e+01  -3.049162e+00
   3.204602e+01   1.566801e+01
  -2.723046e+01   2.644108e+01
  -8.657179e+01   2.062974e+01
