
 $NMID
 id='ANONYMOUS ', fmtdat='(2E16.6)'
 volume=1.0
 tramp=1.0
 $END
   3.818166e+03   1.566854e+02
   2.248298e+03   2.575715e+03
  -7.614106e+02   2.764728e+03
  -1.670097e+03   1.091233e+03
  -8.761079e+02  -3.914677e+02
   5.982112e+02  -3.416258e+02
   6.183218e+02   4.392296e+02
  -5.091601e+01   9.178322e+02
  -8.407341e+02   7.707202e+02
  -6.547907e+02  -1.444429e+02
  -2.667209e+02  -5.988938e+02
   1.068140e+02  -7.828033e+02
   5.325154e+02  -4.852520e+01
   3.240077e+02   6.911250e+02
  -2.080316e+02   6.334095e+02
  -5.783506e+02  -3.662980e+01
  -1.944212e+02  -6.122228e+02
   2.796755e+02  -6.012463e+02
   4.957660e+02  -7.628942e+01
   3.246573e+02   3.639882e+02
   7.940810e+01   3.432163e+02
  -1.787049e+02   2.356443e+02
  -1.787921e+02   2.157865e+01
   1.673016e+02  -5.808444e+01
   3.204634e+02   1.183559e+02
   1.118765e+02   4.643275e+02
  -4.931320e+02   2.912985e+02
  -9.017309e+02  -1.344617e+02
  -3.467659e+02  -5.267402e+02
   3.833392e+02  -3.282254e+02
   6.890895e+02   6.195742e+01
   2.433553e+02   4.308164e+02
  -2.584840e+02   4.028125e+02
  -5.978391e+02   2.254417e+02
  -3.538801e+02  -1.895334e+02
  -1.321129e+00  -4.846902e+02
   2.049859e+02  -2.266882e+02
   1.285839e+02   1.741575e+02
  -2.168387e+02   3.441507e+02
  -3.069088e+02  -1.336965e+01
  -1.567456e+02  -6.275757e+02
   3.825110e+02  -7.609337e+02
   6.163995e+02   4.714729e+01
   1.532361e+02   5.595265e+02
  -3.311138e+02   2.481069e+02
  -2.526758e+02  -3.587091e+02
   1.278735e+02  -5.030228e+02
   5.763464e+02  -1.291810e+02
   5.879963e+02   3.911143e+02
   1.437668e+02   5.724273e+02
  -3.360507e+02   3.157714e+02
  -5.935460e+02  -1.286776e+02
  -3.336698e+02  -3.185696e+02
   1.066855e+02  -3.336185e+02
   4.312879e+02  -3.615378e+01
   2.151363e+02   1.420910e+02
  -1.096093e+02   6.879508e+01
  -1.140065e+02  -1.345327e+02
   1.467809e+02  -1.271567e+02
   2.827393e+02   8.991982e+01
   1.299042e+02   3.061825e+02
  -1.784631e+02   2.408058e+02
  -2.870801e+02   1.097203e+02
  -1.864832e+02  -8.598861e+01
   1.245357e+01  -2.460767e+02
   2.385422e+02  -3.283165e+02
   3.186876e+02  -1.733035e+02
   2.812836e+02   1.577228e+02
   5.726193e+01   3.853029e+02
  -1.309685e+02   3.295704e+02
  -7.780535e+01   8.634413e+01
  -2.334659e+01   7.534127e+00
  -5.073618e+01   8.623664e+01
  -2.264115e+02   1.060769e+02
  -2.655025e+02  -7.857050e+01
  -1.152919e+02  -2.798658e+02
   1.088126e+02  -2.184796e+02
   2.557676e+02  -3.612250e+01
   1.982504e+02   2.045645e+02
  -1.732689e+01   2.933972e+02
  -2.690213e+02   1.260362e+02
  -3.342509e+02  -2.062378e+02
  -1.999555e+02  -3.331222e+02
   1.162690e+02  -2.815617e+02
   1.912183e+02  -1.181472e+02
   1.461727e+02  -2.557035e+01
   1.112691e+02  -4.645264e+01
   2.589613e+02  -2.622617e+01
   3.683055e+02   5.887703e+01
   3.054961e+02   3.318344e+02
   4.568576e+00   4.301064e+02
  -3.091996e+02   4.314040e+02
  -4.886679e+02   2.174537e+02
  -2.860713e+02  -9.672646e+01
  -1.554939e+01  -2.555054e+02
   1.626644e+02  -2.209782e+02
   6.959756e+01  -1.667949e+01
  -1.201662e+02   9.005577e+01
  -1.798623e+02  -1.422811e+00
   3.140897e+00  -1.952815e+02
   1.511819e+02  -1.396365e+02
   1.470111e+02   7.525277e+01
  -4.932788e+01   1.733877e+02
  -1.814976e+02   2.542715e+01
  -1.387416e+02  -2.007646e+02
   4.290134e+01  -2.736477e+02
   2.474655e+02  -1.532919e+02
   3.214609e+02   4.641212e+01
   3.008777e+02   2.372201e+02
   9.425697e+01   2.711459e+02
  -1.221351e+02   1.964217e+02
  -1.612078e+02   3.315776e+01
  -5.784273e+01  -2.378614e+01
   5.999734e+01   4.011355e+01
   1.690988e+01   1.242878e+02
  -1.139482e+02   9.969277e+01
  -1.763397e+02  -2.097863e+01
  -5.841764e+01  -6.287777e+01
   8.844143e+01  -2.443310e+00
   5.778564e+01   7.921733e+01
  -1.092912e+02   9.438114e+01
  -3.185761e+02   1.767797e+01
  -2.268488e+02  -1.647269e+02
  -4.035389e+01  -2.192201e+02
   2.226696e+02  -2.169187e+02
   2.796710e+02  -1.223541e+02
   1.573429e+02   5.124709e+01
  -4.045517e+01   1.074327e+02
  -7.854238e+01   6.452424e+00
   2.960060e+01  -1.042194e+02
   2.079125e+02  -8.934641e+01
   2.297377e+02   9.691644e+01
   7.452744e+01   1.963176e+02
  -1.017306e+02   1.443440e+02
  -1.462584e+02   1.068795e+01
  -6.297486e+01  -4.313580e+01
   2.886928e+01   4.733121e+00
   4.046559e+01   8.206443e+01
  -7.069615e+01   9.950295e+01
  -1.893615e+02   9.300508e+00
  -1.965153e+02  -1.641368e+02
  -2.867198e+01  -2.268770e+02
   1.426262e+02  -1.418511e+02
   1.775674e+02  -1.446278e+01
   4.823341e+01   1.130929e+02
  -6.797590e+01   1.130206e+02
  -8.332432e+01   2.012152e+01
  -1.464889e+01  -2.531391e+01
   2.308785e+01  -1.670954e+01
  -7.450786e+00   7.596292e+00
  -7.531110e+01   4.782588e+00
  -9.463134e+01  -7.366848e+01
  -2.966512e+01  -1.323507e+02
   1.425549e+02  -1.600875e+02
   2.269052e+02  -3.041527e+01
   1.872202e+02   1.309759e+02
  -4.695003e+00   1.930169e+02
  -9.399965e+01   1.991345e+02
  -1.325203e+02   3.140235e+01
  -7.005658e+01  -5.218599e+01
  -3.014015e+01  -3.446284e+01
  -4.847287e+01   1.422050e+01
  -8.373128e+01   1.438795e+00
  -4.763004e+01  -4.374279e+01
   3.055681e+01  -7.674566e+01
   1.124009e+02  -5.544408e+01
   7.380731e+01   3.422151e+01
  -1.583481e+01   1.012006e+02
  -1.333251e+02   8.487797e+01
  -2.284216e+02  -1.733981e+01
  -8.583058e+01  -2.114164e+02
   1.369284e+02  -2.103968e+02
   2.471658e+02  -9.813682e+01
   2.461039e+02   1.003000e+02
   9.782048e+01   1.514370e+02
  -3.413802e+01   1.448044e+02
  -8.074037e+01   6.249048e+01
  -7.151338e+01   5.267454e+01
  -4.807177e+01   7.821000e+01
  -9.225305e+01   6.786571e+01
  -1.341523e+02  -9.951856e-03
  -9.899173e+01  -1.343533e+02
  -7.020171e+00  -2.209801e+02
   7.582121e+01  -2.050071e+02
   1.555824e+02  -1.227013e+01
   1.067015e+02   1.145072e+02
  -9.763482e+00   1.581151e+02
  -6.044675e+01   7.221765e+01
  -6.004918e+01  -2.038950e-01
  -6.846534e+00  -4.657559e+01
   6.935799e+00  -3.911650e+01
  -3.535128e+01  -2.106054e+01
  -7.210995e+01  -1.773362e+01
  -4.656374e+01  -3.292024e+01
   5.489958e+01  -3.734183e+01
   1.753401e+02  -6.470077e+00
   1.415110e+02   5.530858e+01
   1.143541e+01   8.527352e+01
  -1.170732e+02   6.055769e+01
  -1.250081e+02   1.716852e+01
  -4.157207e+01  -3.776222e+01
   5.401476e+01  -3.561686e+01
   6.638639e+01   1.662355e+01
   1.072905e+01   6.683337e+01
  -4.895112e+01   5.922801e+01
  -5.138839e+01   2.848360e+00
  -4.519609e+01  -3.646853e+01
  -4.399988e+01  -3.052590e+01
  -5.744495e+01  -7.461673e+00
  -6.636275e+01  -6.247486e+00
  -4.059050e+01  -6.397576e+01
   3.427238e+01  -1.129261e+02
   1.060803e+02  -1.441335e+02
   1.675828e+02  -5.417759e+01
   1.291241e+02   7.729185e+01
  -5.013696e+00   1.416035e+02
  -9.820405e+01   7.334741e+01
  -5.924214e+01  -1.260867e+01
   5.576560e+01  -2.204430e+01
   1.143299e+02   3.311337e+01
   7.604299e+01   9.257123e+01
  -7.864043e+01   9.713540e+01
  -1.657495e+02   4.929501e+01
  -1.609561e+02  -2.991789e+01
  -3.699281e+01  -8.337551e+01
   7.199576e+01  -5.248729e+01
   4.932167e+01  -6.829285e+00
  -3.684396e+01   2.947980e+01
  -8.828980e+01  -2.951503e+01
  -3.011826e+01  -1.012343e+02
   6.725507e+01  -1.521493e+02
   1.703811e+02  -7.312391e+01
   1.075559e+02   7.598633e+01
   9.294737e+00   1.763282e+02
  -8.535144e+01   1.478235e+02
  -8.942464e+01  -7.321712e+00
  -4.901784e+01  -1.171000e+02
   4.295418e+00  -1.015940e+02
   4.155889e+01  -1.874663e+01
   5.124361e+01   2.898334e+01
   2.169611e+01   1.259804e+01
   4.588692e+00  -1.995445e+01
   2.505859e+01   1.382538e+01
   5.981683e+01   7.788745e+01
   3.873025e+01   1.043802e+02
  -4.582720e+01   4.488311e+01
  -1.422664e+02  -2.801692e+01
  -1.107431e+02  -7.182846e+01
  -1.958913e+01  -4.596383e+01
   8.138623e+01  -1.500233e+01
   8.751745e+01  -3.426963e+00
   9.506102e+00   7.305382e+00
  -3.536300e+01   2.335916e+01
  -1.546570e+01   2.160295e+01
   1.813880e+01   9.588951e-01
  -5.171394e+00  -1.043197e+01
  -7.820289e+01  -7.987385e+00
  -8.065543e+01  -1.315953e+01
  -1.616232e+01  -7.734857e+01
   1.132310e+02  -1.049378e+02
   1.773286e+02  -7.435152e+01
   1.189531e+02   5.427192e+01
   1.186401e+01   1.627900e+02
  -6.520965e+01   1.232858e+02
  -1.048181e+02   4.572152e+01
  -7.652144e+01  -2.554335e+01
  -2.941092e+01  -3.584659e+01
   2.785914e+00  -8.001479e+00
  -1.012172e+01  -3.083537e+00
  -3.230635e+01  -4.435771e+01
  -1.184706e+01  -9.391479e+01
   2.435979e+01  -5.868850e+01
   7.655443e+01   1.918796e+01
   6.956253e+01   8.350612e+01
   1.389489e+01   1.068284e+02
  -7.320907e+01   2.538369e+01
  -9.561678e+01  -6.764439e+01
  -3.010421e+01  -8.673630e+01
   6.021571e+01  -4.474065e+01
   8.825118e+01  -3.395432e+00
   4.547280e+01   4.117880e+01
  -3.029147e+01   4.177301e+01
  -2.804360e+01   2.330968e+01
   2.854402e+01  -2.827250e+00
   6.897986e+01  -8.583732e+00
   1.649333e+01   2.304062e+01
  -8.267369e+01   6.956895e+01
  -1.069253e+02   5.603023e+01
  -5.857009e+01  -1.086276e+01
  -3.361243e-01  -7.038351e+01
   4.410035e+01  -8.293272e+01
   3.995458e+01  -4.226958e+00
   3.045494e+00   4.927338e+01
  -2.807050e+01   4.089998e+01
  -3.248463e+01  -1.023915e+01
  -1.962239e+01  -5.480760e+01
   3.514499e+00  -3.457064e+01
   3.152825e+01   4.907306e+00
   3.323887e+01   1.939886e+01
   1.869665e+01  -3.336991e-01
  -5.429396e+00  -1.442692e+01
  -1.035457e+01   2.756416e-01
  -7.584676e+00   3.202317e+01
  -1.467221e+01   3.365368e+01
  -2.259658e+01   1.126811e+01
  -2.869856e+01  -3.502822e+01
   3.120661e+00  -4.977252e+01
   3.935796e+01  -1.913871e+01
   4.896735e+01   3.267389e+01
   1.866086e+01   4.949085e+01
  -4.758027e+01   3.584055e+01
  -7.832870e+01  -8.255480e+00
  -4.791947e+01  -3.318674e+01
   2.984270e+01  -3.717674e+01
   6.511604e+01  -8.064194e+00
   2.526656e+01  -2.266766e+00
  -3.588893e+01   2.569351e+00
  -3.288181e+01  -1.470636e+01
   2.909774e+01  -2.206566e+01
   7.971148e+01  -1.883399e+01
