
 $NMID
 id='ANONYMOUS ', fmtdat='(2E16.6)'
 volume=1.0
 tramp=1.0
 $END
   2.606768e+03   2.671600e+02
   1.218108e+03   1.305234e+03
   4.073373e+02   1.680254e+03
  -8.129699e+02   9.191634e+02
  -8.012854e+02   5.248008e+02
  -1.338240e+02   7.594514e+00
   2.548537e+02   1.531941e+02
   4.646493e+01   3.162225e+02
  -1.011255e+02   6.366156e+02
  -5.196676e+02   2.218473e+02
  -3.260192e+02  -4.761966e+02
  -1.594150e+02  -5.206801e+02
   1.583427e+02  -1.735423e+02
   3.864806e+01   3.185437e+02
  -8.938757e+01   4.588430e+02
  -2.982216e+02   5.884179e+01
  -2.880606e+02  -4.210980e+02
   3.654859e+00  -6.250511e+02
   4.075891e+02  -3.032519e+02
   4.307837e+02   1.817995e+02
   1.467344e+02   3.133581e+02
  -5.020640e+01   2.433558e+02
   2.098826e-01   1.268248e+02
   1.400478e+02   1.501143e+02
   2.151954e+02   3.609508e+02
  -5.002517e+01   2.480613e+02
  -3.668473e+02   8.735238e+01
  -3.878712e+02  -1.178514e+02
  -1.464061e+02  -2.134018e+02
   3.352670e+02  -9.023764e+01
   4.260140e+02   1.546732e+02
   1.029377e+02   3.962434e+02
  -2.565715e+02   2.589424e+02
  -3.580959e+02   3.413506e+01
  -2.548894e+02  -1.012995e+02
  -6.675960e+01  -2.435240e+02
  -2.414059e+01  -1.561192e+02
  -1.491121e+02   3.043437e+01
  -1.475085e+02   3.980946e+01
  -9.599278e+01  -1.266520e+02
  -4.587636e+01  -2.871054e+02
   2.687817e+02  -3.571414e+02
   2.212939e+02  -1.960225e+01
   2.641829e-01   3.519014e+02
  -1.523637e+02   3.655378e+01
  -7.495159e+01  -2.624438e+02
   1.822268e+02  -3.354911e+02
   4.357929e+02  -9.660570e+01
   3.773880e+02   4.281224e+02
   2.153497e+02   4.457860e+02
  -2.710666e+02   2.041685e+02
  -4.064816e+02  -1.541887e+02
  -2.028199e+02  -2.285839e+02
   1.001129e+02  -2.013597e+02
   2.151313e+02  -7.990149e+01
   1.523393e+02  -1.717586e+01
   8.330099e+01  -2.775898e+01
  -1.115912e+01  -9.667442e+00
   6.140897e+01  -1.226098e+00
   1.071363e+02   6.498014e+01
   1.069734e+02   1.632783e+02
  -1.262004e+02   1.623622e+02
  -2.780494e+02   1.332115e+02
  -2.819266e+02  -8.337662e+01
  -3.217856e+00  -2.717204e+02
   2.832110e+02  -3.429982e+02
   3.628056e+02  -1.552461e+02
   1.214102e+02   1.339634e+02
   6.505587e+01   3.147599e+02
   1.830278e+00   2.322044e+02
  -3.050032e+00   1.750962e+02
  -2.905140e+01   1.299102e+02
  -1.391722e+02   1.233060e+02
  -2.232125e+02   4.495835e+01
  -1.540464e+02  -1.353171e+02
   4.373529e-01  -2.310631e+02
   7.301178e+01  -1.093324e+02
   1.461761e+02   7.665940e+01
   1.048477e+02   2.313344e+02
  -5.435748e+01   2.165377e+02
  -1.982187e+02   2.520857e+01
  -2.444977e+02  -2.071925e+02
  -9.236660e+01  -2.860176e+02
   2.745870e+01  -1.670413e+02
   1.201267e+02  -1.353150e+02
   1.212103e+02  -9.782485e+01
   1.456385e+02  -6.629744e+01
   2.700526e+02  -6.163232e+00
   3.528127e+02   1.537328e+02
   3.086041e+02   3.108445e+02
  -1.520052e+01   3.412348e+02
  -3.473474e+02   3.887873e+02
  -4.516551e+02   1.013149e+02
  -2.428020e+02  -1.253236e+02
   1.943838e+01  -2.149115e+02
   7.538202e+01  -2.000353e+02
  -1.875172e+01  -1.654778e+01
  -1.040117e+02  -1.151709e+00
  -8.446123e+01  -5.632028e+01
   4.413491e+01  -1.342024e+02
   1.129020e+02  -5.616198e+01
   6.607643e+01   5.296016e+01
  -1.488555e+01   1.051875e+02
  -1.310324e+02  -2.022742e+01
  -1.257982e+02  -2.284907e+02
   1.245365e+01  -2.756440e+02
   2.411217e+02  -1.780749e+02
   3.389097e+02   7.802892e+01
   2.211802e+02   2.382839e+02
   6.865196e+01   2.566479e+02
  -1.308275e+02   1.097508e+02
  -1.222449e+02  -1.397871e+01
  -1.982034e+01  -2.706805e+00
   3.924331e+01   5.298121e+01
  -2.039691e+01   1.001920e+02
  -1.209447e+02   3.690670e+01
  -1.150822e+02  -3.641314e+01
  -2.590388e+01  -3.963689e+01
   5.464904e+01   2.295045e+01
   1.868790e+01   8.943456e+01
  -1.397834e+02   6.293227e+01
  -3.162056e+02  -4.324351e+01
  -2.423294e+02  -1.575901e+02
  -4.133590e+01  -2.325003e+02
   2.139061e+02  -1.938663e+02
   2.155695e+02  -7.430157e+01
   9.800497e+01   1.360140e+01
  -3.406594e+01   4.997589e+01
  -4.763760e+01  -1.949142e+01
   6.124341e+01  -7.447928e+01
   1.775949e+02   1.098555e+01
   1.611106e+02   1.264615e+02
   4.937583e+01   1.401095e+02
  -7.947413e+01   1.171840e+02
  -1.020048e+02   3.184047e+00
  -2.811735e+01  -3.621284e+01
   4.036710e+01   3.932182e+01
   1.642589e+01   1.067919e+02
  -1.008073e+02   1.143816e+02
  -1.810026e+02  -2.694926e+01
  -1.166791e+02  -1.463254e+02
  -2.575479e+01  -1.645161e+02
   1.623277e+02  -1.419424e+02
   1.456610e+02  -1.418938e+01
   4.809280e+01   8.669752e+01
  -6.014010e+01   8.403687e+01
  -5.246117e+01   2.216157e+01
   8.279197e+00  -2.346979e+01
   4.101429e+01   6.145406e-02
  -9.070353e+00   2.923436e+01
  -8.097664e+01   1.166866e+01
  -8.485150e+01  -9.542941e+01
   8.127113e+00  -1.608878e+02
   1.379257e+02  -1.362593e+02
   2.236114e+02   2.112332e+01
   1.341305e+02   1.459948e+02
   2.455092e+01   1.634632e+02
  -1.149191e+02   1.480454e+02
  -1.291095e+02   9.565469e+00
  -6.354515e+01  -4.401734e+01
  -2.339982e+01  -2.404647e+01
  -4.511080e+01   1.155332e+01
  -7.795998e+01   1.359780e+01
  -6.539897e+01  -5.750194e+01
   4.639141e+01  -9.593438e+01
   1.273868e+02  -6.886185e+01
   9.698193e+01   4.379457e+01
  -1.582401e+01   1.227644e+02
  -1.509910e+02   7.096754e+01
  -1.740615e+02  -7.407587e+01
  -3.503835e+01  -1.954491e+02
   1.579847e+02  -1.977661e+02
   2.705493e+02  -5.304970e+01
   2.229255e+02   8.268379e+01
   8.188637e+01   1.382255e+02
  -4.022542e+01   1.120006e+02
  -7.541188e+01   6.885806e+01
  -6.875134e+01   5.488137e+01
  -4.669042e+01   7.481124e+01
  -8.472391e+01   6.872298e+01
  -1.182708e+02  -2.061662e+01
  -9.688016e+01  -1.453153e+02
   2.813742e+01  -2.002003e+02
   9.215854e+01  -1.528220e+02
   1.663928e+02   1.237815e+01
   6.151300e+01   1.209169e+02
  -2.645378e+00   1.268354e+02
  -7.103638e+01   7.084300e+01
  -5.876549e+01  -2.912186e+01
   7.562015e+00  -5.477158e+01
   2.989217e+01  -3.250702e+01
  -2.098827e+01  -1.401463e+01
  -7.275612e+01  -2.470173e+01
  -4.403507e+01  -3.839881e+01
   6.968596e+01  -4.370317e+01
   1.723529e+02   1.065458e+01
   1.321638e+02   5.302150e+01
  -2.154374e+00   9.881594e+01
  -1.470502e+02   6.476071e+01
  -9.673270e+01  -1.493539e+01
  -4.519326e+01  -4.468172e+01
   5.959179e+01  -3.570771e+01
   6.544764e+01   2.240375e+01
   2.311646e+01   6.944245e+01
  -4.679771e+01   5.471011e+01
  -6.453235e+01   3.065277e+00
  -4.710215e+01  -4.057274e+01
  -3.371785e+01  -2.782217e+01
  -5.275589e+01   3.686562e+00
  -5.731774e+01  -8.940024e+00
  -3.314121e+01  -6.952031e+01
   1.940470e+01  -1.278402e+02
   1.082634e+02  -1.316636e+02
   1.596592e+02  -2.465634e+01
   1.156784e+02   9.413215e+01
  -4.250230e+00   1.256381e+02
  -9.875670e+01   7.027122e+01
  -5.112864e+01  -1.281811e+01
   4.882264e+01  -1.698698e+01
   1.073612e+02   3.624891e+01
   6.657786e+01   9.465126e+01
  -8.169154e+01   7.934631e+01
  -1.699478e+02   2.760608e+01
  -1.383658e+02  -3.773826e+01
  -2.319130e+01  -7.210796e+01
   6.632918e+01  -5.322527e+01
   4.751714e+01   5.734455e+00
  -5.173148e+01   2.680429e+01
  -9.174977e+01  -1.006319e+01
  -5.371717e+01  -8.921393e+01
   5.979519e+01  -1.271424e+02
   1.383553e+02  -7.081588e+01
   1.061980e+02   1.083465e+02
   8.768026e+00   1.685173e+02
  -7.630325e+01   9.358655e+01
  -9.075757e+01  -1.611166e+01
  -4.859651e+01  -1.076065e+02
   2.296265e+01  -8.105127e+01
   5.163868e+01  -1.322905e+01
   4.151277e+01   3.140936e+01
   7.145549e+00   7.825715e+00
   5.603065e+00  -1.360420e+01
   3.295602e+01   1.905511e+01
   4.130181e+01   7.162639e+01
   1.319972e+01   1.029548e+02
  -5.094348e+01   3.139788e+01
  -1.124627e+02  -4.783922e+01
  -8.273784e+01  -7.693969e+01
  -1.757451e+01  -3.725378e+01
   6.851091e+01  -3.009552e+01
   7.295813e+01  -4.598470e-02
   1.700180e+01   1.211846e+01
  -2.874448e+01   1.554367e+01
  -1.968044e+01   6.907092e+00
   1.067302e+01  -1.940917e+00
  -1.101529e+00  -5.205440e+00
  -6.404443e+01   2.428820e+00
  -9.390198e+01  -1.979460e+01
  -3.085633e+01  -6.578447e+01
   9.728508e+01  -9.618255e+01
   1.647365e+02  -6.339577e+01
   1.239328e+02   4.959348e+01
   7.927399e+00   1.624026e+02
  -9.582528e+01   1.464894e+02
  -9.093109e+01   6.486087e+01
  -6.776118e+01  -1.816896e+01
  -2.359954e+01  -3.840633e+01
  -4.611440e+00  -1.403042e+01
  -1.404922e+01  -9.228451e+00
  -1.700148e+01  -4.969223e+01
  -1.541787e+01  -7.901535e+01
   3.128358e+01  -5.804148e+01
   7.978915e+01   1.330671e+01
   6.076642e+01   1.055063e+02
   1.970834e+01   9.482656e+01
  -6.775335e+01   2.281934e+01
  -9.832353e+01  -6.083806e+01
  -3.048214e+01  -8.879565e+01
   6.522031e+01  -6.562576e+01
   8.391205e+01   1.855800e+01
   4.321792e+01   4.583936e+01
  -3.946640e+01   5.913157e+01
  -3.825846e+01   2.164603e+01
   1.763055e+01  -1.025186e+01
   5.905173e+01  -7.030692e+00
   2.183420e+01   2.545352e+01
  -7.859845e+01   5.685429e+01
  -1.009575e+02   3.661661e+01
  -6.540838e+01  -1.487197e+01
   7.649150e+00  -7.025934e+01
   5.267718e+01  -7.423173e+01
   4.801938e+01  -1.496477e+01
   4.283592e+00   4.573450e+01
  -1.653008e+01   4.541543e+01
  -3.052637e+01  -3.451383e+00
  -3.545554e+01  -5.537475e+01
  -1.100436e+00  -3.677401e+01
   2.838233e+01   3.632349e+00
   3.644512e+01   2.806296e+01
   1.598905e+01   7.976074e+00
  -4.737062e+00  -2.018087e+01
  -6.007705e+00  -1.192431e+01
   1.305474e+01   2.451561e+01
   9.911627e+00   5.763509e+01
  -1.291034e+01   2.500478e+01
  -3.962468e+01  -2.761859e+01
  -2.116444e+01  -5.152274e+01
   3.549534e+01  -2.499347e+01
   5.256533e+01   3.035982e+01
   1.330790e+01   4.773132e+01
  -4.697638e+01   3.584164e+01
  -7.617480e+01  -1.113690e+01
  -3.474363e+01  -3.070411e+01
   2.590225e+01  -4.988439e+01
   5.366249e+01  -1.764735e+01
   2.854390e+01  -4.258314e+00
  -2.311901e+01   1.383970e+01
  -2.865534e+01   1.955565e-01
   1.819526e+01  -1.891625e+01
   4.692809e+01  -1.756459e+01
