
 $NMID
 id='ANONYMOUS ', fmtdat='(2E16.6)'
 volume=1.0
 tramp=1.0
 $END
  -2.669058e+03  -2.566320e+02
  -1.553596e+03  -1.744395e+03
   5.364634e+02  -2.045156e+03
   1.145487e+03  -8.267090e+02
   6.502593e+02   1.902185e+02
  -2.345435e+02   2.026030e+02
  -4.545064e+02  -3.273967e+02
   1.332290e+02  -6.755447e+02
   5.838100e+02  -4.587889e+02
   5.496148e+02   7.836916e+01
   2.915826e+02   6.972299e+02
  -1.554752e+02   5.013141e+02
  -4.126739e+02   3.318110e+01
  -3.020672e+02  -5.356077e+02
   1.654052e+02  -3.976703e+02
   4.067900e+02   1.055439e+01
   6.292141e+01   4.599308e+02
  -3.157349e+02   4.329009e+02
  -5.461753e+02   1.366844e+02
  -2.641254e+02  -2.233112e+02
  -7.245234e+01  -3.163386e+02
   2.107029e+02  -1.801258e+02
   6.492961e+01  -1.697235e+01
  -9.214369e+01  -2.079973e+01
  -2.482592e+02  -1.896410e+02
  -1.164154e+01  -2.565642e+02
   3.587448e+02  -2.211870e+02
   5.755296e+02   2.716731e+01
   2.311749e+02   3.355637e+02
  -3.008505e+02   2.330586e+02
  -4.505484e+02  -1.466732e+02
  -1.994847e+02  -3.737882e+02
   2.547474e+02  -3.609711e+02
   3.620993e+02  -2.411891e+01
   2.974539e+02   1.887090e+02
   7.959104e+01   3.292765e+02
  -1.609316e+02   1.846842e+02
   4.104749e+00  -1.042273e+02
   1.405749e+02  -1.951758e+02
   2.125931e+02   6.259748e+01
   7.291613e+01   4.352401e+02
  -1.890187e+02   4.507227e+02
  -2.981642e+02  -9.231509e+01
  -1.247896e+02  -2.919221e+02
   2.059533e+02  -1.502028e+02
   2.056074e+02   2.950260e+02
  -7.929091e+01   3.784374e+02
  -3.844026e+02   5.069093e+01
  -4.141986e+02  -4.247483e+02
  -3.943053e+01  -4.278214e+02
   2.455390e+02  -2.448394e+02
   4.701011e+02   1.030394e+02
   2.378863e+02   2.382964e+02
  -1.057784e+02   1.926358e+02
  -3.124455e+02  -1.796778e+00
  -1.027995e+02  -8.141551e+01
   3.894470e+01  -1.245449e+01
   4.182661e+01   6.761279e+01
  -1.163704e+02   7.312607e+01
  -2.206819e+02  -5.766511e+01
  -6.336945e+01  -2.128033e+02
   1.290330e+02  -1.769916e+02
   2.562180e+02  -6.849091e+01
   1.324897e+02   6.083543e+01
  -4.754033e+01   1.883549e+02
  -2.422248e+02   2.338662e+02
  -2.582225e+02   1.281827e+02
  -2.047436e+02  -1.262009e+02
   4.114396e+00  -3.030821e+02
   1.399943e+02  -3.330413e+02
   7.247062e+01  -9.542183e+01
   1.035021e+01  -3.814520e+01
   7.156872e+01  -8.602953e+01
   1.268469e+02  -5.670391e+01
   1.851208e+02   4.692692e+01
   1.134327e+02   1.929047e+02
  -7.141272e+01   1.662394e+02
  -1.695224e+02  -4.500737e+00
  -1.264867e+02  -1.651985e+02
   7.966446e+01  -2.158375e+02
   1.936372e+02  -5.032751e+00
   2.534293e+02   1.664358e+02
   8.932384e+01   2.118340e+02
  -9.979690e+01   2.126927e+02
  -1.604850e+02   8.571218e+01
  -1.172061e+02   3.473883e+00
  -9.511698e+01   2.360321e+01
  -2.156121e+02   4.096145e+00
  -2.925995e+02  -8.271731e+01
  -2.366949e+02  -2.256874e+02
   1.240585e+01  -3.102508e+02
   2.791470e+02  -2.717336e+02
   4.118030e+02  -1.514475e+02
   2.775406e+02   1.093789e+02
   3.656031e+01   1.868134e+02
  -1.162017e+02   1.899266e+02
  -2.951487e+01   3.171000e+01
   8.943752e+01  -4.007642e+01
   1.288816e+02   2.149475e+00
   1.996622e+01   1.352406e+02
  -1.196794e+02   9.797996e+01
  -1.106786e+02  -6.469598e+01
   2.450981e+01  -1.219188e+02
   1.295504e+02   8.665291e+00
   1.087889e+02   1.673338e+02
  -1.864633e+01   2.299749e+02
  -2.168435e+02   1.302114e+02
  -2.483805e+02  -4.635310e+01
  -1.977662e+02  -2.374930e+02
  -3.299837e+01  -2.053340e+02
   1.282925e+02  -1.079521e+02
   1.137191e+02   2.212266e+01
   3.602993e+01   1.459910e+01
  -4.517312e+01  -4.357999e+01
  -9.092592e+00  -8.563583e+01
   1.069188e+02  -4.973267e+01
   1.395233e+02   3.739862e+01
   2.319156e+01   4.957145e+01
  -5.304920e+01   2.995734e+00
  -3.313391e+01  -7.150908e+01
   1.328303e+02  -5.751734e+01
   2.372477e+02   3.777990e+01
   1.451644e+02   1.001698e+02
   4.294986e+01   2.022466e+02
  -2.004993e+02   1.730014e+02
  -1.942269e+02   1.046537e+02
  -1.170396e+02  -5.863349e+01
   3.824565e+01  -7.175218e+01
   4.813769e+01   1.363646e+00
  -3.196676e+01   6.340619e+01
  -1.432575e+02   1.277748e+01
  -1.508738e+02  -1.042193e+02
  -4.179041e+01  -1.297479e+02
   6.924756e+01  -9.072456e+01
   1.035858e+02  -6.600799e+00
   3.346354e+01   4.202662e+01
  -2.559956e+01  -7.055480e+00
  -2.210701e+01  -6.380708e+01
   7.614033e+01  -9.224633e+01
   1.356937e+02  -2.450756e+01
   1.380260e+02   9.595869e+01
  -1.620870e+01   1.619735e+02
  -1.246746e+02   1.145275e+02
  -1.218128e+02   8.168452e+00
  -4.220808e+01  -9.251344e+01
   6.945831e+01  -7.596823e+01
   6.290536e+01  -1.237517e+01
   6.268640e+00   1.797871e+01
  -2.439676e+01   1.228932e+01
   4.695955e+00  -1.096894e+01
   5.433939e+01   2.200291e-02
   7.219641e+01   7.704912e+01
   6.156058e+00   1.175052e+02
  -1.267607e+02   1.168712e+02
  -1.561686e+02   7.666119e+00
  -1.290458e+02  -1.146571e+02
  -1.798613e+01  -1.709712e+02
   8.255049e+01  -1.591516e+02
   1.073067e+02  -1.850400e+01
   4.870674e+01   4.788265e+01
   2.745882e+01   2.883132e+01
   4.124251e+01  -5.000646e+00
   5.313335e+01   1.923056e+00
   3.577529e+01   5.060491e+01
  -2.429622e+01   6.472477e+01
  -7.629156e+01   4.620804e+01
  -6.619862e+01  -3.859474e+01
   1.922761e+01  -8.434932e+01
   1.193712e+02  -6.244904e+01
   1.390140e+02   4.196157e+01
   6.156795e+01   1.876704e+02
  -1.000824e+02   1.731981e+02
  -2.602225e+02   8.545254e+01
  -1.681795e+02  -1.053197e+02
  -8.619105e+01  -1.382683e+02
   4.691546e+01  -1.049752e+02
   6.276943e+01  -5.210461e+01
   4.983050e+01  -3.526916e+01
   4.019722e+01  -7.730716e+01
   7.927709e+01  -4.440369e+01
   1.129592e+02   3.722632e+01
   7.719605e+01   1.390752e+02
   2.919232e+01   1.902984e+02
  -8.938768e+01   1.272270e+02
  -1.306522e+02   6.824252e+00
  -9.080012e+01  -1.123888e+02
   1.427268e+00  -1.024602e+02
   6.028790e+01  -4.697352e+01
   4.309347e+01   6.492771e+00
   3.658585e+00   2.775162e+01
  -2.218065e+01   2.776478e+01
   2.437744e+01   1.580276e+01
   5.440041e+01   1.869518e+01
   3.928413e+01   3.450710e+01
  -5.014133e+01   1.890158e+01
  -1.164181e+02  -1.347372e+01
  -8.493908e+01  -3.606200e+01
   2.391192e-01  -7.568006e+01
   1.140957e+02  -6.170947e+01
   1.008434e+02   1.712548e+00
   2.722999e+01   3.415722e+01
  -5.014042e+01   2.989373e+01
  -5.578737e+01  -1.322522e+01
   2.961739e+00  -5.295063e+01
   4.239458e+01  -4.429784e+01
   5.387419e+01   1.300057e+00
   3.055540e+01   3.739256e+01
   3.362536e+01   3.344364e+01
   4.395641e+01   3.073316e+00
   4.952484e+01   1.377850e+01
   1.339313e+01   5.546611e+01
  -1.907323e+01   1.185801e+02
  -1.050838e+02   8.892020e+01
  -1.206298e+02   2.221063e+01
  -8.706300e+01  -7.661234e+01
   1.252640e+01  -8.302207e+01
   6.993992e+01  -4.131864e+01
   4.590122e+01   1.616639e+01
  -5.427841e+01   5.967338e+00
  -7.285909e+01  -3.231792e+01
  -3.905141e+01  -8.586450e+01
   6.492058e+01  -7.287752e+01
   1.661443e+02  -1.254130e+01
   1.136702e+02   2.788337e+01
   2.044835e+01   6.617634e+01
  -5.074694e+01   4.851379e+01
  -3.889636e+01  -6.911823e+00
   2.949268e+01  -2.157823e+01
   6.842645e+01   3.063427e+01
   3.289395e+01   7.472164e+01
  -5.746360e+01   8.923433e+01
  -1.321251e+02   3.043894e+01
  -1.048073e+02  -6.438796e+01
   2.205078e+01  -1.316714e+02
   8.824730e+01  -1.129091e+02
   7.397117e+01   1.544531e+01
   3.948008e+01   9.882509e+01
  -4.000721e+00   6.707614e+01
  -3.408130e+01   1.023048e+01
  -3.375503e+01  -2.891129e+01
  -1.731871e+01  -5.898605e+00
  -4.338821e+00   1.162055e+01
  -2.086552e+01  -1.471515e+01
  -3.555936e+01  -6.330118e+01
  -2.238120e+01  -7.802631e+01
   3.691250e+01  -2.166823e+01
   9.298199e+01   2.727214e+01
   8.581210e+01   5.248915e+01
   1.303627e+01   4.055966e+01
  -6.960692e+01   1.378981e+01
  -5.897448e+01  -6.750797e+00
  -9.086710e+00  -5.834084e+00
   2.623833e+01  -1.739912e+01
   1.310375e+01  -8.733096e+00
  -1.438374e+01   8.087910e-01
   2.935532e+00   5.244979e+00
   5.691560e+01   5.415105e+00
   7.101785e+01   2.439409e+01
   4.576631e+00   5.267220e+01
  -8.090147e+01   7.416966e+01
  -1.415363e+02   2.403842e+01
  -9.913759e+01  -8.412099e+01
  -9.850480e+00  -1.289783e+02
   6.354785e+01  -1.235705e+02
   9.287351e+01  -2.973306e+01
   5.427606e+01   8.720017e+00
   1.591622e+01   2.721502e+01
   8.403677e-01   5.401604e+00
   9.248410e+00   4.187437e+00
   1.971618e+01   3.158723e+01
   2.486140e+00   6.482262e+01
  -2.549988e+01   5.005985e+01
  -5.765837e+01  -2.077032e+01
  -5.735399e+01  -8.316035e+01
  -6.777213e+00  -7.452589e+01
   5.733752e+01  -1.695647e+01
   7.387107e+01   6.429885e+01
   1.822986e+01   8.349797e+01
  -5.243170e+01   4.564108e+01
  -7.319994e+01  -2.446672e+00
  -3.185490e+01  -3.685095e+01
   2.175050e+01  -3.867649e+01
   2.762049e+01  -1.819786e+01
  -2.356846e+01  -1.258945e-01
  -5.000847e+01  -3.010597e+00
  -1.064113e+01  -1.898750e+01
   5.803476e+01  -4.509135e+01
   8.587040e+01  -2.780270e+01
   4.726256e+01   1.527280e+01
  -1.274380e+01   6.595587e+01
  -4.478886e+01   7.385739e+01
  -2.567443e+01   6.226699e+00
  -1.313212e+00  -4.351371e+01
   2.551769e+01  -3.086150e+01
   2.476365e+01   1.126158e+01
   2.052985e+01   4.441084e+01
  -3.106674e+00   2.582892e+01
  -2.444398e+01  -5.118153e+00
  -2.999470e+01  -1.813389e+01
  -1.667544e+01  -3.105330e+00
   1.510210e+00   1.164315e+01
   3.391492e+00   2.966201e+00
   1.620518e+00  -2.421169e+01
   8.150235e+00  -3.290697e+01
   2.017214e+01  -1.025237e+01
   1.911695e+01   3.024231e+01
  -2.721788e+00   3.799888e+01
  -2.910515e+01   1.672441e+01
  -4.283788e+01  -2.542549e+01
  -1.524645e+01  -4.213774e+01
   4.954151e+01  -2.073845e+01
   5.309233e+01   2.615790e+01
   4.062120e+01   3.772591e+01
  -2.424067e+01   2.711183e+01
  -5.189214e+01   1.248067e+01
  -2.051396e+01   1.699966e+00
   2.606114e+01   6.380955e+00
   2.914829e+01   1.097291e+01
  -1.895505e+01   1.857003e+01
  -5.361810e+01   6.616193e+00
