
 $NMID
 id='ANONYMOUS ', fmtdat='(2E16.6)'
 volume=1.0
 tramp=1.0
 $END
  -3.801337e+03  -3.731398e+02
  -2.988275e+03  -2.580864e+03
   6.027828e+02  -3.266316e+03
   2.155663e+03  -8.631711e+02
   1.117567e+03   6.903329e+02
  -7.961234e+02   6.019989e+02
  -8.335573e+02  -4.702992e+02
   1.528582e+01  -1.196297e+03
   8.814618e+02  -8.801710e+02
   8.534613e+02   1.384076e+02
   4.373253e+02   8.623732e+02
  -2.114883e+02   9.256628e+02
  -6.846182e+02   7.246463e+01
  -4.119008e+02  -9.136233e+02
   2.643471e+02  -6.759030e+02
   6.720119e+02   5.008326e+01
   2.371825e+02   6.778302e+02
  -3.977055e+02   6.922090e+02
  -5.892267e+02   1.670857e+02
  -2.936975e+02  -3.894881e+02
   2.522782e+01  -4.561522e+02
   2.481847e+02  -2.614461e+02
   2.372270e+02  -2.082217e+01
  -9.428944e+01   7.939950e+01
  -3.703316e+02  -1.184760e+02
  -2.811138e+02  -4.489401e+02
   3.918952e+02  -4.757634e+02
   8.876399e+02   7.130692e+01
   4.519853e+02   5.174567e+02
  -3.816197e+02   4.397960e+02
  -7.427151e+02  -6.701251e+01
  -2.947401e+02  -5.279228e+02
   2.440801e+02  -5.874972e+02
   6.607578e+02  -1.810579e+02
   4.625970e+02   2.367445e+02
   5.334208e+01   5.795551e+02
  -1.835154e+02   2.705388e+02
  -1.367216e+02  -2.305761e+02
   2.282294e+02  -4.748606e+02
   4.635183e+02  -3.315608e+01
   2.467853e+02   5.642909e+02
  -4.261101e+02   7.703641e+02
  -6.616273e+02   3.087030e+00
  -2.736400e+02  -6.011273e+02
   3.171157e+02  -3.075792e+02
   4.171481e+02   3.117658e+02
  -1.592059e+02   5.326350e+02
  -5.252885e+02   1.107693e+02
  -5.776930e+02  -4.919992e+02
  -1.005133e+02  -5.182092e+02
   4.312597e+02  -3.760683e+02
   7.127827e+02   1.343167e+02
   4.123412e+02   4.302125e+02
  -1.772791e+02   3.270660e+02
  -5.006679e+02   3.974622e+01
  -2.118301e+02  -2.276210e+02
   1.148647e+02  -1.270073e+02
   1.611999e+02   1.678963e+02
  -1.584800e+02   2.169032e+02
  -3.948384e+02  -9.057741e+01
  -1.112194e+02  -2.823406e+02
   2.313539e+02  -2.740303e+02
   3.327051e+02  -8.117321e+01
   1.357594e+02   1.265139e+02
  -4.597721e+01   2.455912e+02
  -2.588278e+02   2.943662e+02
  -3.195154e+02   1.910454e+02
  -3.228134e+02  -9.637180e+01
  -1.079825e+02  -4.135972e+02
   1.304533e+02  -4.014633e+02
   1.131243e+02  -1.087291e+02
   1.085777e+01   2.252566e+01
   3.651886e+01  -6.020507e+01
   1.728238e+02  -1.324823e+02
   3.221649e+02   3.848038e+01
   1.436108e+02   2.945624e+02
  -5.016814e+01   2.818815e+02
  -2.497927e+02   2.016739e+01
  -1.944646e+02  -2.584293e+02
  -1.798396e+01  -2.722126e+02
   2.838017e+02  -1.576590e+02
   3.911617e+02   2.086209e+02
   1.845586e+02   3.441833e+02
  -7.558447e+01   3.261641e+02
  -2.501373e+02   1.568511e+02
  -1.686374e+02  -1.699952e+01
  -1.164405e+02   2.409769e+01
  -1.928305e+02   6.343088e+01
  -3.776331e+02  -3.059628e+01
  -2.899031e+02  -2.955705e+02
   5.974450e+01  -4.644840e+02
   3.541591e+02  -3.932165e+02
   5.479597e+02  -2.162727e+02
   3.066578e+02   6.501776e+01
   6.357764e+01   2.789867e+02
  -1.410111e+02   2.681764e+02
  -8.598242e+01   2.088756e+01
   9.509809e+01  -9.280175e+01
   2.084511e+02   7.821197e+00
   3.573817e+01   1.885989e+02
  -1.777819e+02   1.646408e+02
  -1.670061e+02  -6.859455e+01
   1.938235e+01  -2.049821e+02
   1.847604e+02  -4.300477e-01
   1.516618e+02   2.343556e+02
   1.003175e+01   2.991837e+02
  -2.616508e+02   1.986386e+02
  -3.437852e+02  -8.739542e+01
  -2.640669e+02  -2.569138e+02
  -7.441152e+01  -2.657783e+02
   7.396075e+01  -1.809844e+02
   1.744224e+02  -1.125604e+01
   6.000516e+01   4.129152e+01
  -7.884084e+01  -3.344303e+01
  -1.912005e+01  -1.261422e+02
   1.274501e+02  -9.713101e+01
   1.888395e+02   5.482058e+00
   6.139744e+01   6.631777e+01
  -6.547516e+01   1.925245e+01
  -5.562050e+01  -7.576809e+01
   9.435700e+01  -1.041405e+02
   2.893741e+02  -2.793427e+01
   2.476276e+02   1.305961e+02
   7.151162e+01   2.506508e+02
  -1.977943e+02   2.784426e+02
  -2.897682e+02   1.146900e+02
  -1.744672e+02  -3.631350e+01
   2.208138e+01  -1.119481e+02
   9.554338e+01  -1.989063e+01
  -4.382776e+01   8.336853e+01
  -2.171635e+02   5.378128e+01
  -2.283433e+02  -1.275133e+02
  -7.243210e+01  -2.358791e+02
   9.495299e+01  -1.724952e+02
   1.409620e+02  -2.365995e+01
   7.580416e+01   4.251319e+01
  -2.719982e+01   6.217996e+00
  -6.182188e+01  -8.654581e+01
   6.666741e+01  -1.111553e+02
   2.095623e+02  -2.458462e+01
   2.185216e+02   1.441362e+02
   8.832420e-01   2.477532e+02
  -1.721297e+02   1.267607e+02
  -2.324511e+02   1.762678e+01
  -6.752628e+01  -1.075787e+02
   5.458472e+01  -1.189920e+02
   7.325260e+01  -2.607787e+01
   1.613354e+01   3.118785e+01
  -1.966271e+01   2.209254e+01
   1.174611e+01  -4.681363e+00
   7.737893e+01   1.298644e+01
   7.578384e+01   9.214701e+01
   2.072688e+01   1.496199e+02
  -1.086056e+02   1.452618e+02
  -2.056047e+02   3.891551e+01
  -2.169734e+02  -1.171941e+02
  -4.540324e+01  -2.327365e+02
   9.909730e+01  -1.610346e+02
   1.549436e+02  -1.216151e+01
   7.252748e+01   5.986911e+01
   3.110954e+01   3.770016e+01
   4.955116e+01  -1.457003e+01
   8.029052e+01  -1.267200e+01
   4.000304e+01   5.686096e+01
  -4.981530e+01   9.346896e+01
  -1.129635e+02   3.492060e+01
  -8.310434e+01  -1.998482e+01
   1.239701e+01  -1.076150e+02
   1.482104e+02  -9.304462e+01
   1.976583e+02   4.209303e+01
   9.514764e+01   1.843760e+02
  -7.465053e+01   2.112395e+02
  -2.707889e+02   8.186742e+01
  -2.600839e+02  -8.790607e+01
  -1.105054e+02  -1.592796e+02
   3.645994e+01  -1.303916e+02
   8.019004e+01  -9.227084e+01
   6.800041e+01  -6.964281e+01
   6.166350e+01  -1.083051e+02
   9.467118e+01  -5.901146e+01
   1.360615e+02   1.766383e+01
   9.195290e+01   1.482491e+02
   1.773646e+01   2.541355e+02
  -1.180790e+02   1.970693e+02
  -1.448704e+02  -6.026472e+00
  -1.550765e+02  -1.004393e+02
  -4.031486e+01  -1.635665e+02
   5.984007e+01  -7.908363e+01
   6.406778e+01   4.192340e+00
   3.188257e+00   4.187498e+01
  -1.232237e+01   3.314559e+01
   3.944287e+01   2.271995e+01
   7.361305e+01   2.202505e+01
   5.265879e+01   3.779171e+01
  -5.566042e+01   3.376161e+01
  -1.593297e+02   3.449818e+00
  -1.535761e+02  -4.925963e+01
  -1.388027e+01  -9.204922e+01
   1.193839e+02  -6.129954e+01
   1.404651e+02  -2.219749e+01
   4.357051e+01   4.043508e+01
  -5.793051e+01   3.061631e+01
  -7.891434e+01  -2.229628e+01
  -4.684499e+00  -6.991934e+01
   6.567799e+01  -6.697940e+01
   6.341808e+01  -2.456537e+00
   5.036235e+01   6.559772e+01
   4.359696e+01   5.178754e+01
   5.536038e+01   1.007143e+01
   6.054801e+01   4.048646e+00
   2.308392e+01   7.431059e+01
  -2.533454e+01   1.181661e+02
  -1.028903e+02   1.243200e+02
  -1.833158e+02   3.486447e+01
  -1.363751e+02  -8.255320e+01
   1.748635e+01  -1.248826e+02
   8.902897e+01  -5.785189e+01
   6.191606e+01   1.711919e+01
  -6.763216e+01   1.825340e+01
  -1.211816e+02  -3.624413e+01
  -8.371543e+01  -9.854395e+01
   6.817246e+01  -1.136482e+02
   1.971133e+02  -2.605358e+01
   1.480316e+02   2.931916e+01
   5.494882e+01   8.856757e+01
  -6.500273e+01   5.949787e+01
  -4.691344e+01   5.880113e+00
   3.396773e+01  -2.014229e+01
   9.251049e+01   1.616444e+01
   2.017322e+01   1.200512e+02
  -6.673415e+01   1.376198e+02
  -1.718034e+02   7.061305e+01
  -1.116681e+02  -8.535735e+01
   3.198661e+01  -1.829832e+02
   1.163932e+02  -1.599415e+02
   1.053391e+02   1.904791e+00
   5.319826e+01   1.205390e+02
   1.347035e+01   9.886496e+01
  -3.985675e+01   1.942023e+01
  -4.847441e+01  -3.591755e+01
  -2.465211e+01  -1.182785e+01
  -1.295079e+00   1.965816e+01
  -1.749300e+01  -1.385810e+01
  -5.689645e+01  -8.554940e+01
  -3.802917e+01  -1.053765e+02
   4.570847e+01  -4.633979e+01
   1.498515e+02   3.557116e+01
   1.192126e+02   7.858256e+01
   1.797642e+01   4.631183e+01
  -8.369340e+01   3.212135e+01
  -8.595992e+01   1.145709e+01
  -8.760839e+00  -5.000086e+00
   3.914372e+01  -2.872786e+01
   1.606621e+01  -2.045773e+01
  -2.142028e+01   1.035016e+00
   5.018507e+00   1.014430e+01
   7.835735e+01   1.115480e+01
   8.209598e+01   2.117744e+01
   1.174100e+01   8.157254e+01
  -1.308697e+02   9.494964e+01
  -1.794886e+02   5.794805e+01
  -1.268944e+02  -6.803027e+01
  -8.119686e+00  -1.563361e+02
   7.021491e+01  -1.376392e+02
   1.088587e+02  -6.654970e+01
   7.581268e+01   3.428449e+01
   1.714077e+01   3.862857e+01
  -3.983552e+00   6.308694e+00
   9.147165e+00   5.033358e+00
   2.639205e+01   4.636111e+01
   2.560528e+01   9.478963e+01
  -3.025112e+01   6.278476e+01
  -8.574435e+01  -2.146469e+01
  -7.175931e+01  -1.090718e+02
  -1.081730e+01  -1.248500e+02
   9.331532e+01  -1.685039e+01
   9.679600e+01   6.650125e+01
   2.664893e+01   9.773887e+01
  -6.005919e+01   3.677669e+01
  -9.786024e+01  -6.917036e+00
  -3.988513e+01  -5.147505e+01
   2.394712e+01  -4.796425e+01
   2.726880e+01  -2.630301e+01
  -3.521940e+01  -1.653721e+00
  -7.876975e+01   1.128936e+01
  -1.494149e+01  -2.045848e+01
   8.115153e+01  -6.672834e+01
   1.138133e+02  -6.186276e+01
   6.223014e+01   1.585664e+01
  -1.671910e+01   8.671026e+01
  -4.689354e+01   9.007674e+01
  -3.749080e+01  -5.312584e+00
   3.286071e+00  -5.601795e+01
   2.361458e+01  -4.778211e+01
   3.403229e+01   1.352105e+01
   2.063639e+01   4.645939e+01
   1.101323e+00   3.129198e+01
  -3.055007e+01  -7.168013e+00
  -4.144775e+01  -1.858845e+01
  -2.198209e+01   2.579344e-01
   2.140542e+00   1.544726e+01
   9.031076e+00  -3.224315e+00
   5.895146e+00  -3.790543e+01
   1.462647e+01  -3.783035e+01
   3.337261e+01  -6.533401e+00
   3.008701e+01   5.188523e+01
  -4.326991e+00   5.478298e+01
  -4.383686e+01   1.950565e+01
  -4.474981e+01  -3.342322e+01
  -1.453591e+01  -6.684137e+01
   5.596338e+01  -3.750278e+01
   9.169788e+01   1.333591e+01
   5.558417e+01   4.534966e+01
  -2.832537e+01   3.491427e+01
  -6.490655e+01   2.126009e+01
  -2.148945e+01   1.215753e+00
   4.225894e+01  -2.669278e+00
   3.749526e+01   2.064669e+01
  -2.984624e+01   2.831879e+01
  -9.586879e+01   1.717366e+01
