
 $NMID
 id='ANONYMOUS ', fmtdat='(2E16.6)'
 volume=1.0
 tramp=1.0
 $END
   3.469036e+03  -5.898107e+01
   1.596826e+03   1.574083e+03
   5.103602e+02   2.160098e+03
  -1.468403e+03   1.275577e+03
  -1.069110e+03   2.829954e+02
   2.679753e+02   3.755420e+01
   2.852334e+02   2.693298e+02
  -4.034361e+01   6.009794e+02
  -4.124799e+02   5.900879e+02
  -7.588081e+02   1.045656e+02
  -3.356408e+02  -6.194106e+02
  -3.257199e+01  -7.259342e+02
   4.299041e+02  -1.901103e+02
   2.480558e+02   3.421735e+02
  -1.863061e+02   5.153000e+02
  -4.656008e+02   2.769297e+01
  -2.990016e+02  -5.947853e+02
   1.521018e+02  -5.152460e+02
   4.916421e+02  -2.705752e+02
   3.760934e+02   2.312025e+02
   6.649031e+01   3.403048e+02
  -1.300930e+02   2.328125e+02
  -1.087699e+02   5.593912e+01
   1.688683e+02   8.864325e+01
   3.373936e+02   2.916182e+02
   8.234416e+01   3.528330e+02
  -4.057543e+02   2.692068e+02
  -6.153290e+02  -3.643740e+01
  -2.792178e+02  -4.030121e+02
   4.161201e+02  -8.744433e+01
   5.139041e+02   2.280842e+02
   1.373571e+02   3.893971e+02
  -2.113792e+02   3.611496e+02
  -3.524809e+02   8.485533e+01
  -3.093468e+02  -9.762292e+01
  -1.105103e+02  -2.838904e+02
   7.868177e+01  -2.438438e+02
  -8.239705e+00   1.154512e+02
  -1.551433e+02   1.902570e+02
  -2.758728e+02  -1.109286e+02
   1.135226e+02  -4.900781e+02
   2.863027e+02  -4.053200e+02
   3.402166e+02  -3.443818e+01
   1.314717e+02   2.877100e+02
  -2.007605e+02   1.415626e+02
  -1.885607e+02  -2.290809e+02
   1.960967e+02  -3.533542e+02
   4.241523e+02  -6.413002e+01
   4.527740e+02   3.223185e+02
   1.347705e+02   5.482724e+02
  -2.515643e+02   2.875164e+02
  -4.697926e+02  -8.400296e+01
  -2.920502e+02  -3.082562e+02
   1.340944e+02  -2.358858e+02
   2.561347e+02  -5.713544e+01
   1.681342e+02   7.359261e+01
   1.349322e+01   6.425937e+01
  -5.073928e+01  -7.458028e+01
   1.033833e+02  -7.983143e+01
   2.388920e+02   5.619348e+01
   1.341374e+02   1.965077e+02
  -1.365614e+02   2.303291e+02
  -3.157811e+02   1.551207e+02
  -2.526757e+02  -1.502073e+02
   2.605584e+01  -3.115091e+02
   3.279570e+02  -2.715696e+02
   3.571685e+02  -1.436546e+02
   2.204630e+02   1.406388e+02
   5.325052e+01   4.033366e+02
  -4.995764e+01   3.124241e+02
  -4.536306e+01   1.689582e+02
   2.725107e-01   9.666985e+01
  -1.262086e+02   1.229878e+02
  -2.499183e+02   7.128370e+01
  -1.901007e+02  -7.553345e+01
  -4.828862e+01  -2.690531e+02
   1.111761e+02  -1.829591e+02
   1.624831e+02   1.452783e+01
   1.496147e+02   2.065408e+02
  -4.782249e+01   2.515539e+02
  -2.348131e+02   9.965811e+01
  -2.794069e+02  -2.365463e+02
  -2.109175e+02  -2.614994e+02
   6.414334e+01  -2.916455e+02
   1.128596e+02  -1.428496e+02
   1.402701e+02  -7.436331e+01
   1.243410e+02  -6.499443e+01
   2.917029e+02  -6.639487e+01
   4.352599e+02   8.963239e+01
   3.319835e+02   3.309202e+02
  -1.289138e+02   3.898969e+02
  -3.725319e+02   4.313801e+02
  -4.680933e+02   1.279286e+02
  -2.949052e+02  -9.520721e+01
  -5.051208e+01  -2.656869e+02
   1.335657e+02  -1.460844e+02
   2.293443e+01  -4.324858e+01
  -1.170930e+02   6.913222e+01
  -1.477967e+02  -4.845313e+00
  -1.370072e+01  -1.219043e+02
   1.459133e+02  -8.682896e+01
   1.165332e+02   6.439887e+01
  -3.727190e+01   1.300245e+02
  -1.763013e+02  -1.635555e+01
  -1.464862e+02  -2.540556e+02
   1.256034e+01  -3.863685e+02
   2.210530e+02  -1.775689e+02
   3.050533e+02   1.297180e+02
   2.216377e+02   2.594416e+02
   4.583200e+01   2.926826e+02
  -1.363547e+02   1.129120e+02
  -1.687707e+02  -1.533986e+01
  -3.867877e+01  -4.055581e+00
   5.794688e+01   6.677385e+01
  -2.404748e+01   1.212612e+02
  -1.253983e+02   5.376726e+01
  -1.378370e+02  -2.482649e+01
  -3.945522e+01  -5.710050e+01
   7.618692e+01   7.603422e+00
   2.336507e+01   1.059244e+02
  -1.240561e+02   1.049673e+02
  -2.744389e+02  -2.223684e+01
  -2.650243e+02  -1.396535e+02
  -2.581069e+01  -2.554893e+02
   2.318947e+02  -1.553501e+02
   2.907631e+02  -1.268127e+02
   1.455809e+02   6.060154e+01
  -4.406282e+01   5.928976e+01
  -7.101455e+01  -1.949586e+00
   6.095236e+01  -8.044664e+01
   1.768662e+02  -3.228707e+01
   1.512458e+02   9.306296e+01
   4.814367e+01   1.584704e+02
  -7.315601e+01   1.331354e+02
  -1.216634e+02   2.022447e+01
  -3.514341e+01  -4.268547e+01
   4.239699e+01   2.023466e+01
   2.194065e+01   1.010406e+02
  -1.048826e+02   1.203390e+02
  -2.017080e+02  -8.638307e-01
  -1.732444e+02  -1.339343e+02
   3.633535e+01  -1.900710e+02
   1.388365e+02  -1.418715e+02
   1.643916e+02  -4.184129e+01
   2.432218e+01   9.642205e+01
  -7.784477e+01   8.431329e+01
  -8.093394e+01   9.373414e+00
  -1.759405e+00  -2.624980e+01
   4.008444e+01  -1.005463e+01
  -9.440282e+00   2.335289e+01
  -8.237982e+01   1.362599e+01
  -1.027302e+02  -8.031247e+01
  -9.341643e+00  -1.650417e+02
   1.448069e+02  -1.166772e+02
   2.503172e+02   1.184212e+01
   2.238331e+02   1.382247e+02
   4.893736e+01   2.318465e+02
  -7.739036e+01   1.771423e+02
  -1.105280e+02   2.589370e+01
  -6.268376e+01  -3.779780e+01
  -3.524608e+01  -2.501446e+01
  -5.662448e+01   1.495674e+01
  -8.756303e+01   7.954704e+00
  -5.186469e+01  -5.693346e+01
   3.761802e+01  -9.970597e+01
   1.119394e+02  -5.843117e+01
   9.932408e+01   3.892750e+01
  -3.303194e+01   1.258250e+02
  -1.475995e+02   1.079515e+02
  -2.037939e+02  -5.215229e+01
  -6.929803e+01  -2.357776e+02
   1.238755e+02  -2.535332e+02
   2.585340e+02  -1.021717e+02
   2.191017e+02   8.331195e+01
   1.092661e+02   1.851280e+02
  -4.566376e+01   1.501764e+02
  -9.724019e+01   7.395534e+01
  -7.257816e+01   7.029139e+01
  -3.900029e+01   9.656679e+01
  -9.130695e+01   8.714941e+01
  -1.238024e+02  -3.153722e+01
  -9.705767e+01  -1.746546e+02
   2.538738e+00  -2.076127e+02
   1.191433e+02  -1.493789e+02
   1.800667e+02  -3.390656e+00
   1.369113e+02   1.122306e+02
   2.603305e+01   1.500588e+02
  -9.325906e+01   6.502476e+01
  -5.427225e+01  -1.817229e+01
   8.764982e+00  -4.682772e+01
   2.966743e+01  -3.611104e+01
  -2.735560e+01  -1.478205e+01
  -8.914318e+01  -5.825106e+00
  -3.994054e+01  -3.497423e+01
   7.000385e+01  -3.498219e+01
   1.676575e+02  -7.235202e+00
   1.271438e+02   4.856008e+01
  -1.148039e+00   1.012938e+02
  -1.544809e+02   6.878011e+01
  -1.458706e+02   8.635547e+00
  -3.914232e+01  -5.111164e+01
   6.234480e+01  -3.949510e+01
   6.891401e+01   1.387323e+01
   1.342732e+01   6.686817e+01
  -3.591303e+01   4.588333e+01
  -6.204160e+01  -1.453348e+00
  -4.800993e+01  -5.134674e+01
  -4.474225e+01  -3.965690e+01
  -5.068673e+01  -4.847539e+00
  -6.190374e+01  -3.431010e+00
  -4.192885e+01  -6.137844e+01
   2.487473e+01  -1.792147e+02
   1.173976e+02  -1.420141e+02
   1.596448e+02  -3.354414e+01
   1.289522e+02   8.004965e+01
  -1.084824e+01   1.333675e+02
  -7.828225e+01   5.428769e+01
  -5.951804e+01  -1.223154e+01
   5.377996e+01  -1.964273e+01
   1.420062e+02   4.529588e+01
   7.727618e+01   8.702543e+01
  -9.485853e+01   1.046512e+02
  -1.977084e+02   2.014710e+01
  -1.576083e+02  -6.053369e+01
  -3.583296e+01  -7.995314e+01
   7.193732e+01  -5.251831e+01
   4.841783e+01   6.436694e+00
  -4.319119e+01   2.608310e+01
  -8.511201e+01  -2.757889e+01
  -4.508042e+01  -1.172356e+02
   9.070226e+01  -1.652623e+02
   1.625239e+02  -6.048509e+01
   1.229939e+02   8.242922e+01
   1.439219e+01   1.902938e+02
  -7.945245e+01   1.165813e+02
  -9.837103e+01  -5.747286e+00
  -6.074304e+01  -1.220212e+02
   8.189455e+00  -1.134384e+02
   5.383230e+01  -1.404574e+01
   4.180058e+01   3.956346e+01
   1.650502e+01   8.959522e+00
   3.762765e+00  -1.722035e+01
   2.753451e+01   1.966196e+01
   5.019216e+01   8.820953e+01
   1.263038e+01   1.021996e+02
  -5.817702e+01   5.009949e+01
  -1.494693e+02  -2.894696e+01
  -1.111233e+02  -7.293543e+01
  -1.764249e+01  -5.621933e+01
   7.470544e+01  -2.837698e+01
   8.042437e+01  -2.112894e+01
   1.572724e+01   1.200229e+01
  -3.551650e+01   2.120489e+01
  -1.988858e+01   1.136417e+01
   1.396090e+01  -2.757678e+00
  -2.984049e+00  -6.196889e+00
  -6.875471e+01  -6.328743e+00
  -8.914690e+01  -1.944300e+01
  -2.287565e+01  -6.886079e+01
   1.130365e+02  -1.073951e+02
   1.465996e+02  -7.123480e+01
   1.552485e+02   5.997198e+01
   2.274445e+01   1.629098e+02
  -7.433025e+01   1.490723e+02
  -1.038616e+02   6.831046e+01
  -7.083887e+01  -3.118484e+01
  -2.006840e+01  -3.723092e+01
  -1.706082e+00  -1.373533e+01
  -1.433995e+01  -1.030056e+01
  -2.476176e+01  -4.795288e+01
  -2.763367e+01  -8.557419e+01
   3.214378e+01  -6.574475e+01
   6.753350e+01   2.238320e+01
   7.557933e+01   1.076679e+02
   1.074949e+01   1.087286e+02
  -6.946994e+01   2.815772e+01
  -9.791704e+01  -5.602823e+01
  -2.629721e+01  -1.100664e+02
   6.284716e+01  -6.884693e+01
   1.023093e+02  -2.240583e+00
   4.568685e+01   4.547312e+01
  -3.180870e+01   6.225266e+01
  -4.205133e+01   3.117056e+01
   2.513709e+01  -1.007028e+00
   6.538541e+01  -1.232214e+01
   2.299927e+01   2.739626e+01
  -8.612252e+01   6.830025e+01
  -1.039216e+02   6.337098e+01
  -6.304301e+01  -2.499100e+01
   1.271384e+01  -7.643254e+01
   4.079333e+01  -8.887361e+01
   3.886875e+01  -8.457683e+00
   1.088134e+01   4.826712e+01
  -1.618717e+01   4.071236e+01
  -3.757965e+01  -7.979568e+00
  -3.010750e+01  -5.869094e+01
  -1.446865e+00  -3.931733e+01
   3.291374e+01   1.338229e+01
   4.328600e+01   1.817803e+01
   1.935637e+01   4.451864e+00
  -5.590099e+00  -1.692469e+01
  -8.749201e+00  -9.045484e+00
   3.075461e+00   3.161991e+01
  -1.058797e+01   6.036609e+01
  -2.506105e+01   1.886520e+01
  -3.425798e+01  -3.914451e+01
  -6.877207e+00  -6.684779e+01
   3.372653e+01  -2.939076e+01
   6.959989e+01   3.088542e+01
   1.064350e+01   5.645549e+01
  -5.446896e+01   3.752555e+01
  -9.260606e+01  -7.777957e+00
  -5.121678e+01  -3.897789e+01
   2.795649e+01  -4.305064e+01
   7.064848e+01  -2.246064e+01
   2.540862e+01  -9.819779e+00
  -2.459101e+01   5.808110e+00
  -2.641979e+01  -1.023177e+01
   2.194828e+01  -2.969605e+01
   7.703827e+01  -1.948564e+01
