
 $NMID
 id='ANONYMOUS ', fmtdat='(2E16.6)'
 volume=1.0
 tramp=1.0
 $END
  -2.680768e+03  -4.398175e+01
  -1.227866e+03  -1.060913e+03
  -2.566981e+02  -2.089264e+03
   6.635919e+02  -9.772049e+02
   7.803740e+02  -3.882982e+02
   1.875883e+02   1.738673e+02
  -2.897024e+02   2.101950e+01
  -1.155770e+02  -4.626355e+02
   3.035877e+02  -4.645521e+02
   5.868116e+02  -7.277215e+01
   3.301722e+02   4.344929e+02
   9.554969e+01   5.435282e+02
  -1.693015e+02   1.213916e+02
  -2.177815e+02  -3.354225e+02
   4.079953e+01  -4.419661e+02
   2.902404e+02  -1.239901e+02
   2.388326e+02   3.848569e+02
  -4.422122e+01   5.705813e+02
  -3.621512e+02   2.438226e+02
  -3.791644e+02  -1.077428e+02
  -1.731159e+02  -2.692117e+02
   7.012318e+01  -2.323702e+02
   1.142835e+01  -7.976924e+01
  -1.629461e+02  -1.170139e+02
  -2.184196e+02  -2.803941e+02
   6.191675e+01  -2.781443e+02
   4.828422e+02  -2.502532e+01
   4.284111e+02   3.002229e+02
   1.350542e+02   2.825546e+02
  -2.737932e+02   9.390306e+01
  -3.345257e+02  -1.781308e+02
  -1.661105e+02  -3.451529e+02
   1.867659e+02  -3.220537e+02
   3.721461e+02  -4.434912e+01
   2.228033e+02   1.216504e+02
   3.424337e+00   2.027288e+02
  -4.131158e+01   2.029298e+02
   1.158600e+02  -3.919152e+01
   1.876867e+02  -6.390426e+01
   1.275531e+02   1.260276e+02
  -1.604217e+01   3.954553e+02
  -2.750640e+02   3.412795e+02
  -2.504982e+02  -8.768063e+01
   6.761525e+01  -2.060852e+02
   1.223041e+02  -5.147541e+01
   9.052727e+01   3.164126e+02
  -1.486828e+02   3.594702e+02
  -3.409530e+02   3.847877e+01
  -4.257892e+02  -3.346797e+02
  -1.414635e+02  -4.108690e+02
   2.534805e+02  -1.939412e+02
   4.094109e+02   8.701892e+01
   3.168034e+02   1.557713e+02
  -2.242551e+01   2.141073e+02
  -2.468275e+02   8.247249e+01
  -1.943439e+02   5.491597e+01
  -2.374494e+01   1.107699e+01
   2.794209e+01   4.545093e+00
  -4.471936e+01   6.849108e+01
  -1.806261e+02   8.512905e+00
  -7.140091e+01  -1.386699e+02
   1.299999e+02  -1.995167e+02
   2.482030e+02  -1.461039e+02
   2.302274e+02   8.845390e+01
  -1.961813e+01   3.064838e+02
  -2.242918e+02   3.103801e+02
  -3.257945e+02   9.280516e+01
  -1.335938e+02  -1.362762e+02
  -9.129796e+01  -3.351223e+02
   2.933662e+01  -2.405487e+02
   3.170660e+01  -1.622566e+02
   2.363490e+01  -1.280425e+02
   1.451941e+02  -9.863465e+01
   2.331370e+02  -3.729352e+01
   1.832046e+02   1.341082e+02
   2.847453e+01   2.101701e+02
  -1.240669e+02   1.659225e+02
  -1.436882e+02  -5.650836e+01
  -1.127305e+02  -1.917778e+02
   5.874265e+01  -1.755354e+02
   1.989151e+02  -4.025359e+01
   2.098262e+02   1.852169e+02
   1.623335e+02   2.320086e+02
  -1.597606e+00   2.074483e+02
  -1.309657e+02   1.281125e+02
  -1.436183e+02   9.354672e+01
  -1.455967e+02   5.157594e+01
  -2.407984e+02   4.271468e+00
  -3.734089e+02  -9.362082e+01
  -2.720478e+02  -3.181531e+02
  -8.327662e+00  -3.401306e+02
   4.110374e+02  -3.645325e+02
   3.712917e+02  -1.261041e+02
   2.284207e+02   1.104932e+02
  -4.805119e+00   2.538812e+02
  -1.161094e+02   1.512805e+02
   6.697359e+00   2.304358e+01
   9.780808e+01  -2.350831e+01
   9.879033e+01   6.667190e+01
  -1.843495e+01   1.408867e+02
  -8.824637e+01   6.889193e+01
  -8.454609e+01  -4.232349e+01
   4.265839e+01  -1.096285e+02
   1.384136e+02   1.094995e+01
   1.624364e+02   1.944095e+02
  -3.432089e+01   3.229302e+02
  -2.324492e+02   1.786480e+02
  -3.032491e+02  -5.284048e+01
  -2.060441e+02  -2.217974e+02
  -2.896201e+01  -2.873510e+02
   9.742957e+01  -1.183228e+02
   1.267852e+02   1.638754e+01
   2.579078e+01   9.178371e+00
  -4.976789e+01  -6.026350e+01
   1.070756e+01  -9.899877e+01
   1.146936e+02  -3.596909e+01
   1.166944e+02   4.360393e+01
   1.292969e+01   3.510434e+01
  -7.168539e+01  -1.929533e+01
  -3.005887e+01  -9.626919e+01
   1.047253e+02  -9.514700e+01
   2.728819e+02   7.686333e+01
   2.344971e+02   1.641908e+02
  -8.319591e+00   2.149480e+02
  -1.738025e+02   1.834707e+02
  -2.430954e+02   4.517772e+01
  -1.156360e+02  -3.215648e+01
   3.181718e+01  -5.965164e+01
   4.501480e+01   1.331958e+01
  -5.728377e+01   7.306886e+01
  -1.745852e+02   5.027919e+00
  -1.735661e+02  -1.186641e+02
  -2.698878e+01  -1.490886e+02
   8.315818e+01  -1.272063e+02
   1.183104e+02   5.842321e+00
   2.463060e+01   3.669263e+01
  -4.763644e+01  -3.165588e+01
  -1.994214e+01  -9.611768e+01
   1.072102e+02  -1.351786e+02
   1.998743e+02  -1.684815e+01
   1.435017e+02   9.636212e+01
   8.091757e+00   1.736677e+02
  -1.631029e+02   1.000986e+02
  -1.538823e+02  -1.367442e+00
  -3.307926e+01  -9.053670e+01
   5.009055e+01  -6.787402e+01
   5.983888e+01  -1.762216e+01
  -5.202594e+00   2.508267e+01
  -3.571496e+01   5.108410e+00
   5.975359e+00  -2.796964e+01
   8.480942e+01  -9.591342e+00
   9.328269e+01   9.031076e+01
   4.042698e+00   1.638503e+02
  -1.404770e+02   1.333300e+02
  -2.007284e+02   9.122033e+00
  -1.263711e+02  -1.526778e+02
  -1.876762e+01  -1.938155e+02
   9.450344e+01  -1.167686e+02
   1.144619e+02  -2.459836e+01
   6.411839e+01   4.373773e+01
   2.990156e+01   1.889169e+01
   4.206885e+01  -1.227031e+01
   8.246165e+01  -1.261369e+01
   6.601372e+01   5.980353e+01
  -3.946986e+01   9.951040e+01
  -1.360530e+02   5.796875e+01
  -9.750570e+01  -2.585541e+01
   2.720531e+01  -1.117491e+02
   1.684458e+02  -7.061998e+01
   1.820857e+02   6.245089e+01
   6.413041e+01   1.662893e+02
  -1.541416e+02   1.800518e+02
  -2.542808e+02   1.853530e+01
  -2.268097e+02  -9.441034e+01
  -9.100811e+01  -1.736082e+02
   4.473059e+01  -1.207535e+02
   6.457303e+01  -7.477661e+01
   4.595180e+01  -6.606528e+01
   5.291727e+01  -8.035021e+01
   7.352806e+01  -6.064764e+01
   1.309225e+02   1.088675e+01
   1.063033e+02   1.456937e+02
  -3.154020e+00   1.830937e+02
  -1.032133e+02   1.351827e+02
  -1.477383e+02   3.154364e+00
  -1.047812e+02  -1.251770e+02
   5.163714e+00  -1.181625e+02
   6.532496e+01  -6.807094e+01
   5.168861e+01   2.790046e+01
  -1.213993e+01   5.307235e+01
  -2.300732e+01   2.786551e+01
   1.622585e+01   1.299970e+01
   7.759126e+01   1.196449e+01
   4.014538e+01   3.060424e+01
  -7.595920e+01   4.311973e+01
  -1.596703e+02  -9.269910e+00
  -1.226322e+02  -6.655706e+01
   9.296332e+00  -9.112760e+01
   1.377228e+02  -5.203016e+01
   1.202878e+02  -1.687508e+00
   4.575667e+01   4.442651e+01
  -4.991876e+01   3.033597e+01
  -7.546029e+01  -3.084589e+01
  -2.615847e+01  -6.389180e+01
   3.866903e+01  -5.151593e+01
   6.751793e+01  -7.146157e+00
   4.835447e+01   4.053171e+01
   4.245227e+01   3.927077e+01
   4.830283e+01   2.343167e+00
   5.744725e+01  -2.321275e+00
   3.799971e+01   5.982782e+01
  -2.612730e+01   1.438421e+02
  -1.277646e+02   1.290016e+02
  -1.617376e+02   2.582407e+01
  -1.326746e+02  -8.181656e+01
   4.697522e+00  -1.124866e+02
   7.995307e+01  -5.952525e+01
   5.262399e+01   1.207557e+01
  -4.880218e+01   1.452696e+01
  -1.163459e+02  -3.270211e+01
  -5.874462e+01  -1.022985e+02
   5.718771e+01  -1.075238e+02
   1.653424e+02  -1.234955e+01
   1.325762e+02   6.933936e+01
   2.936108e+01   8.003307e+01
  -5.121054e+01   4.134147e+01
  -4.402832e+01  -2.853680e+00
   3.603445e+01  -2.149051e+01
   8.009798e+01   1.987306e+01
   3.493050e+01   9.820710e+01
  -6.223063e+01   1.231140e+02
  -1.458865e+02   5.682015e+01
  -1.038085e+02  -7.872367e+01
   2.509383e+00  -1.822598e+02
   6.541418e+01  -1.098474e+02
   9.531323e+01   4.659482e+00
   3.515911e+01   1.117267e+02
  -2.448570e+01   8.947413e+01
  -4.948859e+01   1.275467e+01
  -3.955181e+01  -2.980609e+01
  -8.527219e+00  -8.700148e+00
  -6.717139e+00   1.375612e+01
  -2.786083e+01  -1.864640e+01
  -3.809255e+01  -7.434019e+01
  -1.160872e+01  -9.607910e+01
   4.936990e+01  -3.108561e+01
   1.136245e+02   2.583464e+01
   1.054263e+02   6.545277e+01
   1.461997e+01   4.485059e+01
  -6.878595e+01   1.425798e+01
  -7.510186e+01   5.823617e+00
  -1.692615e+01  -1.031712e+01
   2.693466e+01  -2.485479e+01
   1.731073e+01  -7.846422e+00
  -1.135997e+01   2.399957e+00
   2.058415e+00   5.456554e+00
   5.478814e+01   6.075727e+00
   6.848468e+01   2.870707e+01
   2.021653e+01   7.259451e+01
  -1.263421e+02   8.172346e+01
  -1.748703e+02   7.012009e+01
  -1.219193e+02  -4.499331e+01
  -2.749465e+01  -1.437668e+02
   9.120366e+01  -1.335897e+02
   9.900284e+01  -7.015503e+01
   6.903307e+01   2.061310e+01
   2.238915e+01   3.133534e+01
   3.356452e+00   1.331826e+01
   1.405616e+01   7.934905e+00
   2.391427e+01   4.759220e+01
   1.245357e+01   7.270667e+01
  -2.973419e+01   6.245946e+01
  -7.435733e+01  -1.615650e+01
  -6.626514e+01  -8.858700e+01
  -1.204636e+01  -8.996656e+01
   6.157620e+01  -3.398191e+01
   8.082835e+01   5.626603e+01
   3.143801e+01   8.552612e+01
  -6.989564e+01   4.747117e+01
  -9.055098e+01  -8.741740e+00
  -4.046348e+01  -5.320190e+01
   2.995522e+01  -6.106291e+01
   3.686880e+01  -2.846346e+01
  -1.681312e+01   6.201542e+00
  -6.401720e+01   1.101636e+01
  -2.022044e+01  -2.478009e+01
   7.306665e+01  -5.075036e+01
   1.061748e+02  -5.413630e+01
   7.434063e+01   1.614409e+01
  -3.085129e+00   7.984210e+01
  -5.182532e+01   7.234597e+01
  -4.682326e+01   9.798499e+00
  -2.764665e+00  -4.443399e+01
   1.261859e+01  -4.660862e+01
   3.392644e+01   7.124047e+00
   2.001471e+01   5.235717e+01
  -3.984725e-01   3.722213e+01
  -2.790149e+01  -5.211516e+00
  -3.561872e+01  -2.488615e+01
  -1.582653e+01  -2.176399e+00
   3.900542e+00   1.897324e+01
   8.254843e+00   1.168628e+01
  -5.673083e+00  -2.691531e+01
   3.817226e-02  -5.392788e+01
   1.897843e+01  -2.313579e+01
   4.214161e+01   3.033753e+01
   1.282571e+01   5.482826e+01
  -3.685572e+01   2.157752e+01
  -5.470223e+01  -3.252769e+01
  -1.763208e+01  -4.912736e+01
   4.933728e+01  -3.875637e+01
   8.150780e+01   1.000577e+00
   4.143123e+01   3.446351e+01
  -2.695901e+01   4.572535e+01
  -5.525947e+01   2.591556e+01
  -2.572272e+01   5.678115e+00
   2.403703e+01  -1.042403e+01
   3.124802e+01   5.294090e+00
  -1.792755e+01   2.259814e+01
  -5.740516e+01   1.912873e+01
