
 $NMID
 id='ANONYMOUS ', fmtdat='(2E16.6)'
 volume=1.0
 tramp=1.0
 $END
   3.016408e+03   3.258606e+02
   1.688064e+03   1.686734e+03
  -1.764703e+02   2.347381e+03
  -1.197843e+03   1.032008e+03
  -8.035645e+02  -1.414837e+02
   2.583590e+02  -2.340855e+02
   5.802179e+02   1.894868e+02
   3.486063e+01   6.786760e+02
  -4.196197e+02   4.890812e+02
  -5.981815e+02  -8.634304e+01
  -3.620334e+02  -6.514939e+02
   6.175302e+01  -6.127539e+02
   3.117863e+02  -8.096290e+01
   2.563394e+02   5.940981e+02
  -1.026179e+02   4.898600e+02
  -4.771257e+02   4.413891e+01
  -2.046327e+02  -4.689787e+02
   1.216926e+02  -5.222761e+02
   4.400682e+02  -8.106356e+01
   3.203888e+02   1.924680e+02
   1.145261e+02   3.319138e+02
  -1.262454e+02   1.925105e+02
  -8.511428e+01   5.475504e+01
   1.509946e+02   5.099088e+01
   2.373770e+02   1.977167e+02
   4.949107e+01   3.330644e+02
  -3.951614e+02   1.159933e+02
  -6.039041e+02  -2.038266e+02
  -1.995344e+02  -3.578059e+02
   3.431338e+02  -2.755675e+02
   5.419474e+02   1.072150e+02
   1.753625e+02   3.539412e+02
  -2.040167e+02   2.896263e+02
  -4.290511e+02   1.046273e+02
  -2.561131e+02  -1.845164e+02
   1.884363e+01  -2.892202e+02
   1.531123e+02  -1.848050e+02
  -3.822671e+00   1.330581e+02
  -1.204095e+02   1.949627e+02
  -2.408454e+02  -4.262746e+01
  -8.587769e+00  -4.605679e+02
   3.080414e+02  -4.530324e+02
   3.456608e+02   4.030939e+01
   8.757005e+01   3.892011e+02
  -1.820887e+02   1.448811e+02
  -2.370567e+02  -3.129392e+02
   1.128675e+02  -4.294170e+02
   4.352676e+02  -1.061377e+02
   4.488878e+02   3.407471e+02
   1.360182e+02   4.901552e+02
  -2.946025e+02   2.407693e+02
  -4.441480e+02  -8.547712e+01
  -3.366713e+02  -2.763612e+02
   6.536537e+01  -2.491212e+02
   2.975069e+02  -4.880068e+01
   1.755278e+02   5.919096e+01
  -3.678595e+01   2.310437e+01
  -9.050863e+01  -7.454590e+01
   1.213475e+02  -1.165391e+02
   2.034911e+02   9.663456e+00
   8.549563e+01   1.834239e+02
  -1.693949e+02   1.909438e+02
  -2.675806e+02   9.321249e+01
  -2.002779e+02  -9.754588e+01
   4.107510e+01  -2.593872e+02
   2.103614e+02  -2.629801e+02
   3.044890e+02  -1.220264e+02
   2.020659e+02   1.340203e+02
   7.853101e+01   3.576937e+02
  -8.251387e+01   2.720978e+02
  -6.570603e+01   1.425817e+02
  -3.398839e+01   5.987098e+01
  -9.333707e+01   7.856853e+01
  -2.172295e+02   7.584533e+01
  -2.189544e+02  -9.178632e+01
  -8.952433e+01  -2.130938e+02
   1.065170e+02  -2.056332e+02
   1.756405e+02   2.835277e+01
   1.523251e+02   2.164631e+02
  -4.055505e+01   2.210293e+02
  -2.220888e+02   8.026839e+01
  -2.747486e+02  -1.614073e+02
  -1.260448e+02  -2.758408e+02
   3.257456e+01  -2.307604e+02
   1.577368e+02  -8.125253e+01
   1.351297e+02  -3.348951e+01
   1.081832e+02  -2.952948e+01
   1.953090e+02  -1.299239e+01
   3.375517e+02   7.315961e+01
   2.323834e+02   2.788197e+02
  -1.463582e+01   3.814755e+02
  -3.633847e+02   3.641578e+02
  -3.699363e+02   1.153403e+02
  -2.632290e+02  -1.005754e+02
  -2.322088e+01  -2.370217e+02
   1.179697e+02  -1.759848e+02
   2.056518e+01  -1.963188e+01
  -9.304675e+01   5.235201e+01
  -1.381441e+02  -4.070999e+01
  -4.646157e+00  -1.559287e+02
   1.280155e+02  -9.747871e+01
   1.206307e+02   4.434191e+01
  -4.888900e+01   1.422860e+02
  -1.415679e+02  -1.315492e+01
  -1.534974e+02  -2.044117e+02
   1.554077e+01  -3.378707e+02
   2.265220e+02  -1.559026e+02
   2.919866e+02   5.972807e+01
   2.297746e+02   2.538561e+02
   3.559094e+01   2.526436e+02
  -1.088959e+02   1.444478e+02
  -1.371356e+02  -8.993732e+00
  -3.603317e+01  -1.596347e+01
   5.268038e+01   4.087755e+01
  -8.870617e-01   9.891134e+01
  -1.159568e+02   4.753585e+01
  -1.357761e+02  -2.974365e+01
  -3.063706e+01  -4.653784e+01
   7.306992e+01   1.633826e+00
   3.707687e+01   8.330572e+01
  -9.642252e+01   9.621270e+01
  -2.273075e+02  -4.276132e+01
  -2.283544e+02  -1.445705e+02
  -1.850571e+01  -1.959055e+02
   1.573949e+02  -1.894099e+02
   2.179746e+02  -8.398110e+01
   1.094051e+02   3.999092e+01
  -2.359537e+01   8.463312e+01
  -6.725889e+01  -3.047839e+00
   4.645940e+01  -7.504020e+01
   1.685340e+02   4.417029e+00
   1.565877e+02   1.030043e+02
   3.874414e+01   1.493268e+02
  -8.878707e+01   1.367014e+02
  -1.194775e+02   2.532467e+00
  -3.752972e+01  -3.864108e+01
   3.551052e+01   1.738655e+01
   3.329173e+01   8.803962e+01
  -1.036766e+02   1.012483e+02
  -1.550058e+02   1.736112e+01
  -1.598055e+02  -1.054229e+02
   8.996856e+00  -1.560925e+02
   1.618993e+02  -1.099395e+02
   1.496516e+02   1.904586e+01
   3.106149e+01   8.563204e+01
  -6.453220e+01   8.192790e+01
  -6.393454e+01   1.918454e+01
  -4.153354e+00  -2.303463e+01
   2.984316e+01  -1.090445e+01
  -4.919649e+00   1.804721e+01
  -7.850399e+01  -6.178120e+00
  -8.772150e+01  -9.288427e+01
  -4.349584e+00  -1.412515e+02
   1.330505e+02  -1.282885e+02
   2.228313e+02  -7.562626e+00
   1.430613e+02   1.436078e+02
   2.506930e+01   1.841584e+02
  -9.872849e+01   1.211924e+02
  -1.161139e+02   1.369528e+01
  -6.678492e+01  -5.309510e+01
  -2.622535e+01  -2.687179e+01
  -4.414973e+01   1.217610e+01
  -7.773051e+01   3.854708e+00
  -3.644524e+01  -5.904772e+01
   3.686599e+01  -8.894947e+01
   1.228270e+02  -4.676231e+01
   8.553998e+01   2.515988e+01
  -2.446637e+01   1.004469e+02
  -1.379404e+02   7.342910e+01
  -1.881383e+02  -6.949296e+01
  -6.460249e+01  -1.652319e+02
   1.251105e+02  -1.767382e+02
   2.445451e+02  -3.362792e+01
   2.237166e+02   9.468380e+01
   8.554323e+01   1.630241e+02
  -5.740394e+01   1.168663e+02
  -7.670781e+01   8.611157e+01
  -5.132534e+01   6.410219e+01
  -6.869612e+01   8.081562e+01
  -7.165045e+01   4.411846e+01
  -1.162447e+02  -1.933164e+01
  -9.206501e+01  -1.280886e+02
  -4.671716e+00  -1.638340e+02
   9.467630e+01  -1.512920e+02
   1.504848e+02   8.099581e-01
   1.106523e+02   1.327601e+02
   8.273566e+00   1.179909e+02
  -6.548070e+01   7.289994e+01
  -5.428894e+01  -1.451028e+01
   4.139459e+00  -4.583285e+01
   2.083634e+01  -2.613186e+01
  -2.258450e+01  -1.378634e+01
  -7.077747e+01  -1.804712e+01
  -2.810399e+01  -2.727353e+01
   6.144320e+01  -3.708696e+01
   1.320566e+02   2.110687e+01
   1.207651e+02   5.054309e+01
  -1.090472e+01   8.597736e+01
  -1.108453e+02   5.642975e+01
  -1.247968e+02   7.622025e+00
  -3.508052e+01  -3.833210e+01
   4.600881e+01  -2.150313e+01
   6.395916e+01   2.608155e+01
   1.354898e+01   5.729950e+01
  -4.768100e+01   5.572123e+01
  -5.865017e+01   3.713551e+00
  -4.698652e+01  -4.789554e+01
  -4.064052e+01  -3.738804e+01
  -4.803370e+01  -8.294423e+00
  -6.131048e+01   5.491615e-01
  -2.737618e+01  -6.208662e+01
   3.160183e+01  -1.304705e+02
   1.197188e+02  -1.303909e+02
   1.621224e+02  -2.712505e+01
   1.152028e+02   9.332284e+01
  -7.309057e+00   1.109161e+02
  -8.315319e+01   6.126741e+01
  -4.398615e+01  -1.820753e+01
   5.397192e+01  -1.223197e+01
   1.251562e+02   3.264229e+01
   5.371283e+01   9.306598e+01
  -6.481330e+01   1.072872e+02
  -1.536181e+02   2.017048e+01
  -1.313383e+02  -5.167719e+01
  -3.636417e+01  -8.205349e+01
   5.836781e+01  -4.245069e+01
   4.565754e+01  -1.499626e+00
  -3.737289e+01   2.124824e+01
  -7.817858e+01  -1.981642e+01
  -3.283956e+01  -9.987276e+01
   7.551539e+01  -1.346176e+02
   1.461912e+02  -5.169342e+01
   1.070070e+02   8.482419e+01
  -2.533141e-01   1.551410e+02
  -7.637855e+01   1.049308e+02
  -9.445300e+01  -6.751748e+00
  -2.101036e+01  -1.037462e+02
   1.700896e+01  -8.771146e+01
   4.245098e+01  -1.078139e+01
   4.084633e+01   2.760599e+01
   1.207069e+01   1.186323e+01
   6.784686e+00  -1.632756e+01
   2.129844e+01   1.829931e+01
   3.789875e+01   6.728709e+01
   2.237247e+01   1.036039e+02
  -4.149812e+01   2.718086e+01
  -1.183912e+02  -2.930763e+01
  -1.127351e+02  -6.941804e+01
  -1.373154e+01  -4.198222e+01
   6.554724e+01  -1.898217e+00
   7.738415e+01  -8.794074e+00
   1.479664e+01   8.198426e+00
  -2.918536e+01   2.098477e+01
  -1.564676e+01   1.276838e+01
   1.447021e+01   3.840160e-01
  -2.185457e+00  -7.097625e+00
  -5.657080e+01  -8.537983e+00
  -6.035781e+01  -2.773275e+01
  -9.918758e+00  -6.462669e+01
   1.275576e+02  -8.005354e+01
   1.727109e+02  -5.333339e+01
   1.063796e+02   5.253364e+01
   1.018305e+01   1.377489e+02
  -7.889331e+01   1.302504e+02
  -9.857155e+01   5.698330e+01
  -7.482343e+01  -2.509920e+01
  -1.652490e+01  -3.358673e+01
  -1.128557e+00  -1.059178e+01
  -1.028616e+01  -6.776933e+00
  -2.754406e+01  -3.875734e+01
  -1.730116e+01  -7.868760e+01
   2.745245e+01  -6.192540e+01
   7.509137e+01   1.787676e+01
   5.100162e+01   9.720681e+01
   7.866121e+00   9.756736e+01
  -7.263760e+01   2.917472e+01
  -9.058468e+01  -6.362000e+01
  -2.611119e+01  -8.936516e+01
   6.134489e+01  -3.258508e+01
   9.313660e+01   1.059232e+01
   3.534305e+01   5.244190e+01
  -2.758970e+01   5.647833e+01
  -3.227793e+01   2.769010e+01
   2.323289e+01  -5.439064e+00
   5.881972e+01  -2.458393e+00
   1.755875e+01   2.070525e+01
  -7.239671e+01   4.842504e+01
  -1.059549e+02   5.727034e+01
  -6.910024e+01  -1.444413e+01
   1.710967e+01  -7.191537e+01
   4.932801e+01  -6.620394e+01
   3.850808e+01  -3.688904e+00
  -2.835559e+00   4.200692e+01
  -1.903055e+01   3.464115e+01
  -2.799252e+01  -1.024611e+01
  -1.617754e+01  -4.382821e+01
   1.500369e+00  -3.142868e+01
   2.902168e+01   3.777582e+00
   3.457388e+01   2.300274e+01
   1.673492e+01   3.842230e-02
   1.054200e+00  -1.627266e+01
  -6.901179e+00  -5.151148e+00
  -2.732013e+00   2.630952e+01
  -5.223719e+00   4.545848e+01
  -1.942128e+01   1.713401e+01
  -3.149736e+01  -3.339677e+01
  -7.891782e+00  -4.994728e+01
   3.969926e+01  -1.551342e+01
   5.036256e+01   3.182038e+01
   1.305839e+01   5.322165e+01
  -4.442352e+01   3.059219e+01
  -8.076694e+01  -9.703696e+00
  -4.270984e+01  -4.047596e+01
   2.294674e+01  -4.289875e+01
   5.548774e+01  -1.982616e+01
   2.197109e+01  -1.613701e+00
  -3.041738e+01   4.824658e+00
  -2.654709e+01  -1.186032e+01
   2.254276e+01  -2.246014e+01
   7.035985e+01  -2.023772e+01
