
 $NMID
 id='ANONYMOUS ', fmtdat='(2E16.6)'
 volume=1.0
 tramp=1.0
 $END
  -3.261906e+03  -1.324058e+02
  -1.683939e+03  -1.908356e+03
   4.949439e+02  -2.472499e+03
   1.316834e+03  -9.582005e+02
   9.698735e+02   4.691316e+02
  -3.351992e+02   2.808543e+02
  -5.028652e+02  -3.198740e+02
   3.820183e+01  -8.622678e+02
   6.450635e+02  -5.213856e+02
   5.825514e+02   7.127415e+01
   2.954738e+02   5.484274e+02
  -1.317381e+02   6.797375e+02
  -3.233451e+02   1.056577e+02
  -2.536053e+02  -6.580855e+02
   1.853810e+02  -4.694131e+02
   4.691884e+02   5.403405e+01
   1.702116e+02   4.868917e+02
  -2.313662e+02   4.858563e+02
  -3.749816e+02   4.441970e+01
  -2.867648e+02  -2.608403e+02
  -7.409903e+01  -3.627396e+02
   1.506314e+02  -1.908280e+02
   9.257938e+01  -3.557996e+01
  -1.462512e+02  -8.589548e+00
  -3.061503e+02  -1.947960e+02
  -1.046858e+02  -3.357019e+02
   3.278349e+02  -1.721288e+02
   6.671313e+02   8.333027e+01
   2.948833e+02   3.899654e+02
  -4.132807e+02   2.441031e+02
  -6.019086e+02  -9.919324e+01
  -2.068289e+02  -3.837954e+02
   2.354953e+02  -3.144299e+02
   4.569748e+02  -1.247722e+02
   2.913148e+02   1.264130e+02
  -5.750020e+00   3.355227e+02
  -1.759065e+02   1.811694e+02
  -1.055012e+02  -1.746332e+02
   1.216925e+02  -2.749570e+02
   2.633390e+02   4.508231e+01
   1.200596e+02   5.173179e+02
  -3.224644e+02   5.036105e+02
  -4.346463e+02  -5.939509e+00
  -1.709426e+02  -4.093385e+02
   2.019402e+02  -1.551669e+02
   2.862643e+02   3.037513e+02
  -7.795022e+01   4.335125e+02
  -4.251037e+02   1.106479e+02
  -4.849213e+02  -3.985862e+02
  -1.608336e+02  -5.529381e+02
   2.945806e+02  -2.687888e+02
   4.544909e+02   6.703098e+01
   3.296299e+02   2.916485e+02
  -6.734177e+01   2.813543e+02
  -3.511834e+02   7.740848e+00
  -1.903278e+02  -1.022064e+02
   2.453293e+01  -2.384649e+01
   9.076688e+01   8.494796e+01
  -1.157736e+02   1.505182e+02
  -2.390011e+02  -2.122063e+01
  -7.023843e+01  -1.748078e+02
   1.530382e+02  -2.083183e+02
   2.590995e+02  -8.301399e+01
   1.941831e+02   9.477658e+01
  -4.279613e+01   2.316481e+02
  -2.222275e+02   2.264294e+02
  -2.853418e+02   1.492378e+02
  -2.333004e+02  -1.173490e+02
  -3.014206e+01  -3.518619e+02
   1.042840e+02  -2.864625e+02
   6.345041e+01  -1.085221e+02
   3.103780e+01  -1.856396e+01
   5.561125e+01  -7.055320e+01
   2.054876e+02  -1.028568e+02
   2.545032e+02   7.859915e+01
   9.101033e+01   2.408973e+02
  -6.004733e+01   2.392584e+02
  -2.009814e+02  -1.666940e+01
  -1.416619e+02  -2.335248e+02
   9.158951e+00  -2.163282e+02
   2.324350e+02  -9.389122e+01
   2.802014e+02   1.377461e+02
   1.262563e+02   2.689730e+02
  -1.011182e+02   2.324026e+02
  -1.783563e+02   9.401559e+01
  -1.162400e+02   2.191645e+01
  -1.047572e+02   3.763846e+01
  -1.841756e+02   2.997306e+01
  -3.517128e+02  -6.344985e+01
  -2.268254e+02  -2.718194e+02
   3.881950e+01  -4.046216e+02
   3.491499e+02  -3.929282e+02
   3.855809e+02  -8.639482e+01
   2.706641e+02   1.046009e+02
   3.748694e+01   2.429706e+02
  -1.041474e+02   1.968038e+02
  -2.908895e+01   3.000805e+01
   9.900166e+01  -6.128319e+01
   1.363222e+02   9.891745e+00
   2.099377e+01   1.668038e+02
  -1.338266e+02   1.126384e+02
  -1.343366e+02  -6.083617e+01
   4.167535e+01  -1.474950e+02
   1.380302e+02  -8.927784e+00
   1.264446e+02   2.133980e+02
  -9.261816e+00   3.491681e+02
  -2.218618e+02   1.529081e+02
  -3.092762e+02  -4.039484e+01
  -2.251174e+02  -2.649164e+02
  -5.752525e+01  -2.310070e+02
   1.207582e+02  -1.317554e+02
   1.343216e+02  -1.923773e+00
   4.495040e+01   2.485164e+01
  -6.429196e+01  -3.862933e+01
   3.454379e+00  -1.065694e+02
   1.079100e+02  -5.901010e+01
   1.452341e+02   1.874893e+01
   2.973427e+01   5.189700e+01
  -8.280414e+01   1.184183e+01
  -4.100656e+01  -8.229737e+01
   9.426218e+01  -9.378935e+01
   2.364889e+02   8.894263e+00
   2.119243e+02   1.432265e+02
   1.626397e+01   1.956527e+02
  -1.376317e+02   1.870337e+02
  -2.219338e+02   9.827177e+01
  -1.059526e+02  -4.244464e+01
   2.648977e+01  -8.903596e+01
   7.829788e+01   4.667337e-01
  -3.277857e+01   7.400630e+01
  -1.651654e+02   2.282035e+01
  -1.639365e+02  -1.041693e+02
  -6.004716e+01  -1.453290e+02
   8.136632e+01  -1.397476e+02
   1.340065e+02  -5.333374e-03
   4.416502e+01   3.476413e+01
  -3.272466e+01  -5.580139e+00
  -3.133441e+01  -7.519582e+01
   8.986174e+01  -8.407034e+01
   1.572862e+02  -2.014279e+01
   1.598494e+02   1.255048e+02
   1.860203e+01   1.641904e+02
  -1.408799e+02   1.166763e+02
  -1.590032e+02  -7.969760e+00
  -3.580610e+01  -9.013440e+01
   6.631579e+01  -8.420119e+01
   6.840594e+01  -1.815630e+01
   6.755080e+00   2.254142e+01
  -2.448424e+01   1.413970e+01
   5.121976e+00  -1.365511e+01
   6.543708e+01   7.425442e+00
   8.112918e+01   9.706633e+01
   1.587313e+01   1.296831e+02
  -1.328352e+02   1.047817e+02
  -2.156527e+02   1.777468e+01
  -1.759336e+02  -1.343738e+02
  -1.561560e+01  -1.698375e+02
   9.334215e+01  -1.335469e+02
   1.232547e+02  -2.006829e+01
   6.553358e+01   5.238214e+01
   2.459897e+01   3.032943e+01
   4.166190e+01  -1.226826e+01
   7.564553e+01  -2.103331e+00
   4.134157e+01   5.502989e+01
  -3.236740e+01   8.521857e+01
  -1.117454e+02   5.771677e+01
  -8.124675e+01  -3.336967e+01
   9.342601e+00  -9.098889e+01
   1.111467e+02  -7.422285e+01
   1.941007e+02   5.611797e+01
   3.291519e+01   1.686770e+02
  -9.896526e+01   1.809272e+02
  -2.268490e+02   3.669738e+01
  -2.322480e+02  -1.045047e+02
  -9.581953e+01  -1.534340e+02
   6.962481e+01  -1.137439e+02
   8.741175e+01  -7.571132e+01
   5.674401e+01  -5.695440e+01
   5.336251e+01  -8.096493e+01
   7.076367e+01  -5.181162e+01
   1.186915e+02   2.954740e+01
   8.361548e+01   1.287579e+02
   1.777360e+01   1.646029e+02
  -9.252504e+01   1.570897e+02
  -1.423596e+02  -8.982197e+00
  -1.150458e+02  -1.159381e+02
  -6.522894e+00  -1.154239e+02
   6.797152e+01  -6.973718e+01
   5.386280e+01   3.274373e+00
   2.249468e+00   4.435353e+01
  -1.609480e+01   2.490554e+01
   2.556943e+01   1.673646e+01
   6.609697e+01   1.746571e+01
   3.394023e+01   2.577278e+01
  -5.006088e+01   3.609782e+01
  -1.375597e+02  -2.527210e+01
  -1.232507e+02  -4.418115e+01
   9.983821e+00  -8.745018e+01
   9.713722e+01  -6.550538e+01
   1.259622e+02  -1.488757e+01
   3.508170e+01   3.426750e+01
  -4.906046e+01   2.921531e+01
  -5.763716e+01  -2.234305e+01
  -1.225736e+01  -5.973722e+01
   4.501140e+01  -5.723699e+01
   5.933648e+01  -9.329309e-01
   4.331277e+01   4.154860e+01
   3.653471e+01   3.393456e+01
   4.801431e+01   8.873256e+00
   6.181434e+01   6.041238e+00
   2.985074e+01   5.909239e+01
  -2.774449e+01   1.200222e+02
  -1.214098e+02   1.252896e+02
  -1.603599e+02   3.107675e+01
  -1.113478e+02  -7.855264e+01
   7.769921e+00  -1.111204e+02
   7.574775e+01  -7.072283e+01
   4.946065e+01   1.824378e+01
  -5.618968e+01   1.560082e+01
  -1.092693e+02  -2.719705e+01
  -6.256944e+01  -8.483891e+01
   7.543018e+01  -9.530187e+01
   1.572019e+02  -4.255790e+01
   1.331077e+02   3.802680e+01
   3.167372e+01   8.087877e+01
  -5.330155e+01   4.013129e+01
  -4.556204e+01  -3.601634e+00
   3.181640e+01  -2.394095e+01
   8.202300e+01   1.851969e+01
   2.607179e+01   9.326554e+01
  -8.742194e+01   1.284565e+02
  -1.410590e+02   4.461040e+01
  -1.018855e+02  -7.985381e+01
  -7.984729e+00  -1.486338e+02
   9.049959e+01  -1.140115e+02
   8.934978e+01   2.377489e+00
   2.945741e+01   1.042779e+02
  -1.856617e+01   8.746962e+01
  -3.699709e+01   1.265068e+01
  -4.177314e+01  -2.853806e+01
  -1.559512e+01  -8.928073e+00
  -4.856362e+00   1.708586e+01
  -1.826722e+01  -1.510237e+01
  -5.561341e+01  -5.918464e+01
  -3.080761e+01  -9.938241e+01
   3.875449e+01  -3.198691e+01
   1.174738e+02   3.001455e+01
   1.160468e+02   6.970831e+01
   1.539442e+01   4.367835e+01
  -5.915730e+01   6.387117e+00
  -8.017683e+01   8.523688e+00
  -1.382544e+01  -7.031159e+00
   3.407499e+01  -1.915538e+01
   1.561184e+01  -1.585747e+01
  -1.421709e+01   1.525887e-01
   3.689615e+00   7.976733e+00
   5.149422e+01   5.401292e+00
   5.917409e+01   2.232952e+01
   1.332386e+01   6.619053e+01
  -9.397996e+01   1.010818e+02
  -1.710537e+02   4.832467e+01
  -1.139216e+02  -5.225982e+01
  -2.835139e+00  -1.243306e+02
   7.156135e+01  -1.304101e+02
   9.997512e+01  -4.144114e+01
   7.390627e+01   2.776969e+01
   1.639228e+01   3.014161e+01
   5.115398e-01   9.101489e+00
   9.530193e+00   3.265759e+00
   2.916969e+01   3.922329e+01
   4.683407e+00   7.626746e+01
  -3.002448e+01   5.933019e+01
  -7.405595e+01  -1.365721e+01
  -6.311087e+01  -9.039334e+01
  -5.900443e+00  -1.008373e+02
   6.846415e+01  -2.932971e+01
   7.758847e+01   7.037111e+01
   2.990818e+01   9.154586e+01
  -4.657089e+01   4.147965e+01
  -9.293595e+01  -1.491711e+01
  -3.105728e+01  -5.231117e+01
   2.839576e+01  -5.749834e+01
   2.842546e+01  -2.669727e+01
  -2.651113e+01   3.348973e+00
  -5.607552e+01  -6.983315e-01
  -1.682739e+01  -2.013289e+01
   6.684777e+01  -4.878015e+01
   9.671959e+01  -4.350060e+01
   6.361836e+01   1.612789e+01
  -1.963721e+01   6.666629e+01
  -4.653572e+01   7.106261e+01
  -3.138774e+01   4.343869e+00
   1.787333e+00  -4.219559e+01
   2.286846e+01  -3.058015e+01
   2.841359e+01   7.624440e+00
   1.444956e+01   3.863297e+01
   8.017184e-02   2.941129e+01
  -2.829382e+01  -7.717258e+00
  -3.356229e+01  -2.137791e+01
  -1.713992e+01  -1.441667e+00
   9.298161e-01   1.460574e+01
   7.445357e+00   1.368713e+00
   4.532264e+00  -2.305552e+01
   4.008336e+00  -4.096448e+01
   2.337382e+01  -1.381160e+01
   3.197189e+01   3.431708e+01
   6.543117e+00   4.923134e+01
  -3.445210e+01   1.499931e+01
  -5.561754e+01  -2.703383e+01
  -1.482479e+01  -5.093193e+01
   4.703715e+01  -2.881664e+01
   8.705087e+01   1.215153e+01
   4.860000e+01   4.069085e+01
  -2.353654e+01   3.670931e+01
  -5.814951e+01   2.092691e+01
  -2.105258e+01  -2.937357e-01
   3.058031e+01  -4.369311e+00
   2.639977e+01   1.160044e+01
  -2.119880e+01   2.250593e+01
  -7.306887e+01   2.119485e+01
