
 $NMID
 id='ANONYMOUS ', fmtdat='(2E16.6)'
 volume=1.0
 tramp=1.0
 $END
   3.054842e+03  -2.919520e+02
   2.321033e+03   1.648988e+03
  -1.769262e+01   2.188567e+03
  -1.633248e+03   1.405000e+03
  -8.643783e+02  -7.809722e+01
   1.895247e+01  -3.074543e+02
   2.307985e+02   7.840980e+01
   2.590036e+01   6.715506e+02
  -5.683496e+02   7.657901e+02
  -6.550762e+02   2.357313e+02
  -4.194269e+02  -4.437692e+02
   1.224420e+02  -7.569658e+02
   2.495253e+02  -1.605929e+02
   2.661200e+02   5.233114e+02
  -1.291289e+02   6.034038e+02
  -4.303849e+02   6.470854e+01
  -2.429510e+02  -4.183267e+02
   1.447088e+02  -6.575391e+02
   5.297277e+02  -2.060705e+02
   4.426574e+02   1.152629e+02
   8.746607e+01   3.333838e+02
  -1.316325e+02   2.455982e+02
  -1.198137e+02   5.219753e+01
   1.965974e+02   4.509330e+01
   1.348060e+02   2.165720e+02
   5.631429e+01   3.417990e+02
  -3.976642e+02   1.998298e+02
  -7.026150e+02  -1.334468e+02
  -3.210052e+02  -4.427926e+02
   2.886554e+02  -2.069535e+02
   3.806210e+02   9.205018e+01
   1.559824e+02   2.628170e+02
  -2.085492e+02   3.325297e+02
  -4.687629e+02   1.498798e+02
  -3.559960e+02  -1.489160e+02
  -3.314650e+01  -3.547266e+02
   7.647462e+01  -1.654657e+02
   5.307788e+01   1.182441e+02
  -8.627531e+01   2.322550e+02
  -1.536493e+02  -1.034410e+02
  -1.576642e+02  -5.053596e+02
   2.700418e+02  -4.720283e+02
   3.460831e+02   2.051736e+01
   7.508196e+01   2.216749e+02
  -1.473332e+02   1.586324e+02
  -1.595501e+02  -2.080953e+02
   2.110281e+01  -3.061136e+02
   3.787176e+02  -4.540087e+01
   3.976961e+02   3.652340e+02
   7.295327e+01   5.173025e+02
  -2.759157e+02   2.669568e+02
  -5.054649e+02  -1.120041e+02
  -3.330642e+02  -2.486615e+02
   3.700666e+01  -1.995018e+02
   3.185683e+02  -7.796818e+01
   1.914525e+02   6.778684e+01
  -4.560219e+01   8.633173e+01
  -9.417140e+01  -5.635393e+01
   5.552645e+01  -8.418237e+01
   2.546029e+02   5.027388e+01
   1.125761e+02   2.015780e+02
  -1.408259e+02   2.505494e+02
  -3.378033e+02   9.068132e+01
  -2.160980e+02  -9.177101e+01
   2.495330e+01  -2.969057e+02
   2.604888e+02  -3.573837e+02
   2.778289e+02  -1.588098e+02
   2.929871e+02   1.781582e+02
   6.492938e+01   3.418810e+02
  -5.172672e+01   2.611907e+02
  -5.009145e+01   1.537155e+02
  -3.141397e+01   7.658377e+01
  -1.225675e+02   1.173313e+02
  -1.594225e+02   6.569659e+01
  -2.659657e+02  -8.989859e+01
  -1.288889e+02  -2.552009e+02
   4.837610e+01  -1.943384e+02
   1.786826e+02   1.237130e+01
   1.477050e+02   2.603776e+02
   1.066645e+01   2.239643e+02
  -2.949926e+02   6.881806e+01
  -2.784241e+02  -1.260683e+02
  -1.685677e+02  -3.413840e+02
   6.686658e+01  -2.871233e+02
   1.720136e+02  -1.382482e+02
   1.296726e+02  -5.111345e+01
   1.198937e+02  -5.919824e+01
   2.454489e+02  -1.270517e+01
   3.415390e+02   4.952414e+01
   2.129794e+02   2.472110e+02
  -4.257873e+01   3.841244e+02
  -3.909307e+02   4.218304e+02
  -4.198498e+02   1.399566e+02
  -2.811185e+02  -6.545434e+01
  -3.062964e+01  -2.187656e+02
   5.210050e+01  -1.726797e+02
   3.136812e+01  -1.954066e+01
  -1.028868e+02   7.423464e+01
  -1.374786e+02  -3.186345e+01
  -6.426859e+00  -1.153126e+02
   7.861114e+01  -8.064010e+01
   9.295370e+01   5.679596e+01
  -1.327346e+01   7.645708e+01
  -1.207064e+02   1.476182e+01
  -1.553027e+02  -2.055020e+02
   1.356253e+01  -3.260621e+02
   2.083396e+02  -1.922845e+02
   2.995714e+02   3.291602e+01
   2.606693e+02   2.539014e+02
   4.760817e+01   2.271645e+02
  -1.060779e+02   1.391487e+02
  -1.283062e+02   1.548056e+01
  -4.679359e+01  -1.798604e+01
   4.766338e+01   4.677100e+01
   1.574452e+00   1.089085e+02
  -1.068131e+02   7.072003e+01
  -1.438838e+02  -3.830925e+01
  -3.648614e+01  -5.706051e+01
   8.846810e+01   2.823833e+00
   3.620931e+01   7.976136e+01
  -1.290285e+02   6.769292e+01
  -2.901863e+02  -3.227780e+01
  -2.267582e+02  -1.291037e+02
  -3.797223e+01  -2.725132e+02
   1.591145e+02  -2.026337e+02
   3.367730e+02  -9.133727e+01
   1.714054e+02   3.305531e+01
  -3.259457e+01   7.623438e+01
  -6.255524e+01  -1.510955e+00
   4.220745e+01  -5.746539e+01
   1.563295e+02  -4.991543e+01
   1.772775e+02   1.022134e+02
   6.251597e+01   1.720963e+02
  -9.147200e+01   1.259665e+02
  -1.106748e+02   1.366272e+01
  -4.965430e+01  -3.276820e+01
   3.951500e+01   1.397318e+01
   3.290808e+01   9.338963e+01
  -7.608754e+01   9.825777e+01
  -1.959511e+02   3.092258e+01
  -1.667645e+02  -1.197170e+02
   2.521889e+00  -1.910143e+02
   1.379214e+02  -1.216512e+02
   1.581042e+02   3.629488e+00
   5.063604e+01   8.451139e+01
  -6.938671e+01   1.137222e+02
  -6.022296e+01   2.968936e+01
  -3.158069e+00  -1.989057e+01
   3.451526e+01  -1.646299e+01
  -1.008280e+01   2.088551e+01
  -9.358518e+01  -1.830589e-01
  -8.278880e+01  -8.329117e+01
   8.339997e+00  -1.716875e+02
   1.273576e+02  -1.395132e+02
   2.137496e+02  -1.527100e+01
   1.779561e+02   1.300671e+02
   2.867368e+01   2.015564e+02
  -7.552694e+01   1.587739e+02
  -1.029440e+02   1.664799e+01
  -6.656655e+01  -4.497499e+01
  -2.790599e+01  -2.508861e+01
  -5.640192e+01   1.356289e+01
  -8.550422e+01   6.397233e+00
  -4.809156e+01  -4.926941e+01
   3.991848e+01  -8.705122e+01
   1.153611e+02  -6.058293e+01
   1.132635e+02   3.888529e+01
  -1.451726e+01   1.238910e+02
  -1.418180e+02   8.219568e+01
  -1.985309e+02  -5.972279e+01
  -1.026569e+02  -1.988038e+02
   8.534476e+01  -1.777754e+02
   2.509422e+02  -6.696712e+01
   2.509064e+02   9.572683e+01
   9.259321e+01   1.563793e+02
  -3.484044e+01   1.349604e+02
  -8.772725e+01   6.474630e+01
  -5.311836e+01   5.799901e+01
  -5.642805e+01   8.556811e+01
  -7.973258e+01   6.217201e+01
  -1.154591e+02  -2.651176e+01
  -9.492253e+01  -1.240071e+02
  -1.979408e+01  -2.054916e+02
   8.765032e+01  -1.302330e+02
   1.358303e+02  -1.669058e+01
   1.409796e+02   1.168548e+02
   2.573638e+01   1.523127e+02
  -6.883898e+01   6.137738e+01
  -4.575873e+01  -1.049724e+01
   5.333127e+00  -4.950545e+01
   2.030747e+01  -3.146123e+01
  -2.475543e+01  -6.742055e+00
  -7.931702e+01  -2.122597e+01
  -5.743440e+01  -4.503221e+01
   6.626887e+01  -3.118681e+01
   1.738563e+02   1.180468e+01
   1.434985e+02   6.215648e+01
  -6.728779e+00   8.849273e+01
  -1.012947e+02   6.007394e+01
  -1.278143e+02   5.820897e-01
  -3.929783e+01  -4.179455e+01
   5.752253e+01  -4.368960e+01
   5.674339e+01   9.430083e+00
   1.483103e+01   6.723136e+01
  -4.247486e+01   5.007743e+01
  -5.693334e+01   1.129194e+00
  -4.970435e+01  -4.944558e+01
  -4.952574e+01  -4.191009e+01
  -4.748753e+01  -5.108915e+00
  -4.729681e+01  -3.129494e+00
  -3.522282e+01  -7.445212e+01
   3.539843e+01  -1.427454e+02
   1.186269e+02  -1.211981e+02
   1.659616e+02  -2.338755e+01
   1.189243e+02   1.153628e+02
  -1.432516e+01   1.060164e+02
  -7.451256e+01   6.493038e+01
  -5.258231e+01  -1.635955e+01
   5.329916e+01  -1.631796e+01
   1.083640e+02   2.609323e+01
   7.886454e+01   1.047553e+02
  -8.328425e+01   9.420585e+01
  -1.452159e+02   1.677612e+01
  -1.466022e+02  -1.527110e+01
  -3.445737e+01  -9.199961e+01
   5.564028e+01  -5.140302e+01
   4.179539e+01  -1.317384e+00
  -3.580633e+01   2.908295e+01
  -8.619608e+01  -2.665216e+01
  -2.311846e+01  -1.108963e+02
   8.726722e+01  -1.681216e+02
   1.410265e+02  -7.636149e+01
   1.308736e+02   8.973747e+01
  -6.661715e-01   1.456593e+02
  -7.654357e+01   1.333399e+02
  -9.451271e+01  -1.209779e+01
  -3.866462e+01  -9.510515e+01
  -6.005901e+00  -1.031063e+02
   4.039158e+01  -1.553229e+01
   3.961406e+01   2.489222e+01
   1.492113e+01   7.081722e+00
   3.184432e+00  -1.909268e+01
   2.091032e+01   1.931091e+01
   6.559292e+01   9.683240e+01
   2.984006e+01   7.828421e+01
  -5.144076e+01   4.154012e+01
  -1.409813e+02  -3.564998e+01
  -9.205840e+01  -6.165310e+01
  -1.970846e+01  -5.420894e+01
   8.185459e+01  -2.440602e+01
   9.208741e+01  -9.221293e+00
   1.700915e+01   1.151681e+01
  -3.662940e+01   2.169372e+01
  -1.446950e+01   1.107960e+01
   1.347545e+01  -4.226662e+00
  -2.455334e+00  -5.383222e+00
  -5.354735e+01   2.363053e+00
  -8.229468e+01  -2.305488e+01
  -3.086111e+01  -8.132362e+01
   5.756012e+01  -9.966131e+01
   2.022792e+02  -8.049981e+01
   1.519265e+02   5.857255e+01
   3.021519e+01   1.005474e+02
  -6.151555e+01   1.445269e+02
  -1.059640e+02   6.426390e+01
  -6.500189e+01  -1.768522e+01
  -2.440646e+01  -3.287959e+01
  -2.333245e+00  -1.095274e+01
  -8.808134e+00  -8.281388e+00
  -2.089182e+01  -3.654190e+01
  -1.558975e+01  -8.079798e+01
   2.358462e+01  -5.574404e+01
   7.205532e+01   2.110539e+01
   6.081445e+01   7.213214e+01
   1.006722e+01   1.071027e+02
  -7.019114e+01   2.780879e+01
  -8.403613e+01  -6.060940e+01
  -4.326775e+01  -8.644069e+01
   5.173015e+01  -5.389070e+01
   1.043488e+02   7.405597e+00
   4.254604e+01   5.014244e+01
  -2.881129e+01   6.249549e+01
  -3.613609e+01   2.336551e+01
   2.767823e+01  -5.349647e+00
   6.290300e+01  -2.027049e+01
   1.558523e+01   2.383935e+01
  -6.090694e+01   6.582294e+01
  -1.125264e+02   6.753268e+01
  -6.096097e+01  -1.703800e+01
   9.752145e+00  -7.579687e+01
   3.755083e+01  -8.869820e+01
   3.624996e+01  -1.002620e+01
   7.641370e+00   4.463879e+01
  -2.164402e+01   4.618132e+01
  -4.279145e+01  -1.388978e+01
  -2.465877e+01  -4.031018e+01
  -2.317748e+00  -4.326577e+01
   2.614112e+01   5.245167e+00
   3.649498e+01   2.036108e+01
   1.860874e+01   4.063757e+00
  -7.000293e-01  -1.977129e+01
  -4.529934e+00  -7.999793e+00
   5.751444e+00   3.392504e+01
   4.179201e-01   4.548287e+01
  -2.546893e+01   2.354043e+01
  -2.690952e+01  -3.228602e+01
  -1.401660e+01  -5.413283e+01
   4.249378e+01  -2.689267e+01
   6.453741e+01   2.910613e+01
   2.134279e+01   5.395833e+01
  -5.542887e+01   3.374954e+01
  -9.185416e+01  -7.044220e+00
  -5.584797e+01  -4.121660e+01
   2.772240e+01  -3.534749e+01
   6.300156e+01  -2.997543e+01
   2.752475e+01  -7.971117e+00
  -2.398375e+01   4.693516e+00
  -3.075615e+01  -8.472565e-01
   1.827100e+01  -2.501611e+01
   8.994746e+01  -2.311659e+01
