
 $NMID
 id='ANONYMOUS ', fmtdat='(2E16.6)'
 volume=1.0
 tramp=1.0
 $END
   2.420966e+03   1.362196e+02
   1.329384e+03   1.742901e+03
  -1.338199e+02   1.634880e+03
  -1.058993e+03   7.416862e+02
  -6.284852e+02  -2.807548e+02
   3.233146e+02  -1.691024e+02
   3.911639e+02   3.605348e+02
  -1.909772e+02   5.761128e+02
  -4.471928e+02   3.705473e+02
  -4.993917e+02   3.250965e+01
  -2.502564e+02  -4.523717e+02
   6.883902e+01  -5.784718e+02
   2.746647e+02  -1.265030e+02
   5.922000e+01   4.404111e+02
  -1.299574e+02   4.711610e+02
  -2.609885e+02  -1.353385e+01
  -1.676401e+02  -4.043253e+02
   2.011528e+02  -4.334896e+02
   2.932455e+02  -5.565644e+01
   2.593022e+02   1.907079e+02
   7.211310e+01   3.172513e+02
  -1.136487e+02   1.926275e+02
  -1.115919e+02   5.385880e+01
   1.138625e+02   1.155397e+01
   1.971337e+02   1.742693e+02
   7.211985e+01   2.994326e+02
  -3.519058e+02   2.057140e+02
  -4.844914e+02  -1.640238e+02
  -2.121260e+02  -3.391981e+02
   2.534869e+02  -2.750269e+02
   4.111527e+02   8.002793e+01
   1.707230e+02   2.565844e+02
  -2.352757e+02   3.293299e+02
  -3.812712e+02   1.453262e+02
  -2.539107e+02  -1.680256e+02
  -9.774171e+00  -2.667128e+02
   1.023971e+02  -1.088925e+02
   1.055973e+02   1.005475e+02
  -1.013334e+02   2.108165e+02
  -2.599144e+02  -8.617301e+01
  -8.996061e+01  -4.450188e+02
   2.318154e+02  -3.737143e+02
   2.959784e+02  -2.321984e+01
   5.464878e+01   3.211756e+02
  -1.736888e+02   1.370306e+02
  -1.995247e+02  -2.218898e+02
   7.657435e+01  -2.661743e+02
   2.742102e+02  -1.149345e+02
   3.708260e+02   2.968652e+02
   4.203226e+01   3.773826e+02
  -2.827873e+02   2.242105e+02
  -3.596948e+02  -4.860370e+01
  -2.001513e+02  -2.615093e+02
   8.881126e+01  -2.126329e+02
   2.684103e+02  -1.848160e+01
   1.756760e+02   7.562513e+01
  -2.229049e+01   3.146644e+01
  -7.722225e+01  -5.428608e+01
   1.425782e+02  -9.571782e+01
   1.838736e+02   3.884823e+01
   9.255840e+01   1.401319e+02
  -1.176324e+02   1.720810e+02
  -2.235557e+02   7.336767e+01
  -1.724781e+02  -8.196399e+01
   1.066031e+00  -1.847417e+02
   1.659325e+02  -2.117279e+02
   2.502775e+02  -1.192214e+02
   2.027069e+02   1.173610e+02
   8.757660e+00   2.913008e+02
  -7.026097e+01   1.894550e+02
  -4.564709e+01   1.137277e+02
  -2.493269e+01   2.532620e+01
  -7.333812e+01   5.747692e+01
  -1.826738e+02   5.509349e+01
  -1.912874e+02  -8.189413e+01
  -4.256073e+01  -1.877535e+02
   9.056263e+01  -1.532060e+02
   1.335627e+02  -1.034685e+00
   1.181820e+02   1.802737e+02
   2.189880e+00   1.396251e+02
  -1.926181e+02   6.456484e+01
  -2.102867e+02  -1.232387e+02
  -1.515211e+02  -2.411545e+02
   5.816862e+01  -1.783226e+02
   1.518050e+02  -6.868666e+01
   9.533255e+01  -1.983441e+01
   8.409823e+01  -4.143588e+01
   1.474881e+02  -8.767465e+00
   2.944551e+02   9.822694e+01
   1.950483e+02   1.864478e+02
  -4.117762e+01   2.643658e+02
  -1.798686e+02   3.241835e+02
  -3.372853e+02   6.682511e+01
  -1.854855e+02  -1.083328e+02
  -2.295698e+01  -2.344145e+02
   7.769004e+01  -1.486661e+02
   3.356130e+01  -1.920078e+01
  -8.841897e+01   5.035593e+01
  -9.863666e+01  -2.317012e+01
  -1.012854e+01  -1.297356e+02
   9.253074e+01  -9.147938e+01
   1.092363e+02   3.028520e+01
  -3.364805e+01   1.202891e+02
  -1.211185e+02   1.953746e+01
  -1.150407e+02  -1.897952e+02
   4.999724e+01  -2.370488e+02
   1.569646e+02  -1.258060e+02
   2.540150e+02   5.309855e+01
   2.218258e+02   1.608695e+02
   5.481348e+01   1.772800e+02
  -6.744772e+01   8.987384e+01
  -1.115227e+02   5.045589e+00
  -3.998255e+01  -2.330429e+01
   4.094684e+01   4.215806e+01
  -1.030813e+01   9.450590e+01
  -9.124601e+01   4.694974e+01
  -1.154702e+02  -1.629378e+00
  -3.862188e+01  -3.315781e+01
   5.908010e+01   9.063372e+00
   2.209017e+01   5.181618e+01
  -8.784314e+01   6.304681e+01
  -2.120742e+02  -2.684419e+01
  -2.367240e+02  -1.332693e+02
  -3.212852e+01  -1.768451e+02
   1.495062e+02  -1.307628e+02
   1.905187e+02  -7.261461e+01
   1.149614e+02   5.392966e+01
  -2.559732e+01   6.684889e+01
  -5.774388e+01  -1.018711e+01
   3.463924e+01  -6.510026e+01
   1.316296e+02  -2.644835e+01
   1.550084e+02   7.642126e+01
   4.077081e+01   1.529585e+02
  -8.627592e+01   1.065396e+02
  -9.978991e+01   2.233860e+01
  -3.746286e+01  -2.351270e+01
   2.478135e+01   4.243447e+00
   3.124614e+01   6.951599e+01
  -4.929791e+01   5.154244e+01
  -1.559754e+02  -4.408282e+00
  -1.034601e+02  -1.061451e+02
  -2.863421e+00  -1.295350e+02
   1.127066e+02  -1.015895e+02
   1.383577e+02   7.821039e+00
   3.694157e+01   6.949564e+01
  -3.736490e+01   7.210986e+01
  -3.930208e+01   5.514746e+00
  -5.673383e+00  -1.912279e+01
   1.927338e+01  -8.704148e+00
  -1.100455e+01   1.175842e+01
  -5.358710e+01  -6.368626e+00
  -5.490102e+01  -4.721424e+01
  -1.531883e+01  -1.370895e+02
   1.107978e+02  -9.037247e+01
   1.600651e+02  -1.110261e+01
   1.355414e+02   1.118664e+02
   2.362472e+01   1.296055e+02
  -6.923443e+01   9.027728e+01
  -8.482452e+01   2.387927e+01
  -4.806861e+01  -3.896614e+01
  -1.620260e+01  -1.932420e+01
  -3.284035e+01   1.297437e+01
  -6.312423e+01   4.235358e+00
  -2.366559e+01  -2.927985e+01
   3.376870e+01  -7.282262e+01
   8.408414e+01  -3.526826e+01
   7.319449e+01   1.926803e+01
  -1.526363e+01   7.037561e+01
  -9.412476e+01   5.594727e+01
  -1.346329e+02  -4.392853e+01
  -3.859532e+01  -1.393378e+02
   9.099678e+01  -1.027389e+02
   1.460028e+02  -2.684765e+01
   1.739016e+02   7.567503e+01
   3.878065e+01   1.160702e+02
  -3.602273e+01   8.625124e+01
  -7.095440e+01   6.068019e+01
  -5.555151e+01   4.804067e+01
  -5.726858e+01   6.287147e+01
  -5.686131e+01   3.968130e+01
  -9.056525e+01  -2.536517e+01
  -6.919937e+01  -1.049573e+02
  -5.099301e+00  -1.537796e+02
   6.994433e+01  -1.246658e+02
   1.159801e+02   1.687990e+01
   8.077125e+01   9.541253e+01
   1.768716e+01   1.026584e+02
  -4.531639e+01   6.395914e+01
  -4.279783e+01  -9.642421e+00
   1.320536e-01  -4.034347e+01
   1.061120e+01  -2.458089e+01
  -1.797230e+01  -1.173548e+01
  -5.081935e+01  -1.468818e+01
  -3.401026e+01  -2.733637e+01
   4.801330e+01  -2.485814e+01
   1.073207e+02  -6.257202e+00
   1.045867e+02   5.405459e+01
   3.026454e+00   5.654391e+01
  -7.981398e+01   3.990633e+01
  -1.148554e+02  -5.301262e+00
  -3.981840e+01  -3.297171e+01
   4.095990e+01  -2.279899e+01
   5.183024e+01   2.019747e+01
   4.324816e+00   5.098051e+01
  -4.208270e+01   4.505358e+01
  -4.573962e+01  -5.937464e+00
  -3.895908e+01  -4.254413e+01
  -2.428524e+01  -3.292557e+01
  -4.435718e+01  -8.618691e+00
  -4.934903e+01  -2.121381e+00
  -2.715201e+01  -4.868868e+01
   1.885383e+01  -1.045369e+02
   7.754543e+01  -8.543478e+01
   1.354000e+02  -2.179643e+01
   1.032756e+02   6.433259e+01
   3.401051e+00   9.907165e+01
  -5.510065e+01   5.443078e+01
  -3.749976e+01  -8.068263e+00
   3.479367e+01  -7.525255e+00
   9.644489e+01   3.008550e+01
   5.248803e+01   7.366832e+01
  -7.148560e+01   8.239237e+01
  -1.102716e+02   1.667857e+01
  -9.140781e+01  -3.848708e+01
  -2.517230e+01  -6.667425e+01
   3.500820e+01  -3.461437e+01
   2.968461e+01   8.350760e-01
  -3.367825e+01   2.029131e+01
  -6.821716e+01  -1.600444e+01
  -2.545074e+01  -8.122594e+01
   3.282647e+01  -1.342453e+02
   9.864369e+01  -4.087196e+01
   8.324762e+01   8.215623e+01
   9.154723e+00   1.294588e+02
  -6.643829e+01   7.924637e+01
  -7.461247e+01  -7.928080e+00
  -2.215172e+01  -7.952415e+01
   6.688141e+00  -6.426609e+01
   3.503319e+01  -1.457526e+01
   3.653995e+01   1.958322e+01
   1.135659e+01   8.158833e+00
   3.406737e+00  -1.452636e+01
   1.292521e+01   1.119673e+01
   3.929755e+01   7.270603e+01
   2.311024e+01   8.359362e+01
  -3.990163e+01   3.773131e+01
  -1.053369e+02  -1.909427e+01
  -8.930311e+01  -4.589301e+01
  -1.359917e+01  -2.829010e+01
   5.710726e+01  -1.597387e+01
   6.418428e+01  -1.250085e+01
   9.232134e+00   8.023060e+00
  -2.678562e+01   1.462412e+01
  -1.068517e+01   1.228469e+01
   9.695614e+00  -4.603178e-01
  -1.476644e+00  -5.917266e+00
  -3.796547e+01  -4.223498e+00
  -5.688124e+01  -1.526985e+01
  -5.295989e+00  -5.791232e+01
   7.512031e+01  -7.013176e+01
   1.570055e+02  -4.533961e+01
   9.776567e+01   3.539972e+01
  -8.137323e-01   1.049582e+02
  -7.165542e+01   8.996225e+01
  -8.402182e+01   3.859874e+01
  -5.620563e+01  -1.393842e+01
  -1.830179e+01  -2.744250e+01
   1.343002e-01  -8.104881e+00
  -6.622298e+00  -4.514090e+00
  -2.045863e+01  -3.979472e+01
  -1.459175e+01  -6.455041e+01
   1.959856e+01  -5.158366e+01
   6.344604e+01   1.258519e+01
   5.096578e+01   6.811543e+01
   1.754073e+01   7.816673e+01
  -6.684961e+01   2.551991e+01
  -6.731826e+01  -5.728938e+01
  -1.951617e+01  -7.095214e+01
   4.381030e+01  -2.297431e+01
   7.252065e+01   1.389635e+01
   2.970326e+01   3.653244e+01
  -2.669795e+01   3.986622e+01
  -2.570269e+01   2.282990e+01
   2.302532e+01  -8.311142e-01
   4.172584e+01  -3.883519e+00
   1.181765e+01   1.641571e+01
  -4.659075e+01   3.572587e+01
  -8.987401e+01   4.744040e+01
  -5.440839e+01  -1.561464e+01
   6.963621e+00  -5.094830e+01
   2.979747e+01  -4.454822e+01
   2.795555e+01  -1.113936e+01
  -9.302073e-01   3.063367e+01
  -2.069127e+01   3.232946e+01
  -2.654703e+01  -9.519933e+00
  -1.297961e+01  -2.897447e+01
   1.947013e+00  -2.161580e+01
   2.243383e+01   7.890282e+00
   3.057626e+01   1.425866e+01
   1.320437e+01   2.322646e+00
  -1.329539e+00  -1.049188e+01
  -5.859224e+00  -1.265783e+00
  -1.169041e+00   2.217548e+01
  -6.839517e+00   3.203586e+01
  -1.928724e+01   1.063923e+01
  -2.608530e+01  -2.532426e+01
  -6.646354e+00  -4.489028e+01
   3.301871e+01  -1.317747e+01
   4.445972e+01   3.189733e+01
   1.432016e+01   4.953615e+01
  -3.595234e+01   2.986430e+01
  -7.112844e+01  -1.210359e+01
  -3.103839e+01  -3.152136e+01
   2.147764e+01  -3.008296e+01
   4.331309e+01  -1.090882e+01
   1.759071e+01  -3.585976e+00
  -2.176388e+01   4.476917e+00
  -1.930397e+01  -8.201144e+00
   2.168000e+01  -2.107150e+01
   5.481363e+01  -1.743680e+01
