
 $NMID
 id='ANONYMOUS ', fmtdat='(2E16.6)'
 volume=1.0
 tramp=1.0
 $END
  -3.611205e+03   1.729932e+02
  -2.401471e+03  -1.955145e+03
   7.697948e+02  -1.846135e+03
   1.623357e+03  -1.138793e+03
   7.153065e+02   1.722981e+02
   1.205376e+02   2.315119e+02
  -4.026431e+02  -7.737162e+01
   4.582398e+01  -6.145937e+02
   6.963861e+02  -7.300185e+02
   7.701982e+02  -6.377895e+01
   4.721196e+02   5.529332e+02
  -2.438619e+02   6.528064e+02
  -3.337802e+02   1.997497e+02
  -2.414765e+02  -5.751158e+02
   1.127287e+02  -5.706037e+02
   4.065565e+02   2.130244e+01
   2.687809e+02   5.232590e+02
  -2.857783e+02   5.974082e+02
  -4.548686e+02   1.959558e+02
  -4.418796e+02  -1.645990e+02
  -6.623175e+01  -3.543880e+02
   1.394435e+02  -2.468262e+02
   8.582431e+01  -8.262213e+01
  -1.480138e+02  -4.109268e+01
  -2.529540e+02  -1.689236e+02
  -2.570718e+01  -4.504404e+02
   4.934976e+02  -9.052374e+01
   7.675364e+02   2.784583e+02
   1.697044e+02   4.674732e+02
  -3.227333e+02   1.999127e+02
  -4.930369e+02  -5.272812e+00
  -1.862784e+02  -3.117683e+02
   3.011782e+02  -4.490950e+02
   4.955345e+02  -2.105418e+02
   3.545614e+02   1.710535e+02
   8.420823e+01   3.979451e+02
  -4.212258e+01   1.755641e+02
   1.866330e+01  -1.294291e+02
   1.823420e+02  -2.659943e+02
   2.189318e+02   1.642187e+02
   1.064091e+02   6.390122e+02
  -3.166259e+02   4.455604e+02
  -4.145796e+02   5.961545e+01
  -2.506696e+02  -3.797943e+02
   1.520313e+02  -1.670673e+02
   2.135789e+02   2.755976e+02
   1.242456e+01   4.254116e+02
  -3.868831e+02   8.572877e+01
  -5.572130e+02  -2.937848e+02
  -1.481612e+02  -4.339356e+02
   3.094402e+02  -2.975371e+02
   5.000196e+02   1.039464e+02
   3.416655e+02   3.245410e+02
  -4.902616e+01   2.372873e+02
  -3.435485e+02   7.210482e+01
  -2.430871e+02   1.365919e+01
   7.943292e+00  -2.383553e+01
   5.899761e+01   6.189561e+01
  -1.611773e+02   1.012450e+02
  -2.640551e+02  -9.128077e+01
  -1.394033e+02  -2.252951e+02
   1.632064e+02  -2.907412e+02
   3.713621e+02  -1.229581e+02
   2.530154e+02   7.856820e+01
  -2.197187e+01   3.096740e+02
  -2.639018e+02   3.475416e+02
  -2.841252e+02   1.863275e+02
  -2.583963e+02  -1.853801e+02
  -3.841922e+01  -3.656618e+02
   6.713003e+01  -3.646625e+02
   4.470039e+01  -1.378824e+02
   3.832337e+01  -8.794012e+01
   1.016374e+02  -1.061413e+02
   2.593658e+02  -1.040899e+02
   2.789264e+02   1.314338e+02
   1.090802e+02   2.515921e+02
  -7.076641e+01   2.171819e+02
  -1.884274e+02  -5.099996e+01
  -1.291714e+02  -2.863114e+02
   6.192167e+01  -2.077199e+02
   3.042539e+02  -6.606206e+01
   3.692416e+02   1.499345e+02
   1.298960e+02   3.139735e+02
  -8.481892e+01   2.652211e+02
  -1.847647e+02   1.705199e+02
  -1.268004e+02   8.079500e+01
  -1.563173e+02   8.675246e+01
  -2.452013e+02   4.793658e+01
  -4.314109e+02  -1.218186e+02
  -2.851398e+02  -2.652112e+02
  -3.735130e+00  -4.223270e+02
   4.384691e+02  -4.088138e+02
   4.625100e+02  -2.411558e+02
   2.973802e+02   1.219419e+02
   1.867340e+01   2.742922e+02
  -9.025906e+01   2.246168e+02
  -2.954798e+00   2.773041e+01
   1.206489e+02  -4.198774e+01
   1.676391e+02   5.119266e+01
   1.107821e+01   1.613074e+02
  -1.209152e+02   1.140468e+02
  -1.070789e+02  -5.130611e+01
   9.099298e+00  -1.518024e+02
   1.564030e+02  -6.386624e+00
   1.082714e+02   2.448618e+02
  -2.631581e+01   3.004826e+02
  -2.591273e+02   2.234623e+02
  -3.394096e+02  -3.020858e+01
  -2.694347e+02  -2.680999e+02
  -6.443392e+01  -2.297487e+02
   1.272357e+02  -1.137419e+02
   1.538597e+02  -2.392539e+01
   3.741110e+01   1.720525e+01
  -6.402318e+01  -5.228270e+01
  -3.068225e+00  -1.224934e+02
   1.179287e+02  -8.114008e+01
   1.489238e+02   4.017876e+01
   3.835969e+01   6.518592e+01
  -9.079198e+01  -5.675336e+00
  -4.614509e+01  -9.721894e+01
   1.534507e+02  -5.047672e+01
   3.041386e+02  -1.075353e+01
   2.634832e+02   2.172279e+02
   1.949515e+01   2.654633e+02
  -1.934761e+02   2.766127e+02
  -2.668614e+02   1.126745e+02
  -1.590387e+02  -5.539120e+01
   2.729100e+01  -7.912437e+01
   6.433735e+01   1.609119e+01
  -4.319401e+01   8.407772e+01
  -1.854825e+02   4.905282e+01
  -2.138265e+02  -1.214663e+02
  -7.389963e+01  -2.135039e+02
   9.764477e+01  -1.492685e+02
   1.374327e+02  -1.111270e+01
   5.325808e+01   3.514175e+01
  -3.608450e+01  -2.070525e+01
  -4.003921e+01  -1.119708e+02
   1.046294e+02  -1.069695e+02
   2.168952e+02  -2.552505e+01
   2.051380e+02   1.195159e+02
   4.931154e+01   2.139381e+02
  -1.392184e+02   1.289010e+02
  -2.068240e+02   1.009543e+00
  -4.847545e+01  -1.006067e+02
   5.506065e+01  -7.822918e+01
   6.749374e+01  -2.285703e+01
   6.384519e+00   2.251580e+01
  -3.259200e+01   1.317737e+01
   1.054027e+01  -2.624063e+01
   8.527471e+01   2.837647e+00
   9.067666e+01   1.001635e+02
   1.131209e+01   1.528506e+02
  -1.253135e+02   1.621367e+02
  -2.170540e+02   3.072657e+01
  -2.074303e+02  -1.361912e+02
  -2.712781e+01  -2.414720e+02
   9.035496e+01  -1.375697e+02
   1.173026e+02  -2.524082e+01
   8.260341e+01   3.125742e+01
   2.859784e+01   3.131676e+01
   5.993964e+01  -1.372113e+01
   9.606525e+01   6.202375e+00
   5.188405e+01   4.597651e+01
  -2.980808e+01   1.107632e+02
  -1.107512e+02   7.401084e+01
  -9.522993e+01  -5.402145e+01
   1.078958e+01  -1.173628e+02
   1.724160e+02  -1.182306e+02
   2.147812e+02   8.207922e+01
   6.821242e+01   2.117806e+02
  -1.243480e+02   2.050340e+02
  -2.460406e+02   8.591331e+01
  -2.419862e+02  -7.959302e+01
  -9.007955e+01  -1.789862e+02
   3.444757e+01  -1.227718e+02
   9.578801e+01  -7.172381e+01
   7.799820e+01  -7.257157e+01
   7.453096e+01  -1.008234e+02
   9.408167e+01  -7.412249e+01
   1.423815e+02   2.444573e+01
   1.296933e+02   1.226933e+02
   2.536319e+01   2.271730e+02
  -7.671590e+01   1.869509e+02
  -1.592330e+02   1.331809e+01
  -1.330693e+02  -1.159573e+02
  -9.934299e+00  -1.593277e+02
   6.332865e+01  -6.984510e+01
   6.395507e+01   2.881254e+00
  -5.251056e-02   5.419781e+01
  -2.051580e+01   3.761813e+01
   2.877433e+01   1.080915e+01
   7.833580e+01   1.520900e+01
   4.434750e+01   4.428691e+01
  -6.948211e+01   3.055128e+01
  -1.776209e+02  -1.003768e+01
  -1.564110e+02  -5.751261e+01
   1.151427e+01  -1.029853e+02
   1.070446e+02  -8.086804e+01
   1.487913e+02  -5.892711e+00
   5.047219e+01   5.579292e+01
  -5.148384e+01   4.395037e+01
  -8.671848e+01  -3.764599e+00
  -9.987379e+00  -6.548536e+01
   4.837857e+01  -6.433722e+01
   5.711367e+01  -1.231082e+00
   6.524719e+01   5.593750e+01
   5.732149e+01   4.321934e+01
   5.729169e+01  -7.367661e-01
   5.971333e+01   3.085121e+00
   4.268177e+01   6.756148e+01
  -3.245825e+01   1.506383e+02
  -1.219627e+02   1.286679e+02
  -1.891454e+02   2.920283e+01
  -1.142973e+02  -1.186503e+02
  -1.176765e+01  -1.327291e+02
   8.379026e+01  -5.871073e+01
   6.014205e+01   1.081574e+01
  -5.682866e+01   2.686908e+01
  -1.309345e+02  -2.432332e+01
  -6.043576e+01  -1.142244e+02
   9.384063e+01  -9.318405e+01
   1.626675e+02  -6.221730e+01
   1.620327e+02   2.148774e+01
   3.539516e+01   9.124788e+01
  -6.418735e+01   5.898945e+01
  -4.641520e+01  -2.163277e+00
   3.826598e+01  -3.164919e+01
   7.654844e+01   1.017331e+01
   3.655268e+01   1.258613e+02
  -9.231625e+01   1.355180e+02
  -1.463276e+02   5.224364e+01
  -1.141347e+02  -8.368805e+01
  -1.427841e+01  -1.642757e+02
   8.813312e+01  -1.299529e+02
   9.761491e+01   7.281159e+00
   5.151139e+01   1.149713e+02
  -2.063652e+01   1.064597e+02
  -5.293636e+01   1.226543e+01
  -3.895003e+01  -2.862399e+01
  -1.684807e+01  -6.647115e+00
  -5.517757e+00   2.056388e+01
  -2.895447e+01  -1.930880e+01
  -6.150749e+01  -8.964634e+01
  -5.324858e+01  -9.795543e+01
   5.439644e+01  -4.202151e+01
   1.272863e+02   3.354312e+01
   1.159253e+02   6.646483e+01
   1.123137e+01   5.263454e+01
  -7.750905e+01   2.886980e+01
  -8.435665e+01  -3.438852e+00
  -1.576215e+01  -1.185739e+01
   3.411603e+01  -1.168424e+01
   1.890453e+01  -1.331100e+01
  -1.435735e+01   3.888182e+00
   2.496816e+00   5.633891e+00
   6.337220e+01  -1.953428e+00
   8.816856e+01   1.908154e+01
   3.181920e+01   8.074481e+01
  -1.117363e+02   1.320911e+02
  -2.020976e+02   6.031373e+01
  -1.364341e+02  -4.917110e+01
  -4.140631e+01  -1.514057e+02
   5.806205e+01  -1.438409e+02
   1.236328e+02  -5.391145e+01
   7.503370e+01   1.692812e+01
   2.625140e+01   3.231926e+01
   2.173754e+00   1.079786e+01
   1.356897e+01   5.710452e+00
   3.716366e+01   3.754836e+01
   1.102417e+01   1.010009e+02
  -2.712653e+01   5.981060e+01
  -7.415281e+01  -4.296035e-01
  -7.729751e+01  -9.972207e+01
  -2.213417e+01  -1.049755e+02
   7.301347e+01  -2.857573e+01
   1.063889e+02   6.188404e+01
   3.649392e+01   9.186207e+01
  -4.944809e+01   6.565762e+01
  -9.916470e+01  -8.085791e+00
  -5.145739e+01  -6.319207e+01
   3.727664e+01  -5.582908e+01
   4.610947e+01  -2.695335e+01
  -2.758544e+01   4.987287e+00
  -7.750284e+01   4.551915e+00
  -1.554065e+01  -2.539257e+01
   7.105535e+01  -6.990001e+01
   1.274429e+02  -5.565831e+01
   6.976177e+01   9.735930e+00
  -1.536619e+01   8.453093e+01
  -7.159656e+01   7.598651e+01
  -3.957446e+01   8.336047e+00
  -8.692907e+00  -4.446821e+01
   3.264557e+01  -5.216609e+01
   3.472604e+01   1.282499e+01
   3.121487e+01   4.566762e+01
   3.708157e-01   3.908900e+01
  -3.225329e+01   1.322579e+00
  -4.096733e+01  -3.212343e+01
  -2.123698e+01  -6.365975e+00
   6.089907e+00   1.835410e+01
   6.223388e+00   7.690067e+00
   1.411553e+00  -3.459013e+01
   5.795964e-01  -4.500917e+01
   2.872154e+01  -2.206979e+01
   3.305514e+01   3.236150e+01
   2.225129e+00   5.495218e+01
  -3.972906e+01   2.549793e+01
  -6.372161e+01  -3.394411e+01
  -1.506629e+01  -6.933446e+01
   5.494270e+01  -3.005490e+01
   9.411003e+01   1.894077e+01
   5.629634e+01   4.086810e+01
  -2.370068e+01   4.100612e+01
  -5.774964e+01   2.981621e+01
  -2.579130e+01   9.693945e+00
   2.865571e+01   7.513466e-01
   3.267789e+01   1.612965e+00
  -2.108580e+01   2.399938e+01
  -7.691253e+01   1.049634e+01
