
 $NMID
 id='ANONYMOUS ', fmtdat='(2E16.6)'
 volume=1.0
 tramp=1.0
 $END
  -3.505549e+03  -3.251412e+02
  -2.222570e+03  -9.646482e+02
   3.901820e+02  -1.785232e+03
   1.143706e+03  -9.716997e+02
   9.361624e+02  -3.471614e+02
   9.072528e+01   3.767624e+01
  -1.775450e+02  -1.730463e+02
  -7.527789e+01  -4.704343e+02
   4.600197e+02  -5.533168e+02
   6.026027e+02  -1.945659e+01
   3.594947e+02   4.435908e+02
   2.393915e+01   6.912253e+02
  -2.768287e+02   1.970859e+02
  -2.297360e+02  -2.857272e+02
   1.000934e+02  -6.151724e+02
   2.971523e+02  -1.027496e+02
   2.329568e+02   4.088270e+02
  -1.108602e+02   5.553527e+02
  -4.533545e+02   3.029676e+02
  -4.680075e+02  -1.883980e+02
  -1.477141e+02  -3.881669e+02
   1.193921e+02  -2.832605e+02
   1.033211e+02  -7.540372e+01
  -1.910465e+02  -4.803381e+01
  -2.511104e+02  -2.201251e+02
  -2.350620e+01  -3.827450e+02
   4.458816e+02  -1.762513e+02
   5.770029e+02   2.208331e+02
   1.876658e+02   3.955104e+02
  -2.108205e+02   1.517281e+02
  -4.193960e+02  -3.136604e+01
  -1.464998e+02  -3.296751e+02
   3.133661e+02  -4.270727e+02
   3.719604e+02  -1.408450e+02
   3.108670e+02   1.823034e+02
   1.225067e+02   3.119220e+02
  -1.279828e+01   1.583096e+02
   2.657531e+01  -8.612055e+01
   2.454005e+02  -1.045377e+02
   1.911785e+02   1.443121e+02
  -1.708618e+01   5.598486e+02
  -2.333286e+02   3.130121e+02
  -2.907241e+02   6.855576e+01
  -2.000173e+02  -2.920898e+02
   1.272099e+02  -1.355413e+02
   1.598511e+02   1.627882e+02
  -1.409504e+02   3.843290e+02
  -3.951728e+02   4.592241e+01
  -4.550402e+02  -3.159895e+02
  -1.944636e+02  -4.144710e+02
   3.609832e+02  -2.531665e+02
   4.342528e+02   3.048239e+01
   3.044405e+02   3.278243e+02
  -1.210407e+01   1.606838e+02
  -2.279689e+02   5.376438e+01
  -2.436244e+02   6.811524e+00
  -2.176053e+01  -3.397436e+01
   4.539111e+01   4.207147e+01
  -1.345963e+02   1.598885e+01
  -2.118681e+02  -7.764706e+01
  -1.511686e+02  -1.725154e+02
   1.620337e+02  -2.602438e+02
   3.243708e+02  -1.422023e+02
   2.498593e+02   1.044951e+02
  -3.136089e+01   2.961088e+02
  -2.388616e+02   3.759626e+02
  -3.218270e+02   1.735583e+02
  -2.250410e+02  -1.072504e+02
  -2.256215e+01  -3.096748e+02
   2.678176e+01  -3.063764e+02
  -2.150638e-01  -1.515287e+02
   8.557951e+00  -9.674321e+01
   1.398542e+02  -9.570549e+01
   2.545253e+02  -7.175006e+01
   2.353266e+02   1.271416e+02
   8.699356e+01   2.709081e+02
  -9.737343e+01   1.757453e+02
  -1.590045e+02  -5.671690e+01
  -1.298803e+02  -2.433235e+02
   4.563385e+01  -1.968048e+02
   2.372687e+02  -7.982413e+01
   2.610433e+02   1.289651e+02
   1.370658e+02   3.031537e+02
  -5.992797e+01   2.743298e+02
  -1.856025e+02   1.557391e+02
  -1.532285e+02   8.390665e+01
  -1.307641e+02   8.069627e+01
  -2.604229e+02   5.917125e+01
  -4.544561e+02  -1.231290e+02
  -2.899260e+02  -2.560133e+02
  -8.873921e+00  -4.240909e+02
   3.294203e+02  -3.889477e+02
   4.633935e+02  -2.612709e+02
   2.326324e+02   5.785057e+01
  -4.527678e+00   2.480804e+02
  -1.005390e+02   1.662006e+02
  -1.653842e+01   4.554993e+01
   1.204298e+02  -3.016051e+01
   1.354589e+02   3.394591e+01
  -9.759855e+00   1.122955e+02
  -1.240690e+02   8.747856e+01
  -1.021248e+02  -5.196854e+01
   3.054388e+01  -1.378804e+02
   1.518798e+02  -1.287946e+00
   1.423867e+02   2.286052e+02
  -2.176268e+01   2.986050e+02
  -2.227894e+02   1.650332e+02
  -2.983326e+02  -8.104388e+00
  -2.215019e+02  -2.085822e+02
  -3.941354e+01  -2.492609e+02
   1.127594e+02  -1.016730e+02
   1.509738e+02  -2.363510e+01
   3.694385e+01   1.489278e+01
  -5.264091e+01  -7.223996e+01
   4.290904e+00  -1.044794e+02
   1.023937e+02  -7.764387e+01
   1.237364e+02   2.700831e+01
   3.543540e+01   4.956569e+01
  -7.719004e+01  -6.779130e+00
  -3.530411e+01  -8.803403e+01
   1.392325e+02  -9.254910e+01
   2.606260e+02  -5.398437e+00
   2.256135e+02   1.770192e+02
   2.297780e+01   2.798453e+02
  -2.005537e+02   2.302582e+02
  -2.196529e+02   1.244216e+02
  -1.334280e+02  -7.499167e+01
   2.272974e+01  -5.774109e+01
   6.118604e+01   5.681984e+00
  -4.200846e+01   8.659925e+01
  -1.763371e+02   3.245065e+01
  -1.732573e+02  -8.235182e+01
  -6.106923e+01  -1.868525e+02
   1.062280e+02  -1.219440e+02
   9.536091e+01  -1.827946e+00
   4.018441e+01   2.697438e+01
  -4.046925e+01  -2.540709e+01
  -3.350526e+01  -1.080299e+02
   9.522923e+01  -1.097959e+02
   2.201529e+02   8.156661e-01
   1.710373e+02   1.246714e+02
   3.409817e+01   2.175223e+02
  -1.181311e+02   1.336563e+02
  -1.736535e+02   1.338394e+01
  -4.981079e+01  -8.498211e+01
   5.992936e+01  -8.401443e+01
   5.919754e+01  -1.794270e+01
   2.052733e+00   2.658162e+01
  -3.656692e+01   9.994353e+00
   6.755401e+00  -2.626811e+01
   8.532213e+01  -8.141763e+00
   9.849568e+01   7.931733e+01
   2.790751e+01   1.610182e+02
  -1.172800e+02   1.430444e+02
  -2.269970e+02  -3.527110e+00
  -1.973099e+02  -1.118224e+02
  -2.137642e+01  -2.316297e+02
   8.330737e+01  -1.301163e+02
   1.206382e+02  -2.343844e+01
   6.790908e+01   2.358983e+01
   2.878498e+01   2.139381e+01
   5.559044e+01  -1.552048e+01
   8.223500e+01  -9.114926e+00
   5.315075e+01   4.972373e+01
  -2.980704e+01   1.076263e+02
  -1.066448e+02   5.919476e+01
  -1.042719e+02  -3.950724e+01
   1.831898e+01  -1.275687e+02
   1.551625e+02  -9.349565e+01
   1.992202e+02   5.663111e+01
   9.273820e+01   1.925296e+02
  -1.071302e+02   2.159548e+02
  -2.246607e+02   1.070040e+02
  -1.961502e+02  -3.894053e+01
  -8.477482e+01  -1.795286e+02
   2.285353e+01  -1.235293e+02
   8.979795e+01  -8.245724e+01
   5.922725e+01  -7.109677e+01
   5.343037e+01  -9.466135e+01
   8.199503e+01  -7.776464e+01
   1.157971e+02   5.383125e+00
   1.204576e+02   1.407208e+02
   3.966743e+01   2.092790e+02
  -8.031239e+01   1.704199e+02
  -1.635021e+02   1.899035e+01
  -1.137467e+02  -1.249735e+02
  -2.221609e+01  -1.585212e+02
   6.555234e+01  -7.002262e+01
   5.571337e+01   1.592081e+01
   1.891365e+00   4.461731e+01
  -2.192758e+01   3.671297e+01
   2.720937e+01   9.935569e+00
   8.398899e+01   2.215888e+01
   5.262140e+01   3.797527e+01
  -6.793209e+01   3.969408e+01
  -1.535854e+02   1.118694e+01
  -1.240089e+02  -3.996960e+01
  -8.702056e+00  -9.525597e+01
   1.214131e+02  -7.435966e+01
   1.350260e+02  -2.851563e+01
   4.444940e+01   5.004037e+01
  -5.056041e+01   4.980342e+01
  -7.451971e+01  -1.090757e+01
  -2.516670e+01  -6.397077e+01
   2.046105e+01  -6.301106e+01
   5.778244e+01   1.888582e+00
   5.539362e+01   4.299964e+01
   5.293191e+01   3.942632e+01
   5.023541e+01   2.522238e+00
   5.828627e+01   6.492007e+00
   4.710759e+01   6.073333e+01
  -2.101686e+01   1.411873e+02
  -9.035665e+01   1.405521e+02
  -1.761986e+02   1.901001e+01
  -1.148968e+02  -7.569165e+01
  -1.338770e+01  -1.187798e+02
   6.605865e+01  -6.147359e+01
   5.491816e+01  -3.129469e+00
  -4.603501e+01   2.449126e+01
  -1.253727e+02  -2.565225e+01
  -5.959957e+01  -9.994833e+01
   8.009187e+01  -9.838690e+01
   1.604362e+02  -5.371346e+01
   1.340297e+02   2.710845e+01
   2.817614e+01   7.362881e+01
  -6.318941e+01   5.639606e+01
  -4.443159e+01   9.140038e-01
   3.324084e+01  -3.042553e+01
   7.335897e+01   1.446960e+01
   3.855535e+01   1.107661e+02
  -5.461431e+01   1.458184e+02
  -1.306748e+02   7.286888e+01
  -1.213032e+02  -8.962817e+01
  -2.908194e+01  -1.625425e+02
   7.459076e+01  -1.167236e+02
   9.746657e+01   2.053174e+01
   6.802273e+01   1.139713e+02
  -1.121319e+01   1.014775e+02
  -5.525332e+01   1.630752e+01
  -3.818669e+01  -2.335754e+01
  -1.466648e+01  -7.435114e+00
  -7.482031e+00   1.602500e+01
  -3.122316e+01  -1.821003e+01
  -6.273571e+01  -8.925844e+01
  -3.401151e+01  -9.144202e+01
   5.812838e+01  -4.212106e+01
   1.337327e+02   2.591875e+01
   9.756097e+01   4.730807e+01
   1.808177e+01   5.518784e+01
  -7.237259e+01   2.752089e+01
  -8.362513e+01   8.238417e+00
  -1.719995e+01  -1.094966e+01
   3.421343e+01  -1.886263e+01
   1.664089e+01  -1.318818e+01
  -1.144923e+01   4.958016e+00
   2.140009e+00   4.769683e+00
   6.242353e+01   6.767190e+00
   8.889098e+01   2.020469e+00
   2.491879e+01   7.308806e+01
  -8.590783e+01   1.031498e+02
  -1.792875e+02   7.282801e+01
  -1.531865e+02  -3.406560e+01
  -2.918740e+01  -1.369101e+02
   5.288984e+01  -1.369168e+02
   1.153485e+02  -5.566258e+01
   6.592644e+01   1.385094e+01
   2.687778e+01   3.377364e+01
   4.266617e+00   1.104535e+01
   1.423298e+01   8.204744e+00
   3.042099e+01   4.595344e+01
   2.102329e+01   8.098517e+01
  -1.517861e+01   5.892584e+01
  -6.333453e+01  -3.821314e-01
  -8.625675e+01  -6.945853e+01
  -2.762863e+01  -9.592461e+01
   6.358330e+01  -2.536319e+01
   9.713837e+01   4.962211e+01
   3.713996e+01   8.924851e+01
  -4.814484e+01   6.342896e+01
  -9.586585e+01  -1.740809e+00
  -4.896072e+01  -5.671351e+01
   3.143051e+01  -5.694922e+01
   3.879626e+01  -2.819499e+01
  -1.890184e+01   2.116524e+00
  -7.016197e+01   2.884192e+00
  -1.885258e+01  -2.346713e+01
   6.509661e+01  -7.186977e+01
   1.086133e+02  -5.147195e+01
   6.046434e+01   5.414389e+00
  -1.057643e+01   8.780186e+01
  -5.730981e+01   7.325291e+01
  -4.142676e+01   1.082871e+01
  -1.139020e+01  -4.632194e+01
   2.212685e+01  -4.657454e+01
   3.218296e+01   1.198597e+00
   3.303015e+01   4.689125e+01
   3.022205e+00   3.857024e+01
  -3.070309e+01  -8.226999e-02
  -4.394333e+01  -2.539136e+01
  -2.258555e+01  -4.113202e+00
   6.160420e+00   1.849889e+01
   4.669220e+00   8.592827e+00
  -1.556697e+00  -3.008871e+01
  -9.289833e+00  -4.346874e+01
   2.347121e+01  -2.421047e+01
   3.889421e+01   2.399052e+01
   1.243460e+01   5.616832e+01
  -3.345534e+01   2.284256e+01
  -6.575863e+01  -3.236764e+01
  -2.027064e+01  -5.574078e+01
   4.987970e+01  -3.934912e+01
   8.945221e+01   1.198913e+01
   5.000598e+01   3.854020e+01
  -1.809524e+01   4.261646e+01
  -5.302032e+01   2.622902e+01
  -2.589582e+01   1.031515e+01
   2.447052e+01  -3.903881e-01
   3.040713e+01   7.758006e-01
  -1.791486e+01   2.200609e+01
  -7.010537e+01   2.351360e+01
