
 $NMID
 id='ANONYMOUS ', fmtdat='(2E16.6)'
 volume=1.0
 tramp=1.0
 $END
   2.928915e+03  -1.414579e+01
   2.009053e+03   1.291561e+03
  -3.209269e+02   1.210631e+03
  -1.283066e+03   5.124552e+02
  -6.831495e+02   1.281374e+01
   1.045721e+02  -3.783785e+02
   4.023444e+02   1.270582e+02
   1.016241e+02   5.413848e+02
  -4.666122e+02   5.686279e+02
  -6.196653e+02  -5.874956e+01
  -3.112072e+02  -4.432044e+02
   8.601291e+00  -5.539563e+02
   3.839985e+02  -1.364347e+02
   2.401217e+02   3.371014e+02
  -1.184165e+02   5.449605e+02
  -3.382424e+02   9.891278e+01
  -2.266620e+02  -4.278009e+02
   1.151985e+02  -4.243761e+02
   4.607648e+02  -1.309152e+02
   3.493749e+02   1.948784e+02
   7.871461e+01   3.469762e+02
  -9.194485e+01   2.599314e+02
  -1.030064e+02   4.068168e+01
   1.177206e+02  -2.368263e+01
   2.383085e+02   1.505127e+02
   5.623975e+01   3.539746e+02
  -3.714215e+02   2.415041e+02
  -5.601583e+02  -1.465318e+02
  -2.235487e+02  -3.401578e+02
   1.403830e+02  -2.954507e+02
   4.110456e+02  -2.803823e+01
   1.828653e+02   3.120010e+02
  -2.080281e+02   3.890062e+02
  -3.108739e+02   1.219629e+02
  -3.309431e+02  -1.673703e+02
  -7.418747e+01  -2.711313e+02
   7.691375e+01  -1.447008e+02
   4.100391e+01   8.724322e+01
  -1.372210e+02   1.295073e+02
  -2.077279e+02  -7.147956e+01
  -2.955135e+01  -4.761883e+02
   1.813212e+02  -3.856062e+02
   3.275856e+02  -2.951937e+01
   1.380443e+02   3.643460e+02
  -1.533707e+02   1.514001e+02
  -1.460530e+02  -1.787448e+02
   1.381021e+02  -3.167892e+02
   3.531421e+02  -5.102176e+01
   3.025869e+02   2.801666e+02
   1.893411e+02   3.773843e+02
  -3.230608e+02   1.984022e+02
  -3.943809e+02   1.471248e+01
  -2.847060e+02  -3.182566e+02
   5.854320e+01  -1.988503e+02
   2.292817e+02  -5.340929e+01
   2.104942e+02   4.045512e+01
   2.890478e+00   5.738285e+01
  -7.047801e+01  -4.806780e+01
   1.022642e+02  -4.867789e+01
   2.527405e+02   5.684781e+01
   1.030445e+02   1.674505e+02
  -1.392267e+02   2.055485e+02
  -2.883196e+02   7.826644e+01
  -1.661169e+02  -6.251741e+01
   1.939968e+01  -2.143106e+02
   1.592187e+02  -2.974887e+02
   2.173231e+02  -1.805224e+02
   2.054212e+02   7.305560e+01
   7.590400e+01   2.754538e+02
  -4.013331e+01   2.554548e+02
  -5.151700e+01   9.075749e+01
  -1.925328e+01   3.495541e+01
  -7.287537e+01   7.537592e+01
  -1.816504e+02   7.770044e+01
  -2.012591e+02  -8.023233e+01
  -8.907514e+01  -2.321319e+02
   7.738470e+01  -1.473899e+02
   1.309581e+02   2.708836e+01
   1.299883e+02   1.958384e+02
  -9.608143e+00   1.765598e+02
  -1.796294e+02   7.895795e+01
  -2.369484e+02  -1.226825e+02
  -1.240653e+02  -2.240715e+02
   7.513104e+01  -2.373584e+02
   1.677684e+02  -1.037427e+02
   1.385564e+02  -6.253807e+01
   9.487687e+01  -5.778947e+01
   1.942430e+02  -7.714823e+01
   3.278202e+02   9.303471e+01
   2.611707e+02   1.901194e+02
   3.880232e+01   3.317182e+02
  -2.594099e+02   2.928415e+02
  -4.004287e+02   2.012252e+02
  -1.954038e+02  -3.821548e+01
  -4.330960e+00  -2.058220e+02
   8.023386e+01  -1.483854e+02
   4.201489e+01  -3.466828e+01
  -8.980330e+01   6.064044e+01
  -1.293453e+02  -1.945569e+01
   6.723081e+00  -8.772295e+01
   1.147984e+02  -1.037366e+02
   1.128566e+02   5.531311e+01
  -1.859011e+01   1.279130e+02
  -1.269189e+02   1.255865e+01
  -1.183936e+02  -1.844740e+02
   3.623340e+01  -2.381063e+02
   1.678024e+02  -1.543258e+02
   2.712338e+02   2.099753e+01
   2.142233e+02   1.526975e+02
   4.881374e+01   2.000909e+02
  -8.049867e+01   1.086893e+02
  -1.214759e+02   2.531882e+01
  -3.240619e+01  -2.099618e+01
   3.816104e+01   5.019607e+01
   1.897815e+01   8.576089e+01
  -6.679469e+01   7.141759e+01
  -1.240279e+02  -2.363969e+01
  -4.553109e+01  -4.628727e+01
   5.917359e+01  -3.576648e-01
   2.832019e+01   6.410914e+01
  -1.047935e+02   7.845425e+01
  -1.947366e+02  -6.047285e+00
  -1.773759e+02  -1.075286e+02
  -4.788789e+01  -2.280477e+02
   1.295827e+02  -1.991841e+02
   1.806309e+02  -9.289445e+01
   1.235869e+02   5.349002e+01
  -2.126691e+01   5.635426e+01
  -6.425955e+01  -1.183541e+00
   2.772857e+01  -7.888366e+01
   1.516994e+02  -2.965046e+01
   1.341293e+02   5.218799e+01
   5.551867e+01   1.633065e+02
  -8.598413e+01   8.607923e+01
  -7.056267e+01   1.129444e+01
  -3.697490e+01  -1.581593e+01
   2.228353e+01   1.413527e+01
   3.539905e+01   7.562467e+01
  -5.188178e+01   8.987360e+01
  -1.620868e+02   4.358261e+00
  -1.416080e+02  -1.157767e+02
  -3.000820e+01  -1.616738e+02
   9.113370e+01  -1.108307e+02
   1.420054e+02  -1.918460e+01
   3.642186e+01   7.227899e+01
  -4.259037e+01   8.391294e+01
  -4.975214e+01   2.096228e+01
  -6.341487e+00  -1.861965e+01
   2.125138e+01  -6.122054e+00
  -1.008999e+01   1.421971e+01
  -6.548991e+01  -1.750370e+00
  -7.739610e+01  -6.252918e+01
  -2.947861e+01  -1.294118e+02
   8.904130e+01  -1.038331e+02
   1.930791e+02  -5.064264e+00
   1.618759e+02   8.833939e+01
   1.554335e+01   1.968070e+02
  -7.655450e+01   1.278171e+02
  -9.374346e+01   2.867876e+01
  -5.358542e+01  -2.127094e+01
  -2.344471e+01  -2.227389e+01
  -4.434008e+01   9.696257e+00
  -6.603535e+01   5.163461e+00
  -3.983653e+01  -2.963101e+01
   2.375436e+01  -6.903678e+01
   7.303862e+01  -4.258508e+01
   8.228452e+01   3.272761e+01
  -1.384753e+01   8.649009e+01
  -1.198006e+02   6.926235e+01
  -1.758092e+02  -4.566681e+01
  -9.944895e+01  -1.489059e+02
   8.496677e+01  -1.738134e+02
   1.961864e+02  -8.117114e+01
   1.590587e+02   1.793337e+01
   5.034762e+01   1.576929e+02
  -4.430090e+00   1.125580e+02
  -7.800671e+01   6.560618e+01
  -5.140595e+01   6.603235e+01
  -4.940330e+01   7.370661e+01
  -7.216027e+01   6.941353e+01
  -8.853660e+01   3.018497e+00
  -9.986280e+01  -9.903800e+01
  -3.642783e+01  -1.878322e+02
   6.327048e+01  -1.370456e+02
   1.211110e+02  -2.709358e+01
   9.441461e+01   8.493624e+01
   1.815158e+01   1.331946e+02
  -5.044987e+01   5.959346e+01
  -4.454451e+01  -1.183229e+01
  -1.470460e+00  -3.286058e+01
   6.218395e+00  -3.273139e+01
  -2.479665e+01  -9.849593e+00
  -6.886979e+01  -2.103964e+01
  -4.583187e+01  -2.995490e+01
   5.095280e+01  -3.134677e+01
   1.233480e+02  -1.925580e+01
   1.185131e+02   2.542897e+01
   1.249398e+01   7.103523e+01
  -1.007284e+02   5.972362e+01
  -1.184727e+02   2.159274e+01
  -3.710807e+01  -2.847327e+01
   4.252786e+01  -3.960090e+01
   5.889362e+01   8.281176e+00
   2.139177e+01   5.722996e+01
  -2.373114e+01   5.253085e+01
  -4.562383e+01  -4.453053e+00
  -4.512808e+01  -3.313240e+01
  -3.879130e+01  -3.419815e+01
  -3.846523e+01  -1.957059e+00
  -4.115606e+01  -5.388089e+00
  -3.396828e+01  -4.424389e+01
   3.672712e+01  -1.186005e+02
   6.711490e+01  -9.763725e+01
   1.313012e+02  -2.384176e+01
   8.614082e+01   5.965332e+01
   2.095717e+01   9.796777e+01
  -5.493976e+01   5.101006e+01
  -4.427375e+01   4.035559e+00
   3.674179e+01  -2.360820e+01
   1.131046e+02   2.727949e+01
   5.684739e+01   7.079454e+01
  -5.740978e+01   8.950191e+01
  -1.453375e+02   5.955209e+01
  -1.101850e+02  -1.964312e+01
  -1.906164e+01  -6.116122e+01
   4.396455e+01  -5.310920e+01
   3.452996e+01  -9.058619e+00
  -2.817635e+01   2.097698e+01
  -6.071016e+01  -2.937282e+00
  -3.376280e+01  -9.350314e+01
   5.017937e+01  -1.240856e+02
   1.218840e+02  -5.994500e+01
   1.063970e+02   7.841270e+01
   2.840696e+01   1.278602e+02
  -5.203187e+01   9.952782e+01
  -7.504033e+01  -1.403447e+01
  -5.916290e+01  -7.957077e+01
   7.712550e+00  -8.601280e+01
   4.222761e+01  -1.464910e+01
   3.255392e+01   2.213933e+01
   1.422472e+01   4.039854e+00
   5.673560e+00  -1.309610e+01
   1.931309e+01   1.188769e+01
   4.963889e+01   7.238468e+01
   2.146817e+01   7.253775e+01
  -4.056219e+01   3.690690e+01
  -1.149703e+02  -1.871474e+01
  -8.633905e+01  -3.861810e+01
  -1.475591e+01  -4.443243e+01
   5.702090e+01  -2.617460e+01
   7.127301e+01  -6.940861e+00
   1.140150e+01   8.625772e+00
  -3.149916e+01   1.846466e+01
  -1.205023e+01   1.403729e+01
   1.396777e+01  -3.497795e+00
  -2.083202e+00  -5.712780e+00
  -5.898988e+01  -3.321526e+00
  -8.377051e+01  -6.197246e+00
  -1.062170e+01  -5.424867e+01
   7.890971e+01  -8.252184e+01
   1.260116e+02  -4.534588e+01
   1.220757e+02   2.739545e+01
   2.904130e+01   1.173340e+02
  -4.065718e+01   1.044672e+02
  -8.857176e+01   3.874696e+01
  -5.507611e+01  -1.078103e+01
  -2.307800e+01  -2.707029e+01
  -1.109280e+00  -9.068617e+00
  -9.999308e+00  -5.304977e+00
  -2.773253e+01  -3.459627e+01
  -3.359241e+01  -6.745455e+01
   1.431700e+01  -5.459654e+01
   5.209094e+01   2.633847e+00
   7.960423e+01   5.843208e+01
   2.103866e+01   8.743850e+01
  -6.128296e+01   1.321336e+01
  -8.133157e+01  -4.593523e+01
  -3.245379e+01  -7.818046e+01
   4.434816e+01  -4.673341e+01
   7.901587e+01   5.970062e+00
   3.433138e+01   4.263441e+01
  -2.924462e+01   4.091460e+01
  -3.058227e+01   2.438471e+01
   1.957357e+01  -1.541116e+00
   5.292393e+01  -7.453336e+00
   1.508003e+01   1.982086e+01
  -5.973941e+01   6.046473e+01
  -8.600112e+01   3.608938e+01
  -4.489414e+01  -9.487858e-01
   7.106792e+00  -6.796132e+01
   4.777437e+01  -5.381092e+01
   3.092373e+01  -7.408284e+00
   8.293118e+00   3.823183e+01
  -1.898260e+01   3.839589e+01
  -3.023148e+01  -5.664949e+00
  -3.046664e+01  -4.338319e+01
   1.173922e+00  -2.991175e+01
   2.587322e+01   2.734926e+00
   3.032619e+01   1.993367e+01
   1.933665e+01   3.659380e+00
  -2.707788e+00  -1.293892e+01
  -3.322845e+00  -3.041688e+00
  -1.931008e+00   2.845001e+01
  -1.212945e+00   3.893858e+01
  -2.230586e+01   1.797800e+01
  -2.958503e+01  -2.640612e+01
  -1.924145e+00  -4.419766e+01
   3.122992e+01  -1.923491e+01
   4.603654e+01   2.525227e+01
   9.242154e+00   4.676078e+01
  -3.953675e+01   3.613565e+01
  -7.063074e+01  -4.066485e+00
  -3.840253e+01  -3.258929e+01
   1.754941e+01  -3.158538e+01
   4.502362e+01  -1.781863e+01
   1.951588e+01  -7.947035e+00
  -2.282674e+01   3.235449e+00
  -2.869300e+01  -5.426385e+00
   1.628488e+01  -2.118960e+01
   6.820843e+01  -2.217529e+01
