
 $NMID
 id='ANONYMOUS ', fmtdat='(2E16.6)'
 volume=1.0
 tramp=1.0
 $END
  -1.773114e+03   1.158997e+02
  -1.573118e+03  -6.411079e+02
   1.527366e+02  -5.512395e+02
   1.001720e+03  -4.208819e+02
   4.360499e+02  -4.722577e+01
  -1.330754e+02   2.175192e+02
  -3.142234e+02  -1.221870e+02
   2.910262e+01  -2.886870e+02
   2.606498e+02  -2.777641e+02
   4.033885e+02   7.129228e+00
   2.379825e+02   2.347731e+02
  -4.249469e+01   3.014391e+02
  -2.595450e+02   8.878661e+01
  -1.641697e+02  -1.818688e+02
   1.096434e+02  -3.346854e+02
   1.580947e+02  -7.551195e+01
   1.416590e+02   2.839046e+02
  -9.339027e+01   2.791639e+02
  -2.022916e+02   1.095649e+02
  -1.923131e+02  -4.739697e+01
  -4.497656e+01  -1.900369e+02
   6.381559e+01  -1.850279e+02
   8.580883e+01  -3.127487e+01
  -7.957586e+01   1.517294e+01
  -2.020902e+02  -6.230388e+01
  -8.163905e+01  -2.867815e+02
   1.724689e+02  -1.983034e+02
   4.048977e+02   2.977131e+01
   1.968208e+02   1.831372e+02
  -8.353515e+01   2.364271e+02
  -2.468908e+02   1.112093e+02
  -1.161807e+02  -2.210953e+02
   9.175276e+01  -2.342722e+02
   1.993135e+02  -1.461069e+02
   2.022570e+02   1.009964e+02
   2.786236e+01   1.767054e+02
  -4.073658e+01   8.216648e+01
  -7.754562e+01  -9.504931e+01
   7.435936e+01  -1.458178e+02
   1.853709e+02  -1.460902e+01
   4.870554e+01   3.219320e+02
  -1.214308e+02   2.469107e+02
  -2.251526e+02   4.107679e+01
  -5.024281e+01  -1.544149e+02
   4.763634e+01  -9.407118e+01
   1.163523e+02   1.173308e+02
  -5.048408e+01   1.721516e+02
  -2.011829e+02   5.290745e+01
  -1.855717e+02  -1.275484e+02
  -1.382658e+02  -1.561010e+02
   1.703550e+02  -9.774744e+01
   2.897877e+02  -3.112531e+01
   1.632062e+02   1.722925e+02
  -3.316071e+01   1.204176e+02
  -1.110489e+02   6.803523e+01
  -1.058513e+02  -4.066054e+01
   2.312591e+01  -5.879568e+01
   6.507454e+01   2.696394e+01
  -6.313776e+01   6.135296e+01
  -1.587332e+02  -3.635246e+01
  -4.425819e+01  -9.665268e+01
   8.052097e+01  -1.276613e+02
   1.739703e+02  -8.498696e+01
   1.167581e+02   2.787481e+01
   5.817756e+00   1.121217e+02
  -7.429987e+01   1.896267e+02
  -1.172479e+02   1.189145e+02
  -1.418599e+02  -7.028760e+01
  -7.479875e+01  -1.725433e+02
   1.457734e+01  -1.388542e+02
   4.776666e+00  -4.014212e+01
   6.549368e+00  -2.020128e+01
   2.384746e+01  -4.045648e+01
   1.062846e+02  -6.343125e+01
   1.268906e+02   5.457788e+01
   5.698150e+01   1.295334e+02
  -3.193936e+01   8.733662e+01
  -7.471696e+01  -3.257254e+00
  -9.546737e+01  -1.280112e+02
  -1.543848e+01  -9.953960e+01
   9.045094e+01  -7.985327e+01
   1.386345e+02   2.915708e+01
   9.825932e+01   1.431654e+02
  -3.049225e+01   1.314866e+02
  -9.580766e+01   5.344762e+01
  -7.505618e+01   4.408097e+01
  -4.616750e+01   3.452476e+01
  -8.415635e+01   6.306277e+01
  -1.788508e+02  -4.922504e+01
  -1.509720e+02  -6.391605e+01
  -4.920069e+01  -1.611569e+02
   1.137974e+02  -1.612274e+02
   1.980109e+02  -1.492723e+02
   1.484842e+02   1.875152e+01
  -8.445385e-01   1.550456e+02
  -3.164369e+01   7.476170e+01
  -2.874861e+01   1.866815e+01
   4.878952e+01  -5.148728e+01
   8.238175e+01   9.572919e-01
   7.545941e+00   5.287853e+01
  -7.971265e+01   6.518498e+01
  -8.069987e+01  -4.726193e+01
  -2.257368e+00  -7.952621e+01
   9.273941e+01  -4.231020e+01
   7.710681e+01   1.369970e+02
  -7.960448e+00   1.503009e+02
  -8.155798e+01   1.221886e+02
  -1.789631e+02  -7.925781e+00
  -1.304397e+02  -4.588636e+01
  -7.251370e+01  -1.086360e+02
   3.479066e+01  -6.009922e+01
   7.634765e+01  -2.770764e+01
   2.546397e+01   1.620073e+01
  -2.031525e+01  -1.758681e+01
  -1.905722e+01  -4.579200e+01
   4.495097e+01  -5.645742e+01
   7.661091e+01   1.462886e+01
   3.499184e+01   3.140689e+01
  -4.179852e+01   1.726390e+00
  -2.382396e+01  -3.297358e+01
   6.074710e+01  -4.525155e+01
   1.079828e+02  -4.176403e+00
   1.009827e+02   5.368002e+01
   2.214972e+01   1.205645e+02
  -7.476734e+01   1.429953e+02
  -9.054387e+01   6.134895e+01
  -8.205205e+01  -1.985299e+01
   1.514949e+01  -4.564705e+01
   4.607506e+01  -3.930274e+00
  -1.446823e+01   5.101720e+01
  -8.873385e+01   4.473418e+01
  -9.718538e+01  -2.456612e+01
  -3.505553e+01  -1.286048e+02
   5.798340e+01  -5.964710e+01
   4.191385e+01  -3.051827e+01
   3.348487e+01   7.054434e+00
  -1.309096e+01  -1.366005e+00
  -3.548260e+01  -4.312639e+01
   2.217434e+01  -5.474807e+01
   8.562260e+01  -1.330529e+01
   9.036810e+01   5.868783e+01
   4.120657e+01   8.936499e+01
  -5.497694e+01   7.720790e+01
  -6.958807e+01   3.317273e+00
  -2.472823e+01  -4.485335e+01
   1.892558e+01  -5.697008e+01
   2.591090e+01  -2.165399e+01
   7.632798e+00   1.485025e+01
  -9.336068e+00   2.623427e+00
   5.178202e+00  -6.568971e+00
   3.306551e+01   1.541621e+00
   4.208915e+01   2.802562e+01
   1.208408e+01   9.885757e+01
  -6.159783e+01   7.577962e+01
  -1.254970e+02   7.821131e+00
  -1.203919e+02  -6.709799e+01
  -7.231373e+00  -1.217953e+02
   3.980333e+01  -6.572619e+01
   6.224839e+01  -3.205839e+01
   3.381319e+01   8.909111e+00
   1.103331e+01   1.262353e+01
   2.442782e+01  -6.167923e+00
   3.261458e+01  -4.959070e+00
   3.269355e+01   8.707212e+00
  -1.206332e+01   5.603434e+01
  -4.552704e+01   3.647646e+01
  -5.684071e+01  -2.285967e+01
  -3.281570e+00  -5.459627e+01
   6.279900e+01  -5.133765e+01
   1.000980e+02   1.676235e+01
   7.545682e+01   8.008351e+01
  -3.960856e+01   1.068991e+02
  -1.106524e+02   5.783727e+01
  -1.010914e+02   2.256356e+00
  -2.929291e+01  -8.747715e+01
  -1.267171e+01  -8.068906e+01
   4.291062e+01  -3.645890e+01
   2.911131e+01  -5.297750e+01
   2.553406e+01  -4.727400e+01
   2.737161e+01  -5.230740e+01
   4.968294e+01  -1.660681e+01
   6.663036e+01   5.235075e+01
   1.536115e+00   1.070868e+02
  -3.288822e+01   6.887077e+01
  -7.894082e+01   2.733545e+01
  -6.827810e+01  -5.533766e+01
  -2.173010e+01  -8.763761e+01
   2.846503e+01  -4.453177e+01
   1.997186e+01   3.231115e+00
   6.905287e+00   2.165959e+01
  -1.100818e+00   2.346483e+01
   1.638670e+01   5.672983e+00
   3.877970e+01   1.158458e+01
   2.654670e+01   1.519036e+01
  -3.070088e+01   2.624112e+01
  -5.278527e+01   2.642588e+01
  -8.506002e+01  -2.398879e+01
  -2.037204e+01  -4.715063e+01
   7.106082e+01  -4.685847e+01
   8.703195e+01  -9.357842e+00
   3.108526e+01   1.943342e+01
  -2.570106e+01   2.679928e+01
  -3.118523e+01   5.477129e-01
  -1.967960e+01  -2.800113e+01
   1.233204e+01  -3.181954e+01
   2.720257e+01  -3.908916e+00
   3.563173e+01   1.871469e+01
   2.178483e+01   2.330553e+01
   1.944649e+01  -5.583563e+00
   2.098918e+01  -2.769320e-01
   2.915387e+01   1.975813e+01
  -8.587697e+00   8.040072e+01
  -1.459201e+01   6.482206e+01
  -5.836619e+01   1.690971e+01
  -5.594207e+01  -2.877433e+01
  -1.986212e+01  -6.437941e+01
   3.055577e+01  -4.202305e+01
   3.257835e+01  -6.744563e+00
  -1.858624e+01   2.079844e+01
  -8.443001e+01  -2.133494e+01
  -4.727034e+01  -3.908503e+01
   2.552421e+01  -6.164203e+01
   9.180160e+01  -5.490949e+01
   6.647376e+01   1.174858e+00
   1.337815e+01   3.723457e+01
  -2.057631e+01   3.515631e+01
  -1.446863e+01   6.902044e+00
   1.751105e+01  -1.232412e+01
   3.771448e+01  -7.681358e+00
   1.884089e+01   6.199737e+01
  -2.427651e+01   8.689169e+01
  -6.291269e+01   4.345689e+01
  -5.207627e+01  -4.174497e+01
  -3.289254e+01  -9.243887e+01
   1.111576e+01  -6.465594e+01
   5.196125e+01   4.909872e+00
   3.425887e+01   3.454974e+01
   1.404583e+00   5.680816e+01
  -2.948205e+01   9.077649e+00
  -2.503212e+01  -1.437079e+01
  -1.111954e+01  -2.293743e+00
  -4.280743e+00   7.782415e+00
  -1.216241e+01  -7.611615e+00
  -2.442865e+01  -4.841930e+01
  -4.424281e+00  -5.167842e+01
   2.338580e+01  -2.688006e+01
   7.550924e+01   1.464848e+01
   5.185013e+01   2.001743e+01
   8.490383e+00   2.707970e+01
  -3.671370e+01   1.983810e+01
  -4.197349e+01   2.319805e+00
  -7.119974e+00  -4.719546e+00
   1.898094e+01  -1.413834e+01
   7.778724e+00  -9.291831e+00
  -7.499416e+00   5.125487e+00
   7.243355e-01   3.498813e+00
   3.351367e+01  -5.231215e-01
   5.468807e+01  -1.110773e+00
   9.652169e+00   2.970289e+01
  -3.994628e+01   6.048612e+01
  -6.422971e+01   2.364750e+01
  -8.131695e+01  -9.616106e+00
  -3.529869e+01  -7.259881e+01
   2.115600e+01  -6.775565e+01
   3.458788e+01  -3.578649e+01
   3.292239e+01   5.697214e+00
   1.576668e+01   1.354646e+01
   1.119234e+00   6.380069e+00
   5.253519e+00   1.292142e+00
   1.806511e+01   2.205229e+01
   3.094277e+01   4.119001e+01
  -1.243238e+01   3.906135e+01
  -3.801652e+01   4.271259e+00
  -5.080400e+01  -3.250927e+01
  -1.513238e+01  -5.971055e+01
   3.523357e+01  -1.066733e+00
   5.133103e+01   1.964920e+01
   1.915926e+01   4.318119e+01
  -1.127136e+01   3.358203e+01
  -5.480313e+01  -1.126963e+00
  -1.443601e+01  -2.114626e+01
   1.897302e+01  -2.253670e+01
   1.779301e+01  -1.609903e+01
  -1.390716e+01   2.886800e+00
  -2.910979e+01   9.932957e+00
  -7.899345e+00  -1.061244e+01
   2.913475e+01  -3.436753e+01
   5.053632e+01  -1.703975e+01
   2.916168e+01  -3.628346e+00
   3.299006e+00   3.373965e+01
  -2.210865e+01   2.025656e+01
  -1.773111e+01   8.064867e+00
  -1.048743e+01  -1.969793e+01
   6.811588e+00  -2.336674e+01
   2.099612e+01   1.707216e+00
   2.064097e+01   2.771176e+01
   5.288453e-01   1.316664e+01
  -1.572331e+01  -3.126250e+00
  -1.537110e+01  -9.771302e+00
  -1.243867e+01  -2.672934e+00
   5.012502e+00   6.460021e+00
   3.571381e+00   3.287061e-01
   1.789208e+00  -1.642164e+01
  -2.080906e-01  -2.306322e+01
   1.318079e+01  -1.009369e+01
   2.145559e+01   1.914435e+01
   6.950171e-01   3.419219e+01
  -1.506236e+01   1.216733e+01
  -2.972648e+01  -9.210850e+00
  -4.618101e+00  -2.892107e+01
   2.518430e+01  -3.021067e+01
   4.062723e+01   2.257381e+00
   2.927013e+01   1.654390e+01
  -7.191527e+00   2.031486e+01
  -2.068106e+01   1.571361e+01
  -9.488492e+00   6.969230e+00
   1.361240e+01  -1.637826e+00
   1.514341e+01   4.255635e-01
  -8.854448e+00   1.248571e+01
  -4.937926e+01   1.963640e+01
