
 $NMID
 id='ANONYMOUS ', fmtdat='(2E16.6)'
 volume=1.0
 tramp=1.0
 $END
   4.246557e+03  -5.640507e+02
   2.507941e+03   2.366202e+03
  -8.489344e+02   2.892930e+03
  -2.202603e+03   4.624951e+02
  -8.266291e+02  -9.152976e+02
   6.925285e+02  -7.837769e+02
   8.908306e+02   2.369805e+02
   3.854911e+01   9.725603e+02
  -7.825837e+02   6.918489e+02
  -8.531303e+02  -2.439429e+01
  -5.333868e+02  -6.955780e+02
   2.799081e+02  -8.157784e+02
   5.062227e+02  -1.802963e+02
   5.213485e+02   6.111497e+02
  -2.076761e+02   7.215384e+02
  -6.012851e+02   8.882283e+01
  -3.384486e+02  -5.854953e+02
   4.037284e+02  -6.622987e+02
   5.730126e+02  -1.262546e+02
   4.305007e+02   3.096600e+02
  -6.725035e+00   4.251702e+02
  -2.281100e+02   2.669046e+02
  -2.113666e+02   1.675302e+01
   6.167660e+01  -1.030316e+02
   3.399865e+02   5.765034e+01
   2.045174e+02   3.768890e+02
  -3.768647e+02   4.553974e+02
  -8.652572e+02  -2.186168e+01
  -4.767021e+02  -5.457672e+02
   3.046574e+02  -5.524359e+02
   7.525359e+02  -4.415349e+01
   3.511596e+02   3.699246e+02
  -2.155769e+02   5.496056e+02
  -5.730494e+02   2.698796e+02
  -3.900426e+02  -1.472272e+02
  -1.222553e+02  -3.986449e+02
   1.698108e+02  -2.882232e+02
   2.041635e+02   2.322070e+02
  -1.399838e+02   5.117106e+02
  -4.742998e+02  -7.753246e+00
  -2.728642e+02  -6.343872e+02
   2.592177e+02  -6.850945e+02
   5.862954e+02  -1.201509e+02
   3.584270e+02   4.617352e+02
  -2.049166e+02   3.395701e+02
  -4.278988e+02  -2.455337e+02
   2.661740e+01  -5.377596e+02
   5.423596e+02  -1.862495e+02
   5.985698e+02   3.024930e+02
   1.982635e+02   5.176328e+02
  -3.705924e+02   3.598046e+02
  -5.597567e+02  -2.437180e+01
  -3.531525e+02  -3.759812e+02
   1.616183e+02  -4.163105e+02
   4.231456e+02  -1.164984e+02
   2.626976e+02   1.775461e+02
  -1.059279e+02   1.159717e+02
  -1.763473e+02  -1.670385e+02
   1.285683e+02  -1.932839e+02
   2.753617e+02   3.491388e+01
   1.460332e+02   2.266551e+02
  -1.789313e+02   2.498082e+02
  -2.931855e+02   7.484781e+01
  -1.627610e+02  -5.367381e+01
   2.593753e+01  -1.643878e+02
   1.802450e+02  -2.459234e+02
   2.438990e+02  -2.118126e+02
   2.602543e+02   1.223753e+02
   1.086377e+02   4.350884e+02
  -4.958414e+01   3.425137e+02
  -1.029006e+02   1.059555e+02
  -3.036103e+01  -2.576644e+01
   6.975894e+00   8.284037e+01
  -1.405269e+02   1.602486e+02
  -2.411032e+02  -1.291211e+00
  -1.604910e+02  -2.045002e+02
   2.961754e+01  -2.587767e+02
   1.963857e+02  -3.509071e+01
   2.061919e+02   1.958796e+02
  -2.944566e+00   2.507080e+02
  -2.570747e+02   1.391219e+02
  -3.388195e+02  -1.380756e+02
  -1.835414e+02  -3.578222e+02
   7.482071e+01  -2.851236e+02
   1.795281e+02  -1.461679e+02
   1.552200e+02   1.586245e+01
   9.886834e+01  -2.339372e+01
   1.601407e+02  -7.297558e+01
   3.369440e+02   4.391277e+01
   3.124596e+02   2.358004e+02
  -7.047821e+00   4.138005e+02
  -3.496798e+02   4.071352e+02
  -3.939341e+02   2.786685e+02
  -3.102215e+02  -3.631806e+01
  -7.445884e+01  -2.650724e+02
   1.067866e+02  -2.510849e+02
   7.270343e+01  -2.913233e+01
  -8.169330e+01   1.071039e+02
  -1.964299e+02   8.522279e+00
  -8.271090e+01  -1.939045e+02
   1.320786e+02  -1.731715e+02
   1.627849e+02   3.872548e+01
   1.435171e+01   1.853960e+02
  -1.575483e+02   4.599234e+01
  -1.452854e+02  -2.377382e+02
   1.599278e+00  -3.367103e+02
   1.741048e+02  -1.646971e+02
   2.706445e+02   5.378575e+01
   2.570559e+02   1.506612e+02
   1.141542e+02   2.288258e+02
  -9.653125e+01   1.505137e+02
  -1.484870e+02   4.648582e+01
  -6.095953e+01  -2.738461e+01
   7.004272e+01   2.939186e+01
   4.149765e+01   8.953201e+01
  -9.162052e+01   1.054527e+02
  -1.480610e+02   7.936396e+00
  -6.169282e+01  -6.949092e+01
   7.624521e+01  -1.169325e+01
   5.671323e+01   5.885174e+01
  -1.064906e+02   6.263649e+01
  -2.260491e+02   5.552030e+01
  -2.624217e+02  -1.068426e+02
  -7.288577e+01  -1.855220e+02
   1.393299e+02  -2.211795e+02
   2.503708e+02  -1.186580e+02
   1.366357e+02   2.191121e+01
  -1.829189e+01   1.088194e+02
  -8.489837e+01   1.463683e+01
   1.729871e+01  -9.882980e+01
   1.641771e+02  -7.956121e+01
   2.019259e+02   8.333777e+01
   6.997778e+01   1.767033e+02
  -8.130593e+01   1.546805e+02
  -1.394289e+02   5.993242e+01
  -7.428792e+01  -3.294672e+01
   2.591705e+01  -2.030690e+00
   3.788639e+01   5.181339e+01
  -3.427426e+01   1.078090e+02
  -1.663768e+02   1.973605e+01
  -1.530588e+02  -8.307814e+01
  -3.405914e+01  -1.945121e+02
   1.320481e+02  -1.701765e+02
   1.953127e+02  -2.180144e+01
   6.294127e+01   9.597316e+01
  -4.214419e+01   1.052007e+02
  -7.227210e+01   3.634793e+01
  -2.509032e+01  -2.080736e+01
   1.293258e+01  -2.127700e+01
  -6.907865e+00   6.340831e+00
  -5.882602e+01  -1.377909e+01
  -9.142564e+01  -5.987355e+01
  -4.922734e+00  -1.416949e+02
   6.797881e+01  -1.573578e+02
   2.231190e+02  -4.346844e+01
   1.854282e+02   1.051374e+02
   6.891607e+01   1.976060e+02
  -6.708643e+01   1.404084e+02
  -1.363803e+02   3.416703e+01
  -7.244516e+01  -4.171800e+01
  -1.973861e+01  -3.005527e+01
  -4.473306e+01   8.218737e+00
  -7.298213e+01   7.469998e+00
  -4.208707e+01  -4.420017e+01
   4.212626e+01  -8.907592e+01
   9.767760e+01  -5.975152e+01
   6.581077e+01   3.121904e+01
  -4.478293e+00   9.077399e+01
  -1.060910e+02   8.586435e+01
  -1.959275e+02  -2.520354e+01
  -1.062779e+02  -1.301208e+02
   4.901161e+01  -2.008494e+02
   2.227796e+02  -1.329332e+02
   2.600255e+02   6.307385e+01
   1.208414e+02   1.588915e+02
  -6.841760e+00   1.281561e+02
  -8.814153e+01   8.412165e+01
  -7.823785e+01   6.066227e+01
  -4.629499e+01   9.092354e+01
  -6.557483e+01   6.956453e+01
  -1.203757e+02  -7.192772e+00
  -1.200798e+02  -1.172398e+02
  -3.467309e+01  -1.786640e+02
   6.791178e+01  -1.740419e+02
   1.337515e+02  -4.137660e+01
   1.397174e+02   7.734644e+01
   3.038347e+01   1.339392e+02
  -5.262825e+01   9.129552e+01
  -5.158364e+01   1.180480e+01
  -9.152338e+00  -3.698511e+01
   2.680272e+00  -2.542921e+01
  -3.451381e+01  -1.599823e+01
  -6.440866e+01  -4.336014e+00
  -3.428240e+01  -3.727055e+01
   6.646169e+01  -3.627592e+01
   1.382706e+02  -3.450794e+01
   1.235095e+02   3.634655e+01
   1.576357e+01   6.470575e+01
  -1.000034e+02   6.217664e+01
  -1.291716e+02   1.448418e+01
  -4.941651e+01  -3.701195e+01
   4.498398e+01  -2.826007e+01
   6.388827e+01   3.612149e+00
   8.883386e+00   5.544817e+01
  -6.060615e+01   5.938046e+01
  -6.088923e+01   1.184737e+00
  -4.206671e+01  -4.749330e+01
  -3.792528e+01  -2.979534e+01
  -5.095370e+01   3.794302e+00
  -5.816984e+01   4.743057e+00
  -3.585282e+01  -6.058235e+01
   2.020182e+01  -1.302560e+02
   8.689532e+01  -1.547062e+02
   1.765424e+02  -5.520504e+01
   9.730535e+01   8.107936e+01
   1.452603e+01   1.108007e+02
  -8.442092e+01   4.669724e+01
  -5.397394e+01  -4.867560e+00
   5.828009e+01  -2.555533e+01
   1.259219e+02   2.936317e+01
   8.230350e+01   9.216751e+01
  -7.819504e+01   1.082168e+02
  -1.550583e+02   7.211505e+01
  -1.476523e+02  -1.338836e+01
  -4.401541e+01  -7.565647e+01
   4.582283e+01  -6.577426e+01
   4.113920e+01  -1.028218e+01
  -2.935380e+01   2.320342e+01
  -8.132341e+01  -1.608481e+01
  -2.401150e+01  -9.588099e+01
   6.627877e+01  -1.455729e+02
   1.554886e+02  -6.903895e+01
   1.213909e+02   7.968608e+01
   1.533865e+01   1.794095e+02
  -6.885087e+01   1.304311e+02
  -9.664168e+01   8.509383e-01
  -6.696038e+01  -9.527228e+01
  -8.519928e+00  -9.477097e+01
   4.009177e+01  -1.750194e+01
   4.957368e+01   2.377466e+01
   2.560619e+01   2.952382e+00
   1.333162e+00  -1.936049e+01
   1.588135e+01   1.021625e+01
   5.478442e+01   7.382071e+01
   5.107255e+01   9.965954e+01
  -3.504838e+01   3.714229e+01
  -1.170528e+02  -3.293248e+01
  -1.243095e+02  -6.138001e+01
  -2.049316e+01  -4.275065e+01
   6.432744e+01  -3.260025e+01
   8.940053e+01  -1.217302e+01
   9.370024e+00   5.783890e+00
  -4.088962e+01   2.227179e+01
  -7.557554e+00   1.858596e+01
   1.978911e+01  -3.933641e+00
  -6.720338e+00  -8.271560e+00
  -6.438483e+01   7.104300e-01
  -7.012745e+01  -8.886169e+00
  -6.771917e+00  -7.575723e+01
   8.756288e+01  -1.143643e+02
   1.698562e+02  -7.006950e+01
   1.154015e+02   5.252827e+01
   2.049200e+01   1.370840e+02
  -4.809267e+01   1.499637e+02
  -1.055727e+02   5.103089e+01
  -7.336561e+01  -6.793340e+00
  -2.330894e+01  -2.715805e+01
   3.545019e+00  -8.143835e+00
  -9.299176e+00  -3.386786e+00
  -3.587559e+01  -3.323473e+01
  -3.010709e+01  -7.542515e+01
   1.614723e+01  -6.060883e+01
   7.864717e+01   1.884444e+01
   7.063383e+01   9.805967e+01
   1.127690e+00   1.147127e+02
  -8.050568e+01   1.907431e+01
  -9.503271e+01  -5.711380e+01
  -2.846786e+01  -7.794075e+01
   5.540946e+01  -5.244210e+01
   8.514104e+01  -1.104479e+00
   4.178792e+01   3.939777e+01
  -3.313241e+01   4.992333e+01
  -3.027250e+01   2.446549e+01
   3.426900e+01   2.032243e+00
   6.350783e+01  -1.112318e+01
   9.800749e+00   2.265587e+01
  -6.391572e+01   6.715505e+01
  -9.673111e+01   6.530501e+01
  -5.683552e+01  -3.069971e+00
   3.771822e+00  -8.126777e+01
   4.645719e+01  -7.499316e+01
   3.550900e+01  -6.023228e+00
   4.110269e+00   5.068711e+01
  -2.351231e+01   3.646475e+01
  -3.335971e+01  -1.778594e+01
  -3.108168e+01  -3.924453e+01
   3.840119e-01  -2.822940e+01
   2.836044e+01   4.882558e+00
   3.549627e+01   1.772806e+01
   1.877082e+01   6.677790e-01
  -3.318417e+00  -1.249284e+01
  -5.295455e+00   6.286423e+00
  -1.598573e+00   3.193327e+01
  -2.067135e+01   4.095197e+01
  -3.050170e+01   9.806384e+00
  -2.639452e+01  -3.971282e+01
   1.216164e+01  -5.917003e+01
   3.975175e+01  -2.161364e+01
   5.442792e+01   3.430696e+01
   8.250288e+00   5.950104e+01
  -5.259107e+01   3.373592e+01
  -8.292071e+01  -5.138866e+00
  -5.237654e+01  -3.785252e+01
   2.245868e+01  -3.604768e+01
   5.639835e+01  -2.138318e+01
   1.713844e+01  -5.260105e+00
  -3.929938e+01  -7.210539e+00
  -3.532471e+01  -1.085030e+01
   2.759946e+01  -2.972954e+01
   8.864661e+01  -1.835367e+01
