
 $NMID
 id='ANONYMOUS ', fmtdat='(2E16.6)'
 volume=1.0
 tramp=1.0
 $END
   2.910482e+03  -2.125161e+02
   2.049185e+03   1.921913e+03
  -5.428890e+02   1.831678e+03
  -1.412526e+03   1.119534e+03
  -9.800829e+02   1.916814e+02
  -1.858863e+01  -3.784082e+02
   5.278624e+02   1.119194e+02
  -7.747530e+01   7.043405e+02
  -6.131166e+02   4.512947e+02
  -6.259920e+02   2.880776e+01
  -4.465572e+02  -5.927020e+02
   7.923424e+01  -6.553890e+02
   3.586279e+02  -2.363718e+02
   1.935467e+02   4.731403e+02
  -1.952553e+02   5.633531e+02
  -4.781650e+02   1.441472e+01
  -2.314815e+02  -5.369653e+02
   1.781416e+02  -5.156597e+02
   4.063302e+02  -1.943632e+02
   4.399722e+02   1.704755e+02
   2.752497e+01   3.632251e+02
  -1.628164e+02   1.823329e+02
  -1.201463e+02   1.010851e+02
   1.515294e+02   6.038687e+01
   2.963112e+02   1.484943e+02
  -2.177876e+01   3.712264e+02
  -2.871159e+02   2.364087e+02
  -6.346933e+02  -2.193075e+02
  -2.144255e+02  -3.643185e+02
   3.133953e+02  -2.106836e+02
   6.088324e+02   1.141127e+02
   2.389350e+02   2.971156e+02
  -3.119821e+02   3.134117e+02
  -5.161113e+02   1.520187e+02
  -2.943650e+02  -1.379535e+02
  -9.559288e+01  -3.769039e+02
   3.562076e+01  -1.747181e+02
  -9.093157e+00   8.781267e+01
  -1.771900e+02   1.891184e+02
  -2.549573e+02  -7.886461e+01
  -6.237800e+01  -4.774770e+02
   1.717145e+02  -4.263852e+02
   4.274628e+02  -3.110843e+01
   2.243468e+02   4.200275e+02
  -1.313752e+02   1.844328e+02
  -2.160388e+02  -2.889093e+02
   7.139474e+01  -4.245513e+02
   4.703375e+02  -1.153472e+02
   5.375008e+02   4.119716e+02
   1.665697e+02   4.884736e+02
  -2.882156e+02   2.322560e+02
  -5.083483e+02  -9.289728e+00
  -3.349842e+02  -3.138174e+02
   4.182706e+01  -2.443368e+02
   2.851664e+02  -9.378303e+01
   2.427017e+02   5.916801e+01
  -1.372284e+01   3.962354e+01
  -7.331619e+01  -6.244507e+01
   1.067024e+02  -3.881419e+01
   2.546356e+02   4.836385e+01
   1.420229e+02   1.953954e+02
  -1.549051e+02   2.573891e+02
  -3.385771e+02   7.674066e+01
  -2.614983e+02  -1.109969e+02
   5.612629e+01  -3.095302e+02
   2.643794e+02  -3.719355e+02
   3.252402e+02  -2.087338e+02
   2.194422e+02   1.633920e+02
   1.565621e+01   3.290748e+02
  -4.722752e+01   3.176147e+02
  -4.423937e+01   1.392855e+02
  -5.300561e+01   1.026015e+02
  -1.278246e+02   1.099574e+02
  -2.618581e+02   5.372948e+01
  -2.789305e+02  -1.380576e+02
  -1.299288e+02  -2.613548e+02
   1.091726e+02  -2.283684e+02
   2.425690e+02   5.925698e+01
   1.252665e+02   2.769537e+02
  -7.315347e+01   3.069261e+02
  -2.713125e+02   3.840959e+01
  -3.356704e+02  -1.277605e+02
  -1.746471e+02  -3.200087e+02
   6.773825e+01  -2.644117e+02
   1.628751e+02  -1.462619e+02
   1.518191e+02  -6.673561e+01
   1.667027e+02  -7.025005e+01
   2.513957e+02  -3.804910e+01
   3.766531e+02   7.240356e+01
   2.904928e+02   2.856574e+02
   3.835349e+01   5.212133e+02
  -3.779404e+02   3.477704e+02
  -4.142350e+02   1.385573e+02
  -2.811421e+02  -1.429435e+02
  -2.467102e+01  -2.342563e+02
   7.085959e+01  -1.862980e+02
   1.850929e+01  -5.719240e+01
  -1.308275e+02   3.567039e+01
  -1.109713e+02  -4.078412e+01
  -2.131309e+01  -1.504533e+02
   1.052642e+02  -1.087395e+02
   1.280614e+02   4.484336e+01
   4.658708e+00   1.485610e+02
  -1.871798e+02  -1.169855e+01
  -1.350718e+02  -2.037083e+02
   3.514111e+01  -2.873262e+02
   2.187650e+02  -1.978246e+02
   3.724606e+02   4.199184e+01
   3.061456e+02   2.803024e+02
   7.134196e+01   2.830440e+02
  -1.550333e+02   1.540510e+02
  -1.597968e+02   1.036246e+01
  -4.122628e+01  -2.568331e+01
   4.034458e+01   5.745807e+01
  -5.475371e+00   1.199414e+02
  -1.183994e+02   5.909077e+01
  -1.421405e+02  -1.824376e+01
  -3.337559e+01  -6.556459e+01
   8.183428e+01   1.375782e+01
   5.495957e+01   9.222884e+01
  -1.472120e+02   6.212852e+01
  -2.976446e+02  -2.179565e+01
  -2.480513e+02  -1.292343e+02
  -4.588353e+01  -2.335340e+02
   1.977010e+02  -2.626926e+02
   2.555786e+02  -6.654067e+01
   1.324119e+02   4.995495e+01
  -1.815337e+01   9.769973e+01
  -6.431325e+01  -9.035692e+00
   5.269424e+01  -8.078063e+01
   2.095934e+02  -2.225528e+01
   1.817570e+02   1.231681e+02
   4.561126e+01   1.912368e+02
  -5.997024e+01   1.346738e+02
  -1.302062e+02   2.902231e+01
  -4.449653e+01  -4.056453e+01
   3.976421e+01   1.606880e+01
   2.498663e+01   1.004136e+02
  -8.377518e+01   1.108613e+02
  -2.163177e+02   1.120281e+01
  -2.382285e+02  -1.259328e+02
   2.627193e+00  -2.189768e+02
   1.442152e+02  -1.543969e+02
   1.833051e+02  -6.208936e+00
   6.333949e+01   7.941381e+01
  -5.708651e+01   9.201808e+01
  -6.708571e+01   3.589830e+01
  -8.864267e-01  -2.178579e+01
   3.717357e+01  -1.196200e+01
  -9.490273e+00   2.469914e+01
  -9.057501e+01  -8.783601e+00
  -1.029484e+02  -1.061757e+02
  -4.188068e+00  -1.555834e+02
   1.342757e+02  -1.605398e+02
   2.427819e+02   6.911513e-01
   1.708019e+02   1.855679e+02
   3.553114e+01   1.973357e+02
  -1.396359e+02   1.497860e+02
  -1.400615e+02   2.701805e+01
  -7.544426e+01  -5.513457e+01
  -3.438969e+01  -3.300450e+01
  -5.411016e+01   1.191974e+01
  -8.982489e+01   1.201077e+01
  -5.795874e+01  -5.635614e+01
   5.625808e+01  -9.429216e+01
   1.269047e+02  -6.086234e+01
   9.450928e+01   4.967433e+01
  -6.149166e+00   1.265604e+02
  -1.915668e+02   7.849939e+01
  -2.108129e+02  -9.958757e+01
  -9.297754e+01  -1.852609e+02
   6.945222e+01  -2.028602e+02
   2.628460e+02  -5.428093e+01
   2.434685e+02   9.100280e+01
   6.204955e+01   1.631233e+02
  -5.421582e+01   1.279091e+02
  -8.449889e+01   7.970760e+01
  -6.784381e+01   5.769911e+01
  -7.239526e+01   8.005027e+01
  -8.074289e+01   7.330352e+01
  -1.282387e+02  -2.832810e+01
  -1.258506e+02  -1.526037e+02
  -5.395300e+01  -2.164981e+02
   1.248991e+02  -1.569216e+02
   1.576762e+02  -1.635188e+01
   1.131989e+02   1.467602e+02
   1.047250e+01   1.530775e+02
  -6.357381e+01   9.411931e+01
  -6.744813e+01  -1.283916e+01
  -1.126178e+00  -6.119146e+01
   2.599633e+01  -3.108278e+01
  -2.627775e+01  -1.833309e+01
  -8.325523e+01  -2.412610e+01
  -4.280175e+01  -3.987653e+01
   7.088680e+01  -2.732069e+01
   1.805004e+02   7.016239e+00
   1.478144e+02   6.604203e+01
  -1.790435e+00   8.786810e+01
  -1.224155e+02   8.783194e+01
  -1.335569e+02  -2.036440e+01
  -3.488898e+01  -4.801054e+01
   6.038733e+01  -4.341280e+01
   8.842695e+01   1.578998e+01
   2.066955e+01   7.464964e+01
  -5.882386e+01   7.124932e+01
  -6.101913e+01  -4.779075e-01
  -5.614528e+01  -5.858288e+01
  -3.982614e+01  -5.359102e+01
  -5.231390e+01   5.211720e+00
  -6.853820e+01   4.896079e+00
  -4.696973e+01  -7.791478e+01
   2.072328e+01  -1.320595e+02
   1.343181e+02  -1.428143e+02
   1.840625e+02  -2.590676e+01
   1.147161e+02   1.066185e+02
   3.612049e+00   1.538610e+02
  -1.073064e+02   5.471563e+01
  -5.753784e+01  -1.617197e+01
   6.016096e+01  -1.476769e+01
   1.362178e+02   4.653318e+01
   6.815939e+01   1.094932e+02
  -8.806629e+01   8.921355e+01
  -1.853249e+02   3.644709e+01
  -1.577467e+02  -5.872477e+01
  -1.809606e+01  -9.337013e+01
   5.670801e+01  -6.476081e+01
   5.459361e+01   5.127011e+00
  -4.209649e+01   3.668018e+01
  -9.088769e+01  -1.206314e+01
  -4.257059e+01  -1.074320e+02
   9.320069e+01  -1.421293e+02
   1.655103e+02  -6.426288e+01
   1.006119e+02   1.034419e+02
   2.547619e+01   1.970440e+02
  -8.928675e+01   1.525560e+02
  -9.982881e+01  -9.862232e+00
  -5.512597e+01  -1.232838e+02
   1.602604e+01  -1.073440e+02
   4.647157e+01  -1.039038e+01
   4.995312e+01   2.880497e+01
   1.876777e+01   5.248605e+00
   6.036446e+00  -1.729635e+01
   2.693676e+01   2.177744e+01
   4.849295e+01   8.420746e+01
   4.265727e+01   1.001539e+02
  -5.586756e+01   3.645299e+01
  -1.366320e+02  -5.325502e+01
  -1.320323e+02  -6.760872e+01
  -2.183296e+01  -5.180935e+01
   7.759329e+01  -2.660667e+01
   8.803763e+01  -1.568966e+00
   1.543027e+01   1.233700e+01
  -3.335303e+01   1.738473e+01
  -2.110012e+01   1.509766e+01
   1.494961e+01  -3.441141e+00
  -3.538952e+00  -5.866562e+00
  -6.291134e+01   6.892134e+00
  -9.348458e+01  -2.331145e+01
  -9.838584e+00  -8.549858e+01
   9.371180e+01  -1.121841e+02
   1.926783e+02  -4.553877e+01
   1.407846e+02   5.321340e+01
   4.067556e+01   1.540122e+02
  -6.715850e+01   1.451285e+02
  -1.172277e+02   7.586913e+01
  -9.136384e+01  -1.535231e+01
  -2.731909e+01  -4.064830e+01
  -5.916241e-01  -1.169909e+01
  -1.385292e+01  -6.652150e+00
  -3.200110e+01  -5.553398e+01
  -6.606424e+00  -9.261888e+01
   2.917532e+01  -6.589124e+01
   8.220945e+01   1.529360e+01
   8.510098e+01   1.026250e+02
  -2.840799e+00   1.107594e+02
  -7.427914e+01   3.132523e+01
  -9.921705e+01  -6.778707e+01
  -3.433067e+01  -9.703209e+01
   5.995134e+01  -6.475821e+01
   1.007893e+02   2.145074e+01
   4.803316e+01   6.318432e+01
  -2.737796e+01   5.545989e+01
  -3.896668e+01   2.320723e+01
   2.730568e+01  -4.156564e+00
   6.829856e+01   4.382556e+00
   1.050723e+01   2.847173e+01
  -8.536237e+01   8.216521e+01
  -1.216739e+02   4.397624e+01
  -6.989788e+01  -2.264334e+01
   2.105202e+01  -8.714254e+01
   6.551537e+01  -6.785338e+01
   4.452292e+01  -1.711074e+01
   1.005843e+01   4.530234e+01
  -2.382603e+01   4.745580e+01
  -3.327590e+01  -1.535861e+01
  -2.930580e+01  -4.552009e+01
   9.636632e-01  -4.285913e+01
   3.487761e+01   3.857979e+00
   3.842464e+01   2.401844e+01
   2.005376e+01   5.938583e+00
  -3.705591e+00  -1.884104e+01
  -7.609760e+00  -6.816555e+00
  -9.209808e-01   2.700001e+01
  -3.258072e+00   4.189962e+01
  -2.665513e+01   1.381666e+01
  -4.033079e+01  -3.462455e+01
  -9.505792e+00  -5.546093e+01
   4.132695e+01  -1.727085e+01
   5.019992e+01   3.884164e+01
   1.607029e+01   6.042264e+01
  -5.162080e+01   2.547341e+01
  -9.611704e+01  -3.015976e+01
  -4.252605e+01  -4.690834e+01
   3.147859e+01  -4.034090e+01
   5.726532e+01  -3.996090e+01
   3.000936e+01  -4.897630e+00
  -2.999857e+01  -3.000321e+00
  -3.087516e+01  -3.009912e+00
   2.193200e+01  -2.299775e+01
   8.898588e+01  -1.199824e+01
