
 $NMID
 id='ANONYMOUS ', fmtdat='(2E16.6)'
 volume=1.0
 tramp=1.0
 $END
   5.063181e+03   7.358861e+02
   2.389717e+03   2.566364e+03
  -1.017749e+03   2.785117e+03
  -2.194718e+03   7.948862e+02
  -7.850275e+02  -8.301813e+02
   1.073492e+03  -5.393521e+02
   9.909273e+02   5.497777e+02
  -1.749239e+02   1.119372e+03
  -8.133218e+02   6.622320e+02
  -8.251077e+02  -2.034641e+02
  -3.920084e+02  -9.859737e+02
   3.456456e+02  -8.445652e+02
   8.283420e+02  -1.525924e+02
   3.240462e+02   7.749689e+02
  -3.834394e+02   7.781966e+02
  -5.938780e+02  -3.493243e+01
  -2.158986e+02  -7.509498e+02
   4.124597e+02  -5.501845e+02
   5.872240e+02   7.676683e+00
   3.697982e+02   4.621929e+02
   2.915117e+00   3.869644e+02
  -2.646310e+02   2.590585e+02
  -2.277999e+02  -3.633090e+01
   1.025897e+02  -8.149473e+01
   4.478500e+02   8.576734e+01
   1.979907e+02   4.654820e+02
  -4.451875e+02   4.593644e+02
  -8.246917e+02  -1.710017e+02
  -4.338090e+02  -5.900604e+02
   4.688847e+02  -4.724556e+02
   6.884797e+02   8.000225e+01
   3.666745e+02   5.120605e+02
  -2.720015e+02   4.675767e+02
  -6.044519e+02   1.781546e+02
  -4.396410e+02  -2.261911e+02
  -3.672873e+01  -5.163905e+02
   2.845995e+02  -3.077793e+02
   2.121078e+02   2.899121e+02
  -2.384543e+02   5.114930e+02
  -4.162983e+02   9.731997e+00
  -3.118063e+02  -7.288215e+02
   2.869179e+02  -6.812575e+02
   6.137822e+02   1.366180e+02
   2.408636e+02   5.980403e+02
  -3.936658e+02   3.619142e+02
  -3.002383e+02  -3.346741e+02
   5.665753e+01  -5.641398e+02
   5.676969e+02  -1.032395e+02
   4.950602e+02   4.352203e+02
   1.052132e+02   5.400643e+02
  -4.500215e+02   3.447047e+02
  -6.041220e+02  -7.715096e+01
  -3.943300e+02  -4.690168e+02
   1.892411e+02  -3.548840e+02
   4.066592e+02  -1.218102e+01
   1.911830e+02   1.961160e+02
  -1.430749e+02   1.058561e+02
  -1.213124e+02  -1.599645e+02
   1.968752e+02  -2.334477e+02
   3.969800e+02   8.327726e+01
   9.187323e+01   2.908028e+02
  -1.839671e+02   1.968259e+02
  -3.376254e+02   9.894272e+00
  -1.659662e+02  -9.223545e+01
   5.636736e+01  -1.971528e+02
   2.392513e+02  -2.933439e+02
   3.865928e+02  -2.245634e+02
   2.697323e+02   1.340978e+02
   7.035974e+01   4.877049e+02
  -1.517605e+02   3.862071e+02
  -1.418959e+02   1.272405e+02
  -2.261747e+01  -5.143305e+01
  -2.219808e+01   5.614753e+01
  -1.785086e+02   1.686385e+02
  -2.869218e+02  -3.713308e+01
  -1.887106e+02  -3.017299e+02
   7.617258e+01  -2.767675e+02
   2.252649e+02  -3.489959e+01
   1.902411e+02   2.729378e+02
  -3.248474e+01   3.080159e+02
  -2.939976e+02   1.231113e+02
  -3.498242e+02  -2.398918e+02
  -1.957376e+02  -4.006115e+02
   9.373224e+01  -2.996563e+02
   2.524080e+02  -9.038395e+01
   1.704441e+02   3.711718e+01
   1.130687e+02  -3.150707e+01
   1.974976e+02  -5.770771e+01
   3.679471e+02   1.191476e+02
   2.978826e+02   3.198860e+02
  -3.205291e+01   4.052146e+02
  -3.724320e+02   3.730854e+02
  -5.488248e+02   1.877443e+02
  -3.433451e+02  -1.051928e+02
  -5.413349e+01  -3.028488e+02
   1.382262e+02  -2.387029e+02
   1.026784e+02  -1.581900e+01
  -1.048648e+02   1.143270e+02
  -2.100326e+02  -7.101316e+00
  -4.631362e+01  -1.943315e+02
   1.727234e+02  -1.571662e+02
   2.185722e+02   7.351440e+01
  -3.171339e+01   1.901043e+02
  -2.198235e+02   5.479901e+01
  -1.562387e+02  -2.857269e+02
   4.315609e+01  -3.530381e+02
   2.115806e+02  -1.617431e+02
   2.844211e+02   5.904915e+01
   2.804667e+02   2.295533e+02
   9.132320e+01   2.403076e+02
  -1.205990e+02   1.767334e+02
  -1.641164e+02   6.967284e+00
  -5.635065e+01  -3.432646e+01
   6.131027e+01   2.335200e+01
   3.079670e+01   1.381645e+02
  -1.472947e+02   1.136821e+02
  -1.955442e+02  -1.662862e+01
  -5.191541e+01  -8.253960e+01
   7.282016e+01  -1.878028e+01
   4.793207e+01   7.155426e+01
  -1.350811e+02   8.075463e+01
  -2.515618e+02  -1.214622e+01
  -2.514105e+02  -1.550948e+02
  -6.910115e+01  -2.940882e+02
   1.936026e+02  -2.446797e+02
   3.320298e+02  -1.910224e+02
   1.932697e+02   6.586456e+01
  -3.696023e+01   1.123229e+02
  -1.035247e+02   1.468273e+01
   3.357282e+01  -1.050570e+02
   2.188976e+02  -4.764411e+01
   2.130148e+02   1.244937e+02
   6.646160e+01   2.121584e+02
  -8.821382e+01   1.635776e+02
  -1.388759e+02   1.023376e+01
  -6.272757e+01  -4.046560e+01
   2.019206e+01  -1.513148e+01
   3.266773e+01   7.611709e+01
  -7.817176e+01   1.175765e+02
  -1.809274e+02   2.602632e+01
  -1.739356e+02  -1.226093e+02
  -2.319744e+01  -2.447496e+02
   1.888373e+02  -1.666604e+02
   1.823825e+02   1.138875e+01
   5.851026e+01   1.181043e+02
  -9.120739e+01   1.053290e+02
  -8.173716e+01   2.884846e+01
  -1.897165e+01  -2.402763e+01
   2.316115e+01  -1.956417e+01
  -9.628525e+00  -1.460764e+00
  -6.742435e+01  -1.084958e+01
  -7.770620e+01  -8.026526e+01
   1.063447e+00  -1.392620e+02
   1.360468e+02  -1.411039e+02
   2.219711e+02  -1.099864e+01
   1.598205e+02   1.657611e+02
   2.192389e+01   2.587476e+02
  -1.293730e+02   1.679303e+02
  -1.224958e+02  -1.570290e+00
  -6.381945e+01  -5.961681e+01
  -1.880586e+01  -3.962415e+01
  -5.254061e+01   6.765064e+00
  -6.750927e+01  -5.792936e+00
  -2.392801e+01  -4.143801e+01
   4.425068e+01  -6.475750e+01
   8.068151e+01  -4.347366e+01
   9.553691e+01   4.137256e+01
  -2.521363e+01   1.045454e+02
  -1.263855e+02   8.428573e+01
  -1.927914e+02  -5.540349e+01
  -1.246811e+02  -2.005259e+02
   1.376805e+02  -2.332265e+02
   2.358147e+02  -7.212033e+01
   2.711739e+02   1.084299e+02
   9.482676e+01   1.647519e+02
  -2.800217e+01   1.180039e+02
  -9.808727e+01   7.204266e+01
  -9.275035e+01   6.070692e+01
  -6.844013e+01   8.465608e+01
  -8.065294e+01   6.100653e+01
  -1.462731e+02  -3.021884e+01
  -1.149875e+02  -1.378653e+02
  -2.359155e+01  -2.533070e+02
   1.204400e+02  -1.681355e+02
   1.698907e+02  -4.141391e+00
   1.050354e+02   1.233952e+02
   1.211306e+00   1.682003e+02
  -6.881356e+01   9.290167e+01
  -6.383747e+01   4.513863e+00
  -1.920310e+00  -3.261925e+01
   3.882553e+00  -3.409098e+01
  -4.048086e+01  -2.313395e+01
  -6.541290e+01  -3.170112e+01
  -4.273485e+01  -3.431572e+01
   5.855590e+01  -3.146577e+01
   1.514392e+02   2.591630e+01
   1.265796e+02   3.738602e+01
   4.409720e+00   8.825382e+01
  -1.185724e+02   4.846174e+01
  -1.354962e+02   1.806165e+01
  -4.778572e+01  -3.303405e+01
   6.440250e+01  -3.705642e+01
   7.958789e+01   1.116452e+01
  -1.007505e-01   6.174674e+01
  -5.021929e+01   4.433655e+01
  -6.328643e+01   7.251561e-01
  -3.394883e+01  -5.868896e+01
  -3.641601e+01  -4.501343e+01
  -6.590109e+01  -1.309375e+00
  -5.718255e+01  -3.236207e+00
  -2.465537e+01  -6.313120e+01
   4.559947e+01  -1.438813e+02
   1.279189e+02  -1.119475e+02
   1.593369e+02  -3.738768e+01
   9.728537e+01   9.072606e+01
  -5.277116e+00   1.143366e+02
  -9.776938e+01   5.018121e+01
  -5.449144e+01  -2.333398e+01
   5.458386e+01  -1.284099e+01
   1.038157e+02   4.183771e+01
   6.567737e+01   1.151733e+02
  -8.994088e+01   1.031700e+02
  -1.957430e+02   5.513221e+01
  -1.719239e+02  -4.882068e+01
  -3.250923e+01  -8.510435e+01
   5.950209e+01  -7.602114e+01
   4.850126e+01  -9.126841e+00
  -3.238275e+01   2.332007e+01
  -7.588770e+01  -2.203097e+01
  -1.564526e+01  -1.127396e+02
   1.082647e+02  -1.507432e+02
   1.569214e+02  -2.897281e+01
   9.829156e+01   1.164165e+02
  -8.148204e+00   1.815824e+02
  -1.003071e+02   1.298023e+02
  -9.609400e+01  -1.981003e+00
  -4.629406e+01  -1.117430e+02
   3.244716e+00  -1.107527e+02
   4.715150e+01  -2.282405e+01
   4.963139e+01   3.789843e+01
   2.740958e+01   6.323026e+00
   4.280673e+00  -2.214847e+01
   1.327592e+01   1.477065e+01
   4.870921e+01   7.734372e+01
   3.957273e+01   9.871961e+01
  -4.778759e+01   4.287214e+01
  -1.326119e+02  -5.254677e+01
  -1.195145e+02  -6.224069e+01
  -1.266612e+01  -4.779006e+01
   9.532541e+01  -2.180135e+01
   9.249397e+01   6.113805e+00
   1.075322e+01   3.402291e+00
  -3.719324e+01   1.664455e+01
  -1.109530e+01   1.885705e+01
   2.224286e+01   1.092924e+00
  -6.179491e+00  -9.569725e+00
  -6.962535e+01  -7.723875e+00
  -8.470412e+01  -2.846394e+01
  -3.211330e+00  -7.499226e+01
   1.313990e+02  -9.358082e+01
   1.849545e+02  -4.155938e+01
   1.237288e+02   7.119506e+01
   2.160899e+01   1.538488e+02
  -1.068937e+02   1.327403e+02
  -1.055258e+02   5.285851e+01
  -7.857218e+01  -2.530768e+01
  -1.897572e+01  -3.627733e+01
   5.609862e+00  -8.128998e+00
  -8.143762e+00  -2.166426e+00
  -2.916453e+01  -4.240136e+01
  -1.762085e+01  -9.165268e+01
   2.390552e+01  -7.927046e+01
   7.245198e+01   2.535889e+01
   6.400953e+01   9.906352e+01
   1.662411e+00   1.145699e+02
  -8.109851e+01   1.249703e+01
  -1.005987e+02  -7.741473e+01
  -8.896065e+00  -9.426760e+01
   5.487510e+01  -4.484534e+01
   9.680164e+01   1.821985e+01
   2.766207e+01   5.675588e+01
  -3.134623e+01   4.368464e+01
  -2.465997e+01   2.481534e+01
   3.614250e+01   8.742179e+00
   6.771589e+01  -5.199661e+00
   1.377128e+01   2.256670e+01
  -7.155344e+01   5.705922e+01
  -1.225909e+02   5.055906e+01
  -5.900958e+01  -1.393587e+01
   3.613052e+01  -8.616823e+01
   6.215031e+01  -6.937610e+01
   3.341397e+01  -3.025358e+00
  -7.711184e-01   5.307575e+01
  -2.488920e+01   3.678026e+01
  -2.844515e+01  -2.865185e+01
  -2.017393e+01  -5.844205e+01
   4.825838e+00  -3.354580e+01
   3.596774e+01   1.601652e+01
   3.614924e+01   2.676560e+01
   1.831674e+01   1.076297e+00
  -1.418833e-01  -1.345739e+01
  -6.026419e+00   5.873581e+00
  -7.864656e+00   3.538500e+01
  -2.415769e+01   3.868243e+01
  -3.227046e+01   5.628807e+00
  -2.455392e+01  -5.190441e+01
   8.187479e+00  -6.307970e+01
   3.791141e+01  -1.594067e+01
   4.233488e+01   4.290205e+01
   1.038775e+01   6.945700e+01
  -5.265999e+01   2.430196e+01
  -8.700476e+01  -1.105689e+01
  -3.859631e+01  -4.441745e+01
   3.212327e+01  -3.826805e+01
   6.260355e+01  -1.401264e+01
   2.291999e+01  -3.643275e+00
  -4.324119e+01  -7.403636e+00
  -3.565335e+01  -1.829960e+01
   4.268529e+01  -3.376192e+01
   8.295995e+01  -1.045114e+01
