
 $NMID
 id='ANONYMOUS ', fmtdat='(2E16.6)'
 volume=1.0
 tramp=1.0
 $END
  -5.232952e+03  -4.364301e+02
  -2.756863e+03  -2.415733e+03
   6.496712e+02  -2.706325e+03
   2.335166e+03  -1.116901e+03
   8.100453e+02   9.997575e+02
  -9.549585e+02   6.713457e+02
  -1.007716e+03  -6.253885e+02
  -5.473496e+01  -1.193480e+03
   8.758879e+02  -6.143689e+02
   9.294812e+02   2.277891e+02
   4.594039e+02   1.050312e+03
  -3.241117e+02   9.219173e+02
  -8.629958e+02   6.618077e+01
  -4.851063e+02  -6.509712e+02
   3.703544e+02  -7.874507e+02
   5.671418e+02   2.761976e+01
   3.541993e+02   6.333165e+02
  -3.215578e+02   5.573596e+02
  -5.276972e+02   1.299698e+02
  -4.620491e+02  -4.392736e+02
  -2.656773e+01  -4.177167e+02
   2.684733e+02  -3.057728e+02
   2.208581e+02   1.672738e+01
  -1.013888e+02   1.296883e+02
  -4.443304e+02  -4.418009e+01
  -2.674974e+02  -4.757281e+02
   4.829768e+02  -5.014710e+02
   8.713184e+02   1.309933e+02
   4.749333e+02   6.598869e+02
  -4.004865e+02   5.216623e+02
  -7.551225e+02  -1.001247e+01
  -3.918526e+02  -4.859937e+02
   2.299659e+02  -4.640100e+02
   6.622586e+02  -2.385641e+02
   4.856105e+02   2.358065e+02
   1.409803e+02   5.052390e+02
  -2.535511e+02   2.935224e+02
  -2.357238e+02  -2.465148e+02
   1.949669e+02  -5.088286e+02
   4.450748e+02   2.609424e+01
   3.087927e+02   7.250904e+02
  -3.040764e+02   7.658143e+02
  -6.537511e+02  -3.168582e+01
  -3.211609e+02  -5.465580e+02
   3.500999e+02  -3.728656e+02
   3.807591e+02   3.086919e+02
  -4.036177e+01   5.858215e+02
  -5.487730e+02   1.043995e+02
  -6.220503e+02  -4.127174e+02
  -1.153556e+02  -6.014435e+02
   4.262894e+02  -4.353956e+02
   6.503300e+02   4.465038e+01
   4.087913e+02   4.586389e+02
  -1.760890e+02   3.926552e+02
  -4.378926e+02   6.284214e+01
  -2.218923e+02  -1.311007e+02
   1.341437e+02  -1.338877e+02
   1.410208e+02   1.496775e+02
  -1.943213e+02   2.609601e+02
  -4.548883e+02  -5.429318e+01
  -1.523985e+02  -2.785969e+02
   1.428796e+02  -2.462823e+02
   3.360784e+02  -7.010871e+01
   2.013193e+02   7.328787e+01
  -2.416104e+01   2.341170e+02
  -2.332008e+02   3.345690e+02
  -3.502242e+02   2.614239e+02
  -2.826219e+02  -1.653129e+02
  -7.216401e+01  -4.708745e+02
   1.226184e+02  -4.163104e+02
   1.423989e+02  -1.412768e+02
   2.604216e+01   4.252401e+01
  -1.190051e+01  -9.256601e+01
   1.576222e+02  -1.848145e+02
   2.911354e+02   4.159402e+01
   1.415721e+02   2.799340e+02
  -7.552783e+01   2.794424e+02
  -2.331191e+02   3.253395e+01
  -2.134547e+02  -2.300340e+02
  -5.158684e+01  -3.435377e+02
   3.031180e+02  -1.636882e+02
   3.696489e+02   1.525657e+02
   2.129534e+02   4.434919e+02
  -1.324368e+02   2.973755e+02
  -2.326989e+02   1.067399e+02
  -1.482055e+02  -1.675377e+01
  -1.021465e+02   3.126518e+01
  -1.801580e+02   5.396811e+01
  -3.851318e+02  -6.402425e+01
  -3.049289e+02  -3.028375e+02
  -3.316434e+01  -4.155816e+02
   3.663141e+02  -4.176420e+02
   5.553925e+02  -2.031830e+02
   3.402521e+02   6.289110e+01
   5.815118e+01   2.825893e+02
  -1.356643e+02   2.780407e+02
  -1.099308e+02   3.222363e+01
   1.151563e+02  -1.190597e+02
   2.131823e+02   7.946339e+00
   7.144869e+01   2.042098e+02
  -1.643417e+02   1.668735e+02
  -2.072501e+02  -8.005281e+01
   4.094141e+00  -2.013649e+02
   2.279771e+02  -6.006581e+01
   1.897890e+02   2.750627e+02
  -5.936835e+00   3.944493e+02
  -1.977448e+02   2.134894e+02
  -2.956565e+02  -2.165116e+01
  -2.714674e+02  -2.209258e+02
  -1.235140e+02  -2.440223e+02
   1.218085e+02  -1.855167e+02
   1.811548e+02  -3.229427e+01
   6.406022e+01   2.682683e+01
  -7.098084e+01  -1.618150e+01
  -3.830823e+01  -1.395449e+02
   1.405994e+02  -1.172280e+02
   1.938776e+02  -1.599295e+01
   6.221773e+01   7.954684e+01
  -7.685782e+01   2.001405e+01
  -6.649405e+01  -6.066963e+01
   1.323036e+02  -1.108461e+02
   2.667543e+02  -3.158349e+01
   2.407807e+02   1.510771e+02
   7.378014e+01   2.883113e+02
  -2.077838e+02   2.955862e+02
  -3.452599e+02   1.998465e+02
  -1.943953e+02  -6.720712e+01
   2.652685e+01  -1.084452e+02
   9.675439e+01  -1.418374e+01
  -2.880752e+01   1.115322e+02
  -2.231679e+02   4.829524e+01
  -2.125433e+02  -1.044878e+02
  -9.629727e+01  -2.084073e+02
   9.647288e+01  -1.712474e+02
   1.379015e+02  -2.499846e+01
   8.034378e+01   2.990098e+01
  -2.368312e+01   1.468758e+01
  -4.243676e+01  -6.714066e+01
   4.769775e+01  -1.102030e+02
   1.820132e+02  -3.871774e+01
   1.887064e+02   1.037305e+02
   1.152040e+01   2.414468e+02
  -1.939855e+02   1.756297e+02
  -1.887601e+02   2.676352e-01
  -6.748653e+01  -1.066321e+02
   7.800209e+01  -1.086788e+02
   8.345101e+01  -3.251952e+01
   2.182424e+01   2.802210e+01
  -2.349423e+01   1.790425e+01
   9.070276e+00   8.528158e-02
   7.358073e+01   3.794293e+00
   8.434461e+01   7.705527e+01
   2.215855e+01   1.369900e+02
  -1.025896e+02   1.660034e+02
  -2.333031e+02   2.070429e+01
  -1.796920e+02  -1.487999e+02
  -3.249387e+01  -2.503411e+02
   1.156674e+02  -1.802294e+02
   1.360661e+02  -2.757328e+01
   8.042518e+01   5.357109e+01
   2.598225e+01   4.050399e+01
   5.556860e+01  -3.170358e+00
   7.947701e+01  -6.423608e+00
   3.405406e+01   4.139007e+01
  -3.414488e+01   7.711998e+01
  -9.229106e+01   4.063381e+01
  -8.134640e+01  -3.716903e+01
   1.536132e+01  -1.213909e+02
   1.298314e+02  -8.130641e+01
   2.012248e+02   1.486278e+01
   1.313021e+02   1.914543e+02
  -1.170703e+02   2.582646e+02
  -2.526144e+02   1.185605e+02
  -2.765384e+02  -7.573077e+01
  -1.151967e+02  -1.836368e+02
   2.263479e+01  -1.425782e+02
   9.872705e+01  -8.064024e+01
   8.361725e+01  -7.633062e+01
   7.233648e+01  -9.959995e+01
   8.445579e+01  -7.255672e+01
   1.583159e+02   3.186697e+01
   1.145276e+02   1.350029e+02
   3.019745e+01   2.659931e+02
  -1.013741e+02   1.788679e+02
  -1.699899e+02   3.266008e+01
  -1.382824e+02  -1.019431e+02
  -8.992362e+00  -1.622412e+02
   6.533179e+01  -1.147804e+02
   6.546672e+01  -8.378677e+00
   4.983485e+00   4.038466e+01
  -7.458810e+00   3.314359e+01
   4.581707e+01   1.917370e+01
   7.241215e+01   2.363380e+01
   4.506861e+01   3.624094e+01
  -5.511140e+01   3.841641e+01
  -1.546082e+02  -7.854731e+00
  -1.350439e+02  -4.683329e+01
  -2.248667e+01  -9.089785e+01
   9.523745e+01  -7.041211e+01
   1.419024e+02  -1.823618e+01
   5.151124e+01   4.166435e+01
  -6.608047e+01   4.501256e+01
  -8.725171e+01  -1.226381e+01
  -9.661610e+00  -6.612595e+01
   5.030526e+01  -4.842354e+01
   6.808048e+01  -2.328971e+00
   4.771674e+01   4.821549e+01
   4.572506e+01   4.761161e+01
   7.404043e+01  -1.488785e+00
   6.008072e+01   3.582403e+00
   3.674833e+01   6.898251e+01
  -4.208713e+01   1.363969e+02
  -1.223398e+02   1.308673e+02
  -1.663232e+02   2.810250e+01
  -1.101429e+02  -8.242098e+01
  -1.411404e+01  -1.106698e+02
   7.901432e+01  -8.177722e+01
   5.295421e+01   2.101727e+01
  -5.360168e+01   1.425219e+01
  -1.262698e+02  -2.629071e+01
  -7.877658e+01  -1.217806e+02
   7.724146e+01  -1.151745e+02
   1.922459e+02  -6.775931e+01
   1.704426e+02   3.462702e+01
   4.426904e+01   8.116522e+01
  -5.232400e+01   7.468578e+01
  -5.059281e+01   1.093643e+01
   3.745930e+01  -2.825749e+01
   8.465448e+01   2.142626e+01
   3.149776e+01   1.176692e+02
  -9.593666e+01   1.639769e+02
  -1.521904e+02   6.044520e+01
  -1.222556e+02  -9.823775e+01
  -1.728464e+01  -1.964835e+02
   9.787463e+01  -1.257335e+02
   1.016503e+02  -1.293219e+00
   7.243675e+01   1.098748e+02
   9.296313e-01   1.020900e+02
  -4.573359e+01   1.700456e+01
  -5.629104e+01  -2.974362e+01
  -2.991734e+01  -5.516852e+00
  -2.653241e+00   2.248011e+01
  -1.191607e+01  -9.865471e+00
  -5.503141e+01  -7.334795e+01
  -6.507240e+01  -1.047086e+02
   3.866054e+01  -4.636634e+01
   1.431952e+02   5.293088e+01
   1.450841e+02   4.600551e+01
   1.678835e+01   4.722177e+01
  -9.074209e+01   2.351448e+01
  -9.102408e+01   6.839732e+00
  -9.601840e+00  -5.089031e+00
   3.895882e+01  -2.044944e+01
   1.137335e+01  -1.873019e+01
  -2.526740e+01   5.890374e-01
   6.570026e+00   1.036218e+01
   7.366730e+01   1.097492e+01
   8.934085e+01   2.184494e+01
   1.060873e+01   7.311076e+01
  -1.122607e+02   1.143926e+02
  -1.903171e+02   5.137100e+01
  -1.428466e+02  -6.146988e+01
  -1.583058e+01  -1.539510e+02
   8.436523e+01  -1.363879e+02
   1.132916e+02  -6.314260e+01
   8.306706e+01   1.839235e+01
   2.257788e+01   3.533246e+01
  -7.119217e+00   9.477938e+00
   9.709807e+00   1.623600e+00
   3.903946e+01   3.947903e+01
   2.222425e+01   9.090593e+01
  -2.778084e+01   7.989474e+01
  -7.429447e+01  -1.852726e+01
  -6.228972e+01  -1.175360e+02
  -6.400868e-01  -1.199924e+02
   7.989513e+01  -2.858170e+01
   1.076141e+02   6.831209e+01
   2.736781e+01   1.001866e+02
  -5.531112e+01   6.138104e+01
  -9.477329e+01  -4.473597e+00
  -3.103352e+01  -5.337577e+01
   3.033290e+01  -5.041689e+01
   2.791292e+01  -2.614754e+01
  -3.721054e+01  -4.237485e+00
  -6.841038e+01   6.345837e+00
  -1.431701e+01  -2.459293e+01
   7.027189e+01  -6.658972e+01
   1.264093e+02  -6.493987e+01
   6.393841e+01   6.767431e+00
  -3.007133e+01   8.663618e+01
  -5.577373e+01   8.612428e+01
  -3.139136e+01   2.298132e+00
   3.232066e+00  -5.067425e+01
   2.642780e+01  -3.958617e+01
   3.552465e+01   2.151843e+01
   2.301568e+01   5.491402e+01
  -7.499625e+00   3.359317e+01
  -3.732414e+01  -1.428678e+01
  -3.851745e+01  -2.018177e+01
  -2.059250e+01  -1.047142e+00
   3.254816e+00   1.294916e+01
   8.271161e+00  -4.126938e+00
   6.066985e+00  -3.858146e+01
   2.586850e+01  -3.985860e+01
   3.254426e+01  -7.180130e+00
   2.763626e+01   5.228861e+01
  -1.221299e+00   6.424772e+01
  -4.275346e+01   1.686287e+01
  -5.040685e+01  -4.287752e+01
  -1.369503e+01  -6.511580e+01
   5.604274e+01  -3.023056e+01
   9.308136e+01   1.108787e+01
   4.424951e+01   3.938442e+01
  -2.642166e+01   3.827976e+01
  -6.413833e+01   1.751963e+01
  -2.372939e+01   5.950315e+00
   4.155478e+01   1.720100e+00
   4.202198e+01   1.492202e+01
  -4.159848e+01   3.348835e+01
  -8.918818e+01   1.581333e+01
