
 $NMID
 id='ANONYMOUS ', fmtdat='(2E16.6)'
 volume=1.0
 tramp=1.0
 $END
   4.815274e+03  -5.833210e+01
   2.973203e+03   2.919556e+03
  -5.975573e+02   2.748801e+03
  -1.915364e+03   1.153487e+03
  -8.116874e+02  -5.872210e+02
   6.290033e+02  -6.852431e+02
   1.129604e+03   4.473492e+02
  -3.228320e+01   1.197421e+03
  -9.122470e+02   8.450061e+02
  -9.436916e+02  -2.319713e+02
  -5.188798e+02  -8.969436e+02
   1.190467e+02  -9.181263e+02
   6.580074e+02  -1.799475e+02
   4.553211e+02   6.698301e+02
  -1.995841e+02   7.635166e+02
  -5.523021e+02   3.664183e+01
  -2.896369e+02  -7.064810e+02
   4.237642e+02  -5.842855e+02
   5.613933e+02  -1.140737e+02
   4.034645e+02   3.157302e+02
   4.674115e+01   4.151044e+02
  -2.786975e+02   2.560124e+02
  -2.196976e+02   3.210388e+01
   1.480030e+02  -1.213490e+02
   4.006658e+02   1.403195e+02
   2.218929e+02   4.339568e+02
  -4.439730e+02   4.318047e+02
  -8.288103e+02  -3.516852e-01
  -3.405270e+02  -4.565426e+02
   4.497245e+02  -4.882624e+02
   7.673209e+02  -7.614417e+00
   3.845116e+02   4.671624e+02
  -1.952558e+02   5.761702e+02
  -6.314358e+02   2.859191e+02
  -4.296259e+02  -2.158591e+02
  -8.610675e+01  -4.977623e+02
   1.903063e+02  -2.709253e+02
   2.193178e+02   1.468368e+02
  -1.420388e+02   4.548021e+02
  -3.905426e+02  -4.505877e+01
  -2.324038e+02  -7.624680e+02
   4.169024e+02  -7.330384e+02
   6.771879e+02  -9.164298e+01
   3.422165e+02   5.906592e+02
  -3.031228e+02   3.106257e+02
  -3.645242e+02  -3.010591e+02
   1.588851e+01  -5.855757e+02
   6.475955e+02  -1.772369e+02
   6.593114e+02   3.832351e+02
   1.021594e+02   5.851411e+02
  -3.297097e+02   3.567018e+02
  -6.144837e+02  -1.146884e+02
  -3.558535e+02  -3.030868e+02
   1.179217e+02  -3.813487e+02
   4.420189e+02  -4.409031e+01
   2.699384e+02   1.900697e+02
  -1.109364e+02   1.043059e+02
  -1.343989e+02  -1.260562e+02
   1.511364e+02  -1.885041e+02
   3.221705e+02   7.389328e+01
   1.291833e+02   3.328898e+02
  -1.378812e+02   2.587662e+02
  -2.802517e+02   1.113447e+02
  -2.335048e+02  -7.714700e+01
   8.217325e+00  -2.210238e+02
   1.984008e+02  -3.223219e+02
   3.512357e+02  -2.469786e+02
   3.169719e+02   1.287342e+02
   3.892591e+01   4.140244e+02
  -1.344507e+02   3.892965e+02
  -1.338070e+02   1.370351e+02
  -2.508092e+01  -2.981303e+01
  -4.033657e+01   7.908660e+01
  -1.813361e+02   1.538806e+02
  -2.776302e+02  -1.917135e+01
  -1.662733e+02  -3.032558e+02
   7.029427e+01  -2.257437e+02
   2.443416e+02  -4.114837e+01
   2.061445e+02   1.871992e+02
   4.088559e+01   3.066696e+02
  -2.506098e+02   1.325576e+02
  -3.990891e+02  -1.478841e+02
  -2.062770e+02  -3.262083e+02
   7.866178e+01  -2.674846e+02
   2.249983e+02  -1.660822e+02
   1.544185e+02  -1.791549e+01
   9.906674e+01  -3.001635e+01
   1.885827e+02  -8.120130e+01
   3.417772e+02   5.707632e+01
   3.043717e+02   3.462966e+02
   5.260310e+00   4.270231e+02
  -3.459720e+02   3.838585e+02
  -4.349797e+02   2.369673e+02
  -3.831781e+02  -4.034364e+01
  -4.600308e+01  -2.984233e+02
   1.445417e+02  -2.570777e+02
   7.786315e+01  -2.912862e+01
  -8.136576e+01   1.014204e+02
  -2.114503e+02   4.862415e+00
  -7.894642e+01  -2.195238e+02
   1.443176e+02  -1.865095e+02
   1.968048e+02   6.022584e+01
  -7.297302e+00   1.912592e+02
  -1.929617e+02   5.248685e+01
  -1.477637e+02  -2.298662e+02
  -1.194999e+01  -3.502333e+02
   2.348247e+02  -1.865858e+02
   3.815291e+02   3.513877e+01
   2.999210e+02   2.223411e+02
   6.002868e+01   2.434944e+02
  -1.224187e+02   1.867294e+02
  -1.668386e+02   4.561409e+01
  -5.428661e+01  -2.027875e+01
   6.050720e+01   2.658329e+01
   1.143511e+01   1.156570e+02
  -1.337951e+02   1.122071e+02
  -1.558694e+02   8.695180e+00
  -5.383097e+01  -6.450246e+01
   8.352450e+01  -1.539405e+01
   6.485711e+01   8.119383e+01
  -1.013956e+02   9.432196e+01
  -2.707052e+02   4.298197e+01
  -2.699001e+02  -1.913727e+02
  -2.978364e+01  -1.870795e+02
   1.580602e+02  -3.054570e+02
   2.538611e+02  -1.193675e+02
   1.544509e+02   4.240844e+01
  -2.433155e+01   1.203467e+02
  -7.998295e+01   9.845140e+00
   2.584429e+01  -1.187508e+02
   1.943024e+02  -8.603020e+01
   2.368665e+02   1.100769e+02
   7.594352e+01   1.829554e+02
  -1.064904e+02   1.427940e+02
  -1.552510e+02   2.237202e+01
  -9.038727e+01  -4.301723e+01
   2.686201e+01   1.485773e-01
   5.936137e+01   7.572589e+01
  -6.786386e+01   1.158628e+02
  -1.801534e+02   4.778483e+01
  -2.018217e+02  -1.020502e+02
  -8.972327e+00  -2.176794e+02
   1.694614e+02  -1.382607e+02
   1.787920e+02  -2.260063e+01
   6.596066e+01   1.282908e+02
  -4.663834e+01   1.060306e+02
  -9.106194e+01   1.847402e+01
  -2.204555e+01  -2.637718e+01
   2.613437e+01  -1.619555e+01
  -1.078739e+01   1.167012e+01
  -6.621974e+01  -1.215627e+01
  -1.010568e+02  -8.540151e+01
  -7.098033e+00  -1.352089e+02
   1.128817e+02  -1.553517e+02
   2.278299e+02  -8.111173e+01
   1.962741e+02   1.114200e+02
   4.109998e+01   2.038190e+02
  -1.001774e+02   1.986544e+02
  -1.466086e+02   3.696525e+01
  -8.602017e+01  -4.528025e+01
  -3.648397e+01  -3.855307e+01
  -5.678409e+01   1.626654e+01
  -8.121014e+01   1.316254e+01
  -2.594442e+01  -5.519568e+01
   2.729518e+01  -8.990005e+01
   1.139898e+02  -5.214260e+01
   8.219374e+01   2.453069e+01
  -1.648396e+01   1.171822e+02
  -1.198682e+02   9.516140e+01
  -1.858352e+02  -4.611777e+01
  -1.426940e+02  -1.907091e+02
   1.202064e+02  -2.156678e+02
   2.569350e+02  -1.188973e+02
   2.667853e+02   1.052090e+02
   1.129151e+02   1.593964e+02
  -3.316788e+01   1.384624e+02
  -6.766957e+01   9.190112e+01
  -8.072938e+01   8.564792e+01
  -6.070332e+01   1.081603e+02
  -8.809774e+01   7.835455e+01
  -1.383455e+02  -1.427352e+01
  -1.419126e+02  -1.429661e+02
  -4.018388e+01  -2.292926e+02
   9.099282e+01  -1.768394e+02
   2.028685e+02  -2.425545e+01
   1.644671e+02   9.603372e+01
   4.975871e+01   1.411059e+02
  -6.460926e+01   1.008321e+02
  -6.726657e+01   5.364523e+00
  -8.782019e+00  -4.531913e+01
   3.422787e+00  -3.590427e+01
  -3.751684e+01  -1.353249e+01
  -7.674800e+01  -1.847970e+01
  -4.337954e+01  -3.077682e+01
   6.815976e+01  -3.306534e+01
   1.553818e+02   5.972404e+00
   1.433383e+02   5.983074e+01
   1.009703e+01   7.787128e+01
  -1.249615e+02   7.027429e+01
  -1.420015e+02   2.263523e+01
  -4.673315e+01  -4.691803e+01
   6.185267e+01  -3.820743e+01
   7.789969e+01   1.118397e+01
   1.389614e+01   6.763781e+01
  -5.565925e+01   6.310070e+01
  -5.619407e+01   4.001648e+00
  -4.541925e+01  -4.083222e+01
  -3.998100e+01  -3.872686e+01
  -6.842374e+01   6.449042e-01
  -6.106493e+01   1.317715e+00
  -3.577259e+01  -6.205628e+01
   4.022685e+01  -1.362481e+02
   1.137481e+02  -1.610512e+02
   1.415111e+02  -4.685652e+01
   1.149393e+02   8.934621e+01
   4.403149e+00   1.333589e+02
  -1.039249e+02   8.279363e+01
  -6.464156e+01  -1.859513e+01
   6.389471e+01  -2.198120e+01
   1.265491e+02   3.181473e+01
   6.247329e+01   9.921605e+01
  -7.527010e+01   1.070574e+02
  -1.842376e+02   7.420123e+01
  -1.944899e+02  -1.845327e+01
  -4.677849e+01  -8.054892e+01
   6.199983e+01  -7.936234e+01
   5.412676e+01  -1.590750e+01
  -3.229375e+01   3.229338e+01
  -7.654225e+01  -3.446903e+01
  -1.374036e+01  -1.214560e+02
   7.669110e+01  -1.690649e+02
   1.637085e+02  -5.620439e+01
   1.196670e+02   6.216219e+01
   9.151769e+00   1.947352e+02
  -7.438656e+01   1.160537e+02
  -8.486906e+01  -8.625145e+00
  -6.108455e+01  -1.081716e+02
  -7.737835e+00  -9.385572e+01
   4.628505e+01  -2.094947e+01
   4.644107e+01   2.930449e+01
   2.869461e+01   8.326135e+00
   1.733611e+00  -2.122081e+01
   1.868540e+01   1.501909e+01
   5.962077e+01   8.145986e+01
   5.273486e+01   1.222669e+02
  -4.295575e+01   4.250901e+01
  -1.063712e+02  -1.315608e+01
  -1.453002e+02  -6.062654e+01
  -9.855039e+00  -4.488283e+01
   9.467965e+01  -2.875224e+01
   9.436005e+01  -7.263654e+00
   1.086333e+01   6.698014e+00
  -3.334029e+01   1.907358e+01
  -1.184160e+01   1.833576e+01
   2.191866e+01  -4.571631e+00
  -6.497457e+00  -7.977526e+00
  -6.895464e+01  -9.082392e+00
  -8.985337e+01  -2.522342e+01
  -6.621130e+00  -8.225142e+01
   1.332343e+02  -1.232319e+02
   1.787497e+02  -4.546143e+01
   1.357461e+02   8.368883e+01
   4.025824e+01   1.639029e+02
  -6.407348e+01   1.649244e+02
  -1.027285e+02   6.604967e+01
  -8.398397e+01  -2.518913e+01
  -2.414366e+01  -3.431343e+01
   2.575185e+00  -1.029785e+01
  -9.669250e+00  -4.776182e+00
  -3.674227e+01  -4.194256e+01
  -2.657168e+01  -8.915269e+01
   2.595472e+01  -7.789270e+01
   8.469877e+01   1.236199e+01
   8.443887e+01   1.077941e+02
   2.765330e+01   9.224302e+01
  -7.397625e+01   2.198392e+01
  -1.094990e+02  -7.511746e+01
  -4.479001e+01  -1.004335e+02
   7.116808e+01  -5.120671e+01
   8.808167e+01   7.638410e+00
   4.320839e+01   4.219675e+01
  -2.463630e+01   5.467483e+01
  -3.336176e+01   2.851709e+01
   3.365466e+01  -8.568218e-01
   6.472106e+01  -1.729930e+01
   1.190518e+01   2.637685e+01
  -6.041966e+01   7.607973e+01
  -1.100673e+02   5.958068e+01
  -6.665046e+01  -1.319513e+01
   6.279312e+00  -8.259892e+01
   4.046011e+01  -8.419377e+01
   3.646083e+01  -7.547843e-01
  -2.072647e+00   5.683585e+01
  -2.553223e+01   4.401528e+01
  -4.222468e+01  -1.273697e+01
  -2.446394e+01  -5.849498e+01
   7.240830e-01  -2.736593e+01
   3.498950e+01   1.031965e+01
   3.010192e+01   9.961222e+00
   2.122694e+01  -8.139571e-01
   1.581095e+00  -1.274275e+01
  -7.545808e+00   4.550556e+00
  -2.694503e+00   3.574233e+01
  -1.568667e+01   4.396347e+01
  -3.048838e+01   8.864098e+00
  -2.680522e+01  -4.352484e+01
  -6.352778e+00  -6.114384e+01
   4.289677e+01  -2.066446e+01
   6.304387e+01   2.915707e+01
   1.564234e+01   6.535443e+01
  -4.990694e+01   2.706355e+01
  -7.928613e+01  -1.227472e+01
  -4.792257e+01  -3.565106e+01
   3.220726e+01  -3.899291e+01
   6.561104e+01  -2.067673e+01
   2.205926e+01  -4.286275e+00
  -4.012131e+01  -6.186801e-02
  -3.971541e+01  -1.757005e+01
   2.692206e+01  -2.834365e+01
   8.121104e+01  -3.263481e+01
