
 $NMID
 id='ANONYMOUS ', fmtdat='(2E16.6)'
 volume=1.0
 tramp=1.0
 $END
  -4.097940e+03   2.135856e+02
  -2.318007e+03  -1.707511e+03
   2.693956e+02  -2.155374e+03
   1.505656e+03  -9.987179e+02
   7.403247e+02  -8.678342e+01
  -3.527452e+02   2.124904e+02
  -6.574941e+02  -2.713201e+02
   9.379475e+01  -7.069447e+02
   3.848977e+02  -6.276313e+02
   5.684983e+02   2.992554e+01
   3.793266e+02   6.994819e+02
  -8.220670e+01   5.630892e+02
  -3.508229e+02   2.432077e+02
  -2.488359e+02  -6.400907e+02
   1.888986e+02  -4.262582e+02
   4.264828e+02  -6.706941e+01
   2.221958e+02   6.269210e+02
  -1.423646e+02   6.873648e+02
  -3.916117e+02   1.394967e+02
  -3.856217e+02  -2.037175e+02
  -9.289316e+01  -3.654518e+02
   1.489598e+02  -2.590163e+02
   1.118462e+02  -4.651353e+01
  -1.651853e+02  -4.673594e+01
  -3.108640e+02  -2.749551e+02
  -3.165718e+01  -4.156589e+02
   4.690842e+02  -1.744019e+02
   6.968274e+02   1.778992e+02
   3.602991e+02   4.737980e+02
  -2.516825e+02   2.927540e+02
  -5.000724e+02  -1.226638e+02
  -2.102707e+02  -3.389137e+02
   2.147792e+02  -3.374854e+02
   5.098431e+02  -1.320876e+02
   3.662331e+02   2.317238e+02
   2.712283e+01   3.856429e+02
  -1.186024e+02   2.213291e+02
  -2.710422e+01  -1.668814e+02
   2.048430e+02  -2.701864e+02
   2.638415e+02   1.323431e+02
  -6.397000e+01   5.052177e+02
  -3.181981e+02   5.227505e+02
  -4.239942e+02  -6.636148e+01
  -1.574455e+02  -4.295570e+02
   1.944953e+02  -2.367589e+02
   2.037090e+02   2.838345e+02
  -1.579804e+02   4.599896e+02
  -4.242129e+02   6.743869e+01
  -4.243447e+02  -4.576722e+02
  -1.217786e+02  -5.636531e+02
   3.164107e+02  -2.818713e+02
   4.900546e+02   5.495584e+01
   3.012688e+02   2.714548e+02
  -7.826844e+01   2.342806e+02
  -3.961924e+02  -5.182759e+01
  -1.657460e+02  -1.003119e+02
   4.474497e+01  -5.864022e+01
   4.945513e+01   9.603585e+01
  -9.513131e+01   9.140870e+01
  -2.335747e+02  -7.283735e+01
  -7.415001e+01  -1.991126e+02
   1.688464e+02  -2.102629e+02
   3.326228e+02  -5.917729e+01
   2.429608e+02   1.029899e+02
  -4.767268e+01   2.777228e+02
  -2.643633e+02   3.819455e+02
  -3.666095e+02   1.736717e+02
  -2.140513e+02  -1.136783e+02
  -7.901313e+01  -3.949434e+02
   1.068227e+02  -3.353483e+02
   5.976061e+01  -1.619411e+02
   3.927517e+01  -6.617510e+01
   1.026728e+02  -1.018978e+02
   2.325488e+02  -9.904335e+01
   2.556276e+02   9.176100e+01
   8.532251e+01   2.860517e+02
  -1.111822e+02   2.349470e+02
  -2.071471e+02  -1.248580e+01
  -1.396409e+02  -2.376167e+02
   6.466561e+01  -2.660831e+02
   2.748595e+02  -1.103493e+02
   2.560600e+02   1.781448e+02
   1.727222e+02   3.276460e+02
  -5.275747e+01   2.404281e+02
  -1.787337e+02   1.270812e+02
  -1.708994e+02   4.865894e+01
  -1.474230e+02   6.610823e+01
  -2.313010e+02   4.521169e+01
  -3.688407e+02  -7.772191e+01
  -3.159102e+02  -3.093418e+02
   3.838127e+01  -4.285638e+02
   3.559256e+02  -3.920284e+02
   4.137678e+02  -1.627498e+02
   2.819788e+02   1.225249e+02
   5.596404e+00   2.385701e+02
  -1.057741e+02   2.539915e+02
  -2.854825e+01   4.046132e+01
   1.283618e+02  -6.833156e+01
   1.272892e+02   3.328015e+01
  -1.493919e+00   1.321491e+02
  -1.429771e+02   1.195169e+02
  -1.334900e+02  -4.356552e+01
   3.488632e+01  -1.288751e+02
   1.608751e+02  -1.257145e+01
   1.474724e+02   2.518635e+02
  -3.691606e+01   3.342310e+02
  -1.938508e+02   1.954681e+02
  -3.142495e+02  -4.035725e+01
  -2.689698e+02  -2.917042e+02
  -5.921352e+01  -2.559506e+02
   1.551808e+02  -1.396590e+02
   1.429141e+02  -1.357146e+01
   3.278707e+01   1.911776e+01
  -4.372966e+01  -6.180901e+01
  -1.963674e+01  -1.248754e+02
   1.232504e+02  -7.352928e+01
   1.460049e+02   4.516884e+01
   4.089926e+01   6.109533e+01
  -6.909526e+01   2.616779e+00
  -3.615561e+01  -7.597906e+01
   1.439588e+02  -9.486010e+01
   2.399901e+02   2.144203e+01
   2.575661e+02   1.366321e+02
   3.346154e+01   3.051425e+02
  -2.045255e+02   2.428075e+02
  -2.651063e+02   1.012246e+02
  -1.728903e+02  -5.478566e+01
   2.485679e+01  -8.056525e+01
   6.347493e+01   4.793509e+00
  -5.433801e+01   8.795637e+01
  -1.783587e+02   2.248910e+01
  -2.074376e+02  -1.205761e+02
  -6.489533e+01  -2.027259e+02
   9.337641e+01  -1.558013e+02
   1.151364e+02   6.971860e+00
   4.418375e+01   3.446975e+01
  -4.022960e+01  -1.234621e+01
  -2.072560e+01  -1.065151e+02
   8.292767e+01  -1.069129e+02
   2.357046e+02  -1.425211e+01
   1.707951e+02   1.521331e+02
   7.928105e+00   2.412680e+02
  -1.825375e+02   1.639565e+02
  -1.482916e+02   1.717496e+01
  -4.964641e+01  -1.054390e+02
   7.965802e+01  -9.200202e+01
   6.517079e+01  -1.908652e+01
   3.790155e+00   2.523454e+01
  -3.224012e+01   7.493710e+00
   4.088576e+00  -1.820930e+01
   6.801163e+01  -4.930174e+00
   1.009364e+02   8.774845e+01
   2.655508e-01   1.589064e+02
  -1.488414e+02   1.534765e+02
  -2.662920e+02  -5.299555e+00
  -1.672093e+02  -1.473407e+02
  -1.547537e+01  -2.308783e+02
   1.213399e+02  -1.460357e+02
   1.340856e+02  -3.514759e+01
   6.698903e+01   4.870537e+01
   3.905294e+01   3.284383e+01
   5.481786e+01  -1.173108e+01
   8.492682e+01  -5.183497e+00
   4.564812e+01   5.080901e+01
  -3.149171e+01   9.084872e+01
  -1.094671e+02   5.144248e+01
  -8.525095e+01  -3.959408e+01
   2.025783e+01  -1.162129e+02
   1.529673e+02  -8.727148e+01
   1.871945e+02   8.806108e+01
   8.744382e+01   2.208307e+02
  -1.102943e+02   2.397896e+02
  -2.277458e+02   5.133825e+01
  -2.347838e+02  -1.260620e+02
  -8.461112e+01  -1.753350e+02
   3.120486e+01  -1.341949e+02
   9.143151e+01  -8.700609e+01
   6.225470e+01  -7.461606e+01
   4.743728e+01  -9.052550e+01
   8.204562e+01  -5.348103e+01
   1.372219e+02   1.986323e+01
   1.262486e+02   1.369192e+02
   1.488179e+01   2.593650e+02
  -7.319416e+01   1.567708e+02
  -1.603598e+02   8.868411e+00
  -9.469614e+01  -1.297899e+02
  -8.600794e+00  -1.519671e+02
   9.112051e+01  -9.272548e+01
   6.159084e+01   1.188883e+01
  -4.408560e-01   4.415269e+01
  -2.541077e+01   3.540584e+01
   2.954136e+01   1.659884e+01
   7.624054e+01   2.917367e+01
   5.014847e+01   4.347306e+01
  -7.561937e+01   3.748895e+01
  -1.736921e+02  -2.248522e+01
  -1.272316e+02  -7.588587e+01
  -8.396335e+00  -9.399747e+01
   1.250433e+02  -7.782600e+01
   1.492075e+02  -1.634288e+01
   3.857388e+01   4.493897e+01
  -6.423489e+01   4.458278e+01
  -8.378381e+01  -2.345681e+01
  -1.491685e+00  -7.054717e+01
   5.574602e+01  -5.481709e+01
   6.944931e+01   1.525769e+00
   5.054065e+01   5.431979e+01
   4.115048e+01   3.924331e+01
   5.459114e+01   5.318357e+00
   5.064519e+01   3.207312e+00
   4.493748e+01   8.184882e+01
  -2.263221e+01   1.374343e+02
  -1.086963e+02   1.319939e+02
  -1.843673e+02   4.030429e+01
  -1.200700e+02  -1.316684e+02
   3.226713e+00  -1.172706e+02
   9.675761e+01  -5.596273e+01
   5.997122e+01   7.266091e+00
  -5.784849e+01   1.943874e+01
  -1.285669e+02  -4.334948e+01
  -5.543216e+01  -9.714887e+01
   8.559372e+01  -1.031291e+02
   1.893763e+02  -4.304457e+01
   1.811256e+02   4.600489e+01
   3.228366e+01   1.013398e+02
  -6.563712e+01   5.550509e+01
  -5.181202e+01  -1.060636e+00
   3.140239e+01  -2.173675e+01
   9.398249e+01   2.350309e+01
   3.062124e+01   1.176895e+02
  -7.125790e+01   1.339746e+02
  -1.245999e+02   8.458495e+01
  -1.212546e+02  -1.001211e+02
   4.211371e+00  -2.118061e+02
   8.577260e+01  -1.442099e+02
   1.008254e+02   2.314114e+01
   4.225794e+01   1.225500e+02
  -1.068277e+00   9.281754e+01
  -5.431590e+01   1.608478e+01
  -4.692727e+01  -3.642909e+01
  -2.296848e+01  -7.508763e+00
  -5.850655e+00   2.163401e+01
  -2.462780e+01  -1.760904e+01
  -5.305176e+01  -8.520543e+01
  -2.292114e+01  -9.685164e+01
   4.920564e+01  -4.534282e+01
   1.255864e+02   3.848787e+01
   9.774373e+01   5.977844e+01
   1.461432e+01   5.210807e+01
  -6.951048e+01   1.264093e+01
  -9.059122e+01   2.122362e+00
  -1.508640e+01  -8.320852e+00
   3.093307e+01  -1.986180e+01
   2.246697e+01  -1.347820e+01
  -1.887064e+01   2.453723e+00
   3.147746e+00   6.551622e+00
   6.146447e+01   1.422253e+00
   8.047416e+01   2.855868e+01
   7.669001e+00   7.941573e+01
  -1.171038e+02   1.063613e+02
  -1.621595e+02   5.900898e+01
  -1.638356e+02  -7.745153e+01
  -3.075504e+01  -1.337457e+02
   9.350217e+01  -1.452967e+02
   1.056852e+02  -6.789598e+01
   6.638262e+01   1.582410e+01
   2.479306e+01   3.697168e+01
   1.604244e+00   1.205792e+01
   1.082747e+01   9.430343e+00
   2.703129e+01   4.642223e+01
   1.633376e+01   8.610153e+01
  -3.061247e+01   7.111817e+01
  -7.389079e+01  -1.722444e+01
  -7.477100e+01  -9.460991e+01
  -1.330284e+01  -1.019225e+02
   7.556795e+01  -2.244831e+01
   1.024846e+02   6.573384e+01
   3.034752e+01   1.004152e+02
  -6.285830e+01   6.055760e+01
  -8.933532e+01   5.502986e+00
  -3.836971e+01  -5.089123e+01
   2.603377e+01  -5.963287e+01
   3.962405e+01  -2.807487e+01
  -2.452570e+01   3.213795e+00
  -5.319732e+01   2.688393e+00
  -1.400560e+01  -2.478287e+01
   6.756274e+01  -5.327397e+01
   9.312149e+01  -4.798448e+01
   6.839700e+01   1.613003e+01
  -4.688284e+00   7.762880e+01
  -6.629700e+01   7.969880e+01
  -4.373767e+01   5.413568e+00
  -3.358844e+00  -4.938197e+01
   2.001325e+01  -4.464845e+01
   3.149447e+01   1.579418e+01
   3.276474e+01   5.397150e+01
   2.041149e-01   3.639673e+01
  -3.434939e+01  -7.335408e+00
  -4.409250e+01  -2.466802e+01
  -1.879494e+01  -1.585714e+00
   6.149693e+00   1.673052e+01
   8.986545e+00   8.971313e+00
  -1.276426e+00  -3.798352e+01
   4.731602e+00  -4.962099e+01
   2.663016e+01  -1.660789e+01
   3.648688e+01   3.495657e+01
   1.520451e+01   5.606765e+01
  -3.233937e+01   2.030420e+01
  -6.129109e+01  -3.917732e+01
  -2.134619e+01  -5.401823e+01
   5.680557e+01  -2.874221e+01
   9.443403e+01   1.126024e+01
   5.138332e+01   5.458078e+01
  -2.672251e+01   4.513183e+01
  -5.493856e+01   2.788581e+01
  -2.596635e+01   4.647738e+00
   2.580888e+01  -7.096299e-01
   3.751638e+01   1.127061e+01
  -2.380805e+01   2.875446e+01
  -7.428514e+01   1.729267e+01
