
 $NMID
 id='ANONYMOUS ', fmtdat='(2E16.6)'
 volume=1.0
 tramp=1.0
 $END
   4.376644e+03  -2.562706e+02
   2.271921e+03   2.501254e+03
  -5.007080e+02   2.656317e+03
  -2.296556e+03   9.211200e+02
  -8.990432e+02  -5.432610e+02
   5.056543e+02  -4.431154e+02
   8.914278e+02   4.782956e+02
   5.926709e+01   1.100003e+03
  -7.013867e+02   7.623318e+02
  -8.565973e+02  -1.294287e+01
  -4.336646e+02  -8.444140e+02
   1.494259e+02  -7.965565e+02
   6.288340e+02  -1.314796e+02
   3.950010e+02   6.636890e+02
  -2.303692e+02   7.244589e+02
  -5.114552e+02   4.459563e+01
  -2.338407e+02  -6.875763e+02
   3.875949e+02  -6.330142e+02
   5.157221e+02  -1.210512e+02
   4.127170e+02   2.904596e+02
   4.791166e+01   4.012728e+02
  -2.687075e+02   2.662449e+02
  -1.877347e+02   3.103957e+01
   1.141069e+02  -7.392482e+01
   3.778727e+02   7.942873e+01
   1.892253e+02   3.882754e+02
  -3.875318e+02   4.325544e+02
  -8.151826e+02  -2.269061e+01
  -4.965930e+02  -5.541450e+02
   4.063123e+02  -4.983134e+02
   7.282729e+02   4.360454e+01
   3.711742e+02   5.041988e+02
  -2.206547e+02   4.991365e+02
  -5.898931e+02   2.400408e+02
  -4.171241e+02  -2.582274e+02
  -1.118113e+02  -4.859633e+02
   2.278168e+02  -3.190274e+02
   1.925147e+02   2.228325e+02
  -1.079581e+02   3.892079e+02
  -4.432018e+02  -9.549936e+00
  -2.017324e+02  -5.925596e+02
   2.724164e+02  -6.205663e+02
   5.896612e+02  -2.414954e+01
   2.136694e+02   4.606520e+02
  -3.376508e+02   3.409322e+02
  -3.818108e+02  -2.733102e+02
   8.460570e+01  -5.393296e+02
   5.049285e+02  -1.428953e+02
   4.866064e+02   3.251028e+02
   2.014938e+02   5.602365e+02
  -3.831968e+02   3.296080e+02
  -5.259281e+02  -7.292554e+01
  -3.949325e+02  -3.780642e+02
   1.263742e+02  -3.512277e+02
   4.301594e+02  -1.021401e+02
   2.273641e+02   1.734811e+02
  -1.217695e+02   1.360152e+02
  -1.638805e+02  -1.449418e+02
   1.546346e+02  -2.051194e+02
   3.502813e+02   6.484733e+01
   1.047704e+02   2.029125e+02
  -1.556143e+02   2.285009e+02
  -3.131702e+02   1.054995e+02
  -1.780549e+02  -7.652531e+01
   1.502412e+01  -2.033038e+02
   1.863854e+02  -2.374750e+02
   3.567114e+02  -2.551349e+02
   2.791215e+02   8.366488e+01
   9.679771e+01   4.860541e+02
  -1.116397e+02   3.661034e+02
  -1.044952e+02   1.133388e+02
  -1.595252e+01  -3.124763e+01
  -2.175197e+00   6.488756e+01
  -1.620335e+02   1.193102e+02
  -2.603805e+02  -1.796495e+01
  -1.596626e+02  -2.596190e+02
   6.107909e+01  -2.505144e+02
   2.016173e+02  -3.061636e+01
   2.082138e+02   2.210593e+02
   3.222549e+01   2.903214e+02
  -2.374024e+02   1.098127e+02
  -3.015871e+02  -9.986390e+01
  -2.289813e+02  -3.386665e+02
   1.065658e+02  -2.850200e+02
   1.929465e+02  -1.126633e+02
   1.281982e+02  -1.694356e+01
   9.472952e+01  -2.630321e+01
   1.854894e+02  -7.702628e+01
   3.287400e+02   1.700640e+01
   3.120781e+02   2.540925e+02
   1.539607e+01   3.834662e+02
  -4.347309e+02   4.021750e+02
  -4.111919e+02   2.241342e+02
  -3.037272e+02  -8.792765e+01
  -6.979427e+01  -2.605721e+02
   1.274695e+02  -2.463763e+02
   7.793364e+01  -4.462304e+01
  -1.091105e+02   1.219417e+02
  -1.949172e+02   2.165916e+01
  -6.123775e+01  -1.833119e+02
   1.582311e+02  -1.894278e+02
   1.812600e+02   5.819927e+01
   1.022339e+01   1.964184e+02
  -1.713943e+02   3.419387e+01
  -1.851322e+02  -2.302984e+02
   2.016928e+01  -3.332954e+02
   1.711128e+02  -2.127193e+02
   2.875811e+02   4.436385e+01
   3.180469e+02   2.071005e+02
   8.993449e+01   2.412443e+02
  -8.693234e+01   1.623537e+02
  -1.398725e+02   3.291254e+01
  -5.637718e+01  -2.449613e+01
   6.353752e+01   2.937468e+01
   3.486434e+01   1.190303e+02
  -1.091499e+02   1.177327e+02
  -1.560739e+02  -9.586539e+00
  -5.525835e+01  -6.087187e+01
   7.149111e+01  -2.296333e+01
   5.847537e+01   5.946185e+01
  -1.256045e+02   7.528415e+01
  -2.504015e+02   1.114211e+01
  -2.490146e+02  -9.828526e+01
  -5.329367e+01  -2.521017e+02
   1.478625e+02  -2.794757e+02
   2.823231e+02  -1.431508e+02
   1.879152e+02   6.681341e+01
  -2.227513e+01   9.789313e+01
  -8.981902e+01   8.038077e+00
   1.475621e+01  -9.607165e+01
   1.784678e+02  -8.885942e+01
   1.888278e+02   1.048297e+02
   7.138978e+01   1.983509e+02
  -1.103893e+02   1.547411e+02
  -1.184277e+02   3.486589e+01
  -6.040692e+01  -2.851715e+01
   1.749178e+01  -1.105007e+01
   4.061652e+01   6.777874e+01
  -6.677833e+01   9.479996e+01
  -1.582275e+02   4.212195e+01
  -1.750119e+02  -9.744464e+01
  -2.162002e+01  -1.894248e+02
   1.485163e+02  -1.851579e+02
   1.904219e+02  -2.191862e+01
   5.897017e+01   1.016230e+02
  -4.439573e+01   1.143778e+02
  -7.107774e+01   3.177474e+01
  -2.124213e+01  -2.420826e+01
   1.617655e+01  -1.624109e+01
  -8.472864e+00   3.207504e+00
  -6.344988e+01  -1.340709e+01
  -9.533256e+01  -7.120339e+01
  -2.511507e+00  -1.190616e+02
   1.351932e+02  -1.785844e+02
   2.354318e+02  -6.318323e+01
   2.201728e+02   1.123543e+02
   5.691005e+01   2.512018e+02
  -8.821842e+01   1.464306e+02
  -1.326992e+02   2.994747e+01
  -5.925371e+01  -4.506742e+01
  -2.707602e+01  -3.797549e+01
  -4.898882e+01   1.217021e+01
  -8.086082e+01   1.651330e+01
  -3.370501e+01  -3.881490e+01
   3.770532e+01  -6.501482e+01
   8.077334e+01  -4.552891e+01
   7.938972e+01   2.881184e+01
  -1.613143e+01   1.025488e+02
  -1.209499e+02   7.723101e+01
  -1.847553e+02  -4.071805e+01
  -8.256575e+01  -1.727594e+02
   1.004573e+02  -2.372258e+02
   2.323148e+02  -9.183248e+01
   2.391886e+02   8.272176e+01
   1.028216e+02   1.738913e+02
  -3.124429e+01   1.287896e+02
  -9.336512e+01   7.764288e+01
  -7.748454e+01   6.548363e+01
  -7.471632e+01   8.207359e+01
  -7.740334e+01   7.380673e+01
  -1.348393e+02  -1.305898e+01
  -9.262980e+01  -1.541279e+02
  -3.965249e+01  -2.130919e+02
   8.825536e+01  -1.841314e+02
   1.450232e+02  -2.208461e+01
   1.138995e+02   8.937027e+01
   3.830312e+01   1.417153e+02
  -6.851345e+01   9.904285e+01
  -6.233640e+01   8.532612e+00
  -1.067974e+01  -2.960044e+01
   4.069215e+00  -3.070331e+01
  -3.682655e+01  -2.053370e+01
  -7.737696e+01  -1.080997e+01
  -4.193115e+01  -3.608700e+01
   5.236794e+01  -3.470084e+01
   1.624468e+02  -6.075829e+00
   1.325483e+02   3.562160e+01
   2.850964e+01   9.884513e+01
  -1.109649e+02   6.568531e+01
  -1.436069e+02   2.055445e+01
  -5.512183e+01  -3.953268e+01
   6.112547e+01  -2.956449e+01
   7.571647e+01   1.556657e+01
   8.211368e+00   6.850706e+01
  -4.845513e+01   5.434976e+01
  -6.542412e+01  -1.097195e+01
  -4.507803e+01  -4.315780e+01
  -5.183400e+01  -3.987778e+01
  -6.510674e+01  -1.995625e+00
  -6.120228e+01   9.301260e+00
  -2.933877e+01  -6.255228e+01
   2.242692e+01  -1.358204e+02
   9.896914e+01  -1.527310e+02
   1.448763e+02  -2.276930e+01
   1.029867e+02   6.838930e+01
   1.369521e+01   1.087555e+02
  -8.223581e+01   5.940720e+01
  -5.471736e+01  -9.813246e+00
   5.117966e+01  -2.440637e+01
   1.087962e+02   3.184147e+01
   8.499010e+01   9.670856e+01
  -7.237929e+01   9.677987e+01
  -1.810089e+02   5.974109e+01
  -1.645931e+02  -3.397302e+01
  -3.357246e+01  -8.164043e+01
   5.687512e+01  -7.064200e+01
   4.551915e+01  -3.301445e+00
  -3.084298e+01   2.774208e+01
  -8.501689e+01  -2.098936e+01
  -2.699782e+01  -1.095393e+02
   8.430139e+01  -1.383004e+02
   1.561097e+02  -6.092054e+01
   1.348122e+02   7.353293e+01
   8.587990e+00   1.856495e+02
  -7.765358e+01   1.464982e+02
  -1.010389e+02  -2.774008e+00
  -5.432927e+01  -1.084776e+02
  -4.134402e+00  -1.131957e+02
   4.254851e+01  -2.330956e+01
   5.898487e+01   2.867945e+01
   2.215534e+01   8.903542e+00
   2.688099e+00  -2.054242e+01
   1.400964e+01   6.652957e+00
   5.515078e+01   8.961142e+01
   3.770967e+01   9.494131e+01
  -4.298459e+01   3.984318e+01
  -1.288730e+02  -1.523052e+01
  -1.165939e+02  -5.379262e+01
  -2.011218e+01  -4.146041e+01
   7.578468e+01  -2.357874e+01
   8.632831e+01  -7.786118e+00
   7.624674e+00   6.117737e+00
  -3.332843e+01   2.629955e+01
  -9.686161e+00   1.824222e+01
   2.056771e+01  -1.843100e+00
  -6.121948e+00  -8.841995e+00
  -6.457877e+01  -2.127934e+00
  -8.278177e+01  -1.271149e+01
  -1.934404e+01  -6.897403e+01
   1.051634e+02  -1.113564e+02
   1.625438e+02  -7.692637e+01
   1.255035e+02   6.747395e+01
   3.748077e+01   1.471407e+02
  -5.493701e+01   1.560300e+02
  -1.000637e+02   4.433110e+01
  -5.719755e+01  -1.397855e+01
  -3.144278e+01  -3.640246e+01
   2.951665e+00  -8.006448e+00
  -1.004770e+01  -2.336276e+00
  -3.518449e+01  -3.966203e+01
  -2.623345e+01  -9.957677e+01
   2.445553e+01  -5.741809e+01
   6.487962e+01   1.438194e+01
   6.171483e+01   9.698182e+01
   4.790498e+00   1.077024e+02
  -7.663448e+01   3.153175e+01
  -9.927252e+01  -6.899043e+01
  -2.954682e+01  -8.246708e+01
   5.933344e+01  -5.631133e+01
   9.284560e+01   4.503466e+00
   3.360856e+01   3.780385e+01
  -2.677385e+01   4.578656e+01
  -2.795210e+01   2.523389e+01
   3.023761e+01  -1.510926e+00
   6.000870e+01  -6.200535e+00
   1.346233e+01   2.313266e+01
  -6.570104e+01   6.442944e+01
  -1.104349e+02   5.193627e+01
  -6.024323e+01  -8.563681e+00
   1.034071e+01  -8.317279e+01
   3.732771e+01  -8.001241e+01
   3.367084e+01  -2.771844e+00
   2.258963e+00   5.048966e+01
  -1.997352e+01   4.004614e+01
  -3.324306e+01  -1.047173e+01
  -1.912794e+01  -5.016584e+01
   3.202439e+00  -3.118289e+01
   3.475449e+01   9.065912e+00
   3.487545e+01   1.778773e+01
   1.884223e+01  -1.811731e+00
  -7.572695e-01  -1.234538e+01
  -7.931320e+00   1.853427e+00
  -1.262457e+01   3.484992e+01
  -1.811344e+01   4.651521e+01
  -3.174534e+01   7.694591e+00
  -2.457404e+01  -3.981704e+01
   7.669501e+00  -5.540781e+01
   3.411971e+01  -2.072068e+01
   5.063651e+01   3.149409e+01
   1.632745e+01   5.813987e+01
  -4.091866e+01   3.522919e+01
  -7.818034e+01  -1.479748e+01
  -4.549596e+01  -3.941878e+01
   2.515582e+01  -3.525016e+01
   5.483259e+01  -1.866633e+01
   2.146073e+01  -4.347837e+00
  -3.807121e+01  -3.214216e-01
  -3.597330e+01  -1.939240e+01
   2.981177e+01  -3.022029e+01
   8.060519e+01  -1.544178e+01
