
 $NMID
 id='ANONYMOUS ', fmtdat='(2E16.6)'
 volume=1.0
 tramp=1.0
 $END
   4.476247e+03  -5.814437e+00
   1.979780e+03   1.933894e+03
  -5.111306e+02   2.580585e+03
  -1.718154e+03   6.071704e+02
  -6.313514e+02  -6.100173e+02
   5.929346e+02  -6.646202e+02
   7.549466e+02   4.799212e+02
   4.521332e+01   1.037777e+03
  -6.433906e+02   7.708063e+02
  -8.092971e+02  -3.481702e+01
  -3.962590e+02  -6.656328e+02
   2.655005e+02  -7.616898e+02
   5.811336e+02  -7.260757e+01
   3.653644e+02   6.027227e+02
  -2.169085e+02   7.162014e+02
  -5.195654e+02   4.116521e+01
  -2.857524e+02  -6.366907e+02
   2.377571e+02  -5.300206e+02
   5.399947e+02  -5.168630e+01
   3.331754e+02   2.970589e+02
  -4.295892e+00   3.528759e+02
  -1.995681e+02   2.518620e+02
  -1.623294e+02  -5.074257e+00
   6.384215e+01  -1.338194e+02
   3.442258e+02   7.925848e+01
   1.914068e+02   3.206779e+02
  -3.929955e+02   4.282291e+02
  -7.274482e+02   2.009826e+00
  -4.833794e+02  -4.655094e+02
   3.986506e+02  -5.064319e+02
   5.908272e+02  -1.787968e+01
   3.215553e+02   4.124103e+02
  -2.089176e+02   4.280665e+02
  -5.034960e+02   2.337655e+02
  -3.661220e+02  -2.191090e+02
  -7.721755e+01  -4.160174e+02
   1.816228e+02  -2.994304e+02
   1.926539e+02   2.010966e+02
  -7.884499e+01   3.330203e+02
  -3.768701e+02   3.113171e+01
  -3.191786e+02  -5.037836e+02
   2.591167e+02  -5.808570e+02
   4.525528e+02  -1.035478e+02
   2.893959e+02   4.312488e+02
  -2.753230e+02   2.485483e+02
  -2.990458e+02  -1.656248e+02
   5.673532e+01  -4.784267e+02
   4.252270e+02  -1.435894e+02
   5.203527e+02   2.194456e+02
   1.668269e+02   5.448652e+02
  -2.973158e+02   3.322111e+02
  -4.557382e+02  -2.722140e+01
  -3.512107e+02  -3.391990e+02
   1.285054e+02  -3.167282e+02
   3.899585e+02  -4.518854e+01
   2.068750e+02   1.407595e+02
  -1.089203e+02   1.088575e+02
  -1.536023e+02  -1.477272e+02
   1.467372e+02  -2.292633e+02
   3.326536e+02   6.650999e+01
   1.413812e+02   2.246634e+02
  -1.345398e+02   2.238078e+02
  -2.500733e+02   7.011151e+01
  -1.296008e+02  -6.346120e+01
   7.261307e+00  -1.616351e+02
   9.326318e+01  -2.421165e+02
   3.234844e+02  -2.198650e+02
   2.824066e+02   6.571796e+01
   1.198561e+02   3.998472e+02
  -9.255251e+01   2.779349e+02
  -1.355225e+02   8.488007e+01
  -3.666969e+00  -4.361564e+01
  -1.766050e+01   3.991711e+01
  -1.230565e+02   1.363479e+02
  -2.291862e+02   2.451553e+00
  -1.532788e+02  -1.882479e+02
   2.939808e+01  -2.177253e+02
   1.763815e+02  -3.508761e+01
   1.800325e+02   1.854719e+02
   1.970099e+01   2.382279e+02
  -2.039082e+02   1.256924e+02
  -3.058353e+02  -1.076442e+02
  -1.410290e+02  -3.027110e+02
   4.386815e+01  -2.197646e+02
   1.762338e+02  -1.024954e+02
   1.296618e+02  -1.159671e+01
   7.605956e+01  -2.940167e+01
   1.739444e+02  -6.182682e+01
   2.510156e+02  -5.126421e+00
   2.917515e+02   2.335195e+02
   2.000709e+01   3.476857e+02
  -2.496811e+02   3.726511e+02
  -3.419989e+02   1.801240e+02
  -2.677638e+02  -9.490361e+01
  -6.575063e+01  -2.415000e+02
   1.063114e+02  -2.314500e+02
   7.582920e+01  -2.337475e+01
  -9.448542e+01   1.177111e+02
  -1.765503e+02   3.165302e+01
  -7.494003e+01  -1.546207e+02
   1.179807e+02  -1.702791e+02
   1.505082e+02   7.167583e+01
  -8.254541e+00   1.817838e+02
  -1.757264e+02   4.177613e+01
  -1.544436e+02  -1.827864e+02
   1.391519e+01  -3.179694e+02
   1.535820e+02  -1.594606e+02
   2.341962e+02   5.370511e+01
   2.443383e+02   1.929274e+02
   7.913566e+01   1.872110e+02
  -6.389955e+01   1.356265e+02
  -1.352207e+02   3.013088e+01
  -5.132650e+01  -2.107071e+01
   6.028731e+01   2.142357e+01
   4.467922e+01   1.091581e+02
  -1.114890e+02   9.966150e+01
  -1.474382e+02  -4.099833e-01
  -6.050789e+01  -5.327425e+01
   5.099552e+01  -2.499056e+01
   5.509312e+01   4.126043e+01
  -9.914348e+01   5.825834e+01
  -2.367575e+02   2.456624e+01
  -1.992350e+02  -5.587992e+01
  -7.190679e+01  -2.128454e+02
   1.471274e+02  -2.342681e+02
   2.661868e+02  -1.319745e+02
   1.862995e+02   3.840360e+01
  -1.160498e+01   1.004223e+02
  -8.638645e+01   1.101139e+01
   1.499084e+01  -8.866738e+01
   1.854270e+02  -5.810159e+01
   1.822700e+02   8.159221e+01
   8.585295e+01   1.583684e+02
  -7.176771e+01   1.260997e+02
  -1.090228e+02   3.341163e+01
  -5.618962e+01  -3.303707e+01
   2.352880e+01  -4.828845e+00
   2.650196e+01   4.737201e+01
  -3.035676e+01   7.944451e+01
  -1.583190e+02   3.675321e+01
  -1.549049e+02  -6.965653e+01
  -5.102443e+01  -1.738319e+02
   1.245770e+02  -1.664738e+02
   1.530275e+02  -1.626132e+01
   7.278824e+01   1.064371e+02
  -5.335608e+01   1.087423e+02
  -5.634281e+01   2.687681e+01
  -2.220452e+01  -2.150964e+01
   9.672700e+00  -1.685934e+01
  -1.338956e+01   1.083439e+00
  -5.536551e+01  -1.570329e+01
  -6.344062e+01  -5.931604e+01
  -3.211995e+01  -9.526545e+01
   9.198038e+01  -1.274959e+02
   1.944822e+02  -2.730324e+01
   1.855276e+02   8.918187e+01
   5.146663e+01   1.889084e+02
  -6.814207e+01   1.301100e+02
  -1.150734e+02   2.509726e+01
  -5.533449e+01  -3.253030e+01
  -2.384901e+01  -2.724167e+01
  -3.459519e+01   1.200911e+01
  -7.322527e+01   1.462933e+01
  -2.645654e+01  -2.569847e+01
   2.931045e+01  -5.239600e+01
   5.110358e+01  -4.858497e+01
   7.358129e+01   7.422309e+00
  -7.888925e+00   6.387563e+01
  -8.681208e+01   3.155462e+01
  -1.422139e+02  -3.792818e+01
  -6.958542e+01  -1.576067e+02
   7.599668e+01  -2.033459e+02
   2.423250e+02  -9.772107e+01
   2.239252e+02   7.660070e+01
   8.481126e+01   1.252042e+02
  -2.386252e+01   9.473101e+01
  -5.643125e+01   6.454935e+01
  -6.300314e+01   6.410403e+01
  -5.005381e+01   7.100126e+01
  -7.779387e+01   5.020890e+01
  -1.035996e+02  -1.271088e+01
  -1.014250e+02  -9.627884e+01
  -2.212632e+01  -1.719298e+02
   6.415026e+01  -1.676276e+02
   1.292949e+02  -4.082325e+01
   1.199358e+02   6.329965e+01
   3.200518e+01   1.130462e+02
  -5.057723e+01   7.859093e+01
  -4.912645e+01   7.499672e+00
  -1.359085e+01  -2.326900e+01
   7.706732e-01  -3.050283e+01
  -3.437711e+01  -1.379208e+01
  -6.172384e+01  -1.470267e+01
  -3.091664e+01  -2.432251e+01
   5.107263e+01  -3.045200e+01
   1.276294e+02  -2.182846e+01
   1.054896e+02   4.086775e+01
   2.967884e+01   7.631121e+01
  -7.248566e+01   6.116404e+01
  -1.155970e+02   1.063180e+01
  -4.308593e+01  -3.142799e+01
   5.040484e+01  -3.562335e+01
   6.820559e+01   1.799177e+01
   2.109867e+00   5.371802e+01
  -4.156778e+01   4.438096e+01
  -4.936066e+01  -8.892127e+00
  -3.495567e+01  -3.702956e+01
  -3.677707e+01  -3.530579e+01
  -4.957569e+01   4.255684e+00
  -5.612118e+01   7.243418e+00
  -3.309656e+01  -5.349390e+01
   2.018168e+01  -1.106472e+02
   9.384250e+01  -1.472224e+02
   1.262333e+02  -3.762607e+01
   1.033931e+02   5.536350e+01
   1.376294e+01   8.540179e+01
  -6.211676e+01   6.292468e+01
  -4.584251e+01  -7.258112e+00
   4.104773e+01  -1.285514e+01
   1.137281e+02   2.371992e+01
   7.214867e+01   8.626262e+01
  -5.564252e+01   9.527019e+01
  -1.371622e+02   5.109690e+01
  -1.239817e+02  -7.770402e+00
  -2.887478e+01  -6.216329e+01
   3.986455e+01  -6.675469e+01
   3.479990e+01  -1.448066e+01
  -2.493454e+01   2.590631e+01
  -7.127193e+01  -1.055939e+01
  -3.648309e+01  -7.970672e+01
   5.146062e+01  -1.218170e+02
   1.278203e+02  -6.365517e+01
   1.237327e+02   6.606147e+01
   1.551504e+01   1.659333e+02
  -5.090810e+01   1.057194e+02
  -9.648635e+01  -5.890460e+00
  -5.995016e+01  -9.722568e+01
  -4.762954e-01  -8.797357e+01
   3.666571e+01  -1.891203e+01
   4.665431e+01   2.709218e+01
   2.227013e+01   5.977934e+00
   3.172725e+00  -1.882914e+01
   1.005300e+01   8.103074e+00
   4.471572e+01   7.773919e+01
   4.103385e+01   8.379433e+01
  -3.242016e+01   4.039759e+01
  -1.317406e+02  -2.662343e+01
  -9.928669e+01  -4.943630e+01
  -1.692130e+01  -4.098786e+01
   6.609699e+01  -2.429671e+01
   7.273553e+01  -1.996444e+01
   4.450579e+00   4.841145e+00
  -2.928141e+01   2.000552e+01
  -6.574397e+00   1.614952e+01
   2.022641e+01  -2.111072e+00
  -5.898949e+00  -7.479842e+00
  -5.295640e+01  -1.110752e+00
  -7.911665e+01  -2.544400e+01
  -1.811477e+00  -5.734661e+01
   9.554658e+01  -8.449353e+01
   1.571530e+02  -5.792174e+01
   1.128949e+02   3.762835e+01
   2.865738e+01   1.504049e+02
  -4.656585e+01   1.243043e+02
  -7.132213e+01   5.063385e+01
  -5.620172e+01  -8.619564e+00
  -2.611785e+01  -2.933778e+01
   1.751670e+00  -6.251304e+00
  -7.419347e+00  -1.779273e+00
  -2.705089e+01  -2.934181e+01
  -2.483839e+01  -7.893715e+01
   2.330441e+01  -5.155463e+01
   6.209685e+01   1.729176e+01
   5.179365e+01   6.324258e+01
   4.658892e-01   8.885450e+01
  -6.183347e+01   2.975942e+01
  -8.438074e+01  -6.060862e+01
  -2.400474e+01  -7.548144e+01
   5.436483e+01  -4.983763e+01
   7.573950e+01   1.572073e+01
   3.227383e+01   3.366460e+01
  -2.101483e+01   3.891573e+01
  -2.116798e+01   2.521792e+01
   3.483234e+01   5.372545e-01
   4.880024e+01  -7.289784e+00
   9.693040e+00   1.726724e+01
  -5.828720e+01   4.477089e+01
  -8.851769e+01   4.832102e+01
  -4.718159e+01  -3.714466e+00
   3.818223e+00  -6.606646e+01
   2.983750e+01  -7.165797e+01
   2.498974e+01  -4.331863e-01
  -1.072256e+00   4.404170e+01
  -1.870312e+01   3.912731e+01
  -3.073403e+01  -1.078385e+01
  -2.070567e+01  -4.000393e+01
  -1.511998e+00  -2.256819e+01
   2.694733e+01   8.289043e+00
   3.229497e+01   1.642593e+01
   1.639559e+01   1.169010e+00
  -8.909955e-01  -1.021568e+01
  -4.921509e+00   6.751461e-01
  -5.686508e+00   2.913498e+01
  -1.555551e+01   3.343462e+01
  -2.521818e+01   2.624347e+00
  -2.526824e+01  -3.167384e+01
   1.002103e+01  -4.324034e+01
   3.811388e+01  -1.488925e+01
   5.153633e+01   3.531544e+01
   1.907214e+01   4.645043e+01
  -3.631880e+01   2.917057e+01
  -7.293205e+01  -2.041952e+01
  -3.582394e+01  -3.162507e+01
   2.133795e+01  -3.569458e+01
   4.387581e+01  -1.783747e+01
   1.594176e+01  -1.198098e+00
  -3.696665e+01  -4.127379e+00
  -3.273241e+01  -9.916399e+00
   2.361066e+01  -3.213216e+01
   6.437170e+01  -1.879659e+01
