
 $NMID
 id='ANONYMOUS ', fmtdat='(2E16.6)'
 volume=1.0
 tramp=1.0
 $END
  -4.433342e+03  -6.688015e+01
  -2.258664e+03  -3.453159e+03
   9.087948e+02  -3.063590e+03
   2.283170e+03  -9.497402e+02
   1.082080e+03   7.697456e+02
  -9.081098e+02   3.674687e+02
  -8.757435e+02  -7.723661e+02
   3.614007e+02  -1.189047e+03
   9.900566e+02  -7.480974e+02
   1.053539e+03   2.769949e+02
   2.190310e+02   1.008186e+03
  -1.883335e+02   9.265071e+02
  -6.331529e+02   9.451107e+01
  -3.089966e+02  -9.470229e+02
   1.767780e+02  -7.604037e+02
   6.727678e+02   9.048109e+01
   1.537466e+02   7.505751e+02
  -3.896611e+02   6.427907e+02
  -5.461265e+02   4.719275e+01
  -3.381143e+02  -3.968121e+02
   1.408899e+01  -4.603408e+02
   3.078135e+02  -2.636527e+02
   2.020601e+02   5.908586e+00
  -1.469452e+02   1.390563e+02
  -4.263167e+02  -1.385636e+02
  -2.199211e+02  -4.683414e+02
   4.714075e+02  -4.672295e+02
   9.735142e+02   4.942181e+01
   4.321841e+02   6.650802e+02
  -5.355496e+02   4.429782e+02
  -8.209901e+02  -1.056308e+02
  -2.987001e+02  -5.476550e+02
   2.695505e+02  -5.891556e+02
   6.479591e+02  -1.211070e+02
   4.769144e+02   2.619140e+02
   4.781362e+01   5.653251e+02
  -3.171995e+02   2.537108e+02
  -1.630146e+02  -2.833806e+02
   2.030980e+02  -4.738306e+02
   4.644235e+02   2.588748e+01
   3.483203e+02   7.531727e+02
  -4.418840e+02   6.923949e+02
  -6.947358e+02  -1.988349e-01
  -2.342851e+02  -6.509134e+02
   3.691922e+02  -2.892624e+02
   4.308095e+02   3.774649e+02
  -1.113799e+02   6.393000e+02
  -6.330821e+02   1.714592e+02
  -6.934459e+02  -4.342819e+02
  -8.750871e+01  -6.083861e+02
   4.197675e+02  -3.418093e+02
   7.054982e+02   1.718633e+02
   4.419798e+02   4.289976e+02
  -1.927303e+02   3.938491e+02
  -5.706222e+02  -2.919843e+01
  -2.362665e+02  -2.084510e+02
   1.248396e+02  -1.225414e+02
   1.558581e+02   1.756803e+02
  -2.078930e+02   1.933943e+02
  -3.444562e+02  -8.296071e+01
  -1.194918e+02  -3.421518e+02
   1.918018e+02  -2.844361e+02
   3.251868e+02  -5.313890e+01
   1.754865e+02   8.465447e+01
   2.092121e+01   2.302168e+02
  -2.537018e+02   3.455861e+02
  -3.953893e+02   2.201903e+02
  -3.217017e+02  -1.523449e+02
  -1.110165e+02  -4.611253e+02
   2.355725e+02  -4.494711e+02
   1.444487e+02  -9.009098e+01
  -1.663020e+00   2.870702e+01
   3.303122e+01  -1.045499e+02
   1.741132e+02  -1.679032e+02
   2.749050e+02   5.004443e+01
   1.564317e+02   3.088549e+02
  -5.119774e+01   2.737015e+02
  -2.395986e+02  -1.100715e+01
  -1.935917e+02  -2.501907e+02
   7.962868e+00  -3.186821e+02
   2.805917e+02  -1.287138e+02
   3.700717e+02   1.915724e+02
   2.000281e+02   3.646537e+02
  -1.130613e+02   2.953929e+02
  -2.492728e+02   1.395180e+02
  -1.792453e+02  -3.220376e+01
  -1.088163e+02   1.494952e+01
  -2.233590e+02   5.394423e+01
  -3.802051e+02  -4.294552e+01
  -3.542940e+02  -3.110964e+02
   7.000638e+00  -5.094889e+02
   4.098062e+02  -3.877996e+02
   5.411896e+02  -1.826383e+02
   3.326863e+02   1.055903e+02
   5.968799e+01   3.003516e+02
  -1.699964e+02   2.265157e+02
  -1.010893e+02   1.785992e+01
   1.388300e+02  -1.252497e+02
   2.056691e+02  -7.677486e-02
   3.952096e+01   2.296143e+02
  -2.173815e+02   2.028187e+02
  -1.974536e+02  -8.253565e+01
   1.699576e+01  -2.214165e+02
   2.037685e+02  -1.629749e+01
   1.515628e+02   2.753276e+02
  -1.747288e+01   3.447639e+02
  -2.758245e+02   1.644855e+02
  -3.297117e+02  -1.249956e+02
  -2.453180e+02  -2.831936e+02
  -8.195073e+01  -2.867243e+02
   1.337507e+02  -1.670660e+02
   2.022351e+02  -2.082426e+01
   6.501948e+01   3.700202e+01
  -6.535112e+01  -3.718463e+01
  -2.606479e+01  -1.471327e+02
   1.393404e+02  -1.040234e+02
   1.982766e+02   2.871535e+01
   6.688575e+01   9.470627e+01
  -6.954896e+01   2.539590e+01
  -6.822603e+01  -6.501923e+01
   1.220864e+02  -7.956551e+01
   2.939147e+02   2.133226e+01
   2.556150e+02   1.303213e+02
   8.797416e+01   3.110126e+02
  -1.856665e+02   3.004415e+02
  -3.075658e+02   1.291118e+02
  -1.820044e+02  -4.237523e+01
   4.749863e+01  -1.195704e+02
   8.688747e+01  -8.333246e+00
  -2.590475e+01   1.096930e+02
  -2.204581e+02   8.705662e+01
  -2.206188e+02  -1.380932e+02
  -7.454397e+01  -2.313596e+02
   1.039318e+02  -1.625973e+02
   1.774838e+02  -5.659849e+00
   7.634463e+01   5.422593e+01
  -3.059163e+01   4.422772e+00
  -3.729269e+01  -8.340114e+01
   8.389933e+01  -1.101311e+02
   1.997251e+02  -4.776949e+01
   1.987685e+02   1.272251e+02
   2.485977e+01   2.671045e+02
  -2.141363e+02   1.676147e+02
  -2.118381e+02   1.038174e+01
  -5.502602e+01  -1.378076e+02
   8.328659e+01  -1.192886e+02
   1.004558e+02  -2.798271e+01
   1.944315e+01   2.972484e+01
  -2.110227e+01   2.101676e+01
   4.732388e+00  -6.452276e+00
   7.626860e+01   1.540860e+01
   8.007176e+01   9.274029e+01
   1.590211e+01   1.488850e+02
  -1.330473e+02   1.370690e+02
  -2.085439e+02   3.637328e+01
  -2.138141e+02  -1.560573e+02
  -3.874546e+01  -2.808098e+02
   1.074912e+02  -1.680326e+02
   1.544974e+02  -2.998481e+01
   6.826172e+01   6.244176e+01
   2.631401e+01   4.000240e+01
   5.631706e+01  -7.775656e+00
   7.471542e+01  -2.226126e+00
   4.355545e+01   5.478770e+01
  -3.542856e+01   8.850264e+01
  -1.027881e+02   6.054969e+01
  -8.070507e+01  -4.193612e+01
   1.254065e+01  -1.096679e+02
   1.468395e+02  -8.195877e+01
   1.846032e+02   5.506206e+01
   9.318974e+01   1.770975e+02
  -1.362907e+02   2.131152e+02
  -2.706178e+02   6.390466e+01
  -2.465190e+02  -1.048322e+02
  -1.033633e+02  -1.375888e+02
   6.498453e+01  -1.538975e+02
   8.531249e+01  -9.084084e+01
   8.300800e+01  -6.353963e+01
   7.381890e+01  -7.709508e+01
   1.059731e+02  -6.058762e+01
   1.219293e+02   3.410895e+01
   1.108286e+02   1.532989e+02
   2.874383e+01   2.557205e+02
  -1.401900e+02   1.782089e+02
  -1.803898e+02  -7.727309e+00
  -1.489609e+02  -1.104022e+02
  -1.253645e+01  -1.847368e+02
   7.538751e+01  -8.955965e+01
   6.182280e+01   4.550368e+00
   5.854055e+00   4.321606e+01
  -5.634964e+00   3.626155e+01
   3.822364e+01   2.637402e+01
   7.929922e+01   2.506212e+01
   4.761594e+01   4.378148e+01
  -5.272930e+01   3.697084e+01
  -1.626889e+02  -1.124268e+01
  -1.552384e+02  -4.097617e+01
  -2.046946e+01  -9.058336e+01
   1.248419e+02  -7.554572e+01
   1.434063e+02  -3.775009e+00
   4.793723e+01   4.206029e+01
  -6.642202e+01   2.309301e+01
  -8.600851e+01  -1.525412e+01
  -4.566786e-01  -7.054931e+01
   5.724146e+01  -4.881175e+01
   5.750246e+01   6.424307e+00
   4.416438e+01   4.169343e+01
   4.614578e+01   3.954207e+01
   5.757394e+01   4.986620e+00
   6.767523e+01   2.982883e+00
   3.384664e+01   7.168605e+01
  -3.570689e+01   1.298420e+02
  -1.387223e+02   1.387696e+02
  -1.629496e+02   3.625412e+01
  -1.249946e+02  -9.373132e+01
  -6.626853e+00  -1.286663e+02
   8.577435e+01  -5.325150e+01
   5.632970e+01   2.103238e+01
  -6.259324e+01   1.617084e+01
  -1.330810e+02  -4.451764e+01
  -6.491723e+01  -1.296388e+02
   6.885387e+01  -1.173409e+02
   1.907973e+02  -5.529703e+01
   1.587911e+02   4.992212e+01
   3.737208e+01   8.404930e+01
  -6.338420e+01   7.397911e+01
  -5.320472e+01   8.093517e+00
   3.873711e+01  -2.072182e+01
   9.194090e+01   3.561353e+01
   2.775944e+01   1.173365e+02
  -1.066122e+02   1.397572e+02
  -2.149256e+02   4.788212e+01
  -1.073937e+02  -1.064491e+02
  -5.257471e+00  -2.013117e+02
   9.178664e+01  -1.510231e+02
   1.157330e+02   1.344198e+01
   7.042942e+01   1.296637e+02
  -1.852448e+01   1.051417e+02
  -4.667869e+01   2.227089e+01
  -5.375722e+01  -3.458712e+01
  -2.722690e+01  -1.003302e+01
  -5.409789e+00   1.912886e+01
  -1.704537e+01  -1.131907e+01
  -5.790673e+01  -9.381985e+01
  -4.046781e+01  -1.123176e+02
   4.046844e+01  -4.773075e+01
   1.502130e+02   5.123447e+01
   1.241449e+02   8.394974e+01
   1.999244e+01   4.989028e+01
  -9.516040e+01   1.210107e+01
  -8.921431e+01   5.422857e+00
  -9.648788e+00  -7.192374e+00
   4.161196e+01  -2.157108e+01
   2.007148e+01  -2.307818e+01
  -2.240651e+01  -8.117164e-01
   6.409936e+00   1.037453e+01
   8.482218e+01   7.643872e+00
   8.830028e+01   3.496525e+01
   4.008401e+00   8.435841e+01
  -1.516863e+02   9.120025e+01
  -1.665303e+02   4.723082e+01
  -1.361390e+02  -9.908053e+01
  -1.509012e+01  -1.721506e+02
   9.839715e+01  -1.216781e+02
   1.181453e+02  -4.579625e+01
   7.690014e+01   3.051677e+01
   2.509926e+01   3.362627e+01
  -4.949490e+00   6.558421e+00
   9.654869e+00   4.850504e+00
   2.705344e+01   4.391004e+01
   1.862698e+01   9.108829e+01
  -3.295490e+01   6.929140e+01
  -8.410328e+01  -2.560641e+01
  -7.037369e+01  -1.089386e+02
  -4.779604e+00  -1.130481e+02
   8.361628e+01  -1.841730e+01
   1.025205e+02   8.747433e+01
   2.503949e+01   9.933204e+01
  -7.385249e+01   4.883193e+01
  -8.686971e+01  -1.059937e+01
  -4.458158e+01  -5.082069e+01
   3.086324e+01  -3.953741e+01
   2.324306e+01  -2.577185e+01
  -3.737418e+01  -3.964649e+00
  -6.983855e+01   6.596233e+00
  -1.343186e+01  -2.409844e+01
   8.905691e+01  -6.077987e+01
   1.230250e+02  -5.032686e+01
   5.103675e+01   1.540022e+01
  -1.061491e+01   8.444683e+01
  -5.179942e+01   8.248691e+01
  -3.771041e+01   1.753191e+00
   6.305011e-01  -6.205671e+01
   2.659520e+01  -3.678809e+01
   3.229833e+01   2.121587e+01
   2.345985e+01   5.759060e+01
  -5.192997e+00   3.514384e+01
  -2.976090e+01  -1.345838e+01
  -3.745158e+01  -2.522300e+01
  -2.174450e+01  -1.210659e-01
  -3.718071e-01   1.282052e+01
   8.289946e+00  -6.605932e+00
   1.428566e+01  -3.615299e+01
   2.146253e+01  -3.861282e+01
   2.857845e+01  -8.237096e-01
   2.300322e+01   5.204562e+01
  -3.641341e+00   6.649809e+01
  -4.677977e+01   1.290518e+01
  -4.686147e+01  -3.836650e+01
  -1.663507e+01  -5.923784e+01
   5.784074e+01  -3.213233e+01
   8.441212e+01   1.695199e+01
   4.890038e+01   3.643399e+01
  -3.991087e+01   3.864842e+01
  -6.900737e+01   1.531284e+01
  -2.424518e+01  -2.012618e-01
   4.404702e+01   4.732090e+00
   3.434401e+01   2.327328e+01
  -3.032920e+01   3.418370e+01
  -9.099209e+01   1.294964e+01
