
 $NMID
 id='ANONYMOUS ', fmtdat='(2E16.6)'
 volume=1.0
 tramp=1.0
 $END
   4.381877e+03   1.733283e+02
   2.199563e+03   2.971974e+03
  -9.864311e+02   3.056026e+03
  -2.244990e+03   1.119762e+03
  -9.508005e+02  -8.177369e+02
   9.139421e+02  -5.377356e+02
   9.996502e+02   6.571980e+02
  -1.778111e+02   1.066528e+03
  -9.732378e+02   7.972151e+02
  -9.186767e+02  -2.650081e+02
  -2.752569e+02  -8.123412e+02
   1.926715e+02  -8.978923e+02
   6.386755e+02  -1.021590e+02
   3.458683e+02   7.725186e+02
  -2.800105e+02   8.033681e+02
  -6.634327e+02  -6.998876e+01
  -1.722881e+02  -7.322038e+02
   4.073045e+02  -5.997796e+02
   5.286454e+02  -6.980959e+01
   3.643557e+02   4.153395e+02
  -8.074451e+00   4.863009e+02
  -2.899791e+02   2.282462e+02
  -2.242578e+02  -1.227622e+01
   1.359849e+02  -1.733526e+02
   4.482665e+02   1.094409e+02
   2.685596e+02   4.033174e+02
  -3.613377e+02   4.425460e+02
  -9.434732e+02  -1.480486e+02
  -4.788974e+02  -6.509606e+02
   5.626171e+02  -4.553870e+02
   8.133707e+02   1.066077e+01
   2.719412e+02   5.403582e+02
  -2.379883e+02   5.935804e+02
  -6.260674e+02   1.462061e+02
  -4.189945e+02  -2.418285e+02
  -5.148402e+01  -5.626393e+02
   2.887148e+02  -2.611219e+02
   1.954905e+02   2.869495e+02
  -1.464060e+02   4.677565e+02
  -4.757724e+02   1.305709e+00
  -2.448765e+02  -7.609021e+02
   4.073760e+02  -6.922974e+02
   6.784828e+02  -4.350722e+01
   2.359729e+02   6.495565e+02
  -2.941919e+02   2.527543e+02
  -4.146378e+02  -3.742051e+02
   1.379863e+02  -6.730730e+02
   5.745004e+02  -2.181090e+02
   6.633332e+02   4.653483e+02
   1.131632e+02   5.333869e+02
  -4.258368e+02   3.958508e+02
  -6.289254e+02  -1.366420e+02
  -3.979758e+02  -4.431785e+02
   2.150020e+02  -3.671474e+02
   5.381377e+02  -3.998420e+00
   2.382187e+02   2.704780e+02
  -1.325698e+02   1.333091e+02
  -1.762971e+02  -1.830565e+02
   2.042901e+02  -2.069305e+02
   3.421260e+02   1.049649e+02
   1.143100e+02   3.596605e+02
  -2.054337e+02   2.787426e+02
  -3.520333e+02   8.353909e+01
  -1.887176e+02  -8.310283e+01
   1.582836e+01  -2.321488e+02
   2.573332e+02  -3.240948e+02
   3.479372e+02  -2.223225e+02
   3.033508e+02   1.569850e+02
   1.179882e+02   4.571309e+02
  -1.775958e+02   4.320106e+02
  -1.489668e+02   8.283462e+01
  -9.273190e+00  -3.739935e+01
  -8.125914e+00   1.009665e+02
  -1.636347e+02   1.586225e+02
  -3.028690e+02  -3.046623e+01
  -1.406120e+02  -3.005933e+02
   6.712492e+01  -2.826897e+02
   2.294060e+02  -2.058828e+01
   1.953791e+02   2.220909e+02
   1.843720e+01   3.344082e+02
  -2.534260e+02   1.412558e+02
  -3.654584e+02  -1.811645e+02
  -1.885972e+02  -3.678389e+02
   8.409246e+01  -3.409333e+02
   2.165876e+02  -1.314202e+02
   1.711833e+02   2.339914e+01
   1.014114e+02  -2.690365e+01
   2.487522e+02  -4.287478e+01
   3.607665e+02   2.364447e+01
   3.390224e+02   3.381577e+02
  -6.762463e+00   4.879038e+02
  -3.566330e+02   3.740631e+02
  -5.248573e+02   2.453830e+02
  -3.341174e+02  -9.422597e+01
  -5.269754e+01  -2.901399e+02
   1.272790e+02  -2.714749e+02
   9.797740e+01  -2.675867e+01
  -1.262432e+02   9.373606e+01
  -2.144634e+02   1.671571e+01
  -5.719754e+01  -2.317400e+02
   2.102030e+02  -1.891923e+02
   2.012724e+02   7.567769e+01
  -1.246867e+01   2.086998e+02
  -2.197219e+02   2.598079e+01
  -1.730546e+02  -2.654948e+02
  -8.168000e+00  -3.270023e+02
   2.592786e+02  -1.913212e+02
   3.109649e+02   7.739921e+01
   2.566641e+02   2.494981e+02
   6.190133e+01   2.738594e+02
  -1.074148e+02   1.798467e+02
  -2.012952e+02   3.841758e+01
  -6.229076e+01  -3.469450e+01
   7.019245e+01   3.279340e+01
   1.347685e+01   1.424686e+02
  -1.515976e+02   9.850021e+01
  -1.915456e+02  -2.316003e+01
  -6.589128e+01  -7.856625e+01
   8.363909e+01  -2.928111e+01
   6.124275e+01   7.687505e+01
  -9.343044e+01   9.503457e+01
  -2.756158e+02   5.829568e+00
  -2.361282e+02  -1.203809e+02
  -7.309254e+01  -2.809538e+02
   1.784470e+02  -2.777726e+02
   2.790940e+02  -1.451186e+02
   1.697124e+02   3.366298e+01
  -3.871814e+01   1.182495e+02
  -8.617570e+01   1.778363e+01
   2.492966e+01  -1.122541e+02
   2.295841e+02  -6.974826e+01
   2.237806e+02   1.365166e+02
   8.767432e+01   2.403053e+02
  -8.797555e+01   1.670293e+02
  -1.625299e+02   2.406117e+01
  -7.260626e+01  -5.183047e+01
   2.237840e+01  -9.353272e+00
   3.595880e+01   6.382787e+01
  -6.948702e+01   1.241027e+02
  -1.955143e+02   3.898304e+01
  -2.201205e+02  -1.494782e+02
  -1.148870e+01  -2.391396e+02
   2.075296e+02  -1.486903e+02
   2.166497e+02  -2.796300e+01
   5.248393e+01   1.307684e+02
  -7.779974e+01   1.088452e+02
  -1.010126e+02   2.971867e+01
  -2.469526e+01  -3.177045e+01
   1.705033e+01  -2.288672e+01
  -6.590299e+00   2.608239e+00
  -6.890395e+01  -2.400310e+01
  -9.222060e+01  -8.055049e+01
  -1.952701e+01  -1.424743e+02
   1.320993e+02  -1.408825e+02
   2.328552e+02  -4.484759e+01
   2.138667e+02   1.498517e+02
   5.199121e+01   2.699830e+02
  -1.046036e+02   1.675037e+02
  -1.410876e+02   1.994989e+01
  -7.559075e+01  -5.045251e+01
  -3.256114e+01  -4.069444e+01
  -5.537841e+01   6.282577e+00
  -7.470202e+01  -9.280028e-01
  -3.398662e+01  -5.151533e+01
   3.709247e+01  -8.140553e+01
   1.097879e+02  -4.640309e+01
   7.962188e+01   3.590315e+01
  -1.179893e+01   9.903083e+01
  -1.342701e+02   1.039550e+02
  -1.875885e+02  -5.089890e+01
  -1.036068e+02  -1.695194e+02
   1.174150e+02  -2.031000e+02
   2.788071e+02  -9.251489e+01
   2.248000e+02   1.090072e+02
   1.025234e+02   1.573893e+02
  -4.979452e+01   1.555198e+02
  -7.680093e+01   1.045931e+02
  -7.471095e+01   6.306295e+01
  -5.526866e+01   8.704176e+01
  -1.001109e+02   6.619687e+01
  -1.199505e+02  -1.940119e+01
  -1.173911e+02  -1.504602e+02
  -5.024959e+01  -2.422909e+02
   1.037467e+02  -1.653689e+02
   1.643736e+02  -2.155949e+00
   1.549298e+02   1.134889e+02
   4.368498e+01   1.645607e+02
  -5.727022e+01   1.054912e+02
  -6.017885e+01  -3.292091e+00
  -3.586693e+00  -4.073693e+01
   3.969038e+00  -3.967560e+01
  -4.133054e+01  -2.708606e+01
  -7.313753e+01  -2.758265e+01
  -4.358483e+01  -4.102002e+01
   5.318241e+01  -3.004066e+01
   1.501492e+02   1.100140e+01
   1.449150e+02   4.801345e+01
   1.659389e+01   8.675383e+01
  -1.104184e+02   7.146642e+01
  -1.471823e+02   1.732643e+01
  -4.824472e+01  -3.806045e+01
   6.479990e+01  -2.142605e+01
   8.610528e+01   1.933338e+01
   3.081631e+00   6.982974e+01
  -6.297908e+01   5.299152e+01
  -5.967386e+01  -1.834439e+00
  -4.289240e+01  -4.570964e+01
  -4.654390e+01  -4.591991e+01
  -5.909629e+01  -4.915197e+00
  -6.604407e+01   6.080089e-01
  -3.826376e+01  -6.706923e+01
   1.542657e+01  -1.288206e+02
   1.385505e+02  -1.362759e+02
   1.751351e+02  -4.063772e+01
   1.308104e+02   1.037710e+02
   4.245190e+00   1.187474e+02
  -8.914577e+01   5.897263e+01
  -5.454721e+01  -2.227518e+01
   6.129278e+01  -2.125643e+01
   1.359840e+02   4.674050e+01
   7.270935e+01   1.098552e+02
  -7.067710e+01   1.313411e+02
  -1.691296e+02   4.774185e+01
  -1.562179e+02  -4.698543e+01
  -4.201450e+01  -8.115909e+01
   7.037038e+01  -7.790210e+01
   5.149138e+01  -8.623835e+00
  -3.553308e+01   2.519175e+01
  -7.823239e+01  -2.224236e+01
  -3.631159e+01  -1.208626e+02
   8.333244e+01  -1.307744e+02
   1.955714e+02  -5.291261e+01
   1.335539e+02   9.349119e+01
   8.223523e+00   2.132773e+02
  -9.239011e+01   1.546853e+02
  -1.050635e+02  -1.380069e+01
  -4.904323e+01  -1.289851e+02
  -1.201543e+00  -9.793883e+01
   4.408505e+01  -2.108880e+01
   5.051329e+01   3.396868e+01
   2.614925e+01   1.076065e+01
   3.301020e+00  -2.072178e+01
   1.855222e+01   1.065454e+01
   5.910161e+01   9.358171e+01
   3.276726e+01   1.119469e+02
  -3.970118e+01   4.694119e+01
  -1.522434e+02  -3.736344e+01
  -1.335405e+02  -8.080386e+01
  -2.016920e+01  -4.908770e+01
   8.195662e+01  -2.100093e+01
   8.389158e+01   1.606134e-01
   1.109459e+01   7.716544e+00
  -3.796715e+01   2.042039e+01
  -1.652736e+01   2.208411e+01
   2.260495e+01   2.627181e-01
  -5.340532e+00  -1.014151e+01
  -8.255419e+01  -1.324438e+01
  -7.747495e+01  -2.852846e+01
  -1.599172e+00  -8.407135e+01
   1.338005e+02  -9.893758e+01
   1.644798e+02  -5.337215e+01
   1.180038e+02   8.218829e+01
   1.655810e+01   1.615099e+02
  -7.964146e+01   1.368245e+02
  -1.186509e+02   6.473005e+01
  -8.226980e+01  -2.283468e+01
  -2.020051e+01  -3.448682e+01
   6.448846e+00  -7.206596e+00
  -9.087048e+00  -4.596314e+00
  -3.105761e+01  -3.812659e+01
  -2.313154e+01  -9.158056e+01
   2.631192e+01  -6.059565e+01
   7.418844e+01   1.789844e+01
   7.370280e+01   9.965157e+01
   8.270413e+00   1.149068e+02
  -8.058675e+01   1.896309e+01
  -9.871878e+01  -8.469986e+01
  -1.592040e+01  -1.069591e+02
   6.377629e+01  -4.350999e+01
   8.151228e+01   6.978364e+00
   4.081717e+01   4.912235e+01
  -2.833713e+01   4.580446e+01
  -2.286462e+01   2.859737e+01
   3.968481e+01   1.762405e-01
   7.363251e+01  -8.142813e+00
   1.429285e+01   1.978113e+01
  -8.254409e+01   6.720744e+01
  -1.136450e+02   4.834464e+01
  -6.145306e+01  -1.224123e+01
   5.764759e+00  -8.417015e+01
   5.081443e+01  -9.046888e+01
   3.826151e+01   8.733316e-01
  -4.021876e+00   5.842214e+01
  -1.998931e+01   3.363311e+01
  -3.034767e+01  -2.040323e+01
  -2.366732e+01  -5.153097e+01
   2.597341e+00  -3.508021e+01
   3.108856e+01   1.032503e+01
   3.723531e+01   2.167331e+01
   1.873689e+01  -1.141083e+00
   1.492296e+00  -1.259422e+01
  -8.261693e+00   6.666147e+00
  -1.139479e+01   3.529981e+01
  -1.846397e+01   4.191236e+01
  -2.886377e+01   3.586855e+00
  -2.808313e+01  -4.786420e+01
   6.806143e+00  -6.341187e+01
   4.054694e+01  -1.522850e+01
   4.916350e+01   2.468032e+01
   1.911059e+01   6.084754e+01
  -5.327070e+01   3.237507e+01
  -7.555569e+01  -1.777454e+01
  -4.681885e+01  -3.915532e+01
   3.128183e+01  -3.527892e+01
   7.378735e+01  -2.262546e+01
   2.576091e+01  -2.062312e-01
  -4.225181e+01  -3.409224e+00
  -3.359466e+01  -2.035068e+01
   3.281543e+01  -3.074039e+01
   9.656018e+01  -1.858581e+01
