
 $NMID
 id='ANONYMOUS ', fmtdat='(2E16.6)'
 volume=1.0
 tramp=1.0
 $END
   3.386963e+03   3.479438e+02
   2.020497e+03   2.264499e+03
   1.209816e+01   2.343155e+03
  -2.141980e+03   9.077004e+02
  -9.503246e+02  -1.511327e+02
   5.277271e+02  -2.849134e+02
   4.891028e+02   5.420173e+02
  -5.957208e+01   8.987013e+02
  -5.619440e+02   5.445983e+02
  -7.359834e+02  -5.824619e+01
  -3.572545e+02  -7.338149e+02
   2.110392e+02  -7.871762e+02
   5.145943e+02  -1.292792e+02
   2.766213e+02   6.561598e+02
  -3.470432e+02   6.557982e+02
  -5.138968e+02  -4.283245e+01
  -1.372300e+02  -6.088129e+02
   2.207799e+02  -5.687981e+02
   4.996574e+02  -1.437707e+02
   3.505824e+02   2.893404e+02
   8.912102e+01   3.700880e+02
  -1.416608e+02   2.330799e+02
  -1.418362e+02   3.859058e+01
   1.688349e+02  -1.038839e+01
   3.382460e+02   2.112525e+02
   1.882845e+02   3.997356e+02
  -3.438956e+02   3.263680e+02
  -8.092993e+02  -1.593631e+02
  -3.409762e+02  -4.450299e+02
   4.407551e+02  -2.441142e+02
   6.400640e+02   1.504968e+02
   2.570596e+02   3.686954e+02
  -2.162017e+02   4.412866e+02
  -5.738243e+02   9.585469e+01
  -3.776457e+02  -1.759343e+02
  -4.800677e+01  -4.468068e+02
   1.515627e+02  -2.328393e+02
   1.512566e+02   1.976857e+02
  -2.118958e+02   2.889876e+02
  -3.236374e+02  -4.569322e+01
  -5.529003e+01  -6.975469e+02
   3.425897e+02  -5.203287e+02
   4.868701e+02  -5.320213e+00
   1.909437e+02   4.941130e+02
  -1.889913e+02   2.275207e+02
  -2.720710e+02  -3.522448e+02
   1.866093e+02  -4.768474e+02
   5.333223e+02  -9.791927e+01
   4.858360e+02   4.426012e+02
   1.127811e+02   4.638658e+02
  -2.783148e+02   2.825200e+02
  -5.333890e+02  -1.084701e+02
  -3.490184e+02  -3.722502e+02
   1.784124e+02  -2.388649e+02
   3.366635e+02  -2.964673e+01
   1.563017e+02   1.259971e+02
  -5.973340e+01   9.188178e+01
  -7.532199e+01  -1.302582e+02
   1.451168e+02  -1.551553e+02
   3.041992e+02   5.877845e+01
   1.153521e+02   2.854478e+02
  -1.755274e+02   2.769539e+02
  -3.085648e+02   1.398163e+02
  -1.933308e+02  -1.421640e+02
   5.040717e+01  -2.675887e+02
   2.744900e+02  -3.107618e+02
   3.415542e+02  -1.829743e+02
   2.801724e+02   1.388104e+02
   2.255137e+01   3.458414e+02
  -1.206856e+02   3.843328e+02
  -9.658717e+01   1.012941e+02
  -1.837879e+01   1.185069e+01
  -7.810715e+01   6.533246e+01
  -1.703867e+02   1.106733e+02
  -2.445522e+02  -7.713503e+01
  -1.007891e+02  -3.121937e+02
   1.275940e+02  -2.402617e+02
   2.170296e+02  -9.460008e-01
   2.040971e+02   2.592722e+02
  -3.426184e+01   3.426665e+02
  -2.793931e+02   1.257756e+02
  -3.431954e+02  -2.278742e+02
  -1.921300e+02  -3.440107e+02
   6.306642e+01  -2.918548e+02
   2.120840e+02  -1.297046e+02
   1.370773e+02  -2.209271e+01
   1.173142e+02  -4.029825e+01
   2.397687e+02  -6.075446e+01
   3.740864e+02   5.899416e+01
   2.539330e+02   2.664089e+02
  -8.592977e+01   4.378720e+02
  -3.623914e+02   4.027637e+02
  -4.833793e+02   2.469579e+02
  -3.114641e+02  -1.288232e+02
  -2.715727e+01  -2.378930e+02
   1.542624e+02  -2.161348e+02
   6.286457e+01  -3.281735e+01
  -9.234106e+01   1.180464e+02
  -1.633300e+02  -3.207588e+01
  -1.868844e+01  -1.918717e+02
   1.679093e+02  -1.364224e+02
   1.457068e+02   8.359686e+01
  -5.058330e+00   1.630218e+02
  -1.992947e+02   2.312380e+01
  -1.366424e+02  -2.259483e+02
   2.894277e+01  -3.046774e+02
   2.100046e+02  -1.645710e+02
   2.924579e+02   8.724559e+01
   2.754227e+02   2.510525e+02
   5.860068e+01   2.124915e+02
  -9.294169e+01   1.686436e+02
  -1.863651e+02   2.672715e+01
  -4.716093e+01  -2.663810e+01
   5.699977e+01   4.493322e+01
   1.138313e+01   1.175564e+02
  -1.401853e+02   1.102292e+02
  -1.541971e+02  -1.265506e+01
  -5.414251e+01  -7.357019e+01
   8.396167e+01  -6.530234e-01
   4.182907e+01   9.229976e+01
  -1.246510e+02   1.142072e+02
  -2.953983e+02  -2.226515e+01
  -2.186096e+02  -1.610804e+02
  -8.265344e+01  -2.248476e+02
   2.158697e+02  -2.298304e+02
   2.864223e+02  -1.195697e+02
   1.598871e+02   4.267936e+01
  -3.127093e+01   9.386695e+01
  -7.218530e+01  -3.370116e+00
   5.383220e+01  -9.063749e+01
   2.157141e+02  -1.989612e+01
   2.146343e+02   1.467765e+02
   6.938506e+01   1.888434e+02
  -7.212503e+01   1.328152e+02
  -1.354001e+02   2.465519e+01
  -6.248043e+01  -5.391722e+01
   3.156595e+01   1.762489e+00
   3.977594e+01   7.616876e+01
  -9.189506e+01   1.080366e+02
  -1.891903e+02   3.015807e+01
  -2.023513e+02  -1.448189e+02
   3.754413e+00  -2.427492e+02
   1.461654e+02  -1.350238e+02
   2.031319e+02  -1.889838e+01
   3.625771e+01   1.093813e+02
  -6.844267e+01   8.584105e+01
  -8.194260e+01   2.377343e+01
  -1.396687e+01  -2.390264e+01
   3.260718e+01  -1.389471e+01
  -8.341134e+00   1.525189e+01
  -6.772215e+01  -1.009921e+01
  -7.970018e+01  -1.058025e+02
  -2.783362e+01  -1.541338e+02
   1.138323e+02  -1.463846e+02
   2.194144e+02   2.404451e+00
   2.286318e+02   1.333704e+02
   2.956695e+01   2.296225e+02
  -1.096255e+02   1.785460e+02
  -1.282348e+02   1.709429e+01
  -7.664151e+01  -6.031816e+01
  -3.195882e+01  -3.736945e+01
  -4.844898e+01   9.617587e+00
  -8.136342e+01   1.154972e+01
  -3.582165e+01  -4.913659e+01
   3.611652e+01  -9.241761e+01
   1.078980e+02  -3.491915e+01
   8.017165e+01   3.198824e+01
  -2.613050e+01   1.126365e+02
  -1.589057e+02   9.630403e+01
  -1.826848e+02  -3.735755e+01
  -7.647811e+01  -2.146493e+02
   1.024384e+02  -2.068410e+02
   2.995520e+02  -1.178082e+02
   2.293481e+02   1.146626e+02
   7.952229e+01   1.784245e+02
  -3.718682e+01   1.339090e+02
  -9.278673e+01   8.874546e+01
  -6.663929e+01   6.732448e+01
  -5.661150e+01   8.315965e+01
  -8.467890e+01   6.536334e+01
  -1.223089e+02  -1.733498e+01
  -1.236395e+02  -1.824591e+02
   1.299064e+00  -2.321489e+02
   8.441929e+01  -1.728644e+02
   1.494518e+02   5.349798e+00
   1.387705e+02   1.214153e+02
   2.310856e+01   1.556803e+02
  -9.396945e+01   8.103158e+01
  -5.769351e+01  -1.385791e+01
  -6.622811e-01  -4.295458e+01
   1.914285e+01  -3.714749e+01
  -3.167485e+01  -2.068994e+01
  -7.942555e+01  -2.441410e+01
  -4.990793e+01  -4.241816e+01
   6.277762e+01  -3.291346e+01
   1.578520e+02   4.709775e+00
   1.394976e+02   5.140024e+01
   5.393432e+00   9.328583e+01
  -1.064357e+02   5.752078e+01
  -1.347741e+02   1.788306e+01
  -4.155594e+01  -3.802890e+01
   6.253044e+01  -4.636737e+01
   7.646495e+01   1.373322e+01
   7.200253e+00   6.911915e+01
  -5.572702e+01   5.604683e+01
  -6.100994e+01   1.317084e+01
  -5.381160e+01  -4.230361e+01
  -4.405576e+01  -4.080000e+01
  -5.142315e+01  -7.578055e+00
  -5.518003e+01  -5.803630e+00
  -3.477271e+01  -7.697877e+01
   1.358714e+01  -1.580997e+02
   1.204276e+02  -1.285943e+02
   1.512909e+02  -4.410777e+01
   1.172855e+02   8.260738e+01
  -5.937773e+00   1.255577e+02
  -7.944944e+01   6.478105e+01
  -5.569388e+01  -1.044065e+01
   6.426616e+01  -1.985714e+01
   1.314081e+02   3.515147e+01
   8.346175e+01   9.834852e+01
  -8.629259e+01   1.015016e+02
  -2.080607e+02   6.081490e+01
  -1.480511e+02  -4.615731e+01
  -4.389708e+01  -8.994140e+01
   7.391197e+01  -5.807528e+01
   5.144949e+01   5.568192e+00
  -4.197008e+01   2.446790e+01
  -7.698154e+01  -1.447482e+01
  -3.024926e+01  -9.626814e+01
   7.791551e+01  -1.588600e+02
   1.445831e+02  -3.368944e+01
   1.258267e+02   8.052756e+01
  -9.397151e+00   2.178440e+02
  -1.049957e+02   1.406425e+02
  -8.140771e+01  -4.373968e+00
  -4.837505e+01  -1.070984e+02
  -9.577641e+00  -1.142156e+02
   4.996611e+01  -9.666418e+00
   4.653134e+01   3.708213e+01
   2.138824e+01   1.422256e+01
   3.672898e+00  -1.846282e+01
   1.941466e+01   1.099675e+01
   5.838541e+01   7.639302e+01
   1.856801e+01   1.061494e+02
  -4.546883e+01   4.770843e+01
  -1.239969e+02  -3.890085e+01
  -1.330325e+02  -8.326787e+01
  -1.930019e+01  -4.925020e+01
   7.500489e+01  -2.727669e+01
   7.820889e+01  -7.521043e+00
   1.322341e+01   8.665860e+00
  -3.271375e+01   1.760722e+01
  -1.715172e+01   1.676855e+01
   2.034867e+01   3.043324e+00
  -4.092946e+00  -8.449436e+00
  -6.961182e+01  -1.953596e+01
  -8.156060e+01  -2.010124e+01
  -2.097616e+01  -6.775607e+01
   1.088390e+02  -1.021652e+02
   1.632336e+02  -5.942330e+01
   1.384513e+02   7.043375e+01
   1.458750e+01   1.518288e+02
  -7.025147e+01   1.549057e+02
  -1.083285e+02   7.469354e+01
  -8.757704e+01  -2.662158e+01
  -1.698468e+01  -3.758990e+01
   1.663862e+00  -6.873223e+00
  -9.782074e+00  -5.730407e+00
  -3.214195e+01  -4.542377e+01
  -2.007032e+01  -7.508747e+01
   3.245666e+01  -6.797032e+01
   7.904288e+01   2.029183e+01
   7.000248e+01   1.080554e+02
   1.471772e+01   1.065760e+02
  -7.618393e+01   2.863370e+01
  -9.760046e+01  -6.845907e+01
  -3.144420e+01  -1.118148e+02
   7.136439e+01  -5.340304e+01
   9.550748e+01   4.280055e+00
   3.908960e+01   4.567180e+01
  -3.770376e+01   5.458869e+01
  -2.941770e+01   3.000239e+01
   3.144645e+01  -2.236208e+00
   6.974992e+01  -3.660386e+00
   1.699330e+01   2.053875e+01
  -9.239351e+01   7.143963e+01
  -1.096478e+02   6.853902e+01
  -6.604275e+01  -9.967505e+00
   1.026233e+01  -7.361755e+01
   3.522973e+01  -8.422224e+01
   3.429135e+01  -2.621860e+00
   2.437918e-01   4.523144e+01
  -2.184142e+01   4.122033e+01
  -4.106831e+01  -1.354325e+01
  -1.813950e+01  -5.114980e+01
  -1.646060e-01  -3.471626e+01
   2.973837e+01   5.745228e+00
   4.013007e+01   2.029164e+01
   2.076795e+01   4.329264e+00
  -7.273679e-01  -1.295245e+01
  -7.270818e+00  -2.028010e+00
  -2.759392e-01   3.168218e+01
  -6.127338e+00   4.124343e+01
  -2.920716e+01   1.716932e+01
  -3.333963e+01  -4.293480e+01
   1.356816e+00  -5.353952e+01
   3.494946e+01  -1.867485e+01
   6.120303e+01   3.200622e+01
   8.206518e+00   5.794803e+01
  -4.580272e+01   4.097087e+01
  -8.476463e+01  -1.327385e+01
  -5.111627e+01  -4.128481e+01
   3.034233e+01  -3.327614e+01
   6.852906e+01  -1.752328e+01
   2.252127e+01  -3.144136e+00
  -3.614133e+01   5.877484e+00
  -3.036786e+01  -1.180488e+01
   2.695346e+01  -2.658655e+01
   9.509685e+01  -2.001405e+01
