
 $NMID
 id='ANONYMOUS ', fmtdat='(2E16.6)'
 volume=1.0
 tramp=1.0
 $END
  -3.448829e+03   9.878215e+01
  -2.135129e+03  -1.709623e+03
  -2.199722e+02  -2.268579e+03
   1.888399e+03  -1.112845e+03
   1.057808e+03   1.650991e+02
  -4.688414e+02   4.261871e+02
  -6.088063e+02  -4.733599e+02
  -9.961893e+01  -8.562753e+02
   4.443925e+02  -5.515022e+02
   7.263413e+02  -5.175277e+00
   3.391657e+02   6.237627e+02
  -9.341670e+01   8.534188e+02
  -4.141382e+02   9.988518e+01
  -3.143673e+02  -5.934914e+02
   2.896982e+02  -7.480130e+02
   4.812971e+02  -2.154584e+01
   1.789498e+02   6.410677e+02
  -1.658768e+02   5.777897e+02
  -5.189030e+02   1.793518e+02
  -3.772297e+02  -2.619435e+02
  -1.261684e+02  -3.537176e+02
   1.114807e+02  -2.647726e+02
   1.683256e+02  -5.786174e+01
  -1.503462e+02  -5.400719e+01
  -2.995523e+02  -2.511872e+02
  -1.254811e+02  -4.077856e+02
   4.247541e+02  -2.300519e+02
   6.718028e+02   1.489058e+00
   3.413335e+02   3.905311e+02
  -3.578541e+02   2.680340e+02
  -6.642950e+02  -1.249043e+02
  -2.241070e+02  -4.289475e+02
   2.599715e+02  -4.569535e+02
   5.035108e+02  -1.172823e+02
   3.605138e+02   1.065360e+02
   5.224317e+01   3.556160e+02
  -1.041325e+02   2.183634e+02
  -1.167759e+02  -2.062217e+02
   9.906345e+01  -2.507332e+02
   3.137572e+02   8.407427e+01
   4.053665e+01   6.196276e+02
  -2.616238e+02   5.659524e+02
  -4.651276e+02  -2.267406e+01
  -2.317702e+02  -4.966553e+02
   2.419605e+02  -2.305702e+02
   2.238857e+02   2.988537e+02
  -1.645624e+02   4.291822e+02
  -5.222740e+02   1.102665e+02
  -5.326995e+02  -4.223302e+02
  -1.743668e+02  -4.538405e+02
   3.202022e+02  -2.195564e+02
   5.023745e+02   1.453260e+02
   3.120100e+02   3.860166e+02
  -1.438481e+02   2.428941e+02
  -3.469260e+02   7.671236e+01
  -1.605619e+02  -1.124044e+02
   3.843175e+01  -7.375823e+01
   6.535090e+01   9.179559e+01
  -9.789012e+01   1.333044e+02
  -2.907843e+02  -7.683428e+01
  -1.265802e+02  -2.719103e+02
   1.510494e+02  -2.438852e+02
   3.194896e+02  -1.206026e+02
   2.288449e+02   1.519966e+02
  -1.957088e+01   2.655277e+02
  -3.356858e+02   2.977612e+02
  -4.087108e+02   1.563421e+02
  -2.786522e+02  -1.479517e+02
  -8.432002e+01  -3.689216e+02
   1.326776e+02  -4.038049e+02
   8.067849e+01  -1.272299e+02
   5.195116e+01  -3.380524e+01
   9.552903e+01  -7.236348e+01
   2.128151e+02  -1.014656e+02
   2.537263e+02   8.925615e+01
   7.977037e+01   3.223521e+02
  -1.026463e+02   2.295256e+02
  -2.278289e+02   8.540713e-02
  -1.939136e+02  -2.557037e+02
   3.345207e+01  -3.089520e+02
   2.602296e+02  -1.077382e+02
   3.424970e+02   2.337441e+02
   2.429483e+02   3.477395e+02
  -8.639331e+01   2.720170e+02
  -1.996052e+02   1.626349e+02
  -1.347590e+02   4.080708e+01
  -1.087249e+02   4.174582e+01
  -2.665276e+02   6.351057e+01
  -4.109809e+02  -8.126166e+01
  -2.613379e+02  -2.914341e+02
   1.141605e+02  -4.839144e+02
   3.344863e+02  -4.064149e+02
   4.759433e+02  -1.876914e+02
   3.360528e+02   9.589824e+01
   6.529873e+01   2.697302e+02
  -1.456645e+02   1.886108e+02
  -6.456957e+01   3.635403e+01
   1.008675e+02  -1.007086e+02
   1.545830e+02   5.561734e+00
   5.173471e+00   1.609211e+02
  -1.256663e+02   1.161170e+02
  -1.480609e+02  -9.402767e+01
   6.108886e+01  -1.640700e+02
   1.822084e+02   4.071527e-01
   1.398610e+02   2.344442e+02
  -6.110685e+00   2.894302e+02
  -2.037593e+02   1.762535e+02
  -3.230668e+02  -1.030359e+02
  -2.783805e+02  -2.766804e+02
  -6.705426e+01  -2.409307e+02
   9.420274e+01  -1.604287e+02
   1.764724e+02  -1.194436e+01
   5.135772e+01   2.999411e+01
  -5.673066e+01  -5.076912e+01
   3.061827e+00  -1.235603e+02
   1.315673e+02  -9.528338e+01
   1.610267e+02   1.958248e+01
   4.451914e+01   7.238623e+01
  -7.716454e+01  -7.901854e+00
  -4.576839e+01  -9.093869e+01
   1.409213e+02  -8.788881e+01
   2.929937e+02   1.902741e+01
   2.128330e+02   1.705335e+02
   5.154587e+01   2.395379e+02
  -2.330074e+02   2.344637e+02
  -2.912721e+02   1.112637e+02
  -1.641207e+02  -4.234371e+01
   3.559447e+01  -8.171939e+01
   6.349466e+01   2.612562e+00
  -4.809746e+01   8.521165e+01
  -2.008140e+02   2.682596e+01
  -2.160642e+02  -1.096098e+02
  -4.801952e+01  -2.018047e+02
   5.269194e+01  -1.350815e+02
   1.399242e+02  -2.276677e+01
   5.745607e+01   4.749234e+01
  -3.207568e+01  -1.087700e+01
  -3.989621e+01  -8.897130e+01
   9.372052e+01  -1.053569e+02
   1.979326e+02  -1.066331e+01
   1.782406e+02   1.632269e+02
  -4.647250e+00   2.302403e+02
  -1.446006e+02   1.291496e+02
  -1.872500e+02   2.954135e+01
  -3.910760e+01  -1.106497e+02
   6.041486e+01  -1.057050e+02
   7.893058e+01  -8.032035e+00
   8.886438e+00   2.462147e+01
  -3.224876e+01   6.637111e+00
   1.292696e+01  -1.481576e+01
   7.343850e+01   6.285519e+00
   9.440661e+01   7.415065e+01
   2.589947e+01   1.670269e+02
  -1.254084e+02   1.565047e+02
  -2.587332e+02  -7.408411e+00
  -2.302787e+02  -1.310404e+02
  -3.197870e+01  -2.231562e+02
   1.169879e+02  -1.920761e+02
   1.267104e+02  -9.180351e+00
   6.928835e+01   6.202886e+01
   3.499644e+01   3.459089e+01
   5.720582e+01  -1.113346e+01
   8.173243e+01  -1.292288e+01
   4.741576e+01   5.249645e+01
  -3.372996e+01   1.007623e+02
  -9.557788e+01   6.313410e+01
  -8.063622e+01  -3.397769e+01
   2.533646e+01  -1.181634e+02
   1.759730e+02  -1.010778e+02
   1.911768e+02   2.510436e+01
   9.380109e+01   2.152161e+02
  -1.212029e+02   2.170362e+02
  -2.913935e+02   1.126252e+02
  -2.419001e+02  -1.149016e+02
  -1.159758e+02  -1.652283e+02
   4.731393e+01  -1.312935e+02
   8.943258e+01  -8.115012e+01
   7.726302e+01  -7.172672e+01
   5.165666e+01  -1.006543e+02
   8.494294e+01  -7.752607e+01
   1.230195e+02   1.432757e+01
   1.253784e+02   1.895234e+02
  -1.746826e+01   2.312285e+02
  -1.029863e+02   1.680379e+02
  -1.630901e+02   1.571800e+01
  -1.301396e+02  -1.204886e+02
  -5.990138e+00  -1.619877e+02
   9.137957e+01  -7.285080e+01
   7.151728e+01   7.180139e+00
  -1.321044e-01   5.077965e+01
  -1.759916e+01   3.807088e+01
   3.384467e+01   1.614357e+01
   8.989506e+01   1.926890e+01
   4.561403e+01   3.657109e+01
  -4.976833e+01   3.944036e+01
  -1.700508e+02   2.410092e+00
  -1.272588e+02  -4.782863e+01
  -4.641350e+00  -9.769138e+01
   1.340571e+02  -6.005756e+01
   1.304262e+02  -1.433053e+01
   4.736856e+01   4.297866e+01
  -6.526465e+01   4.854503e+01
  -7.618603e+01  -2.026117e+01
  -1.214220e+01  -6.905640e+01
   4.868834e+01  -5.675445e+01
   6.591994e+01  -1.057248e+01
   5.217892e+01   4.652768e+01
   4.636475e+01   3.767835e+01
   5.281356e+01   2.946613e+00
   5.936767e+01   1.052716e+01
   3.414885e+01   7.073142e+01
  -1.190962e+01   1.579857e+02
  -1.060620e+02   1.516112e+02
  -1.492971e+02   4.020646e+01
  -1.343864e+02  -7.168345e+01
   1.144579e+01  -1.320409e+02
   7.977015e+01  -6.435416e+01
   5.556458e+01   8.074889e+00
  -5.586114e+01   1.959364e+01
  -1.302741e+02  -3.481656e+01
  -9.441740e+01  -1.103302e+02
   9.543474e+01  -9.254516e+01
   2.055542e+02  -5.275772e+01
   1.484529e+02   1.691601e+01
   3.453432e+01   8.617101e+01
  -7.441987e+01   5.512765e+01
  -5.659023e+01  -3.605365e-01
   4.789952e+01  -2.716356e+01
   9.178058e+01   2.519423e+01
   3.800088e+01   1.064228e+02
  -7.534724e+01   1.717989e+02
  -1.396379e+02   4.878786e+01
  -1.362557e+02  -7.706514e+01
   1.910079e+01  -2.047553e+02
   1.002919e+02  -1.332565e+02
   9.884330e+01  -5.214647e+00
   5.490501e+01   1.083206e+02
  -9.469539e-01   1.098973e+02
  -4.748397e+01   1.268303e+01
  -4.628792e+01  -3.517077e+01
  -1.849542e+01  -1.214338e+01
  -4.469713e+00   1.753231e+01
  -2.402345e+01  -1.562567e+01
  -5.832946e+01  -8.773700e+01
  -2.007362e+01  -1.077959e+02
   4.830178e+01  -4.620533e+01
   1.463224e+02   2.753191e+01
   1.281710e+02   9.690762e+01
   1.661906e+01   5.446629e+01
  -7.867548e+01   3.283546e+01
  -8.191780e+01   4.355860e+00
  -1.263837e+01  -1.106129e+01
   3.229015e+01  -2.070203e+01
   1.726293e+01  -1.748716e+01
  -1.743108e+01   1.869779e-01
   4.144656e+00   8.324537e+00
   6.004453e+01   1.530664e+01
   9.071913e+01   1.801146e+01
   1.430968e+01   7.180216e+01
  -1.034098e+02   1.121713e+02
  -1.749025e+02   5.519215e+01
  -1.408239e+02  -6.346880e+01
  -5.508083e+00  -1.713758e+02
   7.820029e+01  -1.502551e+02
   1.159153e+02  -6.815802e+01
   7.788712e+01   2.959304e+01
   2.028528e+01   3.794009e+01
   4.588036e-01   1.011212e+01
   1.097458e+01   6.467220e+00
   3.320786e+01   5.138944e+01
   1.825361e+01   7.710542e+01
  -3.451619e+01   6.382726e+01
  -8.071352e+01  -1.995900e+01
  -7.541101e+01  -1.256686e+02
  -2.802807e+01  -1.064365e+02
   8.517149e+01  -2.582501e+01
   1.052376e+02   6.397041e+01
   3.583154e+01   1.086583e+02
  -6.081127e+01   5.493071e+01
  -9.677730e+01   1.249218e+00
  -4.184992e+01  -4.488310e+01
   3.421807e+01  -5.790792e+01
   3.833682e+01  -2.778040e+01
  -3.115582e+01   3.212569e+00
  -6.616195e+01   8.025674e+00
  -1.877231e+01  -2.399568e+01
   1.026646e+02  -6.924875e+01
   1.016330e+02  -6.130485e+01
   6.787984e+01   1.454646e+01
  -1.319711e+01   8.409166e+01
  -4.360928e+01   8.692513e+01
  -4.170248e+01   6.534050e+00
  -3.229036e+00  -4.614109e+01
   2.436428e+01  -4.565463e+01
   4.074432e+01   9.577205e+00
   2.107435e+01   5.593361e+01
   2.069810e-01   3.667651e+01
  -3.073215e+01  -6.056013e+00
  -4.637247e+01  -2.130540e+01
  -1.920148e+01  -4.263652e+00
   4.000417e+00   1.516571e+01
   7.065264e+00   5.023535e+00
  -4.287229e+00  -3.127228e+01
   4.607837e+00  -4.611090e+01
   2.889141e+01  -1.746275e+01
   2.876556e+01   4.151161e+01
   6.148327e+00   5.929163e+01
  -3.368476e+01   2.868909e+01
  -6.765678e+01  -3.221306e+01
  -8.606693e+00  -6.969777e+01
   5.515620e+01  -3.635964e+01
   9.449373e+01   5.713911e+00
   5.375056e+01   4.068976e+01
  -3.055584e+01   4.193307e+01
  -7.170833e+01   1.752812e+01
  -2.439800e+01   4.666732e+00
   3.707774e+01  -8.849748e+00
   3.102971e+01   7.739162e+00
  -2.791319e+01   2.600693e+01
  -9.680431e+01   2.695276e+01
