
 $NMID
 id='ANONYMOUS ', fmtdat='(2E16.6)'
 volume=1.0
 tramp=1.0
 $END
  -4.312185e+03   2.625179e+01
  -2.299932e+03  -2.864296e+03
   1.466101e+02  -2.615737e+03
   1.865662e+03  -1.195858e+03
   1.099181e+03   3.456312e+02
  -4.897754e+02   4.582154e+02
  -6.313020e+02  -3.546485e+02
   8.197331e+01  -8.677989e+02
   7.132449e+02  -7.022581e+02
   8.654527e+02  -4.544657e+01
   4.067018e+02   7.444064e+02
  -1.027673e+02   6.923750e+02
  -4.856616e+02   1.097629e+02
  -3.140965e+02  -6.146305e+02
   2.181171e+02  -6.828074e+02
   4.776395e+02  -6.340625e+00
   2.878270e+02   6.250410e+02
  -2.005164e+02   6.490424e+02
  -4.942272e+02   1.659810e+02
  -3.612001e+02  -2.868807e+02
  -7.644635e+01  -3.719443e+02
   1.923813e+02  -2.647905e+02
   1.394349e+02  -3.137489e+01
  -1.431237e+02   5.584032e+00
  -3.760336e+02  -2.010488e+02
  -6.855240e+01  -3.605469e+02
   4.557346e+02  -3.267316e+02
   6.321468e+02   1.635099e+02
   3.672383e+02   4.458359e+02
  -3.734946e+02   4.564117e+02
  -6.444093e+02  -1.365853e+02
  -3.212282e+02  -4.423869e+02
   2.578354e+02  -3.961616e+02
   5.486682e+02  -1.548332e+02
   3.978212e+02   1.943477e+02
   3.529107e+01   3.766314e+02
  -1.431528e+02   2.505302e+02
  -1.084677e+02  -1.571517e+02
   1.377890e+02  -3.815154e+02
   3.225348e+02   8.554750e+01
   2.104532e+02   6.185169e+02
  -3.570821e+02   6.397813e+02
  -4.814966e+02  -5.347770e+01
  -1.640407e+02  -4.852683e+02
   2.735447e+02  -2.332587e+02
   2.862466e+02   3.616811e+02
  -1.624646e+02   4.853577e+02
  -5.963363e+02   1.030806e+02
  -5.189318e+02  -4.555735e+02
  -6.866435e+01  -6.498816e+02
   3.064525e+02  -3.319761e+02
   6.293999e+02   6.274606e+01
   4.051155e+02   2.609169e+02
  -1.681554e+02   3.548134e+02
  -4.239851e+02   1.011411e+02
  -2.000796e+02  -2.038654e+02
   7.104680e+01  -7.910233e+01
   1.227638e+02   1.196173e+02
  -1.263885e+02   1.516500e+02
  -3.146833e+02  -4.807809e+01
  -1.361889e+02  -2.614036e+02
   2.348504e+02  -2.159133e+02
   2.900448e+02  -8.076565e+01
   2.101784e+02   5.314751e+01
  -2.830651e+01   2.586871e+02
  -2.779098e+02   3.088878e+02
  -3.925116e+02   1.712138e+02
  -2.442658e+02  -1.542027e+02
  -1.132282e+02  -3.864449e+02
   1.407353e+02  -3.580278e+02
   1.209341e+02  -1.059258e+02
   2.041175e+01  -2.623356e+01
   8.491546e+01  -1.035679e+02
   2.315376e+02  -1.085491e+02
   2.241264e+02   6.157307e+01
   1.068655e+02   2.925447e+02
  -7.332806e+01   2.283207e+02
  -2.060663e+02  -1.075912e+01
  -1.774761e+02  -2.058826e+02
   2.467144e+01  -2.598615e+02
   2.194173e+02  -7.002835e+01
   2.602826e+02   1.859648e+02
   1.572090e+02   3.234822e+02
  -3.322421e+01   2.752724e+02
  -2.074632e+02   1.200083e+02
  -1.698917e+02   1.313681e+00
  -1.268985e+02   2.687609e+01
  -2.372262e+02   1.338730e+01
  -4.159729e+02  -3.586671e+01
  -3.487967e+02  -3.247196e+02
   5.260927e+01  -3.980089e+02
   4.056547e+02  -4.265749e+02
   4.533745e+02  -1.467093e+02
   2.810832e+02   9.377590e+01
   4.977885e+01   2.573564e+02
  -9.479718e+01   2.043846e+02
  -6.384935e+01   2.244126e+01
   1.020233e+02  -6.132728e+01
   1.626413e+02  -1.184389e+01
   2.233664e+01   2.037952e+02
  -1.435823e+02   1.348187e+02
  -1.550033e+02  -6.149361e+01
   4.286684e+01  -1.766595e+02
   1.750257e+02  -1.568433e+01
   1.690529e+02   2.329963e+02
  -3.690499e+01   3.960584e+02
  -2.263490e+02   1.854326e+02
  -3.502587e+02  -1.383121e+02
  -2.729504e+02  -2.547295e+02
  -8.948561e+01  -2.944160e+02
   9.758851e+01  -1.554059e+02
   1.753233e+02  -1.489135e+01
   3.947564e+01   2.037662e+01
  -6.493904e+01  -4.471418e+01
  -1.951267e+01  -1.272975e+02
   1.146507e+02  -7.129386e+01
   1.707752e+02   1.997819e+01
   5.313433e+01   6.752602e+01
  -7.005228e+01   2.508717e+00
  -3.740518e+01  -8.437085e+01
   1.216580e+02  -9.411466e+01
   2.497569e+02   4.530931e+01
   3.135907e+02   1.564249e+02
   5.039691e+01   2.294409e+02
  -2.303427e+02   1.956163e+02
  -2.627995e+02   1.053293e+02
  -1.354504e+02  -4.114299e+01
   3.569494e+01  -9.297184e+01
   7.580438e+01  -1.053957e+01
  -4.809582e+01   8.212229e+01
  -1.914083e+02   5.364694e+01
  -1.963002e+02  -1.102237e+02
  -5.113084e+01  -1.617569e+02
   1.116603e+02  -1.576286e+02
   1.476068e+02  -8.460785e+00
   5.442466e+01   3.816061e+01
  -3.539669e+01   1.066811e+00
  -3.211066e+01  -8.347194e+01
   7.978779e+01  -1.094595e+02
   1.931121e+02  -2.601139e+01
   1.487884e+02   1.428284e+02
   6.717593e+00   2.001028e+02
  -1.847719e+02   1.730116e+02
  -1.601927e+02   1.219341e+01
  -6.081664e+01  -9.780671e+01
   6.421554e+01  -9.031587e+01
   9.072631e+01  -3.282470e+01
   9.918356e+00   2.514360e+01
  -2.374567e+01   1.417417e+01
   6.131359e+00  -9.789549e+00
   8.531092e+01   1.297386e+01
   9.393854e+01   9.652792e+01
   2.022103e+01   1.559133e+02
  -1.375734e+02   1.377145e+02
  -2.006918e+02   1.568337e+01
  -2.066025e+02  -1.431179e+02
  -5.154330e+01  -1.931650e+02
   6.868899e+01  -1.666111e+02
   1.341105e+02  -2.371556e+01
   6.848004e+01   4.978870e+01
   2.672198e+01   3.510732e+01
   4.731658e+01  -1.214437e+01
   8.263426e+01  -1.256433e+00
   5.115057e+01   6.084092e+01
  -3.621497e+01   9.498465e+01
  -1.273458e+02   5.037762e+01
  -9.734611e+01  -3.537526e+01
   3.989230e+01  -1.016656e+02
   1.470600e+02  -7.339323e+01
   1.944424e+02   5.587963e+01
   7.747541e+01   2.046368e+02
  -1.364838e+02   2.207151e+02
  -2.388741e+02   7.421518e+01
  -2.546623e+02  -1.084102e+02
  -9.913577e+01  -1.799296e+02
   2.829608e+01  -1.600484e+02
   8.940575e+01  -8.025739e+01
   7.132167e+01  -6.926873e+01
   5.411939e+01  -7.913812e+01
   8.052412e+01  -5.272889e+01
   1.178075e+02   1.924929e+01
   1.179494e+02   1.796281e+02
   2.956404e+01   2.250048e+02
  -1.044447e+02   1.473149e+02
  -1.768001e+02   7.554824e+00
  -1.402533e+02  -1.163274e+02
  -6.529491e-01  -1.705056e+02
   6.991624e+01  -7.954192e+01
   5.437204e+01   9.139523e+00
  -5.065399e+00   5.004735e+01
  -1.370295e+01   3.297566e+01
   2.821149e+01   1.685099e+01
   8.607072e+01   1.760602e+01
   3.380239e+01   3.859523e+01
  -6.690021e+01   4.041146e+01
  -1.425085e+02  -5.839135e+00
  -1.533679e+02  -3.998627e+01
  -5.028670e+00  -9.585461e+01
   1.311952e+02  -5.838079e+01
   1.416849e+02  -2.115527e+01
   5.100000e+01   4.071931e+01
  -5.725937e+01   3.306459e+01
  -7.451686e+01  -2.154408e+01
  -3.454091e+00  -7.349299e+01
   5.458667e+01  -5.629072e+01
   6.108758e+01   1.040568e+00
   4.227309e+01   4.075137e+01
   4.808794e+01   4.261750e+01
   5.795501e+01   6.182178e+00
   6.885319e+01   2.122955e+00
   2.663931e+01   7.214814e+01
  -4.281669e+01   1.591030e+02
  -1.520419e+02   1.333583e+02
  -1.511559e+02   3.202232e+01
  -1.243021e+02  -1.021914e+02
   1.173614e+01  -1.419795e+02
   8.147654e+01  -6.898706e+01
   6.521461e+01   9.961329e+00
  -5.946482e+01   1.255783e+01
  -1.327326e+02  -4.126729e+01
  -6.990054e+01  -1.037025e+02
   7.292368e+01  -1.066598e+02
   1.889921e+02  -2.030997e+01
   1.705484e+02   4.696305e+01
   4.472296e+01   8.135170e+01
  -6.917986e+01   5.607510e+01
  -5.057716e+01   3.445968e+00
   3.694556e+01  -2.637370e+01
   8.739941e+01   2.803597e+01
   5.051217e+01   1.045298e+02
  -7.222405e+01   1.526093e+02
  -1.841755e+02   6.366132e+01
  -1.078666e+02  -8.216068e+01
   1.076511e+01  -2.038934e+02
   9.041480e+01  -1.136579e+02
   1.158248e+02   4.377757e+00
   5.531444e+01   1.332180e+02
  -8.423167e+00   1.013976e+02
  -5.109255e+01   1.817715e+01
  -4.334368e+01  -3.738188e+01
  -2.429396e+01  -8.435359e+00
  -2.875452e+00   1.831798e+01
  -2.186332e+01  -1.581824e+01
  -4.216488e+01  -7.193017e+01
  -3.307548e+01  -1.140705e+02
   4.614140e+01  -3.477383e+01
   1.290131e+02   3.958372e+01
   1.179734e+02   9.385645e+01
   1.837366e+01   4.597321e+01
  -8.547283e+01   1.869788e+01
  -9.051974e+01   6.715972e+00
  -1.297725e+01  -6.855407e+00
   3.303352e+01  -2.545571e+01
   2.007107e+01  -1.376299e+01
  -2.148340e+01   2.813912e-01
   3.993759e+00   6.924880e+00
   6.363797e+01   3.928801e+00
   8.064696e+01   3.052266e+01
   1.766403e+01   8.135103e+01
  -1.368907e+02   1.054775e+02
  -1.750175e+02   7.338273e+01
  -1.387143e+02  -7.132601e+01
  -2.409612e+01  -1.605846e+02
   7.857139e+01  -1.358939e+02
   1.118875e+02  -5.328748e+01
   8.657702e+01   2.307270e+01
   2.858230e+01   3.377738e+01
  -1.844785e+00   9.625309e+00
   1.001082e+01   6.653822e+00
   3.011105e+01   4.384748e+01
   2.175708e+01   8.859741e+01
  -3.245982e+01   7.304436e+01
  -7.981087e+01  -2.173179e+01
  -7.080274e+01  -1.041686e+02
   5.477014e+00  -9.468808e+01
   7.393657e+01  -2.454274e+01
   9.070976e+01   7.653204e+01
   2.511214e+01   9.630232e+01
  -7.587891e+01   6.175150e+01
  -9.757790e+01  -9.259176e-01
  -3.095565e+01  -5.378243e+01
   3.548723e+01  -5.340045e+01
   2.931672e+01  -3.163273e+01
  -2.259719e+01   2.564246e+00
  -6.761321e+01   1.189031e+01
  -2.104740e+01  -2.516990e+01
   7.467009e+01  -5.637734e+01
   1.206366e+02  -6.249424e+01
   6.694883e+01   8.580516e+00
  -6.228427e+00   7.757788e+01
  -4.004145e+01   8.221769e+01
  -3.692506e+01   5.017480e+00
  -3.110284e-01  -5.314293e+01
   1.752306e+01  -3.974284e+01
   3.697476e+01   1.356047e+01
   2.753692e+01   5.445180e+01
  -3.249426e-01   3.455767e+01
  -3.405431e+01  -7.993718e+00
  -3.233903e+01  -1.987720e+01
  -1.600361e+01  -1.694744e+00
   9.935537e-01   1.815070e+01
   4.731633e+00  -1.433940e-01
   1.717622e+00  -3.712094e+01
   6.903719e+00  -4.290799e+01
   2.703246e+01  -1.819123e+01
   2.817546e+01   4.255507e+01
  -3.114586e+00   6.151332e+01
  -4.208309e+01   2.043392e+01
  -5.205608e+01  -2.774653e+01
  -2.498858e+01  -5.594422e+01
   4.661733e+01  -3.898185e+01
   8.192637e+01  -1.406397e+00
   4.735346e+01   4.034580e+01
  -3.105644e+01   3.968274e+01
  -6.464532e+01   1.656548e+01
  -2.692993e+01   5.368977e+00
   3.171603e+01  -5.738173e-01
   3.724436e+01   1.852828e+01
  -2.606832e+01   2.988979e+01
  -8.077364e+01   1.065185e+01
