
 $NMID
 id='ANONYMOUS ', fmtdat='(2E16.6)'
 volume=1.0
 tramp=1.0
 $END
  -3.000447e+03   1.479189e+02
  -1.132404e+03  -1.880663e+03
   2.605556e+02  -1.597128e+03
   1.160168e+03  -6.335333e+02
   6.221324e+02   3.468668e+02
  -4.234530e+02   3.570859e+02
  -4.442864e+02  -1.098265e+02
  -6.257008e+01  -6.020878e+02
   4.379776e+02  -3.513064e+02
   5.567198e+02   1.123141e+01
   2.889768e+02   5.178210e+02
  -5.665015e+01   4.385193e+02
  -3.681624e+02   2.942457e+01
  -2.019807e+02  -3.689478e+02
   1.490452e+02  -3.627049e+02
   3.572056e+02   4.280716e+01
   1.810024e+02   4.437003e+02
  -1.944883e+02   3.304449e+02
  -3.078237e+02   1.538410e+02
  -2.542587e+02  -1.817329e+02
  -5.375323e+01  -2.645247e+02
   1.336637e+02  -1.276821e+02
   1.277896e+02   7.033850e+00
  -8.542796e+01   6.145965e+01
  -1.737487e+02  -3.887773e+01
  -6.554907e+01  -1.855787e+02
   2.585392e+02  -2.638460e+02
   4.379662e+02  -2.988360e+01
   2.563334e+02   2.039504e+02
  -2.942909e+02   2.790527e+02
  -3.941597e+02  -2.297781e+01
  -1.470710e+02  -3.015248e+02
   1.290919e+02  -2.186223e+02
   3.040759e+02  -1.023188e+02
   2.114527e+02   1.051941e+02
   3.403544e+01   2.612598e+02
  -1.117291e+02   1.239432e+02
  -1.292499e+02  -1.008751e+02
   1.142839e+02  -2.576402e+02
   2.519387e+02  -2.069126e+01
   1.215861e+02   4.378306e+02
  -1.638608e+02   3.978989e+02
  -3.551207e+02   2.520259e+01
  -1.328653e+02  -3.523168e+02
   1.605527e+02  -1.917200e+02
   2.172767e+02   1.785980e+02
  -3.495884e+01   3.578317e+02
  -2.671113e+02   1.212603e+02
  -2.433049e+02  -2.301784e+02
  -9.531919e+01  -3.794075e+02
   1.438483e+02  -2.247390e+02
   3.315089e+02   5.748191e+01
   2.671753e+02   1.898604e+02
  -1.072930e+02   2.197071e+02
  -2.560107e+02   4.104999e+01
  -1.185063e+02  -1.610537e+02
   5.709111e+01  -8.269066e+01
   9.136555e+01   8.192296e+01
  -5.825800e+01   7.669516e+01
  -1.964269e+02  -4.845690e+01
  -8.936401e+01  -1.844219e+02
   1.359812e+02  -1.366253e+02
   1.763562e+02  -6.888714e+01
   1.135796e+02   5.876258e+01
   2.266554e-01   1.274942e+02
  -1.485462e+02   1.092327e+02
  -1.757002e+02   8.166701e+01
  -1.475040e+02  -4.126957e+01
  -3.930025e+01  -2.773675e+02
   4.213321e+01  -2.461067e+02
   9.740695e+01  -6.967049e+01
   1.737207e+01   1.147801e+01
   5.486381e+01  -5.516071e+01
   1.141809e+02  -9.087698e+01
   1.478654e+02  -4.497909e+00
   1.088531e+02   1.691433e+02
  -5.656321e+01   1.811719e+02
  -1.413702e+02   1.069635e+01
  -1.365738e+02  -1.227403e+02
  -1.246002e+01  -1.862783e+02
   1.252542e+02  -7.674998e+01
   2.202060e+02   1.021667e+02
   6.039935e+01   1.782005e+02
  -2.953213e+01   1.736907e+02
  -1.499932e+02   9.522980e+01
  -8.324897e+01  -3.318784e+01
  -7.342433e+01   7.867213e+00
  -1.437211e+02  -1.449900e+01
  -2.699355e+02  -4.852509e+01
  -2.014683e+02  -2.278834e+02
   1.944025e+01  -2.739357e+02
   2.249742e+02  -2.194572e+02
   2.408776e+02  -1.274364e+02
   1.901689e+02   8.227307e+01
   6.100476e+01   1.746381e+02
  -5.284670e+01   1.526862e+02
  -5.021706e+01   2.006441e+01
   5.929939e+01  -4.019253e+01
   1.198847e+02  -1.107435e+01
   4.032777e+01   1.344081e+02
  -6.372966e+01   7.862589e+01
  -1.034704e+02  -2.265272e+01
   1.577791e+01  -1.162675e+02
   1.014538e+02  -1.184799e+01
   7.846044e+01   1.288706e+02
   2.100083e+01   2.033606e+02
  -1.412896e+02   9.972515e+01
  -1.989135e+02  -8.250887e+01
  -1.819638e+02  -1.563544e+02
  -4.627876e+01  -1.833765e+02
   7.517122e+01  -1.078917e+02
   1.019317e+02  -2.442870e+01
   2.923383e+01   1.563873e+01
  -3.024821e+01  -2.665800e+01
  -1.297989e+01  -7.526745e+01
   7.524571e+01  -3.487926e+01
   1.034105e+02   9.247147e-02
   2.811545e+01   4.124492e+01
  -4.361262e+01   1.952338e+01
  -3.544374e+01  -4.877883e+01
   6.085649e+01  -5.525212e+01
   1.540092e+02  -1.474095e+01
   1.312960e+02   9.113826e+01
   2.896659e+01   1.193360e+02
  -1.153415e+02   1.135665e+02
  -1.827175e+02   9.131158e+01
  -6.394272e+01  -2.470150e+01
   8.695632e+00  -6.877337e+01
   5.249624e+01  -2.094012e+01
  -1.225047e+01   5.261524e+01
  -1.183814e+02   1.983672e+01
  -1.280139e+02  -7.787937e+01
  -5.870655e+01  -9.810084e+01
   5.633724e+01  -9.800434e+01
   8.789424e+01   1.501427e-01
   3.349754e+01   2.782984e+01
  -1.285948e+01   4.543781e-01
  -2.122124e+01  -5.004263e+01
   6.756472e+01  -4.973347e+01
   9.922488e+01  -1.396433e+01
   1.020331e+02   9.088342e+01
   1.587219e+01   1.293465e+02
  -1.048942e+02   9.478926e+01
  -1.222833e+02   1.936715e+00
  -4.208474e+01  -5.758688e+01
   3.594912e+01  -4.811710e+01
   5.127917e+01  -1.460516e+01
   9.005421e+00   1.118665e+01
  -1.150555e+01   6.555657e+00
   4.449582e+00  -5.419954e+00
   4.673009e+01   4.438806e+00
   5.253770e+01   5.967443e+01
   2.630071e+01   6.253135e+01
  -6.308031e+01   7.144797e+01
  -1.232600e+02   3.939223e+01
  -1.258788e+02  -7.563051e+01
  -3.739800e+01  -1.339713e+02
   5.746767e+01  -1.300001e+02
   8.270933e+01  -1.904489e+01
   3.736282e+01   2.607666e+01
   1.598996e+01   2.550732e+01
   2.293659e+01  -4.582502e+00
   4.609423e+01   8.113384e+00
   2.482131e+01   4.243115e+01
  -1.670189e+01   5.648254e+01
  -6.258896e+01   3.315820e+01
  -3.903227e+01  -2.521695e+01
  -1.655190e+00  -4.281208e+01
   7.509397e+01  -6.130140e+01
   1.090527e+02   3.119148e+01
   1.966875e+01   1.037365e+02
  -8.563524e+01   1.226022e+02
  -1.466443e+02   5.529360e+01
  -1.576502e+02  -7.080144e+01
  -7.291209e+01  -9.162351e+01
   3.723154e+01  -7.620982e+01
   5.201866e+01  -5.553833e+01
   4.204760e+01  -3.917633e+01
   4.502433e+01  -6.135905e+01
   6.147806e+01  -3.728532e+01
   7.385324e+01   1.129651e+01
   6.575798e+01   9.804129e+01
   2.611300e+01   1.223322e+02
  -3.426508e+01   9.748184e+01
  -1.047266e+02   5.567803e+00
  -9.125176e+01  -6.472084e+01
  -1.065803e+01  -8.453461e+01
   3.619231e+01  -4.912710e+01
   3.675855e+01  -2.333820e+00
  -1.520252e+00   2.513987e+01
  -9.772919e+00   1.674220e+01
   1.896998e+01   8.330994e+00
   5.110111e+01   9.327065e+00
   1.497716e+01   1.292172e+01
  -3.465339e+01   2.074273e+01
  -9.397723e+01  -1.834376e+01
  -9.231865e+01  -2.776182e+01
  -1.397057e+00  -5.240862e+01
   5.877968e+01  -2.898955e+01
   7.531420e+01  -3.701908e+00
   2.214819e+01   1.897994e+01
  -4.098603e+01   1.907847e+01
  -4.507478e+01  -2.094288e+01
   1.430615e+00  -4.723134e+01
   3.696439e+01  -3.748666e+01
   3.768997e+01  -6.378042e+00
   3.300753e+01   2.112502e+01
   2.824960e+01   1.609753e+01
   4.066299e+01   6.900270e+00
   4.691438e+01   3.989432e+00
   1.744179e+01   4.138499e+01
  -8.135479e+00   7.753342e+01
  -7.635174e+01   7.058369e+01
  -7.687997e+01   5.478305e+00
  -8.573418e+01  -6.493252e+01
   3.102704e+00  -7.369840e+01
   3.901311e+01  -3.857070e+01
   3.324082e+01   9.742702e+00
  -3.408662e+01   6.428742e+00
  -7.512906e+01  -4.806691e+00
  -3.976065e+01  -6.895187e+01
   4.436204e+01  -5.835264e+01
   1.061665e+02  -4.157671e+01
   9.311356e+01   2.963380e+01
   3.537957e+01   5.372818e+01
  -2.881048e+01   2.754764e+01
  -3.692267e+01  -9.955892e-01
   2.587066e+01  -1.732130e+01
   5.434706e+01   2.071611e+01
   2.281936e+01   5.983278e+01
  -4.949829e+01   8.466317e+01
  -1.154455e+02   2.631948e+01
  -7.498492e+01  -3.515763e+01
  -5.302297e-01  -1.107050e+02
   4.752908e+01  -7.399794e+01
   6.540337e+01   9.003109e+00
   1.337077e+01   8.851752e+01
  -2.830730e+00   6.206792e+01
  -2.433296e+01   1.322020e+01
  -2.701657e+01  -1.890563e+01
  -1.526536e+01  -6.252699e+00
  -8.665560e-01   1.032140e+01
  -1.312789e+01  -1.086170e+01
  -3.274002e+01  -3.231161e+01
  -1.651433e+01  -5.920866e+01
   1.875189e+01  -1.908098e+01
   6.807245e+01   2.830265e+01
   8.687253e+01   6.502843e+01
   1.376088e+01   2.298850e+01
  -4.983382e+01   2.035448e+00
  -5.031831e+01   6.982775e+00
  -6.061045e+00  -4.034548e+00
   2.421284e+01  -1.343656e+01
   1.033223e+01  -9.825564e+00
  -1.394554e+01   2.197749e-01
   4.145983e+00   4.410654e+00
   4.032380e+01   5.392693e+00
   5.374189e+01   1.320830e+01
   1.644074e+01   4.916026e+01
  -8.042090e+01   7.133504e+01
  -1.037877e+02   5.871772e+01
  -7.875651e+01  -4.629209e+01
  -4.694622e+00  -8.910265e+01
   4.897559e+01  -9.318500e+01
   6.871715e+01  -2.012166e+01
   4.927135e+01   6.943204e+00
   1.510395e+01   2.379051e+01
  -2.571882e+00   4.918424e+00
   3.322564e+00   3.639078e+00
   2.094649e+01   2.631667e+01
   1.143625e+01   4.945436e+01
  -1.389920e+01   4.055633e+01
  -4.223335e+01  -9.007525e+00
  -3.699748e+01  -6.996209e+01
  -1.612615e+01  -4.536119e+01
   4.934135e+01  -1.837200e+01
   6.702340e+01   5.649353e+01
   1.714256e+01   6.317497e+01
  -4.650655e+01   3.588381e+01
  -4.746483e+01   4.251502e+00
  -1.664318e+01  -3.363641e+01
   2.204423e+01  -3.498025e+01
   1.987541e+01  -2.130553e+01
  -1.408725e+01   6.411301e+00
  -4.440234e+01   4.666185e+00
  -1.149273e+01  -1.030318e+01
   5.401346e+01  -2.981832e+01
   7.064112e+01  -2.054216e+01
   4.209928e+01   1.173522e+01
  -1.347622e+01   4.345192e+01
  -2.705969e+01   4.835869e+01
  -2.492418e+01   1.632020e+00
   1.226028e+01  -2.736658e+01
   1.642926e+01  -2.721026e+01
   2.043275e+01   1.096984e+01
   1.327686e+01   2.934751e+01
  -5.048905e-02   2.416552e+01
  -1.897298e+01  -4.833353e+00
  -2.322495e+01  -9.528185e+00
  -7.813840e+00   1.908333e+00
  -1.751150e+00   9.617379e+00
   3.309048e+00   1.586625e-01
   3.342336e+00  -2.497456e+01
   4.424279e+00  -2.299096e+01
   1.793916e+01  -3.806877e+00
   2.011042e+01   2.404634e+01
  -4.326509e+00   3.009836e+01
  -1.948799e+01   9.808501e+00
  -3.795558e+01  -1.851602e+01
  -1.626286e+01  -3.415821e+01
   2.758614e+01  -1.895089e+01
   4.559208e+01   1.013732e+01
   3.125204e+01   2.017757e+01
  -2.129214e+01   2.259760e+01
  -4.034673e+01   1.148744e+01
  -1.412786e+01   6.324726e-01
   2.299920e+01  -2.964152e-01
   1.973544e+01   1.195043e+01
  -2.038372e+01   1.861928e+01
  -5.374312e+01   9.116802e+00
