
 $NMID
 id='ANONYMOUS ', fmtdat='(2E16.6)'
 volume=1.0
 tramp=1.0
 $END
   2.817834e+03   4.214075e+00
   1.277695e+03   1.945166e+03
  -2.908760e+02   1.751048e+03
  -1.241350e+03   3.555001e+02
  -6.931257e+02  -3.618538e+02
   4.653151e+02  -2.885794e+02
   5.429864e+02   2.796581e+02
  -4.150099e+01   6.905195e+02
  -5.554534e+02   5.456021e+02
  -6.968874e+02  -2.515323e+01
  -3.173611e+02  -5.766349e+02
   1.216138e+02  -5.260910e+02
   5.223368e+02  -4.812381e+00
   2.082607e+02   5.137491e+02
  -2.278433e+02   4.910353e+02
  -4.363871e+02  -1.284954e+02
  -1.022812e+02  -5.148311e+02
   2.334494e+02  -4.015096e+02
   3.842656e+02  -1.009749e+02
   2.321052e+02   2.751553e+02
   5.241205e+00   2.732035e+02
  -1.520618e+02   1.568238e+02
  -1.398735e+02  -5.586496e+00
   7.901240e+01  -3.498175e+01
   2.667493e+02   9.404125e+01
   1.144212e+02   2.794988e+02
  -3.201130e+02   2.506070e+02
  -4.993222e+02   2.729363e+01
  -2.855584e+02  -2.474287e+02
   3.142993e+02  -3.129038e+02
   4.882559e+02   1.542383e+01
   1.828044e+02   3.751109e+02
  -1.275838e+02   3.328694e+02
  -3.617534e+02   7.294463e+01
  -2.759848e+02  -1.045071e+02
   1.754492e+01  -2.851475e+02
   1.437278e+02  -1.305659e+02
   1.151880e+02   1.477214e+02
  -1.105411e+02   3.384107e+02
  -2.994906e+02   5.089401e+01
  -1.697001e+02  -4.976467e+02
   2.798006e+02  -4.703631e+02
   4.447686e+02   3.985585e+01
   1.246347e+02   4.124619e+02
  -2.055036e+02   2.227507e+02
  -1.798577e+02  -2.442830e+02
   6.140759e+01  -4.311398e+02
   3.313076e+02  -1.496790e+02
   3.052419e+02   3.205543e+02
   1.468525e+02   3.889461e+02
  -2.510777e+02   2.074902e+02
  -4.806930e+02  -8.442202e+01
  -2.404667e+02  -2.169643e+02
   1.361528e+02  -2.188033e+02
   2.639813e+02  -5.480168e+00
   1.520254e+02   1.478502e+02
  -1.084349e+02   9.763301e+01
  -8.632443e+01  -1.025030e+02
   7.405328e+01  -1.248927e+02
   2.250661e+02   2.552256e+01
   6.781854e+01   2.207744e+02
  -1.407703e+02   1.710370e+02
  -1.697854e+02   2.220104e+01
  -1.184890e+02  -5.973862e+01
   3.062223e+01  -1.073481e+02
   1.295321e+02  -8.870167e+01
   2.348203e+02  -9.543325e+01
   1.707193e+02   4.852641e+01
   3.599988e+01   2.802190e+02
  -8.630844e+01   2.621676e+02
  -1.076680e+02   6.689461e+01
  -2.673747e+01  -1.653089e+01
  -3.945515e+01   4.426872e+01
  -1.120736e+02   1.203467e+02
  -1.622555e+02  -1.740259e+01
  -1.163291e+02  -1.771149e+02
   5.130010e+01  -2.160211e+02
   1.695002e+02  -1.200517e+01
   1.428097e+02   1.559212e+02
   3.847191e-01   2.192462e+02
  -1.492106e+02   8.912629e+01
  -2.324201e+02  -1.009166e+02
  -1.157546e+02  -2.157357e+02
   4.678280e+01  -1.920089e+02
   1.449060e+02  -7.254960e+01
   6.508772e+01   2.441376e+01
   6.336939e+01  -3.242887e+00
   1.743697e+02   2.403044e+01
   2.547811e+02   7.027466e+01
   2.191491e+02   2.446458e+02
  -1.249531e+01   2.588644e+02
  -2.407207e+02   2.775026e+02
  -2.841105e+02   1.037281e+02
  -1.852093e+02  -8.779826e+01
  -6.834936e+01  -1.923637e+02
   7.732266e+01  -1.893416e+02
   6.533440e+01  -2.754255e+01
  -7.091997e+01   6.810458e+01
  -1.316329e+02  -5.284093e+00
  -2.673002e+01  -1.460048e+02
   9.724970e+01  -1.037278e+02
   1.161917e+02   3.581938e+01
  -1.438859e+01   1.115891e+02
  -1.186041e+02   1.534713e+00
  -9.823183e+01  -1.492620e+02
   6.856333e+00  -2.216545e+02
   1.610863e+02  -8.021117e+01
   2.072016e+02   4.939005e+01
   1.759118e+02   1.496246e+02
   5.938296e+01   1.792675e+02
  -8.997642e+01   1.103040e+02
  -1.273009e+02   1.552977e+01
  -3.133244e+01  -1.895137e+01
   4.478816e+01   2.165033e+01
   1.439366e+01   7.701998e+01
  -9.566523e+01   6.592824e+01
  -1.090680e+02  -2.011170e+01
  -3.081885e+01  -4.796996e+01
   4.582560e+01  -1.839390e+01
   4.130569e+01   3.582551e+01
  -6.970061e+01   6.285792e+01
  -1.434294e+02  -7.796539e+00
  -1.332811e+02  -1.021071e+02
  -2.090828e+01  -1.295282e+02
   1.048982e+02  -1.397246e+02
   2.260226e+02  -8.158015e+01
   9.067773e+01   1.425209e+01
  -1.541112e+01   8.192813e+01
  -5.672208e+01   1.151157e+01
   1.007700e+01  -7.438716e+01
   1.416270e+02  -2.558094e+01
   1.300639e+02   8.052947e+01
   6.783400e+01   1.237694e+02
  -5.812002e+01   1.036400e+02
  -9.169217e+01  -6.809301e+00
  -4.060044e+01  -2.967142e+01
   1.602312e+01  -6.568263e+00
   2.025026e+01   4.395974e+01
  -6.461986e+01   5.497342e+01
  -1.138025e+02   1.979199e+01
  -1.054816e+02  -9.043394e+01
   5.130694e+00  -1.377064e+02
   1.164042e+02  -8.274920e+01
   1.302681e+02   1.365762e+01
   4.042393e+01   8.634550e+01
  -3.535031e+01   5.390206e+01
  -6.044520e+01   1.888817e+01
  -1.272494e+01  -1.873321e+01
   6.153893e+00  -1.194540e+01
  -8.128183e+00   2.195230e-01
  -4.488255e+01  -4.252517e+00
  -5.684364e+01  -6.641109e+01
  -1.506754e+01  -8.086977e+01
   8.797924e+01  -8.471924e+01
   1.522870e+02  -5.176369e+01
   1.127240e+02   9.597671e+01
   1.883505e+01   1.567747e+02
  -8.209627e+01   1.393062e+02
  -9.274679e+01   5.567888e+00
  -4.498470e+01  -3.901073e+01
  -1.615381e+01  -2.324090e+01
  -2.599436e+01   2.152840e+00
  -4.946901e+01  -4.168988e+00
  -2.655867e+01  -3.968225e+01
   2.202977e+01  -4.875033e+01
   6.549840e+01  -3.317868e+01
   4.768395e+01   3.198625e+01
   1.289375e+00   4.786643e+01
  -9.406551e+01   7.352809e+01
  -1.140275e+02  -1.794199e+01
  -3.348068e+01  -1.377721e+02
   8.862926e+01  -1.208346e+02
   2.043635e+02  -5.430750e+01
   1.400560e+02   5.282408e+01
   6.729708e+01   1.166490e+02
  -4.221981e+01   8.101634e+01
  -5.867378e+01   6.126684e+01
  -5.113601e+01   4.895169e+01
  -5.079672e+01   5.629278e+01
  -6.437755e+01   3.634574e+01
  -7.716498e+01  -2.297757e+01
  -6.427386e+01  -1.034381e+02
  -1.229164e+01  -1.585011e+02
   6.886954e+01  -1.085203e+02
   1.031390e+02  -6.846384e+00
   9.193098e+01   7.038166e+01
   9.330870e+00   1.008222e+02
  -4.717658e+01   5.820992e+01
  -3.732959e+01   1.193595e+00
  -5.517381e-01  -2.290043e+01
   1.222953e+01  -2.257368e+01
  -2.266534e+01  -1.167233e+01
  -5.362828e+01  -1.922409e+01
  -2.486062e+01  -1.339056e+01
   3.587668e+01  -1.602199e+01
   8.740283e+01   1.646632e+01
   1.088969e+02   3.288733e+01
  -2.147980e+00   5.117915e+01
  -7.364585e+01   4.074583e+01
  -7.926006e+01   1.349800e+01
  -3.029169e+01  -2.331131e+01
   3.751777e+01  -1.823835e+01
   4.307432e+01   2.402074e+01
  -8.918517e-01   4.493190e+01
  -4.219246e+01   3.950756e+01
  -4.573332e+01   3.991192e+00
  -2.965053e+01  -2.037200e+01
  -2.962719e+01  -2.073918e+01
  -3.923437e+01  -8.082208e+00
  -4.907261e+01  -7.422118e+00
  -1.676940e+01  -4.314246e+01
   1.313823e+01  -9.230320e+01
   8.254534e+01  -9.149400e+01
   9.238263e+01   2.661095e+00
   7.979127e+01   5.832528e+01
   8.191601e-01   7.596498e+01
  -4.343492e+01   3.684457e+01
  -4.057377e+01  -1.795184e+01
   4.457067e+01  -9.248451e+00
   7.061671e+01   1.403173e+01
   3.246781e+01   6.065762e+01
  -5.857383e+01   7.095206e+01
  -1.188716e+02   4.351565e+01
  -1.017365e+02  -2.684959e+01
  -2.955626e+01  -6.616604e+01
   3.975186e+01  -4.245378e+01
   4.077786e+01   2.326439e+00
  -2.586774e+01   1.851286e+01
  -5.526135e+01  -2.027126e+01
  -2.207279e+01  -6.649271e+01
   6.685917e+01  -1.015880e+02
   1.238443e+02  -1.016957e+01
   9.355766e+01   5.354006e+01
  -4.423489e+00   1.358152e+02
  -6.409430e+01   9.602343e+01
  -6.694636e+01  -8.148208e+00
  -1.594810e+01  -8.087325e+01
   7.868076e+00  -6.597562e+01
   2.281815e+01  -1.189073e+01
   2.963258e+01   2.359468e+01
   1.809528e+01   7.739825e+00
   2.146973e+00  -1.162016e+01
   1.170425e+01   1.362941e+01
   3.856477e+01   4.032410e+01
   2.441080e+01   6.060048e+01
  -2.026661e+01   2.285582e+01
  -8.097853e+01  -2.598932e+01
  -7.296298e+01  -5.445439e+01
  -1.184501e+01  -3.106553e+01
   5.544490e+01  -2.302189e+00
   5.420655e+01  -6.583145e+00
   7.329359e+00   4.291364e+00
  -2.623214e+01   1.249644e+01
  -8.913612e+00   9.266755e+00
   1.453180e+01   2.750390e+00
  -3.498852e+00  -6.195378e+00
  -4.742498e+01  -1.527713e+00
  -5.578511e+01  -1.616012e+01
  -5.031135e+00  -5.356239e+01
   7.768602e+01  -6.228273e+01
   1.310967e+02  -3.848605e+01
   8.848692e+01   4.937729e+01
  -5.312394e+00   1.004052e+02
  -6.853077e+01   1.007431e+02
  -8.491621e+01   3.228552e+01
  -5.895418e+01  -7.569616e+00
  -1.328133e+01  -2.397764e+01
   2.614311e+00  -4.552813e+00
  -3.951181e+00  -2.391185e+00
  -2.361645e+01  -2.953678e+01
  -1.296629e+01  -5.710540e+01
   2.581140e+01  -4.619986e+01
   4.769361e+01   8.780313e+00
   4.704041e+01   8.011945e+01
   1.397284e+01   5.835180e+01
  -5.480067e+01   2.319358e+01
  -7.160418e+01  -7.082940e+01
  -1.770075e+01  -7.659120e+01
   4.910890e+01  -3.037323e+01
   7.063744e+01   8.504585e+00
   2.116395e+01   3.385980e+01
  -2.663301e+01   3.460522e+01
  -2.304750e+01   1.797581e+01
   1.967952e+01  -2.240304e+00
   5.201939e+01   1.504296e+00
   1.140535e+01   1.181604e+01
  -5.985483e+01   3.561807e+01
  -8.390519e+01   2.532395e+01
  -4.916402e+01  -9.261860e+00
   1.403438e+01  -5.512676e+01
   3.629429e+01  -5.334693e+01
   2.472141e+01   1.253685e-01
  -9.776882e+00   3.151983e+01
  -1.994875e+01   2.373800e+01
  -2.246164e+01  -1.391700e+01
  -8.302157e+00  -3.371605e+01
   2.082173e+00  -2.102640e+01
   1.920057e+01   8.636140e+00
   2.697368e+01   1.587148e+01
   1.127059e+01  -4.061057e-01
   3.849215e-01  -8.774343e+00
  -5.218422e+00   3.688451e-01
  -4.392569e+00   2.278512e+01
  -6.550866e+00   2.887922e+01
  -2.083837e+01   2.336474e+00
  -2.068597e+01  -3.537255e+01
   4.949646e+00  -3.249606e+01
   2.145394e+01  -1.283064e+01
   3.871310e+01   2.069742e+01
   1.364460e+01   3.548891e+01
  -3.668370e+01   1.829283e+01
  -6.092804e+01  -1.056560e+01
  -3.252055e+01  -2.862583e+01
   2.622721e+01  -2.454554e+01
   4.476058e+01  -1.577719e+01
   1.556739e+01  -2.076990e+00
  -2.350181e+01  -8.718241e-01
  -2.223131e+01  -1.449397e+01
   2.308949e+01  -2.253310e+01
   6.111941e+01  -5.634838e+00
