
 $NMID
 id='ANONYMOUS ', fmtdat='(2E16.6)'
 volume=1.0
 tramp=1.0
 $END
  -5.033045e+03  -3.489538e+02
  -2.231568e+03  -3.226465e+03
   1.013877e+03  -3.243977e+03
   2.529228e+03  -7.273733e+02
   8.765918e+02   6.987143e+02
  -9.201991e+02   6.742662e+02
  -9.682674e+02  -5.154435e+02
   7.973699e+01  -1.183187e+03
   1.034441e+03  -9.854083e+02
   1.059342e+03   2.404191e+02
   3.993259e+02   1.026871e+03
  -3.316365e+02   1.151134e+03
  -7.163562e+02   4.792675e+01
  -2.791508e+02  -8.469155e+02
   2.909968e+02  -8.531153e+02
   6.243610e+02   7.696942e+01
   1.878860e+02   7.535141e+02
  -4.922084e+02   7.197831e+02
  -6.385881e+02   7.933425e+01
  -3.310655e+02  -3.802335e+02
  -1.260867e+01  -4.848917e+02
   3.020713e+02  -2.575119e+02
   2.649468e+02  -1.449947e+01
  -1.267329e+02   1.412644e+02
  -5.249535e+02  -1.308612e+02
  -2.053638e+02  -5.577584e+02
   5.531219e+02  -4.889192e+02
   1.008226e+03   7.853953e+01
   5.207310e+02   6.639307e+02
  -5.418299e+02   5.704724e+02
  -8.873868e+02  -8.221498e+01
  -3.009789e+02  -5.404716e+02
   3.759220e+02  -6.060495e+02
   6.709682e+02  -1.212939e+02
   4.414261e+02   3.162639e+02
   5.525718e+01   5.274676e+02
  -2.694630e+02   2.750798e+02
  -1.959101e+02  -3.108308e+02
   2.436169e+02  -5.322263e+02
   5.924560e+02   1.520043e+01
   3.711974e+02   8.849561e+02
  -3.160338e+02   6.800397e+02
  -6.570897e+02   4.562577e+00
  -1.865580e+02  -6.143378e+02
   3.940351e+02  -3.082380e+02
   4.677074e+02   4.634326e+02
  -1.122827e+02   6.092504e+02
  -5.623240e+02   5.391092e+01
  -7.050198e+02  -5.248725e+02
  -1.137943e+02  -6.108881e+02
   4.795897e+02  -4.017954e+02
   7.029762e+02   1.584293e+02
   3.788168e+02   4.436718e+02
  -2.138189e+02   3.424323e+02
  -4.765098e+02  -5.102409e+01
  -2.462204e+02  -2.610412e+02
   1.606484e+02  -1.106183e+02
   1.798352e+02   2.151903e+02
  -2.321417e+02   2.130422e+02
  -4.074918e+02  -8.459900e+01
  -9.897556e+01  -3.376205e+02
   2.197854e+02  -2.650582e+02
   3.552131e+02  -5.205456e+01
   2.016775e+02   1.050912e+02
  -3.449553e+00   2.468370e+02
  -2.298457e+02   3.530558e+02
  -4.158416e+02   2.471584e+02
  -3.496977e+02  -1.419846e+02
  -7.568154e+01  -5.253881e+02
   1.566197e+02  -3.705606e+02
   1.829389e+02  -7.439175e+01
  -6.803250e+00   2.029038e+01
   3.136955e+01  -1.084693e+02
   1.987484e+02  -1.547877e+02
   3.069071e+02   1.027801e+01
   1.697826e+02   2.917827e+02
  -7.288037e+01   2.898283e+02
  -2.247508e+02   1.479966e+01
  -1.880366e+02  -2.567861e+02
   1.780897e+01  -3.144379e+02
   3.084717e+02  -1.618309e+02
   4.282023e+02   1.763077e+02
   1.998228e+02   4.087488e+02
  -1.080692e+02   3.420598e+02
  -2.569882e+02   1.226052e+02
  -1.706120e+02  -4.201885e+01
  -9.821256e+01   2.518649e+01
  -2.553648e+02   5.456781e+01
  -4.394859e+02  -1.781086e+01
  -3.182615e+02  -3.094236e+02
   1.512427e+01  -4.713608e+02
   3.607506e+02  -4.563806e+02
   5.117110e+02  -1.077688e+02
   3.803816e+02   1.153972e+02
   6.139069e+01   3.393848e+02
  -1.560863e+02   2.220936e+02
  -1.101667e+02   2.904968e+01
   1.396902e+02  -1.359222e+02
   2.259341e+02   5.596886e+00
   5.219999e+01   2.210711e+02
  -1.800437e+02   1.692389e+02
  -2.081824e+02  -6.542184e+01
   2.874535e+01  -2.417489e+02
   2.551110e+02  -9.036619e+00
   1.632841e+02   2.805510e+02
  -8.065129e+01   4.070718e+02
  -2.825384e+02   1.721873e+02
  -3.390347e+02  -1.231060e+02
  -2.346548e+02  -2.643730e+02
  -8.101130e+01  -3.040727e+02
   1.179813e+02  -1.401473e+02
   1.924852e+02  -2.754216e+00
   7.930363e+01   4.702376e+01
  -8.256773e+01  -3.879274e+01
  -3.526555e+01  -1.408699e+02
   1.459791e+02  -1.055161e+02
   1.860169e+02   2.088938e+01
   7.486030e+01   9.306054e+01
  -9.281639e+01   3.833393e+01
  -6.880433e+01  -7.322188e+01
   1.125597e+02  -9.558505e+01
   3.012412e+02  -6.525570e+00
   3.097135e+02   1.395825e+02
   8.784738e+01   2.818082e+02
  -2.166287e+02   2.940974e+02
  -2.821879e+02   1.204580e+02
  -2.095508e+02  -5.625385e+01
   3.150349e+01  -1.324418e+02
   1.022876e+02  -9.692060e+00
  -5.464825e+01   1.187273e+02
  -2.154962e+02   7.105966e+01
  -2.438825e+02  -1.129933e+02
  -8.300982e+01  -2.376021e+02
   9.795449e+01  -1.624229e+02
   1.719801e+02  -2.144318e+01
   8.138584e+01   5.319651e+01
  -2.731973e+01   1.453262e+01
  -3.629270e+01  -7.512318e+01
   6.934492e+01  -1.163701e+02
   2.470211e+02  -3.291640e+01
   1.832711e+02   1.287856e+02
   2.394123e+01   2.326221e+02
  -1.825236e+02   1.789261e+02
  -2.117515e+02   1.744308e+01
  -9.182998e+01  -1.218756e+02
   8.301481e+01  -1.084025e+02
   9.436689e+01  -2.581186e+01
   2.302697e+01   2.892903e+01
  -1.712229e+01   2.800883e+01
   1.069682e+01  -6.942234e-01
   6.606118e+01   6.596288e+00
   8.420143e+01   8.136430e+01
   2.906184e+01   1.756672e+02
  -1.460534e+02   1.573198e+02
  -2.468595e+02   3.290068e+01
  -2.154489e+02  -1.707428e+02
  -7.149979e+01  -2.562726e+02
   1.085913e+02  -1.646695e+02
   1.516207e+02  -2.771612e+01
   6.747101e+01   7.559927e+01
   3.187044e+01   3.685945e+01
   7.036521e+01  -1.641704e+01
   8.108149e+01  -9.679363e+00
   3.388883e+01   4.611216e+01
  -3.580453e+01   9.396141e+01
  -9.726427e+01   5.204371e+01
  -9.165346e+01  -3.438797e+01
   1.420930e+01  -1.137623e+02
   1.593060e+02  -1.084725e+02
   2.116055e+02   6.655798e+01
   8.112618e+01   2.358496e+02
  -1.246034e+02   2.324246e+02
  -2.694511e+02   1.118587e+02
  -2.697091e+02  -1.154798e+02
  -1.325322e+02  -1.910894e+02
   6.109125e+01  -1.605611e+02
   1.038219e+02  -8.579290e+01
   1.019552e+02  -7.672702e+01
   6.836691e+01  -1.003354e+02
   9.671461e+01  -7.084727e+01
   1.301805e+02   4.033910e+01
   1.284267e+02   1.648386e+02
   4.354257e+01   2.385577e+02
  -1.322902e+02   1.720773e+02
  -1.921721e+02   8.313637e+00
  -1.503522e+02  -1.447340e+02
  -9.833093e+00  -1.880358e+02
   7.335435e+01  -1.015555e+02
   6.539276e+01  -4.139727e+00
   2.088914e+00   4.059071e+01
  -6.600688e+00   3.385384e+01
   3.338005e+01   2.236087e+01
   7.994167e+01   2.866079e+01
   4.993365e+01   3.770684e+01
  -6.614657e+01   4.076668e+01
  -1.672183e+02  -1.006349e+01
  -1.480441e+02  -5.648021e+01
  -1.526727e+01  -8.344740e+01
   1.439929e+02  -7.437580e+01
   1.622014e+02  -9.774878e+00
   5.222476e+01   4.455299e+01
  -6.411720e+01   2.284691e+01
  -8.127146e+01  -2.307702e+01
   1.227174e+01  -6.313836e+01
   6.014612e+01  -5.964732e+01
   6.495498e+01   4.139316e+00
   4.198077e+01   5.984619e+01
   4.169661e+01   3.701810e+01
   6.960865e+01  -3.060780e+00
   6.987107e+01   3.110910e+00
   2.933915e+01   7.162134e+01
  -4.155066e+01   1.561313e+02
  -1.353543e+02   1.318725e+02
  -1.829902e+02   3.671397e+01
  -1.235357e+02  -8.783469e+01
  -3.598334e+00  -1.237597e+02
   9.051502e+01  -6.421184e+01
   6.247923e+01   2.397646e+01
  -6.142146e+01   1.474998e+01
  -1.678516e+02  -6.824915e+01
  -7.553199e+01  -1.116682e+02
   8.865378e+01  -1.245830e+02
   2.114429e+02  -3.523978e+01
   1.779867e+02   5.712897e+01
   3.793959e+01   8.924232e+01
  -6.430246e+01   7.712052e+01
  -4.907222e+01   8.969394e+00
   3.722141e+01  -2.249495e+01
   8.563557e+01   3.141414e+01
   4.422365e+01   1.351705e+02
  -1.056015e+02   1.523933e+02
  -1.871105e+02   4.557553e+01
  -1.229649e+02  -1.128453e+02
  -1.355652e+01  -2.214447e+02
   9.440435e+01  -1.521876e+02
   1.156968e+02   1.570245e+01
   5.889445e+01   1.273233e+02
  -2.484281e+00   1.225392e+02
  -4.675764e+01   2.978067e+01
  -5.885741e+01  -3.954557e+01
  -3.303558e+01  -9.458868e+00
  -5.156431e+00   2.257979e+01
  -2.092792e+01  -1.241705e+01
  -6.190683e+01  -1.003133e+02
  -3.541078e+01  -1.257933e+02
   5.972456e+01  -4.852215e+01
   1.441987e+02   4.297546e+01
   1.510408e+02   8.762687e+01
   1.857766e+01   5.485871e+01
  -9.779962e+01   8.496617e+00
  -9.040920e+01   1.922402e+00
  -8.201218e+00  -7.349098e+00
   4.462325e+01  -2.527707e+01
   1.627608e+01  -1.910231e+01
  -2.428780e+01  -7.177701e-01
   6.029314e+00   1.165945e+01
   8.435086e+01   2.572527e+00
   8.670893e+01   4.021433e+01
  -9.555566e+00   8.661607e+01
  -1.379373e+02   1.071639e+02
  -1.870306e+02   7.795252e+01
  -1.379807e+02  -6.228218e+01
  -3.045322e+01  -1.795876e+02
   9.210756e+01  -1.591260e+02
   1.177547e+02  -5.922316e+01
   7.288130e+01   2.312253e+01
   2.715422e+01   3.901920e+01
  -6.297709e+00   8.085297e+00
   1.088466e+01   3.793634e+00
   2.920994e+01   5.138830e+01
   2.387988e+01   1.031598e+02
  -3.823074e+01   7.498321e+01
  -8.387255e+01  -3.191418e+01
  -7.927914e+01  -1.213343e+02
   6.588420e+00  -1.266661e+02
   9.016704e+01  -2.370347e+01
   8.675455e+01   7.624401e+01
   2.870639e+01   9.503544e+01
  -7.257146e+01   4.585490e+01
  -1.080494e+02  -1.838007e+01
  -4.688734e+01  -5.468438e+01
   2.929444e+01  -5.844348e+01
   3.046187e+01  -3.537150e+01
  -3.911380e+01  -2.432336e+00
  -6.677610e+01   7.717528e+00
  -1.633828e+01  -2.557146e+01
   7.521166e+01  -6.262145e+01
   1.222928e+02  -6.569410e+01
   6.049888e+01   1.412095e+01
  -2.847950e+01   9.814696e+01
  -5.574787e+01   8.923173e+01
  -3.943912e+01   7.684209e+00
   1.208520e+01  -6.295904e+01
   2.484642e+01  -4.686015e+01
   3.854129e+01   2.671923e+01
   2.592771e+01   5.939538e+01
  -2.860694e+00   3.273810e+01
  -3.598192e+01  -1.526813e+01
  -4.017154e+01  -2.166352e+01
  -2.372936e+01   1.298415e+00
  -4.682939e-01   1.305363e+01
   1.038685e+01  -6.998838e+00
   1.854225e+01  -4.314482e+01
   2.402079e+01  -3.803434e+01
   3.655186e+01  -2.440975e+00
   2.363917e+01   4.781396e+01
   2.858315e+00   7.283399e+01
  -4.786228e+01   1.540334e+01
  -5.820313e+01  -4.219939e+01
  -1.530538e+01  -6.869650e+01
   6.373307e+01  -2.778485e+01
   9.301554e+01   6.753573e+00
   4.988034e+01   5.038357e+01
  -3.493508e+01   3.389986e+01
  -5.952366e+01   1.088718e+01
  -2.191052e+01   2.239676e+00
   4.637664e+01   4.535804e+00
   4.088237e+01   2.314134e+01
  -3.561353e+01   3.486977e+01
  -1.125576e+02   7.971558e+00
