
 $NMID
 id='ANONYMOUS ', fmtdat='(2E16.6)'
 volume=1.0
 tramp=1.0
 $END
   3.708711e+03  -1.733266e+02
   2.136211e+03   1.800690e+03
  -1.051977e+03   1.861641e+03
  -1.734190e+03   3.344427e+02
  -6.992936e+02  -7.228349e+02
   6.718664e+02  -3.830732e+02
   7.688972e+02   2.680497e+02
   2.322213e+02   9.581597e+02
  -7.433770e+02   7.808645e+02
  -8.228508e+02  -1.144139e+02
  -3.669524e+02  -7.081891e+02
   2.735959e+02  -8.321934e+02
   5.118809e+02  -4.036918e+01
   4.307220e+02   5.503059e+02
  -2.680734e+02   7.480636e+02
  -4.534562e+02  -2.416668e+01
  -9.723860e+01  -5.505403e+02
   3.214141e+02  -5.715070e+02
   5.049063e+02  -1.097685e+02
   3.593536e+02   2.926619e+02
  -7.409487e+00   4.156084e+02
  -1.963695e+02   2.130532e+02
  -2.136649e+02   1.900922e+01
   8.250919e+01  -1.196376e+02
   3.226136e+02   3.121436e+01
   1.561059e+02   4.228494e+02
  -4.193076e+02   3.694994e+02
  -6.604839e+02  -2.619807e+01
  -3.808468e+02  -4.300950e+02
   2.577245e+02  -3.834614e+02
   5.838526e+02  -1.059999e+02
   2.826990e+02   3.512528e+02
  -2.441093e+02   4.533578e+02
  -4.515181e+02   1.764131e+02
  -3.404346e+02  -2.334789e+02
  -6.472153e+01  -3.982016e+02
   1.714116e+02  -2.508797e+02
   1.518702e+02   1.969819e+02
  -1.345041e+02   3.919556e+02
  -4.179029e+02   3.874706e+01
  -2.555793e+02  -6.258787e+02
   2.539913e+02  -6.210379e+02
   5.247912e+02  -3.090452e+01
   1.445965e+02   3.974764e+02
  -2.165911e+02   2.947397e+02
  -3.202264e+02  -2.795967e+02
   5.541433e+01  -3.991961e+02
   4.581773e+02  -1.045698e+02
   4.908448e+02   3.332589e+02
   2.121716e+02   4.681517e+02
  -3.385496e+02   2.880514e+02
  -3.946425e+02  -4.501643e+01
  -2.929884e+02  -4.044869e+02
   1.771595e+02  -2.796409e+02
   3.583714e+02  -7.067628e+01
   1.485435e+02   1.925340e+02
  -1.058470e+02   8.518669e+01
  -1.399370e+02  -1.544007e+02
   1.210103e+02  -1.815522e+02
   2.875821e+02   6.038776e+01
   1.126075e+02   1.977601e+02
  -1.795797e+02   1.724595e+02
  -2.540405e+02   6.865031e+01
  -1.611561e+02  -5.925300e+01
   4.199138e+01  -1.697933e+02
   1.282703e+02  -2.568199e+02
   2.836520e+02  -1.692494e+02
   2.454582e+02   6.871543e+01
   8.509481e+01   3.560659e+02
  -3.435465e+01   3.222449e+02
  -9.638352e+01   4.113344e+01
  -3.230981e+01  -2.088416e+01
  -2.924630e+01   7.544229e+01
  -1.509138e+02   1.713440e+02
  -2.220865e+02  -1.062620e+01
  -1.397614e+02  -1.877544e+02
   7.071351e+01  -2.306590e+02
   1.510480e+02  -2.508194e+01
   2.080936e+02   1.817876e+02
  -5.480887e+00   2.273098e+02
  -2.142524e+02   1.486832e+02
  -2.838522e+02  -1.217434e+02
  -1.771852e+02  -2.991642e+02
   5.960395e+01  -2.460966e+02
   2.208284e+02  -8.752667e+01
   9.426195e+01   1.476796e+01
   4.714504e+01  -2.913277e+01
   1.669363e+02  -7.082376e+01
   3.357972e+02  -3.143594e+00
   2.635048e+02   1.512240e+02
   3.510898e+01   3.289778e+02
  -2.255720e+02   2.979926e+02
  -3.367971e+02   1.621219e+02
  -2.634361e+02  -4.515065e+01
  -4.190672e+01  -2.545999e+02
   6.744075e+01  -2.211002e+02
   7.326160e+01  -1.863883e+01
  -8.518770e+01   9.489297e+01
  -1.696817e+02   1.436534e+00
  -7.428415e+01  -1.521727e+02
   1.193597e+02  -1.361937e+02
   1.616748e+02   3.703403e+01
  -9.037949e-01   1.761140e+02
  -1.606120e+02   5.043142e+01
  -1.447325e+02  -2.215648e+02
   2.359144e+01  -2.947011e+02
   1.475016e+02  -1.225783e+02
   2.360058e+02   2.492258e+01
   2.623563e+02   1.837309e+02
   1.252452e+02   1.928447e+02
  -6.165486e+01   1.250485e+02
  -1.294770e+02   2.403993e+01
  -5.372474e+01  -3.497547e+01
   7.743598e+01   2.395609e+01
   3.921200e+01   8.964970e+01
  -7.757878e+01   7.719299e+01
  -1.381145e+02   6.858307e+00
  -6.073955e+01  -5.481764e+01
   6.256316e+01  -2.805391e+01
   5.197000e+01   4.631036e+01
  -6.834518e+01   8.451105e+01
  -2.182987e+02   3.759282e+01
  -2.205549e+02  -1.068897e+02
  -5.890436e+01  -1.692172e+02
   1.252893e+02  -2.035380e+02
   2.419343e+02  -8.996139e+01
   1.445715e+02   3.246109e+01
  -7.313282e+00   7.654806e+01
  -7.675841e+01   2.385510e+01
   1.661258e+01  -7.607799e+01
   1.500680e+02  -5.329693e+01
   1.775129e+02   4.393814e+01
   6.977533e+01   1.462378e+02
  -7.048824e+01   1.341348e+02
  -1.085341e+02   2.325227e+01
  -5.327366e+01  -2.934944e+01
   1.570206e+01  -1.484325e+01
   3.973994e+01   6.287906e+01
  -1.346012e+01   9.115407e+01
  -1.635669e+02   4.508932e+01
  -1.295589e+02  -6.516271e+01
  -4.383367e+01  -1.614706e+02
   1.333479e+02  -1.395954e+02
   1.743862e+02   7.410397e+00
   6.137903e+01   7.648890e+01
  -4.889620e+01   9.023012e+01
  -6.384819e+01   2.627771e+01
  -2.096658e+01  -1.696647e+01
   1.205610e+01  -1.953436e+01
  -6.457506e+00   2.998256e+00
  -5.213138e+01  -4.063165e+00
  -7.326738e+01  -4.471626e+01
   5.129501e+00  -1.220343e+02
   5.891717e+01  -1.257304e+02
   1.971356e+02  -3.290156e+01
   1.501980e+02   1.128202e+02
   4.095797e+01   1.775016e+02
  -6.364486e+01   1.344718e+02
  -1.132520e+02   2.424722e+01
  -5.256883e+01  -3.138870e+01
  -2.113105e+01  -2.570889e+01
  -3.737610e+01   5.709080e+00
  -6.240263e+01   1.204089e+01
  -3.071616e+01  -3.395077e+01
   2.465611e+01  -7.616898e+01
   6.296805e+01  -3.685706e+01
   5.527424e+01   2.122340e+01
   1.035299e+01   8.483924e+01
  -1.028923e+02   9.224038e+01
  -1.568149e+02  -1.077610e+01
  -7.888698e+01  -1.501260e+02
   6.226612e+01  -1.837751e+02
   1.934946e+02  -1.258684e+02
   2.189705e+02   3.898447e+01
   1.019248e+02   1.611868e+02
  -2.389228e+01   1.263998e+02
  -8.639608e+01   7.113062e+01
  -6.492224e+01   4.995454e+01
  -4.029044e+01   7.222488e+01
  -4.350675e+01   6.538595e+01
  -7.874949e+01   2.534562e+00
  -1.151497e+02  -1.296235e+02
  -2.713664e+01  -1.596377e+02
   3.880335e+01  -1.432549e+02
   1.348756e+02  -2.171597e+01
   1.141309e+02   8.255078e+01
   2.369904e+01   1.302249e+02
  -4.860528e+01   7.836352e+01
  -5.105813e+01   1.008271e+00
  -1.065773e+01  -3.353680e+01
  -3.315669e+00  -2.755404e+01
  -3.219943e+01  -1.057241e+01
  -6.617242e+01  -1.042318e+01
  -3.038405e+01  -2.253127e+01
   4.921522e+01  -3.790039e+01
   1.081859e+02  -1.945042e+00
   1.041835e+02   4.186372e+01
   1.139928e+01   5.946041e+01
  -7.777897e+01   4.556714e+01
  -1.059460e+02   2.703791e+01
  -4.524478e+01  -2.748974e+01
   4.237674e+01  -2.792975e+01
   5.446077e+01   1.402683e+01
   7.962640e+00   3.930979e+01
  -4.868420e+01   4.330767e+01
  -5.390903e+01   1.645220e+00
  -3.219845e+01  -3.476879e+01
  -4.189064e+01  -2.605125e+01
  -4.943192e+01   6.187767e+00
  -4.887847e+01   4.208838e+00
  -3.178323e+01  -4.848525e+01
   2.114220e+01  -1.259709e+02
   5.385880e+01  -1.263315e+02
   9.984870e+01  -1.749438e+01
   1.025600e+02   5.551408e+01
  -1.130670e-01   8.788400e+01
  -6.564399e+01   3.077780e+01
  -3.990946e+01  -8.770446e+00
   4.051256e+01  -1.990037e+01
   1.165485e+02   3.536848e+01
   7.208325e+01   8.892875e+01
  -6.690085e+01   1.035523e+02
  -1.473423e+02   3.374079e+01
  -1.219468e+02  -5.335199e+00
  -4.071197e+01  -6.167169e+01
   3.214651e+01  -6.255928e+01
   3.597951e+01  -1.367222e+01
  -2.858871e+01   2.596515e+01
  -6.618373e+01  -5.521494e+00
  -3.398219e+01  -9.397105e+01
   6.179198e+01  -1.255871e+02
   1.115217e+02  -5.588887e+01
   1.103097e+02   7.946844e+01
   6.564927e+00   1.658175e+02
  -5.667482e+01   9.370486e+01
  -7.143713e+01   7.877098e-01
  -3.940407e+01  -7.419460e+01
  -4.289749e+00  -7.060372e+01
   3.349203e+01  -1.740126e+01
   3.239355e+01   2.541328e+01
   2.059594e+01   7.155003e+00
   4.975608e-02  -1.651149e+01
   1.770885e+01   5.329277e+00
   3.348170e+01   6.387510e+01
   4.321129e+01   8.472722e+01
  -3.575089e+01   3.158229e+01
  -9.879409e+01  -4.268769e+01
  -1.060249e+02  -4.886591e+01
  -1.449857e+01  -3.447598e+01
   5.848737e+01  -1.229475e+01
   6.445982e+01  -1.442690e+01
   8.316798e+00   8.892441e-01
  -3.170159e+01   1.740531e+01
  -6.518893e+00   1.417997e+01
   1.824700e+01  -2.616868e+00
  -5.098194e+00  -7.092297e+00
  -5.095912e+01  -5.684160e+00
  -5.739109e+01  -7.745981e+00
  -5.979876e+00  -6.166555e+01
   8.387577e+01  -9.620744e+01
   1.414520e+02  -6.440731e+01
   9.912869e+01   4.179598e+01
   3.169147e+01   1.434564e+02
  -4.882078e+01   1.233285e+02
  -8.202072e+01   5.088794e+01
  -5.942583e+01  -2.678186e+00
  -1.997161e+01  -2.628638e+01
   2.642733e+00  -4.121782e+00
  -6.479720e+00   7.743203e-01
  -2.844018e+01  -3.223099e+01
  -2.397496e+01  -6.224695e+01
   1.131494e+01  -5.826496e+01
   6.112408e+01   1.258968e+01
   6.351390e+01   8.345803e+01
  -1.069768e+00   7.894938e+01
  -6.949643e+01   1.772415e+01
  -8.546378e+01  -4.018263e+01
  -2.857952e+01  -6.522861e+01
   4.126906e+01  -4.352026e+01
   7.722192e+01  -6.953245e+00
   3.160514e+01   3.191353e+01
  -1.781101e+01   4.388550e+01
  -2.147142e+01   2.659397e+01
   3.040778e+01  -6.381526e-01
   5.241192e+01  -7.825138e+00
   1.189197e+01   1.422594e+01
  -5.024979e+01   5.313074e+01
  -8.738204e+01   6.629771e+01
  -4.302799e+01   3.501080e+00
   1.436661e+01  -6.600950e+01
   3.771123e+01  -5.742890e+01
   2.090211e+01  -1.756357e+00
   3.118759e+00   3.938204e+01
  -2.022928e+01   3.641787e+01
  -3.095923e+01  -1.546526e+01
  -1.780037e+01  -4.078905e+01
   1.878652e+00  -2.633337e+01
   2.234833e+01   5.269951e+00
   3.264887e+01   1.571462e+01
   1.568369e+01  -3.059845e+00
  -3.793669e+00  -7.717266e+00
  -6.693111e+00   4.846338e+00
  -7.685298e+00   2.655788e+01
  -1.655813e+01   3.343293e+01
  -2.672541e+01   1.672405e+00
  -2.157664e+01  -3.354289e+01
   8.913759e+00  -4.712773e+01
   3.109524e+01  -1.802153e+01
   4.918565e+01   2.736196e+01
   1.264386e+01   5.844538e+01
  -3.939686e+01   1.796141e+01
  -6.413099e+01  -1.499523e+01
  -3.924699e+01  -2.855398e+01
   1.441505e+01  -3.191758e+01
   3.895385e+01  -1.473918e+01
   1.482182e+01  -7.431969e+00
  -2.945167e+01  -6.509672e+00
  -2.571504e+01  -9.894979e+00
   2.337350e+01  -2.755660e+01
   7.304479e+01   2.079965e+00
