
 $NMID
 id='ANONYMOUS ', fmtdat='(2E16.6)'
 volume=1.0
 tramp=1.0
 $END
   3.058567e+03   2.867721e+02
   1.868060e+03   1.080319e+03
  -2.581460e+02   1.840411e+03
  -1.416890e+03   9.229890e+02
  -8.618067e+02   2.121845e+01
  -4.653807e+01  -1.201551e+02
   2.100433e+02   3.278271e+01
   9.670512e+01   5.746541e+02
  -5.366948e+02   6.339257e+02
  -5.815947e+02   1.218427e+00
  -2.761943e+02  -3.489660e+02
  -5.821497e+01  -6.773843e+02
   2.404925e+02  -1.559247e+02
   3.310065e+02   3.715107e+02
  -9.199729e+01   5.216882e+02
  -4.032257e+02   9.658145e+01
  -1.501086e+02  -4.539520e+02
   2.076318e+02  -6.225079e+02
   4.805280e+02  -1.862593e+02
   4.652131e+02   1.552938e+02
   1.873545e+02   3.502266e+02
  -1.127227e+02   2.558611e+02
  -4.115837e+01   7.177710e+01
   1.524901e+02   7.490008e+01
   1.698784e+02   2.517833e+02
   2.973894e+01   3.168827e+02
  -4.639456e+02   1.229181e+02
  -6.388698e+02  -1.541376e+02
  -2.860512e+02  -4.453434e+02
   3.249912e+02  -1.264630e+02
   4.133839e+02   7.870163e+01
   1.217954e+02   2.854304e+02
  -2.018945e+02   3.692080e+02
  -4.055917e+02   5.519671e+01
  -2.871600e+02  -1.991478e+02
  -1.746993e+02  -2.835270e+02
  -5.641025e-01  -1.956432e+02
   1.681805e+01   7.791134e+01
  -1.861330e+02   1.137116e+02
  -1.974960e+02  -8.174697e+01
   4.285646e+01  -4.558510e+02
   2.242907e+02  -3.865501e+02
   2.729250e+02  -1.237861e+02
   1.087379e+02   2.821011e+02
  -9.100144e+01   1.000581e+02
  -6.898549e+01  -2.134506e+02
   6.993418e+01  -3.426262e+02
   2.980851e+02   3.537211e+00
   4.692644e+02   3.239096e+02
   2.097715e+02   3.997785e+02
  -3.143053e+02   2.569447e+02
  -4.437114e+02  -1.626080e+02
  -3.497819e+02  -2.833419e+02
   5.505744e+01  -1.887577e+02
   2.813345e+02  -6.028212e+01
   1.808209e+02  -2.527638e+00
   1.726781e+01   2.397167e+01
  -1.776838e+01  -4.453688e+01
   9.588796e+01  -8.251601e+01
   2.044447e+02   6.689176e+01
   8.099159e+01   2.076447e+02
  -1.301996e+02   2.824361e+02
  -3.849353e+02   1.901481e+02
  -2.465604e+02  -1.165272e+02
   3.715689e+01  -3.241222e+02
   2.883849e+02  -3.186571e+02
   2.898457e+02  -1.222466e+02
   2.254029e+02   1.785891e+02
   1.540643e+01   3.595445e+02
  -3.716082e+01   3.098853e+02
  -1.120795e+01   1.364119e+02
  -5.028045e+01   1.102566e+02
  -1.595838e+02   1.111194e+02
  -2.140310e+02   6.129050e+01
  -2.287331e+02  -1.282141e+02
  -2.916754e+01  -2.302418e+02
   1.401422e+02  -1.823257e+02
   1.435021e+02   6.447998e+01
   1.115954e+02   2.444324e+02
  -4.054255e+01   1.886092e+02
  -2.411616e+02   9.945287e+01
  -3.146868e+02  -1.375061e+02
  -1.605876e+02  -3.155671e+02
   7.592338e+01  -3.202661e+02
   1.420401e+02  -1.688834e+02
   1.343640e+02  -8.242786e+01
   1.209339e+02  -7.314135e+01
   2.516734e+02  -5.172803e+01
   4.020595e+02   1.454241e+02
   2.434548e+02   2.788038e+02
   1.465154e+00   4.447228e+02
  -3.854251e+02   3.801156e+02
  -4.324995e+02   2.334208e+02
  -2.830543e+02  -6.440336e+01
   7.666385e+00  -2.273373e+02
   1.254308e+02  -1.683970e+02
   5.901803e+00  -2.899355e+01
  -1.048373e+02   4.032299e+01
  -1.261285e+02  -5.355304e+01
   1.675574e+00  -1.254640e+02
   1.123402e+02  -1.173413e+02
   1.025095e+02   4.282566e+01
   1.253615e+01   1.003013e+02
  -1.313345e+02   2.281169e+01
  -9.068684e+01  -2.576762e+02
   4.561655e+01  -3.008441e+02
   2.321713e+02  -1.828149e+02
   2.857546e+02   2.629193e-01
   2.386854e+02   2.487510e+02
   5.960468e+01   2.425743e+02
  -1.355088e+02   1.101567e+02
  -1.262920e+02   3.333029e+00
  -3.939800e+01  -8.150681e+00
   4.467751e+01   6.276879e+01
  -1.274715e+01   1.091428e+02
  -8.603413e+01   7.100049e+01
  -1.451441e+02  -1.844404e+01
  -2.872682e+01  -5.279020e+01
   8.146309e+01   2.158304e+01
   4.303516e+01   7.767582e+01
  -1.484996e+02   7.704090e+01
  -2.972630e+02   1.226936e+01
  -1.858662e+02  -2.163977e+02
  -1.199475e+00  -2.775670e+02
   1.774229e+02  -2.282164e+02
   2.983149e+02  -1.020784e+02
   1.402878e+02   5.450126e+01
  -3.488443e+01   5.926485e+01
  -6.012585e+01  -1.938342e+01
   4.980979e+01  -5.622481e+01
   1.707830e+02  -2.125213e+01
   2.006314e+02   7.408241e+01
   7.880702e+01   1.795725e+02
  -8.366977e+01   1.278861e+02
  -9.893369e+01   3.829348e+00
  -3.705144e+01  -3.369835e+01
   3.310094e+01   2.413459e+01
   2.812146e+01   1.023680e+02
  -9.546749e+01   1.032986e+02
  -2.149472e+02   6.467676e+00
  -2.031278e+02  -1.248099e+02
  -4.094679e+01  -2.030354e+02
   1.464025e+02  -1.157577e+02
   1.800816e+02  -1.349944e+01
   5.459930e+01   8.634242e+01
  -6.382665e+01   8.708784e+01
  -6.410631e+01   7.944191e+00
  -5.251581e-01  -1.691699e+01
   4.033713e+01  -9.762973e+00
  -8.655110e+00   2.713317e+01
  -8.722101e+01  -1.582500e+00
  -9.121039e+01  -1.023613e+02
   3.129761e+00  -1.575537e+02
   1.316402e+02  -1.547229e+02
   2.346052e+02  -3.049514e+00
   1.644935e+02   1.690536e+02
   3.030189e+01   2.597901e+02
  -1.017880e+02   1.311169e+02
  -1.132123e+02   2.354233e+01
  -6.257503e+01  -2.839632e+01
  -2.638817e+01  -2.063944e+01
  -5.626521e+01   1.993524e+01
  -7.915875e+01   5.272616e+00
  -3.897839e+01  -5.059684e+01
   4.121582e+01  -1.090797e+02
   1.142658e+02  -6.100501e+01
   1.056637e+02   5.296810e+01
  -1.473220e+01   1.162314e+02
  -1.511296e+02   8.655319e+01
  -1.969777e+02  -8.065736e+01
  -3.165111e+01  -2.004447e+02
   1.141377e+02  -1.753805e+02
   2.357083e+02  -9.775693e+01
   2.124693e+02   9.072085e+01
   8.791710e+01   1.688731e+02
  -4.196377e+01   1.142758e+02
  -7.972656e+01   8.249341e+01
  -6.215440e+01   6.445259e+01
  -5.842311e+01   9.210008e+01
  -7.498532e+01   8.690154e+01
  -1.109484e+02  -2.099198e+01
  -1.157392e+02  -1.141592e+02
  -1.602763e+01  -2.315697e+02
   6.655897e+01  -1.628920e+02
   1.501991e+02   2.870471e+00
   1.005141e+02   1.424047e+02
   1.509981e+01   1.466632e+02
  -6.990958e+01   6.543978e+01
  -5.911189e+01  -2.131878e+01
  -1.497588e-01  -5.023818e+01
   2.831725e+01  -3.266416e+01
  -2.755387e+01  -5.816091e+00
  -8.216355e+01  -2.155619e+01
  -4.944423e+01  -4.466657e+01
   7.731876e+01  -3.117007e+01
   1.562795e+02   1.046345e+01
   1.436686e+02   6.842560e+01
   1.478180e+00   8.178348e+01
  -1.112871e+02   5.974222e+01
  -1.416586e+02  -3.794234e+00
  -3.379079e+01  -5.017179e+01
   5.468743e+01  -3.509577e+01
   7.331490e+01   9.724916e+00
   1.712671e+01   6.909137e+01
  -4.189855e+01   6.797715e+01
  -6.654057e+01   2.000636e+00
  -5.853019e+01  -5.100967e+01
  -4.739562e+01  -4.414333e+01
  -5.100770e+01   7.066095e+00
  -5.891595e+01  -6.514579e+00
  -5.311197e+01  -6.669336e+01
   2.916408e+01  -1.355888e+02
   1.142397e+02  -1.399800e+02
   1.805599e+02  -4.392812e+01
   1.216575e+02   1.057271e+02
   3.680439e+00   1.128930e+02
  -7.512938e+01   5.664147e+01
  -5.296886e+01  -1.093015e+01
   4.903570e+01  -2.193164e+01
   1.102728e+02   3.081897e+01
   5.366171e+01   1.007809e+02
  -8.408188e+01   1.042060e+02
  -1.547648e+02   7.059626e+01
  -1.442378e+02  -4.041617e+01
  -2.570367e+01  -9.306272e+01
   5.437693e+01  -6.358919e+01
   4.799215e+01   4.582469e+00
  -3.905747e+01   2.830232e+01
  -8.389575e+01  -2.091248e+01
  -3.041895e+01  -1.106893e+02
   8.232000e+01  -1.383300e+02
   1.570972e+02  -7.111210e+01
   1.206797e+02   9.777402e+01
   3.302381e+01   1.670325e+02
  -9.786386e+01   1.325829e+02
  -9.894821e+01  -1.807725e+01
  -5.651230e+01  -1.208223e+02
   1.965093e+01  -9.268952e+01
   4.741022e+01  -1.269475e+01
   3.606932e+01   2.455704e+01
   1.283086e+01   8.683495e+00
   9.169857e+00  -1.506545e+01
   2.903922e+01   2.034167e+01
   6.288419e+01   9.419031e+01
   1.434274e+01   8.239085e+01
  -5.253247e+01   3.939496e+01
  -1.338332e+02  -3.772663e+01
  -1.166993e+02  -4.686058e+01
  -6.698923e+00  -5.316257e+01
   7.292161e+01  -2.421253e+01
   8.345733e+01   3.073047e+00
   1.903803e+01   1.382801e+01
  -3.803673e+01   1.579051e+01
  -1.815555e+01   1.035382e+01
   1.016513e+01  -3.570709e+00
  -2.305223e+00  -4.371552e+00
  -6.256937e+01  -4.047349e+00
  -8.005275e+01  -2.045115e+01
  -1.901911e+01  -8.116419e+01
   8.840188e+01  -9.484359e+01
   1.947297e+02  -6.813929e+01
   1.299920e+02   4.805423e+01
   3.991811e+01   1.362392e+02
  -5.244502e+01   1.460890e+02
  -1.122455e+02   7.016919e+01
  -6.852342e+01  -2.611606e+01
  -2.342484e+01  -4.056341e+01
  -5.160123e+00  -1.261481e+01
  -1.389432e+01  -8.025783e+00
  -2.792285e+01  -3.908746e+01
  -1.305433e+01  -8.973061e+01
   3.130614e+01  -5.864820e+01
   6.307678e+01  -5.924763e-01
   7.887978e+01   8.364661e+01
   2.140473e+01   1.040360e+02
  -7.186353e+01   2.729264e+01
  -1.151195e+02  -5.171855e+01
  -3.867284e+01  -1.020235e+02
   5.553928e+01  -5.550082e+01
   9.297744e+01   1.655507e+01
   5.484129e+01   5.815119e+01
  -3.704865e+01   5.804358e+01
  -3.990498e+01   2.494633e+01
   2.911172e+01  -1.019220e+01
   7.206421e+01  -2.113445e+00
   1.540470e+01   2.696530e+01
  -6.276056e+01   5.928522e+01
  -1.214715e+02   3.947455e+01
  -6.146899e+01  -1.412350e+01
   1.005124e+01  -8.423665e+01
   6.776749e+01  -7.832790e+01
   4.424275e+01  -1.003230e+01
   3.810350e+00   4.381219e+01
  -2.471222e+01   4.683081e+01
  -3.325473e+01  -8.085805e+00
  -2.446541e+01  -4.751385e+01
  -2.374138e-01  -3.885545e+01
   2.703289e+01   3.622076e+00
   4.274316e+01   3.289146e+01
   2.066769e+01   5.594306e+00
  -2.756605e+00  -1.754100e+01
  -5.562449e+00  -7.191310e+00
   5.380493e+00   3.112590e+01
  -6.084763e+00   5.094849e+01
  -2.483718e+01   2.056406e+01
  -4.103703e+01  -3.473733e+01
  -1.261905e+01  -5.520033e+01
   4.087423e+01  -2.326451e+01
   6.570635e+01   3.352353e+01
   1.348819e+01   6.126805e+01
  -5.355552e+01   2.967190e+01
  -9.035444e+01  -2.090251e+01
  -5.340623e+01  -4.141712e+01
   2.322287e+01  -4.114578e+01
   5.619035e+01  -1.686562e+01
   2.936838e+01  -7.703036e+00
  -2.220046e+01   3.983610e+00
  -2.949442e+01  -5.257244e+00
   2.242258e+01  -2.509600e+01
   6.080800e+01  -1.832688e+01
