
 $NMID
 id='ANONYMOUS ', fmtdat='(2E16.6)'
 volume=1.0
 tramp=1.0
 $END
  -3.519846e+03  -6.675197e+02
  -2.002192e+03  -1.812992e+03
   5.330061e+02  -2.252941e+03
   1.812517e+03  -1.103335e+03
   8.900087e+02   3.918940e+02
  -3.762847e+02   4.042140e+02
  -7.669634e+02  -3.770361e+02
   1.245161e+01  -8.666419e+02
   6.171113e+02  -6.793325e+02
   7.318310e+02   1.455003e+02
   3.605584e+02   6.246673e+02
  -1.389999e+02   7.815697e+02
  -4.285471e+02   1.383074e+02
  -3.620333e+02  -4.919991e+02
   2.067137e+02  -7.059598e+02
   4.751182e+02  -4.512744e+01
   2.508415e+02   5.364627e+02
  -2.886392e+02   6.066745e+02
  -5.989855e+02   1.505666e+02
  -3.376710e+02  -2.654364e+02
  -5.512965e+01  -4.511997e+02
   2.080445e+02  -2.088365e+02
   1.648091e+02  -5.715469e+01
  -1.055339e+02  -4.960897e+01
  -3.462201e+02  -1.748578e+02
  -1.611306e+02  -3.757095e+02
   4.406626e+02  -2.525986e+02
   7.282004e+02   1.188333e+02
   2.882659e+02   5.306885e+02
  -3.608388e+02   2.951489e+02
  -6.497759e+02  -5.510868e+01
  -1.860653e+02  -4.176715e+02
   2.179377e+02  -4.535570e+02
   5.058033e+02  -2.126884e+02
   4.015293e+02   1.605645e+02
   9.830904e+01   4.011290e+02
  -1.137075e+02   2.547267e+02
  -9.854535e+01  -1.901087e+02
   2.140180e+02  -2.786534e+02
   3.359550e+02   8.053943e+01
   6.254586e+01   5.169328e+02
  -3.078353e+02   5.093415e+02
  -4.668630e+02   2.986813e+01
  -2.470153e+02  -4.099389e+02
   2.146092e+02  -1.796567e+02
   2.738919e+02   2.494304e+02
  -6.016399e+01   3.860211e+02
  -4.269480e+02   1.087557e+02
  -5.611863e+02  -3.322672e+02
  -1.600989e+02  -4.501091e+02
   4.086243e+02  -2.824134e+02
   4.589848e+02   6.991974e+01
   3.345598e+02   3.809663e+02
  -6.133360e+01   3.141507e+02
  -3.726227e+02   8.843483e+01
  -2.070313e+02  -1.050226e+02
   8.531098e+01  -8.411568e+01
   9.511414e+01   1.000390e+02
  -1.477651e+02   1.407558e+02
  -2.856245e+02  -1.242377e+02
  -1.089513e+02  -2.410363e+02
   1.533925e+02  -2.302811e+02
   3.775512e+02  -1.042186e+02
   2.063604e+02   9.911760e+01
  -4.830443e+01   2.736772e+02
  -2.527848e+02   3.407019e+02
  -3.411124e+02   2.272526e+02
  -2.455496e+02  -1.697235e+02
  -7.402050e+01  -3.941691e+02
   1.189702e+02  -3.052151e+02
   5.031378e+01  -1.278809e+02
   2.656883e+01  -2.262923e+01
   9.248752e+01  -8.618659e+01
   2.061028e+02  -8.566763e+01
   2.624717e+02   9.409109e+01
   1.153292e+02   2.384742e+02
  -7.242943e+01   2.155404e+02
  -1.803400e+02  -2.143400e+01
  -1.358229e+02  -2.323401e+02
   4.344470e+01  -2.329136e+02
   2.611598e+02  -8.400564e+01
   2.966789e+02   1.932842e+02
   1.862212e+02   3.399535e+02
  -1.009774e+02   2.489913e+02
  -2.089538e+02   1.533589e+02
  -1.282622e+02   3.827034e+01
  -1.083733e+02   3.997388e+01
  -2.167233e+02   5.702875e+01
  -3.660015e+02  -1.303337e+02
  -2.789163e+02  -2.395594e+02
   2.960494e+01  -4.081146e+02
   3.096573e+02  -3.024707e+02
   4.526497e+02  -2.061965e+02
   2.954297e+02   6.930472e+01
   1.192657e+01   2.529891e+02
  -1.062071e+02   1.893572e+02
  -4.535141e+01   2.674040e+01
   1.145688e+02  -7.515830e+01
   1.681657e+02   1.553048e+01
   4.196520e+00   1.490556e+02
  -1.374488e+02   1.267537e+02
  -1.280030e+02  -6.706680e+01
   1.976107e+01  -1.760510e+02
   1.909229e+02  -2.110654e+01
   1.442327e+02   2.324121e+02
   1.127100e+01   3.451350e+02
  -2.028018e+02   1.631490e+02
  -3.183531e+02  -2.932938e+01
  -2.407567e+02  -2.711339e+02
  -5.901925e+01  -2.484364e+02
   1.256412e+02  -1.013100e+02
   1.494084e+02  -1.767943e+01
   5.329101e+01   2.556158e+01
  -6.033338e+01  -5.173868e+01
  -1.697347e+01  -9.643510e+01
   1.077656e+02  -6.847962e+01
   1.451820e+02   3.673008e+01
   4.162867e+01   6.424276e+01
  -7.432191e+01  -1.672557e+00
  -3.834610e+01  -7.546642e+01
   1.344463e+02  -7.370819e+01
   2.703731e+02   8.872095e+00
   2.509903e+02   1.787464e+02
   2.748903e+01   2.554497e+02
  -1.872623e+02   2.448614e+02
  -2.494521e+02   1.116163e+02
  -1.618145e+02  -5.971377e+01
   3.770960e+01  -8.858445e+01
   8.305326e+01  -8.800712e-01
  -2.455748e+01   8.900615e+01
  -1.636887e+02   5.122810e+01
  -1.697839e+02  -1.176133e+02
  -5.316762e+01  -2.235998e+02
   1.056169e+02  -1.414955e+02
   1.182773e+02  -1.521373e+01
   5.105155e+01   3.686636e+01
  -2.977578e+01  -1.097761e+01
  -2.946144e+01  -8.696035e+01
   7.790492e+01  -1.094815e+02
   2.165898e+02   5.962460e+00
   1.755258e+02   1.077425e+02
  -1.978875e+00   1.917565e+02
  -1.693457e+02   1.192367e+02
  -1.652676e+02  -8.897706e+00
  -2.766116e+01  -1.105411e+02
   5.133854e+01  -1.023966e+02
   6.077801e+01  -2.295227e+01
   1.335627e+01   2.493909e+01
  -3.094283e+01   1.145913e+01
   7.163033e+00  -1.647208e+01
   7.183325e+01   6.403643e+00
   6.161229e+01   8.003353e+01
  -3.630605e+00   1.878381e+02
  -1.334173e+02   1.367142e+02
  -2.423097e+02   8.789671e+00
  -1.899287e+02  -1.494296e+02
   1.325263e+01  -2.355944e+02
   9.932271e+01  -1.326017e+02
   1.221499e+02  -2.180040e+01
   7.291041e+01   4.058068e+01
   2.602636e+01   2.844148e+01
   5.666200e+01  -7.806718e+00
   7.631455e+01  -2.618052e+00
   3.275293e+01   4.814211e+01
  -4.860428e+01   9.288899e+01
  -9.836451e+01   4.666037e+01
  -8.668189e+01  -4.740978e+01
   2.266772e+01  -1.210760e+02
   1.638461e+02  -7.737810e+01
   1.968624e+02   3.967862e+01
   1.077040e+02   1.929578e+02
  -1.217569e+02   2.030872e+02
  -2.240705e+02   8.415642e+01
  -2.228142e+02  -8.543045e+01
  -9.824542e+01  -1.915685e+02
   4.812796e+01  -1.461333e+02
   8.986394e+01  -8.836804e+01
   7.410446e+01  -6.160362e+01
   5.854785e+01  -8.948539e+01
   8.375803e+01  -5.960734e+01
   1.117644e+02   1.324974e+01
   1.005930e+02   1.461383e+02
   9.360963e+00   2.074499e+02
  -8.042093e+01   1.629931e+02
  -1.490498e+02   4.196942e+00
  -1.346283e+02  -1.166221e+02
  -3.558297e+00  -1.656218e+02
   7.099060e+01  -7.492916e+01
   5.697668e+01   9.976183e+00
  -4.162344e-01   4.569623e+01
  -1.415078e+01   3.099769e+01
   3.015823e+01   1.521941e+01
   8.155594e+01   2.693540e+01
   4.934051e+01   4.388021e+01
  -6.836786e+01   3.821849e+01
  -1.300118e+02  -9.889833e+00
  -1.254491e+02  -4.717349e+01
  -1.027379e+01  -8.423575e+01
   1.109874e+02  -8.225741e+01
   1.385601e+02  -1.264276e+01
   3.643992e+01   4.945951e+01
  -5.371155e+01   3.553623e+01
  -7.560488e+01  -9.248451e+00
  -2.796806e+01  -6.360134e+01
   4.172677e+01  -5.711905e+01
   6.508481e+01   6.493036e+00
   4.723830e+01   5.437910e+01
   4.145175e+01   5.124029e+01
   5.492275e+01   5.681097e+00
   6.364114e+01   2.938489e+00
   3.478666e+01   7.502752e+01
  -3.336758e+01   1.492577e+02
  -1.023855e+02   1.288377e+02
  -1.611674e+02   3.064181e+01
  -1.128893e+02  -9.803243e+01
  -2.857073e+00  -1.137490e+02
   8.214231e+01  -4.669188e+01
   5.104077e+01   8.730099e+00
  -4.872336e+01   1.543642e+01
  -1.414324e+02  -5.135185e+01
  -6.868586e+01  -1.129882e+02
   7.590773e+01  -1.088205e+02
   1.779911e+02  -4.543145e+01
   1.469552e+02   2.352525e+01
   2.654049e+01   8.343091e+01
  -6.675255e+01   5.486372e+01
  -4.273943e+01   3.726826e+00
   3.914201e+01  -2.777540e+01
   8.539552e+01   1.242853e+01
   3.394185e+01   1.230141e+02
  -9.251161e+01   1.429707e+02
  -1.410623e+02   5.648404e+01
  -1.262733e+02  -1.002027e+02
   1.188815e+01  -1.745778e+02
   6.855455e+01  -1.152698e+02
   1.003415e+02   1.824645e+01
   6.490568e+01   9.001681e+01
  -9.406491e+00   1.017002e+02
  -5.179937e+01   1.325529e+01
  -4.507084e+01  -3.038469e+01
  -2.031837e+01  -1.179980e+01
  -5.685329e+00   1.834044e+01
  -1.640391e+01  -2.066967e+01
  -6.089851e+01  -9.908922e+01
  -3.789441e+01  -1.033962e+02
   5.085584e+01  -4.808136e+01
   1.348599e+02   4.206568e+01
   1.198257e+02   7.761073e+01
   1.251023e+01   5.197324e+01
  -7.364993e+01   3.201434e+01
  -8.051893e+01  -1.556173e+00
  -1.260361e+01  -9.633316e+00
   3.331036e+01  -2.009128e+01
   1.460429e+01  -1.434959e+01
  -1.637279e+01   1.513687e+00
   5.484541e+00   7.654306e+00
   6.327129e+01   7.472464e-01
   8.874357e+01   1.166780e+01
   1.034760e+01   7.837332e+01
  -1.035926e+02   9.995115e+01
  -1.903095e+02   3.520678e+01
  -1.367876e+02  -6.658700e+01
  -2.576520e+01  -1.644233e+02
   8.353785e+01  -1.302216e+02
   1.012734e+02  -4.194691e+01
   7.239964e+01   2.671492e+01
   2.195294e+01   3.819155e+01
   3.433202e-02   1.068705e+01
   1.169461e+01   4.505652e+00
   3.088421e+01   4.686690e+01
   1.423722e+01   8.090832e+01
  -3.236647e+01   6.312724e+01
  -7.668391e+01  -9.324403e+00
  -7.419422e+01  -1.002436e+02
  -1.640283e+01  -1.234315e+02
   8.288179e+01  -1.727081e+01
   9.483827e+01   6.365913e+01
   2.248769e+01   8.462413e+01
  -5.722329e+01   5.315051e+01
  -1.034159e+02  -1.502886e+01
  -3.514432e+01  -5.300444e+01
   3.399046e+01  -4.625326e+01
   3.245291e+01  -2.390808e+01
  -3.278313e+01  -2.202848e+00
  -5.854523e+01   2.901799e-01
  -1.212419e+01  -2.470545e+01
   7.207044e+01  -6.909511e+01
   1.231500e+02  -4.888958e+01
   5.792616e+01   1.235782e+01
  -1.340848e+01   8.095652e+01
  -5.438460e+01   5.721262e+01
  -3.670694e+01   9.018217e+00
  -5.974161e+00  -4.887683e+01
   2.871276e+01  -4.244150e+01
   3.512924e+01   1.286724e+01
   2.283983e+01   4.659019e+01
  -4.609511e+00   3.575154e+01
  -3.139419e+01  -4.881512e+00
  -3.731258e+01  -2.415637e+01
  -2.127691e+01  -2.292821e+00
   2.662902e+00   1.430130e+01
   6.396905e+00   1.204136e+00
   2.648562e-01  -3.581630e+01
   1.316396e+01  -4.473964e+01
   2.544682e+01  -1.507185e+01
   2.615640e+01   3.516651e+01
   2.062786e+00   6.477405e+01
  -4.395421e+01   2.672143e+01
  -5.493251e+01  -3.224104e+01
  -1.379531e+01  -6.573438e+01
   4.712540e+01  -3.291988e+01
   7.999870e+01   2.488289e+01
   4.421587e+01   4.211252e+01
  -2.484344e+01   3.356259e+01
  -5.533230e+01   2.285391e+01
  -2.480770e+01   5.735590e+00
   2.701401e+01  -1.168566e+00
   2.725647e+01   1.043050e+01
  -2.826671e+01   2.439131e+01
  -8.287544e+01   2.528132e+01
