
 $NMID
 id='ANONYMOUS ', fmtdat='(2E16.6)'
 volume=1.0
 tramp=1.0
 $END
   3.259542e+03   4.300027e+02
   1.772398e+03   1.308576e+03
  -3.846371e+02   1.866855e+03
  -1.654314e+03   1.346297e+03
  -9.193898e+02  -1.991480e+02
   1.741738e+02  -4.056933e+02
   6.035174e+02   1.951508e+02
  -3.134357e+01   6.474928e+02
  -6.095212e+02   7.062688e+02
  -6.965803e+02  -3.383564e+01
  -2.877073e+02  -5.088924e+02
   1.040060e+02  -6.913875e+02
   2.227991e+02  -1.452332e+02
   2.738402e+02   4.253287e+02
  -2.381842e+02   5.482790e+02
  -3.682349e+02   5.945876e+01
  -2.331500e+02  -4.870358e+02
   1.197463e+02  -5.783949e+02
   4.920357e+02  -1.872261e+02
   3.234131e+02   2.493456e+02
   2.823101e+01   3.984327e+02
  -1.499664e+02   2.073806e+02
  -8.906895e+01   3.756108e+01
   1.415679e+02   3.035396e+01
   3.298281e+02   2.167119e+02
   1.130590e+02   3.392607e+02
  -4.371658e+02   2.242310e+02
  -6.367822e+02  -9.761292e+01
  -2.972193e+02  -4.233700e+02
   2.925316e+02  -2.260279e+02
   5.371147e+02   1.175592e+02
   1.824757e+02   3.050556e+02
  -2.441417e+02   4.863210e+02
  -4.170163e+02   2.012042e+02
  -3.964613e+02  -1.606429e+02
  -9.379679e+01  -3.221184e+02
   1.183835e+02  -2.478269e+02
   4.149718e+01   1.673747e+02
  -1.645501e+02   2.560470e+02
  -3.130797e+02  -1.005649e+02
  -5.750722e+01  -5.338008e+02
   2.318576e+02  -4.481856e+02
   4.007548e+02   1.194779e+01
   1.775887e+02   3.527589e+02
  -2.136233e+02   1.257495e+02
  -2.260390e+02  -2.370711e+02
   7.729707e+01  -3.210240e+02
   3.902689e+02  -9.188556e+01
   5.186780e+02   3.291871e+02
   1.418900e+02   3.767835e+02
  -3.298584e+02   2.992613e+02
  -4.429656e+02  -3.245503e+01
  -2.801728e+02  -2.968687e+02
   8.186998e+01  -2.341639e+02
   3.261757e+02  -1.042355e+02
   1.634067e+02   3.592623e+01
  -6.838621e+01   1.714040e+01
  -8.364041e+01  -7.859648e+01
   1.296126e+02  -1.252149e+02
   2.085557e+02   9.403128e+01
   1.026035e+02   1.698579e+02
  -1.651324e+02   2.100670e+02
  -3.326342e+02   1.175808e+02
  -2.026797e+02  -7.036295e+01
   1.557327e+01  -2.424382e+02
   2.516899e+02  -3.316061e+02
   3.227123e+02  -2.122463e+02
   2.358177e+02   1.318521e+02
   7.340872e+01   3.807299e+02
  -4.630015e+01   2.719172e+02
  -2.599825e+01   1.524931e+02
   4.313857e-01   5.237957e+01
  -8.935683e+01   9.038646e+01
  -2.109650e+02   7.062650e+01
  -2.248379e+02  -9.876043e+01
  -1.044702e+02  -2.387301e+02
   7.234462e+01  -1.885492e+02
   1.577079e+02   1.065727e+01
   1.440606e+02   2.140132e+02
  -5.029854e+01   2.231493e+02
  -2.403303e+02   7.422754e+01
  -2.399532e+02  -1.750199e+02
  -1.698030e+02  -3.127202e+02
   9.258550e+01  -2.485610e+02
   1.971967e+02  -1.266013e+02
   1.247685e+02  -5.718594e+01
   1.169451e+02  -5.365245e+01
   1.980731e+02  -7.049330e+01
   3.332242e+02   1.090365e+02
   3.012509e+02   2.392897e+02
  -2.355965e+01   3.837942e+02
  -3.172683e+02   2.928920e+02
  -4.155457e+02   2.204127e+02
  -2.768269e+02  -4.169175e+01
  -2.985189e+01  -2.320055e+02
   7.088942e+01  -1.619323e+02
   3.345271e+01  -1.530187e+01
  -1.035627e+02   5.903050e+01
  -1.370917e+02   3.063203e+00
  -6.251591e+00  -1.502291e+02
   1.199189e+02  -1.118671e+02
   1.185973e+02   5.293355e+01
  -2.069231e+01   1.421428e+02
  -1.490793e+02   1.891883e+01
  -1.385109e+02  -2.091036e+02
  -1.692342e+01  -3.689196e+02
   1.626618e+02  -1.788247e+02
   3.194110e+02   1.813479e+01
   2.223935e+02   2.146797e+02
   6.705159e+01   2.150201e+02
  -1.063682e+02   8.337219e+01
  -1.380325e+02   1.401087e+01
  -4.810256e+01  -1.516032e+01
   5.067962e+01   4.669459e+01
   1.124703e+01   1.009806e+02
  -1.009463e+02   5.150651e+01
  -1.355424e+02  -1.755671e+01
  -3.466668e+01  -6.285848e+01
   8.316624e+01   3.940037e+00
   4.467579e+01   7.886047e+01
  -1.166943e+02   7.447376e+01
  -2.671794e+02   1.359339e+01
  -2.041991e+02  -1.533565e+02
  -2.346895e+01  -2.369079e+02
   1.705837e+02  -2.067144e+02
   2.110303e+02  -1.174609e+02
   1.389136e+02   6.129226e+01
  -4.009827e+01   7.126299e+01
  -6.848158e+01  -4.645458e+00
   2.814635e+01  -8.587349e+01
   1.529006e+02  -5.041393e+01
   1.731776e+02   7.661812e+01
   4.129523e+01   1.771160e+02
  -8.889013e+01   1.232439e+02
  -1.151851e+02   2.248725e+01
  -4.497425e+01  -2.945534e+01
   3.655532e+01   1.597659e+01
   2.481026e+01   8.208671e+01
  -7.057836e+01   1.019566e+02
  -1.784440e+02   2.001040e+00
  -1.774429e+02  -9.516210e+01
  -2.397917e+01  -1.685202e+02
   1.353850e+02  -1.240393e+02
   1.531444e+02  -5.222979e+00
   3.108361e+01   9.158544e+01
  -3.552811e+01   9.969641e+01
  -6.170935e+01   2.342683e+01
  -7.190325e+00  -2.331704e+01
   2.955127e+01  -1.163087e+01
  -6.855622e+00   2.217004e+01
  -6.885376e+01   4.565662e+00
  -7.371101e+01  -6.573217e+01
  -8.497969e+00  -1.786264e+02
   1.173759e+02  -1.240293e+02
   2.237610e+02  -6.247818e+00
   2.107175e+02   1.363376e+02
  -1.204091e+01   2.048105e+02
  -7.668634e+01   1.266531e+02
  -1.051888e+02   3.198226e+01
  -6.950629e+01  -3.419410e+01
  -2.570925e+01  -2.805904e+01
  -4.949301e+01   1.284773e+01
  -7.147605e+01   1.818913e+00
  -4.148887e+01  -4.126840e+01
   4.351790e+01  -9.727382e+01
   9.199490e+01  -5.553354e+01
   9.500125e+01   4.689266e+01
  -1.799893e+01   1.169368e+02
  -1.470415e+02   6.827625e+01
  -1.818181e+02  -3.076527e+01
  -1.054741e+02  -1.803567e+02
   8.341343e+01  -1.958170e+02
   2.392012e+02  -6.775019e+01
   2.019428e+02   9.114828e+01
   9.530083e+01   1.541094e+02
  -2.298553e+01   1.199877e+02
  -8.970283e+01   8.693538e+01
  -6.646717e+01   6.529891e+01
  -4.585929e+01   7.193609e+01
  -8.043264e+01   5.862418e+01
  -1.118955e+02   2.861038e-01
  -9.556828e+01  -1.402075e+02
  -2.139063e+01  -1.944464e+02
   6.153630e+01  -1.303323e+02
   1.396391e+02  -5.295480e+00
   1.192180e+02   1.098451e+02
   1.004418e+01   1.462708e+02
  -6.230678e+01   7.104091e+01
  -4.957243e+01  -9.052231e+00
  -5.124437e-01  -4.618692e+01
   1.783747e+01  -2.974939e+01
  -2.641700e+01  -1.293249e+01
  -6.653631e+01  -1.382691e+01
  -4.832547e+01  -4.580520e+01
   6.567760e+01  -3.862464e+01
   1.369135e+02  -5.899830e+00
   1.275531e+02   4.381769e+01
   1.562375e+01   7.294964e+01
  -1.027396e+02   7.684026e+01
  -1.418188e+02   1.523757e+01
  -3.516831e+01  -4.688634e+01
   5.347517e+01  -3.780684e+01
   6.369816e+01   1.050662e+01
   2.734884e+01   5.892493e+01
  -3.560290e+01   5.815797e+01
  -6.156374e+01   4.063546e-01
  -4.674602e+01  -4.242217e+01
  -3.760300e+01  -4.325649e+01
  -4.767648e+01  -7.108459e+00
  -5.470263e+01   6.627983e-01
  -4.015390e+01  -5.753594e+01
   3.083614e+01  -1.541358e+02
   9.488409e+01  -1.529450e+02
   1.660906e+02  -2.948356e+01
   1.112552e+02   8.552107e+01
   8.705617e+00   1.162592e+02
  -7.233984e+01   5.269614e+01
  -5.341599e+01  -5.035745e+00
   4.301592e+01  -2.063413e+01
   1.235250e+02   3.884870e+01
   6.895223e+01   9.120030e+01
  -7.304487e+01   1.071233e+02
  -1.661225e+02   5.431561e+01
  -1.447413e+02  -2.687860e+01
  -2.998765e+01  -6.996650e+01
   6.361459e+01  -4.953264e+01
   3.731395e+01  -2.869258e+00
  -2.985568e+01   2.526505e+01
  -8.311384e+01  -1.075401e+01
  -3.113996e+01  -9.429954e+01
   7.976971e+01  -1.339241e+02
   1.203588e+02  -6.273197e+01
   1.185466e+02   8.356512e+01
   1.316178e+01   1.679141e+02
  -6.324860e+01   1.163727e+02
  -9.043441e+01  -5.387430e+00
  -6.656209e+01  -9.998425e+01
   1.039113e+01  -9.516413e+01
   4.644412e+01  -1.455943e+01
   4.699500e+01   2.862714e+01
   1.502891e+01   9.058102e+00
   5.538783e+00  -1.875822e+01
   1.637244e+01   1.535466e+01
   6.141304e+01   9.031241e+01
   2.979884e+01   9.751264e+01
  -4.734918e+01   4.526937e+01
  -1.244348e+02  -3.128258e+01
  -1.078306e+02  -6.955903e+01
  -1.669598e+01  -5.172714e+01
   7.195099e+01  -3.048467e+01
   7.560402e+01  -5.427374e+00
   1.283875e+01   1.047960e+01
  -2.985726e+01   1.986638e+01
  -1.200893e+01   1.358207e+01
   1.334675e+01  -3.050301e+00
  -3.872759e+00  -5.841078e+00
  -5.454836e+01  -8.221245e-01
  -8.135696e+01  -9.800703e+00
  -2.634789e+01  -7.251913e+01
   9.285561e+01  -9.326658e+01
   1.742724e+02  -4.160033e+01
   1.332086e+02   6.185333e+01
   2.620788e+01   1.403809e+02
  -6.830393e+01   1.304180e+02
  -9.659652e+01   4.907971e+01
  -6.753991e+01  -2.475747e+01
  -2.053262e+01  -2.780737e+01
  -7.193290e-02  -9.227680e+00
  -1.212041e+01  -4.195908e+00
  -3.020688e+01  -3.844914e+01
  -1.512911e+01  -7.046828e+01
   2.183301e+01  -5.530218e+01
   7.544264e+01   6.758808e+00
   6.744426e+01   9.015522e+01
   9.722565e+00   1.167692e+02
  -7.353374e+01   1.608738e+01
  -8.247062e+01  -4.858127e+01
  -3.265894e+01  -8.286009e+01
   4.899292e+01  -6.020225e+01
   8.951412e+01   1.386601e+01
   3.854409e+01   4.787094e+01
  -3.017178e+01   5.039872e+01
  -2.908312e+01   2.422554e+01
   2.792426e+01  -2.197564e+00
   5.501378e+01  -1.561576e+00
   1.473320e+01   2.195514e+01
  -6.265274e+01   5.914945e+01
  -1.157385e+02   3.916546e+01
  -5.430202e+01  -1.484473e+01
   5.965231e+00  -7.634274e+01
   5.441897e+01  -6.425305e+01
   3.452020e+01  -7.408339e+00
   1.009524e+01   4.035171e+01
  -2.027554e+01   3.992788e+01
  -3.167174e+01  -6.982519e+00
  -2.702135e+01  -3.926153e+01
   3.371624e+00  -3.241845e+01
   3.278578e+01   3.678295e+00
   3.208893e+01   1.772458e+01
   1.982453e+01   3.593445e+00
  -3.436386e+00  -1.349448e+01
  -5.737195e+00  -5.622062e+00
  -1.210900e+00   2.951825e+01
  -4.953026e+00   4.216390e+01
  -2.184635e+01   1.524540e+01
  -2.729641e+01  -3.065839e+01
   1.688630e+00  -5.752377e+01
   3.781710e+01  -2.362778e+01
   5.357921e+01   2.776968e+01
   1.139209e+01   6.065087e+01
  -4.601599e+01   3.974778e+01
  -7.231721e+01  -2.211401e+01
  -4.341895e+01  -3.546273e+01
   1.877087e+01  -3.453920e+01
   5.941235e+01  -2.599957e+01
   2.468553e+01  -6.997279e+00
  -2.388495e+01   2.201287e+00
  -2.573748e+01  -8.442847e+00
   2.544914e+01  -2.271229e+01
   7.528979e+01  -2.391811e+01
