
 $NMID
 id='ANONYMOUS ', fmtdat='(2E16.6)'
 volume=1.0
 tramp=1.0
 $END
  -3.568844e+03   2.925562e+02
  -2.731975e+03  -1.503686e+03
   3.691592e+02  -1.806509e+03
   1.741980e+03  -7.215654e+02
   6.560599e+02   4.093192e+02
  -3.425339e+02   5.114717e+02
  -6.380289e+02  -3.082587e+02
  -1.093130e+02  -8.505026e+02
   5.080051e+02  -7.131707e+02
   7.617441e+02   5.642386e+01
   4.578475e+02   6.476849e+02
  -1.934220e+02   6.154026e+02
  -5.701116e+02   1.872313e+02
  -3.528854e+02  -5.206291e+02
   9.830436e+01  -5.798984e+02
   4.762745e+02  -9.183998e+01
   2.769082e+02   4.684220e+02
  -1.129349e+02   5.088398e+02
  -4.245282e+02   2.191557e+01
  -3.155982e+02  -2.395707e+02
   1.479405e+01  -3.555201e+02
   1.651886e+02  -2.004692e+02
   1.356917e+02   5.682478e+00
  -3.687245e+01   7.605076e+01
  -3.002898e+02  -1.297354e+01
  -1.376215e+02  -3.376614e+02
   3.891092e+02  -2.720795e+02
   5.902937e+02   1.076209e+02
   3.321645e+02   3.788890e+02
  -1.881007e+02   4.079547e+02
  -5.437753e+02   6.870915e+01
  -3.566458e+02  -2.980640e+02
   2.089505e+02  -4.006345e+02
   3.059707e+02  -2.239770e+02
   2.881253e+02   1.720518e+02
   4.365092e+01   3.817496e+02
  -7.613336e+01   2.631192e+02
  -1.490800e+02  -1.511524e+02
   6.504410e+01  -3.133394e+02
   3.773990e+02   3.394792e+01
   2.480666e+02   4.692181e+02
  -2.074995e+02   5.753192e+02
  -5.065974e+02   9.758965e+01
  -2.717325e+02  -4.151094e+02
   1.949550e+02  -2.740188e+02
   2.575771e+02   1.572262e+02
   1.123862e+01   4.375797e+02
  -3.897498e+02   8.794707e+01
  -4.526402e+02  -1.189663e+02
  -1.832229e+02  -4.877512e+02
   2.990671e+02  -2.699167e+02
   4.523179e+02   3.173229e+01
   3.109950e+02   3.195466e+02
  -6.374467e+01   3.096447e+02
  -2.662408e+02   1.335532e+02
  -1.774034e+02  -1.673077e+02
   7.071497e+01  -8.067381e+01
   9.336923e+01   1.135357e+02
  -1.362016e+02   1.432311e+02
  -2.554497e+02  -1.046529e+02
  -1.231439e+02  -1.936154e+02
   1.810091e+02  -1.825007e+02
   2.285947e+02  -2.026364e+01
   1.925034e+02   4.615125e+01
  -2.185541e+01   1.757872e+02
  -8.507553e+01   2.656361e+02
  -1.966723e+02   1.883113e+02
  -2.055160e+02  -9.433871e+01
  -1.002431e+02  -3.385674e+02
   5.462954e+01  -3.205136e+02
   9.063950e+01  -8.112624e+01
   5.126396e+01   4.086822e+00
   1.457452e+01  -5.691233e+01
   1.852209e+02  -1.177601e+02
   2.107992e+02   5.885111e+01
   1.409193e+02   2.079528e+02
  -6.386118e+01   2.101865e+02
  -1.886406e+02   4.750024e+00
  -1.753783e+02  -1.767219e+02
   1.205772e+01  -2.305022e+02
   2.215139e+02  -1.069627e+02
   2.697044e+02   1.238859e+02
   1.779606e+02   2.485974e+02
  -6.054137e+01   2.599427e+02
  -1.747315e+02   9.036142e+01
  -1.132176e+02   2.104350e+01
  -8.067562e+01   5.092570e+01
  -1.658404e+02   6.906253e+01
  -3.472621e+02  -1.607216e+01
  -3.626643e+02  -1.631193e+02
  -5.467093e+01  -3.382087e+02
   3.107435e+02  -3.811056e+02
   3.227390e+02  -2.032820e+02
   2.789495e+02   1.971078e+01
   3.825382e+01   2.344681e+02
  -7.631100e+01   2.299527e+02
  -6.424642e+01   2.984297e+01
   7.305648e+01  -8.466066e+01
   1.601969e+02  -1.824875e+01
   8.282328e+01   1.824882e+02
  -8.802508e+01   1.791531e+02
  -1.630149e+02  -4.103936e+01
   1.396233e+01  -1.514038e+02
   1.482924e+02  -5.820866e+01
   1.409838e+02   1.797810e+02
  -2.438700e+01   2.384765e+02
  -1.498431e+02   1.937185e+02
  -2.364406e+02  -2.346721e+01
  -2.189317e+02  -1.360808e+02
  -9.609433e+01  -1.906521e+02
   6.039224e+01  -1.359085e+02
   1.348244e+02  -3.402880e+01
   4.047875e+01   2.724880e+01
  -5.898019e+01  -2.211995e+01
  -3.287715e+01  -1.023662e+02
   7.329059e+01  -7.451224e+01
   1.487835e+02  -1.344925e+01
   4.473966e+01   4.380477e+01
  -5.947151e+01   1.861718e+01
  -5.057385e+01  -6.350437e+01
   8.202095e+01  -5.190638e+01
   2.126237e+02  -1.272801e+01
   2.042301e+02   1.026134e+02
   5.021302e+01   1.686338e+02
  -1.237672e+02   1.962209e+02
  -2.145424e+02   8.186201e+01
  -1.423567e+02  -2.562884e+01
   4.217739e-01  -9.366262e+01
   7.985181e+01  -8.527461e+00
  -1.089178e+01   7.456740e+01
  -1.494629e+02   9.737655e+01
  -1.819803e+02  -7.514423e+01
  -2.719577e+01  -1.651941e+02
   6.253904e+01  -1.396114e+02
   9.800816e+01  -5.406280e+01
   5.286713e+01   1.262366e+01
  -2.058376e+01   3.325870e+00
  -2.841230e+01  -6.344817e+01
   2.896052e+01  -1.066737e+02
   1.509982e+02  -5.064120e+00
   1.728856e+02   7.436715e+01
   5.032230e+01   1.616649e+02
  -9.036219e+01   1.231017e+02
  -1.769856e+02   5.266365e+00
  -4.998380e+01  -8.418931e+01
   3.516373e+01  -8.366399e+01
   5.585758e+01  -3.869339e+01
   1.786229e+01   1.842743e+01
  -1.234130e+01   1.339130e+01
   8.530394e+00  -4.829975e+00
   5.574504e+01  -1.386374e+00
   8.468411e+01   5.237899e+01
   6.656782e-01   9.343406e+01
  -5.994089e+01   1.183705e+02
  -1.735641e+02   9.248649e+00
  -1.396731e+02  -1.002027e+02
  -3.366444e+01  -1.738181e+02
   9.419952e+01  -1.386629e+02
   9.842528e+01  -2.415825e+01
   6.143271e+01   3.257992e+01
   2.296836e+01   2.599257e+01
   3.684089e+01  -7.617916e+00
   5.451259e+01  -9.160865e+00
   3.921198e+01   2.601643e+01
  -2.755552e+01   5.990331e+01
  -6.362485e+01   5.904031e+01
  -5.898490e+01  -1.648179e+01
   1.035226e+01  -6.984573e+01
   1.022359e+02  -6.057863e+01
   1.556085e+02   2.082887e+01
   9.247935e+01   1.120139e+02
  -6.855403e+01   1.732596e+02
  -1.979635e+02   9.630581e+01
  -2.074333e+02  -4.512282e+01
  -9.858253e+01  -1.464002e+02
  -1.877652e-01  -1.127871e+02
   7.769552e+01  -6.477621e+01
   6.265409e+01  -5.216208e+01
   5.013119e+01  -7.145888e+01
   7.137486e+01  -5.706400e+01
   1.061759e+02   1.402805e+01
   1.005766e+02   1.074564e+02
   1.823015e+01   1.583613e+02
  -4.531711e+01   1.346149e+02
  -1.347118e+02   3.430970e+01
  -1.057858e+02  -8.211896e+01
  -9.603830e+00  -1.092510e+02
   4.458197e+01  -7.544120e+01
   4.694522e+01  -6.648344e+00
   5.458371e+00   3.753017e+01
  -1.885368e-01   2.867598e+01
   3.190358e+01   9.468906e+00
   6.831008e+01   2.167062e+01
   2.475825e+01   2.789698e+01
  -4.107485e+01   3.559613e+01
  -1.148698e+02   2.145356e+01
  -1.152663e+02  -4.454338e+01
  -1.986098e+01  -6.759701e+01
   6.983272e+01  -5.576910e+01
   1.086974e+02  -2.870250e+01
   4.523579e+01   1.980854e+01
  -3.554826e+01   3.332287e+01
  -6.358402e+01  -7.169343e+00
  -1.327242e+01  -4.702214e+01
   4.801620e+01  -3.923327e+01
   4.276627e+01   2.878842e+00
   3.397150e+01   3.980383e+01
   3.717893e+01   2.480376e+01
   5.195451e+01  -4.723475e+00
   4.956335e+01  -1.207297e+01
   2.536745e+01   4.533220e+01
  -1.628882e+01   1.009992e+02
  -6.002761e+01   1.199621e+02
  -1.168991e+02   3.391972e+01
  -1.117593e+02  -6.614665e+01
  -2.185168e+01  -8.071390e+01
   5.746162e+01  -4.256612e+01
   3.819756e+01   9.801897e+00
  -4.725281e+01   2.278216e+01
  -8.592595e+01  -4.410505e+01
  -6.751048e+01  -7.930249e+01
   6.068908e+01  -8.002808e+01
   1.277039e+02  -4.772079e+01
   1.392638e+02  -4.115914e+00
   3.098920e+01   7.352803e+01
  -4.500339e+01   6.062885e+01
  -3.693685e+01   1.395224e+01
   2.524721e+01  -2.437285e+01
   6.728193e+01   1.096790e+01
   2.380179e+01   8.950838e+01
  -5.460049e+01   1.284735e+02
  -1.268007e+02   6.738328e+01
  -9.550515e+01  -6.790524e+01
  -1.435401e+01  -1.503734e+02
   4.958579e+01  -1.189171e+02
   7.364449e+01  -6.237005e-01
   7.537869e+01   8.162092e+01
   3.896209e+00   8.110046e+01
  -2.887489e+01   1.735554e+01
  -3.695795e+01  -1.708668e+01
  -2.092775e+01  -6.171646e+00
   1.728950e-01   1.750779e+01
  -1.958940e+01  -1.016416e+01
  -3.600019e+01  -5.116907e+01
  -3.688055e+01  -6.156295e+01
   2.401387e+01  -2.849963e+01
   9.190097e+01   9.000934e+00
   1.077305e+02   4.100229e+01
   1.777999e+01   3.687998e+01
  -6.205724e+01   2.274336e+01
  -6.511496e+01   8.393815e+00
  -9.088511e+00  -7.121845e+00
   3.006076e+01  -1.891983e+01
   9.056322e+00  -1.287927e+01
  -1.471481e+01   4.278024e+00
   5.671866e+00   6.326346e+00
   5.144310e+01  -1.921819e-02
   6.848409e+01   1.048168e+01
   1.692214e+01   5.668825e+01
  -6.024496e+01   9.610629e+01
  -1.311350e+02   5.281961e+01
  -1.035141e+02  -2.942073e+01
  -1.946148e+01  -1.099724e+02
   6.488220e+01  -1.129100e+02
   9.201363e+01  -6.428980e+01
   5.955309e+01   9.368354e+00
   2.398710e+01   3.128286e+01
  -1.917696e+00   5.913664e+00
   8.561747e+00   6.540238e-01
   2.886486e+01   3.311414e+01
   2.251577e+01   7.797119e+01
  -1.831079e+01   5.579652e+01
  -5.484792e+01  -9.306338e+00
  -6.552299e+01  -9.370766e+01
  -7.340207e+00  -5.989060e+01
   6.601991e+01  -8.240987e+00
   8.047521e+01   5.299720e+01
   4.226386e+01   9.370105e+01
  -3.818759e+01   4.744288e+01
  -7.990334e+01  -4.566277e+00
  -2.625992e+01  -3.883640e+01
   2.693187e+01  -3.753796e+01
   2.507348e+01  -2.280908e+01
  -2.680751e+01   1.735731e+00
  -5.650791e+01   1.460057e+01
  -1.350416e+01  -1.596134e+01
   4.514302e+01  -6.456619e+01
   7.353359e+01  -6.489836e+01
   5.601822e+01   7.269187e+00
  -7.762765e+00   6.407972e+01
  -4.032414e+01   6.357823e+01
  -2.012958e+01   9.920488e+00
  -1.536485e+01  -3.247230e+01
   2.005759e+01  -3.415898e+01
   2.726258e+01   1.753273e+01
   2.125513e+01   4.066498e+01
  -4.859821e+00   2.144396e+01
  -2.402684e+01  -3.169259e+00
  -3.139226e+01  -1.333843e+01
  -1.214739e+01  -3.851774e+00
   3.968864e+00   1.031548e+01
   1.509888e+00  -4.872724e+00
  -3.462310e-01  -2.629885e+01
   7.281770e+00  -3.155458e+01
   2.379419e+01  -6.102921e+00
   2.017670e+01   3.545813e+01
  -4.637439e-01   4.310802e+01
  -2.482495e+01   1.875988e+01
  -4.185695e+01  -2.492511e+01
  -1.795608e+00  -4.884532e+01
   3.227632e+01  -2.352893e+01
   8.111677e+01   6.669397e+00
   3.880194e+01   3.063142e+01
  -1.908171e+01   3.583460e+01
  -5.490801e+01   1.768362e+01
  -1.788161e+01   7.039149e+00
   2.729826e+01   3.782553e+00
   3.171194e+01   6.298782e+00
  -2.216002e+01   2.618874e+01
  -5.792950e+01   1.703369e+01
