
 $NMID
 id='ANONYMOUS ', fmtdat='(2E16.6)'
 volume=1.0
 tramp=1.0
 $END
   4.422152e+03  -3.632731e+01
   2.591078e+03   2.485320e+03
  -1.003676e+03   2.735499e+03
  -2.132385e+03   6.386392e+02
  -1.036363e+03  -7.655287e+02
   4.980310e+02  -7.345142e+02
   8.720627e+02   5.136172e+02
  -4.755748e+01   1.142700e+03
  -8.230078e+02   8.578894e+02
  -1.001986e+03  -1.193447e+02
  -4.853604e+02  -9.434356e+02
   2.868052e+02  -7.983148e+02
   7.237962e+02  -1.364868e+02
   3.747735e+02   6.907301e+02
  -3.453409e+02   7.540359e+02
  -6.239706e+02   4.283548e+01
  -3.292879e+02  -6.559759e+02
   3.204091e+02  -5.617587e+02
   5.841289e+02   1.855280e+01
   4.175350e+02   3.969139e+02
  -3.762095e+01   4.233850e+02
  -2.537743e+02   2.743366e+02
  -2.001818e+02  -3.571919e+01
   6.079073e+01  -9.258228e+01
   3.818478e+02   4.946685e+01
   2.580717e+02   3.393251e+02
  -4.777202e+02   4.111710e+02
  -8.338401e+02  -1.080820e+02
  -3.470496e+02  -5.323931e+02
   3.601195e+02  -5.513253e+02
   7.027790e+02   2.610366e+01
   3.851740e+02   3.916812e+02
  -2.707405e+02   4.298717e+02
  -5.148766e+02   2.514529e+02
  -4.068776e+02  -2.103697e+02
  -3.333424e+01  -4.627131e+02
   1.644484e+02  -3.120437e+02
   1.587076e+02   2.227101e+02
  -1.460763e+02   4.836583e+02
  -4.638159e+02  -5.268334e+01
  -2.048607e+02  -6.684299e+02
   2.630085e+02  -8.396942e+02
   6.731700e+02  -1.856453e+01
   3.255699e+02   5.211822e+02
  -3.100494e+02   3.315216e+02
  -3.325765e+02  -2.135818e+02
  -8.819061e+00  -4.951909e+02
   5.771212e+02  -9.975239e+01
   5.786972e+02   2.875411e+02
   1.389040e+02   6.692656e+02
  -4.160491e+02   3.001763e+02
  -5.354825e+02  -6.230146e+01
  -3.494457e+02  -4.609335e+02
   1.312633e+02  -4.153868e+02
   4.230683e+02  -1.193263e+02
   3.029245e+02   1.749816e+02
  -1.184302e+02   1.146568e+02
  -1.079981e+02  -1.585465e+02
   1.305338e+02  -1.913183e+02
   3.407859e+02   5.767680e+01
   1.578304e+02   2.915389e+02
  -1.957140e+02   2.611354e+02
  -2.866439e+02   3.376624e+01
  -1.908647e+02  -8.552773e+01
   3.048232e+01  -2.062590e+02
   1.398380e+02  -2.873288e+02
   2.706765e+02  -2.149223e+02
   2.572935e+02   1.320665e+02
   7.519087e+01   4.807196e+02
  -1.216003e+02   4.200888e+02
  -9.805568e+01   1.021607e+02
  -2.219586e+01  -1.256982e+01
  -2.481369e+01   7.613077e+01
  -2.051157e+02   1.451743e+02
  -2.442906e+02  -3.548571e+01
  -1.945623e+02  -2.467902e+02
   7.019159e+01  -2.770128e+02
   2.207996e+02  -1.310669e+01
   1.964848e+02   2.298236e+02
  -1.476123e+00   2.675676e+02
  -2.533508e+02   9.590322e+01
  -3.310824e+02  -1.628645e+02
  -2.031091e+02  -3.175688e+02
   1.144662e+02  -3.014601e+02
   2.181637e+02  -1.293473e+02
   1.337405e+02   7.845083e-01
   8.516461e+01  -3.280816e+01
   2.040724e+02  -8.722731e+01
   4.152557e+02   6.696314e+01
   3.800583e+02   2.485069e+02
   1.646222e+01   3.967380e+02
  -3.366617e+02   4.193441e+02
  -3.935021e+02   1.542202e+02
  -3.352812e+02  -5.622583e+01
  -6.824498e+01  -2.744675e+02
   1.130736e+02  -2.406902e+02
   8.600018e+01  -2.539870e+01
  -9.463161e+01   1.133823e+02
  -2.098970e+02   1.259827e+01
  -4.845816e+01  -1.988417e+02
   1.320052e+02  -1.861889e+02
   2.177145e+02   4.796746e+01
  -1.220031e+01   2.008108e+02
  -1.810977e+02   3.185182e+01
  -1.758862e+02  -2.385818e+02
   2.470775e+01  -3.183124e+02
   1.999290e+02  -1.793540e+02
   3.226764e+02   1.036223e+01
   2.656876e+02   2.026255e+02
   1.093944e+02   2.669672e+02
  -1.116178e+02   1.563805e+02
  -1.693837e+02   2.172697e+01
  -5.523054e+01  -2.933284e+01
   6.858611e+01   3.681958e+01
   4.398984e+01   1.304811e+02
  -9.328378e+01   9.319809e+01
  -1.674283e+02   4.345336e+00
  -4.577767e+01  -6.661651e+01
   8.209022e+01  -1.949959e+01
   5.877166e+01   6.476044e+01
  -1.156817e+02   7.211182e+01
  -2.408649e+02   4.841759e+00
  -2.785464e+02  -1.803909e+02
  -7.336715e+01  -2.125846e+02
   1.661338e+02  -2.348051e+02
   2.710771e+02  -1.094343e+02
   1.634177e+02   4.005756e+01
  -2.487706e+01   1.087345e+02
  -9.986032e+01   1.187623e-01
   2.349665e+01  -8.231600e+01
   1.905308e+02  -8.564929e+01
   2.145596e+02   1.143264e+02
   3.696609e+01   1.778255e+02
  -1.062861e+02   1.679503e+02
  -1.349175e+02   4.421976e+01
  -7.019353e+01  -2.182313e+01
   2.372865e+01  -2.514591e+00
   4.034061e+01   7.164643e+01
  -6.161266e+01   1.022396e+02
  -1.768071e+02   6.646946e+00
  -1.751360e+02  -9.587543e+01
  -7.317615e+00  -1.966426e+02
   1.519393e+02  -1.565866e+02
   2.024051e+02   1.011296e+01
   6.361723e+01   9.455601e+01
  -4.258205e+01   1.015385e+02
  -7.246569e+01   3.250226e+01
  -2.447505e+01  -1.873496e+01
   1.819603e+01  -2.069656e+01
  -9.400657e+00   1.625527e+00
  -6.513153e+01  -1.337408e+01
  -9.140983e+01  -8.631168e+01
  -1.043669e+01  -1.306171e+02
   9.729332e+01  -1.310651e+02
   1.946483e+02  -1.484978e+01
   1.882013e+02   1.495420e+02
   2.264724e+01   2.032041e+02
  -1.088197e+02   1.661326e+02
  -1.336211e+02   2.843656e+01
  -6.108241e+01  -4.678868e+01
  -2.724028e+01  -3.314556e+01
  -4.604335e+01   9.120582e+00
  -6.927523e+01   1.609795e+01
  -4.686299e+01  -4.707795e+01
   3.411131e+01  -7.695791e+01
   9.909402e+01  -7.535610e+01
   7.462569e+01   2.417124e+01
  -1.267692e+01   1.004995e+02
  -1.378722e+02   7.806047e+01
  -1.928592e+02  -3.563308e+01
  -1.069031e+02  -1.543689e+02
   8.921768e+01  -1.984085e+02
   2.587718e+02  -1.184718e+02
   2.711461e+02   6.343049e+01
   1.114122e+02   1.866210e+02
  -1.060268e+01   1.489695e+02
  -9.600515e+01   8.183590e+01
  -7.103571e+01   5.576036e+01
  -7.538469e+01   8.432303e+01
  -7.641241e+01   7.464794e+01
  -1.247068e+02  -2.307649e+01
  -1.241269e+02  -1.599786e+02
  -2.438949e+01  -1.863875e+02
   8.012382e+01  -1.497025e+02
   1.675080e+02  -3.968750e+01
   1.202942e+02   1.093819e+02
   8.007317e+00   1.415891e+02
  -5.302024e+01   8.403678e+01
  -5.273862e+01   1.350606e+01
  -4.107772e+00  -4.410395e+01
   8.237184e+00  -3.611678e+01
  -3.577947e+01  -1.871788e+01
  -6.727707e+01  -3.092190e+01
  -4.052120e+01  -2.582475e+01
   6.305907e+01  -3.387699e+01
   1.426539e+02  -3.203915e+01
   1.318730e+02   3.877969e+01
   2.976976e+01   6.847776e+01
  -8.399048e+01   6.652785e+01
  -1.455097e+02   2.209052e+01
  -4.797204e+01  -4.332814e+01
   4.721153e+01  -4.672414e+01
   7.660573e+01   8.922662e+00
   4.536273e+00   6.528285e+01
  -5.901632e+01   5.317108e+01
  -5.561146e+01  -5.649033e+00
  -3.786312e+01  -4.609246e+01
  -4.153865e+01  -3.897076e+01
  -6.909787e+01   2.044167e-01
  -6.048510e+01   2.873464e+00
  -3.058437e+01  -5.388272e+01
   4.577326e+01  -1.473918e+02
   8.414454e+01  -1.514494e+02
   1.575736e+02  -2.544528e+01
   1.203217e+02   8.976454e+01
   2.431682e+01   1.151487e+02
  -7.984078e+01   4.468901e+01
  -5.401311e+01  -8.481327e+00
   5.221153e+01  -2.305217e+01
   1.119185e+02   4.490233e+01
   7.067143e+01   9.470187e+01
  -8.055034e+01   1.055871e+02
  -1.623549e+02   5.626658e+01
  -1.728335e+02  -2.301122e+01
  -3.408417e+01  -9.117270e+01
   5.733087e+01  -6.421806e+01
   4.821286e+01  -9.614022e+00
  -3.459299e+01   2.333473e+01
  -7.711714e+01  -1.852650e+01
  -3.000858e+01  -1.176490e+02
   7.751804e+01  -1.596583e+02
   1.656454e+02  -6.640984e+01
   1.072772e+02   8.915413e+01
   1.606404e+01   1.931645e+02
  -6.110828e+01   1.263716e+02
  -9.662316e+01  -4.799414e+00
  -8.715447e+01  -1.075306e+02
  -9.205877e+00  -9.708685e+01
   4.028203e+01  -2.456884e+01
   4.556403e+01   2.018415e+01
   2.498384e+01   7.057586e+00
   2.642957e+00  -2.220855e+01
   2.016236e+01   1.368788e+01
   4.561283e+01   6.617043e+01
   5.641809e+01   1.084795e+02
  -3.430235e+01   4.201080e+01
  -1.098399e+02  -2.394952e+01
  -1.367985e+02  -4.942170e+01
  -1.533638e+01  -5.093592e+01
   7.955485e+01  -2.636047e+01
   8.457640e+01  -1.629698e+00
   7.163097e+00   8.698170e+00
  -4.341657e+01   2.408514e+01
  -9.484733e+00   1.688291e+01
   2.114953e+01  -1.157784e+00
  -6.037745e+00  -8.449424e+00
  -7.015916e+01   1.265585e+00
  -8.893176e+01  -1.564431e+01
  -1.095726e+01  -8.054082e+01
   1.014666e+02  -1.179009e+02
   1.643482e+02  -5.696064e+01
   1.484044e+02   4.751958e+01
   2.588935e+01   1.538432e+02
  -7.865320e+01   1.503707e+02
  -1.094756e+02   6.629890e+01
  -7.031596e+01  -1.723924e+01
  -2.574710e+01  -3.751821e+01
   2.805415e+00  -6.863120e+00
  -8.647730e+00  -3.259411e+00
  -2.818189e+01  -3.682829e+01
  -2.558926e+01  -8.262598e+01
   3.142683e+01  -6.750239e+01
   7.554252e+01   1.082659e+01
   6.952706e+01   1.053476e+02
   8.849787e+00   9.100002e+01
  -8.082783e+01   1.321280e+01
  -1.047993e+02  -6.849058e+01
  -3.682343e+01  -9.991350e+01
   6.380854e+01  -5.829967e+01
   8.975866e+01   1.814277e+01
   3.856609e+01   4.220665e+01
  -3.452996e+01   4.595179e+01
  -3.172425e+01   2.630740e+01
   2.825156e+01   3.670607e+00
   6.573714e+01  -9.357105e+00
   1.323089e+01   2.575405e+01
  -5.902246e+01   6.183715e+01
  -1.007367e+02   7.203410e+01
  -6.328333e+01  -3.793628e+00
   1.837253e+01  -7.073911e+01
   5.567525e+01  -6.692387e+01
   3.232958e+01  -8.029110e+00
   8.918175e+00   4.536987e+01
  -2.703885e+01   3.665097e+01
  -2.961589e+01  -2.175075e+01
  -2.416604e+01  -4.778228e+01
   6.775616e+00  -2.641816e+01
   2.916885e+01   6.309152e+00
   3.525476e+01   1.969950e+01
   1.683661e+01   2.070427e+00
  -2.260729e+00  -1.343582e+01
  -6.235004e+00   5.899846e+00
  -4.840619e+00   3.541911e+01
  -1.418123e+01   3.735374e+01
  -3.052010e+01   2.434482e+00
  -2.977671e+01  -4.540370e+01
   5.176662e+00  -6.226746e+01
   4.042418e+01  -2.362663e+01
   4.634301e+01   4.452220e+01
   3.758339e-01   6.184507e+01
  -4.591618e+01   2.646405e+01
  -8.824175e+01  -1.102480e+01
  -4.366992e+01  -4.455797e+01
   2.731404e+01  -4.009051e+01
   6.249240e+01  -2.321852e+01
   1.961488e+01  -8.389776e+00
  -3.811321e+01  -2.761540e+00
  -3.671757e+01  -1.471976e+01
   2.943893e+01  -2.790788e+01
   7.755836e+01  -2.333903e+01
