
 $NMID
 id='ANONYMOUS ', fmtdat='(2E16.6)'
 volume=1.0
 tramp=1.0
 $END
  -2.323666e+03  -2.101746e+02
  -2.058091e+03  -1.029553e+03
  -1.182683e+02  -2.233633e+03
   1.172881e+03  -1.303534e+03
   7.808069e+02  -2.305071e+02
   2.070709e+02   2.113361e+02
  -2.870295e+02   4.413831e+01
  -7.474552e+01  -5.180568e+02
   3.289039e+02  -5.447615e+02
   5.240490e+02  -1.570613e+02
   4.647978e+02   2.238636e+02
  -1.240762e+02   5.965275e+02
  -1.660999e+02   1.974661e+02
  -2.726191e+02  -4.410556e+02
   8.503874e+01  -3.897085e+02
   3.394646e+02  -1.487828e+02
   3.466766e+02   3.241568e+02
  -1.403854e+02   5.297592e+02
  -4.231615e+02   1.820213e+02
  -3.385793e+02  -9.175285e+01
  -1.339289e+02  -2.788508e+02
   1.186036e+02  -1.945749e+02
   2.436388e+01  -8.183975e+01
  -2.006893e+02  -5.582564e+01
  -2.436252e+02  -2.431454e+02
   3.296881e+01  -3.574715e+02
   4.229488e+02  -5.354301e+00
   5.923290e+02   1.334598e+02
   1.753272e+02   3.850856e+02
  -2.487912e+02   9.628033e+01
  -4.646203e+02  -1.187581e+02
  -1.601823e+02  -2.696166e+02
   2.701342e+02  -3.022624e+02
   3.830463e+02  -1.648929e+02
   2.555104e+02   1.419059e+02
   9.109797e+01   3.006231e+02
  -2.251971e+01   1.631438e+02
   9.127205e+01  -1.172529e+02
   1.732219e+02  -3.487962e+01
   1.467952e+02   1.869741e+02
  -2.015068e+01   4.868545e+02
  -1.665462e+02   3.590594e+02
  -3.093480e+02   6.389713e+01
  -1.207374e+02  -2.240340e+02
   3.284333e+01  -7.093744e+01
   1.235743e+02   1.811182e+02
  -2.714819e+01   3.175242e+02
  -4.109203e+02   4.776026e+01
  -5.531139e+02  -3.690697e+02
  -1.837022e+02  -3.639460e+02
   2.661753e+02  -2.511986e+02
   4.966844e+02  -2.238868e+01
   2.898470e+02   2.439745e+02
  -1.953768e+01   2.053098e+02
  -2.201525e+02   1.299206e+02
  -2.261548e+02   5.483224e+01
  -4.991986e+01  -1.329682e+00
   1.612227e+01   4.198198e+01
  -6.236947e+01   7.229066e+01
  -1.587090e+02   2.891701e+00
  -1.331712e+02  -1.141280e+02
   1.218184e+02  -2.290915e+02
   3.027740e+02  -1.263030e+02
   2.399943e+02   6.590507e+01
  -3.876957e+01   3.283531e+02
  -2.387075e+02   3.915664e+02
  -3.290258e+02   1.619107e+02
  -2.140751e+02  -1.704510e+02
  -1.239506e+01  -3.268046e+02
   4.730768e+01  -3.327425e+02
  -1.469127e+01  -1.836366e+02
   9.690254e+00  -1.053418e+02
   1.081335e+02  -1.011620e+02
   2.066562e+02  -2.859385e+01
   1.940621e+02   1.158534e+02
   1.276433e+02   2.129804e+02
  -7.503179e+01   1.578565e+02
  -1.576576e+02  -4.417404e+01
  -1.400766e+02  -2.034812e+02
   6.100047e+01  -2.381046e+02
   2.309552e+02  -1.364241e+01
   2.805605e+02   1.433425e+02
   1.614151e+02   2.868077e+02
  -8.887539e+01   2.418728e+02
  -1.780641e+02   1.332408e+02
  -1.333369e+02   1.101511e+02
  -1.494161e+02   7.110796e+01
  -2.605828e+02   1.702216e+01
  -3.464059e+02  -8.972832e+01
  -3.424336e+02  -2.089443e+02
   7.328010e+00  -4.166007e+02
   3.503754e+02  -3.404963e+02
   4.323792e+02  -2.001724e+02
   2.545498e+02   7.033826e+01
   5.081398e+00   2.113878e+02
  -6.994967e+01   1.825305e+02
   5.119327e-01   4.122229e+01
   9.190545e+01  -5.078031e+01
   9.002855e+01   3.878170e+01
   1.337391e+01   1.116489e+02
  -9.873431e+01   1.099153e+02
  -9.165841e+01  -4.855796e+01
   1.133691e+01  -1.081011e+02
   1.631770e+02   1.273455e+01
   1.574012e+02   1.841645e+02
  -1.008620e+01   3.105485e+02
  -2.274084e+02   2.324044e+02
  -3.292227e+02  -1.953187e+01
  -2.521448e+02  -2.187480e+02
  -5.444689e+01  -2.427563e+02
   1.187434e+02  -1.283662e+02
   1.594120e+02   5.151129e+00
   3.186699e+01   1.380177e+01
  -3.835545e+01  -5.980617e+01
  -1.881046e+00  -9.899249e+01
   1.285168e+02  -6.516331e+01
   1.402322e+02   1.904635e+01
   2.582456e+01   5.566479e+01
  -7.332419e+01  -5.551294e+00
  -3.842423e+01  -9.458394e+01
   1.489028e+02  -5.094910e+01
   2.883693e+02   2.744359e+01
   1.885576e+02   1.628421e+02
   2.398556e+01   2.557162e+02
  -1.909350e+02   2.104815e+02
  -2.445859e+02   7.031805e+01
  -1.298319e+02  -3.953450e+01
   1.263923e+01  -6.935852e+01
   4.424802e+01   1.648763e+01
  -4.270218e+01   7.966077e+01
  -1.832267e+02   3.453222e+01
  -1.724824e+02  -1.007279e+02
  -4.346030e+01  -1.722966e+02
   7.169574e+01  -1.047649e+02
   1.097875e+02  -2.213137e+01
   3.427528e+01   3.124626e+01
  -4.405022e+01  -2.472058e+01
  -1.954738e+01  -9.779638e+01
   9.955976e+01  -1.228341e+02
   2.189084e+02  -2.847252e+01
   1.894265e+02   1.300102e+02
  -1.482898e+01   2.093171e+02
  -1.226979e+02   1.254479e+02
  -1.739143e+02  -1.206330e+01
  -4.764849e+01  -7.543112e+01
   4.399637e+01  -8.895412e+01
   6.433693e+01  -2.610659e+01
  -5.445498e-01   2.126865e+01
  -4.084020e+01   7.397592e+00
   9.924821e+00  -2.982892e+01
   8.486046e+01  -7.094929e+00
   1.078812e+02   7.766685e+01
  -2.187350e+00   1.735518e+02
  -1.331793e+02   1.469426e+02
  -2.028563e+02  -2.228393e+00
  -1.566728e+02  -1.456829e+02
  -3.561222e+01  -2.402859e+02
   9.644240e+01  -1.353335e+02
   1.160140e+02  -2.337905e+01
   7.421728e+01   4.054373e+01
   3.623557e+01   2.545038e+01
   5.892855e+01  -9.800631e+00
   8.358671e+01  -8.450151e+00
   6.120255e+01   4.967456e+01
  -3.322161e+01   9.426404e+01
  -1.146541e+02   7.549045e+01
  -9.693682e+01  -3.920995e+01
   1.368555e+01  -1.350260e+02
   1.596626e+02  -9.187438e+01
   1.845172e+02   6.731777e+01
   9.957804e+01   1.716841e+02
  -1.199140e+02   1.923415e+02
  -2.225055e+02   8.413560e+01
  -2.023640e+02  -5.368190e+01
  -7.640045e+01  -1.393627e+02
   3.827569e+01  -1.314598e+02
   7.372696e+01  -6.415454e+01
   5.902616e+01  -6.102980e+01
   4.879180e+01  -8.439017e+01
   7.820461e+01  -7.413066e+01
   1.234722e+02   1.693562e+01
   9.925053e+01   1.455017e+02
   1.293403e+01   2.164059e+02
  -8.929373e+01   1.672170e+02
  -1.257661e+02   2.868409e+01
  -1.104568e+02  -1.146965e+02
   3.301481e-01  -1.515915e+02
   6.632642e+01  -6.758647e+01
   5.440847e+01   1.604902e+01
  -4.974408e+00   5.085436e+01
  -1.894626e+01   3.494136e+01
   2.772792e+01   1.059236e+01
   7.413462e+01   1.834050e+01
   4.950088e+01   3.723387e+01
  -6.689625e+01   2.873968e+01
  -1.611264e+02   9.462731e+00
  -1.160070e+02  -6.737131e+01
   6.387296e+00  -8.783050e+01
   1.244927e+02  -7.364083e+01
   1.343923e+02  -8.777324e+00
   4.046775e+01   4.259258e+01
  -4.396408e+01   4.374247e+01
  -7.623349e+01  -1.587307e+01
  -2.799975e+01  -7.245138e+01
   3.941601e+01  -5.932422e+01
   6.133431e+01   4.415298e+00
   4.902519e+01   4.641050e+01
   4.680646e+01   3.567278e+01
   4.219657e+01  -4.435767e+00
   5.994199e+01  -3.602532e+00
   4.125557e+01   7.074662e+01
  -1.094305e+01   1.391058e+02
  -1.006298e+02   1.566249e+02
  -1.805236e+02   3.165676e+01
  -1.128488e+02  -8.685355e+01
  -1.376651e+01  -1.218650e+02
   9.125199e+01  -6.282963e+01
   5.892148e+01   1.229915e+01
  -5.175746e+01   1.278035e+01
  -1.240764e+02  -4.043032e+01
  -5.511134e+01  -9.521693e+01
   8.414348e+01  -9.354998e+01
   1.761800e+02  -3.778436e+01
   1.476622e+02   2.640059e+01
   1.613158e+01   7.405341e+01
  -5.943576e+01   5.803597e+01
  -4.471111e+01   3.909856e+00
   2.972379e+01  -3.057235e+01
   7.930552e+01   2.391981e+01
   3.466233e+01   1.088289e+02
  -4.552488e+01   1.376257e+02
  -1.537252e+02   7.800169e+01
  -1.104725e+02  -6.108954e+01
  -4.379555e+00  -2.007665e+02
   7.929353e+01  -1.465745e+02
   9.239018e+01   1.293720e+01
   6.213720e+01   1.134222e+02
  -1.980703e+01   8.576978e+01
  -4.866830e+01   1.179961e+01
  -4.198605e+01  -2.869082e+01
  -1.194182e+01  -4.732409e+00
  -3.479121e+00   1.513533e+01
  -2.827714e+01  -1.823821e+01
  -5.247020e+01  -8.748400e+01
  -3.981639e+01  -8.803855e+01
   5.926033e+01  -4.019175e+01
   1.340744e+02   3.479071e+01
   1.137019e+02   5.110627e+01
   1.777414e+01   5.398569e+01
  -6.570919e+01   2.773988e+01
  -6.984594e+01  -7.134817e-01
  -1.578572e+01  -1.085087e+01
   3.226739e+01  -1.773560e+01
   1.958900e+01  -1.132646e+01
  -9.671858e+00   6.203990e+00
   3.490245e+00   4.477410e+00
   6.970255e+01  -1.211358e+01
   7.574466e+01   3.794921e+00
   1.771399e+01   7.093371e+01
  -7.222430e+01   1.336886e+02
  -1.719279e+02   5.340138e+01
  -1.447515e+02  -3.848628e+01
  -3.719256e+01  -1.518194e+02
   6.810855e+01  -1.295330e+02
   1.046755e+02  -6.237942e+01
   7.277266e+01   2.668402e+00
   2.316373e+01   3.033412e+01
   5.628606e+00   1.542351e+01
   1.437880e+01   8.413516e+00
   3.083936e+01   3.915268e+01
   6.942826e+00   8.238033e+01
  -2.003102e+01   6.860249e+01
  -7.102007e+01  -3.881594e+00
  -6.746845e+01  -9.081907e+01
  -2.374354e+01  -1.049246e+02
   6.761817e+01  -2.799128e+01
   8.668484e+01   4.496595e+01
   5.190023e+01   9.095768e+01
  -4.835878e+01   6.003153e+01
  -8.522483e+01   4.727040e+00
  -4.465582e+01  -5.568335e+01
   2.712045e+01  -5.230414e+01
   3.746769e+01  -2.394570e+01
  -2.233193e+01   3.602414e+00
  -6.198932e+01   1.178696e+01
  -1.857760e+01  -2.457991e+01
   6.428392e+01  -7.435717e+01
   9.981801e+01  -6.357531e+01
   6.583641e+01   1.132355e+01
  -2.267458e+01   8.301425e+01
  -6.709833e+01   7.799421e+01
  -4.779205e+01   1.576153e+01
  -1.248743e+01  -4.688299e+01
   2.379920e+01  -4.063786e+01
   2.932089e+01   6.746845e+00
   2.744516e+01   4.537206e+01
  -1.662451e+00   3.979232e+01
  -3.140726e+01  -7.405885e-01
  -4.107042e+01  -2.296458e+01
  -1.938934e+01  -4.333420e+00
   5.643544e+00   1.958962e+01
   7.020141e+00   1.100689e+01
  -7.532298e+00  -3.063872e+01
  -2.261657e+00  -4.587166e+01
   2.070279e+01  -2.143464e+01
   4.407809e+01   3.210344e+01
   1.779562e+01   5.895677e+01
  -3.392358e+01   2.814013e+01
  -5.617759e+01  -2.662075e+01
  -1.120822e+01  -5.107571e+01
   5.728756e+01  -3.437357e+01
   8.270967e+01   9.484186e+00
   4.403645e+01   3.872010e+01
  -2.378932e+01   4.349292e+01
  -5.671489e+01   3.391850e+01
  -2.498047e+01   9.729289e+00
   2.922987e+01  -3.911287e+00
   2.928309e+01  -1.106767e+00
  -1.631455e+01   1.677642e+01
  -6.973878e+01   3.246619e+01
