
 $NMID
 id='ANONYMOUS ', fmtdat='(2E16.6)'
 volume=1.0
 tramp=1.0
 $END
   2.958782e+03  -4.880335e+02
   2.615608e+03   1.147970e+03
  -5.691660e+02   2.081342e+03
  -1.509492e+03   1.086974e+03
  -9.042193e+02  -3.603865e+02
   1.365506e+02  -3.803241e+02
   5.570789e+02   2.128658e+02
   3.474488e+02   7.916010e+02
  -4.320751e+02   5.255822e+02
  -6.343093e+02  -1.230069e+01
  -5.412840e+02  -5.241186e+02
  -7.568952e+01  -6.172971e+02
   2.965722e+02  -2.917472e+02
   4.008731e+02   4.659701e+02
  -9.780194e+01   4.602648e+02
  -4.505426e+02   1.830593e+02
  -3.466935e+02  -3.766763e+02
   1.435374e+02  -5.649185e+02
   4.443163e+02  -2.225721e+02
   3.753391e+02   6.100265e+01
   1.118054e+02   2.676819e+02
  -1.053732e+02   2.203109e+02
  -1.506915e+02  -8.949362e+00
   8.924747e+01  -3.222936e+01
   2.821403e+02   7.781506e+01
   1.023792e+02   3.424198e+02
  -3.370886e+02   2.736062e+02
  -6.904180e+02  -4.172675e+01
  -4.043139e+02  -3.156685e+02
   1.200361e+02  -3.427357e+02
   4.867584e+02  -5.693805e-02
   3.721771e+02   2.806800e+02
  -2.316770e+02   3.982894e+02
  -3.748725e+02   1.997638e+02
  -3.617471e+02  -1.158869e+02
  -9.676316e+01  -3.286464e+02
   1.020368e+02  -2.550752e+02
   6.657858e+01   4.703496e+01
  -5.975513e+01   2.427897e+02
  -2.125207e+02   1.161899e+01
  -1.860921e+02  -5.097588e+02
   8.097587e+01  -6.217706e+02
   4.498694e+02  -9.289526e+01
   3.038386e+02   2.930211e+02
  -1.103990e+02   2.626822e+02
  -3.438812e+02  -2.058953e+02
   3.726365e+01  -4.122239e+02
   4.357430e+02  -7.103095e+01
   5.519136e+02   2.552540e+02
   1.653188e+02   4.148566e+02
  -2.049816e+02   2.400227e+02
  -5.051971e+02   1.822319e+01
  -2.869721e+02  -2.096702e+02
   3.400260e+01  -2.540457e+02
   3.281143e+02  -1.073643e+02
   1.783418e+02   8.621952e+01
  -1.517850e+01   5.951361e+01
  -9.301701e+01  -9.311203e+01
   8.787297e+01  -1.326046e+02
   2.425891e+02   3.677233e+01
   1.667511e+02   1.728311e+02
  -1.427599e+02   1.953715e+02
  -2.475900e+02   1.028286e+02
  -1.860833e+02  -1.964561e+01
  -2.242166e+00  -2.407669e+02
   1.933635e+02  -2.836669e+02
   2.455978e+02  -1.852976e+02
   2.212767e+02   1.002178e+02
   5.523133e+01   2.942981e+02
  -3.969097e-01   3.291966e+02
  -3.047545e+01   1.276629e+02
  -3.880571e+01   3.162968e+01
  -3.374016e+01   8.721459e+01
  -1.644071e+02   7.897709e+01
  -2.276030e+02  -2.548537e+01
  -1.605460e+02  -2.129100e+02
   7.617705e+01  -1.625547e+02
   1.649224e+02  -1.719200e+01
   1.961167e+02   1.768300e+02
   1.622551e+01   2.150610e+02
  -1.784013e+02   8.153666e+01
  -2.808060e+02  -1.175268e+02
  -1.446710e+02  -2.650153e+02
   3.611486e+01  -2.264252e+02
   1.440013e+02  -1.138510e+02
   1.288423e+02  -5.849777e+01
   9.754468e+01  -4.588175e+01
   1.702934e+02  -7.757988e+01
   2.894295e+02  -1.449456e+01
   3.249051e+02   2.029748e+02
   5.329189e+01   2.938902e+02
  -2.571229e+02   3.502077e+02
  -3.464253e+02   2.456348e+02
  -2.877692e+02   1.086540e+01
  -6.701749e+01  -2.391110e+02
   6.132662e+01  -2.183999e+02
   3.607405e+01  -4.411566e+01
  -7.804125e+01   7.882024e+01
  -1.451473e+02   1.797279e+01
  -6.827754e+01  -1.047429e+02
   7.488707e+01  -1.736529e+02
   1.156953e+02   1.710876e+00
  -9.490780e+00   1.303193e+02
  -1.329264e+02   5.319552e+01
  -1.469235e+02  -1.971763e+02
   1.396590e+01  -3.315004e+02
   1.443916e+02  -2.151615e+02
   2.570933e+02   3.304003e+01
   2.527341e+02   1.168374e+02
   1.161741e+02   1.857310e+02
  -6.429785e+01   1.430554e+02
  -1.484502e+02   5.127762e+01
  -4.431055e+01  -2.425244e+01
   5.542604e+01   2.832361e+01
   2.964463e+01   9.028169e+01
  -8.608235e+01   1.037407e+02
  -1.267813e+02   4.932135e+01
  -3.941874e+01  -4.625429e+01
   6.472615e+01  -1.256130e+01
   3.804234e+01   6.408811e+01
  -1.046016e+02   6.762354e+01
  -2.348623e+02   5.366562e+01
  -2.262820e+02  -1.100630e+02
  -8.322055e+01  -1.951558e+02
   1.541738e+02  -2.077005e+02
   2.408805e+02  -1.197814e+02
   1.314463e+02   3.486802e+01
  -4.001723e+00   8.041672e+01
  -5.580906e+01   1.315174e+01
   1.590254e+01  -8.410099e+01
   1.481519e+02  -7.995350e+01
   1.762632e+02   3.735320e+01
   5.651577e+01   1.646600e+02
  -6.313061e+01   1.200277e+02
  -1.071304e+02   4.479217e+01
  -5.792374e+01  -1.382459e+01
   2.618801e+01   4.581672e+00
   3.423704e+01   7.481133e+01
  -4.687192e+01   1.036619e+02
  -1.628380e+02   2.047104e+01
  -1.580637e+02  -8.324545e+01
  -6.168356e+01  -1.588736e+02
   8.311242e+01  -1.406192e+02
   1.379908e+02  -3.021259e+01
   7.886157e+01   7.096959e+01
  -4.149397e+01   1.042695e+02
  -6.231420e+01   3.044804e+01
  -1.610514e+01  -1.456176e+01
   2.540815e+01  -8.535316e+00
  -8.038990e+00   1.521877e+01
  -6.232122e+01   7.024933e+00
  -9.039862e+01  -4.842530e+01
  -1.798760e+01  -1.356809e+02
   5.698719e+01  -1.560854e+02
   1.818551e+02  -1.489023e+01
   1.532458e+02   1.152533e+02
   7.448533e+01   1.662287e+02
  -5.767687e+01   1.469830e+02
  -1.031176e+02   5.781759e+01
  -6.954732e+01  -4.262983e+01
  -2.920761e+01  -2.507364e+01
  -4.464687e+01   1.224846e+01
  -6.553024e+01   1.978359e+01
  -4.314961e+01  -3.558081e+01
   3.219838e+01  -7.162251e+01
   7.774992e+01  -6.966399e+01
   7.304810e+01   2.034212e+01
  -1.500912e+01   1.088468e+02
  -1.165445e+02   7.486969e+01
  -1.626898e+02  -2.769204e+01
  -1.099256e+02  -1.510087e+02
   5.218745e+01  -1.886509e+02
   1.888075e+02  -1.425216e+02
   1.882589e+02   5.356342e+01
   9.691769e+01   1.256881e+02
  -1.027926e+01   1.172985e+02
  -6.908076e+01   6.699926e+01
  -6.491533e+01   4.923820e+01
  -4.275770e+01   8.157843e+01
  -4.324961e+01   8.261400e+01
  -1.221987e+02   1.595722e+01
  -1.295902e+02  -9.922266e+01
  -7.973496e+01  -1.778460e+02
   6.404074e+01  -1.699829e+02
   1.330708e+02  -4.622318e+01
   1.068751e+02   8.799424e+01
   2.246612e+01   1.258813e+02
  -3.843620e+01   7.450223e+01
  -4.546330e+01   3.585421e+00
  -4.933688e+00  -3.537930e+01
   3.483215e+00  -3.453515e+01
  -2.984804e+01  -4.646184e+00
  -7.279751e+01  -1.891031e+00
  -3.716009e+01  -3.313967e+01
   4.955281e+01  -3.468411e+01
   1.253635e+02  -1.297124e+01
   1.046221e+02   2.697606e+01
   2.924998e+01   8.512110e+01
  -1.009693e+02   7.798178e+01
  -1.145319e+02   1.740807e+01
  -3.636664e+01  -2.805451e+01
   3.644774e+01  -4.799883e+01
   6.423627e+01   5.845362e+00
   1.997806e+01   5.917810e+01
  -3.463811e+01   4.796378e+01
  -5.206735e+01   5.592540e+00
  -4.546553e+01  -3.297931e+01
  -3.721506e+01  -3.425003e+01
  -4.356766e+01   1.318801e+01
  -5.133821e+01   7.264590e+00
  -4.425844e+01  -4.199419e+01
   1.594146e+01  -1.270805e+02
   7.740841e+01  -1.227102e+02
   1.314912e+02  -3.479430e+01
   1.226876e+02   5.527673e+01
   1.837258e+01   1.072241e+02
  -6.714245e+01   6.040038e+01
  -5.396451e+01   4.992315e+00
   3.909069e+01  -2.966254e+01
   9.978514e+01   2.650732e+01
   5.590302e+01   7.613859e+01
  -6.416569e+01   8.704092e+01
  -1.244878e+02   6.542460e+01
  -1.428465e+02   1.265907e+01
  -4.796096e+01  -6.882146e+01
   3.746593e+01  -5.071388e+01
   4.139507e+01  -1.316340e+01
  -2.692464e+01   2.598468e+01
  -7.565054e+01  -8.616978e+00
  -3.271575e+01  -8.678734e+01
   6.670919e+01  -1.306925e+02
   1.060785e+02  -1.004701e+02
   1.139698e+02   4.706352e+01
   6.974006e+01   1.429562e+02
  -3.976564e+01   1.338405e+02
  -8.200749e+01   2.563359e+00
  -5.980707e+01  -8.628508e+01
  -1.392045e+01  -8.699827e+01
   3.496206e+01  -1.922119e+01
   4.814658e+01   1.284028e+01
   1.711534e+01   1.234840e+00
   1.309223e+00  -1.613078e+01
   1.940829e+01   9.514537e+00
   5.375695e+01   7.721152e+01
   4.178269e+01   7.865640e+01
  -3.519917e+01   4.294066e+01
  -1.144500e+02  -2.589232e+01
  -1.040813e+02  -2.964431e+01
  -1.936757e+01  -3.774874e+01
   6.875086e+01  -3.784623e+01
   6.864767e+01  -2.064746e+01
   1.235841e+01   3.970687e+00
  -2.507133e+01   2.226958e+01
  -8.819226e+00   1.656792e+01
   1.461918e+01  -6.096811e+00
  -5.406656e+00  -6.653333e+00
  -5.972538e+01   3.177431e+00
  -8.206163e+01   4.442038e+00
  -2.534760e+01  -5.632691e+01
   6.698090e+01  -1.098169e+02
   1.274471e+02  -6.611836e+01
   1.335422e+02   2.571707e+01
   3.926908e+01   1.346679e+02
  -2.287075e+01   1.287697e+02
  -7.354847e+01   5.666472e+01
  -6.289495e+01  -3.111260e+00
  -2.618438e+01  -2.074452e+01
  -8.558463e-01  -8.621954e+00
  -9.738055e+00  -4.913502e+00
  -2.748822e+01  -3.475469e+01
  -1.665279e+01  -6.676623e+01
   5.809232e+00  -6.113663e+01
   7.244222e+01   1.508081e+01
   7.679084e+01   6.873325e+01
   1.190920e+01   9.481032e+01
  -5.718388e+01   3.082109e+01
  -9.762847e+01  -3.695716e+01
  -6.327406e+01  -7.247218e+01
   4.395065e+01  -5.508600e+01
   8.686114e+01   9.597274e+00
   3.100212e+01   4.334596e+01
  -1.747548e+01   4.780010e+01
  -1.864356e+01   3.138752e+01
   2.429506e+01  -6.265720e+00
   4.907070e+01  -1.352608e+01
   7.608319e+00   2.205475e+01
  -4.890616e+01   6.609895e+01
  -9.057273e+01   4.205992e+01
  -5.818023e+01   4.630844e-01
   6.093308e+00  -7.057237e+01
   3.021665e+01  -7.206923e+01
   2.930899e+01  -1.103998e+01
   1.059198e+01   4.752890e+01
  -1.515685e+01   3.593191e+01
  -3.073999e+01  -3.570557e+00
  -2.637459e+01  -3.720759e+01
  -1.441304e+00  -2.603802e+01
   2.867436e+01   4.005424e-01
   3.638506e+01   1.252869e+01
   1.851521e+01  -6.313354e-01
  -7.860639e-01  -1.285919e+01
  -2.165783e+00  -7.757143e-01
   3.624738e+00   2.930201e+01
  -2.529890e+00   3.690655e+01
  -2.163894e+01   1.777770e+01
  -3.694150e+01  -2.289494e+01
  -7.315090e+00  -4.879406e+01
   3.505236e+01  -2.111967e+01
   5.430717e+01   2.209520e+01
   2.625812e+01   4.803864e+01
  -4.003152e+01   3.822159e+01
  -6.798347e+01   7.483380e+00
  -4.308105e+01  -3.178245e+01
   1.705034e+01  -3.978370e+01
   5.436288e+01  -2.997761e+01
   1.961210e+01  -6.055142e+00
  -2.935871e+01  -3.392823e+00
  -3.320064e+01  -7.491332e-01
   1.717656e+01  -2.345052e+01
   7.160507e+01  -2.176818e+01
