
 $NMID
 id='ANONYMOUS ', fmtdat='(2E16.6)'
 volume=1.0
 tramp=1.0
 $END
   3.704785e+03   8.717537e+02
   2.585531e+03   2.545510e+03
  -6.453538e+02   2.523797e+03
  -1.936937e+03   1.008079e+03
  -9.268603e+02  -2.842891e+02
   5.425228e+02  -6.262473e+02
   8.339238e+02   3.883422e+02
  -1.836445e+02   1.037393e+03
  -7.437034e+02   6.626321e+02
  -5.306082e+02  -1.795435e+02
  -3.467232e+02  -8.528630e+02
   2.136736e+02  -7.577847e+02
   6.693852e+02  -3.568546e+01
   4.238310e+02   6.997788e+02
  -2.309694e+02   6.744361e+02
  -5.869243e+02  -7.098726e+01
  -2.350257e+02  -6.061210e+02
   3.020417e+02  -5.518113e+02
   5.424246e+02  -4.409179e+01
   3.023804e+02   3.868738e+02
  -8.830455e+01   3.664780e+02
  -2.371393e+02   2.202885e+02
  -1.876087e+02   1.704046e+01
   9.532772e+01  -6.590492e+01
   3.568189e+02   1.098680e+02
   9.314909e+01   3.077512e+02
  -3.652847e+02   3.473998e+02
  -8.129566e+02  -9.928733e+01
  -3.722938e+02  -5.357992e+02
   3.609495e+02  -4.519828e+02
   7.061270e+02   6.019101e+01
   2.571651e+02   4.234569e+02
  -2.766299e+02   4.195551e+02
  -4.510357e+02   2.012541e+02
  -3.281236e+02  -2.352768e+02
   1.613684e+01  -4.646460e+02
   1.879019e+02  -2.257853e+02
   1.243478e+02   1.784292e+02
  -1.470419e+02   2.338649e+02
  -3.719643e+02  -4.965215e+01
  -9.797101e+01  -6.590396e+02
   3.154421e+02  -6.097868e+02
   5.406029e+02  -2.408480e+01
   2.586941e+02   5.447910e+02
  -3.292437e+02   2.470773e+02
  -2.911978e+02  -2.770703e+02
   9.205351e+01  -4.111737e+02
   5.430757e+02  -1.438948e+02
   5.659270e+02   4.265796e+02
   1.787918e+02   6.104976e+02
  -3.758148e+02   2.857811e+02
  -5.280203e+02  -9.436206e+01
  -3.009273e+02  -3.892275e+02
   1.453380e+02  -3.617534e+02
   3.674196e+02  -5.634112e+01
   2.529318e+02   1.946007e+02
  -9.141803e+01   8.614821e+01
  -1.197224e+02  -1.299657e+02
   1.636050e+02  -9.900320e+01
   2.795134e+02   1.111851e+02
   1.307431e+02   3.362602e+02
  -1.912495e+02   2.025956e+02
  -2.583575e+02   1.432896e+01
  -1.692163e+02  -1.049189e+02
   4.558060e+01  -1.722491e+02
   2.108356e+02  -3.099731e+02
   2.675753e+02  -1.790021e+02
   2.642128e+02   1.759867e+02
   6.171038e+01   3.736400e+02
  -1.320528e+02   3.868895e+02
  -1.242424e+02   1.109785e+02
  -4.259687e+01  -2.059227e+01
  -3.715857e+01   5.558838e+01
  -1.862005e+02   8.884163e+01
  -2.350851e+02  -1.315054e+02
  -1.194043e+02  -2.314630e+02
   4.884039e+01  -2.131100e+02
   2.286601e+02   3.040829e+01
   1.479543e+02   2.569062e+02
  -4.378970e+01   2.838144e+02
  -2.139525e+02   1.065600e+02
  -2.943562e+02  -2.158085e+02
  -1.482702e+02  -3.122258e+02
   1.033480e+02  -2.750788e+02
   2.018539e+02  -1.057289e+02
   1.359848e+02  -1.415940e+01
   8.800956e+01  -3.465736e+01
   1.994283e+02  -5.761341e+01
   3.428718e+02   8.748130e+01
   2.632902e+02   3.032388e+02
  -5.739673e+01   3.622851e+02
  -3.297815e+02   3.678492e+02
  -4.313870e+02   1.239601e+02
  -3.227271e+02  -1.295308e+02
   8.776392e+00  -2.453270e+02
   1.551473e+02  -2.303420e+02
   9.317316e+01  -2.313866e+01
  -1.166355e+02   7.576357e+01
  -1.772987e+02  -1.484238e+01
  -5.518134e+01  -1.789857e+02
   1.831840e+02  -1.274075e+02
   1.652190e+02   7.417154e+01
  -2.437509e+01   1.451100e+02
  -1.919336e+02   6.051018e+00
  -1.434798e+02  -2.294486e+02
   5.707728e+01  -2.778897e+02
   2.080856e+02  -2.018027e+02
   2.777626e+02   1.062291e+02
   2.066086e+02   2.513755e+02
   6.460630e+01   2.508771e+02
  -1.311441e+02   1.583749e+02
  -1.643336e+02   1.819248e+00
  -4.836110e+01  -2.769496e+01
   5.268917e+01   4.062196e+01
   1.553894e+01   1.176980e+02
  -1.272691e+02   8.630566e+01
  -1.594420e+02  -3.225404e+01
  -4.947644e+01  -5.608414e+01
   7.641481e+01  -5.922646e+00
   4.403113e+01   7.672113e+01
  -1.196892e+02   7.810871e+01
  -2.603605e+02  -1.349183e+00
  -2.315717e+02  -1.027511e+02
  -3.000307e+01  -2.151422e+02
   1.750503e+02  -2.470503e+02
   2.585432e+02  -1.072537e+02
   1.385053e+02   6.864245e+01
  -3.067613e+01   1.078319e+02
  -8.370937e+01   7.679218e-01
   3.904327e+01  -9.257914e+01
   1.817517e+02  -2.846738e+01
   1.948942e+02   1.271052e+02
   2.256228e+01   1.895919e+02
  -8.875994e+01   1.176223e+02
  -1.341030e+02   2.828971e+01
  -6.580347e+01  -3.469028e+01
   2.585807e+01  -5.532326e+00
   1.875408e+01   6.791821e+01
  -6.231801e+01   1.083502e+02
  -1.402535e+02   2.003414e+01
  -1.870548e+02  -1.372013e+02
  -1.899940e+00  -2.086513e+02
   1.535751e+02  -1.478664e+02
   1.695963e+02  -7.610030e+00
   4.303749e+01   1.178479e+02
  -6.331932e+01   1.057424e+02
  -8.036546e+01   2.745391e+01
  -1.468063e+01  -2.235903e+01
   2.004627e+01  -1.613511e+01
  -8.942165e+00   5.795285e+00
  -6.735557e+01  -1.651942e+01
  -8.067939e+01  -8.258439e+01
  -8.864383e+00  -1.131650e+02
   1.272060e+02  -1.496415e+02
   2.024543e+02   8.478779e+00
   1.550544e+02   1.371661e+02
   1.625654e+01   2.127429e+02
  -1.452417e+02   1.559411e+02
  -1.179355e+02  -6.415636e-01
  -5.749335e+01  -5.920598e+01
  -2.342584e+01  -3.651968e+01
  -4.830040e+01   1.021279e+01
  -6.998817e+01   6.543656e+00
  -3.732650e+01  -4.982257e+01
   4.195897e+01  -5.974306e+01
   9.315322e+01  -4.244586e+01
   6.146944e+01   4.032465e+01
  -2.792774e+01   9.703533e+01
  -1.166184e+02   5.325453e+01
  -1.847018e+02  -5.302473e+01
  -8.770918e+01  -1.831884e+02
   9.039750e+01  -1.925744e+02
   2.785330e+02  -6.403409e+01
   2.329741e+02   7.994185e+01
   7.733093e+01   1.551505e+02
  -2.867697e+01   1.249549e+02
  -7.948683e+01   5.747948e+01
  -6.699218e+01   5.858662e+01
  -7.020999e+01   8.334376e+01
  -9.394046e+01   5.490211e+01
  -1.235449e+02  -1.865354e+01
  -8.700851e+01  -1.511357e+02
  -6.982053e+00  -1.878433e+02
   1.169660e+02  -1.376412e+02
   1.595473e+02  -1.113638e+01
   1.071833e+02   1.211890e+02
   2.051405e+01   1.211914e+02
  -6.410293e+01   6.728483e+01
  -4.755462e+01  -3.901423e+00
  -4.721597e+00  -4.115056e+01
   1.764848e+01  -2.940168e+01
  -2.993492e+01  -1.781675e+01
  -6.455631e+01  -2.715967e+01
  -3.662857e+01  -3.321666e+01
   5.717413e+01  -2.844183e+01
   1.520773e+02  -3.416200e+00
   1.048183e+02   6.787644e+01
   1.500961e+01   8.031015e+01
  -1.017204e+02   6.021303e+01
  -1.122022e+02   5.323688e+00
  -3.772014e+01  -3.600337e+01
   6.199947e+01  -3.005934e+01
   6.624331e+01   1.462885e+01
   1.076489e+01   6.711546e+01
  -5.770665e+01   5.561220e+01
  -5.400279e+01  -9.673400e+00
  -2.847171e+01  -4.325250e+01
  -3.350369e+01  -4.619177e+01
  -6.109054e+01  -1.087733e+01
  -6.105459e+01  -5.263419e+00
  -2.690600e+01  -5.742540e+01
   4.470902e+01  -1.114710e+02
   1.139193e+02  -1.333195e+02
   1.647071e+02  -3.062623e+01
   1.181591e+02   9.588903e+01
   1.037336e+01   1.189680e+02
  -9.311029e+01   5.561588e+01
  -5.527691e+01  -1.034431e+01
   5.384804e+01  -1.057502e+01
   9.430895e+01   3.310278e+01
   5.983461e+01   1.013555e+02
  -6.603219e+01   8.092646e+01
  -1.620801e+02   1.398234e+01
  -1.584312e+02  -4.176475e+01
  -2.442040e+01  -8.135951e+01
   6.228617e+01  -5.861031e+01
   5.141535e+01  -1.069815e+01
  -4.173314e+01   1.782319e+01
  -8.556644e+01  -2.151160e+01
  -1.665416e+01  -9.866283e+01
   9.874610e+01  -1.190849e+02
   1.578342e+02  -5.809724e+01
   9.355517e+01   1.054485e+02
  -9.048494e+00   1.797790e+02
  -9.626386e+01   1.283819e+02
  -8.604183e+01  -1.436618e+01
  -6.303396e+01  -1.015762e+02
  -5.287746e+00  -7.905402e+01
   3.941408e+01  -9.939790e+00
   3.776556e+01   2.870076e+01
   2.244133e+01   8.285245e+00
   5.851453e+00  -1.858969e+01
   1.687539e+01   1.635427e+01
   3.160344e+01   7.414788e+01
   4.279410e+01   1.045912e+02
  -3.154967e+01   2.842904e+01
  -1.201646e+02  -3.412167e+01
  -1.002065e+02  -7.431878e+01
  -1.481480e+01  -4.140942e+01
   7.198182e+01  -1.862993e+01
   7.329029e+01   1.291772e+00
   8.517402e+00   6.965500e+00
  -3.102088e+01   1.537044e+01
  -1.401498e+01   1.380270e+01
   2.053213e+01   6.345458e-01
  -4.632640e+00  -8.017250e+00
  -6.252550e+01   9.928785e-01
  -8.705431e+01  -3.554953e+01
  -4.248051e+00  -6.979437e+01
   1.018862e+02  -8.591705e+01
   1.608367e+02  -3.381025e+01
   1.187787e+02   7.308252e+01
   1.391418e+01   1.238374e+02
  -9.706029e+01   1.140667e+02
  -1.033066e+02   4.250935e+01
  -6.852740e+01  -3.579024e+01
  -1.656786e+01  -2.979135e+01
   4.062281e+00  -7.898993e+00
  -8.039889e+00  -3.452431e+00
  -1.747599e+01  -3.750720e+01
  -2.648846e+01  -8.680839e+01
   3.665096e+01  -5.357817e+01
   6.415711e+01   2.197089e+01
   5.507327e+01   9.335322e+01
  -1.291686e+01   9.424384e+01
  -6.764297e+01   1.189826e+01
  -8.671120e+01  -9.091129e+01
  -1.452204e+01  -1.012123e+02
   6.997837e+01  -4.641856e+01
   8.063659e+01   2.704821e+01
   2.963894e+01   4.688962e+01
  -3.809394e+01   3.816230e+01
  -3.026249e+01   1.585562e+01
   3.079122e+01   5.322987e+00
   5.782578e+01   2.141572e+00
   1.288819e+01   2.251006e+01
  -7.452137e+01   5.478120e+01
  -1.032771e+02   4.401039e+01
  -5.280571e+01  -2.397273e+01
   1.481950e+01  -7.132084e+01
   5.930464e+01  -6.747729e+01
   3.023194e+01  -8.972559e+00
  -1.930676e+00   5.594689e+01
  -2.349794e+01   4.105479e+01
  -3.175386e+01  -1.688674e+01
  -2.301595e+01  -4.489176e+01
   4.874766e+00  -2.900320e+01
   2.649088e+01   9.180852e+00
   3.162743e+01   1.780004e+01
   1.502965e+01   4.053596e+00
   1.436506e+00  -1.587309e+01
  -3.447995e+00   1.145323e+00
  -7.143370e+00   3.146762e+01
  -1.602480e+01   3.433742e+01
  -2.772946e+01  -1.456951e+00
  -2.259143e+01  -3.607432e+01
  -5.754400e-01  -4.663310e+01
   4.301891e+01  -1.493731e+01
   4.268109e+01   4.436280e+01
   2.617385e+00   5.084417e+01
  -3.603587e+01   2.485174e+01
  -7.181091e+01  -1.455820e+01
  -3.460647e+01  -4.929502e+01
   2.840422e+01  -3.601704e+01
   5.326085e+01  -1.817295e+01
   2.233358e+01  -2.604570e+00
  -3.535987e+01  -1.803040e+00
  -3.564527e+01  -1.533129e+01
   3.324626e+01  -1.890994e+01
   6.812738e+01  -1.493585e+01
