
 $NMID
 id='ANONYMOUS ', fmtdat='(2E16.6)'
 volume=1.0
 tramp=1.0
 $END
   3.334262e+03   1.570440e+02
   1.804535e+03   2.052208e+03
  -5.281061e+02   2.140286e+03
  -1.440979e+03   7.324489e+02
  -6.201697e+02  -1.071138e+02
   2.607143e+02  -3.795723e+02
   8.089950e+02   2.579363e+02
   9.845720e+00   7.885440e+02
  -6.173541e+02   5.222953e+02
  -7.047373e+02  -1.660846e+01
  -5.032691e+02  -6.591091e+02
   1.314591e+02  -7.173443e+02
   4.311182e+02  -1.484579e+02
   3.104583e+02   5.241531e+02
  -1.412298e+02   6.690160e+02
  -4.946113e+02   4.420610e+01
  -2.989558e+02  -4.996261e+02
   1.652567e+02  -5.312961e+02
   5.994051e+02  -1.857913e+02
   3.998302e+02   2.219287e+02
   5.871408e+01   3.879483e+02
  -1.485441e+02   2.356464e+02
  -1.213881e+02   2.271040e+01
   1.601401e+02   3.294583e+01
   3.244635e+02   2.295629e+02
   4.389828e+01   3.305609e+02
  -4.449490e+02   2.334366e+02
  -4.144371e+02  -1.549841e+02
  -2.269350e+02  -3.928977e+02
   3.337699e+02  -2.871183e+02
   6.985350e+02   4.199780e+01
   3.379069e+02   4.450394e+02
  -2.551913e+02   3.714669e+02
  -4.540814e+02   1.477613e+02
  -3.053981e+02  -1.532078e+02
  -1.003313e+02  -3.861215e+02
   1.132209e+02  -1.794046e+02
   3.450734e+01   1.334528e+02
  -1.484892e+02   2.179387e+02
  -3.233593e+02  -1.331423e+02
  -9.283162e+01  -4.515285e+02
   2.946431e+02  -6.327360e+02
   4.305176e+02   1.872161e+01
   1.607623e+02   4.246945e+02
  -2.163162e+02   2.738583e+02
  -3.231426e+02  -2.749092e+02
   8.473166e+01  -4.340026e+02
   5.122550e+02  -9.826978e+01
   5.829918e+02   3.794651e+02
   1.009003e+02   4.820631e+02
  -3.519818e+02   3.240560e+02
  -4.999422e+02  -2.668184e+01
  -3.369407e+02  -2.306539e+02
   6.958980e+01  -2.397223e+02
   3.087216e+02  -6.716265e+01
   2.214494e+02   1.103776e+02
  -2.407660e+01   5.304454e+01
  -7.993331e+01  -7.799870e+01
   9.152874e+01  -7.177235e+01
   2.743509e+02   2.603100e+01
   1.102838e+02   1.940232e+02
  -2.038834e+02   2.109633e+02
  -3.248625e+02   5.467380e+01
  -2.175470e+02  -9.136334e+01
   2.098981e+01  -2.351910e+02
   2.163194e+02  -3.270931e+02
   3.429520e+02  -2.312102e+02
   2.389596e+02   1.487917e+02
   2.362673e+01   2.725840e+02
  -3.772175e+01   3.065081e+02
  -7.624163e+01   1.281065e+02
  -3.245090e+01   7.267302e+01
  -8.746975e+01   1.171537e+02
  -2.061067e+02   6.792739e+01
  -1.898688e+02  -7.804119e+01
  -1.179722e+02  -2.113073e+02
   6.107308e+01  -1.731973e+02
   2.129361e+02   6.511406e+00
   1.330572e+02   2.210245e+02
  -5.104066e+01   2.660084e+02
  -2.396035e+02   7.132994e+01
  -3.680882e+02  -1.595499e+02
  -1.346295e+02  -3.117650e+02
   3.186935e+01  -2.150299e+02
   1.966589e+02  -1.254291e+02
   1.454363e+02  -3.019456e+01
   1.241473e+02  -4.832439e+01
   2.393454e+02  -3.315011e+01
   4.128032e+02   8.563607e+01
   2.570265e+02   2.751249e+02
   4.107783e+00   4.053421e+02
  -3.135087e+02   2.682554e+02
  -4.961941e+02   1.683919e+02
  -2.822207e+02  -9.655215e+01
  -6.625938e+00  -2.053246e+02
   1.369505e+02  -2.222769e+02
   3.728270e+01  -3.632869e+01
  -9.110541e+01   4.567887e+01
  -1.345443e+02  -4.075538e+01
  -3.101661e+01  -1.350304e+02
   1.387479e+02  -1.414644e+02
   1.489267e+02   4.647129e+01
  -8.009443e+00   1.778064e+02
  -1.698548e+02   8.581488e+00
  -1.377427e+02  -1.951906e+02
   4.366367e+01  -2.831551e+02
   2.001800e+02  -2.064081e+02
   3.045057e+02   1.038884e+02
   2.214055e+02   2.474727e+02
   5.324195e+01   2.513767e+02
  -1.173675e+02   1.293744e+02
  -1.538918e+02   2.429554e+01
  -4.983495e+01  -2.701430e+01
   5.226178e+01   5.351260e+01
   1.396321e+01   1.056856e+02
  -1.420177e+02   7.518898e+01
  -1.563990e+02  -2.702248e+01
  -3.861194e+01  -6.190279e+01
   6.276377e+01   3.255426e+00
   3.981789e+01   6.869294e+01
  -1.257088e+02   6.405979e+01
  -3.238012e+02  -1.904172e+01
  -2.103272e+02  -1.174505e+02
  -2.676568e+01  -2.277676e+02
   1.481913e+02  -2.415098e+02
   1.759292e+02  -7.472452e+01
   1.361232e+02   5.257763e+01
  -1.130033e+01   8.173334e+01
  -8.295869e+01   9.075793e+00
   4.485455e+01  -7.317962e+01
   1.764379e+02  -5.194771e+01
   1.883552e+02   1.107384e+02
   3.951182e+01   1.621876e+02
  -9.310324e+01   1.115486e+02
  -9.905792e+01   1.653008e+01
  -4.906997e+01  -3.394302e+01
   2.858451e+01   8.007289e+00
   2.191196e+01   7.302147e+01
  -8.931893e+01   9.462002e+01
  -1.874116e+02   3.316784e+01
  -1.684656e+02  -1.103380e+02
  -2.352508e+01  -2.037253e+02
   1.524184e+02  -1.532314e+02
   1.489108e+02   2.579593e+00
   5.817233e+01   1.013119e+02
  -7.138209e+01   1.004924e+02
  -6.532270e+01   2.281592e+01
  -7.549567e+00  -2.713400e+01
   2.973152e+01  -1.436322e+01
  -5.349957e+00   1.513673e+01
  -6.269023e+01   3.178327e+00
  -7.667209e+01  -9.223841e+01
  -4.603606e+00  -1.580596e+02
   1.348024e+02  -1.269256e+02
   2.374564e+02  -1.894805e+00
   1.708602e+02   1.395117e+02
   3.401729e+01   1.552156e+02
  -1.183449e+02   1.655360e+02
  -1.318574e+02   4.281373e+01
  -6.933458e+01  -5.226660e+01
  -3.057565e+01  -4.273382e+01
  -4.381402e+01   1.327457e+01
  -6.984108e+01  -3.362549e+00
  -4.798510e+01  -5.273528e+01
   4.135019e+01  -9.889030e+01
   1.004882e+02  -4.894678e+01
   8.589000e+01   3.936169e+01
  -2.359202e+01   1.162531e+02
  -1.461968e+02   6.196625e+01
  -1.762902e+02  -6.169041e+01
  -8.084204e+01  -2.016279e+02
   1.274750e+02  -2.257032e+02
   3.051318e+02  -8.662252e+01
   2.114312e+02   8.265238e+01
   8.017816e+01   1.708191e+02
  -2.305016e+01   1.267132e+02
  -8.773592e+01   7.695450e+01
  -6.221499e+01   6.212349e+01
  -6.104731e+01   5.843032e+01
  -8.537150e+01   6.568073e+01
  -1.199940e+02  -2.478658e+01
  -1.337333e+02  -1.641088e+02
  -5.797715e+01  -2.328033e+02
   1.076011e+02  -1.558375e+02
   1.598392e+02  -4.097831e+01
   1.099010e+02   1.169462e+02
   1.205414e+01   1.299262e+02
  -8.265576e+01   8.868005e+01
  -5.838469e+01  -3.076198e-01
   5.633965e+00  -3.479785e+01
   2.300298e+01  -2.982927e+01
  -2.974485e+01  -1.317410e+01
  -7.415891e+01  -1.948827e+01
  -4.355352e+01  -3.884391e+01
   5.381630e+01  -3.099757e+01
   1.383317e+02   1.313607e+00
   1.159882e+02   5.718823e+01
   1.987693e+00   9.349806e+01
  -1.366979e+02   8.084912e+01
  -1.090542e+02  -1.103964e+01
  -3.350047e+01  -3.508092e+01
   6.330351e+01  -3.360276e+01
   7.022627e+01   1.505570e+01
   1.104464e+01   5.775367e+01
  -4.968926e+01   6.349961e+01
  -6.461086e+01  -1.578918e+00
  -4.775627e+01  -4.867880e+01
  -3.112464e+01  -3.240172e+01
  -5.930025e+01  -6.209270e+00
  -5.918960e+01   4.361370e+00
  -4.417619e+01  -6.279174e+01
   4.593300e+01  -1.468617e+02
   1.143693e+02  -1.113506e+02
   1.458947e+02  -2.099713e+01
   9.521270e+01   7.847403e+01
   5.510310e+00   1.137730e+02
  -8.329607e+01   8.153920e+01
  -5.697633e+01  -1.273205e+01
   5.817700e+01  -1.414806e+01
   1.211374e+02   3.582845e+01
   4.055190e+01   8.570855e+01
  -8.523408e+01   1.008023e+02
  -1.988220e+02   4.701494e+01
  -1.359500e+02  -3.606770e+01
  -2.800089e+01  -7.467429e+01
   6.186097e+01  -6.997485e+01
   3.984730e+01  -3.328473e+00
  -4.831092e+01   2.976346e+01
  -8.764172e+01  -1.752885e+01
  -2.084382e+01  -8.945104e+01
   7.486749e+01  -1.155909e+02
   1.014064e+02  -4.979691e+01
   1.000746e+02   8.969215e+01
   2.186611e+01   1.810057e+02
  -6.405399e+01   1.369520e+02
  -7.641921e+01  -1.544637e+01
  -5.239922e+01  -1.086482e+02
   5.943801e+00  -8.200896e+01
   4.616015e+01  -1.307062e+01
   4.922196e+01   3.502807e+01
   2.238834e+01   5.239665e+00
   6.121137e+00  -1.532266e+01
   2.470895e+01   2.035330e+01
   3.711744e+01   7.471669e+01
   4.037537e+01   1.026426e+02
  -4.910832e+01   4.163790e+01
  -1.148982e+02  -3.800775e+01
  -1.223488e+02  -6.261872e+01
  -1.274278e+01  -3.973484e+01
   8.789797e+01  -1.760896e+01
   6.796342e+01  -2.722631e+00
   1.182722e+01   6.929317e+00
  -2.793287e+01   1.469672e+01
  -1.257806e+01   9.812487e+00
   1.733283e+01  -1.962274e+00
  -5.276609e+00  -7.430344e+00
  -6.317036e+01   6.055692e+00
  -7.581050e+01  -3.188049e+01
  -1.677825e+01  -5.337942e+01
   9.759860e+01  -1.123899e+02
   1.625933e+02  -4.440934e+01
   1.157215e+02   5.986726e+01
   4.848497e+01   1.712093e+02
  -7.682656e+01   1.582134e+02
  -9.292722e+01   4.226020e+01
  -6.718595e+01  -2.440168e+01
  -2.695976e+01  -3.389849e+01
  -3.988026e-01  -1.071193e+01
  -1.079145e+01  -6.773339e+00
  -3.223915e+01  -4.434422e+01
  -1.823833e+01  -6.809054e+01
   2.944015e+01  -7.049238e+01
   7.560286e+01   1.914596e+01
   8.652377e+01   1.029126e+02
  -6.611176e+00   9.728430e+01
  -7.513168e+01   2.353277e+01
  -8.874278e+01  -6.934904e+01
  -2.260832e+01  -1.019341e+02
   5.910588e+01  -5.678143e+01
   9.157449e+01   1.990428e+01
   3.032856e+01   5.318673e+01
  -3.532851e+01   5.220961e+01
  -2.987922e+01   2.185068e+01
   2.545631e+01  -2.743261e+00
   5.849814e+01  -1.067703e+01
   1.102859e+01   2.358816e+01
  -8.087389e+01   6.735553e+01
  -9.673212e+01   3.359105e+01
  -5.769144e+01  -2.004982e+01
   7.897993e+00  -6.670203e+01
   5.363546e+01  -7.794653e+01
   3.255465e+01  -1.014765e+01
   5.161023e+00   4.696886e+01
  -1.900308e+01   3.748551e+01
  -3.047597e+01  -1.482097e+01
  -2.993425e+01  -5.478974e+01
   1.835983e+00  -2.772131e+01
   3.053773e+01   8.421522e+00
   3.855241e+01   2.043939e+01
   1.916470e+01   4.456593e+00
  -1.355604e+00  -1.482036e+01
  -5.253947e+00  -1.766300e+00
  -1.095736e+00   2.541979e+01
  -8.485656e+00   4.356546e+01
  -2.689059e+01   1.422094e+01
  -3.417785e+01  -4.461090e+01
  -4.561679e+00  -4.872752e+01
   3.404385e+01  -1.585659e+01
   4.239647e+01   3.314945e+01
   1.725827e+01   4.912527e+01
  -4.169176e+01   2.631580e+01
  -7.244874e+01  -1.036882e+01
  -4.647701e+01  -5.216598e+01
   2.314584e+01  -3.684770e+01
   5.088947e+01  -2.219692e+01
   2.114793e+01  -4.992233e+00
  -2.806240e+01  -3.212499e-01
  -3.328019e+01  -1.056423e+01
   2.499109e+01  -2.228022e+01
   7.282064e+01  -1.404765e+01
