
 $NMID
 id='ANONYMOUS ', fmtdat='(2E16.6)'
 volume=1.0
 tramp=1.0
 $END
   2.230206e+03  -1.601301e+02
   1.873141e+03   1.175484e+03
   2.122610e+02   1.357667e+03
  -5.163186e+02   1.339590e+03
  -6.016125e+02   6.578509e+02
  -3.900152e+02  -1.732623e+02
   2.715406e+02  -2.224194e+01
  -2.470540e+00   3.393017e+02
  -2.487728e+02   4.855687e+02
  -4.546535e+02   1.893660e+02
  -5.722641e+02  -3.529583e+02
  -3.084081e+01  -5.263139e+02
   1.961115e+02  -1.136420e+02
   2.139253e+02   2.574371e+02
  -1.226573e+02   3.934789e+02
  -3.083781e+02   4.100497e+01
  -4.092020e+02  -3.693192e+02
   3.328560e+01  -4.946278e+02
   3.267598e+02  -2.176799e+02
   3.935288e+02   1.239198e+02
   1.351643e+02   2.945872e+02
  -1.458556e+01   1.884377e+02
   3.826357e+00   9.225250e+01
   1.787286e+02   1.381121e+02
   2.009712e+02   2.796879e+02
  -6.073558e+01   2.847004e+02
  -3.963524e+02   4.255427e+01
  -3.001592e+02  -1.140709e+02
  -5.369136e+01  -2.003392e+02
   2.120653e+02  -1.212938e+02
   3.504276e+02   1.511424e+02
   7.645402e+01   2.614183e+02
  -2.802608e+02   1.827264e+02
  -3.449434e+02   1.457002e+02
  -2.372219e+02  -9.610774e+01
  -5.549242e+01  -2.471375e+02
  -2.470373e+01  -1.132842e+02
  -1.048939e+02   6.112987e+01
  -1.219783e+02   7.063699e+00
  -1.369224e+02  -1.419118e+02
  -3.226597e+01  -2.593748e+02
   1.195000e+02  -3.547924e+02
   2.204818e+02   1.901175e+01
   2.447819e+01   1.729691e+02
  -8.129023e+01   5.489413e+01
  -1.201076e+02  -1.351721e+02
   1.462955e+02  -2.399240e+02
   3.715936e+02  -6.036345e+01
   3.695580e+02   2.613615e+02
   1.796378e+02   3.841087e+02
  -2.513146e+02   1.821560e+02
  -3.874313e+02   1.168489e+02
  -3.246322e+02  -1.384912e+02
  -2.122921e+01  -1.713390e+02
   1.911240e+02  -9.539852e+01
   2.319445e+02  -5.198782e+01
   6.472346e+01  -1.743379e+01
  -1.815919e+01  -5.159107e-01
   7.715315e+01   3.332223e+01
   1.056482e+02  -1.176686e+01
   1.616234e+02   1.008329e+02
  -1.040262e+02   1.403158e+02
  -2.960376e+02   1.171276e+02
  -2.790454e+02  -1.008145e+02
  -3.007708e+00  -2.879460e+02
   2.718172e+02  -3.134155e+02
   3.329034e+02  -1.547862e+02
   1.448153e+02   1.471945e+02
   6.954176e+01   2.925410e+02
   4.946759e+00   2.626442e+02
  -1.504363e+01   2.067435e+02
  -4.530670e+01   1.384555e+02
  -1.382097e+02   1.034315e+02
  -1.885479e+02   2.365570e+00
  -1.628410e+02  -1.319552e+02
  -6.594842e+01  -2.221289e+02
   4.688513e+01  -1.177818e+02
   1.604691e+02   4.644733e+01
   3.062266e+01   2.126474e+02
  -1.070438e+02   2.586818e+02
  -2.281274e+02   1.699423e+01
  -2.559260e+02  -1.867737e+02
  -1.449632e+02  -2.142707e+02
   1.470567e+01  -1.861749e+02
   1.453580e+02  -1.219049e+02
   1.240000e+02  -9.023630e+01
   1.464909e+02  -9.528334e+01
   2.378537e+02  -3.244383e+01
   2.946728e+02   7.162160e+01
   2.733896e+02   2.269595e+02
  -5.133316e+01   3.822101e+02
  -3.149728e+02   2.404819e+02
  -4.200649e+02   7.303391e+01
  -2.289165e+02  -1.307658e+02
  -7.223122e+00  -1.774472e+02
   4.166469e+01  -1.472605e+02
  -1.493694e+01  -4.437571e+01
  -1.017601e+02  -5.547666e+00
  -7.914645e+01  -3.318698e+01
  -5.139322e+00  -1.029984e+02
   9.787497e+01  -4.593024e+01
   1.003476e+02   4.036677e+01
  -3.550108e+01   9.920350e+01
  -1.540963e+02  -2.292263e+01
  -1.324778e+02  -1.977952e+02
   7.702553e+00  -2.463272e+02
   2.028134e+02  -2.176615e+02
   3.337405e+02   8.026612e+01
   2.296740e+02   2.356954e+02
   5.744259e+01   2.219988e+02
  -1.450981e+02   1.204013e+02
  -1.157446e+02  -1.807227e+01
  -2.126905e+01  -6.093776e+00
   3.680699e+01   5.688294e+01
   1.354593e+01   1.035756e+02
  -1.345089e+02   3.353881e+01
  -1.075475e+02  -2.851054e+01
  -1.001897e+01  -4.232523e+01
   6.771870e+01   2.098943e+01
   3.205038e+01   9.682199e+01
  -1.488456e+02   6.105868e+01
  -2.886722e+02  -5.246471e+01
  -2.147600e+02  -1.321223e+02
   1.483650e+01  -2.110238e+02
   2.245461e+02  -2.338163e+02
   1.906058e+02  -5.620780e+01
   9.424369e+01   3.691727e+01
  -1.988161e+01   4.992917e+01
  -3.883667e+01  -1.181657e+01
   4.877249e+01  -7.537727e+01
   1.512342e+02  -7.985763e+00
   1.637877e+02   9.443830e+01
   1.151150e+01   1.628205e+02
  -4.572133e+01   9.186568e+01
  -9.881750e+01   2.009371e+01
  -3.118476e+01  -3.077902e+01
   4.658629e+01   3.100003e+01
   9.442088e+00   9.286971e+01
  -1.035404e+02   9.648992e+01
  -1.848840e+02   1.035220e+01
  -1.491089e+02  -1.349314e+02
   9.915611e+00  -1.724337e+02
   1.171861e+02  -1.490438e+02
   1.475808e+02   1.218935e+01
   4.733165e+01   7.851925e+01
  -4.837834e+01   7.068867e+01
  -4.784842e+01   2.860277e+01
   8.411265e+00  -2.415471e+01
   4.089470e+01   2.199291e+00
  -7.402747e+00   2.909148e+01
  -7.702510e+01   1.655627e+01
  -1.169198e+02  -7.924687e+01
  -1.690514e+01  -1.586676e+02
   1.372294e+02  -1.067793e+02
   1.847268e+02   2.993557e+01
   1.449709e+02   1.316933e+02
   8.974392e+00   1.808749e+02
  -1.076321e+02   1.466896e+02
  -1.290937e+02   3.354005e+01
  -6.020007e+01  -3.597017e+01
  -2.894522e+01  -3.295048e+01
  -5.353635e+01   1.462724e+01
  -7.599933e+01   2.909370e+00
  -6.788022e+01  -4.765318e+01
   4.024756e+01  -9.416333e+01
   1.118254e+02  -7.179189e+01
   8.662909e+01   3.688714e+01
  -6.404796e+00   1.375745e+02
  -1.698133e+02   8.801568e+01
  -1.816157e+02  -3.244471e+01
  -5.769736e+01  -1.822091e+02
   8.767769e+01  -1.947878e+02
   2.431609e+02  -3.079937e+01
   2.206911e+02   6.583879e+01
   6.961448e+01   1.212984e+02
  -4.008169e+01   1.258645e+02
  -8.740593e+01   4.939708e+01
  -5.080101e+01   5.449038e+01
  -5.837474e+01   7.609855e+01
  -8.209678e+01   7.416162e+01
  -1.083031e+02  -1.734913e+01
  -1.214971e+02  -1.429188e+02
  -2.916800e+01  -1.935881e+02
   1.120611e+02  -1.289857e+02
   1.529063e+02  -2.410683e+01
   1.004099e+02   1.109560e+02
  -1.007356e+01   1.344917e+02
  -8.136942e+01   7.378632e+01
  -5.966347e+01  -1.343552e+01
   8.609267e+00  -5.527693e+01
   2.932093e+01  -3.013287e+01
  -1.762560e+01  -1.213628e+01
  -6.697183e+01  -6.953642e+00
  -4.341634e+01  -3.811030e+01
   6.002499e+01  -4.162540e+01
   1.661943e+02  -1.536718e+01
   1.223325e+02   6.975109e+01
  -8.646896e+00   8.911093e+01
  -1.270927e+02   6.929685e+01
  -1.214822e+02  -6.922177e-01
  -3.537406e+01  -4.705759e+01
   5.490372e+01  -4.576358e+01
   7.940249e+01   2.753861e+01
   1.735725e+01   6.517694e+01
  -3.809770e+01   7.389547e+01
  -6.365225e+01   3.229433e+00
  -5.481658e+01  -4.945186e+01
  -4.318592e+01  -3.400372e+01
  -4.630668e+01  -9.410072e+00
  -5.205755e+01   2.994815e+00
  -4.469576e+01  -6.943020e+01
   1.147756e+01  -1.233618e+02
   9.180576e+01  -1.396270e+02
   1.648414e+02  -1.713423e+01
   1.166163e+02   7.959914e+01
   2.726066e+00   1.076429e+02
  -1.002802e+02   7.476227e+01
  -5.573290e+01   1.999885e+00
   5.293943e+01  -2.045544e+01
   1.238805e+02   2.889096e+01
   6.777931e+01   8.965530e+01
  -7.741944e+01   9.359254e+01
  -1.790990e+02   3.325019e+01
  -1.429583e+02  -3.700486e+01
  -1.790831e+01  -6.702588e+01
   6.357486e+01  -5.290581e+01
   3.830674e+01   2.200076e+00
  -3.912869e+01   2.702406e+01
  -8.392500e+01  -8.168822e+00
  -4.886027e+01  -9.930455e+01
   7.522146e+01  -1.125787e+02
   1.316037e+02  -7.382908e+01
   1.044737e+02   7.879045e+01
   2.747154e+01   1.879335e+02
  -5.981816e+01   1.204934e+02
  -7.259048e+01   7.675221e+00
  -3.839586e+01  -9.673350e+01
   2.282657e+01  -6.996419e+01
   4.667475e+01  -9.323967e+00
   3.674367e+01   3.180024e+01
   1.493980e+01   1.992958e+00
   5.434261e+00  -1.233540e+01
   3.254200e+01   2.277603e+01
   4.774002e+01   7.930522e+01
   3.043088e+01   8.617880e+01
  -5.336564e+01   3.214087e+01
  -1.029916e+02  -2.452793e+01
  -1.179909e+02  -8.141932e+01
  -1.678682e+01  -4.149248e+01
   6.663758e+01  -2.295883e+01
   5.967000e+01   2.707404e-01
   1.447168e+01   1.308602e+01
  -1.894853e+01   1.871895e+01
  -1.734794e+01   9.834346e+00
   1.149802e+01  -3.649203e+00
  -1.863221e+00  -3.105426e+00
  -6.442724e+01   1.494968e+01
  -8.630183e+01  -1.130859e+01
  -3.585777e+01  -7.177322e+01
   8.273548e+01  -1.112699e+02
   1.313059e+02  -4.277836e+01
   1.311733e+02   4.754255e+01
   2.547141e+01   1.444412e+02
  -7.932104e+01   1.467992e+02
  -1.059378e+02   4.105661e+01
  -6.411274e+01  -1.046756e+01
  -3.050930e+01  -3.588225e+01
  -3.962839e+00  -1.424838e+01
  -1.399465e+01  -9.191175e+00
  -2.754759e+01  -4.257948e+01
  -8.965537e+00  -7.958412e+01
   2.241776e+01  -6.688983e+01
   7.094926e+01   1.225570e+01
   7.839049e+01   1.005342e+02
   8.107089e+00   9.448575e+01
  -6.059766e+01   2.793514e+01
  -8.037017e+01  -5.765051e+01
  -3.168842e+01  -9.310936e+01
   4.698647e+01  -7.031424e+01
   8.285266e+01   1.993356e+00
   3.610254e+01   5.776234e+01
  -3.298336e+01   5.084597e+01
  -3.994807e+01   2.283639e+01
   2.073801e+01  -6.001475e+00
   4.893070e+01  -6.342174e+00
   1.835594e+01   2.379937e+01
  -7.058155e+01   4.378249e+01
  -1.008288e+02   3.476434e+01
  -7.051394e+01  -1.884130e+01
   1.624355e+01  -8.037634e+01
   6.292707e+01  -7.295396e+01
   4.826913e+01  -1.676860e+01
   1.270323e+01   4.570582e+01
  -2.122238e+01   4.204994e+01
  -3.299332e+01  -1.426092e+00
  -3.271843e+01  -4.575331e+01
  -4.940816e+00  -3.767287e+01
   2.974254e+01   9.282709e-02
   3.707037e+01   2.221544e+01
   1.776559e+01   4.048343e+00
  -7.869623e+00  -2.133154e+01
  -3.867493e+00  -1.323552e+01
   8.804076e+00   2.372012e+01
   5.163352e-02   4.635092e+01
  -1.816373e+01   2.095263e+01
  -4.812853e+01  -2.778850e+01
  -1.504803e+01  -5.741541e+01
   2.712479e+01  -2.612962e+01
   4.303151e+01   2.640713e+01
   1.853158e+01   5.454290e+01
  -4.248436e+01   2.810849e+01
  -8.495114e+01  -2.257232e+00
  -3.658812e+01  -3.586193e+01
   2.024259e+01  -4.772545e+01
   5.251832e+01  -3.523157e+01
   2.614819e+01  -8.573577e+00
  -2.758121e+01   4.144592e+00
  -2.928912e+01   3.388978e+00
   1.746332e+01  -1.755603e+01
   5.349939e+01  -1.487936e+01
