
 $NMID
 id='ANONYMOUS ', fmtdat='(2E16.6)'
 volume=1.0
 tramp=1.0
 $END
  -1.967374e+03   1.365006e+02
  -1.562037e+03  -8.812814e+02
  -1.344595e+02  -1.526193e+03
   6.727311e+02  -1.110029e+03
   6.208716e+02  -5.421558e+02
   1.939856e+02   7.857026e+01
  -2.000431e+02   3.127666e+01
   4.197127e+00  -2.515400e+02
   3.013721e+02  -4.208637e+02
   3.362598e+02  -1.866757e+02
   4.262298e+02   2.674929e+02
  -6.943399e+01   4.254879e+02
  -1.867474e+02   1.283190e+02
  -1.337391e+02  -3.111643e+02
   8.097350e+01  -2.969126e+02
   2.359308e+02  -4.285078e+01
   3.081479e+02   3.658634e+02
  -4.858410e+01   4.567728e+02
  -2.534717e+02   1.381700e+02
  -3.728390e+02  -8.495722e+01
  -7.967356e+01  -2.716163e+02
   2.853767e+01  -1.790801e+02
   2.529614e+01  -1.041291e+02
  -1.668099e+02  -1.126993e+02
  -1.867562e+02  -2.544276e+02
   7.540244e+01  -2.501736e+02
   3.358911e+02  -8.194448e+01
   3.748049e+02   1.181984e+02
   1.616395e+02   2.084819e+02
  -2.310543e+02   1.617525e+02
  -3.125554e+02  -9.075144e+01
  -7.561263e+01  -2.124472e+02
   2.461670e+02  -2.182390e+02
   3.831661e+02  -1.498906e+02
   1.909073e+02   1.140646e+02
   5.245296e+01   2.485225e+02
  -8.172672e-01   1.266478e+02
   1.354140e+02  -5.893827e+01
   7.062848e+01  -5.286394e+00
   1.317968e+02   1.065645e+02
   5.640064e+01   2.430153e+02
  -1.553806e+02   2.315929e+02
  -1.890574e+02  -2.793720e+01
  -9.592746e+01  -1.763610e+02
   2.797134e+01  -5.174225e+01
   1.339931e+02   1.219904e+02
  -9.700780e+01   2.798747e+02
  -3.594649e+02   5.516182e+01
  -3.438446e+02  -2.893210e+02
  -1.757878e+02  -3.488762e+02
   2.223764e+02  -1.792886e+02
   4.325713e+02  -7.789521e+01
   2.551497e+02   1.423976e+02
  -1.950102e+01   1.962036e+02
  -2.150542e+02   7.873628e+01
  -2.044820e+02   1.226098e+01
  -4.572330e+01   4.930814e+00
   3.056605e+01  -3.952724e+00
  -7.004478e+01   4.106593e+00
  -1.002789e+02   3.352012e+01
  -1.719606e+02  -1.144405e+02
   8.315654e+01  -1.309461e+02
   2.100268e+02  -1.315689e+02
   2.097940e+02   1.172604e+02
  -2.498893e+01   2.497593e+02
  -2.162089e+02   2.817730e+02
  -3.096240e+02   1.179288e+02
  -1.482152e+02  -8.064669e+01
  -5.673578e+01  -2.896715e+02
  -1.167629e+01  -2.188045e+02
   2.650400e+01  -1.713677e+02
   2.146952e+01  -1.210341e+02
   1.070182e+02  -8.557014e+01
   1.578603e+02  -2.567338e+01
   1.478715e+02   1.398379e+02
   7.840943e+01   1.323917e+02
  -2.972923e+01   1.015330e+02
  -1.396912e+02  -2.671983e+01
  -2.464321e+01  -1.655171e+02
   6.207058e+01  -2.079501e+02
   1.593235e+02  -3.976404e+01
   1.894123e+02   1.179292e+02
   1.276439e+02   2.083189e+02
  -3.210040e+01   1.705126e+02
  -1.367761e+02   8.902505e+01
  -1.223605e+02   7.087720e+01
  -1.215620e+02   8.538564e+01
  -2.249143e+02   3.513088e+01
  -2.795169e+02  -2.210432e+01
  -2.834689e+02  -1.869408e+02
   1.858739e+01  -3.281044e+02
   2.398167e+02  -2.701341e+02
   3.566167e+02  -9.773984e+01
   2.169408e+02   9.452235e+01
   1.761219e+01   1.775640e+02
  -2.554065e+01   1.249231e+02
   1.315723e+01   4.527423e+01
   1.020609e+02  -3.653662e-01
   8.788122e+01   2.943924e+01
   1.752403e+01   8.178390e+01
  -9.881842e+01   3.395054e+01
  -9.031682e+01  -4.065407e+01
   3.096851e+01  -8.578243e+01
   1.228669e+02   1.176016e+01
   1.079323e+02   1.683462e+02
   4.541346e+00   1.977170e+02
  -2.095113e+02   1.612522e+02
  -2.835642e+02  -2.610315e+01
  -1.848312e+02  -1.872153e+02
  -6.921363e+01  -2.137123e+02
   1.037551e+02  -1.148051e+02
   9.281848e+01   1.410389e+01
   1.304086e+01   1.321394e+01
  -3.328203e+01  -4.855944e+01
  -7.563853e+00  -8.742937e+01
   1.014122e+02  -4.002631e+01
   9.508228e+01   3.513866e+01
   6.575302e+00   2.888607e+01
  -5.694092e+01  -1.097742e+01
  -2.557550e+01  -7.446235e+01
   1.046451e+02  -6.912800e+01
   2.183217e+02   2.929691e+01
   1.788502e+02   1.022871e+02
   4.503490e+00   2.025134e+02
  -1.676025e+02   1.871322e+02
  -1.594936e+02   4.562319e+01
  -8.156020e+01  -2.615640e+01
   1.473496e+01  -5.157258e+01
   2.167002e+01   6.033158e+00
  -3.366952e+01   6.390968e+01
  -1.349449e+02   1.936426e+01
  -1.520120e+02  -7.276136e+01
  -7.620532e+00  -1.295880e+02
   4.581578e+01  -9.291624e+01
   1.020700e+02  -1.424612e+01
   3.687544e+01   2.291615e+01
  -4.255602e+01  -2.148285e+01
  -7.735983e+00  -8.466877e+01
   8.135026e+01  -7.951918e+01
   1.546087e+02  -1.381133e+01
   1.291170e+02   1.080810e+02
   6.443830e+00   1.475129e+02
  -1.141841e+02   1.275050e+02
  -1.229590e+02  -1.903893e+01
  -4.787415e+01  -6.255472e+01
   4.079409e+01  -6.273774e+01
   4.527816e+01  -2.790806e+01
  -2.315576e+00   2.239748e+01
  -3.690892e+01  -3.853667e+00
   6.915422e+00  -2.314453e+01
   6.836013e+01  -3.370589e+00
   1.018890e+02   6.903379e+01
   2.703096e+00   1.301320e+02
  -9.759682e+01   1.186101e+02
  -1.566552e+02  -3.257389e+01
  -1.206663e+02  -1.063830e+02
   6.931912e+00  -1.551318e+02
   9.285451e+01  -1.265535e+02
   9.984331e+01  -2.932084e+01
   5.519367e+01   3.079912e+01
   2.036155e+01   2.561505e+01
   4.488030e+01  -1.193973e+01
   6.473261e+01  -2.975111e+00
   5.514286e+01   4.644825e+01
  -3.680869e+01   7.305826e+01
  -1.025528e+02   6.528210e+01
  -8.813668e+01  -3.437511e+01
  -5.589028e+00  -1.052778e+02
   1.294984e+02  -6.611690e+01
   1.665623e+02   3.637023e+01
   4.349442e+01   1.597880e+02
  -6.838098e+01   1.720773e+02
  -2.024177e+02   3.718851e+01
  -1.982291e+02  -5.850261e+01
  -7.207687e+01  -9.936824e+01
   3.636671e+01  -1.005566e+02
   6.862052e+01  -3.252922e+01
   3.523660e+01  -4.668801e+01
   4.473685e+01  -7.221704e+01
   6.822728e+01  -6.253529e+01
   9.995747e+01   4.633351e+00
   8.636797e+01   1.142283e+02
   2.929363e+01   1.819561e+02
  -7.165911e+01   1.227484e+02
  -1.345981e+02   1.696304e+01
  -7.776757e+01  -7.945069e+01
   1.652827e+01  -1.002007e+02
   7.776757e+01  -5.081584e+01
   4.698044e+01   1.628219e+01
  -7.577813e+00   4.481299e+01
  -2.330289e+01   2.760678e+01
   1.846964e+01   1.043747e+01
   4.386060e+01   9.217413e+00
   3.665075e+01   2.957936e+01
  -4.664590e+01   3.500830e+01
  -1.566735e+02   1.305917e+01
  -1.030132e+02  -6.006536e+01
   1.342303e+01  -7.155578e+01
   1.107305e+02  -5.037576e+01
   1.098805e+02  -6.313696e+00
   3.293781e+01   3.913367e+01
  -4.769851e+01   3.080321e+01
  -5.965534e+01  -2.345763e+01
  -1.464756e+01  -6.015348e+01
   3.006880e+01  -5.353796e+01
   5.785317e+01  -3.738501e+00
   3.996126e+01   3.845322e+01
   3.721770e+01   2.515423e+01
   4.126711e+01   2.850957e+00
   4.916644e+01  -5.444185e+00
   3.028928e+01   6.336759e+01
   6.318557e-02   9.480244e+01
  -8.773205e+01   1.302366e+02
  -1.550057e+02   1.771622e+01
  -1.049618e+02  -6.446924e+01
  -5.905760e+00  -9.659858e+01
   8.921308e+01  -6.054243e+01
   5.080234e+01  -1.358383e+00
  -4.867608e+01   1.306613e+01
  -9.985025e+01  -2.192520e+01
  -5.853052e+01  -6.680434e+01
   5.494386e+01  -9.048642e+01
   1.471015e+02  -1.351011e+01
   1.120764e+02   3.349686e+01
   2.101335e+01   5.624101e+01
  -5.126024e+01   5.043527e+01
  -3.368403e+01  -7.522292e-03
   2.725214e+01  -2.120359e+01
   7.136352e+01   4.296773e+00
   4.601388e+01   8.019806e+01
  -4.944695e+01   9.922550e+01
  -1.347819e+02   7.405442e+01
  -8.041403e+01  -6.143653e+01
  -1.328388e+01  -1.485362e+02
   5.565688e+01  -1.075496e+02
   6.975580e+01  -4.060551e-01
   4.080765e+01   9.325645e+01
  -1.541131e+01   6.284790e+01
  -3.679747e+01   1.301053e+01
  -3.502788e+01  -2.498337e+01
  -1.061430e+01  -4.935041e+00
  -4.549213e+00   1.072678e+01
  -2.649457e+01  -2.101301e+01
  -4.902426e+01  -6.936599e+01
  -2.925324e+01  -7.864202e+01
   4.623221e+01  -2.100528e+01
   9.052158e+01   3.064940e+01
   9.696041e+01   6.344392e+01
   1.481610e+01   3.598715e+01
  -5.979883e+01   1.621055e+01
  -6.188524e+01   4.953050e+00
  -1.424943e+01  -9.586095e+00
   2.148542e+01  -1.827101e+01
   1.654123e+01  -9.697657e+00
  -9.747914e+00   3.820253e+00
   1.552049e-01   3.264892e+00
   5.774185e+01  -8.962526e+00
   6.931504e+01   7.539202e+00
   2.420868e+01   6.679617e+01
  -6.017573e+01   9.569635e+01
  -1.274126e+02   6.105366e+01
  -1.136337e+02  -2.931250e+01
  -2.048661e+01  -1.060136e+02
   6.665200e+01  -1.204658e+02
   8.993951e+01  -5.316216e+01
   5.773620e+01   5.669295e+00
   2.288668e+01   3.063940e+01
   3.933737e+00   1.366655e+01
   1.165660e+01   8.331326e+00
   2.268308e+01   3.806550e+01
   8.973069e+00   6.987647e+01
  -1.502823e+01   5.364100e+01
  -6.404240e+01  -1.144411e+01
  -6.090680e+01  -6.262090e+01
  -1.096106e+01  -7.799961e+01
   5.076335e+01  -2.273990e+01
   7.805504e+01   4.518889e+01
   2.905915e+01   7.788620e+01
  -3.608747e+01   6.222654e+01
  -7.268100e+01  -2.533946e+00
  -3.449716e+01  -5.411825e+01
   1.992259e+01  -4.095312e+01
   3.058128e+01  -2.246016e+01
  -1.811724e+01   3.735165e+00
  -4.275249e+01   1.068062e+01
  -1.708873e+01  -2.017311e+01
   5.663415e+01  -3.599384e+01
   7.680404e+01  -5.201833e+01
   6.059028e+01   1.434353e+01
  -1.941340e+01   7.013276e+01
  -5.416087e+01   6.715369e+01
  -4.247195e+01   1.469873e+01
  -7.221074e+00  -4.280789e+01
   1.899116e+01  -3.295460e+01
   2.593634e+01   3.467139e+00
   2.216718e+01   3.886251e+01
   3.289754e+00   3.077034e+01
  -2.608177e+01  -1.005156e-01
  -2.994323e+01  -1.791646e+01
  -1.476862e+01  -3.867969e+00
   5.335308e+00   1.779945e+01
   4.548262e+00   9.797987e+00
  -3.747854e+00  -2.062673e+01
   3.558897e-01  -3.917506e+01
   1.619810e+01  -1.882904e+01
   3.579687e+01   2.076945e+01
   1.406799e+01   4.482805e+01
  -2.199381e+01   2.193962e+01
  -3.954439e+01  -1.899300e+01
  -1.153628e+01  -4.142355e+01
   3.796455e+01  -3.049407e+01
   7.282510e+01   1.690325e+00
   3.251529e+01   2.578176e+01
  -1.833557e+01   4.781338e+01
  -5.361057e+01   3.260107e+01
  -2.418651e+01   8.133746e+00
   2.299872e+01  -3.926872e+00
   2.721422e+01  -2.357498e-01
  -1.037532e+01   1.487671e+01
  -5.020439e+01   5.144915e+00
