
 $NMID
 id='ANONYMOUS ', fmtdat='(2E16.6)'
 volume=1.0
 tramp=1.0
 $END
  -2.273071e+03   2.531073e+02
  -2.355981e+03  -1.538601e+03
   3.770608e+02  -1.660448e+03
   1.156680e+03  -5.427852e+02
   7.010297e+02  -5.507952e+01
  -8.615712e+01   1.504113e+02
  -4.577960e+02  -9.338598e+01
  -1.742449e+02  -5.684998e+02
   3.810642e+02  -4.359450e+02
   4.427008e+02  -6.638522e+01
   3.972096e+02   4.065380e+02
   3.386154e+00   5.683267e+02
  -4.350837e+02   2.384414e+02
  -3.407069e+02  -3.390276e+02
   1.403409e+01  -3.361049e+02
   4.147037e+02  -1.743643e+02
   2.618990e+02   2.920078e+02
  -1.192012e+02   4.055895e+02
  -3.835837e+02   2.675656e+02
  -3.985764e+02  -1.328291e+02
  -1.359037e+02  -2.838928e+02
   3.490936e+01  -2.039825e+02
   3.175445e+01  -7.652468e+01
  -8.891657e+01  -2.147863e+01
  -1.915358e+02  -1.443840e+02
  -3.830717e+01  -2.585067e+02
   3.129370e+02  -1.437765e+02
   4.581582e+02   1.120945e+02
   2.561309e+02   2.736474e+02
  -2.265582e+02   2.592028e+02
  -4.367273e+02   3.601452e+01
  -3.241946e+02  -3.497884e+02
   1.396358e+02  -2.714999e+02
   3.483547e+02  -1.334611e+02
   2.502259e+02   1.339851e+02
   1.524487e+02   2.999312e+02
  -4.309662e+01   1.739296e+02
   3.666324e+01  -2.938312e+01
   5.297211e+01  -1.437074e+02
   9.593282e+01   4.545517e+00
  -2.585147e+00   3.165716e+02
  -1.529231e+02   5.012065e+02
  -3.215577e+02   8.901887e+01
  -1.942367e+02  -2.636063e+02
   1.157533e+02  -1.948243e+02
   2.264027e+02   1.697161e+02
  -7.231932e+01   3.093250e+02
  -3.460158e+02   5.810188e+01
  -4.073014e+02  -2.451183e+02
  -1.678366e+02  -4.542342e+02
   2.266809e+02  -1.764053e+02
   4.574526e+02  -2.926366e+01
   2.229226e+02   1.674872e+02
  -6.187920e+01   1.856333e+02
  -2.904212e+02   6.976313e+01
  -2.165515e+02  -6.605398e+01
  -1.747882e+01  -4.086949e+01
   4.424556e+01   3.793054e+01
  -8.993360e+01   7.766739e+01
  -1.953945e+02   6.691179e+00
  -1.136795e+02  -1.502223e+02
   1.133372e+02  -1.805885e+02
   2.253013e+02  -1.227348e+02
   2.019199e+02   8.249468e+01
   6.000816e-01   2.209503e+02
  -1.977630e+02   2.370691e+02
  -2.287007e+02   1.463659e+02
  -2.185074e+02  -1.048468e+02
  -2.962359e+01  -1.908360e+02
   4.066645e+00  -2.545436e+02
   2.466322e+01  -1.139997e+02
   6.423459e+01  -4.851418e+01
   8.293656e+01  -7.757385e+01
   1.825574e+02  -8.189321e+01
   2.412291e+02   5.715091e+01
   1.039817e+02   2.218073e+02
  -6.304685e+01   1.460394e+02
  -2.101431e+02   3.578001e+01
  -1.174965e+02  -1.641936e+02
   1.868510e+01  -2.369924e+02
   1.650169e+02  -4.245674e+01
   2.669862e+02   8.118071e+01
   1.167335e+02   1.660376e+02
  -2.243501e+01   1.960201e+02
  -1.135569e+02   9.953490e+01
  -1.120037e+02   5.658860e+01
  -9.944107e+01   2.730164e+01
  -2.165367e+02   5.757423e+01
  -2.673314e+02  -3.833844e+01
  -2.640876e+02  -1.937662e+02
  -6.444484e+00  -3.288311e+02
   2.574165e+02  -2.469783e+02
   3.664353e+02  -1.773070e+02
   2.478998e+02   4.424486e+01
   3.301004e+01   1.815087e+02
  -7.320204e+01   2.437649e+02
  -6.498463e+00   4.175219e+01
   7.687940e+01  -5.054740e+01
   9.532588e+01  -6.647928e+00
   2.970753e+01   1.095009e+02
  -9.829266e+01   1.134675e+02
  -1.070820e+02  -8.769593e+00
   4.781388e+00  -1.045598e+02
   1.451652e+02  -8.540185e+00
   1.049072e+02   1.553152e+02
  -4.179163e+00   2.547586e+02
  -1.626310e+02   1.762838e+02
  -2.633837e+02  -3.302596e+01
  -2.698772e+02  -2.052184e+02
  -4.709530e+01  -2.048530e+02
   1.145140e+02  -1.434004e+02
   1.312755e+02  -2.715363e+01
   3.208878e+01   9.122185e+00
  -3.203951e+01  -3.671588e+01
  -1.696779e+01  -1.034158e+02
   1.008672e+02  -7.208431e+01
   1.586759e+02  -6.985110e+00
   2.279400e+01   3.505684e+01
  -5.762552e+01   6.436571e+00
  -3.781394e+01  -5.989698e+01
   1.208071e+02  -8.631806e+01
   2.134565e+02  -4.847464e+00
   1.713240e+02   1.214044e+02
   2.160804e+01   2.001120e+02
  -1.356614e+02   1.937733e+02
  -2.034408e+02   9.149513e+01
  -1.103017e+02  -3.203914e+01
   1.737640e+01  -7.174701e+01
   5.533073e+01  -5.462879e+00
  -4.202323e+01   6.269723e+01
  -1.441865e+02   3.588769e+01
  -1.500888e+02  -3.409230e+01
  -7.538670e+01  -1.657028e+02
   5.654139e+01  -1.048750e+02
   8.856166e+01  -2.065190e+01
   4.524206e+01   2.949793e+01
  -2.664469e+01  -1.355124e+01
  -2.499050e+01  -7.548885e+01
   7.329155e+01  -8.820195e+01
   1.490130e+02  -1.642546e+01
   1.598346e+02   9.085766e+01
   3.172626e+01   1.646986e+02
  -1.119953e+02   1.528668e+02
  -1.168118e+02   9.149082e+00
  -7.324626e+01  -7.681748e+01
   4.968867e+01  -8.735567e+01
   5.538849e+01  -2.041134e+01
   1.162676e+01   1.479382e+01
  -2.612670e+01   3.992744e+00
   7.829336e+00  -1.667054e+01
   5.832226e+01  -3.361999e+00
   8.131384e+01   6.857831e+01
   2.025696e+01   1.136639e+02
  -1.045816e+02   1.297894e+02
  -1.620255e+02   2.117481e+01
  -1.505439e+02  -9.335740e+01
  -5.545189e+01  -1.638831e+02
   7.835798e+01  -1.653062e+02
   9.561473e+01  -5.086462e+01
   6.539345e+01   3.553549e+01
   2.895372e+01   2.840425e+01
   4.056129e+01  -1.202045e+01
   6.335323e+01  -1.013555e+00
   3.874274e+01   3.732032e+01
  -1.741768e+01   7.236542e+01
  -7.366880e+01   5.520214e+01
  -7.667163e+01  -2.871878e+01
   8.339006e+00  -8.958344e+01
   1.071160e+02  -5.575069e+01
   1.465547e+02   4.260260e+01
   7.160616e+01   1.541124e+02
  -5.823447e+01   1.726244e+02
  -2.013174e+02   7.758023e+01
  -1.750067e+02  -5.123660e+01
  -7.167478e+01  -1.084695e+02
   2.325746e+01  -1.264044e+02
   5.991695e+01  -5.212614e+01
   3.712570e+01  -5.066543e+01
   4.370496e+01  -7.815420e+01
   7.410101e+01  -7.402769e+01
   1.168211e+02   1.330440e+01
   9.082744e+01   9.493244e+01
   5.750869e+01   1.727222e+02
  -6.893927e+01   1.453254e+02
  -1.303124e+02   1.874711e+01
  -1.155024e+02  -7.867770e+01
  -2.942651e+01  -1.085542e+02
   4.410898e+01  -7.124323e+01
   4.153748e+01   4.435801e+00
  -2.650775e-02   3.284823e+01
  -1.655141e+01   2.745331e+01
   2.187994e+01   9.175514e+00
   7.228238e+01   2.379832e+00
   2.682602e+01   2.929325e+01
  -4.720851e+01   2.904018e+01
  -1.204791e+02   1.327933e+01
  -1.032448e+02  -3.366540e+01
  -1.277527e+01  -7.358298e+01
   9.480572e+01  -6.469147e+01
   1.063759e+02  -6.283844e+00
   2.398209e+01   3.224286e+01
  -4.948562e+01   3.710558e+01
  -6.354602e+01  -1.349808e+01
  -1.593534e+01  -6.428599e+01
   3.157247e+01  -5.670905e+01
   4.867415e+01  -7.443188e+00
   4.066765e+01   3.030047e+01
   3.967701e+01   2.946347e+01
   4.804763e+01   4.627984e-01
   5.309057e+01  -6.222869e+00
   3.826184e+01   5.340964e+01
  -1.159452e+01   9.735969e+01
  -7.780336e+01   9.963896e+01
  -1.049149e+02   1.397499e+01
  -1.012768e+02  -6.468260e+01
  -2.652705e+00  -8.626288e+01
   6.814372e+01  -5.972977e+01
   5.024659e+01   5.206734e+00
  -4.344045e+01   1.769677e+01
  -9.514344e+01  -1.815829e+01
  -5.393737e+01  -6.154460e+01
   5.651569e+01  -8.719553e+01
   1.216202e+02  -3.786015e+01
   1.169067e+02   2.925782e+01
   3.505771e+01   5.845820e+01
  -4.232518e+01   4.926739e+01
  -3.898207e+01   9.335138e-01
   3.382644e+01  -2.991767e+01
   7.130183e+01   9.371450e+00
   3.424367e+01   8.765663e+01
  -6.727523e+01   1.150525e+02
  -1.162473e+02   5.975746e+01
  -1.245892e+02  -6.826017e+01
  -3.213542e+01  -1.276688e+02
   6.380812e+01  -1.282964e+02
   7.199120e+01   1.930375e+00
   4.004040e+01   9.193761e+01
  -5.527704e+00   6.984037e+01
  -3.176552e+01   9.346530e+00
  -3.813376e+01  -2.224658e+01
  -1.610065e+01  -3.623536e+00
  -1.566574e+00   1.344767e+01
  -2.494879e+01  -1.833458e+01
  -4.411129e+01  -7.131530e+01
  -2.486676e+01  -7.573835e+01
   4.163958e+01  -3.115275e+01
   1.029656e+02   2.348660e+01
   1.033616e+02   3.949557e+01
   1.306931e+01   3.698020e+01
  -6.253033e+01   2.392975e+01
  -6.394811e+01   1.546154e+01
  -1.093684e+01  -8.910214e+00
   1.888081e+01  -1.545153e+01
   1.096592e+01  -9.254574e+00
  -1.043267e+01   6.337203e+00
   2.513884e+00   4.429413e+00
   4.557588e+01   3.912974e-01
   7.554342e+01   1.080391e+01
   2.366843e+01   5.713047e+01
  -6.840894e+01   9.209276e+01
  -1.415026e+02   5.540981e+01
  -1.253854e+02  -5.168463e+01
  -3.293739e+01  -1.071886e+02
   3.109436e+01  -1.390282e+02
   8.543245e+01  -4.919863e+01
   7.709462e+01   6.233285e+00
   2.220270e+01   2.659614e+01
   1.590208e+00   9.120526e+00
   8.760484e+00   4.568527e+00
   3.120277e+01   3.702377e+01
   9.384607e+00   6.061119e+01
  -1.164612e+01   6.788374e+01
  -4.912724e+01  -4.496299e+00
  -7.331755e+01  -6.781873e+01
  -1.166652e+01  -7.544580e+01
   5.285074e+01  -2.446765e+01
   1.079963e+02   4.533309e+01
   4.576207e+01   7.603564e+01
  -3.880793e+01   5.491324e+01
  -8.743305e+01   4.051804e+00
  -2.907246e+01  -4.153157e+01
   1.704717e+01  -5.346298e+01
   2.751821e+01  -2.381327e+01
  -2.397855e+01   5.871074e+00
  -4.287773e+01   1.437049e+01
  -1.487213e+01  -1.909916e+01
   5.718182e+01  -5.611321e+01
   8.169716e+01  -3.444671e+01
   5.946680e+01   9.720009e+00
  -7.128578e+00   5.402567e+01
  -3.843063e+01   5.969726e+01
  -3.578525e+01   1.214606e+01
  -1.011336e+01  -4.172268e+01
   1.363110e+01  -4.208564e+01
   2.779996e+01   5.358002e+00
   2.981972e+01   3.481998e+01
   1.881187e+00   2.937822e+01
  -2.685896e+01  -3.748733e+00
  -3.669331e+01  -1.803703e+01
  -1.659079e+01  -3.759115e-01
   2.283018e+00   1.486152e+01
   3.265258e+00   4.767354e+00
  -5.494829e+00  -2.175148e+01
  -3.547604e+00  -3.587665e+01
   2.414111e+01  -2.428550e+01
   3.515770e+01   2.316454e+01
   5.731073e+00   3.478699e+01
  -2.969170e+01   2.222213e+01
  -5.338001e+01  -2.497851e+01
  -1.608948e+01  -4.468424e+01
   3.503472e+01  -2.859012e+01
   6.858523e+01   1.020256e+01
   4.082309e+01   2.311764e+01
  -1.556514e+01   3.256574e+01
  -4.673079e+01   2.375004e+01
  -2.019759e+01   3.843059e+00
   1.830016e+01   9.239942e-01
   2.428026e+01   3.226538e+00
  -1.019954e+01   2.059342e+01
  -5.187687e+01   1.498218e+01
