
 $NMID
 id='ANONYMOUS ', fmtdat='(2E16.6)'
 volume=1.0
 tramp=1.0
 $END
   2.961704e+03  -7.999320e+01
   1.774719e+03   1.405056e+03
   5.084236e+02   1.719384e+03
  -5.930926e+02   8.564596e+02
  -7.645461e+02   4.623881e+02
  -1.475194e+02  -1.944966e+02
   2.908271e+02   3.301243e+01
  -5.640286e+01   5.058638e+02
  -2.549869e+02   4.440374e+02
  -4.904212e+02   1.759260e+02
  -3.665506e+02  -4.199884e+02
   8.667673e+00  -5.509904e+02
   3.064167e+02  -1.175589e+02
   2.080598e+02   2.843904e+02
  -1.234412e+01   4.187143e+02
  -2.802614e+02   4.098398e+01
  -2.975906e+02  -4.300475e+02
   8.510112e+00  -5.936926e+02
   3.378318e+02  -2.610720e+02
   4.411135e+02   1.438656e+02
   1.213791e+02   3.494076e+02
  -3.377587e+01   2.245268e+02
  -3.398060e+01   7.118489e+01
   1.568781e+02   1.134797e+02
   2.065797e+02   3.233375e+02
  -6.345035e+01   3.244389e+02
  -4.339646e+02   1.367733e+02
  -4.673091e+02  -1.633630e+02
  -8.158980e+01  -2.430871e+02
   3.669747e+02  -1.883572e+02
   3.664017e+02   2.269257e+02
   1.413597e+02   3.175180e+02
  -2.835802e+02   2.662822e+02
  -3.638736e+02   1.072593e+02
  -2.856531e+02  -1.295954e+02
   1.667800e+01  -2.708475e+02
  -1.958615e+01  -1.045356e+02
  -1.020356e+02   2.198161e+01
  -1.432140e+02   1.350118e+02
  -9.904990e+01  -2.063296e+02
  -5.066558e+01  -4.358704e+02
   2.138214e+02  -3.455340e+02
   2.850560e+02   1.051784e+02
  -5.157431e+00   1.815514e+02
  -1.223497e+02   1.218035e+02
  -1.695933e+02  -2.630096e+02
   1.515887e+02  -3.442774e+02
   3.760273e+02  -8.728106e+01
   3.651283e+02   4.008477e+02
   7.215297e+01   3.885194e+02
  -2.645861e+02   2.752101e+02
  -4.987607e+02  -8.395458e+01
  -2.594639e+02  -1.777765e+02
   6.988481e+01  -1.311941e+02
   2.470122e+02  -9.615467e+01
   2.051988e+02   4.646308e+01
   3.590093e+01   2.633640e+01
  -4.837787e+01  -4.435123e+01
   7.513336e+01  -4.679274e+01
   1.809272e+02   2.576659e+01
   8.090653e+01   1.082559e+02
  -1.430468e+02   1.590153e+02
  -3.119370e+02   8.534535e+01
  -2.363844e+02  -9.196490e+01
   1.082697e+01  -2.793554e+02
   2.705680e+02  -2.725249e+02
   3.835202e+02  -1.571352e+02
   1.481029e+02   1.101161e+02
   5.320961e+01   2.871252e+02
  -8.974199e+00   2.024000e+02
  -1.179730e+00   1.543886e+02
  -2.197672e+01   1.163283e+02
  -1.770934e+02   1.057436e+02
  -2.421496e+02   8.217696e+00
  -1.685095e+02  -1.039982e+02
  -1.046662e+02  -2.356481e+02
   5.400651e+01  -1.306499e+02
   1.539861e+02   2.385525e+01
   9.020131e+01   1.452282e+02
  -7.826613e+01   1.981582e+02
  -2.206032e+02   1.740751e+00
  -2.473254e+02  -2.485442e+02
  -8.681789e+01  -2.200363e+02
   1.927595e+01  -1.778880e+02
   1.337169e+02  -1.170621e+02
   1.277785e+02  -8.035606e+01
   1.485154e+02  -6.284924e+01
   2.324614e+02  -4.694264e+01
   3.924383e+02   9.731904e+01
   3.090805e+02   2.921188e+02
  -6.130643e+01   3.768844e+02
  -3.018564e+02   3.435859e+02
  -4.349313e+02   1.331383e+02
  -2.047125e+02  -1.275227e+02
  -3.971627e+01  -2.166709e+02
   9.104199e+01  -1.361700e+02
   3.305794e+00  -2.044163e+01
  -7.836798e+01   5.114718e+00
  -7.360935e+01  -3.831125e+01
   3.105501e+00  -1.214627e+02
   1.237715e+02  -4.074612e+01
   7.748437e+01   6.588861e+01
  -5.035367e+01   1.204713e+02
  -1.404608e+02  -2.088711e+01
  -1.396621e+02  -1.855987e+02
  -6.983851e-01  -3.295582e+02
   1.913221e+02  -2.113566e+02
   3.556443e+02   5.285443e+01
   2.302790e+02   1.792400e+02
   7.440618e+01   2.482296e+02
  -9.643215e+01   1.165129e+02
  -1.524929e+02  -2.097749e+01
  -2.346335e+01  -7.451534e+00
   3.680708e+01   5.287057e+01
   3.339689e+00   9.999841e+01
  -1.177481e+02   3.048732e+01
  -1.433379e+02  -2.785772e+01
  -1.596434e+01  -4.448944e+01
   7.093651e+01   2.240229e+01
   1.943137e+01   8.575814e+01
  -1.185599e+02   9.821397e+01
  -2.430932e+02  -2.724251e+01
  -2.270643e+02  -1.516238e+02
  -4.092252e+01  -2.065641e+02
   2.216981e+02  -1.837162e+02
   1.989804e+02  -6.177206e+01
   9.284623e+01   4.052985e+01
  -2.200363e+01   5.653181e+01
  -4.281156e+01  -7.766601e+00
   6.884090e+01  -7.416531e+01
   1.766556e+02   1.090911e+01
   1.583705e+02   1.234879e+02
   2.533063e+01   1.424196e+02
  -7.766995e+01   1.186578e+02
  -9.832447e+01   1.076710e+01
  -3.656797e+01  -3.928573e+01
   3.945916e+01   2.065269e+01
   3.234451e+01   1.061964e+02
  -1.024926e+02   1.084668e+02
  -2.086487e+02   3.207682e+01
  -1.241268e+02  -1.330377e+02
   2.278762e+01  -1.806888e+02
   1.344913e+02  -1.471717e+02
   1.398919e+02  -3.343969e+00
   3.234470e+01   8.398287e+01
  -5.452442e+01   8.105944e+01
  -5.315716e+01   1.929273e+01
   7.505376e+00  -2.401229e+01
   3.557265e+01  -3.073655e+00
  -8.324326e+00   2.783149e+01
  -8.477443e+01   1.060514e+01
  -9.081905e+01  -8.187780e+01
  -1.120571e+01  -1.585464e+02
   1.286225e+02  -1.208349e+02
   1.873781e+02   1.243833e+01
   1.545191e+02   1.266541e+02
   3.912878e+01   1.727014e+02
  -8.762310e+01   1.368176e+02
  -1.274590e+02   3.829011e+00
  -5.885428e+01  -4.710374e+01
  -3.159515e+01  -2.863068e+01
  -5.110159e+01   1.104739e+01
  -6.714339e+01   9.600936e+00
  -5.532301e+01  -5.146017e+01
   4.932076e+01  -9.113944e+01
   1.122010e+02  -7.431991e+01
   1.135698e+02   3.782749e+01
  -3.912555e+01   1.157500e+02
  -1.546059e+02   6.852265e+01
  -1.469566e+02  -4.119002e+01
  -7.034685e+01  -1.871541e+02
   1.099355e+02  -2.037548e+02
   2.230981e+02  -2.655086e+01
   2.073021e+02   8.166645e+01
   7.488159e+01   1.388017e+02
  -3.139628e+01   1.264419e+02
  -7.270964e+01   5.954588e+01
  -6.630069e+01   6.372090e+01
  -4.843867e+01   8.950996e+01
  -8.477695e+01   7.366975e+01
  -1.135667e+02  -1.237058e+01
  -7.416690e+01  -1.546085e+02
   1.271154e+01  -2.213660e+02
   1.091252e+02  -1.358832e+02
   1.533303e+02  -1.561416e+01
   1.065731e+02   1.176680e+02
   1.814361e+01   1.433540e+02
  -8.424445e+01   6.577296e+01
  -5.780466e+01  -1.914080e+01
   1.592912e+00  -4.998199e+01
   2.924100e+01  -3.051989e+01
  -2.039232e+01  -1.297611e+01
  -7.899275e+01  -8.997670e+00
  -3.995949e+01  -2.980554e+01
   7.626958e+01  -3.099724e+01
   1.506977e+02  -3.523619e+00
   1.404042e+02   5.817200e+01
  -1.590207e+01   9.291188e+01
  -1.411407e+02   5.713409e+01
  -1.251740e+02   8.533693e+00
  -4.265677e+01  -3.726749e+01
   5.151642e+01  -4.318253e+01
   7.319751e+01   2.273559e+01
   2.349054e+01   6.648515e+01
  -4.003983e+01   5.507242e+01
  -5.592292e+01   3.249768e+00
  -5.719197e+01  -4.359784e+01
  -3.566775e+01  -3.829872e+01
  -5.452379e+01  -4.558437e+00
  -5.636496e+01  -1.696350e+00
  -3.961396e+01  -6.453024e+01
   2.949364e+01  -1.333321e+02
   1.089740e+02  -1.263130e+02
   1.312171e+02  -2.851533e+01
   9.757674e+01   7.220856e+01
  -8.550130e+00   1.324547e+02
  -8.791226e+01   6.203697e+01
  -5.747037e+01  -5.525222e+00
   5.034644e+01  -1.250991e+01
   1.258275e+02   2.720290e+01
   5.422254e+01   7.616946e+01
  -7.962605e+01   8.732157e+01
  -1.811318e+02   2.689892e+01
  -1.427224e+02  -3.291849e+01
  -3.063857e+01  -7.192502e+01
   6.293740e+01  -3.832222e+01
   4.129144e+01   2.890491e+00
  -3.736481e+01   2.546420e+01
  -7.785157e+01  -1.727152e+01
  -4.414422e+01  -9.740186e+01
   3.356652e+01  -1.347344e+02
   1.403303e+02  -7.672533e+01
   9.884807e+01   5.151591e+01
  -2.314127e+01   1.741654e+02
  -7.507564e+01   9.338122e+01
  -1.023241e+02   8.972926e-01
  -4.488649e+01  -1.102886e+02
  -6.345770e-01  -8.369574e+01
   4.923951e+01  -9.022278e+00
   4.006786e+01   3.558185e+01
   1.140151e+01   7.962329e+00
   4.222278e+00  -1.192049e+01
   3.195652e+01   2.235083e+01
   3.527704e+01   8.464028e+01
   2.825710e+01   8.605970e+01
  -4.916175e+01   4.138651e+01
  -1.050498e+02  -5.010619e+01
  -1.109410e+02  -9.120473e+01
  -1.670602e+01  -3.761958e+01
   7.434606e+01  -2.364900e+01
   7.216148e+01  -1.056388e+01
   1.628426e+01   8.619319e+00
  -2.970461e+01   2.170247e+01
  -1.930575e+01   1.129503e+01
   1.484989e+01   2.886646e-01
  -1.677518e+00  -4.430680e+00
  -5.880280e+01  -2.504811e+00
  -8.490610e+01  -2.376853e+01
  -3.577672e+01  -6.936055e+01
   1.022335e+02  -1.256587e+02
   1.605935e+02  -5.475970e+01
   1.465151e+02   5.413792e+01
   2.422206e+01   1.474144e+02
  -8.738900e+01   1.354746e+02
  -7.886010e+01   5.869196e+01
  -6.870318e+01  -1.857533e+01
  -2.335816e+01  -3.857268e+01
  -2.476536e+00  -1.357915e+01
  -1.577285e+01  -9.564372e+00
  -2.325250e+01  -4.706831e+01
  -2.407603e+01  -7.905826e+01
   3.059679e+01  -6.478130e+01
   6.527859e+01   8.262927e+00
   5.727628e+01   1.011312e+02
   1.303566e+01   7.934214e+01
  -5.756124e+01   3.226559e+01
  -9.366215e+01  -6.177959e+01
  -2.833242e+01  -8.879306e+01
   5.351277e+01  -7.043531e+01
   8.709675e+01   4.493440e+00
   3.929144e+01   5.455105e+01
  -3.894295e+01   5.395457e+01
  -3.836333e+01   3.064374e+01
   1.467184e+01  -2.864268e+00
   5.179493e+01  -4.378982e+00
   2.288413e+01   2.699817e+01
  -6.900550e+01   5.225849e+01
  -1.073790e+02   4.761607e+01
  -6.278748e+01  -1.704486e+01
   5.658888e+00  -6.892298e+01
   4.888101e+01  -7.461029e+01
   4.372425e+01  -1.292300e+01
   1.153452e+01   4.381518e+01
  -1.461889e+01   4.733138e+01
  -2.915483e+01  -2.484621e+00
  -2.853774e+01  -4.987036e+01
  -5.525391e+00  -3.449678e+01
   3.639019e+01   4.497823e+00
   3.600756e+01   1.608658e+01
   1.559013e+01   7.830301e+00
  -4.159738e+00  -1.832355e+01
  -8.626528e+00  -1.186706e+01
   1.256972e+01   2.541585e+01
   3.213581e+00   4.727322e+01
  -2.222989e+01   2.600822e+01
  -3.275114e+01  -3.327189e+01
  -1.587454e+01  -5.595408e+01
   2.790757e+01  -2.896487e+01
   5.240407e+01   2.783556e+01
   1.537519e+01   5.142308e+01
  -4.330430e+01   3.735477e+01
  -7.180779e+01  -1.820161e+00
  -3.821585e+01  -2.676269e+01
   1.835848e+01  -4.395849e+01
   5.660144e+01  -2.423203e+01
   2.796848e+01  -8.691194e+00
  -1.968639e+01   1.058409e+01
  -3.166307e+01  -5.750659e-01
   2.073681e+01  -1.685663e+01
   6.211141e+01  -2.226329e+01
