
 $NMID
 id='ANONYMOUS ', fmtdat='(2E16.6)'
 volume=1.0
 tramp=1.0
 $END
   3.770019e+03   1.041529e+02
   1.993574e+03   2.848284e+03
  -4.176926e+02   2.655867e+03
  -2.097800e+03   8.556950e+02
  -1.170222e+03  -3.374949e+02
   4.620736e+02  -4.862044e+02
   5.459955e+02   4.289444e+02
  -1.102300e+02   8.553791e+02
  -7.680602e+02   7.016072e+02
  -8.710026e+02   4.811691e+01
  -3.710165e+02  -7.557581e+02
   1.406566e+02  -8.854816e+02
   4.429056e+02  -3.021105e+01
   3.931800e+02   6.789424e+02
  -2.102178e+02   6.845711e+02
  -4.736223e+02  -5.796649e+01
  -1.776643e+02  -6.279920e+02
   3.043959e+02  -6.710228e+02
   4.972619e+02  -1.659043e+02
   3.675817e+02   2.977816e+02
   8.686079e+01   3.459490e+02
  -1.741592e+02   2.731556e+02
  -1.557030e+02   4.917953e+01
   1.347291e+02  -6.916408e+00
   3.777225e+02   2.298792e+02
   1.470415e+02   4.445643e+02
  -3.952206e+02   2.935382e+02
  -7.346490e+02  -2.309075e+02
  -4.219426e+02  -5.017764e+02
   3.843181e+02  -4.632085e+02
   6.856582e+02   5.583982e+01
   2.432214e+02   4.082200e+02
  -2.417467e+02   5.080664e+02
  -6.509867e+02   1.792569e+02
  -3.437359e+02  -2.012531e+02
  -1.026107e+02  -3.979774e+02
   1.777609e+02  -3.026990e+02
   1.581564e+02   1.909614e+02
  -2.318810e+02   3.235486e+02
  -3.387365e+02  -2.513664e+01
  -1.187582e+02  -6.336201e+02
   4.467975e+02  -5.085621e+02
   5.485319e+02   7.829208e+01
   2.012354e+02   4.867058e+02
  -2.479077e+02   2.785625e+02
  -2.931681e+02  -3.725947e+02
   1.479224e+02  -4.441196e+02
   5.862295e+02  -1.133279e+02
   5.934066e+02   4.749745e+02
   1.024146e+02   4.936701e+02
  -2.970660e+02   3.008117e+02
  -6.205684e+02  -7.054756e+01
  -3.812197e+02  -2.733498e+02
   1.251366e+02  -3.443391e+02
   4.217238e+02  -7.964556e+01
   1.737922e+02   1.533358e+02
  -9.154244e+01   1.009506e+02
  -1.228816e+02  -1.231104e+02
   1.562168e+02  -1.447838e+02
   2.416757e+02   1.099504e+02
   1.454577e+02   3.090968e+02
  -1.842538e+02   2.484435e+02
  -3.091437e+02   1.141531e+02
  -2.187578e+02  -7.792357e+01
   3.819891e+01  -2.325870e+02
   2.844277e+02  -4.033442e+02
   3.775391e+02  -2.348252e+02
   2.323856e+02   1.520680e+02
   7.277196e+01   4.330555e+02
  -6.188148e+01   4.284223e+02
  -1.038030e+02   1.366707e+02
  -3.128335e+01   2.308485e+01
  -9.989689e+01   9.265141e+01
  -1.755183e+02   5.898048e+01
  -2.338308e+02  -7.443443e+01
  -8.992406e+01  -2.895608e+02
   1.026725e+02  -2.206369e+02
   2.236038e+02  -8.238883e+00
   1.561607e+02   2.297379e+02
  -5.643083e+00   2.987731e+02
  -2.885365e+02   1.105671e+02
  -3.649475e+02  -2.035762e+02
  -1.953424e+02  -3.794403e+02
   6.809239e+01  -3.069985e+02
   2.254048e+02  -1.234772e+02
   1.482767e+02  -4.708204e-01
   1.302784e+02  -3.451679e+01
   2.695894e+02  -5.547672e+01
   3.852911e+02   4.644010e+01
   2.927995e+02   3.076744e+02
   2.142316e+01   5.116874e+02
  -4.053431e+02   3.920310e+02
  -5.102578e+02   1.792152e+02
  -3.330767e+02  -1.278238e+02
  -2.001598e+01  -2.738063e+02
   1.503506e+02  -2.080393e+02
   6.704689e+01  -3.211666e+01
  -1.067188e+02   6.863072e+01
  -1.751076e+02  -4.717361e+01
  -2.989589e+01  -1.822695e+02
   1.722898e+02  -1.213030e+02
   1.585591e+02   5.381095e+01
  -2.582178e+01   1.621068e+02
  -1.860761e+02   3.099720e+01
  -1.456567e+02  -2.379863e+02
   5.703492e+01  -3.500333e+02
   2.615973e+02  -1.906080e+02
   3.182038e+02   1.259283e+02
   2.555236e+02   2.472634e+02
   4.571833e+01   2.658091e+02
  -1.209534e+02   1.449103e+02
  -1.738835e+02   5.169718e+00
  -5.220634e+01  -3.316201e+01
   6.029124e+01   5.897879e+01
   2.460742e+01   1.319005e+02
  -1.419118e+02   7.040473e+01
  -1.656954e+02  -4.441853e+01
  -6.160710e+01  -6.785571e+01
   8.365260e+01   1.004810e+01
   4.378831e+01   8.357888e+01
  -1.173118e+02   8.942762e+01
  -3.103824e+02  -3.752393e+01
  -2.483833e+02  -1.395670e+02
  -2.436973e+01  -2.563783e+02
   2.066666e+02  -2.553962e+02
   3.126370e+02  -1.218811e+02
   1.675965e+02   5.895853e+01
  -4.279974e+01   9.991073e+01
  -5.928790e+01   8.795961e-01
   5.032915e+01  -9.281091e+01
   1.907444e+02  -2.763194e+01
   2.197343e+02   1.279237e+02
   6.858358e+01   1.805323e+02
  -9.483322e+01   1.287075e+02
  -1.577643e+02   3.561044e+01
  -6.213846e+01  -5.067043e+01
   3.279607e+01   7.428398e+00
   2.515523e+01   8.981263e+01
  -8.376512e+01   1.196423e+02
  -2.246392e+02   2.322860e+01
  -1.990879e+02  -1.268412e+02
  -1.737181e+01  -2.349033e+02
   1.851144e+02  -1.412526e+02
   2.229066e+02  -1.177375e+01
   5.718481e+01   1.162431e+02
  -9.186015e+01   1.048701e+02
  -8.582636e+01   2.775848e+01
  -1.080176e+01  -2.806857e+01
   2.630296e+01  -1.574142e+01
  -1.127963e+01   1.696662e+01
  -7.350994e+01  -4.411717e+00
  -8.967550e+01  -9.345105e+01
  -2.342666e+01  -1.534447e+02
   1.574681e+02  -1.404528e+02
   2.136234e+02  -2.462153e+01
   1.859527e+02   1.367724e+02
   4.788412e+01   2.555689e+02
  -1.140823e+02   1.562393e+02
  -1.174080e+02   2.440531e+01
  -6.954242e+01  -5.486398e+01
  -3.109120e+01  -3.850292e+01
  -5.671229e+01   1.466979e+01
  -8.954894e+01   2.410823e-01
  -4.144922e+01  -5.850564e+01
   3.917801e+01  -9.218446e+01
   1.217529e+02  -5.170661e+01
   7.340759e+01   4.875994e+01
  -3.118778e+01   1.183613e+02
  -1.596972e+02   9.617436e+01
  -1.757652e+02  -4.911464e+01
  -9.248825e+01  -2.319261e+02
   9.968089e+01  -2.018697e+02
   2.512205e+02  -3.938878e+01
   2.791138e+02   1.199038e+02
   9.198151e+01   1.720375e+02
  -6.385016e+01   1.522860e+02
  -8.078953e+01   8.272526e+01
  -7.203374e+01   6.907701e+01
  -5.558273e+01   8.339126e+01
  -8.275637e+01   7.092107e+01
  -1.248785e+02  -3.048877e+01
  -1.093359e+02  -1.480024e+02
  -3.083323e+01  -2.144190e+02
   1.076232e+02  -1.622348e+02
   1.658989e+02  -9.178553e+00
   1.207117e+02   1.191455e+02
   3.340558e+01   1.507319e+02
  -7.546892e+01   9.155885e+01
  -6.525647e+01  -7.418350e+00
   1.378292e+00  -4.761177e+01
   1.396413e+01  -3.195189e+01
  -3.200338e+01  -1.771581e+01
  -7.616798e+01  -2.393048e+01
  -4.477829e+01  -4.752744e+01
   6.267223e+01  -3.367380e+01
   1.850893e+02   1.930355e+01
   1.282195e+02   5.775971e+01
   1.236547e+01   9.037561e+01
  -1.270763e+02   5.485878e+01
  -1.485122e+02  -7.865210e+00
  -4.859671e+01  -4.735521e+01
   6.087432e+01  -3.182286e+01
   8.204226e+01   3.164761e+01
   1.347456e+01   6.634304e+01
  -4.728295e+01   4.593499e+01
  -5.761201e+01  -1.371368e+00
  -4.920431e+01  -4.210823e+01
  -4.163117e+01  -4.884603e+01
  -5.297476e+01  -9.955278e+00
  -6.314689e+01  -2.053546e+00
  -3.982133e+01  -7.633814e+01
   3.868025e+01  -1.409953e+02
   1.464045e+02  -1.434042e+02
   1.788925e+02  -4.573714e+01
   1.227902e+02   1.014723e+02
   2.661204e+00   1.323118e+02
  -7.647891e+01   6.701809e+01
  -5.824573e+01  -1.543515e+01
   5.996801e+01  -1.209883e+01
   1.422220e+02   3.012616e+01
   8.172025e+01   1.104030e+02
  -8.040974e+01   1.058208e+02
  -1.830349e+02   3.858116e+01
  -1.610460e+02  -5.765962e+01
  -2.857418e+01  -8.073222e+01
   5.676981e+01  -7.039542e+01
   5.004507e+01  -1.843522e+00
  -3.809876e+01   2.368944e+01
  -9.276198e+01  -2.648979e+01
  -4.498550e+01  -1.133431e+02
   9.260991e+01  -1.275650e+02
   1.727558e+02  -5.367308e+01
   1.175929e+02   8.909242e+01
   7.240838e+00   1.891503e+02
  -9.735749e+01   1.454347e+02
  -9.835009e+01  -9.607777e+00
  -4.642877e+01  -1.288764e+02
   8.052743e+00  -9.625055e+01
   4.774722e+01  -1.258239e+01
   4.857563e+01   3.678885e+01
   2.294230e+01   1.177913e+01
   5.220427e+00  -1.859736e+01
   2.309184e+01   2.064676e+01
   6.947566e+01   9.455472e+01
   1.991157e+01   1.102064e+02
  -4.790437e+01   4.378977e+01
  -1.334278e+02  -4.550617e+01
  -1.154497e+02  -8.152126e+01
  -2.093792e+01  -5.775568e+01
   8.561973e+01  -1.589595e+01
   8.048740e+01   4.353215e+00
   1.370274e+01   9.341890e+00
  -3.250406e+01   1.738008e+01
  -1.707083e+01   1.606476e+01
   1.803076e+01  -4.554614e-01
  -4.155632e+00  -8.616041e+00
  -7.622593e+01  -8.873851e+00
  -8.831058e+01  -2.656687e+01
  -1.005753e+01  -8.628461e+01
   1.294739e+02  -1.032048e+02
   2.077413e+02  -4.879318e+01
   1.405178e+02   8.690293e+01
   1.424319e+01   1.594700e+02
  -7.988454e+01   1.391558e+02
  -1.112955e+02   4.898621e+01
  -7.571228e+01  -1.567061e+01
  -2.031315e+01  -3.481586e+01
   1.520412e+00  -1.026033e+01
  -1.288066e+01  -7.422657e+00
  -2.839985e+01  -4.774941e+01
  -2.616883e+01  -8.405405e+01
   2.166008e+01  -6.067699e+01
   8.390329e+01   3.003423e+01
   8.991381e+01   1.135397e+02
   1.320438e+01   1.124656e+02
  -7.168120e+01   2.484282e+01
  -8.063334e+01  -8.262798e+01
  -1.288331e+01  -1.086741e+02
   7.416512e+01  -5.197164e+01
   9.112978e+01   1.082377e+01
   3.717501e+01   5.693329e+01
  -3.218435e+01   4.832985e+01
  -3.277428e+01   2.988465e+01
   3.256386e+01   3.285585e-02
   6.759794e+01  -4.089670e+00
   1.802956e+01   2.799054e+01
  -8.280504e+01   6.471187e+01
  -1.393683e+02   4.490620e+01
  -6.387094e+01  -2.675005e+01
   9.287464e+00  -9.105314e+01
   5.553498e+01  -8.590186e+01
   4.389286e+01  -9.073912e+00
  -3.311054e+00   5.461136e+01
  -1.895627e+01   4.118228e+01
  -3.545182e+01  -1.490994e+01
  -2.191492e+01  -4.845475e+01
   3.334352e+00  -3.690521e+01
   3.236048e+01   1.049352e+01
   4.072773e+01   1.935924e+01
   1.852993e+01   2.549677e+00
  -3.735701e-01  -1.690275e+01
  -7.838683e+00   8.064629e-01
   7.058506e-01   3.584765e+01
  -9.885050e+00   4.840145e+01
  -2.762353e+01   9.574294e+00
  -2.835368e+01  -3.940166e+01
  -6.803103e+00  -6.122499e+01
   4.851970e+01  -1.764076e+01
   5.695866e+01   3.249156e+01
   1.983901e+01   6.153036e+01
  -5.738490e+01   3.757748e+01
  -8.799079e+01  -1.978660e+01
  -3.856647e+01  -4.264391e+01
   3.331492e+01  -4.234745e+01
   7.245742e+01  -2.078782e+01
   2.881520e+01  -1.973515e-01
  -3.726716e+01  -2.798481e+00
  -3.518724e+01  -1.607838e+01
   2.694972e+01  -2.733326e+01
   8.586101e+01  -1.509922e+01
