
 $NMID
 id='ANONYMOUS ', fmtdat='(2E16.6)'
 volume=1.0
 tramp=1.0
 $END
  -3.753783e+03   6.683649e+01
  -2.398877e+03  -2.079984e+03
   2.096250e+02  -2.760410e+03
   2.064806e+03  -1.211912e+03
   1.078193e+03   3.877386e+02
  -3.984161e+02   4.990057e+02
  -6.876514e+02  -2.543264e+02
  -9.444637e+01  -9.326315e+02
   6.101239e+02  -6.790685e+02
   9.614765e+02  -8.662122e+01
   3.606891e+02   7.065242e+02
   1.000489e+02   8.728178e+02
  -4.410593e+02   6.408664e+01
  -4.002643e+02  -6.354583e+02
   1.033421e+02  -6.437578e+02
   4.743890e+02  -5.402266e+01
   3.293982e+02   6.956953e+02
  -1.554049e+02   7.046940e+02
  -4.850370e+02   2.191708e+02
  -3.496719e+02  -2.421869e+02
  -9.481478e+01  -2.682224e+02
   1.729927e+02  -2.793174e+02
   1.520222e+02  -6.607364e+01
  -1.189479e+02   2.707085e+01
  -3.392714e+02  -1.742461e+02
  -1.654017e+02  -4.059646e+02
   4.656194e+02  -2.497093e+02
   6.882313e+02   1.147677e+02
   4.575228e+02   4.808196e+02
  -3.718249e+02   4.351434e+02
  -6.884473e+02  -6.959477e+00
  -3.025645e+02  -4.402434e+02
   1.884585e+02  -4.604019e+02
   6.277949e+02  -2.038387e+02
   3.211590e+02   1.821502e+02
   1.141334e+02   4.079801e+02
  -1.620814e+02   3.123445e+02
  -9.981747e+01  -1.324990e+02
   1.730609e+02  -2.887303e+02
   3.573119e+02   2.598639e+01
   1.564694e+02   5.894485e+02
  -3.421217e+02   5.805399e+02
  -5.829685e+02  -3.592827e+01
  -2.760686e+02  -4.578404e+02
   1.988488e+02  -2.259249e+02
   3.132730e+02   2.878716e+02
  -4.389713e+01   4.016491e+02
  -5.105538e+02   1.392258e+02
  -5.594088e+02  -4.559366e+02
  -1.333017e+02  -4.668400e+02
   2.678025e+02  -2.899477e+02
   6.233579e+02   6.603194e+01
   3.651503e+02   2.766082e+02
  -1.227556e+02   3.099380e+02
  -3.696013e+02   9.017355e+01
  -2.053324e+02  -1.645556e+02
   6.645347e+01  -1.095453e+02
   1.073918e+02   1.086448e+02
  -1.134229e+02   1.479741e+02
  -2.656017e+02  -8.118535e+01
  -1.618140e+02  -3.040822e+02
   1.414642e+02  -2.773727e+02
   3.229810e+02  -1.332636e+02
   2.318884e+02   9.729445e+01
  -3.215825e+01   2.550463e+02
  -2.792969e+02   3.428054e+02
  -3.496894e+02   1.593772e+02
  -2.623750e+02  -1.143320e+02
  -1.318532e+02  -3.817178e+02
   8.144346e+01  -4.458677e+02
   1.041485e+02  -1.335577e+02
   3.215165e+01  -1.546089e+01
   8.409363e+01  -7.384609e+01
   1.702316e+02  -7.027075e+01
   2.146783e+02   5.818311e+01
   9.398467e+01   2.734001e+02
  -1.057244e+02   2.159827e+02
  -2.261138e+02   1.985699e+01
  -1.935623e+02  -2.069779e+02
   6.187907e+00  -3.154803e+02
   2.660287e+02  -1.347211e+02
   3.850944e+02   2.157583e+02
   2.409026e+02   3.490299e+02
  -2.244204e+01   3.380519e+02
  -2.055509e+02   1.320182e+02
  -1.355345e+02   2.825661e+01
  -1.298114e+02   5.439999e+01
  -2.547215e+02   5.255437e+01
  -3.499068e+02  -4.033124e+01
  -3.138409e+02  -2.780037e+02
  -1.916583e+01  -4.611299e+02
   3.174824e+02  -4.626702e+02
   4.477082e+02  -2.180577e+02
   3.320869e+02   6.938993e+01
   4.351145e+01   2.624224e+02
  -1.068209e+02   2.193040e+02
  -6.100121e+01   3.053671e+01
   9.405626e+01  -8.167782e+01
   1.439586e+02  -1.878787e+00
   3.362930e+01   1.706804e+02
  -1.226734e+02   1.473146e+02
  -1.629872e+02  -5.849799e+01
   4.327763e+01  -1.698938e+02
   2.034329e+02  -4.230785e+01
   1.572955e+02   2.306582e+02
  -4.621556e+01   3.195704e+02
  -2.653546e+02   1.685755e+02
  -3.198512e+02  -7.525208e+01
  -2.735371e+02  -2.449234e+02
  -2.943819e+01  -2.539477e+02
   9.587021e+01  -1.686919e+02
   1.753556e+02  -3.301068e+01
   6.002697e+01   2.212475e+01
  -5.943387e+01  -3.401427e+01
  -2.278127e+01  -1.422651e+02
   1.210113e+02  -1.117290e+02
   1.581692e+02   1.793404e+01
   5.041635e+01   6.164099e+01
  -8.133046e+01  -4.927969e-01
  -5.173041e+01  -9.648389e+01
   1.057314e+02  -1.176839e+02
   3.039471e+02   1.234267e+01
   2.239169e+02   1.306560e+02
   4.876230e+01   2.293125e+02
  -2.089160e+02   2.491979e+02
  -2.888347e+02   1.541652e+02
  -1.682491e+02  -5.954986e+01
   2.781286e+01  -9.544900e+01
   6.630616e+01  -1.063236e+01
  -2.927186e+01   9.260966e+01
  -2.068198e+02   3.811347e+01
  -2.455274e+02  -9.953738e+01
  -7.593454e+01  -1.891319e+02
   8.614958e+01  -1.459823e+02
   1.570384e+02  -2.435375e+01
   7.243341e+01   4.189628e+01
  -3.392941e+01  -8.623953e+00
  -2.387432e+01  -9.243339e+01
   6.955209e+01  -1.204660e+02
   2.369535e+02  -2.988210e+01
   1.981635e+02   1.448934e+02
   2.020311e+01   2.188253e+02
  -1.507806e+02   1.384224e+02
  -2.051009e+02   4.768098e+01
  -6.940990e+01  -1.028901e+02
   6.786368e+01  -8.685203e+01
   8.482052e+01  -3.185505e+01
   1.227160e+01   2.542553e+01
  -2.692962e+01   2.097839e+01
   1.332120e+01  -1.722986e+01
   7.203348e+01   3.186480e+00
   1.043314e+02   6.898201e+01
   3.101108e+01   1.559684e+02
  -1.352442e+02   1.404613e+02
  -2.060749e+02   3.538574e+01
  -2.057807e+02  -1.116760e+02
  -5.247941e+01  -2.460791e+02
   1.029476e+02  -1.859405e+02
   1.207272e+02  -2.531030e+01
   8.160730e+01   5.881551e+01
   3.361257e+01   3.487963e+01
   5.854620e+01  -1.796467e+01
   8.420041e+01  -7.282642e+00
   4.051596e+01   5.522441e+01
  -3.100060e+01   9.176382e+01
  -1.119765e+02   4.834375e+01
  -8.360452e+01  -3.807142e+01
   2.935821e+01  -1.081427e+02
   1.501178e+02  -1.211458e+02
   2.087889e+02   3.835175e+01
   7.694014e+01   2.088409e+02
  -1.079249e+02   2.016276e+02
  -2.629671e+02   1.110260e+02
  -2.647340e+02  -1.024214e+02
  -1.045213e+02  -1.692219e+02
   3.980989e+01  -1.504990e+02
   7.778601e+01  -8.175899e+01
   6.040359e+01  -7.835686e+01
   5.796415e+01  -9.824188e+01
   8.012994e+01  -7.759313e+01
   1.329619e+02   4.779215e+00
   1.191166e+02   1.486003e+02
   4.606622e+01   2.137876e+02
  -9.297861e+01   1.739254e+02
  -1.666895e+02  -2.414513e+00
  -1.195793e+02  -1.029763e+02
  -2.020540e+01  -1.495304e+02
   6.299199e+01  -9.818461e+01
   6.451189e+01   1.236690e+01
  -5.310642e+00   5.245542e+01
  -1.495359e+01   2.809121e+01
   3.056947e+01   1.307395e+01
   7.410073e+01   1.619076e+01
   5.207986e+01   3.731426e+01
  -6.190871e+01   3.130551e+01
  -1.865633e+02  -6.162577e-02
  -1.360046e+02  -3.833392e+01
  -1.622667e+01  -8.479571e+01
   1.259135e+02  -6.733501e+01
   1.307628e+02  -2.595819e+01
   4.732755e+01   3.909316e+01
  -5.486053e+01   3.745121e+01
  -8.047610e+01  -2.192360e+01
  -8.498751e+00  -6.381468e+01
   4.877335e+01  -5.816440e+01
   6.150730e+01   1.495707e+00
   5.742324e+01   4.804972e+01
   4.137218e+01   3.703598e+01
   5.234412e+01   5.915423e+00
   5.641013e+01   7.344635e-01
   4.305627e+01   7.946376e+01
  -2.929526e+01   1.415781e+02
  -1.302529e+02   1.602269e+02
  -1.676279e+02   3.446156e+01
  -1.168026e+02  -8.395350e+01
  -1.322692e+01  -1.255221e+02
   8.614613e+01  -7.185956e+01
   6.607974e+01   1.243521e+01
  -5.955709e+01   2.228026e+01
  -1.425139e+02  -3.011622e+01
  -9.078043e+01  -1.052661e+02
   6.289911e+01  -1.124730e+02
   1.989691e+02  -5.067826e+01
   1.670248e+02   5.938901e+01
   4.120412e+01   8.545534e+01
  -6.166756e+01   6.914938e+01
  -4.813696e+01   5.663264e+00
   3.683382e+01  -2.609962e+01
   7.810655e+01   2.180460e+01
   4.332601e+01   1.173443e+02
  -5.698836e+01   1.655984e+02
  -1.641481e+02   6.059166e+01
  -1.249046e+02  -7.611506e+01
  -2.043210e+01  -2.111261e+02
   9.249655e+01  -1.586979e+02
   9.573049e+01   8.666882e+00
   5.174593e+01   1.212301e+02
   4.600603e+00   1.015361e+02
  -3.830298e+01   1.862097e+01
  -5.073211e+01  -3.569193e+01
  -2.368819e+01  -1.035688e+01
  -3.571602e+00   1.838577e+01
  -2.123812e+01  -2.025306e+01
  -6.781821e+01  -8.455800e+01
  -2.653070e+01  -1.115583e+02
   4.742235e+01  -5.213046e+01
   1.360802e+02   2.297877e+01
   1.358545e+02   7.530684e+01
   1.631246e+01   5.381557e+01
  -8.734152e+01   2.580738e+01
  -8.131085e+01   1.286707e+01
  -1.628253e+01  -7.634965e+00
   3.084220e+01  -1.837921e+01
   1.472934e+01  -1.713609e+01
  -1.582456e+01   2.939732e+00
   5.502076e+00   8.127138e+00
   8.381526e+01   1.812625e+01
   9.172217e+01   1.864944e+01
   1.619935e+01   8.685285e+01
  -1.195133e+02   1.133785e+02
  -1.813845e+02   7.682507e+01
  -1.486933e+02  -7.116357e+01
  -6.074856e+00  -1.496328e+02
   8.580167e+01  -1.527818e+02
   1.056568e+02  -6.244991e+01
   8.414808e+01   1.169149e+01
   2.681616e+01   3.688391e+01
  -2.526542e+00   8.754349e+00
   1.237110e+01   6.223167e+00
   3.191223e+01   4.962930e+01
   3.233020e+01   8.342893e+01
  -1.989147e+01   7.011263e+01
  -8.075201e+01  -1.973457e+01
  -9.223340e+01  -1.103750e+02
  -1.112192e+01  -1.128111e+02
   7.311445e+01  -3.568117e+01
   9.542121e+01   6.222085e+01
   2.552506e+01   1.043366e+02
  -6.561210e+01   4.813144e+01
  -9.268892e+01  -3.031131e+00
  -4.262855e+01  -4.726018e+01
   3.204474e+01  -5.791122e+01
   3.051315e+01  -3.157652e+01
  -3.230711e+01   6.842170e+00
  -6.454549e+01   1.360015e+01
  -1.966546e+01  -2.601034e+01
   7.458677e+01  -7.488100e+01
   1.201613e+02  -4.687686e+01
   7.013675e+01   8.320669e+00
  -6.773972e+00   9.426376e+01
  -5.182002e+01   8.963569e+01
  -3.866627e+01   2.925646e+00
  -2.375519e+00  -5.258280e+01
   2.056149e+01  -4.934885e+01
   4.011846e+01   1.607472e+01
   3.063081e+01   5.243778e+01
  -2.180382e-01   3.670627e+01
  -3.484239e+01  -7.403537e+00
  -3.889053e+01  -1.942090e+01
  -1.795423e+01  -2.582587e-01
   2.706637e-01   1.733553e+01
   7.228994e+00  -6.421451e-01
   2.046639e+00  -2.806256e+01
   8.563441e+00  -4.592564e+01
   2.342094e+01  -1.942190e+01
   4.164548e+01   4.523081e+01
   6.835827e-01   5.653258e+01
  -4.682775e+01   1.628871e+01
  -6.035717e+01  -2.619181e+01
  -2.467915e+01  -5.780138e+01
   4.761056e+01  -4.068613e+01
   9.326225e+01   4.773816e+00
   4.252235e+01   3.658206e+01
  -2.566065e+01   4.455019e+01
  -6.734745e+01   2.302962e+01
  -2.601683e+01   4.899704e+00
   4.150030e+01   1.902808e+00
   3.470728e+01   1.496984e+01
  -2.238817e+01   2.451145e+01
  -8.968732e+01   2.361740e+01
