
 $NMID
 id='ANONYMOUS ', fmtdat='(2E16.6)'
 volume=1.0
 tramp=1.0
 $END
  -2.204919e+03   5.372261e+02
  -1.999390e+03  -1.481051e+03
  -5.799825e+02  -1.638916e+03
   6.252800e+02  -1.144685e+03
   5.826170e+02  -3.798219e+02
   1.512873e+02   1.390794e+02
  -2.816186e+02   4.843305e+01
  -3.585857e+01  -4.139887e+02
   2.065453e+02  -5.139082e+02
   3.929625e+02  -1.721451e+02
   3.586034e+02   4.338582e+02
  -5.518295e+01   5.116856e+02
  -2.460301e+02   1.686383e+02
  -2.732597e+02  -3.221242e+02
   4.123026e+01  -4.706045e+02
   3.825937e+02  -9.007460e+01
   2.459974e+02   4.146215e+02
   2.666448e+01   5.493499e+02
  -4.145514e+02   3.430629e+02
  -4.238537e+02  -1.829025e+02
  -1.817494e+02  -3.709829e+02
  -2.647785e+01  -2.686384e+02
   2.888059e+01  -7.291221e+01
  -1.378229e+02  -1.386347e+02
  -2.555247e+02  -3.262037e+02
   5.589753e+01  -2.331153e+02
   3.494014e+02  -1.559227e+02
   4.581388e+02   2.030895e+02
   9.206978e+01   2.033760e+02
  -2.465270e+02   1.428877e+02
  -3.406406e+02  -1.784518e+02
  -1.432477e+02  -2.598571e+02
   2.202449e+02  -2.957918e+02
   3.200129e+02  -1.146447e+02
   3.132407e+02   4.632910e+01
  -1.252071e+01   3.052003e+02
   2.646333e+01   1.136176e+02
   4.996722e+01  -3.198647e+01
   4.044509e+01  -9.696407e+01
   8.471656e+01   1.668370e+02
   1.003022e+02   3.021369e+02
  -1.889269e+02   3.258767e+02
  -2.658512e+02  -4.149682e+01
  -6.819582e+01  -2.081744e+02
   1.270708e+02  -6.412156e+01
   1.500004e+02   2.347139e+02
  -1.194930e+02   3.429590e+02
  -3.969428e+02   3.605918e+01
  -4.100674e+02  -3.712598e+02
  -3.277870e+01  -3.903962e+02
   2.430195e+02  -2.599106e+02
   4.199401e+02   1.461439e+02
   2.718599e+02   2.189051e+02
  -7.877761e+01   1.789599e+02
  -2.503962e+02   1.119550e+02
  -1.979773e+02   1.513322e+01
  -4.567123e+01  -2.807750e+01
   2.563402e+01   2.432683e+01
  -4.385647e+01   4.855838e+01
  -1.933501e+02  -5.025331e+00
  -8.393515e+01  -1.004080e+02
   1.465334e+02  -1.560913e+02
   3.281036e+02  -9.643250e+01
   2.261306e+02   9.067112e+01
  -2.815462e+01   3.152932e+02
  -2.538071e+02   2.509083e+02
  -3.282344e+02   1.563537e+02
  -1.762494e+02  -1.285247e+02
  -2.195982e+01  -2.776845e+02
   4.503433e+01  -2.498921e+02
  -7.956815e+00  -1.562067e+02
   3.677135e+01  -1.183967e+02
   1.650321e+02  -1.042351e+02
   2.176570e+02  -2.432103e+01
   1.792061e+02   1.263751e+02
   8.341107e+01   2.317719e+02
  -6.745704e+01   1.424281e+02
  -1.612850e+02  -2.854773e+01
  -1.094420e+02  -1.726377e+02
   4.321512e+01  -2.042547e+02
   1.917516e+02  -2.252107e+01
   2.401937e+02   1.809235e+02
   7.661398e+01   2.229335e+02
  -4.982537e+01   1.637980e+02
  -1.361721e+02   1.244182e+02
  -1.378119e+02   8.710764e+01
  -1.432521e+02   6.382304e+01
  -2.180268e+02   6.247694e+01
  -3.239042e+02  -7.874502e+01
  -2.634801e+02  -3.150246e+02
   6.042490e+01  -3.712411e+02
   2.714746e+02  -2.574942e+02
   4.796296e+02  -9.785839e+01
   2.396130e+02   1.034803e+02
   2.469352e+01   1.934490e+02
  -1.017777e+02   1.469787e+02
   5.680740e+00   2.588362e+01
   8.706779e+01  -2.246316e+01
   7.789436e+01   2.895676e+01
   4.229536e+00   1.065098e+02
  -1.354349e+02   8.041212e+01
  -8.761037e+01  -5.806285e+01
   2.696150e+01  -1.317682e+02
   1.247836e+02   2.944984e+00
   1.362558e+02   1.556735e+02
  -8.459658e+00   3.120127e+02
  -1.772558e+02   1.817720e+02
  -3.344525e+02  -6.728768e+01
  -2.402946e+02  -1.954703e+02
  -8.172115e+01  -2.536025e+02
   1.184832e+02  -1.311317e+02
   1.669089e+02   8.364610e+00
   2.561791e+01   2.491842e+00
  -3.140260e+01  -6.078990e+01
   1.240482e+01  -8.570693e+01
   1.299765e+02  -3.603606e+01
   1.268971e+02   2.229100e+01
   3.492066e+01   3.870493e+01
  -7.259000e+01  -3.135453e+01
  -1.405158e+01  -9.252314e+01
   1.408479e+02  -8.165947e+01
   2.424134e+02   4.352962e+01
   2.346664e+02   1.673731e+02
   2.880278e+01   2.127300e+02
  -2.191685e+02   1.809872e+02
  -1.872055e+02   5.617970e+01
  -8.886201e+01  -3.067295e+01
   3.277950e+01  -5.692313e+01
   4.831774e+01   1.198897e+01
  -6.891453e+01   6.444878e+01
  -1.884665e+02   1.712085e+01
  -1.505373e+02  -1.041890e+02
  -5.620091e+01  -1.545087e+02
   6.260898e+01  -1.114912e+02
   8.803623e+01  -2.760996e+01
   3.690506e+01   2.498932e+01
  -3.998147e+01  -2.808426e+01
  -2.547921e+01  -8.997426e+01
   9.210320e+01  -1.066038e+02
   1.808925e+02  -4.711594e+00
   1.407269e+02   1.533526e+02
  -6.961496e-01   1.713066e+02
  -1.218443e+02   1.483229e+02
  -1.296452e+02  -1.304853e+01
  -3.321310e+01  -8.317809e+01
   5.489137e+01  -7.795320e+01
   5.810513e+01  -1.183640e+01
  -7.726662e+00   1.994085e+01
  -3.404258e+01   6.691639e+00
   5.543766e+00  -2.481819e+01
   7.838039e+01  -1.762028e+01
   8.669849e+01   9.585470e+01
   7.331078e+00   1.596328e+02
  -1.305616e+02   1.379885e+02
  -2.126687e+02   8.915160e+00
  -1.516067e+02  -9.977323e+01
  -3.909985e+01  -1.886794e+02
   8.546384e+01  -1.445476e+02
   1.317286e+02  -1.683208e+00
   6.456067e+01   4.871988e+01
   3.564597e+01   2.886574e+01
   4.636232e+01  -1.322584e+01
   6.710812e+01  -6.691864e+00
   5.576898e+01   5.061383e+01
  -4.462819e+01   8.734168e+01
  -1.220944e+02   7.124728e+01
  -1.185833e+02  -3.521951e+01
   4.272679e+01  -1.150861e+02
   1.525326e+02  -7.276390e+01
   1.546152e+02   3.977715e+01
   8.510655e+01   1.916953e+02
  -1.256501e+02   1.787355e+02
  -2.495884e+02   1.212785e+01
  -1.899381e+02  -7.834766e+01
  -9.263107e+01  -1.397639e+02
   3.661808e+01  -1.127607e+02
   8.104953e+01  -5.715428e+01
   6.607403e+01  -5.229432e+01
   3.453301e+01  -8.516058e+01
   7.550475e+01  -7.702916e+01
   1.073662e+02   2.517247e+01
   1.020512e+02   1.587536e+02
  -2.393764e+01   2.317110e+02
  -9.111279e+01   1.477541e+02
  -1.366024e+02   9.001516e+00
  -1.087375e+02  -9.553118e+01
  -1.347744e+01  -1.360989e+02
   8.425108e+01  -6.334049e+01
   5.250416e+01   1.366977e+01
  -3.288756e+00   4.691707e+01
  -3.013400e+01   3.075030e+01
   2.164587e+01   9.447670e+00
   7.584953e+01   1.120959e+01
   3.842800e+01   3.626036e+01
  -6.210663e+01   3.624631e+01
  -1.288319e+02  -1.540214e+01
  -1.263278e+02  -5.713621e+01
   1.662338e+01  -8.118838e+01
   1.429387e+02  -4.880237e+01
   1.230039e+02  -1.541611e+01
   3.422845e+01   3.681993e+01
  -4.704380e+01   3.731225e+01
  -7.086927e+01  -2.110358e+01
  -2.052667e+01  -7.028994e+01
   5.052006e+01  -5.625451e+01
   6.004043e+01  -1.449158e+01
   5.385431e+01   4.152113e+01
   4.364000e+01   3.653257e+01
   5.025496e+01   2.889459e+00
   6.146074e+01   2.711454e+00
   2.730839e+01   6.712835e+01
  -2.002897e+01   1.324876e+02
  -1.033613e+02   1.174850e+02
  -1.558007e+02   4.069661e+01
  -1.176272e+02  -6.310233e+01
   8.027309e+00  -1.269601e+02
   8.798067e+01  -7.481338e+01
   5.423353e+01   6.555937e+00
  -4.386006e+01   1.953513e+01
  -1.207513e+02  -3.309691e+01
  -4.928919e+01  -7.262555e+01
   8.854034e+01  -9.744867e+01
   1.694771e+02  -2.899994e+01
   1.320691e+02   1.039949e+01
   2.439689e+01   7.015298e+01
  -6.477926e+01   3.625450e+01
  -4.428250e+01   1.325659e+00
   3.525016e+01  -2.482026e+01
   8.251279e+01   2.156843e+01
   3.264762e+01   8.774035e+01
  -3.755647e+01   1.343180e+02
  -1.392435e+02   8.541223e+01
  -1.013431e+02  -5.908548e+01
   2.153162e+01  -1.805527e+02
   7.229159e+01  -1.163998e+02
   9.608968e+01  -1.359316e+01
   4.282147e+01   1.077685e+02
  -2.953117e+00   7.693595e+01
  -4.925449e+01   9.602237e+00
  -3.381624e+01  -3.324548e+01
  -1.369678e+01  -6.966873e+00
  -3.821273e+00   1.169311e+01
  -3.083531e+01  -2.397124e+01
  -4.529643e+01  -7.886364e+01
  -2.774508e+01  -8.862559e+01
   4.467134e+01  -4.024775e+01
   1.197984e+02   3.933395e+01
   1.140591e+02   7.421093e+01
   1.413358e+01   3.908929e+01
  -6.901253e+01   2.090174e+01
  -6.849856e+01   2.925819e+00
  -1.687106e+01  -9.984227e+00
   3.110185e+01  -2.250350e+01
   1.495450e+01  -8.412850e+00
  -1.547433e+01   1.026889e+00
   2.200679e+00   4.731367e+00
   5.343331e+01   3.264824e+00
   8.005924e+01   1.743175e+01
   3.519724e+01   5.579743e+01
  -8.900799e+01   1.071438e+02
  -1.560137e+02   4.349171e+01
  -1.535593e+02  -6.178256e+01
  -2.284533e+01  -1.497886e+02
   8.169863e+01  -1.291107e+02
   9.682748e+01  -5.632795e+01
   6.697545e+01   1.789467e+01
   2.178492e+01   4.111887e+01
   3.162327e+00   1.437453e+01
   1.286030e+01   8.135319e+00
   2.636152e+01   4.707431e+01
   1.614665e+01   6.681304e+01
  -2.911205e+01   6.762696e+01
  -6.865163e+01  -1.566077e+01
  -5.924229e+01  -9.598034e+01
  -2.713418e+01  -8.691633e+01
   6.528917e+01  -2.519244e+01
   9.893331e+01   6.464453e+01
   2.686825e+01   8.409459e+01
  -5.339062e+01   6.469081e+01
  -1.010284e+02   5.314451e+00
  -3.853966e+01  -6.078679e+01
   3.146007e+01  -5.143852e+01
   3.974783e+01  -2.790820e+01
  -1.807175e+01   4.577734e+00
  -5.506790e+01   6.562637e+00
  -1.657804e+01  -2.574816e+01
   7.112535e+01  -5.559848e+01
   9.812422e+01  -4.920713e+01
   6.009506e+01   2.613388e+01
  -1.047306e+01   7.240747e+01
  -4.404465e+01   7.498272e+01
  -4.429879e+01   1.338290e+01
  -1.002605e+01  -4.457505e+01
   1.878575e+01  -4.469190e+01
   3.068989e+01  -6.604612e-01
   2.724591e+01   4.363685e+01
   5.389198e+00   3.380464e+01
  -3.455652e+01  -1.057322e+00
  -3.896349e+01  -1.481958e+01
  -1.592502e+01  -7.607254e+00
   4.273603e+00   1.884976e+01
   5.738605e+00   1.172948e+01
  -1.368293e+01  -2.909338e+01
  -2.676242e+00  -4.685617e+01
   2.162517e+01  -2.636222e+01
   3.318032e+01   3.823814e+01
   2.360146e+01   5.293955e+01
  -2.876558e+01   3.317877e+01
  -5.383262e+01  -2.621040e+01
  -1.551159e+01  -5.265482e+01
   4.936571e+01  -2.728399e+01
   6.907174e+01   6.902552e+00
   4.698875e+01   3.359829e+01
  -2.291949e+01   4.255356e+01
  -5.568899e+01   2.592561e+01
  -2.811521e+01   8.714961e+00
   2.208878e+01  -1.304005e+01
   3.240821e+01   1.416435e-01
  -1.707411e+01   2.129322e+01
  -6.159736e+01   3.311806e+01
