
 $NMID
 id='ANONYMOUS ', fmtdat='(2E16.6)'
 volume=1.0
 tramp=1.0
 $END
   2.851360e+03   5.189631e+01
   1.332198e+03   1.973759e+03
   1.584769e+02   1.869302e+03
  -1.215675e+03   9.249612e+02
  -7.802126e+02  -3.554056e+01
   1.526656e+02  -1.797338e+02
   3.909385e+02   1.896643e+02
  -3.180630e+01   4.400880e+02
  -4.599651e+02   5.385095e+02
  -6.314142e+02   1.804487e+02
  -3.925629e+02  -4.419655e+02
  -8.321935e+01  -6.229847e+02
   2.835879e+02  -5.406340e+01
   1.229615e+02   4.444819e+02
  -4.468422e+01   5.319783e+02
  -3.220876e+02  -2.554984e+01
  -2.447692e+02  -4.050243e+02
   1.786643e+02  -5.314949e+02
   4.699661e+02  -1.707978e+02
   4.291357e+02   1.127180e+02
   1.410003e+02   3.677039e+02
  -1.216560e+02   2.547778e+02
  -8.616451e+01   9.685152e+01
   1.891891e+02   7.238919e+01
   2.800520e+02   2.671148e+02
  -2.129140e+01   3.459127e+02
  -4.828769e+02   1.697633e+02
  -5.108099e+02  -1.596276e+02
  -2.556227e+02  -3.126996e+02
   3.225553e+02  -1.496957e+02
   4.572656e+02   1.342555e+02
   2.073830e+02   3.386110e+02
  -2.803864e+02   3.047087e+02
  -3.697658e+02   1.054690e+02
  -3.237620e+02  -1.661931e+02
  -1.067432e+01  -2.945173e+02
   4.871190e+01  -1.455145e+02
  -1.256171e+01   1.014378e+02
  -9.080069e+01   2.131581e+02
  -1.639677e+02  -9.303616e+01
  -5.587922e+01  -3.453764e+02
   2.697320e+02  -3.773834e+02
   2.478920e+02   3.559597e+01
   1.182555e+02   2.782715e+02
  -1.250795e+02   1.002259e+02
  -1.145600e+02  -2.579341e+02
   6.816446e+01  -3.044020e+02
   3.775836e+02  -7.401238e+01
   4.127425e+02   3.629127e+02
   8.678164e+01   3.918897e+02
  -2.540941e+02   3.227749e+02
  -4.674781e+02  -5.081865e+01
  -3.553589e+02  -2.466666e+02
   5.324517e+01  -1.931714e+02
   2.398364e+02  -4.443132e+01
   1.876525e+02   6.405508e+01
  -1.371794e+00   1.688684e+01
  -6.239211e+01  -8.089842e+01
   6.644038e+01  -5.720638e+01
   2.237567e+02   2.251527e+01
   1.012162e+02   1.453237e+02
  -1.517506e+02   2.050935e+02
  -3.512104e+02   9.824479e+01
  -2.197505e+02  -6.804876e+01
  -1.466130e+01  -2.737645e+02
   2.662253e+02  -2.958013e+02
   3.655054e+02  -1.230450e+02
   2.078434e+02   1.336982e+02
   4.284406e+01   3.214238e+02
  -6.062360e+01   2.624198e+02
  -4.064673e+01   1.235265e+02
  -1.717330e+01   8.571684e+01
  -1.233256e+02   1.010033e+02
  -2.042667e+02   4.866543e+01
  -2.098118e+02  -9.096660e+01
  -8.800912e+01  -2.311735e+02
   8.538685e+01  -1.494835e+02
   1.276680e+02   2.726429e+01
   1.031824e+02   1.762183e+02
  -4.285203e+01   2.048551e+02
  -2.452865e+02   3.242928e+01
  -2.892750e+02  -1.097705e+02
  -1.449998e+02  -2.778281e+02
   3.415309e+01  -2.325706e+02
   1.697305e+02  -1.286941e+02
   1.478735e+02  -4.341043e+01
   1.454486e+02  -3.547255e+01
   2.884534e+02   2.517818e+00
   3.411979e+02   5.462745e+01
   2.241282e+02   3.176791e+02
  -1.266660e+01   4.214751e+02
  -2.637319e+02   3.207441e+02
  -4.816457e+02   1.261068e+02
  -1.838240e+02  -1.157554e+02
  -4.483456e+01  -1.928070e+02
   8.284995e+01  -1.378333e+02
   7.261619e+00  -4.561873e+01
  -1.139849e+02   4.799116e+01
  -1.124410e+02  -5.927793e+01
  -3.878144e+00  -1.078319e+02
   1.059759e+02  -8.087608e+01
   9.537947e+01   4.103118e+01
  -5.189532e+01   1.190700e+02
  -1.360015e+02  -1.177720e+00
  -1.242856e+02  -2.169234e+02
   5.434004e+01  -3.028792e+02
   2.383575e+02  -1.699039e+02
   3.020749e+02   9.935112e+01
   2.183372e+02   1.949568e+02
   5.305914e+01   2.295175e+02
  -8.692334e+01   1.077278e+02
  -1.214812e+02  -4.035777e+00
  -2.470305e+01  -1.193875e+01
   4.417936e+01   5.913834e+01
  -1.408683e+01   8.836875e+01
  -1.048294e+02   4.928260e+01
  -1.219523e+02  -5.034197e+01
  -2.701969e+01  -5.424040e+01
   6.889325e+01   1.902256e+01
   4.244812e+01   8.211582e+01
  -1.300463e+02   7.012118e+01
  -2.573667e+02  -3.713438e+01
  -2.003989e+02  -1.408116e+02
  -4.444174e+01  -2.576391e+02
   1.706535e+02  -2.187469e+02
   2.177112e+02  -5.832878e+01
   1.205704e+02   4.589143e+01
  -9.290985e+00   6.640433e+01
  -6.381403e+01  -9.287502e+00
   5.742493e+01  -6.789392e+01
   1.766534e+02  -9.562610e+00
   1.120446e+02   9.411922e+01
   4.000774e+01   1.889665e+02
  -7.126210e+01   1.028505e+02
  -1.009857e+02   2.403221e+00
  -3.337844e+01  -4.353180e+01
   3.605368e+01   1.869879e+01
   2.383051e+01   9.210751e+01
  -1.155045e+02   9.856512e+01
  -2.065826e+02   1.895589e+01
  -1.658559e+02  -1.202629e+02
  -2.507706e+01  -1.761271e+02
   1.463788e+02  -1.187158e+02
   1.468985e+02   2.493041e+00
   5.309539e+01   8.140585e+01
  -6.241937e+01   7.981048e+01
  -6.189545e+01   1.521614e+01
   9.505416e-01  -2.352463e+01
   2.936406e+01  -3.743306e+00
  -1.115387e+01   2.443213e+01
  -7.387905e+01  -3.929306e+00
  -7.239018e+01  -9.320337e+01
  -2.166852e+01  -1.700884e+02
   1.248540e+02  -1.371848e+02
   2.329485e+02  -2.497601e+01
   1.713668e+02   1.383740e+02
   5.736853e+01   2.109069e+02
  -8.673568e+01   1.208505e+02
  -1.069456e+02   1.781364e+01
  -4.793592e+01  -4.539560e+01
  -2.365681e+01  -2.720277e+01
  -5.656586e+01   1.633359e+01
  -7.534048e+01  -7.359649e-01
  -4.715433e+01  -5.358083e+01
   3.412397e+01  -8.524475e+01
   1.051862e+02  -4.937777e+01
   9.956355e+01   3.996264e+01
  -2.246907e+01   1.221578e+02
  -1.478628e+02   8.319174e+01
  -1.884586e+02  -9.283218e+01
  -3.363960e+01  -2.169594e+02
   1.469820e+02  -2.072137e+02
   2.258063e+02  -1.338925e+01
   2.021068e+02   6.688854e+01
   1.024066e+02   1.546663e+02
  -6.004714e+01   1.146654e+02
  -8.584172e+01   6.789848e+01
  -6.840130e+01   6.238442e+01
  -5.507380e+01   6.857334e+01
  -1.018320e+02   7.152089e+01
  -9.722471e+01  -3.121052e+01
  -1.070724e+02  -1.269369e+02
  -1.627217e+01  -2.138662e+02
   8.265392e+01  -1.290405e+02
   1.353490e+02  -3.745084e+00
   1.074015e+02   1.116157e+02
   8.076357e+00   1.630632e+02
  -6.537339e+01   6.417248e+01
  -5.809768e+01  -9.220007e+00
   5.265656e+00  -4.844886e+01
   2.734204e+01  -2.903713e+01
  -2.633411e+01  -1.440937e+01
  -8.294495e+01  -2.042004e+01
  -4.599352e+01  -4.170294e+01
   6.328466e+01  -3.660660e+01
   1.440617e+02   1.895223e+01
   1.346635e+02   6.693303e+01
  -2.187833e+01   8.418099e+01
  -1.332956e+02   6.929027e+01
  -1.292994e+02  -1.341041e+01
  -4.029978e+01  -4.085674e+01
   5.263044e+01  -3.383535e+01
   6.219525e+01   1.986181e+01
   3.549024e+00   6.619907e+01
  -3.876664e+01   4.136059e+01
  -6.049794e+01   7.916595e+00
  -4.625526e+01  -4.981340e+01
  -4.326178e+01  -3.850605e+01
  -4.761427e+01  -2.558281e+00
  -5.219253e+01  -3.876883e+00
  -3.317776e+01  -7.077140e+01
   3.724506e+01  -1.329813e+02
   1.310209e+02  -1.033216e+02
   1.541904e+02  -2.422301e+01
   9.371012e+01   7.409382e+01
  -1.494214e+01   1.129717e+02
  -7.285056e+01   6.610984e+01
  -5.029659e+01  -2.246652e+01
   4.989642e+01  -6.080133e+00
   1.423385e+02   2.642668e+01
   5.561372e+01   8.933831e+01
  -9.296350e+01   8.020935e+01
  -1.805770e+02   4.301275e+01
  -1.248693e+02  -4.694261e+01
  -2.458804e+01  -6.475830e+01
   6.705386e+01  -5.551457e+01
   3.872822e+01   1.130151e+01
  -2.991232e+01   2.192675e+01
  -7.766130e+01  -2.358058e+01
  -4.370785e+01  -1.142275e+02
   6.260318e+01  -1.425339e+02
   1.532272e+02  -3.695406e+01
   1.190923e+02   9.001225e+01
   4.728928e+00   1.675443e+02
  -8.065546e+01   1.115387e+02
  -9.834979e+01  -3.338132e+00
  -2.529416e+01  -1.202008e+02
   1.755501e+01  -9.667720e+01
   4.428847e+01  -1.208324e+01
   4.420823e+01   2.609711e+01
   1.502905e+01   6.334956e+00
   3.934542e+00  -1.452323e+01
   2.867608e+01   1.610973e+01
   5.940132e+01   8.870505e+01
   3.492399e+01   8.349096e+01
  -5.221542e+01   3.558451e+01
  -1.333907e+02  -3.731076e+01
  -9.695426e+01  -6.819222e+01
  -2.020734e+01  -5.272726e+01
   6.566998e+01  -1.138654e+01
   7.115235e+01  -3.265368e+00
   1.668579e+01   1.065527e+01
  -3.146047e+01   2.090374e+01
  -1.620809e+01   1.119413e+01
   1.336406e+01   5.114781e-01
  -1.861486e+00  -5.183889e+00
  -6.265246e+01  -4.944405e+00
  -7.499674e+01  -2.561015e+01
  -2.439624e+01  -6.452562e+01
   9.628323e+01  -1.018607e+02
   1.405697e+02  -5.737899e+01
   1.426928e+02   7.057487e+01
   1.380584e+01   1.475725e+02
  -7.225067e+01   1.224739e+02
  -9.940972e+01   5.339076e+01
  -6.333436e+01  -1.457965e+01
  -2.483811e+01  -3.059523e+01
  -2.731243e+00  -1.328051e+01
  -1.345121e+01  -9.495718e+00
  -2.427451e+01  -4.032403e+01
  -1.419153e+00  -8.416322e+01
   2.871707e+01  -5.965574e+01
   5.767029e+01   1.868813e+01
   7.465916e+01   8.831134e+01
   1.550244e+01   1.105891e+02
  -6.723897e+01   3.352582e+01
  -6.315375e+01  -5.313197e+01
  -3.659345e+01  -7.974934e+01
   6.284859e+01  -4.067359e+01
   9.159992e+01   1.937349e+01
   3.851557e+01   5.368151e+01
  -2.786803e+01   5.500210e+01
  -3.683910e+01   2.635495e+01
   2.414514e+01  -5.614669e+00
   5.851214e+01  -3.292307e+00
   1.822511e+01   2.494920e+01
  -7.449973e+01   5.862871e+01
  -1.057764e+02   4.819228e+01
  -5.626232e+01  -1.135252e+01
   1.295807e+01  -7.821331e+01
   3.954790e+01  -8.289906e+01
   4.543145e+01  -1.015824e+01
  -3.758960e+00   4.875126e+01
  -2.427847e+01   4.156032e+01
  -2.920659e+01  -1.424565e+01
  -2.524751e+01  -5.178098e+01
   7.839482e-01  -3.451675e+01
   2.804642e+01   6.573059e+00
   4.031358e+01   2.072166e+01
   1.971594e+01   5.001972e+00
  -3.308095e-01  -1.764168e+01
  -6.021866e+00  -4.359974e+00
   5.805338e+00   2.999234e+01
  -1.365563e-01   4.752744e+01
  -2.418764e+01   1.995265e+01
  -3.101607e+01  -2.917426e+01
  -1.086495e+01  -5.883022e+01
   3.534939e+01  -2.167605e+01
   4.298470e+01   2.964207e+01
   2.366576e+01   4.693885e+01
  -5.420917e+01   3.823532e+01
  -8.174801e+01  -8.355698e+00
  -4.399838e+01  -3.807462e+01
   2.976514e+01  -3.840393e+01
   6.009759e+01  -2.074592e+01
   2.812042e+01  -3.340267e+00
  -1.998017e+01   4.391202e+00
  -3.016110e+01  -8.356388e+00
   1.986083e+01  -1.830438e+01
   7.233491e+01  -1.037236e+01
