
 $NMID
 id='ANONYMOUS ', fmtdat='(2E16.6)'
 volume=1.0
 tramp=1.0
 $END
  -3.023225e+03   1.749143e+02
  -2.531295e+03  -1.260180e+03
  -2.216909e+02  -1.512701e+03
   1.409055e+03  -1.440697e+03
   9.069180e+02  -3.290845e+02
   2.216957e+02   2.852623e+01
  -3.671394e+02  -9.318123e+01
  -1.810054e+02  -4.797671e+02
   3.688838e+02  -6.132606e+02
   5.832024e+02  -1.989652e+02
   2.895458e+02   4.423252e+02
   7.872729e+00   5.546634e+02
  -2.405203e+02   1.137697e+02
  -2.391586e+02  -3.273442e+02
   1.567322e+02  -4.179806e+02
   3.453428e+02  -1.157776e+02
   3.137411e+02   5.177825e+02
  -6.692649e+01   6.858915e+02
  -4.282927e+02   2.373134e+02
  -3.226995e+02  -1.733703e+02
  -1.361333e+02  -3.509217e+02
   6.385072e+01  -2.259351e+02
   7.146739e+01  -5.644554e+01
  -1.681206e+02  -1.373096e+02
  -1.797001e+02  -2.638571e+02
   4.553130e+01  -3.414962e+02
   4.498504e+02  -1.476117e+02
   5.936315e+02   1.840791e+02
   2.022516e+02   3.150254e+02
  -2.212702e+02   1.751587e+02
  -3.518295e+02  -2.181545e+02
  -1.506592e+02  -3.142526e+02
   2.753091e+02  -3.397368e+02
   4.480458e+02  -5.845461e+01
   2.979417e+02   1.275530e+02
   9.905809e+00   3.083019e+02
   2.314523e+00   1.413852e+02
   2.472968e+01  -7.335485e+01
   1.770094e+02  -1.637428e+02
   1.155466e+02   1.601949e+02
  -1.882537e+01   4.948145e+02
  -1.907448e+02   3.610184e+02
  -3.130659e+02  -9.195676e+01
  -5.452789e+01  -3.004051e+02
   1.387724e+02  -5.723637e+01
   1.241682e+02   2.190077e+02
  -2.346405e+02   3.579903e+02
  -2.845917e+02  -7.021376e+01
  -3.808126e+02  -4.015504e+02
  -1.037070e+02  -4.285593e+02
   3.074168e+02  -2.184340e+02
   5.209132e+02   9.263394e+01
   2.722388e+02   2.648994e+02
  -6.648142e+01   1.756989e+02
  -2.255830e+02   3.438011e+01
  -1.705479e+02  -3.300837e+01
  -1.858016e+01   1.561436e+01
   5.306937e+01   3.277322e+01
  -8.239219e+01   8.284977e+01
  -1.786815e+02  -2.000970e+01
  -9.017137e+01  -1.708354e+02
   1.392371e+02  -1.970787e+02
   2.993084e+02  -1.250357e+02
   2.007648e+02   1.150310e+02
  -5.484949e+01   2.850888e+02
  -3.169348e+02   3.034407e+02
  -3.286892e+02   8.762359e+01
  -2.193606e+02  -1.395584e+02
  -2.589641e+01  -3.381561e+02
   4.205545e+01  -2.852903e+02
   3.667344e+01  -1.506250e+02
   5.229437e+01  -9.300049e+01
   1.574717e+02  -7.533553e+01
   2.389452e+02  -6.696456e+01
   2.493275e+02   1.281771e+02
   3.526999e+01   2.326314e+02
  -9.945505e+01   1.867393e+02
  -1.593394e+02  -2.892095e+01
  -1.230176e+02  -2.150536e+02
   3.359021e+01  -2.347747e+02
   2.222179e+02  -2.318497e+01
   2.387605e+02   2.028105e+02
   1.358502e+02   2.244633e+02
  -7.089279e+01   2.362883e+02
  -1.433949e+02   1.252863e+02
  -1.251626e+02   8.448820e+01
  -1.515082e+02   6.341536e+01
  -2.408879e+02   2.900308e+00
  -3.473582e+02  -1.134986e+02
  -3.013798e+02  -3.160832e+02
   1.116268e+02  -3.654668e+02
   3.529920e+02  -3.739798e+02
   4.568183e+02  -8.501097e+01
   2.608994e+02   8.495581e+01
   6.142373e-03   2.585803e+02
  -1.201424e+02   1.585778e+02
  -3.661225e+00   5.914896e-01
   9.455714e+01  -4.717175e+01
   1.251321e+02   3.719505e+01
  -1.811859e+01   1.441943e+02
  -1.001466e+02   8.655070e+01
  -6.862327e+01  -7.686970e+01
   6.832133e+01  -1.104110e+02
   1.493400e+02   3.022881e+01
   1.715366e+02   2.261687e+02
  -3.488018e+01   3.069412e+02
  -2.442835e+02   1.981732e+02
  -3.392979e+02  -9.262228e+01
  -2.384246e+02  -2.881804e+02
   5.158059e+00  -2.503916e+02
   1.307733e+02  -1.257530e+02
   1.339752e+02   2.076562e+01
   2.569960e+01   1.519668e+01
  -3.378960e+01  -6.309663e+01
   1.914552e+01  -9.997318e+01
   1.065763e+02  -4.501355e+01
   1.348649e+02   4.039713e+01
   2.580547e+01   4.650757e+01
  -8.180023e+01  -1.444326e+01
  -2.516044e+01  -9.768159e+01
   1.270778e+02  -7.770097e+01
   2.818637e+02   5.860066e+01
   2.583538e+02   1.653586e+02
   1.888968e+01   2.574130e+02
  -2.134355e+02   1.632199e+02
  -2.793536e+02   7.383807e+01
  -1.224927e+02  -5.275335e+01
   3.965546e+01  -6.357551e+01
   4.700958e+01   7.714171e+00
  -6.333530e+01   7.441164e+01
  -1.745877e+02   1.002101e+01
  -1.538571e+02  -9.246937e+01
  -4.868531e+01  -2.320439e+02
   8.559215e+01  -1.300034e+02
   1.147505e+02  -7.208054e+00
   3.945447e+01   3.781464e+01
  -4.338384e+01  -2.436270e+01
  -3.007359e+01  -1.099606e+02
   1.001182e+02  -1.088454e+02
   1.929973e+02   3.759692e+01
   1.348530e+02   1.617642e+02
  -1.687615e+01   1.799277e+02
  -1.404741e+02   1.285262e+02
  -1.698156e+02  -4.540282e+00
  -4.404886e+01  -9.346178e+01
   5.110122e+01  -7.676153e+01
   7.172743e+01  -8.399137e+00
  -4.828458e+00   2.805556e+01
  -3.376409e+01   1.804709e-01
   9.027948e+00  -2.503613e+01
   1.019711e+02  -7.249545e+00
   9.460090e+01   9.549866e+01
   3.822505e+00   1.624045e+02
  -1.147248e+02   1.448709e+02
  -2.430416e+02  -6.373818e+00
  -1.850892e+02  -1.331256e+02
  -3.665038e+01  -2.260494e+02
   9.271590e+01  -1.514852e+02
   1.294692e+02  -9.110932e+00
   5.710977e+01   5.021463e+01
   3.314695e+01   2.387977e+01
   5.146979e+01  -1.511360e+01
   8.139660e+01  -1.677567e+01
   4.816912e+01   5.432210e+01
  -3.495832e+01   9.775402e+01
  -1.221527e+02   5.573059e+01
  -1.139498e+02  -4.939634e+01
   1.824816e+01  -1.106564e+02
   1.552478e+02  -6.151933e+01
   2.090246e+02   5.022861e+01
   6.375115e+01   1.746421e+02
  -1.115208e+02   1.776055e+02
  -2.259087e+02   5.050828e+01
  -1.634000e+02  -6.935165e+01
  -5.538771e+01  -1.261024e+02
   3.907924e+01  -1.251690e+02
   9.205078e+01  -4.962030e+01
   7.275928e+01  -6.927024e+01
   5.889031e+01  -9.898535e+01
   8.695692e+01  -7.377074e+01
   1.316612e+02   2.602665e+01
   5.674241e+01   1.278179e+02
  -6.970883e+00   2.341434e+02
  -1.095493e+02   1.529226e+02
  -1.292098e+02   1.218776e+00
  -1.172772e+02  -1.264073e+02
   9.689837e+00  -1.272387e+02
   7.779092e+01  -5.830878e+01
   5.781836e+01   1.794657e+01
  -7.368407e+00   5.451402e+01
  -2.509306e+01   3.207552e+01
   2.270871e+01   1.399882e+01
   7.850607e+01   1.265856e+01
   5.341189e+01   4.014887e+01
  -6.264520e+01   4.425347e+01
  -1.522810e+02   2.535668e+00
  -1.648538e+02  -6.738415e+01
   8.728328e+00  -9.753644e+01
   1.346231e+02  -5.277633e+01
   1.370818e+02  -1.227404e+01
   3.787764e+01   4.939265e+01
  -4.380038e+01   3.961592e+01
  -6.793775e+01  -2.786869e+01
  -1.776653e+01  -7.150719e+01
   4.924650e+01  -6.387189e+01
   6.172501e+01  -4.142735e+00
   5.979060e+01   5.626937e+01
   4.886968e+01   4.572278e+01
   4.685000e+01   9.587797e+00
   6.087901e+01   1.010060e+01
   2.963926e+01   7.115483e+01
  -1.851300e+01   1.327351e+02
  -1.183793e+02   1.409930e+02
  -1.825238e+02   2.610503e+01
  -1.510164e+02  -8.316189e+01
   1.298196e+01  -1.214136e+02
   8.819066e+01  -6.745318e+01
   6.067170e+01   7.539941e+00
  -5.838644e+01   1.735816e+01
  -1.010553e+02  -3.863160e+01
  -7.770690e+01  -8.811678e+01
   9.360114e+01  -8.416778e+01
   1.504187e+02  -1.957440e-01
   1.475364e+02   4.334852e+01
   2.349188e+01   8.719500e+01
  -7.184019e+01   4.222136e+01
  -4.306360e+01  -4.936981e+00
   3.921523e+01  -2.315872e+01
   7.490880e+01   1.333772e+01
   4.035650e+01   1.147886e+02
  -6.959815e+01   1.547012e+02
  -1.567545e+02   7.963891e+01
  -1.284737e+02  -9.279103e+01
   9.953438e+00  -1.551242e+02
   9.268912e+01  -1.369673e+02
   9.817326e+01   9.266327e+00
   3.584893e+01   1.057690e+02
  -7.033988e+00   8.916927e+01
  -4.294415e+01   7.905124e+00
  -3.274243e+01  -3.445510e+01
  -1.149879e+01  -7.306683e+00
  -5.924299e+00   1.468267e+01
  -2.605854e+01  -1.868833e+01
  -5.835086e+01  -8.553179e+01
  -1.947955e+01  -9.409855e+01
   4.992384e+01  -3.606229e+01
   1.227007e+02   2.458724e+01
   9.922085e+01   7.205541e+01
   1.899532e+01   4.927371e+01
  -6.867444e+01   2.221112e+01
  -9.503994e+01   1.323402e+01
  -1.700982e+01  -1.326491e+01
   3.145953e+01  -2.061625e+01
   1.920004e+01  -1.384676e+01
  -1.181109e+01   5.098487e+00
   3.899400e-03   5.338013e+00
   5.837123e+01   8.690908e+00
   8.648931e+01   1.494041e+01
   3.246444e+01   8.132099e+01
  -8.752533e+01   1.033126e+02
  -1.680517e+02   6.577885e+01
  -1.542594e+02  -4.183937e+01
  -4.527103e+00  -1.415110e+02
   6.759327e+01  -1.406940e+02
   1.070782e+02  -5.701796e+01
   7.572136e+01   2.907273e+01
   1.548216e+01   3.729853e+01
   3.206615e+00   1.190015e+01
   1.409315e+01   8.023144e+00
   1.811334e+01   4.859223e+01
   1.900529e+01   9.399950e+01
  -3.372110e+01   5.761437e+01
  -6.154923e+01  -2.504005e+01
  -5.718306e+01  -1.009964e+02
  -1.511174e+01  -1.029353e+02
   7.467102e+01  -2.875305e+01
   9.636354e+01   5.398933e+01
   3.855227e+01   9.326449e+01
  -6.109459e+01   4.984568e+01
  -1.021158e+02  -6.590756e+00
  -4.447362e+01  -5.186832e+01
   3.147614e+01  -6.204763e+01
   3.978767e+01  -2.530478e+01
  -2.864231e+01   5.880900e+00
  -6.783646e+01   9.686114e+00
  -1.865952e+01  -2.184290e+01
   6.941033e+01  -4.843695e+01
   1.079384e+02  -6.346644e+01
   6.828469e+01   1.717417e+01
  -1.770855e+01   8.649716e+01
  -4.392745e+01   8.736620e+01
  -3.880572e+01   9.816836e+00
  -7.121640e+00  -4.984320e+01
   2.386242e+01  -4.793448e+01
   3.752094e+01   1.778267e+00
   2.089234e+01   4.576411e+01
  -2.156878e+00   3.872163e+01
  -2.750632e+01  -8.756810e+00
  -3.768266e+01  -2.028543e+01
  -2.204782e+01  -4.691262e+00
   5.951939e+00   1.957044e+01
   4.184959e+00   1.092975e+01
  -3.171428e+00  -2.442374e+01
  -5.121616e-01  -5.263585e+01
   2.792976e+01  -2.440234e+01
   3.312186e+01   2.672530e+01
   1.559774e+01   4.916171e+01
  -3.781655e+01   2.575917e+01
  -6.018168e+01  -2.969860e+01
  -1.580104e+01  -6.492304e+01
   4.905367e+01  -3.664539e+01
   8.205109e+01   5.637012e+00
   4.691959e+01   4.346600e+01
  -2.920464e+01   3.639411e+01
  -6.646616e+01   2.309447e+01
  -2.844926e+01   7.209818e+00
   2.493509e+01  -8.437398e+00
   2.568032e+01   5.923934e+00
  -2.204619e+01   2.556246e+01
  -6.261285e+01   2.088403e+01
