
 $NMID
 id='ANONYMOUS ', fmtdat='(2E16.6)'
 volume=1.0
 tramp=1.0
 $END
  -2.924843e+03   2.062342e+02
  -1.583885e+03  -2.156538e+03
  -2.015255e+01  -1.956681e+03
   1.293566e+03  -8.053384e+02
   7.245520e+02   4.096793e+01
  -1.580818e+02   1.696051e+02
  -3.571521e+02  -2.770800e+02
  -1.311319e+01  -3.711658e+02
   3.507764e+02  -4.469727e+02
   5.777845e+02  -1.846521e+02
   3.261616e+02   3.856015e+02
   2.134864e+01   4.650786e+02
  -2.974824e+02   5.966995e+01
  -1.048901e+02  -3.252259e+02
   1.381619e+02  -4.490131e+02
   3.145565e+02   4.249722e+01
   2.383043e+02   3.655663e+02
  -1.681612e+02   5.304548e+02
  -4.145791e+02   1.443046e+02
  -3.561359e+02  -1.483336e+02
  -7.444900e+01  -3.325143e+02
   1.526578e+02  -2.214459e+02
   7.885982e+01  -8.134180e+01
  -1.577323e+02  -7.271461e+01
  -2.745513e+02  -1.995319e+02
   6.096112e+01  -2.694434e+02
   4.575606e+02  -1.280276e+02
   6.079602e+02   2.101683e+02
   1.534827e+02   3.123781e+02
  -3.296795e+02   1.280353e+02
  -4.299806e+02  -1.828861e+02
  -1.231909e+02  -3.158690e+02
   2.832710e+02  -2.484357e+02
   4.526067e+02  -7.558524e+01
   2.787456e+02   1.651814e+02
   3.612794e+01   2.701807e+02
  -2.994324e+01   1.621632e+02
   2.815446e+00  -9.009210e+01
   1.306824e+02  -1.950718e+02
   1.544950e+02   7.383420e+01
  -4.845144e+01   3.583114e+02
  -3.007427e+02   3.517520e+02
  -2.043906e+02  -9.132926e+01
  -7.156424e+01  -2.538190e+02
   8.542497e+01  -6.483631e+01
   1.194881e+02   2.414767e+02
  -1.213253e+02   3.354832e+02
  -4.039124e+02   1.079167e+02
  -3.915890e+02  -3.494930e+02
  -8.368730e+01  -2.829551e+02
   2.578634e+02  -2.124842e+02
   4.596386e+02   8.760302e+01
   2.622273e+02   2.330841e+02
  -5.432385e+01   2.086090e+02
  -2.368245e+02  -1.124620e+01
  -1.787462e+02  -2.980202e+01
  -8.183075e+00  -1.417592e+01
   4.888267e+01   8.615601e+01
  -6.156474e+01   4.001285e+01
  -2.235211e+02  -3.881580e+01
  -7.978667e+01  -1.258016e+02
   1.351871e+02  -2.196306e+02
   3.319316e+02  -8.105680e+01
   1.774488e+02   7.713906e+01
  -1.815207e+01   2.533534e+02
  -2.927741e+02   2.324170e+02
  -3.254705e+02   1.214272e+02
  -2.230369e+02  -1.210824e+02
  -1.558792e+01  -3.068058e+02
   6.785650e+01  -2.268042e+02
   4.036271e+01  -1.335922e+02
   1.447670e+01  -8.363084e+01
   1.114263e+02  -9.503299e+01
   1.967981e+02  -5.811329e+01
   1.764662e+02   9.257584e+01
   8.786571e+01   2.333829e+02
  -8.751361e+01   1.456369e+02
  -1.104761e+02  -3.979206e+01
  -7.359105e+01  -1.835227e+02
   6.185963e+01  -1.876055e+02
   2.070605e+02  -2.012936e+01
   2.145009e+02   1.286499e+02
   1.217348e+02   2.484121e+02
  -4.995046e+01   1.992835e+02
  -1.281525e+02   9.369366e+01
  -1.477056e+02   5.468979e+01
  -1.242933e+02   4.053511e+01
  -2.284789e+02  -2.758709e+01
  -2.777306e+02  -1.186096e+02
  -2.058611e+02  -2.924393e+02
   6.623519e+01  -3.553782e+02
   2.808543e+02  -2.983575e+02
   4.581904e+02  -1.017781e+02
   1.990378e+02   1.300023e+02
   1.725039e+01   2.116862e+02
  -9.012366e+01   1.129731e+02
  -8.998067e+00   2.867144e+01
   9.419657e+01  -3.137057e+01
   1.241855e+02   5.685350e+01
  -2.492888e+01   1.035315e+02
  -1.198586e+02   7.299430e+01
  -7.827125e+01  -6.342360e+01
   4.409094e+01  -1.040771e+02
   1.148659e+02   3.146513e+01
   1.051335e+02   2.045398e+02
  -2.974900e+01   2.879152e+02
  -1.835382e+02   1.406711e+02
  -2.913917e+02  -9.239397e+01
  -1.754333e+02  -2.134692e+02
   1.286415e+00  -2.198257e+02
   1.087286e+02  -8.363587e+01
   1.237947e+02   1.363233e+01
   2.769397e+01   1.097435e+01
  -3.011042e+01  -5.391518e+01
   3.133200e+01  -7.410416e+01
   1.106795e+02  -3.526152e+01
   1.143711e+02   3.228805e+01
   2.107839e+01   5.724608e+01
  -6.394788e+01  -1.207758e+01
  -3.243899e+01  -6.977406e+01
   1.130651e+02  -6.096763e+01
   2.276902e+02   1.444028e+01
   2.073360e+02   1.623532e+02
   1.688292e+01   2.083206e+02
  -1.567675e+02   1.725769e+02
  -1.979618e+02   4.736111e+01
  -9.427779e+01  -3.665993e+01
   2.826850e+01  -6.842133e+01
   6.375491e+01   9.562577e+00
  -6.465194e+01   6.312000e+01
  -1.669151e+02  -7.859716e+00
  -1.169425e+02  -9.532452e+01
  -2.623630e+01  -1.514601e+02
   6.780441e+01  -1.029020e+02
   1.007546e+02  -3.317223e+00
   2.923835e+01   3.945474e+01
  -3.327532e+01  -1.798016e+01
  -1.231173e+01  -8.962683e+01
   1.072655e+02  -8.550823e+01
   1.865246e+02   3.682759e+00
   1.210336e+02   1.338634e+02
  -7.002383e+00   1.579574e+02
  -1.479700e+02   1.187235e+02
  -1.289064e+02  -1.943024e+01
  -3.739779e+01  -6.815206e+01
   6.581422e+01  -6.007373e+01
   6.049658e+01  -9.931389e+00
  -1.052804e+00   2.324570e+01
  -3.092123e+01   6.287933e+00
   5.063162e+00  -2.249611e+01
   7.064288e+01   4.240445e+00
   7.608054e+01   7.785808e+01
   4.852271e+00   1.595588e+02
  -1.308867e+02   1.212397e+02
  -1.952085e+02  -7.737142e+00
  -1.556812e+02  -1.551223e+02
  -2.945400e+01  -1.813123e+02
   8.309898e+01  -9.650328e+01
   1.162026e+02  -1.047856e+01
   4.636955e+01   4.319214e+01
   2.124896e+01   2.600675e+01
   4.735926e+01  -1.003088e+01
   7.468125e+01   6.557672e+00
   4.312849e+01   5.539976e+01
  -4.440072e+01   8.697303e+01
  -1.053983e+02   5.253394e+01
  -9.588632e+01  -5.258267e+01
   3.283113e+00  -1.098444e+02
   1.304092e+02  -9.387784e+01
   1.664904e+02   8.259315e+01
   1.520876e+01   2.088632e+02
  -1.225713e+02   1.707331e+02
  -2.378628e+02   1.828625e+01
  -1.952812e+02  -6.919966e+01
  -7.875004e+01  -1.474255e+02
   6.842691e+01  -9.995434e+01
   7.017832e+01  -4.989368e+01
   6.163706e+01  -5.287922e+01
   5.547538e+01  -5.924117e+01
   7.752782e+01  -4.846570e+01
   9.919692e+01   4.202442e+01
   8.662768e+01   1.508915e+02
   6.611668e+00   1.995583e+02
  -7.000513e+01   1.261928e+02
  -1.385942e+02   2.451429e+00
  -8.927670e+01  -1.133079e+02
  -6.097645e+00  -1.446345e+02
   6.269273e+01  -6.133683e+01
   4.816598e+01   8.947337e+00
  -6.763792e+00   4.766733e+01
  -2.695189e+01   2.559457e+01
   2.027496e+01   1.447821e+01
   6.933234e+01   1.294104e+01
   4.562316e+01   3.962607e+01
  -6.555344e+01   2.509968e+01
  -1.344777e+02  -2.219852e+01
  -1.301884e+02  -5.373979e+01
   3.386743e+01  -7.526228e+01
   1.223988e+02  -6.272755e+01
   1.345486e+02   1.681261e+01
   3.594007e+01   5.138315e+01
  -4.864397e+01   2.602184e+01
  -5.692611e+01  -2.589901e+01
  -2.569157e+00  -6.329785e+01
   3.969713e+01  -4.332445e+01
   5.607684e+01   3.455025e+00
   4.438544e+01   4.186828e+01
   4.156458e+01   3.379824e+01
   3.982029e+01   9.612675e+00
   4.968924e+01   7.483414e+00
   2.921219e+01   5.972956e+01
  -3.579056e+01   1.393369e+02
  -1.213124e+02   1.010354e+02
  -1.466028e+02   1.926874e+01
  -8.352191e+01  -8.605273e+01
   2.034302e+01  -1.176288e+02
   8.265459e+01  -5.457486e+01
   5.187547e+01   2.377528e+01
  -5.101500e+01   8.381498e+00
  -1.240111e+02  -2.327899e+01
  -5.359555e+01  -8.790684e+01
   9.727397e+01  -7.467092e+01
   1.652267e+02  -2.640817e+01
   1.197988e+02   5.017158e+01
   1.570598e+01   7.063676e+01
  -6.071775e+01   4.715773e+01
  -3.550703e+01  -1.652873e+01
   3.017957e+01  -1.669368e+01
   6.729498e+01   3.025071e+01
   3.298838e+01   9.617982e+01
  -7.820462e+01   1.255445e+02
  -1.466046e+02   3.272213e+01
  -8.206400e+01  -7.099502e+01
   2.246409e+00  -1.659855e+02
   8.256339e+01  -1.021422e+02
   8.917936e+01   1.556244e+01
   2.176418e+01   1.107820e+02
  -2.589277e+01   8.952983e+01
  -4.590383e+01   1.704331e+01
  -3.723107e+01  -2.942790e+01
  -1.252325e+01  -1.021535e+01
  -5.487509e+00   1.292989e+01
  -2.341668e+01  -1.882446e+01
  -4.975296e+01  -8.595788e+01
  -2.562811e+01  -8.729107e+01
   5.262441e+01  -3.135844e+01
   1.104489e+02   3.242918e+01
   8.868058e+01   6.465295e+01
   1.858510e+01   4.729388e+01
  -6.918417e+01   3.420999e+00
  -7.920290e+01   2.007412e+00
  -1.401935e+01  -8.834864e+00
   3.756861e+01  -1.541067e+01
   1.524476e+01  -9.278038e+00
  -1.268538e+01  -1.239522e+00
   3.393615e-01   5.161038e+00
   5.374679e+01   6.253244e+00
   6.443681e+01   2.182918e+01
   1.676732e+01   6.676437e+01
  -8.371161e+01   1.014514e+02
  -1.438281e+02   5.349991e+01
  -1.399816e+02  -5.684909e+01
  -6.436402e+00  -1.459736e+02
   8.111964e+01  -1.195417e+02
   1.036663e+02  -4.099558e+01
   6.362800e+01   2.021497e+01
   1.834209e+01   2.836191e+01
   2.684258e+00   1.030112e+01
   1.261034e+01   8.437405e+00
   1.933645e+01   4.351886e+01
   4.399623e+00   7.237016e+01
  -3.581408e+01   5.442703e+01
  -6.499581e+01  -2.016437e+01
  -5.578030e+01  -9.191700e+01
  -1.631439e+01  -1.021806e+02
   6.034292e+01  -3.447188e+01
   5.713284e+01   5.456887e+01
   2.266182e+01   7.570964e+01
  -5.555391e+01   4.230882e+01
  -8.591990e+01  -1.719825e+01
  -3.700222e+01  -4.786635e+01
   2.815194e+01  -5.218630e+01
   3.697829e+01  -1.996078e+01
  -1.972126e+01   5.075197e+00
  -5.450761e+01   1.015156e+00
  -1.813892e+01  -2.364377e+01
   6.589324e+01  -4.672364e+01
   1.071929e+02  -3.900705e+01
   5.397694e+01   1.869226e+01
  -2.204178e+01   6.958845e+01
  -4.604563e+01   6.046628e+01
  -4.256996e+01   8.375809e+00
   2.394562e+00  -4.510549e+01
   2.430233e+01  -3.425194e+01
   3.001903e+01   1.195759e+01
   2.562414e+01   5.001643e+01
  -3.060861e+00   2.981587e+01
  -2.834808e+01  -6.978327e+00
  -2.834402e+01  -1.680957e+01
  -1.701956e+01  -3.681791e+00
   3.119542e-01   1.584719e+01
   5.337425e+00   5.407784e+00
   5.588047e-01  -2.712818e+01
   1.341699e+00  -4.388229e+01
   2.776971e+01  -1.630880e+01
   3.399041e+01   2.539059e+01
   1.193318e+01   5.867622e+01
  -3.302999e+01   2.055669e+01
  -4.586876e+01  -3.000786e+01
  -1.229154e+01  -5.118241e+01
   5.587930e+01  -2.840844e+01
   7.550664e+01   1.319356e+01
   4.156986e+01   4.077622e+01
  -2.873931e+01   3.394281e+01
  -5.748109e+01   1.717123e+01
  -2.527689e+01   3.247743e+00
   2.186406e+01  -3.094547e+00
   3.013306e+01   5.527794e+00
  -1.825063e+01   1.995813e+01
  -7.077947e+01   1.192368e+01
