
 $NMID
 id='ANONYMOUS ', fmtdat='(2E16.6)'
 volume=1.0
 tramp=1.0
 $END
   2.387358e+03   4.355702e+02
   1.354561e+03   9.433291e+02
   8.208646e+01   1.584907e+03
  -1.004333e+03   1.202798e+03
  -9.944443e+02   3.847537e+02
  -3.024273e+02  -5.285352e+01
   8.715885e+01   9.455891e+01
   1.737208e+02   2.283763e+02
  -1.234419e+02   4.589381e+02
  -4.810387e+02   2.677227e-01
  -3.613228e+02  -2.039766e+02
  -5.594771e+01  -3.650928e+02
   1.087028e+02  -1.237178e+02
   1.831966e+02   2.533733e+02
  -6.451840e+00   4.186506e+02
  -2.796511e+02   1.404031e+01
  -1.402965e+02  -3.527638e+02
   1.513582e+02  -4.547221e+02
   3.298688e+02  -2.748715e+02
   3.431812e+02   3.846509e+01
   1.138063e+02   2.343620e+02
  -1.246775e+02   2.280843e+02
  -2.991171e+01   6.445020e+01
   1.788268e+02   1.222722e+02
   2.098943e+02   2.663730e+02
  -1.084806e+01   2.086323e+02
  -4.321659e+02   1.144088e+02
  -5.145218e+02  -9.382837e+01
  -2.056578e+02  -3.077802e+02
   2.409880e+02  -3.204103e+01
   2.696983e+02   5.971691e-01
   1.349626e+02   2.903008e+02
  -1.677902e+02   2.460058e+02
  -3.206925e+02   1.503495e+02
  -2.094596e+02  -1.296158e+02
  -8.267244e+01  -2.398625e+02
  -5.765039e+01  -8.172642e+01
  -5.735363e+01   3.952150e+01
  -2.062039e+02   8.196429e+01
  -1.311688e+02  -1.291730e+02
   6.594348e+01  -3.811737e+02
   2.643982e+02  -3.382983e+02
   1.293356e+02  -9.878411e+01
   1.500038e+02   1.525018e+02
  -6.929696e+01   3.735469e+01
  -1.057288e+02  -2.368990e+02
   4.042805e+01  -2.065713e+02
   2.074736e+02  -1.297365e+01
   3.541302e+02   2.418589e+02
   1.092697e+02   3.752310e+02
  -1.807743e+02   1.592867e+02
  -3.734656e+02  -7.579445e+01
  -2.357285e+02  -1.476721e+02
  -9.893455e+00  -1.212707e+02
   1.690066e+02  -3.655645e+01
   1.570893e+02  -4.512672e+01
   2.823512e+01  -5.437945e+00
  -1.916221e+00  -3.258012e+01
   6.245520e+01  -6.782299e+00
   1.606034e+02   7.087993e+01
   1.233214e+02   1.393985e+02
  -8.430981e+01   2.280306e+02
  -2.757416e+02   1.275696e+02
  -2.005595e+02  -4.102511e+01
  -7.222419e+00  -2.797295e+02
   2.618996e+02  -3.265681e+02
   2.660844e+02  -1.026293e+02
   2.090315e+02   1.380606e+02
   5.403189e+00   2.933024e+02
   4.316345e+00   2.760024e+02
  -2.584684e+01   1.218506e+02
  -2.893671e+01   1.165533e+02
  -1.328868e+02   8.377550e+01
  -2.070770e+02   4.977877e+01
  -2.439615e+02  -1.105272e+02
  -2.791491e+01  -1.839326e+02
   9.077079e+01  -1.786983e+02
   1.401213e+02   6.357288e+01
   1.071180e+02   2.349939e+02
  -2.886427e+01   1.615858e+02
  -1.583579e+02   5.966751e+01
  -2.066111e+02  -1.044386e+02
  -1.365116e+02  -2.112470e+02
   9.293340e-01  -2.326948e+02
   9.964039e+01  -1.405624e+02
   9.550397e+01  -9.480023e+01
   1.301976e+02  -6.053302e+01
   2.392155e+02  -2.222383e+01
   3.041518e+02   5.610748e+01
   1.954951e+02   2.203376e+02
  -1.658028e+01   3.126369e+02
  -3.319098e+02   3.421827e+02
  -2.920756e+02   1.644748e+02
  -2.058258e+02  -8.637956e+01
   1.953159e+01  -2.100724e+02
   8.120006e+01  -1.056505e+02
  -1.688257e+01  -3.806562e+01
  -1.205162e+02   3.388424e+01
  -9.253478e+01  -4.222019e+01
  -7.346871e+00  -9.032995e+01
   6.088013e+01  -5.220994e+01
   2.345267e+01   2.750574e+01
  -1.104289e+01   6.968925e+01
  -1.014560e+02   6.574915e+00
  -9.643607e+01  -1.953561e+02
   2.837393e+01  -2.589119e+02
   1.912238e+02  -1.305371e+02
   2.367559e+02   5.268473e+01
   2.374229e+02   2.062117e+02
   3.106387e+01   2.266027e+02
  -9.638102e+01   9.097138e+01
  -7.891745e+01  -3.107108e+00
  -1.934059e+01  -1.406564e+01
   3.831731e+01   4.568597e+01
  -3.043119e+01   9.565157e+01
  -8.500823e+01   4.338395e+01
  -9.580572e+01  -4.976755e+01
  -3.342371e+01  -3.776291e+01
   7.153432e+01   1.928774e+01
   3.063186e+01   6.926275e+01
  -1.145730e+02   7.247763e+01
  -2.256714e+02   2.353519e+01
  -1.905316e+02  -1.402975e+02
  -1.785410e+01  -2.583655e+02
   1.342231e+02  -1.876397e+02
   2.673782e+02  -9.594435e+01
   1.131860e+02   3.415019e+01
  -2.425234e+01   7.034188e+01
  -4.830531e+01  -9.045760e+00
   3.764007e+01  -4.261677e+01
   1.193547e+02  -2.817218e+01
   1.436878e+02   9.591072e+01
   4.054481e+01   1.623163e+02
  -8.745562e+01   1.032850e+02
  -1.089129e+02   1.717158e+01
  -2.509452e+01  -1.796496e+01
   4.564901e+01   2.208020e+01
   2.122650e+01   7.565178e+01
  -6.632707e+01   9.693462e+01
  -1.759671e+02   1.256605e+01
  -1.459862e+02  -8.586446e+01
   7.628922e+00  -1.621958e+02
   1.307355e+02  -1.026297e+02
   1.303043e+02  -2.321235e+01
   3.063468e+01   7.328519e+01
  -5.420149e+01   7.708964e+01
  -4.250954e+01   1.156933e+01
   5.632426e+00  -1.700660e+01
   3.687365e+01  -5.400020e+00
  -6.628412e+00   2.418707e+01
  -7.885125e+01   5.999483e+00
  -9.702361e+01  -6.649809e+01
  -7.623489e+00  -1.626278e+02
   9.248263e+01  -1.429076e+02
   1.776587e+02  -2.421138e+01
   1.749789e+02   1.384237e+02
   3.486723e+01   2.112341e+02
  -7.394904e+01   9.346593e+01
  -8.247488e+01   1.282862e+01
  -5.856804e+01  -2.297762e+01
  -2.697979e+01  -1.161488e+01
  -4.883209e+01   1.450879e+01
  -7.936309e+01   1.370860e+01
  -5.008345e+01  -4.762814e+01
   1.938402e+01  -8.793681e+01
   9.626839e+01  -4.890411e+01
   8.908129e+01   4.374256e+01
  -1.579415e+01   1.070239e+02
  -1.203793e+02   8.582945e+01
  -1.835781e+02  -5.064053e+01
  -6.409714e+01  -1.745622e+02
   1.019777e+02  -1.554988e+02
   1.903706e+02  -7.102172e+01
   2.061107e+02   7.808426e+01
   6.667090e+01   1.131174e+02
  -3.716662e+01   1.102196e+02
  -6.061934e+01   6.672572e+01
  -3.188019e+01   3.328643e+01
  -3.692723e+01   8.017060e+01
  -7.116129e+01   6.733248e+01
  -9.608487e+01  -2.186030e+01
  -1.045244e+02  -7.952560e+01
  -1.143225e+01  -1.559749e+02
   6.285406e+01  -1.163181e+02
   1.236453e+02  -6.151663e+00
   1.147553e+02   9.248136e+01
   1.334994e+01   1.165598e+02
  -6.330049e+01   5.180652e+01
  -4.016052e+01  -1.121954e+01
  -5.822850e-01  -4.386057e+01
   2.270386e+01  -2.604200e+01
  -1.280386e+01  -1.492747e+00
  -6.529700e+01  -1.094694e+01
  -4.994106e+01  -3.865776e+01
   5.868231e+01  -2.660410e+01
   1.573285e+02   2.884379e+00
   1.132131e+02   7.893149e+01
  -1.697003e+01   7.804335e+01
  -1.071428e+02   4.802330e+01
  -1.188632e+02   1.110463e+01
  -3.602861e+01  -4.068990e+01
   4.289296e+01  -3.837330e+01
   6.221997e+01   7.414871e+00
   2.172406e+01   5.576835e+01
  -2.908113e+01   4.703574e+01
  -5.629181e+01   1.261149e+01
  -5.535981e+01  -3.953294e+01
  -4.579587e+01  -3.909990e+01
  -3.845826e+01  -1.131198e+00
  -4.444836e+01  -6.056649e-01
  -3.847097e+01  -6.481997e+01
   1.977317e+01  -1.315665e+02
   1.000902e+02  -1.272967e+02
   1.582921e+02  -3.819445e+01
   1.125006e+02   8.375872e+01
  -3.222649e+00   7.648752e+01
  -6.393733e+01   4.712439e+01
  -5.206590e+01  -9.138425e+00
   4.621898e+01  -1.596245e+01
   9.963990e+01   2.572177e+01
   6.512652e+01   9.555649e+01
  -6.878525e+01   8.490550e+01
  -1.174930e+02   3.492141e+01
  -1.090366e+02  -1.523093e+01
  -2.887589e+01  -6.594229e+01
   4.276667e+01  -5.071454e+01
   3.956281e+01   5.000693e+00
  -2.372431e+01   2.518637e+01
  -7.009792e+01  -1.910157e+01
  -1.896627e+01  -9.863560e+01
   6.815749e+01  -1.398704e+02
   1.285478e+02  -4.725627e+01
   1.231694e+02   7.060465e+01
   1.243953e+01   1.357771e+02
  -7.407751e+01   1.261341e+02
  -9.455027e+01  -1.808363e+01
  -4.294281e+01  -8.210822e+01
   1.069653e+01  -8.882372e+01
   3.825852e+01  -6.784325e+00
   2.454978e+01   2.529554e+01
   1.050531e+01   6.339002e+00
   5.690697e+00  -1.574549e+01
   2.755804e+01   1.909646e+01
   5.105401e+01   8.261429e+01
   2.863968e+01   7.272508e+01
  -5.020725e+01   3.447698e+01
  -1.113685e+02  -3.195960e+01
  -8.581653e+01  -4.235071e+01
  -1.628297e+01  -4.835473e+01
   6.323325e+01  -2.329763e+01
   8.042011e+01  -2.832366e+00
   1.602863e+01   9.388396e+00
  -2.774534e+01   1.476340e+01
  -1.587483e+01   7.806982e+00
   4.588454e+00  -3.618568e+00
  -2.200060e+00  -1.164520e+00
  -5.318938e+01   1.528308e+00
  -8.249476e+01  -1.565415e+01
  -1.876891e+01  -7.231561e+01
   6.543453e+01  -7.208808e+01
   1.800736e+02  -5.490384e+01
   1.193584e+02   5.661024e+01
   2.523653e+01   7.910670e+01
  -5.554415e+01   1.250943e+02
  -1.033243e+02   6.655649e+01
  -5.924258e+01  -8.706261e+00
  -2.162938e+01  -2.784531e+01
  -4.192648e+00  -1.086907e+01
  -1.104061e+01  -5.270954e+00
  -2.141938e+01  -3.598331e+01
  -1.742374e+01  -6.863371e+01
   1.613151e+01  -5.141753e+01
   6.335951e+01   1.240839e+01
   5.589118e+01   5.580797e+01
   2.713220e+01   9.353249e+01
  -5.020263e+01   2.457771e+01
  -9.037018e+01  -4.493043e+01
  -3.475080e+01  -6.869258e+01
   4.702381e+01  -5.111338e+01
   8.917017e+01   1.966292e+00
   4.828778e+01   5.640651e+01
  -2.995028e+01   4.974830e+01
  -2.777798e+01   1.676101e+01
   2.279321e+01  -7.897048e+00
   5.326289e+01  -8.436070e+00
   1.319644e+01   2.150368e+01
  -4.158836e+01   5.833227e+01
  -9.442322e+01   3.887197e+01
  -6.051327e+01  -5.952219e+00
   1.784556e+00  -7.237872e+01
   3.558777e+01  -6.939384e+01
   3.929041e+01  -1.101742e+01
   4.492718e+00   4.224376e+01
  -1.925064e+01   3.843815e+01
  -3.352304e+01  -7.934137e+00
  -1.759744e+01  -4.506293e+01
   5.062769e-01  -4.073709e+01
   2.484454e+01   1.863135e+00
   3.632865e+01   2.133864e+01
   1.767733e+01   3.907885e+00
  -5.262681e+00  -1.870365e+01
  -5.056275e+00  -9.655652e+00
   9.463737e+00   2.143437e+01
   4.888571e+00   3.973584e+01
  -1.901426e+01   2.024598e+01
  -2.948742e+01  -2.065792e+01
  -1.485608e+01  -4.037388e+01
   3.061080e+01  -2.808136e+01
   5.258809e+01   2.160412e+01
   1.568783e+01   4.503264e+01
  -4.602395e+01   2.684777e+01
  -8.321210e+01  -7.801034e-01
  -4.338736e+01  -3.249419e+01
   2.148581e+01  -3.560424e+01
   4.870507e+01  -2.209062e+01
   2.507619e+01  -7.235220e+00
  -1.830890e+01   5.786831e+00
  -1.860778e+01  -2.093884e+00
   1.832450e+01  -2.354072e+01
   5.811728e+01  -1.708858e+01
