
 $NMID
 id='ANONYMOUS ', fmtdat='(2E16.6)'
 volume=1.0
 tramp=1.0
 $END
   2.740646e+03  -1.675148e+02
   1.739677e+03   7.331570e+02
   1.384717e+02   9.882118e+02
  -3.643477e+02   9.250033e+02
  -6.305306e+02   1.503925e+02
  -5.387769e+01  -9.982459e+01
   3.714228e+02   3.449110e+01
   1.065039e+01   2.529775e+02
  -3.015104e+02   5.598150e+02
  -5.343744e+02   9.663594e+01
  -3.414542e+02  -2.807943e+02
  -6.647448e+00  -4.696339e+02
   1.473996e+02  -1.794120e+02
   1.826320e+02   2.548672e+02
  -5.317549e+01   5.110543e+02
  -2.172068e+02   1.143204e+02
  -1.971390e+02  -3.076266e+02
   6.088256e+01  -4.594070e+02
   3.834788e+02  -1.522392e+02
   3.961959e+02   5.619748e+01
   1.050776e+02   2.655176e+02
  -1.012134e+02   1.839657e+02
  -7.124282e+01   6.016874e+01
   1.190890e+02   7.860297e+01
   1.977568e+02   2.074206e+02
  -1.744126e+01   2.664240e+02
  -3.855346e+02   1.644696e+02
  -5.312557e+02  -2.037845e+01
  -1.405274e+02  -2.624281e+02
   2.259928e+02  -6.333903e+01
   3.145403e+02   5.138235e+01
   1.853430e+02   2.513950e+02
  -2.341217e+02   2.519585e+02
  -2.855282e+02   1.014446e+02
  -2.580158e+02  -1.408496e+02
  -4.534458e+01  -1.887760e+02
   2.759033e+01  -8.861099e+01
  -4.680485e+01   1.215365e+02
  -1.232804e+02   1.275607e+02
  -1.542355e+02  -1.282044e+02
  -3.211161e+01  -2.840377e+02
   1.551026e+02  -3.123330e+02
   1.406642e+02  -3.250485e+01
   6.310954e+01   2.384379e+02
  -9.951125e+01   1.164222e+02
  -8.391806e+01  -1.324578e+02
   2.700759e+00  -2.881075e+02
   2.541447e+02  -8.910165e+01
   3.583356e+02   2.398196e+02
   1.216621e+02   3.264483e+02
  -2.175774e+02   2.558914e+02
  -3.408000e+02  -1.330766e+01
  -2.931100e+02  -1.470732e+02
   3.472008e+01  -1.372856e+02
   2.099789e+02  -5.268974e+01
   1.925708e+02  -2.476594e+01
   3.589255e+01   1.724991e+01
  -2.875385e+01  -1.664513e+01
   7.709062e+01  -4.882187e+01
   2.028723e+02   9.865631e+00
   8.729138e+01   1.084404e+02
  -1.526738e+02   1.650131e+02
  -2.854930e+02   7.262641e+01
  -1.935487e+02  -6.402610e+01
  -2.881260e+00  -2.289856e+02
   1.815894e+02  -2.063838e+02
   2.530772e+02  -1.154995e+02
   1.686607e+02   8.166044e+01
   5.372741e+01   2.298007e+02
  -2.297386e+00   2.132206e+02
   1.573412e+01   1.073859e+02
  -6.140861e+00   7.313877e+01
  -6.833487e+01   1.106629e+02
  -1.722290e+02   6.573542e+01
  -1.939055e+02  -9.497018e+01
  -9.472948e+01  -1.099165e+02
   3.915758e+01  -1.397954e+02
   1.206214e+02   3.733813e+01
   1.120219e+02   1.810264e+02
  -5.126182e+01   1.156665e+02
  -1.700058e+02   4.126384e+01
  -1.688513e+02  -7.373961e+01
  -5.374035e+01  -2.196771e+02
   4.231464e+01  -2.086839e+02
   1.392044e+02  -9.887942e+01
   1.041830e+02  -6.856564e+01
   9.718432e+01  -4.413066e+01
   1.806478e+02  -3.316154e+01
   3.430902e+02   6.369725e+01
   2.016082e+02   1.837912e+02
  -3.127335e+01   2.782640e+02
  -2.726979e+02   2.324863e+02
  -3.499595e+02   1.142343e+02
  -1.657599e+02  -2.309046e+01
  -3.815331e+01  -1.832869e+02
   3.444988e+01  -1.445478e+02
   8.757925e+00  -2.501188e+01
  -8.342097e+01   2.642548e+01
  -1.033935e+02  -2.772304e+01
  -3.189983e+01  -9.127732e+01
   1.066006e+02  -5.690101e+01
   6.872124e+01   2.551065e+01
  -1.683624e+01   7.636398e+01
  -1.163970e+02  -1.722855e+00
  -1.082423e+02  -1.584158e+02
  -3.369089e+01  -2.471978e+02
   1.432911e+02  -1.354046e+02
   2.048115e+02   8.827302e+00
   1.896580e+02   1.776177e+02
   4.814092e+01   1.951598e+02
  -5.980613e+01   8.977486e+01
  -9.436675e+01  -9.721675e+00
  -3.038625e+01   2.277486e+00
   4.299837e+01   3.762448e+01
  -5.576459e+00   6.939019e+01
  -8.466231e+01   2.957364e+01
  -1.028804e+02  -1.325050e+01
  -1.357729e+01  -4.478056e+01
   4.181575e+01   3.790841e+00
   2.861449e+01   5.657443e+01
  -1.153068e+02   6.058418e+01
  -2.097862e+02  -3.020930e+00
  -2.022525e+02  -1.247161e+02
  -1.199616e+01  -1.829531e+02
   1.255805e+02  -2.087684e+02
   1.392701e+02  -7.086437e+01
   9.870225e+01   1.851243e+01
  -7.613729e+00   3.711266e+01
  -4.749876e+01  -1.212519e+00
   2.723839e+01  -4.448378e+01
   1.157280e+02  -7.912850e+00
   1.220107e+02   8.998966e+01
   4.188754e+01   1.265700e+02
  -6.412722e+01   1.055815e+02
  -7.942205e+01   3.242854e+00
  -1.792310e+01  -2.792293e+01
   3.462202e+01   1.730251e+01
   2.213542e+01   7.656644e+01
  -7.060224e+01   7.017217e+01
  -1.610978e+02   4.501780e+01
  -1.227489e+02  -6.873204e+01
   1.803834e+00  -1.593900e+02
   1.105969e+02  -1.180803e+02
   1.282765e+02   2.308825e+00
   4.068533e+01   6.944991e+01
  -3.987176e+01   6.838325e+01
  -3.329415e+01   2.772706e+01
   2.898633e+00  -1.849917e+01
   2.904237e+01  -4.050554e+00
  -7.683222e+00   2.026221e+01
  -5.681281e+01   2.088854e+00
  -8.766235e+01  -5.623337e+01
   5.420373e+00  -1.368328e+02
   9.643376e+01  -1.055315e+02
   1.709837e+02  -1.491686e+01
   1.391320e+02   1.153098e+02
   1.795084e+01   1.771985e+02
  -4.234344e+01   8.296703e+01
  -9.195448e+01   1.189734e+01
  -3.884291e+01  -2.501522e+01
  -1.530508e+01  -1.344825e+01
  -3.897481e+01   1.194992e+01
  -6.463416e+01   3.540969e+00
  -4.240968e+01  -3.819711e+01
   2.639860e+01  -7.713638e+01
   7.017340e+01  -5.037273e+01
   7.493120e+01   2.821398e+01
  -7.698938e+00   9.227984e+01
  -1.118209e+02   7.697283e+01
  -1.433519e+02  -5.866794e+01
  -6.814576e+01  -1.220198e+02
   7.866824e+01  -1.885452e+02
   1.420261e+02  -5.289043e+01
   1.663396e+02   3.379810e+01
   9.286200e+01   1.298283e+02
  -2.456776e+01   8.516895e+01
  -6.277186e+01   6.019360e+01
  -4.727378e+01   5.786662e+01
  -4.393328e+01   7.007539e+01
  -6.087970e+01   6.859228e+01
  -9.454830e+01  -7.029403e+00
  -9.708951e+01  -1.096813e+02
  -2.281757e+01  -1.736339e+02
   7.871243e+01  -1.354392e+02
   1.102466e+02  -1.795086e+01
   9.406462e+01   1.044414e+02
   1.394285e+01   1.306218e+02
  -5.345017e+01   4.508332e+01
  -5.114323e+01  -7.397318e+00
   3.287597e+00  -3.292834e+01
   1.865360e+01  -2.040994e+01
  -2.056639e+01  -7.759398e+00
  -6.636334e+01  -1.379417e+01
  -3.517105e+01  -2.793665e+01
   4.804967e+01  -2.817028e+01
   1.297144e+02   4.928128e+00
   1.103446e+02   5.088425e+01
  -1.367295e+01   6.382197e+01
  -1.019701e+02   6.289339e+01
  -9.100501e+01   2.712065e+00
  -3.315687e+01  -4.010730e+01
   4.297560e+01  -2.724092e+01
   6.018597e+01   6.973374e+00
   1.526100e+01   4.777492e+01
  -2.953249e+01   5.385474e+01
  -4.911030e+01   1.076320e+01
  -3.245292e+01  -3.774459e+01
  -4.183229e+01  -3.287398e+01
  -3.791621e+01   5.564893e+00
  -4.374117e+01   5.881870e+00
  -2.782310e+01  -5.047354e+01
   1.514888e+01  -1.201190e+02
   4.811098e+01  -1.062831e+02
   1.510262e+02  -1.229370e+01
   7.552267e+01   6.184006e+01
  -8.311932e+00   9.724098e+01
  -4.894971e+01   4.356708e+01
  -4.130104e+01  -1.403855e+01
   3.533260e+01  -1.786858e+01
   1.030105e+02   2.487621e+01
   4.500073e+01   7.453590e+01
  -6.387438e+01   8.532317e+01
  -1.320589e+02   4.285516e+01
  -9.195685e+01  -4.896700e+00
  -2.542544e+01  -5.547977e+01
   4.946573e+01  -4.051932e+01
   3.160107e+01  -3.623458e+00
  -2.406680e+01   2.354944e+01
  -6.479803e+01  -1.386045e+01
  -2.805060e+01  -7.883687e+01
   5.272242e+01  -1.087112e+02
   9.038321e+01  -5.717780e+01
   9.355827e+01   4.790169e+01
   1.205024e+01   1.419237e+02
  -4.971454e+01   9.241931e+01
  -8.735191e+01   4.548165e+00
  -2.122994e+01  -7.585012e+01
   1.141267e+01  -8.354843e+01
   4.153556e+01  -6.533996e+00
   2.424250e+01   2.145894e+01
   9.656548e+00   2.899495e+00
   5.072270e+00  -1.178064e+01
   2.038312e+01   1.583466e+01
   3.479372e+01   5.100256e+01
   1.399410e+01   6.574149e+01
  -4.644033e+01   2.954921e+01
  -1.023499e+02  -3.523615e+01
  -7.643559e+01  -4.506669e+01
  -1.172486e+01  -2.947744e+01
   5.875599e+01  -1.445688e+01
   5.924404e+01  -5.847982e+00
   1.152900e+01   7.998626e+00
  -2.317668e+01   1.636941e+01
  -1.182473e+01   7.868625e+00
   7.476126e+00  -4.653039e+00
  -2.376281e+00  -3.510728e+00
  -4.027538e+01   9.403477e-01
  -6.981578e+01  -1.544279e+01
  -2.312764e+01  -5.809817e+01
   5.618898e+01  -8.330421e+01
   1.376206e+02  -3.491928e+01
   9.100292e+01   3.753542e+01
   3.398418e+01   1.103543e+02
  -2.959441e+01   9.808435e+01
  -7.822605e+01   5.868121e+01
  -4.767193e+01  -8.099756e+00
  -2.103372e+01  -2.811724e+01
  -2.840865e+00  -1.050820e+01
  -8.753559e+00  -6.947390e+00
  -2.890083e+01  -3.263412e+01
  -1.648057e+01  -6.872562e+01
   1.397099e+01  -5.040789e+01
   4.768174e+01   2.607867e+00
   4.469444e+01   5.583369e+01
   5.485978e+00   7.188619e+01
  -5.850087e+01   2.129842e+01
  -6.856428e+01  -4.101183e+01
  -3.622751e+01  -5.737725e+01
   4.402660e+01  -5.514958e+01
   6.825491e+01   3.011313e+00
   3.653471e+01   5.206831e+01
  -1.802891e+01   4.397563e+01
  -2.850658e+01   2.427806e+01
   1.973249e+01  -2.970048e+00
   4.652071e+01  -7.481329e+00
   1.409588e+01   2.161412e+01
  -4.794129e+01   4.923685e+01
  -7.124059e+01   4.356532e+01
  -4.347275e+01  -6.107727e+00
   1.279150e+01  -6.214693e+01
   3.748736e+01  -6.426825e+01
   3.248941e+01  -7.017659e+00
   9.274933e+00   3.560512e+01
  -2.371907e+01   3.785032e+01
  -2.334240e+01  -4.359545e+00
  -2.914521e+01  -3.603091e+01
  -5.776506e+00  -2.684422e+01
   2.240970e+01  -4.033330e-02
   3.573006e+01   1.760199e+01
   1.398875e+01   3.459039e+00
  -1.566435e+00  -1.259300e+01
  -6.505360e+00  -7.825377e+00
   4.180290e+00   2.635644e+01
   4.521693e+00   3.876316e+01
  -1.730598e+01   2.275283e+01
  -3.252197e+01  -2.318906e+01
  -1.103760e+01  -4.512511e+01
   3.076967e+01  -2.096523e+01
   4.143389e+01   1.232753e+01
   1.789945e+01   4.209002e+01
  -3.777607e+01   2.015259e+01
  -7.263141e+01  -2.985337e+00
  -3.984147e+01  -2.982204e+01
   1.484439e+01  -3.654915e+01
   3.516627e+01  -2.580841e+01
   1.955152e+01  -5.081869e+00
  -1.442106e+01   4.551738e-01
  -2.845196e+01   2.832652e+00
   1.786394e+01  -2.289381e+01
   4.903596e+01  -1.211972e+01
