
 $NMID
 id='ANONYMOUS ', fmtdat='(2E16.6)'
 volume=1.0
 tramp=1.0
 $END
  -2.210540e+03   1.170554e+02
  -1.633848e+03  -1.377657e+03
   2.263348e+01  -1.206125e+03
   7.581424e+02  -9.228350e+02
   7.334322e+02  -1.854295e+02
  -1.020293e+01   8.570533e+00
  -1.414048e+02  -1.038756e+02
   9.187852e+01  -4.518775e+02
   5.364595e+02  -3.398032e+02
   3.837967e+02  -3.093481e+01
   2.501259e+02   2.975489e+02
  -1.138401e+02   3.954943e+02
  -1.358577e+02   1.277943e+02
  -9.446158e+01  -2.516275e+02
   7.086775e+01  -3.169635e+02
   1.676991e+02  -9.906002e+01
   2.267550e+02   2.492757e+02
  -1.998475e+02   4.648773e+02
  -3.587383e+02   1.663562e+02
  -3.524536e+02  -8.282868e+01
  -8.788355e+01  -2.370011e+02
   8.881852e+01  -1.672074e+02
   1.965071e+01  -8.189042e+01
  -1.051537e+02  -1.108832e+02
  -1.343645e+02  -1.789285e+02
   3.443670e+01  -3.002644e+02
   2.852305e+02  -8.371923e+01
   4.331533e+02   1.129284e+02
   1.367991e+02   2.358283e+02
  -1.955725e+02   1.338290e+02
  -2.278156e+02  -1.414015e+02
  -1.671328e+01  -1.535204e+02
   2.645419e+02  -2.195663e+02
   3.012600e+02  -2.132937e+01
   3.039570e+02   1.505182e+02
   6.829122e+01   1.539356e+02
  -3.265187e+00   6.961424e+01
   1.844176e+01  -3.821333e+01
   1.484114e+02  -8.972476e+01
   2.549481e+01   1.311018e+02
   7.160129e+01   4.814896e+02
  -8.350808e+01   2.591922e+02
  -7.326394e+01  -9.759731e+01
   1.253001e+00  -2.111116e+02
   7.176748e+01  -6.810640e+01
   8.611819e+01   1.516208e+02
  -1.076776e+02   2.384904e+02
  -2.400270e+02  -4.970741e+00
  -2.082859e+02  -2.328771e+02
  -1.136464e+02  -2.938433e+02
   2.969390e+02  -1.309895e+02
   3.626133e+02   2.382047e+01
   2.219802e+02   1.994061e+02
  -2.917870e+00   9.223532e+01
  -1.965263e+02   1.830440e+01
  -1.287458e+02  -2.769527e+01
  -1.776952e+01  -2.158499e+01
   1.886396e+01   2.646176e+00
  -1.076314e+02   2.675545e+01
  -1.607735e+02  -2.421531e+01
  -1.044831e+02  -1.222661e+02
   1.434537e+02  -1.651016e+02
   1.974865e+02  -7.748192e+01
   1.771456e+02   7.488203e+01
  -6.299881e+01   2.487193e+02
  -1.954381e+02   2.373682e+02
  -2.370101e+02   1.090782e+02
  -1.756832e+02  -1.377539e+02
  -5.157621e+01  -2.274852e+02
   3.977019e+01  -2.231302e+02
  -1.056172e+01  -1.352964e+02
   3.980587e+01  -8.657070e+01
   9.586154e+01  -6.189400e+01
   1.697717e+02  -1.263590e+01
   1.834489e+02   6.696684e+01
   7.933397e+01   1.762346e+02
  -6.869350e+01   1.171076e+02
  -9.469688e+01  -4.064966e+01
  -9.708323e+01  -1.574925e+02
   8.106553e+01  -1.175711e+02
   2.037624e+02  -9.271558e+00
   1.913255e+02   8.939782e+01
   1.256783e+02   2.300586e+02
  -5.987267e+01   1.875078e+02
  -1.635789e+02   1.028539e+02
  -9.288533e+01   5.485480e+01
  -1.077766e+02   3.701132e+01
  -1.672327e+02  -1.199667e+01
  -2.996304e+02  -1.039847e+02
  -1.915568e+02  -1.797738e+02
  -5.239005e+01  -2.438289e+02
   3.825350e+02  -3.246080e+02
   2.757773e+02  -6.981049e+01
   1.869409e+02   1.152174e+02
  -4.419602e+00   1.470765e+02
  -3.636455e+01   1.400840e+02
   5.868499e+00   1.795515e+01
   7.771116e+01  -2.859012e+01
   8.588037e+01   2.425383e+01
  -1.094431e+01   1.088421e+02
  -8.052739e+01   4.214512e+01
  -5.663814e+01  -4.130003e+01
   1.270032e+01  -4.465523e+01
   8.316334e+01   2.168939e+01
   9.825403e+01   1.501116e+02
   1.535878e+01   2.568888e+02
  -1.585330e+02   1.382824e+02
  -2.616367e+02  -4.860998e+01
  -1.984567e+02  -1.909096e+02
  -4.619213e+01  -1.465014e+02
   1.118698e+02  -6.694179e+01
   1.035854e+02   1.453469e+01
   1.108880e+01   9.848114e+00
  -3.553496e+01  -4.816462e+01
   2.612268e+00  -8.018529e+01
   9.079327e+01  -3.559222e+01
   8.938718e+01   3.941144e+01
   1.463000e+01   4.479213e+01
  -6.832868e+01  -2.905746e+00
  -1.504702e+01  -6.074074e+01
   1.246894e+02  -5.630059e+01
   1.679600e+02   7.774713e+01
   2.122419e+02   1.126556e+02
   3.804605e+01   1.938270e+02
  -1.274910e+02   1.451790e+02
  -2.284601e+02   1.034758e+02
  -9.804271e+01  -4.941060e+01
   2.567197e+01  -5.089260e+01
   3.222469e+01   8.762616e+00
  -3.960302e+01   4.230074e+01
  -1.225184e+02  -4.499182e+00
  -9.071242e+01  -9.286249e+01
  -3.045300e+01  -1.213018e+02
   7.172760e+01  -9.022176e+01
   7.995021e+01   4.564874e-01
   2.938065e+01   2.978974e+01
  -3.770721e+01  -1.639794e+01
  -1.986300e+01  -9.256963e+01
   8.071930e+01  -7.260954e+01
   1.322539e+02   9.836199e+00
   1.137638e+02   9.259037e+01
   5.067475e+00   1.365742e+02
  -8.530849e+01   9.381626e+01
  -1.085348e+02  -4.789283e+00
  -4.094761e+01  -5.538245e+01
   4.356653e+01  -4.902998e+01
   4.095522e+01  -1.759186e+01
  -5.706159e+00   1.792698e+01
  -3.580386e+01   3.608846e+00
   2.520718e+00  -2.058013e+01
   6.262378e+01   3.639358e+00
   7.589425e+01   8.916832e+01
   1.286312e+01   1.087790e+02
  -1.143469e+02   8.642670e+01
  -1.497997e+02  -1.344230e+01
  -1.478456e+02  -1.387106e+02
  -6.702468e+00  -1.781509e+02
   6.307144e+01  -7.071622e+01
   8.085731e+01  -2.461561e+01
   5.029818e+01   3.138886e+01
   1.714646e+01   1.586135e+01
   4.222693e+01  -6.594310e+00
   7.084711e+01  -5.929818e+00
   4.157986e+01   3.177627e+01
  -2.477530e+01   6.723105e+01
  -8.609377e+01   3.935339e+01
  -7.671922e+01  -3.740325e+01
   1.276717e+01  -8.157884e+01
   1.292846e+02  -4.948948e+01
   1.487135e+02   6.591885e+01
   4.761409e+01   1.482881e+02
  -6.919828e+01   1.112253e+02
  -1.851071e+02   5.255974e+01
  -1.547878e+02  -2.805071e+01
  -5.085247e+01  -1.078316e+02
   2.126964e+01  -7.992965e+01
   5.542919e+01  -6.008124e+01
   5.776930e+01  -5.262638e+01
   4.494046e+01  -6.507816e+01
   6.303838e+01  -4.672328e+01
   8.626316e+01   1.800586e+01
   5.465126e+01   1.069012e+02
   6.708248e+00   1.263951e+02
  -8.089129e+01   8.351685e+01
  -1.152475e+02   2.849811e+01
  -9.180845e+01  -1.207620e+02
  -6.912440e+00  -1.112063e+02
   5.351199e+01  -5.090829e+01
   3.567480e+01   2.523191e+01
  -1.095263e+00   3.236584e+01
  -2.284344e+01   2.388922e+01
   1.340487e+01   1.352824e+01
   6.199266e+01   2.051982e+01
   3.697699e+01   3.188551e+01
  -5.948134e+01   3.031829e+01
  -1.183820e+02  -1.257844e+01
  -1.242418e+02  -3.571056e+01
  -9.988446e+00  -6.344310e+01
   6.853089e+01  -3.743405e+01
   1.291973e+02  -3.176475e+00
   3.776548e+01   3.601972e+01
  -4.484886e+01   3.640814e+01
  -4.912488e+01  -1.905398e+01
  -2.330754e+01  -5.860722e+01
   2.475959e+01  -4.251344e+01
   5.331528e+01  -5.996127e-01
   3.682219e+01   3.900173e+01
   3.265765e+01   3.440237e+01
   3.196523e+01  -3.429247e+00
   4.105884e+01   8.621661e+00
   3.507419e+01   3.976349e+01
  -6.281138e+00   1.103854e+02
  -1.062200e+02   9.852823e+01
  -1.307377e+02   1.835415e+00
  -1.059015e+02  -9.147518e+01
   2.785043e+00  -7.577900e+01
   5.984569e+01  -4.491877e+01
   4.359655e+01   5.154761e+00
  -4.122943e+01   1.268906e+01
  -7.925422e+01  -3.439816e+01
  -5.036330e+01  -7.674670e+01
   5.777862e+01  -7.508526e+01
   1.104632e+02  -2.444725e+01
   1.066895e+02   6.338071e+01
   1.299317e+01   6.635794e+01
  -4.295345e+01   3.546963e+01
  -2.876832e+01  -6.528592e+00
   3.158176e+01  -1.727489e+01
   5.715751e+01   3.537449e+00
   4.098295e+01   8.423593e+01
  -6.900439e+01   1.194920e+02
  -9.078900e+01   3.100285e+01
  -8.338179e+01  -7.759199e+01
  -2.417085e+01  -1.185729e+02
   4.287023e+01  -8.403971e+01
   6.108686e+01   1.926534e+01
   4.851029e+01   7.880018e+01
  -1.842009e+01   7.047961e+01
  -4.153067e+01   9.329680e+00
  -2.889600e+01  -1.095826e+01
  -1.074931e+01  -6.057425e+00
  -6.622059e+00   1.248439e+01
  -1.710889e+01  -1.306439e+01
  -3.817587e+01  -7.070446e+01
  -8.748068e+00  -6.720201e+01
   4.316169e+01  -2.695263e+01
   7.710666e+01   3.186746e+01
   8.404163e+01   5.351863e+01
   1.489236e+01   3.940025e+01
  -5.299478e+01   1.601550e+01
  -6.441262e+01   4.379466e-01
  -1.458300e+01  -8.361907e+00
   2.025497e+01  -1.532046e+01
   1.501555e+01  -5.267526e+00
  -1.029151e+01   4.537576e+00
  -7.927039e-02   2.277429e+00
   3.628389e+01  -7.583489e+00
   6.543816e+01   1.438889e+01
   1.133930e+01   6.633440e+01
  -8.892218e+01   8.582789e+01
  -1.333047e+02   5.418444e+01
  -1.081861e+02  -3.445767e+01
  -2.257401e+01  -8.436287e+01
   5.042030e+01  -1.015020e+02
   9.291550e+01  -4.879837e+01
   6.164920e+01   1.366628e+01
   1.674786e+01   2.043310e+01
   2.675656e+00   8.552752e+00
   1.087800e+01   6.681334e+00
   8.235633e+00   3.046249e+01
   9.805384e+00   7.467205e+01
  -2.700305e+01   5.494045e+01
  -4.373257e+01  -7.231510e+00
  -5.003989e+01  -4.866792e+01
  -1.109413e+01  -7.476294e+01
   4.807023e+01  -2.106458e+01
   8.331958e+01   5.246605e+01
   1.800063e+01   7.760242e+01
  -4.245612e+01   5.280918e+01
  -7.787997e+01  -7.785390e+00
  -2.295652e+01  -4.395431e+01
   2.743854e+01  -4.193666e+01
   3.361262e+01  -2.440306e+01
  -1.567072e+01   7.800540e+00
  -5.252279e+01   2.346398e+00
  -1.140385e+01  -1.947083e+01
   6.016401e+01  -2.741859e+01
   9.851790e+01  -2.153125e+01
   4.556070e+01   6.842643e+00
  -1.063937e+01   4.631205e+01
  -4.956391e+01   4.391295e+01
  -2.650658e+01   1.274644e+01
  -1.068769e+01  -3.487044e+01
   1.822107e+01  -3.658342e+01
   3.032253e+01   8.486323e+00
   1.720513e+01   3.397080e+01
  -2.305404e+00   3.420862e+01
  -2.009438e+01  -5.127961e+00
  -2.393425e+01  -2.004732e+01
  -1.560577e+01  -4.418076e+00
   3.599991e+00   1.442017e+01
   3.228332e+00   9.478354e+00
  -2.703578e+00  -2.399639e+01
  -2.872872e-01  -4.566933e+01
   2.285698e+01  -1.728582e+01
   2.909070e+01   1.831108e+01
   8.667101e+00   4.237386e+01
  -2.938942e+01   1.770427e+01
  -5.005030e+01  -3.111668e+01
  -1.496430e+01  -4.207895e+01
   4.273171e+01  -3.164859e+01
   6.344012e+01   1.705832e+01
   3.529770e+01   3.144664e+01
  -1.410122e+01   3.570718e+01
  -4.125839e+01   2.564369e+01
  -1.766841e+01   3.956226e+00
   1.402027e+01  -4.285446e+00
   1.866185e+01   2.376787e+00
  -1.381240e+01   1.951877e+01
  -5.511278e+01   1.719192e+01
