
 $NMID
 id='ANONYMOUS ', fmtdat='(2E16.6)'
 volume=1.0
 tramp=1.0
 $END
  -2.338072e+03  -1.858763e+02
  -1.331147e+03  -1.304338e+03
  -2.310436e+02  -1.223432e+03
   9.642690e+02  -1.109783e+03
   9.193793e+02  -4.525325e+02
   3.669547e+02   8.992489e+00
  -1.061786e+02  -8.451921e+01
   2.167594e+00  -2.592794e+02
   3.567706e+02  -4.102528e+02
   4.802136e+02  -1.205651e+02
   2.094642e+02   2.577771e+02
   7.759619e+01   3.290923e+02
  -1.248110e+02   1.261156e+02
  -1.576160e+02  -2.606113e+02
   1.268081e+01  -3.136601e+02
   2.841478e+02  -4.480211e+01
   1.269144e+02   3.021140e+02
  -1.298705e+02   5.000341e+02
  -4.015703e+02   1.635866e+02
  -2.750107e+02  -8.540380e+01
  -1.056620e+02  -1.768126e+02
   7.923560e+01  -1.903378e+02
   4.437918e+01  -9.881516e+01
  -1.708506e+02  -1.241570e+02
  -1.416168e+02  -1.660047e+02
   5.804262e+01  -2.193328e+02
   3.478339e+02  -1.526002e+02
   5.024238e+02   3.375817e+01
   2.041174e+02   2.708983e+02
  -1.968584e+02   5.416745e+01
  -1.768789e+02  -7.048798e+01
  -7.736604e+01  -2.767868e+02
   1.267602e+02  -2.095519e+02
   3.012931e+02  -1.126021e+02
   2.639456e+02   1.491690e+02
   1.263934e+02   2.022948e+02
   3.662871e+01   7.397847e+01
   3.445290e+01  -3.461787e+01
   2.211683e+02  -1.471995e+02
   6.112038e+01   9.232381e+01
  -1.004907e+02   3.486938e+02
  -2.146990e+02   3.391396e+02
  -3.628315e+01   2.567570e+01
  -1.008583e+02  -1.238013e+02
   4.427385e+01  -5.757575e+01
   7.955152e+01   2.345595e+02
  -1.244950e+02   2.100079e+02
  -1.615327e+02   2.575018e+01
  -2.644493e+02  -2.040667e+02
  -1.188840e+02  -3.089430e+02
   1.838710e+02  -7.407765e+01
   3.384244e+02  -2.769203e+01
   1.749358e+02   1.518137e+02
  -2.585726e+01   7.748040e+01
  -1.843196e+02   7.115976e+01
  -1.149874e+02   1.426305e+01
  -1.187303e+01  -3.990521e+00
   3.781673e+01   2.078968e+01
  -4.967539e+01   4.175042e+00
  -1.650087e+02  -6.267852e+01
  -1.218141e+02  -1.354293e+02
   9.345739e+01  -2.170825e+02
   2.661898e+02  -1.094181e+02
   1.717897e+02   3.798593e+01
  -3.998463e+00   2.601859e+02
  -2.451233e+02   2.885177e+02
  -2.406030e+02   6.447373e+01
  -2.208273e+02  -1.424576e+02
  -2.568807e+01  -2.225125e+02
  -9.320734e+00  -2.079802e+02
  -3.483228e+00  -1.134388e+02
   2.656501e+01  -1.120112e+02
   8.848797e+01  -8.303008e+01
   1.607933e+02  -1.918134e+01
   2.217543e+02   1.037418e+02
   3.912624e+01   1.782750e+02
  -1.019075e+02   1.134174e+02
  -1.198018e+02  -7.107248e+01
  -1.308236e+02  -2.107090e+02
   3.500102e+01  -1.353807e+02
   1.580926e+02  -5.603528e+01
   1.908247e+02   1.169573e+02
   1.443004e+02   2.079964e+02
   7.357139e-01   2.147350e+02
  -1.000250e+02   1.207230e+02
  -1.037007e+02   8.702991e+01
  -1.168538e+02   5.642683e+01
  -2.164012e+02   4.796367e+01
  -2.656767e+02  -7.732886e+01
  -1.609671e+02  -1.925925e+02
  -2.397133e+01  -2.899707e+02
   2.991770e+02  -3.401636e+02
   2.977247e+02  -9.302298e+01
   1.842480e+02   3.132865e+01
   3.093419e+01   1.663811e+02
  -8.522322e+01   1.165964e+02
   3.486533e+01   2.474840e+01
   1.073841e+02  -4.061730e+01
   1.125556e+02   7.301247e+00
  -2.125580e+01   8.302215e+01
  -5.650575e+01   3.623613e+01
  -2.385943e+01  -3.765246e+01
   1.947184e+01  -4.449926e+01
   9.825544e+01  -1.011863e+00
   8.210764e+01   1.989493e+02
  -3.026307e+01   2.347961e+02
  -2.080992e+02   1.351997e+02
  -2.071733e+02  -6.388713e+01
  -2.019659e+02  -2.173866e+02
  -3.396484e+01  -2.226544e+02
   1.123123e+02  -8.113215e+01
   7.443762e+01   2.836113e+01
   1.536496e+01   7.492290e+00
  -3.335681e+01  -3.940978e+01
   2.343610e+01  -9.351363e+01
   8.066119e+01  -4.450220e+01
   8.738828e+01   3.691816e+01
   2.776660e+01   3.737361e+01
  -7.123023e+01  -1.643800e+01
  -2.639931e+01  -6.330131e+01
   1.004210e+02  -6.162911e+01
   2.012248e+02   1.267690e+00
   1.664156e+02   1.414861e+02
   6.060107e+00   2.454944e+02
  -1.343333e+02   1.699961e+02
  -2.491581e+02   1.050776e+02
  -8.579356e+01  -4.963736e+01
   2.381999e+01  -6.171781e+01
   4.277718e+01   1.960968e+01
  -3.146860e+01   3.239778e+01
  -1.088308e+02   8.572961e+00
  -1.343831e+02  -6.442040e+01
  -3.100419e+01  -1.586364e+02
   6.566248e+01  -1.048956e+02
   9.578339e+01  -6.655920e+00
   3.093956e+01   2.508837e+01
  -4.145036e+01  -2.355421e+01
  -1.600050e+01  -8.584345e+01
   7.108437e+01  -7.633217e+01
   1.513795e+02   2.385140e+00
   1.373987e+02   7.890296e+01
  -1.234397e+01   1.616158e+02
  -1.226593e+02   1.116574e+02
  -1.270215e+02   1.761642e+01
  -4.409677e+01  -6.525079e+01
   4.759271e+01  -7.437758e+01
   4.262908e+01  -7.453796e+00
  -6.336298e+00   1.787581e+01
  -3.241403e+01   3.236324e+00
   5.857803e+00  -2.319279e+01
   7.220979e+01  -4.578572e-01
   8.779206e+01   6.709584e+01
   1.084187e+01   1.450371e+02
  -9.379996e+01   1.224206e+02
  -1.631473e+02  -2.882442e+00
  -1.613124e+02  -1.227149e+02
  -4.147822e+01  -1.699449e+02
   7.973641e+01  -9.066617e+01
   6.744374e+01  -9.958572e+00
   4.958643e+01   2.078329e+01
   2.352515e+01   1.324003e+01
   4.271186e+01  -1.038097e+01
   7.459722e+01  -1.382964e+01
   5.157415e+01   4.846491e+01
  -1.032525e+01   8.257126e+01
  -9.131753e+01   5.427640e+01
  -8.805608e+01  -4.866168e+01
   1.185272e+01  -1.021426e+02
   1.092869e+02  -6.949406e+01
   1.728362e+02   6.076136e+01
   2.906547e+01   1.757960e+02
  -1.045467e+02   1.575488e+02
  -1.878693e+02   6.843062e+01
  -2.063934e+02  -6.346099e+01
  -6.594430e+01  -1.075180e+02
   3.277163e+01  -9.464744e+01
   6.525244e+01  -5.764254e+01
   4.199577e+01  -3.879536e+01
   3.225089e+01  -7.298540e+01
   5.531284e+01  -5.627270e+01
   8.065313e+01   2.237414e+01
   7.611034e+01   7.822064e+01
   9.271889e+00   1.572367e+02
  -8.008256e+01   1.040512e+02
  -1.116135e+02   9.756845e+00
  -1.055958e+02  -1.026620e+02
   8.509551e+00  -1.206902e+02
   5.808088e+01  -4.118220e+01
   3.909420e+01   1.503367e+01
  -5.505740e+00   4.087255e+01
  -2.399694e+01   2.104206e+01
   1.175614e+01   1.706825e+00
   5.837216e+01   1.791448e+01
   4.103104e+01   3.346789e+01
  -5.455549e+01   2.451877e+01
  -1.465484e+02   2.537978e+00
  -1.165457e+02  -6.294875e+01
   3.579311e+00  -7.700592e+01
   1.011616e+02  -5.644859e+01
   1.103280e+02  -1.817037e+01
   3.506014e+01   3.692347e+01
  -4.398934e+01   4.105937e+01
  -5.060764e+01  -5.384750e+00
  -1.598550e+01  -5.162101e+01
   2.996530e+01  -4.592091e+01
   5.434320e+01  -2.353403e-01
   4.667379e+01   3.658053e+01
   4.401369e+01   3.504335e+01
   3.435644e+01  -1.155068e+00
   3.545301e+01   1.397129e+00
   4.110379e+01   4.998829e+01
  -2.542854e+01   1.181550e+02
  -9.261850e+01   1.164227e+02
  -1.377052e+02   2.503567e+01
  -1.017941e+02  -8.445531e+01
  -1.128052e+01  -7.941301e+01
   6.466647e+01  -4.247824e+01
   5.339835e+01   4.584907e+00
  -4.609765e+01   1.196234e+01
  -9.551174e+01  -2.244263e+01
  -6.341017e+01  -8.837859e+01
   6.470147e+01  -7.812024e+01
   1.018349e+02  -2.910354e+01
   8.908865e+01   3.091159e+01
   1.764011e+01   7.118673e+01
  -3.409741e+01   4.341192e+01
  -3.499183e+01  -4.523887e+00
   2.450047e+01  -1.750694e+01
   7.273436e+01   1.768764e+01
   3.927387e+01   8.171946e+01
  -7.542552e+01   1.197790e+02
  -1.220727e+02   3.542930e+01
  -1.057011e+02  -7.047293e+01
  -3.306214e+01  -1.139221e+02
   6.818436e+01  -1.136097e+02
   7.888014e+01   1.822173e+01
   4.014788e+01   6.505690e+01
  -1.357353e+01   8.016492e+01
  -3.540399e+01   5.452959e+00
  -2.743370e+01  -2.203422e+01
  -8.470152e+00  -3.798931e+00
  -7.286624e+00   1.386246e+01
  -2.299420e+01  -1.328047e+01
  -4.939227e+01  -7.111605e+01
  -1.707481e+01  -7.034610e+01
   4.708087e+01  -2.502697e+01
   1.152831e+02   1.762841e+01
   6.771509e+01   3.547473e+01
   1.357626e+01   4.283749e+01
  -6.150792e+01   2.071408e+01
  -6.984676e+01   9.045818e+00
  -1.468140e+01  -1.223173e+01
   2.633433e+01  -1.210489e+01
   1.702185e+01  -3.626508e+00
  -5.644841e+00   3.850266e+00
  -5.508131e-01   1.523129e+00
   4.622979e+01  -7.919279e-01
   7.397924e+01   1.453266e+01
   1.063211e+01   6.604700e+01
  -5.102171e+01   8.101897e+01
  -1.493181e+02   5.547642e+01
  -1.076853e+02  -5.283442e+01
  -6.567277e+00  -7.252056e+01
   5.314129e+01  -1.129128e+02
   8.567693e+01  -6.301270e+01
   5.517345e+01   4.753519e+00
   1.914706e+01   2.371359e+01
   4.921811e+00   8.611339e+00
   8.437613e+00   5.883900e+00
   1.702421e+01   3.003828e+01
   1.453983e+01   6.736752e+01
  -2.143350e+01   3.850765e+01
  -6.006933e+01  -2.216205e+00
  -4.989604e+01  -5.118126e+01
  -1.744659e+01  -8.266589e+01
   4.534804e+01  -2.683103e+01
   7.847893e+01   4.016835e+01
   2.814062e+01   6.518238e+01
  -3.946304e+01   4.735741e+01
  -8.352410e+01  -5.687061e+00
  -4.866905e+01  -4.515628e+01
   2.133725e+01  -5.149279e+01
   2.709569e+01  -2.086173e+01
  -2.330861e+01   5.641494e+00
  -5.136998e+01   4.277273e+00
  -1.200816e+01  -1.540781e+01
   4.456294e+01  -4.585019e+01
   9.720464e+01  -4.344757e+01
   5.423051e+01   1.030401e+01
  -7.053764e+00   5.837307e+01
  -4.178319e+01   5.787292e+01
  -2.968724e+01   1.254477e+01
  -6.268971e+00  -4.097319e+01
   1.559687e+01  -3.685939e+01
   3.263831e+01   1.080491e+01
   1.694208e+01   3.724739e+01
   1.957305e+00   3.906173e+01
  -1.753498e+01  -4.477167e+00
  -3.050464e+01  -1.954634e+01
  -1.484953e+01  -5.908337e+00
   3.071109e+00   1.906701e+01
   3.007823e+00   8.314363e+00
  -2.620581e+00  -2.025852e+01
  -7.197362e+00  -3.636079e+01
   1.801745e+01  -1.821582e+01
   2.477541e+01   1.866258e+01
   1.069375e+01   3.101455e+01
  -2.910830e+01   1.969408e+01
  -4.156280e+01  -1.900044e+01
  -1.342260e+01  -4.298059e+01
   4.373854e+01  -3.060526e+01
   7.207718e+01  -4.597333e-01
   4.215119e+01   3.486268e+01
  -1.718062e+01   3.978829e+01
  -5.165958e+01   2.098359e+01
  -2.307014e+01   7.234965e+00
   1.278785e+01  -2.606735e+00
   1.842603e+01   7.301020e+00
  -1.409217e+01   2.003495e+01
  -5.662463e+01   1.405239e+01
