
 $NMID
 id='ANONYMOUS ', fmtdat='(2E16.6)'
 volume=1.0
 tramp=1.0
 $END
  -1.903364e+03   1.581816e+02
  -1.143654e+03  -3.449028e+02
  -9.067723e+01  -8.987200e+02
   4.704103e+02  -9.472613e+02
   5.333978e+02  -3.255737e+02
   1.293755e+02   1.419410e+02
  -5.286158e+01   7.483727e+01
   3.016723e+01  -8.205316e+01
   1.529533e+02  -3.188113e+02
   3.412547e+02  -6.022377e+01
   2.796439e+02   2.759468e+02
   4.465317e+01   4.850706e+02
  -9.319658e+01   1.734378e+02
  -1.567994e+02  -1.105502e+02
   2.768059e+01  -3.741276e+02
   1.860724e+02  -9.733006e+01
   2.403420e+02   2.032821e+02
  -2.185314e+01   3.864734e+02
  -2.768736e+02   2.453002e+02
  -2.772862e+02  -9.013881e+01
  -1.152049e+02  -2.400007e+02
   4.020034e+01  -1.417889e+02
   4.538139e+01  -1.877779e+01
  -9.606617e+01  -1.183134e+02
  -1.311715e+02  -1.706828e+02
   3.263924e+01  -2.631489e+02
   3.159304e+02  -6.876756e+01
   3.682588e+02   2.080612e+02
   1.381125e+02   2.260615e+02
  -2.129983e+02   9.965759e+00
  -3.062774e+02  -1.565930e+02
  -9.493456e+01  -1.481297e+02
   1.267898e+02  -2.296843e+02
   2.686753e+02  -1.154840e+02
   2.201221e+02   5.357816e+01
   4.343466e+01   8.608773e+01
  -2.176597e+00   8.381165e+01
   1.052171e+01  -1.302308e+01
   7.129486e+01  -5.341941e+01
   1.837147e+02   1.240592e+02
   4.262986e+00   3.102457e+02
  -8.481925e+01   2.994841e+01
  -1.251945e+02   5.842702e+01
  -8.079054e+01  -1.102618e+02
   7.360790e+01  -4.449272e+01
   7.872627e+01   1.600929e+02
   1.431115e+00   2.303562e+02
  -1.830871e+02   5.033000e+01
  -3.233698e+02  -1.368819e+02
  -5.254436e+01  -2.382179e+02
   1.607078e+02  -2.377197e+02
   2.856550e+02   8.692791e+01
   1.990998e+02   1.212599e+02
   8.838838e+01   1.106660e+02
  -1.013899e+02   7.816033e+01
  -1.410922e+02   3.964972e+01
   6.113301e+00  -3.416720e+01
   4.669927e+01   5.298783e+01
  -5.157912e+01   1.720150e+01
  -1.603259e+02  -5.681647e+01
  -6.214661e+01  -1.060665e+02
   9.984935e+01  -1.794357e+02
   2.107863e+02  -1.123233e+02
   1.886153e+02   4.902845e+01
  -2.167109e+01   2.384580e+02
  -2.173893e+02   2.504187e+02
  -2.610668e+02   1.037563e+02
  -1.360206e+02  -1.308202e+02
  -3.041242e+01  -2.434922e+02
  -7.292557e+00  -1.364409e+02
  -2.262224e+01  -1.105235e+02
   3.056844e+01  -9.629208e+01
   1.052632e+02  -7.673273e+01
   1.603536e+02  -1.688574e+01
   1.020030e+02   1.042998e+02
   2.067882e+01   1.305489e+02
  -8.947969e+01   1.236365e+02
  -7.327580e+01  -4.129509e+01
  -6.668044e+01  -1.323829e+02
   2.340331e+01  -1.367288e+02
   1.828043e+02  -5.811450e+01
   1.589669e+02   1.302250e+02
   1.229722e+02   1.684590e+02
  -5.759676e+01   1.969223e+02
  -1.080945e+02   1.396464e+02
  -8.447731e+01   8.917748e+01
  -9.747906e+01   4.529613e+01
  -1.931100e+02   3.072294e+01
  -2.982731e+02  -1.321737e+02
  -2.057406e+02  -1.659253e+02
   8.942960e+01  -2.993648e+02
   1.771878e+02  -2.598205e+02
   2.687880e+02  -1.373389e+02
   1.562841e+02   5.356166e+01
   1.542551e+01   1.381395e+02
  -3.301712e+01   1.088353e+02
  -1.042152e+01   1.617200e+01
   6.493429e+01   2.875718e+00
   4.482514e+01   2.387849e+01
  -6.194422e+00   6.690945e+01
  -3.843114e+01   3.330058e+01
  -3.446973e+01  -3.249735e+01
   3.378940e+01  -4.990043e+01
   9.135617e+01  -3.791328e+00
   7.567879e+01   1.437760e+02
  -1.285116e+01   2.431119e+02
  -1.439267e+02   1.278785e+02
  -2.061994e+02  -1.902235e+01
  -1.696357e+02  -1.712519e+02
  -9.867298e+00  -1.687306e+02
   7.895143e+01  -7.657168e+01
   9.100935e+01  -1.270608e+01
   2.461374e+01   7.817307e-01
  -2.555942e+01  -4.610626e+01
   1.644172e+01  -5.997961e+01
   6.391216e+01  -4.981108e+01
   8.660414e+01   1.025031e+01
   1.704103e+01   3.660775e+01
  -5.922277e+01  -1.423735e+01
  -1.393863e+01  -5.651076e+01
   9.450441e+01  -3.713015e+01
   1.949529e+02   2.346382e+01
   1.459300e+02   1.363284e+02
  -7.632399e-01   1.848064e+02
  -1.792499e+02   1.439578e+02
  -1.572505e+02   7.879035e+01
  -1.102721e+02  -4.120425e+01
   2.324354e+01  -1.787579e+01
   3.576503e+01   1.315556e+01
  -3.237335e+01   4.573820e+01
  -8.299543e+01   3.158525e+01
  -8.987329e+01  -6.983498e+01
  -3.583054e+01  -1.036727e+02
   5.363488e+01  -5.762535e+01
   6.418923e+01  -1.268269e+01
   2.081094e+01   1.204525e+01
  -2.705040e+01  -2.162301e+01
  -6.583319e+00  -6.813217e+01
   8.050204e+01  -7.435057e+01
   1.638015e+02  -7.653269e+00
   8.881609e+01   1.231954e+02
   1.655450e+01   1.368699e+02
  -1.056074e+02   9.658013e+01
  -1.161743e+02   2.261815e+01
  -1.951264e+01  -6.315384e+01
   3.787848e+01  -5.057980e+01
   4.691966e+01  -5.832608e+00
  -2.786008e+00   1.235919e+01
  -3.073434e+01   5.037685e+00
   6.992229e+00  -1.840510e+01
   5.585399e+01  -3.290794e+00
   7.203075e+01   6.564220e+01
   1.849634e+00   1.201235e+02
  -1.015577e+02   9.263717e+01
  -1.696965e+02   1.821679e+01
  -1.253863e+02  -1.046602e+02
  -1.195824e+01  -1.640247e+02
   3.630360e+01  -7.887348e+01
   6.301281e+01  -2.866941e+01
   4.633167e+01   2.186734e+01
   2.071742e+01   1.078237e+01
   4.007682e+01  -1.289798e+01
   6.375254e+01   6.756863e+00
   4.057257e+01   4.000440e+01
  -3.071416e+01   7.313924e+01
  -7.924080e+01   3.582035e+01
  -6.697844e+01  -3.451712e+01
   1.493097e+01  -8.594684e+01
   1.233924e+02  -7.464068e+01
   1.258980e+02   4.396426e+01
   4.871569e+01   1.511258e+02
  -9.154073e+01   1.104781e+02
  -1.572867e+02   5.162322e+01
  -1.272298e+02  -7.827728e+01
  -5.416563e+01  -1.240596e+02
   1.191435e+01  -9.205562e+01
   5.392722e+01  -4.632331e+01
   3.970932e+01  -4.510172e+01
   3.056165e+01  -5.212733e+01
   6.142721e+01  -5.200660e+01
   9.137216e+01   4.709369e+00
   6.524726e+01   1.028782e+02
   1.031774e+01   1.169992e+02
  -4.136142e+01   1.037759e+02
  -1.052527e+02  -1.004957e+01
  -8.588381e+01  -9.916814e+01
  -1.253441e+01  -9.816271e+01
   4.826005e+01  -5.439590e+01
   3.431036e+01   9.960621e+00
  -7.666396e+00   3.198850e+01
  -2.082569e+01   2.255909e+01
   1.242248e+01   2.145951e+00
   6.290807e+01   1.171580e+01
   3.248143e+01   2.630783e+01
  -5.458095e+01   2.694133e+01
  -1.024229e+02  -1.440204e+01
  -8.117015e+01  -3.704109e+01
   2.778214e+00  -5.277547e+01
   7.040624e+01  -4.319766e+01
   8.520305e+01   2.278759e-01
   2.196823e+01   3.381873e+01
  -3.229131e+01   2.545664e+01
  -5.147987e+01  -3.726912e+00
  -1.331872e+01  -4.885035e+01
   1.701199e+01  -3.889579e+01
   5.500761e+01   3.191598e+00
   4.064170e+01   2.756209e+01
   3.448203e+01   3.566154e+01
   2.776719e+01   8.139583e+00
   4.143903e+01   1.028649e+01
   3.672486e+01   5.299747e+01
  -2.214468e+01   8.369618e+01
  -6.806202e+01   9.171354e+01
  -1.315777e+02   2.424302e+01
  -1.008813e+02  -6.532099e+01
   4.805807e+00  -8.141022e+01
   3.749377e+01  -3.270426e+01
   3.231395e+01   6.927667e-01
  -3.551835e+01   2.006603e+01
  -9.932590e+01  -3.014852e+01
  -3.824688e+01  -7.182328e+01
   5.962423e+01  -7.367734e+01
   1.168683e+02  -3.142501e+01
   8.808042e+01   1.514394e+01
   1.452557e+01   4.522869e+01
  -4.528675e+01   2.704911e+01
  -3.021036e+01  -3.962580e+00
   2.422626e+01  -2.575747e+01
   5.737701e+01   1.509038e+01
   6.817444e+00   6.770656e+01
  -4.433189e+01   1.048969e+02
  -6.841502e+01   5.455196e+01
  -7.839861e+01  -6.745140e+01
  -1.005073e+01  -1.147423e+02
   5.157191e+01  -7.329656e+01
   6.525491e+01   1.117024e+01
   3.222865e+01   7.289956e+01
  -1.260209e+01   6.520308e+01
  -3.667117e+01   9.400859e+00
  -2.395291e+01  -1.829150e+01
  -9.937642e+00  -2.683327e+00
  -2.889432e+00   9.102490e+00
  -2.198670e+01  -1.670708e+01
  -4.832694e+01  -5.156371e+01
  -2.157334e+01  -5.274915e+01
   3.377729e+01  -3.551002e+01
   8.423184e+01   1.746061e+01
   6.991600e+01   3.733424e+01
   9.506853e+00   4.171896e+01
  -3.908648e+01   1.524506e+01
  -4.725115e+01   8.850791e+00
  -1.069270e+01  -7.760854e+00
   1.516270e+01  -1.025824e+01
   1.139272e+01  -7.815358e+00
  -8.934006e+00   2.980025e+00
   8.113098e-01   1.962178e+00
   3.372893e+01  -3.385789e+00
   5.305820e+01   8.201870e+00
   2.671916e+01   5.538239e+01
  -5.263448e+01   7.077874e+01
  -1.327165e+02   4.609408e+01
  -7.735257e+01  -2.443615e+01
  -1.155882e+01  -9.017994e+01
   7.095021e+01  -9.426840e+01
   7.355712e+01  -3.123406e+01
   4.603721e+01   1.848807e+01
   1.726384e+01   2.468825e+01
   3.004601e+00   8.747773e+00
   9.080248e+00   6.166752e+00
   1.622704e+01   3.022192e+01
   6.819020e+00   5.202635e+01
  -1.967550e+01   4.409175e+01
  -3.929413e+01  -8.213265e+00
  -5.773289e+01  -7.656725e+01
  -1.073158e+01  -6.854948e+01
   4.041875e+01  -1.926452e+01
   7.506819e+01   3.364521e+01
   3.041239e+01   6.185145e+01
  -4.157084e+01   5.187193e+01
  -6.822548e+01  -3.985914e+00
  -3.390819e+01  -4.217343e+01
   2.799926e+01  -4.102594e+01
   2.637332e+01  -1.803530e+01
  -1.358654e+01   9.594984e+00
  -4.568404e+01   7.023029e+00
  -9.705553e+00  -1.731104e+01
   5.528262e+01  -4.694810e+01
   9.068354e+01  -3.121317e+01
   4.202863e+01   1.431871e+01
  -6.933610e+00   6.672050e+01
  -4.232934e+01   4.886701e+01
  -2.764970e+01   1.388958e+01
  -8.853305e+00  -3.080154e+01
   1.650226e+01  -2.762248e+01
   2.190457e+01   1.406284e-01
   1.803088e+01   2.690648e+01
  -2.856784e+00   3.040661e+01
  -2.176506e+01   1.893954e+00
  -3.059765e+01  -1.608384e+01
  -1.609009e+01  -5.501745e+00
   3.962963e+00   1.270017e+01
   3.122878e+00   1.029062e+01
  -7.933967e+00  -2.063930e+01
  -3.601505e+00  -3.686343e+01
   1.976890e+01  -1.898582e+01
   2.748876e+01   1.078686e+01
   1.671171e+01   4.088229e+01
  -2.686149e+01   1.902474e+01
  -3.853415e+01  -1.565428e+01
  -2.124338e+01  -3.499403e+01
   3.695290e+01  -2.453584e+01
   5.765866e+01   6.983195e+00
   3.515299e+01   2.868895e+01
  -1.842296e+01   2.981310e+01
  -3.937580e+01   1.349280e+01
  -1.627294e+01   3.272527e+00
   1.423384e+01  -5.204349e+00
   2.158237e+01  -1.319871e+00
  -1.812044e+01   1.510564e+01
  -4.689987e+01   2.265715e+01
