
 $NMID
 id='ANONYMOUS ', fmtdat='(2E16.6)'
 volume=1.0
 tramp=1.0
 $END
   1.611420e+03  -5.532515e+02
   7.019089e+02   2.981923e+02
  -1.052817e+02   8.066749e+02
  -2.460106e+02   3.201815e+02
  -2.609326e+02   2.068341e+02
   2.148863e+01  -2.607288e+01
   3.505326e+01  -5.753943e+01
  -9.683650e+01   8.895646e+01
  -2.730806e+02   2.441788e+02
  -2.707189e+02   5.793691e+01
  -9.969225e+01  -2.254487e+02
   4.956762e+01  -4.001564e+02
   2.615090e+01  -8.735184e+01
   5.152858e+01   1.012100e+02
  -5.816579e+01   3.753091e+02
  -1.799363e+02   9.576078e+01
  -1.568848e+02  -1.393784e+02
   5.340934e+00  -3.567827e+02
   2.193342e+02  -1.667698e+02
   1.842794e+02   1.206750e+02
   8.615419e+01   2.054773e+02
  -3.266847e+01   1.145128e+02
  -4.288210e+01   2.176296e+01
   9.081705e+01   1.018216e+02
   9.368892e+01   1.108267e+02
  -7.014548e+01   1.996595e+02
  -2.983899e+02   2.960851e+01
  -2.469145e+02  -2.035841e+02
  -5.019120e+01  -1.276217e+02
   1.289944e+02  -2.098994e+01
   2.076406e+02   1.160567e+02
   5.263351e+01   7.307269e+01
  -7.206601e+01   1.404756e+02
  -1.905304e+02   7.315109e+01
  -1.343023e+02  -3.214852e+01
  -3.973524e+01  -8.202831e+01
  -3.694340e+01  -3.855334e+01
  -1.589292e+01   5.492937e+01
  -4.670050e+01   7.367425e+01
  -1.069447e+02  -1.068320e+02
   4.478902e+01  -2.263356e+02
   7.941763e+01  -3.035962e+01
   5.461804e+01   7.224916e+00
   1.640143e+01   8.531075e+01
  -4.320802e+01   4.691202e+01
  -4.373042e+01  -1.326814e+02
   2.201806e+01  -1.478165e+02
   1.328108e+02  -7.597600e+00
   2.349112e+02   1.711778e+02
   5.752125e+01   1.935253e+02
  -1.381009e+02   1.716856e+02
  -2.034283e+02  -3.261977e+01
  -1.682775e+02  -9.009332e+01
  -6.261617e+01  -6.851538e+01
   5.410367e+01  -1.009764e+02
   7.841441e+01  -2.221784e+01
   1.812948e+01  -5.319809e+00
  -4.055134e+01  -1.216514e+01
   3.524366e+01   8.168970e+00
   9.046834e+01   7.050013e+01
   3.851851e+01   7.205593e+01
  -6.799087e+01   1.167205e+02
  -1.565922e+02   3.962070e+01
  -1.267461e+02  -3.203060e+01
  -6.021868e+00  -1.695579e+02
   1.567839e+02  -1.919577e+02
   1.919632e+02  -5.298166e+01
   7.300608e+01   7.755859e+01
   3.506539e+01   2.253783e+02
  -1.150056e+01   1.132791e+02
   1.064630e+01   7.833751e+01
  -2.892441e+01   6.612432e+01
  -7.442109e+01   4.352201e+01
  -1.228372e+02  -2.063859e+01
  -9.914731e+01  -7.053028e+01
   8.379414e+00  -7.533803e+01
   8.642969e+01  -1.004572e+02
   4.016429e+01   3.384176e+01
   5.938355e+01   9.127310e+01
  -3.099487e+01   8.445005e+01
  -1.547960e+02   2.183672e+01
  -1.263320e+02  -1.271211e+02
  -9.707007e+01  -1.193199e+02
   5.047064e+01  -1.158104e+02
   9.584446e+01  -8.282833e+01
   4.742387e+01  -5.123801e+01
   6.626800e+01  -3.986747e+01
   1.354904e+02  -1.021395e+01
   2.039026e+02   9.588764e+01
   1.676611e+02   1.182999e+02
  -6.144879e+01   1.668658e+02
  -1.329366e+02   1.529562e+02
  -1.688282e+02   6.455613e+01
  -1.317320e+02  -5.450990e+01
  -2.059657e+01  -8.341168e+01
   1.755937e+01  -6.430433e+01
   8.510563e+00  -8.408404e+00
  -5.085573e+01  -7.558945e+00
  -4.824079e+01  -1.520164e+01
   1.944736e+01  -5.965471e+01
   1.082879e+01  -3.084033e+01
   2.149448e+01   3.064417e+01
  -3.711554e+01   3.931023e+01
  -6.569675e+01   1.104666e+00
  -5.418142e+01  -1.230774e+02
   3.803462e+01  -1.396697e+02
   8.644074e+01  -8.786916e+01
   1.140636e+02   3.886574e+00
   1.024331e+02   1.095560e+02
   2.552923e+01   1.408651e+02
  -4.740050e+01   4.973994e+01
  -6.454323e+01   2.781692e+00
  -1.536619e+01  -5.723699e+00
   2.520237e+01   3.383987e+01
  -9.661029e+00   4.327252e+01
  -5.286338e+01   3.084857e+01
  -4.410016e+01  -1.291893e+01
  -2.066021e+01  -3.013206e+01
   4.319553e+01   1.656112e+01
   6.108230e+00   4.619626e+01
  -6.859419e+01   2.453513e+01
  -1.251373e+02  -1.751482e+01
  -8.376943e+01  -1.046276e+02
   1.796655e+01  -1.103564e+02
   1.402099e+02  -1.234582e+02
   1.199718e+02  -5.090040e+01
   5.505782e+01   3.308396e+01
  -1.191681e+01   1.502075e+01
  -2.179889e+01  -1.732464e+01
   2.941662e+01  -3.338418e+01
   6.184789e+01  -1.912812e+01
   7.714004e+01   4.179940e+01
   1.034970e+01   8.796993e+01
  -4.430184e+01   4.806453e+01
  -4.599403e+01   9.085242e+00
  -1.331110e+01  -9.827644e+00
   2.046661e+01   1.941217e+01
   1.118145e+01   5.551453e+01
  -3.840671e+01   4.944030e+01
  -1.161475e+02  -2.171346e+01
  -4.256976e+01  -6.561057e+01
  -1.179939e+01  -1.041471e+02
   8.610313e+01  -6.532990e+01
   8.862665e+01  -1.647165e+00
   1.358642e+01   5.331118e+01
  -2.166623e+01   4.039574e+01
  -3.345212e+01   3.294906e+00
   4.007418e+00  -7.871908e+00
   1.958173e+01  -3.147897e+00
  -4.785322e+00   9.107548e+00
  -3.949232e+01  -1.442409e-01
  -4.761517e+01  -4.521067e+01
  -4.182009e+00  -9.465860e+01
   7.538529e+01  -5.815825e+01
   1.221219e+02   3.608348e+00
   8.915273e+01   6.895472e+01
  -1.651165e+00   1.201880e+02
  -2.180871e+01   2.958272e+01
  -5.471760e+01   2.184580e+01
  -3.198566e+01  -5.855104e+00
  -1.284444e+01  -5.761555e+00
  -3.264319e+01   8.295025e+00
  -3.826434e+01  -2.791939e+00
  -3.192976e+01  -2.850669e+01
   2.456953e+01  -5.932569e+01
   4.982411e+01  -2.619702e+01
   4.778002e+01   1.549293e+01
  -1.014653e+01   7.123320e+01
  -8.389044e+01   3.661474e+01
  -9.320236e+01  -3.907550e+01
  -4.751260e+01  -1.013273e+02
   6.447882e+01  -1.031056e+02
   1.214059e+02  -1.224474e+01
   9.072719e+01   6.425658e+01
   1.215412e+01   1.095477e+02
  -1.071228e+00   5.806684e+01
  -3.928317e+01   3.283096e+01
  -2.970971e+01   2.860944e+01
  -2.244462e+01   3.840056e+01
  -4.384088e+01   3.119956e+01
  -5.553714e+01  -1.100659e+01
  -4.590791e+01  -8.411968e+01
  -4.199674e+00  -9.063044e+01
   3.183721e+01  -7.514830e+01
   7.694281e+01   1.137915e+01
   6.078609e+01   7.372760e+01
  -8.521908e-01   8.178912e+01
  -3.225545e+01   4.187586e+01
  -2.442416e+01  -4.926609e+00
   7.318246e+00  -2.147148e+01
   1.729613e+01  -1.703104e+01
  -6.363215e+00  -2.478053e+00
  -4.190736e+01  -1.312565e+01
  -2.164136e+01  -1.598436e+01
   3.959038e+01  -2.203668e+01
   5.830155e+01   1.252986e-01
   5.835986e+01   2.942892e+01
  -1.707514e-01   4.686677e+01
  -5.711769e+01   4.049876e+01
  -5.676152e+01   4.392934e+00
  -1.872211e+01  -2.018185e+01
   2.387804e+01  -2.218276e+01
   3.239029e+01   2.261189e+00
   9.938788e+00   3.403938e+01
  -1.042291e+01   2.116096e+01
  -4.586243e+01  -5.322768e+00
  -3.148196e+01  -1.713641e+01
  -2.119193e+01  -2.538421e+01
  -1.930208e+01  -9.399422e+00
  -2.644058e+01  -4.763231e+00
  -2.862822e+01  -3.623697e+01
   1.592984e+01  -6.158217e+01
   5.233035e+01  -7.438510e+01
   9.479673e+01  -8.515538e+00
   7.207125e+01   5.530759e+01
   6.362856e+00   5.306117e+01
  -2.888174e+01   2.700572e+01
  -3.036039e+01   3.036993e+00
   2.964134e+01  -1.049440e+01
   6.350622e+01   2.569004e+01
   3.337439e+01   5.251110e+01
  -5.061623e+01   6.512776e+01
  -8.776117e+01   3.880555e+01
  -6.568566e+01  -1.986675e+01
  -4.806636e+00  -3.478918e+01
   3.763280e+01  -1.658617e+01
   2.108361e+01   4.402200e+00
  -1.852343e+01   1.801125e+01
  -4.373274e+01  -1.240954e+00
   7.669268e-01  -3.908389e+01
   2.376337e+01  -7.042448e+01
   5.682287e+01  -3.093606e+01
   4.469101e+01   3.843543e+01
  -1.759903e-01   1.060421e+02
  -4.883447e+01   5.298981e+01
  -5.472699e+01  -6.948593e+00
  -1.153060e+01  -4.858713e+01
   1.849347e+01  -4.619459e+01
   2.993839e+01  -6.650203e+00
   1.161676e+01   1.411769e+01
   7.187312e+00   5.970112e+00
   1.050161e+00  -7.167506e+00
   1.472239e+01   1.033408e+01
   3.557804e+01   3.970963e+01
   1.079900e+01   3.986204e+01
  -2.519159e+01   2.455570e+01
  -6.275149e+01  -5.018857e+00
  -5.695741e+01  -4.642346e+01
  -5.309153e+00  -2.500960e+01
   2.751277e+01  -8.134241e+00
   2.972101e+01  -1.052920e+01
   5.768610e+00   7.243081e+00
  -1.330098e+01   8.769638e+00
  -8.791922e+00   5.378883e+00
   6.105992e+00  -2.869700e+00
  -1.614477e-02  -2.444354e+00
  -2.969543e+01  -4.331673e+00
  -3.468783e+01  -2.835425e+00
  -1.603416e+01  -4.330817e+01
   3.930757e+01  -5.010476e+01
   9.299424e+01  -1.516595e+01
   4.937877e+01   1.457360e+01
  -5.222127e+00   6.153329e+01
  -5.674018e+01   5.658808e+01
  -5.911409e+01   1.665984e+01
  -2.279848e+01  -8.510680e+00
  -1.468464e+01  -1.766114e+01
  -2.568340e+00  -6.101909e+00
  -7.245051e+00  -5.407412e+00
  -1.096191e+01  -1.884661e+01
  -6.432120e+00  -4.069046e+01
   1.349800e+01  -2.651474e+01
   2.806808e+01  -5.163834e-01
   3.546083e+01   4.799412e+01
   8.099754e+00   4.445477e+01
  -3.081183e+01   9.452339e+00
  -5.183662e+01  -3.248951e+01
  -1.908911e+01  -4.038061e+01
   3.373081e+01  -3.198647e+01
   4.083554e+01   1.656188e+00
   2.362013e+01   3.267519e+01
  -1.958528e+01   2.866353e+01
  -2.122014e+01   1.390540e+01
   1.116706e+01  -5.515545e+00
   3.600768e+01  -5.555542e+00
   5.746552e+00   1.037094e+01
  -4.099684e+01   2.935951e+01
  -5.125022e+01   1.292732e+01
  -2.675058e+01  -3.650874e+00
  -1.642258e+00  -5.200646e+01
   3.370071e+01  -2.447119e+01
   2.071019e+01  -6.099991e+00
   8.064497e+00   2.562687e+01
  -8.804568e+00   2.080731e+01
  -1.536333e+01  -4.488501e+00
  -1.151074e+01  -2.062333e+01
   2.165719e+00  -2.085530e+01
   1.407657e+01  -1.275754e+00
   1.985826e+01   1.421208e+01
   1.078081e+01   5.116707e+00
  -3.623170e+00  -9.552146e+00
  -2.115283e+00  -6.858213e+00
   2.748612e+00   1.717344e+01
   1.692598e+00   2.829016e+01
  -1.502506e+01   1.671492e+01
  -1.909522e+01  -5.907201e+00
  -1.590337e+00  -3.209847e+01
   1.919791e+01  -1.016164e+01
   2.681335e+01   1.599432e+01
   1.236957e+01   2.651483e+01
  -2.778056e+01   1.768251e+01
  -3.274159e+01  -4.970102e+00
  -2.230112e+01  -2.023866e+01
   1.069187e+01  -2.141757e+01
   3.352595e+01  -8.580472e+00
   1.161496e+01  -2.834703e+00
  -9.600227e+00   1.656321e+00
  -1.333071e+01  -1.791357e+00
   1.619871e+01  -1.077044e+01
   3.659194e+01  -1.808968e+01
