
 $NMID
 id='ANONYMOUS ', fmtdat='(2E16.6)'
 volume=1.0
 tramp=1.0
 $END
  -1.674526e+03   2.635432e+02
  -4.616561e+02  -2.832927e+02
   8.639307e+01  -7.645501e+02
   5.213531e+02  -3.825663e+02
   2.112233e+02  -2.505356e+02
  -4.899976e+01  -1.504709e+02
  -8.511050e+01  -6.702631e+01
   1.036325e+01  -6.029889e+01
   2.890776e+02  -2.222359e+02
   2.590998e+02  -5.146540e+01
   5.977857e+01   1.849225e+02
   3.254222e+01   3.061136e+02
  -4.280584e-01   5.761302e+01
  -9.242587e+01  -9.126985e+01
   1.340373e+02  -3.315144e+02
   1.934191e+02  -4.707513e+01
   9.485085e+01   1.472133e+02
  -5.187237e+00   3.180833e+02
  -1.560279e+02   1.026157e+02
  -1.442198e+02  -1.381673e+02
   6.387280e+00  -1.966480e+02
   5.484917e+01  -7.898255e+01
   3.137997e+01  -1.050747e+01
  -8.896201e+01  -4.503979e+01
  -1.296828e+02  -5.744743e+01
   5.365097e+01  -1.579974e+02
   2.088696e+02  -1.397705e+02
   2.191735e+02   1.582012e+02
   1.423745e+00   1.816289e+02
  -1.079202e+02   1.143186e+02
  -2.284059e+02  -1.544452e+01
  -3.015141e+01  -9.654898e+01
   1.106653e+02  -1.527003e+02
   1.477783e+02  -7.784863e+01
   1.435112e+02   6.941697e+01
   2.756601e+01   9.484491e+01
   5.035535e+01   2.541122e+01
   8.865069e+00  -5.378199e+01
   9.168118e+01  -7.976728e+01
   1.229782e+02   4.992858e+01
   1.122320e+02   2.317104e+02
  -5.129131e+01   1.062300e+02
  -9.061476e+01  -8.160531e+01
  -4.965411e-01  -1.057104e+02
   3.518839e+01  -7.073498e+01
   7.588357e+01   1.507890e+02
  -3.071983e+01   7.957666e+01
  -1.231034e+02  -8.622236e+00
  -1.584917e+02  -1.942848e+02
  -6.832738e+01  -1.464047e+02
   1.807788e+02  -9.629241e+01
   1.780134e+02   4.581546e+01
   1.338789e+02   1.349770e+02
  -7.685888e+00   1.996370e+01
  -4.006070e+01   7.027456e+01
  -4.421470e+01   1.611995e+00
   1.032024e+01  -1.595411e+01
   6.905193e+01   4.903094e+01
  -4.707371e+01   9.443068e+00
  -7.527154e+01  -4.192249e+01
  -2.852245e+01  -4.170354e+01
   7.280633e+01  -1.002751e+02
   1.184948e+02  -3.207564e+01
   1.019445e+02   3.666948e+01
   1.414879e+01   9.918048e+01
  -7.714992e+01   1.643879e+02
  -1.648352e+02   8.178124e+01
  -7.824299e+01  -4.883114e+01
  -4.400186e+01  -2.097278e+02
   4.487433e+01  -8.638389e+01
  -6.276551e-01  -6.180992e+01
   2.584588e+01  -3.369417e+01
   4.335126e+01  -2.570631e+01
   8.953592e+01   1.369126e+01
   8.614868e+01   6.189832e+01
   1.319158e+01   4.511576e+01
  -6.297449e+01   7.814519e+01
  -4.349033e+01  -1.971066e+01
  -7.577128e+01  -6.847652e+01
   9.250688e+00  -6.985434e+01
   1.165727e+02  -2.258997e+01
   1.619718e+02   8.773081e+01
   7.311187e+01   1.163016e+02
  -4.416136e+01   9.185243e+01
  -7.377981e+01   5.204072e+01
  -2.516361e+01   3.600807e+01
  -5.607922e+01   4.415653e+01
  -1.098418e+02   3.657606e+01
  -1.481701e+02  -3.506189e+01
  -1.521811e+02  -7.631716e+01
  -1.504503e+01  -1.362321e+02
   1.279117e+02  -1.304988e+02
   1.036662e+02  -8.527406e+01
   1.079662e+02   3.900545e+01
   1.438865e+01   8.389108e+01
  -1.840172e+01   4.825296e+01
  -7.033019e+00   7.024397e+00
   6.130020e+01  -1.783713e+00
   6.130499e+01   8.195044e+00
  -1.448279e+01   5.895083e+01
  -3.476001e+01   3.996350e+01
  -4.563053e+01  -2.785240e+01
   1.326027e+01  -2.981856e+01
   4.739543e+01  -1.460123e+00
   6.454917e+01   9.144349e+01
  -1.145939e+01   1.242882e+02
  -5.446031e+01   1.003109e+02
  -1.125085e+02  -4.299464e+00
  -9.331452e+01  -4.811855e+01
  -4.091550e+01  -1.237532e+02
   3.740793e+01  -3.804787e+01
   5.078134e+01  -4.321174e+00
   1.004790e+01   7.434090e+00
  -1.712101e+01  -2.847277e+01
   1.079453e+01  -5.148972e+01
   5.312429e+01  -2.039318e+01
   3.192310e+01   8.073170e+00
   2.885343e+01   3.235330e+01
  -4.182792e+01  -2.357908e+00
  -1.097455e+01  -3.522110e+01
   3.551453e+01  -3.340286e+01
   8.738656e+01   2.216359e+01
   9.598227e+01   6.946025e+01
   1.052508e+01   8.336424e+01
  -1.188499e+02   1.010996e+02
  -9.895559e+01   6.118784e+01
  -3.542347e+01  -3.161255e+01
   1.724097e+01  -1.490585e+01
   2.474139e+01   1.168760e+00
  -1.514574e+01   2.867005e+01
  -5.893658e+01   2.033870e+00
  -7.986265e+01  -2.544403e+01
  -8.146157e+00  -6.290378e+01
   3.411566e+01  -3.989236e+01
   4.479322e+01   4.512092e+00
   2.017724e+01   1.821465e+01
  -1.611409e+01  -6.703920e+00
  -1.175834e+01  -4.199002e+01
   2.390761e+01  -2.127407e+01
   7.745340e+01   1.816859e+01
   4.715305e+01   3.783968e+01
   8.762850e+00   7.256775e+01
  -6.786607e+01   4.507805e+01
  -7.762724e+01  -2.328187e+00
  -1.498791e+01  -3.505551e+01
   1.185174e+01  -2.777596e+01
   2.287919e+01  -2.004095e+00
  -3.932585e+00   7.059790e+00
  -1.483819e+01   2.988700e+00
   1.745527e+00  -5.161202e+00
   2.791726e+01  -1.471219e+00
   3.645731e+01   3.311136e+01
  -8.195501e-02   7.780031e+01
  -5.781630e+01   4.444886e+01
  -1.013618e+02  -4.807542e+00
  -9.001828e+01  -6.376861e+01
  -5.548696e+00  -9.544976e+01
   1.652098e+01  -2.189911e+01
   4.387160e+01  -1.222342e+01
   2.636092e+01   1.734128e+00
   7.444833e+00   4.794743e+00
   2.682622e+01  -3.971701e+00
   3.122197e+01  -4.742848e+00
   2.053523e+01   2.146740e+01
  -2.628996e+01   4.990459e+01
  -3.834076e+01   1.469418e+01
  -3.655857e+01  -7.712302e+00
   7.168936e+00  -4.514650e+01
   6.645559e+01  -3.329953e+01
   6.810355e+01   3.117362e+01
   6.279892e+01   7.074257e+01
  -5.140012e+01   7.633428e+01
  -9.781840e+01   2.257491e+01
  -1.010842e+02  -3.291784e+01
  -2.233954e+01  -6.103651e+01
   1.494945e+01  -3.217229e+01
   4.103749e+01  -4.270830e+01
   3.066531e+01  -2.913348e+01
   3.023167e+01  -2.611567e+01
   2.480850e+01  -2.761661e+01
   3.527417e+01  -5.832584e+00
   4.904287e+01   6.644143e+01
   1.309163e+01   9.388926e+01
  -2.771206e+01   6.264061e+01
  -4.831195e+01   3.703282e+00
  -4.666475e+01  -5.432167e+01
  -5.852320e+00  -7.200325e+01
   2.559304e+01  -4.199591e+01
   1.820215e+01   3.588394e+00
  -2.648323e+00   1.695644e+01
  -6.886338e+00   1.538512e+01
   3.051895e+00   2.011793e+00
   2.270793e+01   5.195926e+00
   1.784132e+01   1.880594e+01
  -3.001114e+01   2.203450e+01
  -5.764283e+01   6.316785e+00
  -5.986551e+01  -1.918676e+01
  -7.520348e-01  -3.266463e+01
   5.411525e+01  -4.223454e+01
   5.277136e+01  -5.197357e+00
   1.952333e+01   1.767486e+01
  -1.831725e+01   2.163480e+01
  -2.427845e+01  -8.662940e+00
  -1.240373e+01  -1.903152e+01
   1.421157e+01  -2.270872e+01
   3.635482e+01   7.588560e+00
   2.880513e+01   1.319731e+01
   1.261999e+01   1.696957e+01
   1.563915e+01   3.661707e+00
   1.910232e+01  -3.052047e+00
   2.056971e+01   2.486675e+01
  -1.489361e+01   7.807974e+01
  -4.459285e+01   6.150760e+01
  -7.898001e+01   9.132386e+00
  -5.456193e+01  -2.992137e+01
  -7.182334e+00  -4.597731e+01
   3.190230e+01  -2.156359e+01
   2.852941e+01   2.659698e-01
  -2.375720e+01   8.341132e+00
  -4.821391e+01  -1.906701e+01
  -2.412656e+01  -3.495384e+01
   3.198802e+01  -6.066167e+01
   7.746729e+01  -2.575049e+01
   4.449945e+01   1.684932e+01
   1.135056e+01   2.900016e+01
  -2.164704e+01   1.493565e+01
  -1.497973e+01   4.466505e+00
   1.473411e+01  -1.030458e+01
   3.676366e+01   4.800220e+00
   1.806599e+01   2.877044e+01
  -7.863384e+00   6.859824e+01
  -4.452158e+01   3.100540e+01
  -4.379434e+01  -2.439625e+01
  -9.606541e+00  -8.721496e+01
   2.943329e+01  -3.573968e+01
   4.259212e+01   7.555954e+00
   1.044916e+01   4.357389e+01
  -5.287652e+00   3.636514e+01
  -2.145925e+01   6.975878e+00
  -1.400679e+01  -6.837946e+00
  -5.687382e+00  -7.259728e+00
  -1.949492e+00   7.574943e+00
  -9.402259e+00  -6.148785e+00
  -1.800688e+01  -4.230830e+01
  -1.133012e+01  -4.514264e+01
   1.912736e+01  -1.819380e+01
   5.773811e+01   1.351140e+01
   6.028912e+01   3.504222e+01
   4.111726e+00   1.417409e+01
  -2.051149e+01   6.629256e+00
  -2.619621e+01   8.736984e+00
  -2.269994e+00  -4.585468e+00
   1.224775e+01  -8.476709e+00
   7.681972e+00  -4.244883e+00
  -4.872748e+00   9.706441e-01
   4.518991e-02   1.908074e+00
   2.591079e+01   4.773018e+00
   3.643079e+01  -1.794554e+00
   1.219069e+01   3.369336e+01
  -3.441869e+01   2.436285e+01
  -6.993487e+01   2.425793e+01
  -4.533226e+01  -3.851184e+00
  -6.672908e+00  -4.202115e+01
   4.708635e+01  -4.625551e+01
   5.212867e+01  -2.491230e+01
   1.400862e+01   5.686146e+00
   9.112177e+00   1.289425e+01
   6.166200e-01   4.965794e+00
   5.135574e+00   1.341803e+00
   7.630681e+00   1.350634e+01
   8.834934e+00   3.511108e+01
  -1.179937e+01   2.650837e+01
  -3.219112e+01   2.141615e+00
  -2.227503e+01  -4.158629e+01
  -1.361313e+01  -3.869706e+01
   3.292807e+01  -9.607273e+00
   4.190533e+01   2.738268e+01
   1.858256e+01   2.633185e+01
  -2.920976e+01   2.572394e+01
  -2.850618e+01   2.837811e+00
  -2.256770e+01  -2.700696e+01
   1.239740e+01  -2.323274e+01
   1.616680e+01  -1.276426e+01
  -9.762351e+00   2.358948e+00
  -2.664561e+01  -8.713427e-02
  -5.935876e+00  -7.817601e+00
   2.266822e+01  -2.068681e+01
   3.813721e+01  -2.222188e+01
   2.547986e+01   2.201897e+00
  -9.519010e-01   3.876179e+01
  -1.654260e+01   2.452495e+01
  -1.780905e+01   1.976636e+00
  -7.396163e+00  -1.831755e+01
   2.155085e+00  -1.468792e+01
   1.370902e+01   6.074533e+00
   9.038726e+00   1.719221e+01
   1.953992e+00   1.609557e+01
  -1.257799e+01   1.366138e+00
  -1.652806e+01  -5.244910e+00
  -7.889876e+00  -6.066294e-01
   2.451347e+00   7.058643e+00
   4.644893e+00   2.177595e+00
  -1.531796e+00  -1.232040e+01
   3.613337e+00  -2.225520e+01
   8.792136e+00  -8.248786e+00
   2.240140e+01   8.431197e+00
  -1.596179e+00   2.458687e+01
  -1.495619e+01   1.035969e+01
  -2.047510e+01  -1.461085e+01
  -9.462366e+00  -2.405724e+01
   1.875973e+01  -1.506968e+01
   3.137020e+01   1.223023e+01
   2.034785e+01   1.629043e+01
  -8.340980e+00   1.671873e+01
  -2.634246e+01   7.909898e+00
  -8.266125e+00   4.017293e+00
   9.928934e+00  -9.128889e-01
   1.358442e+01   1.944420e+00
  -1.376202e+01   1.491187e+01
  -3.476076e+01   1.662450e+01
