
 $NMID
 id='ANONYMOUS ', fmtdat='(2E16.6)'
 volume=1.0
 tramp=1.0
 $END
   2.430277e+03  -7.427812e+01
   1.343545e+03   1.399994e+03
   6.763470e+01   1.278595e+03
  -6.079820e+02   1.165886e+03
  -7.978678e+02   4.448569e+02
  -3.073220e+02  -2.925575e+00
   1.874087e+02   4.955206e+00
   2.418556e+02   3.583146e+02
  -8.433953e+01   3.621686e+02
  -3.105242e+02   1.735660e+02
  -2.515342e+02  -3.433668e+02
  -1.047026e+02  -3.688828e+02
   4.687401e+01  -9.047244e+01
   1.349719e+02   2.403553e+02
   3.170001e+01   3.874320e+02
  -2.612445e+02   6.421760e+01
  -2.857783e+02  -3.625218e+02
   1.074568e+00  -4.567174e+02
   2.875805e+02  -2.370106e+02
   3.407388e+02   9.410777e+01
   1.549635e+02   2.761582e+02
  -6.219905e+01   1.683663e+02
  -2.355040e+01   9.142816e+01
   1.674732e+02   1.055887e+02
   1.941791e+02   2.403104e+02
  -7.011171e+01   3.148223e+02
  -3.880998e+02   9.887525e+01
  -4.002329e+02  -1.163276e+02
  -1.009080e+02  -1.766552e+02
   2.965507e+02  -1.046178e+02
   2.756890e+02   1.867891e+02
   1.262762e+02   3.360337e+02
  -2.337813e+02   2.701765e+02
  -3.195555e+02   8.862302e+01
  -2.446480e+02  -1.089252e+02
  -3.699929e+01  -1.881340e+02
  -2.094185e+01  -5.448266e+01
  -6.374058e+01   1.267634e+02
  -9.896671e+01  -1.180374e+01
  -1.550920e+02  -1.907326e+02
   9.266013e+00  -2.430047e+02
   2.384519e+02  -2.371794e+02
   2.902990e+02   3.977703e+01
   3.738846e+01   1.861330e+02
  -5.915583e+01   3.682396e+01
   2.500593e+01  -1.857662e+02
   1.238599e+02  -2.529869e+02
   2.648576e+02  -1.056604e+02
   3.620283e+02   1.758624e+02
   9.520252e+01   2.790783e+02
  -2.184995e+02   2.021910e+02
  -2.867158e+02   1.187739e+01
  -2.444986e+02  -1.538760e+02
  -1.255957e+01  -1.296473e+02
   1.902208e+02  -1.165228e+02
   1.424150e+02  -1.765784e+01
   7.448587e+01  -2.173718e+00
   1.116426e+01   4.310601e+01
   5.969651e+01  -2.566959e+01
   7.689670e+01   2.445252e+01
   8.593251e+01   1.236037e+02
  -5.559336e+01   1.888970e+02
  -2.674340e+02   6.722847e+01
  -2.107416e+02  -6.969895e+01
  -2.701859e+01  -2.672570e+02
   2.403884e+02  -3.075388e+02
   2.277781e+02  -1.558700e+02
   1.646458e+02   1.131867e+02
   5.127001e+01   2.588153e+02
   1.477106e+01   1.770399e+02
   4.715764e+01   1.426758e+02
   1.543277e+00   1.048150e+02
  -1.212944e+02   1.016841e+02
  -1.911858e+02   1.532531e+01
  -1.728381e+02  -1.097488e+02
  -4.763370e+01  -1.801724e+02
   8.661001e+01  -1.614260e+02
   1.037562e+02   4.512048e+01
   8.102558e+01   1.806984e+02
  -4.625936e+01   1.611322e+02
  -1.509645e+02   3.795395e+01
  -2.213152e+02  -1.484238e+02
  -1.019313e+02  -2.193064e+02
   2.032653e+01  -2.064891e+02
   1.040642e+02  -1.531893e+02
   1.073687e+02  -6.848451e+01
   1.104643e+02  -5.258323e+01
   2.125266e+02  -3.316892e+01
   2.950562e+02   5.592350e+01
   2.438112e+02   1.818326e+02
  -3.615596e+01   3.419226e+02
  -2.111643e+02   3.320198e+02
  -3.210339e+02   1.633645e+02
  -2.035492e+02  -8.495589e+01
   1.432845e+01  -1.732902e+02
   7.026021e+01  -9.121980e+01
  -2.490235e+01  -3.307534e+01
  -9.374713e+01   2.221567e+01
  -7.694557e+01  -4.205624e+01
  -5.320935e+00  -8.380769e+01
   5.130909e+01  -9.787864e+01
   5.632186e+01   3.068371e+01
  -1.269544e+01   6.722584e+01
  -1.048470e+02   1.895591e+01
  -1.169965e+02  -1.496409e+02
  -2.085124e+01  -2.505284e+02
   1.593431e+02  -1.557847e+02
   2.591739e+02   4.234959e+01
   1.908184e+02   1.551837e+02
   6.842793e+01   1.924407e+02
  -8.807689e+01   1.336272e+02
  -1.059113e+02   2.859169e+01
  -1.361348e+01  -2.252898e+00
   2.609573e+01   5.947325e+01
  -1.223594e+01   9.266862e+01
  -7.100180e+01   4.653460e+01
  -7.288953e+01  -1.487238e+01
  -1.829835e+01  -3.621127e+01
   6.015243e+01   1.578350e+01
   2.560110e+01   7.907685e+01
  -1.047296e+02   8.013008e+01
  -2.318677e+02  -2.388912e+00
  -2.009981e+02  -1.215968e+02
   6.313437e+00  -1.916791e+02
   1.852393e+02  -1.820751e+02
   1.994534e+02  -8.441231e+01
   9.538860e+01   3.319642e+01
  -3.708315e+01   4.813441e+01
  -3.264277e+01   2.317759e+00
   3.645485e+01  -5.482624e+01
   1.433604e+02  -1.833067e+01
   1.268966e+02   9.302510e+01
   2.855309e+01   1.231238e+02
  -7.065023e+01   1.024308e+02
  -8.134197e+01   2.216648e+01
  -1.786608e+01  -3.095552e+01
   3.466076e+01   2.351294e+01
   2.607973e+01   7.338847e+01
  -7.523411e+01   8.140679e+01
  -1.674863e+02   6.050008e+00
  -1.211708e+02  -1.067880e+02
  -1.572589e+01  -1.703064e+02
   9.362025e+01  -9.894121e+01
   1.146658e+02  -1.804485e+01
   4.802144e+01   5.437921e+01
  -6.164679e+01   5.878079e+01
  -3.923675e+01   2.290191e+01
   7.863210e+00  -2.137350e+01
   3.271783e+01  -1.319267e+00
  -5.251985e+00   2.787257e+01
  -7.157100e+01   7.005036e+00
  -8.763104e+01  -8.502539e+01
   1.849459e+01  -1.358837e+02
   1.070713e+02  -1.329873e+02
   1.857936e+02   2.197277e+01
   1.361352e+02   1.403449e+02
   6.026241e+01   1.556954e+02
  -8.369368e+01   1.195768e+02
  -8.866164e+01   4.086549e+01
  -5.111064e+01  -3.183807e+01
  -2.481640e+01  -2.185844e+01
  -3.670899e+01   1.724688e+01
  -6.961599e+01   9.743160e+00
  -4.710629e+01  -4.267011e+01
   1.756570e+01  -9.340253e+01
   9.441098e+01  -7.016988e+01
   9.385944e+01   2.954955e+01
  -1.474682e+01   1.061852e+02
  -1.113827e+02   6.595696e+01
  -1.754267e+02  -6.417085e+01
  -5.108274e+01  -1.670096e+02
   9.324669e+01  -1.908724e+02
   1.911589e+02  -7.952051e+01
   1.597537e+02   7.199306e+01
   5.892876e+01   1.344219e+02
  -2.938028e+01   9.965124e+01
  -5.928751e+01   5.953968e+01
  -4.120040e+01   4.960833e+01
  -3.182597e+01   7.616486e+01
  -6.001377e+01   6.699388e+01
  -9.381187e+01  -1.120921e+01
  -9.556112e+01  -1.309194e+02
  -4.508898e+01  -1.613309e+02
   7.102295e+01  -1.110624e+02
   1.202607e+02   6.378590e-01
   9.184011e+01   7.196291e+01
  -5.815988e+00   1.190468e+02
  -5.438340e+01   4.364349e+01
  -5.546694e+01  -1.355018e+01
   2.555977e+00  -4.654586e+01
   3.156942e+01  -3.182798e+01
  -1.604544e+01  -6.763544e+00
  -6.689605e+01   2.708314e+00
  -3.644993e+01  -3.040898e+01
   5.380610e+01  -3.123185e+01
   1.374680e+02   4.897892e-01
   1.143859e+02   4.931147e+01
  -9.617601e+00   7.601902e+01
  -9.667529e+01   6.309922e+01
  -1.047838e+02   3.119665e+00
  -2.901133e+01  -4.228667e+01
   4.246338e+01  -3.470965e+01
   6.306359e+01   2.495824e+00
   2.373505e+01   5.724532e+01
  -2.983858e+01   5.247100e+01
  -5.217097e+01   3.326303e+00
  -4.942118e+01  -3.135818e+01
  -3.243397e+01  -3.778730e+01
  -3.639693e+01  -2.638013e+00
  -4.589784e+01   1.900762e-01
  -4.532647e+01  -5.227004e+01
   1.279966e+01  -1.099264e+02
   8.414539e+01  -1.229827e+02
   1.482279e+02  -3.427529e+01
   9.695516e+01   6.442509e+01
   9.159541e+00   1.076124e+02
  -6.740076e+01   5.970020e+01
  -4.563758e+01  -3.528061e+00
   4.342545e+01  -1.420001e+01
   1.042857e+02   2.491851e+01
   5.478358e+01   7.718282e+01
  -6.505653e+01   7.675803e+01
  -1.444800e+02   4.517824e+01
  -1.134167e+02  -3.457872e+01
  -2.655258e+01  -5.742118e+01
   4.600174e+01  -4.708433e+01
   3.950330e+01   5.285440e+00
  -3.002701e+01   2.765028e+01
  -6.715972e+01  -9.320402e+00
  -4.275189e+01  -7.070967e+01
   5.766430e+01  -1.446911e+02
   1.148253e+02  -6.099527e+01
   9.603738e+01   5.653910e+01
   2.537324e+01   1.163313e+02
  -4.441755e+01   9.866503e+01
  -7.624789e+01  -1.128625e+01
  -3.956365e+01  -9.638115e+01
  -5.820086e-01  -7.775602e+01
   3.590140e+01  -6.130335e+00
   3.265570e+01   2.043986e+01
   8.206631e+00   4.211553e+00
   6.677820e+00  -1.607709e+01
   2.872561e+01   1.620537e+01
   4.380051e+01   6.416397e+01
   3.097422e+01   7.040426e+01
  -3.548846e+01   3.498959e+01
  -1.084059e+02  -3.608891e+01
  -8.320809e+01  -5.803738e+01
  -1.220906e+01  -4.164960e+01
   5.085364e+01  -2.148637e+01
   6.399402e+01  -1.037306e+01
   1.659285e+01   1.071156e+01
  -2.347428e+01   1.710683e+01
  -1.876981e+01   6.666857e+00
   6.695645e+00  -4.386061e+00
  -1.303247e+00  -2.900587e+00
  -4.649848e+01   3.396897e+00
  -7.298373e+01  -1.660013e+01
  -2.683584e+01  -6.704234e+01
   6.205433e+01  -1.041066e+02
   1.345342e+02  -6.864106e+01
   1.194191e+02   1.848923e+01
   3.960007e+01   1.040631e+02
  -4.429389e+01   1.288407e+02
  -8.281017e+01   6.247833e+01
  -6.539131e+01  -7.534030e+00
  -2.365594e+01  -2.635311e+01
  -2.706842e+00  -1.034524e+01
  -1.138190e+01  -6.395671e+00
  -1.996502e+01  -3.548714e+01
  -1.142005e+01  -6.087857e+01
   1.225143e+01  -5.087547e+01
   5.252694e+01   4.070218e+00
   6.625817e+01   7.073956e+01
   2.335656e+01   8.254348e+01
  -5.694995e+01   2.482711e+01
  -8.242241e+01  -4.063254e+01
  -3.452813e+01  -8.163570e+01
   4.411973e+01  -4.358937e+01
   7.272584e+01   3.121233e+00
   4.159760e+01   3.229454e+01
  -2.607069e+01   5.074317e+01
  -2.869408e+01   2.159435e+01
   1.274345e+01  -3.202967e+00
   5.058502e+01  -1.464875e+01
   1.568736e+01   1.850043e+01
  -4.410216e+01   5.225049e+01
  -8.991662e+01   2.953576e+01
  -5.106234e+01  -6.629657e+00
   8.074367e+00  -6.759852e+01
   3.927798e+01  -6.377427e+01
   3.258964e+01  -1.564413e+01
   1.382063e+01   3.385845e+01
  -7.425407e+00   4.062116e+01
  -3.279354e+01  -3.974210e+00
  -2.656974e+01  -3.593391e+01
  -5.053075e+00  -3.024557e+01
   2.627308e+01  -1.314343e+00
   3.702374e+01   1.643081e+01
   1.729719e+01   4.574077e+00
  -5.387801e+00  -1.689652e+01
  -7.142635e+00  -1.099469e+01
   9.420098e+00   2.093755e+01
   8.768904e+00   4.139719e+01
  -1.811524e+01   1.980526e+01
  -3.686866e+01  -1.628907e+01
  -2.602183e+01  -3.774482e+01
   2.862539e+01  -1.955500e+01
   5.702739e+01   1.677598e+01
   1.991402e+01   3.688269e+01
  -3.879276e+01   2.910506e+01
  -7.138988e+01  -2.676259e+00
  -3.715201e+01  -3.386579e+01
   1.687193e+01  -3.658068e+01
   4.802066e+01  -3.443482e+01
   2.114550e+01  -6.870725e+00
  -1.802352e+01   8.368900e+00
  -2.662431e+01  -5.061749e+00
   1.414342e+01  -1.750981e+01
   4.997389e+01  -2.241934e+01
