
 $NMID
 id='ANONYMOUS ', fmtdat='(2E16.6)'
 volume=1.0
 tramp=1.0
 $END
  -3.459184e+03  -1.660395e+02
  -2.157691e+03  -2.006218e+03
   1.104595e+02  -2.065275e+03
   1.006807e+03  -1.117681e+03
   9.092757e+02   3.579160e+01
  -1.116545e+02   4.023354e+02
  -3.698931e+02  -2.255808e+02
  -5.551150e+01  -6.641220e+02
   4.933007e+02  -5.292767e+02
   6.448924e+02   4.420993e+01
   4.015905e+02   6.418984e+02
  -5.808559e+01   5.767783e+02
  -3.773424e+02   6.349690e+01
  -1.879091e+02  -4.091063e+02
   1.007930e+02  -4.738951e+02
   4.562917e+02   4.001459e-02
   2.270982e+02   4.998541e+02
  -2.202276e+02   5.257530e+02
  -4.724646e+02   1.989518e+02
  -4.087050e+02  -1.946324e+02
  -9.938348e+01  -3.132967e+02
   1.513203e+02  -2.421671e+02
   1.286615e+02  -1.349076e+02
  -1.626194e+02  -6.652938e+01
  -2.837894e+02  -2.181790e+02
  -6.868524e+01  -4.557786e+02
   4.459720e+02  -2.842091e+02
   7.102852e+02   2.605543e+02
   3.109073e+02   3.644755e+02
  -3.413649e+02   2.312655e+02
  -5.747372e+02  -1.086678e+02
  -1.597167e+02  -3.951249e+02
   2.722752e+02  -3.900753e+02
   4.336669e+02  -1.129329e+02
   2.941498e+02   1.688224e+02
   7.539181e+01   3.153507e+02
  -7.862103e+01   1.486761e+02
   5.003691e+00  -1.285504e+02
   1.585830e+02  -2.009349e+02
   3.222831e+02   1.071341e+02
   1.133217e+02   4.684904e+02
  -2.389312e+02   3.134273e+02
  -3.685523e+02  -8.926264e+01
  -7.635033e+01  -4.129104e+02
   1.187646e+02  -1.975354e+02
   1.813283e+02   2.798197e+02
  -9.256746e+01   3.763145e+02
  -4.556326e+02   1.083553e+02
  -4.208769e+02  -2.902810e+02
  -4.969765e+01  -4.977744e+02
   2.979276e+02  -2.268781e+02
   4.981557e+02   8.445021e+01
   2.299900e+02   3.039560e+02
  -7.826566e+01   1.965055e+02
  -2.817329e+02   7.638484e+01
  -1.422796e+02  -7.913288e+01
   3.185099e+01  -4.919860e+01
   5.791457e+01   7.564152e+01
  -8.462954e+01   9.209397e+01
  -2.388613e+02  -9.409547e+01
  -1.023858e+02  -1.969910e+02
   2.017425e+02  -2.515378e+02
   3.172330e+02  -6.986156e+01
   2.375834e+02   7.147811e+01
  -3.071778e+01   2.443126e+02
  -2.356794e+02   3.748649e+02
  -3.468494e+02   2.009328e+02
  -2.450814e+02  -1.696642e+02
  -5.251139e+01  -2.943000e+02
   1.010703e+02  -2.921195e+02
   5.127282e+01  -1.305768e+02
   1.177748e+01  -7.503020e+01
   1.283805e+02  -7.111388e+01
   2.271380e+02  -7.093063e+01
   2.274622e+02   1.258861e+02
   1.238746e+02   2.647014e+02
  -1.201369e+02   1.926305e+02
  -1.562903e+02  -2.453511e+01
  -1.016252e+02  -2.275409e+02
   5.022846e+01  -2.933372e+02
   2.499056e+02  -7.641513e+01
   2.923099e+02   1.784986e+02
   1.242892e+02   3.070525e+02
  -6.924188e+01   2.271823e+02
  -1.690752e+02   1.174242e+02
  -1.303088e+02   7.603382e+01
  -1.190943e+02   6.220989e+01
  -2.043527e+02   2.942861e+01
  -3.669409e+02  -6.658079e+01
  -3.252157e+02  -2.592989e+02
   5.805196e+01  -3.933381e+02
   2.714196e+02  -3.223696e+02
   4.216824e+02  -2.047750e+02
   2.888661e+02   1.127477e+02
   1.506358e+01   2.588242e+02
  -8.287244e+01   1.721912e+02
  -2.000835e+01   4.361080e+01
   9.576145e+01  -5.007403e+01
   1.195566e+02   5.514317e+01
   2.516675e+01   1.471028e+02
  -1.203891e+02   1.060685e+02
  -1.000011e+02  -5.779987e+01
   2.760134e+01  -1.264181e+02
   1.364719e+02  -9.650591e+00
   1.456673e+02   2.114327e+02
  -1.492646e+01   3.166511e+02
  -2.150062e+02   1.746066e+02
  -3.363990e+02  -6.490155e+01
  -2.403193e+02  -2.222685e+02
  -6.317744e+01  -2.589115e+02
   1.237838e+02  -1.561572e+02
   1.443221e+02  -1.518226e+01
   3.557677e+01   1.378825e+01
  -4.115388e+01  -5.238217e+01
   6.660814e-01  -1.248217e+02
   1.192530e+02  -6.690088e+01
   1.406676e+02   7.834870e+00
   2.659894e+01   5.180395e+01
  -7.918915e+01  -8.635624e+00
  -3.960909e+01  -8.646601e+01
   1.479744e+02  -7.729638e+01
   2.639031e+02   2.613920e+01
   2.409062e+02   1.426227e+02
   3.643244e+01   2.590855e+02
  -1.950939e+02   1.927383e+02
  -2.500841e+02   1.131566e+02
  -1.617659e+02  -4.458321e+01
   3.526336e+01  -6.177848e+01
   5.704712e+01  -2.655062e+00
  -4.178386e+01   8.041879e+01
  -1.730099e+02   4.033089e+01
  -2.037356e+02  -8.703241e+01
  -5.866838e+01  -1.650953e+02
   9.535930e+01  -1.217316e+02
   1.015590e+02  -1.883042e+01
   4.793469e+01   3.390917e+01
  -3.267705e+01  -1.903460e+01
  -1.943734e+01  -8.650341e+01
   7.783041e+01  -9.451407e+01
   1.732724e+02  -8.065590e+00
   1.938849e+02   1.271425e+02
   2.961971e+01   2.334250e+02
  -1.581724e+02   1.379240e+02
  -1.413604e+02   2.479468e+01
  -5.492892e+01  -8.284399e+01
   6.643482e+01  -8.257123e+01
   6.735423e+01  -1.762754e+01
   6.435269e+00   2.245521e+01
  -3.425381e+01   5.141382e+00
   5.282591e+00  -2.267121e+01
   7.700418e+01  -4.883716e+00
   1.055587e+02   9.097427e+01
   2.357727e+01   1.566890e+02
  -1.390670e+02   1.437991e+02
  -2.358912e+02  -9.841547e+00
  -1.805323e+02  -1.488429e+02
  -3.510162e+01  -1.929798e+02
   9.687846e+01  -1.401468e+02
   1.210940e+02  -1.330874e+01
   5.845852e+01   2.568522e+01
   2.794053e+01   2.833575e+01
   4.888319e+01  -1.230419e+01
   8.369696e+01  -8.112756e+00
   4.494520e+01   4.624751e+01
  -4.155232e+01   9.722991e+01
  -1.109400e+02   5.936666e+01
  -8.934056e+01  -3.415062e+01
   3.679685e+00  -1.279955e+02
   1.498123e+02  -7.929490e+01
   1.884844e+02   7.363501e+01
   9.935531e+01   1.924026e+02
  -1.291416e+02   2.252825e+02
  -2.343364e+02   7.837679e+01
  -2.361240e+02  -9.601251e+01
  -6.248990e+01  -1.455326e+02
   3.575859e+01  -1.139674e+02
   8.006807e+01  -7.249430e+01
   5.130604e+01  -6.595257e+01
   4.977182e+01  -8.380106e+01
   8.155506e+01  -7.430639e+01
   1.111996e+02   2.053180e+01
   1.189934e+02   1.441054e+02
   3.751682e+00   1.991469e+02
  -7.816254e+01   1.518338e+02
  -1.349769e+02  -3.846163e+00
  -1.150226e+02  -1.068648e+02
   1.245783e+01  -1.485777e+02
   6.944647e+01  -8.368415e+01
   6.229078e+01   1.394474e+01
  -2.590369e+00   5.199463e+01
  -2.600804e+01   3.813842e+01
   2.263158e+01   1.343220e+01
   6.946856e+01   8.943233e+00
   4.355510e+01   3.978593e+01
  -6.042770e+01   3.089010e+01
  -1.568423e+02  -6.236326e+00
  -1.335162e+02  -7.199335e+01
  -5.103527e+00  -8.721163e+01
   1.398343e+02  -7.619570e+01
   1.254847e+02   3.288514e+00
   4.263886e+01   4.324578e+01
  -5.364519e+01   3.387115e+01
  -6.924184e+01  -2.206626e+01
  -1.749069e+01  -6.607627e+01
   4.862637e+01  -5.156243e+01
   5.918231e+01  -4.349159e+00
   5.511311e+01   5.224460e+01
   4.226395e+01   4.293233e+01
   5.571350e+01   1.649047e-01
   6.306660e+01   1.100603e+00
   3.397976e+01   5.796707e+01
  -2.222683e+01   1.497533e+02
  -1.061801e+02   1.439419e+02
  -1.822907e+02   3.176450e+01
  -1.201660e+02  -8.444304e+01
  -6.249812e-01  -1.341535e+02
   8.404036e+01  -6.416433e+01
   5.475945e+01   8.709399e+00
  -4.569304e+01   1.849916e+01
  -1.140970e+02  -3.994767e+01
  -7.305347e+01  -9.262341e+01
   8.482205e+01  -1.209425e+02
   1.793738e+02  -3.948375e+01
   1.482255e+02   4.265162e+01
   3.720809e+01   6.542274e+01
  -5.721330e+01   5.625533e+01
  -4.637956e+01  -4.887988e-01
   4.006447e+01  -2.403614e+01
   9.801504e+01   1.937989e+01
   3.166757e+01   9.542221e+01
  -7.671403e+01   1.616810e+02
  -1.382037e+02   5.268922e+01
  -1.110196e+02  -8.539799e+01
  -2.206821e+01  -1.797279e+02
   7.156928e+01  -1.124621e+02
   1.062996e+02   9.783248e+00
   4.817540e+01   1.080038e+02
  -1.268865e+01   9.489927e+01
  -4.220872e+01   1.816462e+01
  -3.988595e+01  -2.454316e+01
  -1.785066e+01  -9.876025e+00
  -6.192527e+00   1.889083e+01
  -2.584268e+01  -2.158871e+01
  -4.302644e+01  -8.296484e+01
  -3.367151e+01  -9.316377e+01
   5.239405e+01  -3.921186e+01
   1.310660e+02   5.018047e+01
   1.198938e+02   5.952840e+01
   1.578515e+01   5.036366e+01
  -6.267567e+01   2.504684e+01
  -7.119130e+01  -2.161688e+00
  -1.389390e+01  -6.587613e+00
   3.395454e+01  -2.164449e+01
   1.616792e+01  -1.368310e+01
  -1.426441e+01   1.458673e+00
   1.965130e+00   4.101594e+00
   6.411237e+01   1.001748e+00
   8.343539e+01   1.611750e+01
   2.594226e+01   7.686566e+01
  -9.872951e+01   9.975521e+01
  -1.923231e+02   5.092938e+01
  -1.248089e+02  -5.487030e+01
  -2.924485e+01  -1.453735e+02
   6.840179e+01  -1.243447e+02
   1.086911e+02  -5.081593e+01
   7.355148e+01   1.405929e+01
   2.807222e+01   3.512954e+01
   2.266259e+00   1.018810e+01
   1.066825e+01   6.192068e+00
   3.615206e+01   4.757929e+01
   1.481194e+01   9.294365e+01
  -2.637630e+01   7.816957e+01
  -7.852281e+01  -1.644147e+01
  -7.492326e+01  -8.947158e+01
  -1.880134e+01  -1.101944e+02
   5.960920e+01  -2.862810e+01
   1.059085e+02   6.751744e+01
   4.212832e+01   9.966243e+01
  -5.196342e+01   5.051052e+01
  -9.359194e+01   3.807303e+00
  -3.795654e+01  -4.780044e+01
   2.319977e+01  -6.305643e+01
   3.601757e+01  -2.435909e+01
  -1.851453e+01  -1.842675e-01
  -6.074905e+01   4.202903e+00
  -1.685974e+01  -2.046529e+01
   6.849335e+01  -6.348373e+01
   9.476592e+01  -4.322073e+01
   6.064957e+01   1.481148e+01
  -1.241707e+01   8.148623e+01
  -4.536289e+01   6.957677e+01
  -3.756969e+01   7.919163e+00
  -8.935977e+00  -4.571778e+01
   1.793360e+01  -4.000833e+01
   3.737190e+01   1.192408e+01
   2.641182e+01   5.367470e+01
   3.659745e-01   3.513475e+01
  -2.906006e+01  -4.295929e+00
  -3.980492e+01  -2.933908e+01
  -1.960179e+01  -2.638162e+00
   3.673805e+00   1.828598e+01
   1.036146e+01   5.731264e+00
  -2.313169e+00  -3.459194e+01
   5.518506e+00  -4.588805e+01
   2.364345e+01  -1.572599e+01
   2.883791e+01   3.477232e+01
   1.346078e+01   5.971466e+01
  -4.209932e+01   1.574936e+01
  -5.439467e+01  -3.126600e+01
  -1.323247e+01  -5.487453e+01
   5.295733e+01  -3.284386e+01
   8.214313e+01   1.804562e+01
   5.055167e+01   4.339037e+01
  -2.762739e+01   3.941613e+01
  -5.504311e+01   2.812523e+01
  -2.487267e+01   7.584957e+00
   2.837267e+01   9.631418e-01
   2.818783e+01   1.949163e+00
  -2.631577e+01   2.881035e+01
  -7.928068e+01   2.445743e+01
