
 $NMID
 id='ANONYMOUS ', fmtdat='(2E16.6)'
 volume=1.0
 tramp=1.0
 $END
   2.669077e+03   2.965955e+02
   1.595621e+03   1.692850e+03
   4.102648e+01   1.894850e+03
  -1.092225e+03   1.268102e+03
  -7.199680e+02   7.081938e+01
   8.004500e+01  -2.617734e+02
   3.720817e+02   3.557470e+01
   2.690258e+01   5.537766e+02
  -5.252494e+02   5.758471e+02
  -6.656053e+02   6.200212e+00
  -3.937914e+02  -5.100845e+02
  -7.294262e+01  -5.365226e+02
   2.337330e+02  -7.563733e+01
   2.795423e+02   3.788827e+02
  -5.294080e+01   5.150913e+02
  -4.069087e+02  -5.344298e+01
  -2.804257e+02  -4.387822e+02
   1.236590e+02  -5.727729e+02
   3.422675e+02  -2.859187e+02
   4.065172e+02   1.800782e+02
   1.183315e+02   3.192208e+02
  -1.306364e+02   1.947203e+02
  -6.871398e+01   1.576549e+02
   1.796123e+02   1.070071e+02
   3.185083e+02   2.636184e+02
  -4.930699e+01   3.935285e+02
  -4.058722e+02   1.618707e+02
  -5.115843e+02  -2.475067e+02
  -1.626097e+02  -3.768600e+02
   3.287577e+02  -1.373569e+02
   5.189680e+02   9.909356e+01
   7.861713e+01   3.970101e+02
  -3.278326e+02   3.572319e+02
  -4.514936e+02   1.140921e+02
  -2.853581e+02  -1.560255e+02
  -3.910323e+01  -2.477633e+02
   8.689385e+00  -1.509532e+02
  -1.102325e+02   1.279471e+02
  -2.124567e+02   1.244436e+02
  -1.971863e+02  -1.797670e+02
  -2.519637e+01  -4.549737e+02
   2.060565e+02  -3.696817e+02
   2.808607e+02   8.648573e+01
   2.548733e+01   3.739755e+02
  -1.563167e+02   1.109489e+02
  -1.508731e+02  -2.722309e+02
   5.688861e+01  -3.118976e+02
   4.256342e+02  -7.886458e+01
   5.050516e+02   2.856112e+02
   5.441657e+01   4.800717e+02
  -2.536800e+02   2.499709e+02
  -4.481442e+02  -6.004257e+00
  -2.899550e+02  -2.190845e+02
   5.364888e+01  -1.562348e+02
   2.122070e+02  -8.897812e+01
   1.637030e+02   4.601587e+01
   2.150649e+01   5.244026e+01
  -3.513206e+01  -6.448445e+01
   9.990481e+01  -8.255763e+01
   2.107702e+02   8.720776e+01
   1.047574e+02   1.783234e+02
  -1.323671e+02   2.313948e+02
  -3.167347e+02   7.449438e+01
  -2.552371e+02  -6.724562e+01
   1.270809e+01  -2.724067e+02
   2.757232e+02  -4.013747e+02
   3.537663e+02  -1.950590e+02
   2.132828e+02   2.030441e+02
   4.701373e+01   2.972350e+02
  -7.559412e+01   2.768870e+02
  -3.609272e+01   1.597668e+02
  -6.354003e+00   1.169829e+02
  -1.174229e+02   9.438597e+01
  -2.411840e+02   7.261046e+01
  -2.110346e+02  -1.296344e+02
  -1.190609e+02  -2.863077e+02
   9.622422e+01  -1.772488e+02
   1.672027e+02   2.528389e+01
   1.163473e+02   2.190570e+02
  -8.971556e+01   2.599121e+02
  -2.424543e+02   6.431586e+01
  -2.587204e+02  -2.003275e+02
  -1.461643e+02  -2.839141e+02
   7.396698e+01  -1.936388e+02
   1.429568e+02  -1.159861e+02
   1.259100e+02  -8.797036e+01
   1.447121e+02  -5.686389e+01
   2.083677e+02  -3.798478e+01
   4.023654e+02   1.002200e+02
   3.304921e+02   2.405443e+02
  -7.489693e+01   4.153004e+02
  -3.428112e+02   3.687748e+02
  -4.470230e+02   2.143790e+02
  -2.667748e+02  -1.018321e+02
  -1.306218e+01  -2.450574e+02
   7.405056e+01  -1.809596e+02
   1.703663e+00  -5.653529e+01
  -9.034992e+01   3.163975e+01
  -1.084673e+02  -4.984371e+01
   6.094660e+00  -1.497056e+02
   8.886927e+01  -1.177489e+02
   9.746073e+01   5.690948e+01
  -3.634655e+01   1.010713e+02
  -1.476005e+02   7.267712e+00
  -1.297256e+02  -2.332244e+02
   1.632956e+01  -3.167694e+02
   2.138527e+02  -1.971079e+02
   3.153660e+02   4.144289e+01
   3.025839e+02   2.293297e+02
   4.462793e+01   2.582868e+02
  -1.193348e+02   1.371716e+02
  -1.372531e+02   2.911349e+01
  -2.929330e+01  -1.045473e+01
   4.804792e+01   5.266486e+01
  -9.921221e+00   1.243818e+02
  -1.257188e+02   6.640157e+01
  -1.433189e+02  -1.616594e+01
  -2.876248e+01  -5.161749e+01
   7.548798e+01   1.046593e+01
   3.189038e+01   9.550748e+01
  -1.381719e+02   9.155222e+01
  -2.728573e+02  -2.616381e+01
  -2.597676e+02  -1.391314e+02
  -4.630016e+01  -2.371711e+02
   1.878598e+02  -2.228399e+02
   2.629914e+02  -1.304093e+02
   1.353556e+02   6.684237e+01
  -3.084583e+01   6.889437e+01
  -6.147185e+01   5.498508e+00
   5.093856e+01  -8.136085e+01
   1.742310e+02  -2.559248e+01
   1.914052e+02   1.096187e+02
   6.142102e+01   1.790998e+02
  -9.135573e+01   1.280547e+02
  -1.023114e+02   3.232744e+01
  -4.016871e+01  -3.728269e+01
   3.727964e+01   2.129483e+01
   2.520799e+01   9.487337e+01
  -1.018344e+02   9.585646e+01
  -2.013487e+02   1.498956e+01
  -1.847559e+02  -1.567815e+02
  -4.426992e-01  -2.098758e+02
   1.510708e+02  -1.381806e+02
   1.644734e+02  -3.039754e+01
   4.985307e+01   6.185271e+01
  -7.497602e+01   7.469545e+01
  -6.644145e+01   1.385554e+01
  -1.491445e+00  -2.744291e+01
   3.501346e+01  -4.055216e+00
  -3.207537e+00   2.844805e+01
  -8.044168e+01   1.042650e+01
  -9.976623e+01  -1.035841e+02
  -1.796066e+01  -1.686101e+02
   1.401499e+02  -1.553018e+02
   2.370996e+02   1.441206e+01
   1.722753e+02   1.433025e+02
   7.889902e+01   1.855979e+02
  -9.537231e+01   1.479979e+02
  -1.150625e+02   3.798862e+01
  -6.596892e+01  -3.088401e+01
  -2.558618e+01  -2.315628e+01
  -4.623746e+01   1.504815e+01
  -8.491314e+01   8.551799e+00
  -5.021864e+01  -5.200004e+01
   3.677793e+01  -1.058577e+02
   1.093785e+02  -7.073957e+01
   1.096470e+02   2.812717e+01
  -3.110732e+00   1.325746e+02
  -1.580639e+02   8.874705e+01
  -1.680104e+02  -7.523105e+01
  -6.853289e+01  -2.002606e+02
   1.380442e+02  -2.247653e+02
   2.550287e+02  -7.765991e+01
   2.312167e+02   8.157482e+01
   8.383622e+01   1.372830e+02
  -2.068931e+01   1.210168e+02
  -9.332929e+01   8.301160e+01
  -4.824191e+01   6.385183e+01
  -4.943498e+01   9.214639e+01
  -8.209133e+01   8.147834e+01
  -1.186022e+02  -7.071984e+00
  -1.069614e+02  -1.449622e+02
   2.109756e+00  -2.033688e+02
   8.246053e+01  -1.701537e+02
   1.536230e+02  -7.866819e+00
   1.281396e+02   9.889861e+01
  -6.415577e+00   1.460862e+02
  -7.425200e+01   8.429645e+01
  -6.129971e+01  -1.490482e+01
   8.507892e+00  -5.293851e+01
   2.706481e+01  -3.794745e+01
  -2.185892e+01  -1.115311e+01
  -7.571347e+01  -6.853496e+00
  -4.071529e+01  -3.817474e+01
   6.517341e+01  -3.330890e+01
   1.665899e+02  -1.068715e+00
   1.332158e+02   8.098682e+01
  -1.159955e+00   9.249905e+01
  -1.383734e+02   8.229185e+01
  -1.254633e+02   1.294714e+00
  -3.833406e+01  -4.860629e+01
   5.107402e+01  -4.053448e+01
   7.375549e+01   1.311976e+01
   2.399935e+01   6.756174e+01
  -4.109842e+01   5.448307e+01
  -6.122549e+01   6.536211e+00
  -5.390681e+01  -4.680326e+01
  -4.333050e+01  -4.374635e+01
  -5.258235e+01  -8.937098e-01
  -6.579901e+01   3.877067e+00
  -4.489743e+01  -6.305313e+01
   9.942375e+00  -1.512107e+02
   8.919430e+01  -1.500837e+02
   1.861731e+02  -3.899516e+01
   1.135266e+02   8.881102e+01
   1.094806e+00   1.268693e+02
  -9.053813e+01   7.340769e+01
  -5.862079e+01  -9.189091e+00
   5.072167e+01  -1.742538e+01
   1.134322e+02   3.857487e+01
   6.977458e+01   9.176005e+01
  -8.182239e+01   1.082340e+02
  -1.690837e+02   5.647873e+01
  -1.344100e+02  -3.550199e+01
  -3.394538e+01  -7.040249e+01
   6.386891e+01  -5.554585e+01
   4.359282e+01  -3.348105e-01
  -3.653407e+01   2.658345e+01
  -9.657451e+01  -1.490079e+01
  -4.864851e+01  -1.092582e+02
   8.401808e+01  -1.573545e+02
   1.441851e+02  -6.140330e+01
   1.140586e+02   8.828518e+01
   3.070615e+01   1.948738e+02
  -6.525361e+01   1.332071e+02
  -1.079130e+02  -5.090300e+00
  -5.138543e+01  -1.051844e+02
   4.103136e+00  -9.929283e+01
   4.634018e+01  -1.732872e+01
   4.390005e+01   2.857851e+01
   1.402439e+01   6.149668e+00
   6.794552e+00  -1.622426e+01
   2.674791e+01   1.978121e+01
   5.153169e+01   8.579430e+01
   3.054073e+01   9.786486e+01
  -5.413842e+01   3.889785e+01
  -1.280576e+02  -5.250239e+01
  -1.112906e+02  -5.630655e+01
  -1.294323e+01  -5.149542e+01
   6.637511e+01  -3.222335e+01
   7.271623e+01  -7.160065e+00
   1.859729e+01   1.048156e+01
  -3.091111e+01   2.045630e+01
  -1.539242e+01   9.841638e+00
   1.121746e+01  -3.586415e+00
  -3.064150e+00  -3.979944e+00
  -6.105464e+01   2.753114e+00
  -8.912143e+01  -1.601764e+01
  -3.479840e+01  -7.756092e+01
   9.076147e+01  -1.212733e+02
   1.727082e+02  -4.701562e+01
   1.501626e+02   4.116847e+01
   3.795167e+01   1.493923e+02
  -5.273153e+01   1.357068e+02
  -9.168841e+01   5.183540e+01
  -7.887138e+01  -1.539353e+01
  -2.721115e+01  -2.981339e+01
  -2.611773e+00  -1.044999e+01
  -1.303405e+01  -5.969706e+00
  -3.291807e+01  -4.740835e+01
  -1.265891e+01  -9.319656e+01
   2.302490e+01  -6.864019e+01
   7.270657e+01   1.577231e+01
   7.576581e+01   8.149982e+01
   1.894003e+01   9.750971e+01
  -6.958913e+01   3.926819e+01
  -1.109045e+02  -6.236342e+01
  -3.391958e+01  -1.014611e+02
   4.954510e+01  -6.112669e+01
   1.076466e+02   3.694240e+00
   5.005826e+01   5.088492e+01
  -2.609649e+01   6.916199e+01
  -3.860598e+01   2.820735e+01
   2.175221e+01  -4.932121e+00
   6.338081e+01  -5.674703e+00
   1.884095e+01   2.162502e+01
  -7.425330e+01   6.181654e+01
  -1.073629e+02   4.443605e+01
  -7.314614e+01  -1.768579e+01
   1.074603e+01  -7.509387e+01
   4.289113e+01  -7.837599e+01
   3.910345e+01  -1.291274e+01
   9.518953e+00   4.874988e+01
  -1.246161e+01   3.990378e+01
  -3.683607e+01  -8.770640e+00
  -2.915153e+01  -5.370524e+01
  -6.695058e-01  -3.598754e+01
   2.738486e+01   2.041956e+00
   3.445244e+01   2.518950e+01
   1.990900e+01   3.049224e+00
  -5.549251e+00  -1.756994e+01
  -9.151237e+00  -9.721047e+00
   6.012904e+00   2.684933e+01
  -1.704507e-01   4.867769e+01
  -1.720396e+01   1.947998e+01
  -3.892137e+01  -2.947498e+01
  -2.140238e+01  -6.290530e+01
   3.664670e+01  -1.666877e+01
   5.566270e+01   2.592238e+01
   2.447293e+01   4.730596e+01
  -4.935462e+01   3.572667e+01
  -9.030886e+01  -9.388707e+00
  -4.378129e+01  -4.875856e+01
   3.032262e+01  -4.273181e+01
   5.771565e+01  -2.930247e+01
   2.694555e+01  -7.872577e+00
  -2.350316e+01   4.000489e+00
  -2.951120e+01   9.285218e-01
   2.350905e+01  -2.271877e+01
   6.937803e+01  -1.836596e+01
