
 $NMID
 id='ANONYMOUS ', fmtdat='(2E16.6)'
 volume=1.0
 tramp=1.0
 $END
   4.564784e+03   3.045097e+01
   2.871850e+03   2.517749e+03
  -7.527784e+02   2.629416e+03
  -1.737684e+03   8.813644e+02
  -1.002559e+03  -6.345887e+02
   3.843296e+02  -4.292315e+02
   6.267847e+02   4.937869e+02
   1.213992e+01   1.001251e+03
  -6.745847e+02   6.960564e+02
  -8.142858e+02  -1.820281e+02
  -4.305838e+02  -8.533810e+02
   3.056479e+02  -7.756475e+02
   5.454622e+02   2.397827e+01
   3.161760e+02   6.220087e+02
  -2.095546e+02   5.998855e+02
  -5.342686e+02  -2.136894e+01
  -2.148934e+02  -6.513419e+02
   2.541166e+02  -5.626031e+02
   5.448283e+02  -5.580865e+01
   3.749042e+02   2.765248e+02
  -1.065940e+01   4.200561e+02
  -2.368970e+02   2.302129e+02
  -1.592724e+02   5.813792e+01
   1.437415e+02  -1.662835e+01
   3.235759e+02   1.507596e+02
   1.844326e+02   4.797685e+02
  -4.801829e+02   4.351168e+02
  -8.729207e+02  -1.129522e+02
  -3.777296e+02  -4.546313e+02
   4.838204e+02  -3.937306e+02
   7.041472e+02   5.717492e+01
   2.257652e+02   4.456732e+02
  -2.662439e+02   5.430277e+02
  -4.886776e+02   1.252821e+02
  -3.821724e+02  -2.079201e+02
  -4.808339e+00  -4.102216e+02
   1.741130e+02  -2.275308e+02
   8.943401e+01   2.213874e+02
  -2.118696e+02   4.341771e+02
  -4.877753e+02  -5.161647e+01
  -2.483883e+02  -6.588694e+02
   3.792418e+02  -5.659220e+02
   5.777499e+02   3.026726e+01
   2.617853e+02   5.620910e+02
  -1.767101e+02   2.521099e+02
  -2.787325e+02  -2.990574e+02
   1.216174e+02  -4.616574e+02
   5.290130e+02  -9.756840e+01
   5.388643e+02   3.875719e+02
   1.136544e+02   5.787914e+02
  -3.565404e+02   2.978789e+02
  -5.447298e+02  -6.306346e+01
  -2.845420e+02  -4.194596e+02
   1.533144e+02  -3.309679e+02
   3.667374e+02  -6.657219e+01
   1.900465e+02   1.790325e+02
  -1.011019e+02   7.196749e+01
  -1.134786e+02  -1.505855e+02
   1.491488e+02  -1.642024e+02
   3.461754e+02   5.620122e+01
   1.228548e+02   3.449369e+02
  -2.059036e+02   2.668949e+02
  -3.229540e+02   1.070408e+02
  -1.771641e+02  -6.218827e+01
   9.956307e+00  -1.884360e+02
   1.877984e+02  -3.347117e+02
   3.194832e+02  -2.301629e+02
   2.842766e+02   1.309194e+02
   4.445204e+01   3.452531e+02
  -1.264875e+02   3.486951e+02
  -8.631380e+01   1.199168e+02
  -7.291230e+00   9.501057e+00
  -7.620597e+01   8.766437e+01
  -1.658693e+02   1.186934e+02
  -2.635883e+02  -6.118568e+01
  -1.821840e+02  -2.418767e+02
   1.074070e+02  -2.410380e+02
   1.761683e+02   7.014546e+00
   1.717289e+02   2.119967e+02
  -1.246189e+01   3.061886e+02
  -2.537326e+02   9.308413e+01
  -3.684410e+02  -1.874071e+02
  -1.870451e+02  -3.466222e+02
   9.086638e+01  -2.512257e+02
   1.823601e+02  -9.781312e+01
   1.261758e+02  -1.987927e+01
   1.001927e+02  -4.081796e+01
   2.106729e+02  -4.077007e+01
   3.550485e+02   3.705487e+01
   3.050831e+02   2.718802e+02
  -1.040203e+01   4.047853e+02
  -2.976618e+02   3.405728e+02
  -5.045922e+02   1.904306e+02
  -3.482437e+02  -1.200685e+02
  -5.699007e+01  -2.650151e+02
   8.854701e+01  -1.929700e+02
   6.641051e+01  -3.243073e+01
  -1.122335e+02   9.733781e+01
  -1.804374e+02  -3.778111e+01
  -2.959714e+01  -1.715742e+02
   1.448401e+02  -1.523611e+02
   1.428171e+02   6.289603e+01
  -3.020923e+01   1.848682e+02
  -1.651017e+02   2.776730e+01
  -1.606167e+02  -2.442631e+02
   1.410831e+01  -3.351650e+02
   2.212550e+02  -1.851506e+02
   3.266254e+02   5.542411e+01
   2.436470e+02   2.306614e+02
   9.502971e+01   2.564878e+02
  -1.197439e+02   1.623996e+02
  -1.727021e+02   3.469341e+01
  -5.171421e+01  -2.810222e+01
   6.403239e+01   3.972688e+01
   1.444274e+01   1.275760e+02
  -1.116886e+02   9.396688e+01
  -1.642109e+02  -2.036349e+01
  -4.885892e+01  -6.620977e+01
   7.976151e+01  -5.522487e+00
   4.315429e+01   7.327669e+01
  -1.471867e+02   8.275418e+01
  -2.606771e+02  -5.121467e+00
  -2.342660e+02  -1.372054e+02
  -6.699137e+01  -2.538613e+02
   1.952233e+02  -2.440767e+02
   2.910104e+02  -1.261187e+02
   1.678310e+02   5.020447e+01
  -3.067671e+01   9.380817e+01
  -6.786252e+01  -5.589678e+00
   3.117926e+01  -9.665662e+01
   1.949623e+02  -8.055920e+01
   2.209281e+02   9.083379e+01
   5.742477e+01   1.697929e+02
  -9.258640e+01   1.397472e+02
  -1.322205e+02   2.541127e+01
  -6.166926e+01  -4.214643e+01
   3.043145e+01   9.375296e-01
   3.310736e+01   6.883687e+01
  -6.993969e+01   1.038934e+02
  -1.896753e+02   1.657131e+01
  -2.099936e+02  -1.182206e+02
  -2.496467e+01  -2.200568e+02
   1.465387e+02  -1.490901e+02
   1.448386e+02   7.257919e+00
   5.360442e+01   1.062664e+02
  -7.024256e+01   1.094370e+02
  -8.705517e+01   2.510033e+01
  -1.611756e+01  -2.622841e+01
   2.429688e+01  -1.316449e+01
  -5.251032e+00   9.448844e+00
  -7.184190e+01  -2.844764e+00
  -1.045000e+02  -7.812932e+01
  -3.271257e+01  -1.411687e+02
   1.338857e+02  -1.457479e+02
   2.410329e+02  -2.601179e+01
   1.815410e+02   1.289331e+02
   1.293365e+01   1.993152e+02
  -9.844650e+01   1.631349e+02
  -1.292350e+02   2.040574e+01
  -6.342046e+01  -4.751714e+01
  -2.711183e+01  -3.392108e+01
  -4.705925e+01   5.046247e+00
  -8.153343e+01   2.828496e+00
  -4.047895e+01  -3.771915e+01
   4.038880e+01  -8.887976e+01
   8.683670e+01  -5.349353e+01
   7.881406e+01   3.813316e+01
  -4.807391e+00   1.134424e+02
  -1.394980e+02   7.380353e+01
  -1.901288e+02  -3.590133e+01
  -1.131190e+02  -1.699749e+02
   1.023699e+02  -2.231055e+02
   2.495784e+02  -1.017701e+02
   2.606455e+02   8.045040e+01
   1.051094e+02   1.835203e+02
  -4.955408e+01   1.323084e+02
  -8.219223e+01   7.971125e+01
  -6.759956e+01   5.371393e+01
  -5.679254e+01   8.162740e+01
  -7.685726e+01   6.972684e+01
  -1.119381e+02  -2.472429e+01
  -1.093554e+02  -1.358731e+02
  -2.246683e+01  -1.892391e+02
   8.460206e+01  -1.339018e+02
   1.535551e+02  -7.961928e-01
   1.214021e+02   1.081030e+02
   1.137608e+01   1.579776e+02
  -6.717504e+01   8.767709e+01
  -5.668982e+01  -2.027269e+00
  -7.496324e+00  -4.952508e+01
   1.330995e+01  -3.821350e+01
  -2.715000e+01  -1.626201e+01
  -6.702586e+01  -2.168373e+01
  -4.550167e+01  -3.761799e+01
   5.743231e+01  -3.177369e+01
   1.560928e+02   5.870115e+00
   1.494308e+02   6.544006e+01
   5.366209e+00   8.538215e+01
  -1.171680e+02   7.398791e+01
  -1.294889e+02   9.433320e-01
  -4.647706e+01  -3.418382e+01
   5.439438e+01  -2.634467e+01
   6.806296e+01   2.207157e+01
   4.419017e+00   6.094533e+01
  -5.105093e+01   5.063309e+01
  -5.831605e+01   5.094448e-01
  -4.398342e+01  -5.281223e+01
  -4.273442e+01  -3.927490e+01
  -5.871894e+01   8.376607e-01
  -6.010453e+01   3.003759e+00
  -2.630705e+01  -6.222603e+01
   2.443487e+01  -1.426391e+02
   1.160663e+02  -1.434605e+02
   1.604164e+02  -3.007548e+01
   1.105433e+02   8.246694e+01
   1.123634e+01   1.291386e+02
  -7.883285e+01   6.162323e+01
  -5.459786e+01  -1.495244e+01
   5.104236e+01  -1.660160e+01
   1.272965e+02   4.978067e+01
   7.487344e+01   1.102066e+02
  -7.611428e+01   1.154724e+02
  -1.747403e+02   4.016310e+01
  -1.558221e+02  -2.302860e+01
  -2.562953e+01  -7.586286e+01
   6.020224e+01  -6.547647e+01
   4.673022e+01  -1.127526e+01
  -3.886108e+01   2.492907e+01
  -8.638470e+01  -2.670436e+01
  -1.567288e+01  -9.149525e+01
   8.456467e+01  -1.658610e+02
   1.380998e+02  -5.847235e+01
   1.099202e+02   8.743736e+01
   1.682526e+01   1.834144e+02
  -7.266280e+01   1.123937e+02
  -1.033306e+02   2.981711e+00
  -4.855488e+01  -1.105217e+02
   7.547868e+00  -9.600137e+01
   4.001586e+01  -2.106802e+01
   4.415726e+01   3.333231e+01
   2.533415e+01   1.224601e+01
   3.964514e+00  -1.905586e+01
   2.157005e+01   1.551905e+01
   4.919043e+01   8.209823e+01
   3.385530e+01   9.412018e+01
  -4.951903e+01   4.623493e+01
  -1.301669e+02  -4.059010e+01
  -1.152698e+02  -7.015629e+01
  -2.075506e+01  -4.776385e+01
   7.093333e+01  -2.119524e+01
   7.951300e+01   8.614269e+00
   8.386512e+00   2.436524e+00
  -3.628493e+01   2.112226e+01
  -1.326842e+01   1.730811e+01
   1.892544e+01   1.861020e+00
  -3.932835e+00  -7.585721e+00
  -6.775726e+01  -7.635819e+00
  -8.583619e+01  -2.302683e+01
  -1.229872e+01  -7.672957e+01
   8.991196e+01  -9.437446e+01
   1.959084e+02  -5.279151e+01
   1.216329e+02   6.264251e+01
   2.445287e+01   1.421138e+02
  -8.014898e+01   1.250605e+02
  -1.144720e+02   4.389199e+01
  -8.031252e+01  -1.888092e+01
  -2.352517e+01  -3.499593e+01
   2.508173e-01  -7.193817e+00
  -8.693536e+00  -3.197732e+00
  -3.601008e+01  -4.314112e+01
  -2.233411e+01  -8.642183e+01
   2.798296e+01  -6.804216e+01
   7.921203e+01   1.546537e+01
   6.710391e+01   9.940895e+01
   8.836588e+00   1.171735e+02
  -6.338487e+01   1.575494e+01
  -9.074250e+01  -7.371631e+01
  -3.511390e+01  -9.122521e+01
   5.659934e+01  -4.743380e+01
   8.980558e+01  -3.613674e+00
   3.487027e+01   4.404098e+01
  -2.771869e+01   5.445275e+01
  -3.074237e+01   2.756683e+01
   2.697155e+01   1.869702e+00
   6.191206e+01   1.668807e+00
   1.438976e+01   2.115096e+01
  -7.967253e+01   6.144610e+01
  -9.991502e+01   5.480529e+01
  -5.850698e+01  -1.200395e+01
   1.599327e+01  -7.630477e+01
   4.972170e+01  -6.699495e+01
   2.929468e+01  -2.874940e+00
   2.410803e+00   4.854825e+01
  -2.762897e+01   3.626141e+01
  -3.958725e+01  -1.335621e+01
  -2.927912e+01  -5.214573e+01
   3.317678e+00  -3.103712e+01
   3.041388e+01   5.709964e+00
   3.921601e+01   2.839440e+01
   1.921235e+01   9.104060e-01
  -2.294809e+00  -1.326507e+01
  -1.006164e+01   3.375792e+00
  -5.891345e+00   3.604560e+01
  -1.710081e+01   4.151258e+01
  -3.268255e+01   9.825339e+00
  -2.691524e+01  -3.967923e+01
   2.313933e+00  -5.589608e+01
   4.151468e+01  -1.731435e+01
   5.634199e+01   3.981312e+01
   5.514167e+00   5.631455e+01
  -5.006499e+01   2.706831e+01
  -8.382405e+01  -1.432071e+01
  -5.357924e+01  -4.026551e+01
   2.847144e+01  -3.439768e+01
   5.968793e+01  -1.743485e+01
   2.272640e+01  -2.939507e+00
  -3.596228e+01  -5.463743e+00
  -3.475876e+01  -1.053537e+01
   2.667523e+01  -3.147964e+01
   8.970929e+01  -2.104341e+01
