
 $NMID
 id='ANONYMOUS ', fmtdat='(2E16.6)'
 volume=1.0
 tramp=1.0
 $END
  -3.238036e+03   1.777469e+02
  -2.242904e+03  -1.534947e+03
   1.367252e+02  -2.055953e+03
   1.554750e+03  -1.063551e+03
   9.976226e+02   2.046860e+02
  -2.109726e+02   4.839922e+02
  -4.874363e+02  -4.464930e+02
  -6.146968e+00  -7.995696e+02
   6.817848e+02  -5.829108e+02
   6.910569e+02   9.163200e+00
   3.838043e+02   5.124906e+02
  -2.478041e+01   7.035989e+02
  -4.484228e+02   2.686306e+02
  -3.371717e+02  -5.243885e+02
   2.109442e+02  -5.751507e+02
   4.654341e+02  -4.675473e+01
   2.619630e+02   5.174914e+02
  -1.930534e+02   6.257933e+02
  -4.059972e+02   1.426077e+02
  -4.232695e+02  -1.613817e+02
  -1.058147e+02  -2.913449e+02
   1.977678e+02  -1.932519e+02
   1.307924e+02  -5.731711e+01
  -1.575482e+02  -1.798822e+00
  -2.657195e+02  -1.969172e+02
  -1.593000e+02  -3.923027e+02
   4.712324e+02  -3.003617e+02
   6.402960e+02   1.276577e+02
   3.128742e+02   3.942404e+02
  -3.721730e+02   1.509024e+02
  -5.658246e+02  -6.026172e+00
  -2.252814e+02  -3.547662e+02
   3.074304e+02  -3.683383e+02
   4.497791e+02  -1.339309e+02
   3.819417e+02   1.906754e+02
   2.508168e+01   3.461660e+02
  -9.967929e+01   2.040193e+02
   4.188619e+01  -1.276009e+02
   6.424576e+01  -3.103352e+02
   2.929123e+02   1.053718e+02
   6.793213e+01   5.159650e+02
  -2.142572e+02   5.245593e+02
  -4.369298e+02  -4.348161e+01
  -1.336024e+02  -3.487477e+02
   1.921157e+02  -2.387327e+02
   2.211794e+02   2.172731e+02
  -8.795524e+01   4.553014e+02
  -4.677248e+02   1.117968e+02
  -3.945276e+02  -4.725287e+02
  -1.774047e+02  -4.401565e+02
   3.409865e+02  -2.563930e+02
   6.171665e+02   1.003844e+02
   4.271031e+02   2.808747e+02
  -1.071786e+02   3.035170e+02
  -3.191191e+02   7.514477e+01
  -2.596034e+02  -9.498252e+01
   2.887536e+01  -4.971495e+01
   8.878311e+01   7.940722e+01
  -9.768876e+01   1.630033e+02
  -2.656282e+02  -3.061425e+01
  -1.019705e+02  -2.013096e+02
   1.818261e+02  -2.291368e+02
   2.808286e+02  -1.365825e+02
   2.240190e+02   7.826674e+01
  -2.082710e+01   2.862612e+02
  -2.460226e+02   2.978149e+02
  -3.215978e+02   1.500753e+02
  -2.285120e+02  -1.331889e+02
   7.025645e+00  -3.535118e+02
   7.588947e+01  -2.789329e+02
   9.309580e+01  -1.266111e+02
   3.410618e+01  -3.470260e+01
   9.057277e+01  -1.119702e+02
   2.056122e+02  -7.389239e+01
   2.490630e+02   8.370736e+01
   1.055257e+02   2.612008e+02
  -6.171560e+01   2.307713e+02
  -2.013333e+02  -1.028213e+01
  -1.591234e+02  -2.048468e+02
   2.218342e+01  -2.036706e+02
   2.853147e+02  -1.220782e+02
   2.943128e+02   1.123893e+02
   1.835291e+02   2.651153e+02
  -7.152151e+01   2.685559e+02
  -1.838983e+02   1.005384e+02
  -1.638879e+02   3.339082e+01
  -1.264877e+02   5.493444e+01
  -2.788003e+02   6.201971e+01
  -3.699071e+02  -7.633123e+01
  -3.038186e+02  -2.581548e+02
  -3.557256e+01  -3.701056e+02
   3.574813e+02  -3.554411e+02
   4.796866e+02  -1.930504e+02
   2.547365e+02   8.357960e+01
   2.614868e+01   2.554754e+02
  -1.145537e+02   1.900564e+02
  -3.902596e+01   2.225855e+01
   1.113750e+02  -6.241896e+01
   1.602642e+02   4.365255e+01
   6.628960e+00   1.841998e+02
  -1.151640e+02   1.219622e+02
  -1.207838e+02  -6.458072e+01
   8.300125e+00  -1.289705e+02
   1.825457e+02  -1.915714e+01
   1.500015e+02   2.111279e+02
   3.507839e-01   3.452257e+02
  -1.804787e+02   1.919689e+02
  -3.047532e+02  -4.000555e+01
  -2.435965e+02  -2.710191e+02
  -7.490825e+01  -2.130005e+02
   1.221128e+02  -1.330172e+02
   1.383930e+02  -7.808750e+00
   3.672230e+01   2.526320e+01
  -5.373013e+01  -4.464400e+01
  -1.258033e+01  -1.087226e+02
   1.100859e+02  -6.501911e+01
   1.448317e+02   3.510153e+01
   3.267015e+01   6.026895e+01
  -7.837010e+01   4.064558e+00
  -4.729435e+01  -7.376209e+01
   1.281846e+02  -9.432313e+01
   2.959136e+02   5.320465e+00
   2.664837e+02   1.819405e+02
   7.090340e+01   2.339445e+02
  -1.667790e+02   2.443180e+02
  -2.519183e+02   8.272680e+01
  -1.254021e+02  -3.101913e+01
   1.861766e+01  -8.802527e+01
   9.547146e+01   9.423474e+00
  -4.548662e+01   7.427024e+01
  -1.761574e+02   1.990867e+01
  -1.624749e+02  -7.180142e+01
  -6.768903e+01  -1.858321e+02
   7.321151e+01  -1.480753e+02
   1.223010e+02  -2.330355e+01
   4.848851e+01   3.525263e+01
  -3.737666e+01  -9.007272e+00
  -2.427365e+01  -9.371417e+01
   8.065450e+01  -1.230361e+02
   1.960068e+02  -2.066723e+01
   1.682103e+02   1.299690e+02
   1.554237e+01   1.831893e+02
  -1.467755e+02   1.546122e+02
  -1.901322e+02   3.691787e+01
  -4.010738e+01  -9.947122e+01
   5.414900e+01  -8.652624e+01
   6.959088e+01  -3.040200e+01
   3.288118e-01   3.362625e+01
  -2.597969e+01   1.394468e+01
   1.304191e+01  -1.736601e+01
   6.762143e+01  -6.817780e+00
   8.101779e+01   7.046873e+01
   9.491782e+00   1.541049e+02
  -1.274355e+02   1.538932e+02
  -2.147345e+02   3.909633e+00
  -1.634917e+02  -1.233041e+02
  -4.096227e+01  -2.592824e+02
   1.033648e+02  -1.464799e+02
   1.126269e+02  -2.764028e+01
   6.097429e+01   3.436050e+01
   2.566882e+01   3.030241e+01
   5.589201e+01  -1.573860e+01
   7.800026e+01  -1.575903e+01
   4.648566e+01   5.457005e+01
  -3.766802e+01   7.468147e+01
  -1.164875e+02   5.559246e+01
  -9.211617e+01  -2.943167e+01
   6.274073e+00  -1.126048e+02
   1.648255e+02  -8.222784e+01
   1.883706e+02   3.749176e+01
   9.298690e+01   1.832132e+02
  -1.020404e+02   2.198898e+02
  -2.538958e+02   9.258905e+01
  -2.101044e+02  -7.753238e+01
  -8.357027e+01  -1.586959e+02
   5.028860e+01  -1.369868e+02
   9.583772e+01  -7.928642e+01
   7.442785e+01  -6.995874e+01
   6.226019e+01  -9.136564e+01
   9.541846e+01  -7.969303e+01
   1.380507e+02   1.652461e+01
   1.346726e+02   1.379045e+02
   1.678478e+01   2.089469e+02
  -8.133833e+01   1.806874e+02
  -1.694432e+02   5.513115e+00
  -1.222981e+02  -1.075530e+02
  -2.076864e+00  -1.256242e+02
   6.358268e+01  -7.133685e+01
   5.863218e+01   3.733697e+00
   1.740804e+00   4.444601e+01
  -1.280808e+01   3.240848e+01
   2.729469e+01   1.254347e+01
   7.784248e+01   2.245261e+01
   4.244483e+01   3.522055e+01
  -6.154995e+01   4.025949e+01
  -1.375026e+02   1.010423e+01
  -1.259427e+02  -4.153536e+01
  -8.287624e+00  -8.315413e+01
   1.263891e+02  -5.690654e+01
   1.555419e+02  -1.843794e+01
   3.978085e+01   3.933460e+01
  -6.071093e+01   4.672045e+01
  -6.919101e+01  -1.796507e+01
  -1.146900e+01  -6.398854e+01
   5.334107e+01  -6.215185e+01
   6.108109e+01  -1.571319e+00
   5.077703e+01   4.916079e+01
   4.637137e+01   3.681753e+01
   4.932301e+01   2.891745e+00
   6.363146e+01  -2.769350e+00
   3.871482e+01   6.956494e+01
  -2.510515e+01   1.442416e+02
  -1.153788e+02   1.318012e+02
  -1.775707e+02   3.103343e+01
  -1.250981e+02  -1.046985e+02
  -1.538063e+01  -1.160644e+02
   8.804144e+01  -6.215339e+01
   5.155735e+01   4.877916e+00
  -6.077214e+01   2.537093e+01
  -1.233436e+02  -3.144849e+01
  -6.659110e+01  -9.986126e+01
   5.980445e+01  -9.953273e+01
   1.666081e+02  -3.579714e+01
   1.487760e+02   2.090400e+01
   2.890494e+01   9.200995e+01
  -5.702746e+01   5.250834e+01
  -4.296144e+01   3.166149e+00
   4.115771e+01  -3.063330e+01
   9.115286e+01   1.500979e+01
   3.789044e+01   1.184504e+02
  -7.236651e+01   1.436955e+02
  -1.472426e+02   6.155230e+01
  -1.321695e+02  -7.099487e+01
  -3.754579e+00  -1.669489e+02
   8.924237e+01  -1.486175e+02
   9.732505e+01   6.957486e+00
   6.723274e+01   9.502729e+01
  -1.668395e+01   9.921817e+01
  -4.869228e+01   1.743026e+01
  -4.295964e+01  -2.704506e+01
  -1.633001e+01  -8.645200e+00
  -3.999581e+00   1.642033e+01
  -2.576700e+01  -1.590389e+01
  -5.506388e+01  -8.100365e+01
  -2.460237e+01  -1.056576e+02
   5.330390e+01  -3.792684e+01
   1.180148e+02   2.519361e+01
   1.163567e+02   6.194358e+01
   2.306962e+01   4.785233e+01
  -8.494860e+01   2.805609e+01
  -8.732401e+01   5.071760e+00
  -1.105026e+01  -8.972888e+00
   3.030619e+01  -2.355019e+01
   1.692021e+01  -1.387303e+01
  -1.604931e+01   1.001772e+00
   3.889783e+00   8.999529e+00
   7.339060e+01   7.132513e-01
   9.043477e+01   2.113633e+01
   1.955220e+01   6.596921e+01
  -1.151722e+02   1.284140e+02
  -1.642150e+02   6.838206e+01
  -1.448021e+02  -4.847921e+01
  -3.349872e+01  -1.614894e+02
   8.580175e+01  -1.345392e+02
   1.158522e+02  -5.742777e+01
   7.133539e+01   1.694088e+01
   2.409999e+01   3.298250e+01
   3.584551e-01   1.068535e+01
   1.261246e+01   8.008576e+00
   2.956905e+01   4.096903e+01
   1.870341e+01   8.261659e+01
  -3.245158e+01   6.438597e+01
  -7.602955e+01  -1.483359e+01
  -8.360067e+01  -1.065020e+02
  -1.542029e+01  -8.946028e+01
   6.569897e+01  -2.897427e+01
   8.397781e+01   5.956867e+01
   4.785186e+01   9.299629e+01
  -6.028957e+01   6.951289e+01
  -9.013928e+01  -1.344029e+01
  -3.639473e+01  -4.661229e+01
   2.862138e+01  -5.150661e+01
   2.986902e+01  -2.223280e+01
  -2.527322e+01   4.882743e+00
  -6.774550e+01   7.872615e+00
  -1.533579e+01  -2.457074e+01
   7.907215e+01  -6.524668e+01
   1.154807e+02  -5.695443e+01
   5.823540e+01   1.244698e+01
  -6.899341e+00   9.764741e+01
  -4.745499e+01   7.485537e+01
  -4.057823e+01   8.622767e+00
  -3.845637e+00  -5.439748e+01
   2.447428e+01  -4.548185e+01
   3.083278e+01   1.328265e+01
   1.792543e+01   4.536394e+01
   3.335565e+00   3.380822e+01
  -3.334625e+01  -7.224939e+00
  -3.898304e+01  -1.749984e+01
  -1.985038e+01  -4.536963e+00
   2.894319e+00   1.553617e+01
   6.553688e+00   5.057774e+00
  -7.878136e-01  -3.088442e+01
   1.404656e+00  -4.594221e+01
   2.294244e+01  -1.461566e+01
   3.083679e+01   3.040753e+01
   2.363600e+00   4.953898e+01
  -4.036962e+01   2.697355e+01
  -5.323609e+01  -2.639315e+01
  -1.406256e+01  -5.213866e+01
   5.943555e+01  -3.107384e+01
   7.586225e+01   5.960051e+00
   5.216258e+01   3.753926e+01
  -2.629113e+01   4.229847e+01
  -5.935487e+01   2.379578e+01
  -2.765107e+01   5.971448e+00
   3.014595e+01  -5.463342e-01
   2.892475e+01   9.690496e+00
  -2.279226e+01   2.571000e+01
  -7.730903e+01   2.682580e+01
