
 $NMID
 id='ANONYMOUS ', fmtdat='(2E16.6)'
 volume=1.0
 tramp=1.0
 $END
   9.769039e+02  -1.964523e+02
   1.350794e+03   6.655902e+02
  -1.268136e+02   7.503626e+02
  -7.651362e+02   4.424684e+02
  -1.070496e+02   1.935523e+02
   1.894627e+02  -1.643691e+02
   3.068187e+02   1.949855e+02
  -8.078189e+01   3.235701e+02
  -2.351682e+02   3.099926e+02
  -1.663887e+02  -5.170055e+01
  -3.047902e+01  -1.159705e+02
   1.697400e+01  -3.129436e+02
   1.421196e+02   4.240058e+01
   1.659398e+02   2.887421e+02
  -1.331901e+01   2.563575e+02
  -1.548483e+02   7.895154e+01
  -1.257663e+02  -2.946878e+02
   7.143284e+01  -2.886635e+02
   9.487359e+01   2.232235e+01
   1.111202e+02   1.233120e+02
   5.435809e+01   1.031573e+02
  -5.883607e+01   8.041547e+01
  -6.164997e+01   7.550557e+00
   4.965415e+01   3.370781e+01
   1.187904e+02   3.404545e+01
   5.937725e+01   1.268299e+02
  -1.309921e+02   1.545034e+02
  -2.302193e+02  -9.675770e+01
  -5.229782e+01  -1.819967e+02
   8.184579e+01  -1.160383e+02
   2.027823e+02  -6.254649e+01
   1.505310e+02   1.138808e+02
  -8.979072e+01   1.126707e+02
  -1.275397e+02   5.816310e+01
  -6.750591e+01  -2.874201e+01
   1.427102e+01  -1.673672e+02
   4.171039e+01  -6.916461e+01
   5.096919e+01   9.847585e+00
  -4.918402e+01   1.522897e+02
  -9.677713e+01  -4.521213e+00
  -1.520671e+02  -2.602107e+02
   1.174840e+02  -2.668549e+02
   7.376762e+01  -3.447996e+01
   3.327704e+00   1.662347e+02
  -7.153036e+01   1.497949e+02
  -1.617672e+02  -5.649712e+01
   6.604558e+01  -1.115853e+02
   1.024470e+02  -7.968470e+01
   1.785345e+02   1.028104e+02
   8.963321e+01   1.384839e+02
  -7.777595e+01   1.158987e+02
  -1.944510e+02  -6.031654e+01
  -1.415059e+02  -9.188637e+01
  -1.212512e+01  -1.780246e+02
   8.239951e+01  -7.467634e+01
   6.688154e+01   2.680589e+01
  -1.062316e+01   2.232413e+01
  -7.371505e+01  -6.368263e+01
   3.092182e+01  -6.695239e+01
   1.334902e+02  -1.833365e+01
   2.701558e+01   2.679624e+01
  -6.060451e+01   5.846778e+01
  -1.204366e+02   2.340263e+01
  -8.806633e+01  -5.916985e+01
   4.543373e+01  -6.445028e+01
   9.882982e+01  -6.062648e+01
   7.146274e+01  -4.406583e+01
   1.153947e+02   1.954054e+01
   2.925342e+01   1.303784e+02
  -3.988757e+01   1.053620e+02
  -4.494486e+01   3.477802e+01
  -1.530983e+01   7.602653e+00
  -1.785485e+01   3.177953e+01
  -7.231476e+01   4.970306e+01
  -6.909017e+01  -2.098259e+01
  -3.734046e+01  -7.390194e+01
   1.436913e+01  -5.584941e+01
   7.702346e+01  -1.196869e+01
   4.709896e+01   7.027323e+01
  -1.436053e+01   7.745230e+01
  -8.194639e+01   2.407644e+01
  -8.540529e+01  -6.145736e+01
  -3.952981e+01  -1.202744e+02
  -9.407323e-01  -1.052553e+02
   7.239062e+01  -3.712737e+01
   5.983218e+01   4.280094e+00
   4.983334e+01   7.693574e+00
   1.030331e+02   1.290529e+00
   1.170185e+02   4.215562e+01
   9.581949e+01   1.076532e+02
   1.190543e+01   1.380148e+02
  -1.679297e+02   9.456267e+01
  -1.371378e+02   1.058165e+02
  -1.129173e+02  -2.063905e+01
   4.936665e+00  -8.806289e+01
   5.412326e+01  -1.184781e+02
   3.041667e+01  -2.074792e+01
  -2.502016e+01   3.296797e+01
  -7.338231e+01  -1.777179e+00
  -5.015815e-01  -5.143373e+01
   6.778177e+01  -7.750509e+01
   7.051864e+01   1.852198e+01
   1.631835e+01   6.547164e+01
  -5.518652e+01  -9.286994e-01
  -7.170733e+01  -9.978163e+01
  -9.345452e+00  -1.313305e+02
   5.434277e+01  -5.197537e+01
   8.463511e+01   3.783667e+01
   9.710621e+01   8.421984e+01
   5.102027e+01   9.538761e+01
  -2.258144e+01   3.123138e+01
  -4.285648e+01   1.926292e+00
  -1.202581e+01  -1.122824e+01
   2.100690e+01   1.158446e+01
   1.600319e+01   3.011247e+01
  -5.266870e+01   3.290407e+01
  -6.697764e+01   1.418788e+00
  -2.086366e+01  -2.181485e+01
   3.172195e+01   4.938734e+00
   1.867760e+01   2.706693e+01
  -4.315952e+01   3.286478e+01
  -7.197226e+01   1.786629e+01
  -8.341587e+01  -6.469871e+01
   1.847737e+01  -8.959611e+01
   9.476599e+01  -7.370283e+01
   7.829100e+01  -1.326840e+01
   4.678179e+01   1.450512e+01
  -8.685045e+00   1.647986e+01
  -3.368637e+01   4.337668e+00
   1.005816e+01  -3.461517e+01
   6.474733e+01  -1.189525e+01
   5.400916e+01   1.589652e+01
   3.429085e+01   9.482763e+01
  -2.536464e+01   4.067047e+01
  -5.129883e+01   5.036915e+00
  -2.328603e+01  -4.292701e+00
   3.982855e-02   1.251452e+00
   1.176147e+01   4.020579e+01
  -3.959935e+01   3.478712e+01
  -7.819479e+01   2.674144e+01
  -2.850178e+01  -2.540331e+01
  -2.256371e+00  -7.926397e+01
   7.553865e+01  -7.300189e+01
   9.370998e+01  -1.453656e+01
   2.464257e+01   4.296945e+01
  -1.382931e+01   3.692637e+01
  -2.379342e+01   1.294749e+01
  -3.882042e+00  -1.395374e+01
   1.140559e+01  -6.529198e+00
  -4.593208e+00   4.083224e+00
  -2.421756e+01  -3.124784e-01
  -2.577658e+01  -3.124601e+01
  -2.542983e+00  -5.622887e+01
   2.753834e+01  -4.507512e+01
   7.205025e+01  -1.872280e+01
   8.823319e+01   5.333010e+01
   3.570524e+00   8.853784e+01
  -2.108164e+01   6.187135e+01
  -3.776571e+01   1.964123e+01
  -2.351127e+01  -8.549322e+00
  -5.739069e+00  -8.821053e+00
  -2.590419e+01   5.612217e+00
  -2.648912e+01  -6.734158e+00
  -3.479498e+00  -1.919370e+01
   8.950537e+00  -2.964188e+01
   2.974054e+01  -1.429989e+01
   4.282041e+01   1.332735e+01
  -1.165485e+01   2.917677e+01
  -4.803252e+01   2.516436e+01
  -7.191504e+01  -1.415749e+01
  -2.516086e+01  -5.133557e+01
   3.839217e+01  -5.791625e+01
   9.180843e+01  -2.394872e+01
   6.922660e+01   3.960103e+01
   4.574280e+01   5.086941e+01
  -4.543868e+00   4.020369e+01
  -2.432774e+01   1.726897e+01
  -4.011710e+01   1.885009e+01
  -2.086436e+01   2.981443e+01
  -2.903845e+01   1.477225e+01
  -3.332307e+01   3.727724e-01
  -4.499742e+01  -4.582166e+01
   1.942585e+00  -9.477446e+01
   3.190248e+01  -5.453027e+01
   6.094186e+01   1.010715e+01
   4.551269e+01   3.257254e+01
   4.780457e+00   4.525195e+01
  -2.262954e+01   2.142825e+01
  -2.144532e+01  -9.430722e-01
   1.095434e+00  -8.935758e+00
   2.417642e+00  -1.167194e+01
  -1.481467e+01  -4.023905e+00
  -2.687476e+01  -2.013971e+00
  -1.468707e+01  -8.967926e+00
   3.020491e+01  -1.403754e+01
   5.487750e+01   1.372782e+00
   4.788287e+01   7.231784e+00
  -3.800603e+00   2.726682e+01
  -2.681207e+01   1.290274e+01
  -6.757555e+01   5.098488e+00
  -1.176042e+01  -1.644366e+01
   1.732206e+01  -1.800795e+01
   2.095312e+01  -5.181526e+00
   1.163177e+00   1.629128e+01
  -2.344601e+01   2.103759e+01
  -1.958181e+01   1.585611e+00
  -1.759584e+01  -2.455429e+01
  -1.781134e+01  -1.353246e+01
  -1.638838e+01  -8.343009e-01
  -2.194544e+01  -7.484014e+00
  -1.201262e+01  -1.829514e+01
   5.971697e+00  -3.836481e+01
   3.279631e+01  -2.761859e+01
   4.497152e+01   3.235502e+00
   4.531768e+01   5.526188e+01
  -2.407942e+00   3.237455e+01
  -2.932556e+01   1.517991e+01
  -1.417511e+01  -8.130860e+00
   2.477812e+01  -1.062741e+01
   4.662177e+01  -3.587796e-01
   2.708209e+01   3.416255e+01
  -2.188349e+01   2.913881e+01
  -5.045591e+01   1.093957e+01
  -4.746494e+01  -1.168985e+01
  -1.612872e+01  -2.392139e+01
   1.004307e+01  -1.335660e+01
   1.301662e+01  -1.934334e+00
  -1.587418e+01   9.797601e+00
  -2.433037e+01  -1.070232e+01
   3.140299e+00  -4.149887e+01
   1.971958e+01  -5.225374e+01
   6.209600e+01  -2.267873e+01
   3.918021e+01   3.374735e+01
   1.132758e+01   5.761467e+01
  -2.557987e+01   5.052320e+01
  -3.888525e+01  -8.482339e+00
  -2.480273e+01  -4.168333e+01
   5.329026e+00  -1.878203e+01
   1.506479e+01  -2.012751e+00
   1.599117e+01   1.168444e+01
   5.051738e+00   3.925819e-01
   3.765705e-01  -4.569048e+00
   5.765580e+00   5.385777e+00
   1.450678e+01   2.953252e+01
   1.736451e+01   3.487649e+01
  -1.222341e+01   1.220715e+01
  -3.778096e+01  -1.759553e+00
  -5.736437e+01  -1.483595e+01
  -2.979085e+00  -1.574422e+01
   2.639554e+01  -1.633962e-01
   2.576641e+01   6.391796e-01
   3.784776e+00   4.551357e+00
  -6.188261e+00   4.314718e+00
  -3.334932e+00   1.731942e+00
   5.421262e+00  -4.059149e-01
  -1.385958e+00  -3.022487e+00
  -2.350683e+01  -4.362836e+00
  -3.793258e+01  -4.429543e+00
   2.321120e+00  -1.780938e+01
   5.243082e+01  -4.189751e+01
   4.850893e+01  -1.496234e+01
   3.427545e+01   3.318669e+01
   1.809430e+01   4.533584e+01
  -3.551803e+01   3.874791e+01
  -4.360448e+01   3.282023e+01
  -2.617868e+01  -3.533505e+00
  -3.618619e+00  -1.200544e+01
   1.216248e+00  -3.119294e+00
  -3.600083e+00  -8.393951e-01
  -7.157521e+00  -1.359686e+01
  -2.737710e+00  -2.205241e+01
   1.015195e+01  -2.440781e+01
   2.209761e+01  -6.786857e-01
   2.725678e+01   3.365256e+01
   7.261997e+00   2.470329e+01
  -3.126410e+01   3.859577e+00
  -3.667195e+01  -2.569155e+01
  -9.220125e+00  -4.038316e+01
   2.840373e+01  -2.861641e+01
   3.769088e+01   3.021110e+00
   6.151622e+00   2.517099e+01
  -1.428877e+01   1.369799e+01
  -9.213373e+00   2.984830e+00
   8.896032e+00   6.706994e-01
   1.946291e+01  -7.269183e-01
   5.597262e+00   7.107051e+00
  -3.278721e+01   2.516884e+01
  -5.089493e+01   1.959041e+01
  -2.017759e+01   4.865282e+00
   1.308100e+01  -2.759271e+01
   1.243086e+01  -2.659285e+01
   1.423301e+01  -4.379780e+00
   3.147929e+00   1.433895e+01
  -1.166375e+01   1.320243e+01
  -1.283393e+01  -5.386867e+00
  -9.537788e-01  -9.954920e+00
   2.943456e+00  -1.083735e+01
   9.638208e+00   2.550657e+00
   1.781625e+01   5.689044e+00
   6.778862e+00   8.215233e-01
  -5.337914e-01  -4.411115e+00
  -2.976985e+00  -1.047882e+00
  -2.274343e-01   1.050109e+01
  -2.903726e+00   1.243952e+01
  -5.320693e+00   5.089817e+00
  -8.605248e+00  -1.678204e+01
   4.824474e+00  -1.350088e+01
   1.215430e+01  -1.049804e+01
   1.463108e+01   1.117508e+01
   6.347617e+00   2.011606e+01
  -2.299483e+01   1.117537e+01
  -1.917778e+01  -1.050792e+01
  -1.919283e+01  -1.356410e+01
   6.583258e+00  -1.145535e+01
   2.165672e+01  -7.424561e+00
   1.115065e+01  -1.318233e+00
  -6.818256e+00  -9.799633e-01
  -8.045773e+00  -7.056855e+00
   1.343635e+01  -1.138406e+01
   2.364445e+01   3.115826e+00
