
 $NMID
 id='ANONYMOUS ', fmtdat='(2E16.6)'
 volume=1.0
 tramp=1.0
 $END
   1.710734e+03  -6.994528e+01
   1.714799e+03   1.017701e+03
   1.630298e+02   1.448136e+03
  -1.055060e+03   7.452803e+02
  -5.050338e+02   2.265440e+02
   1.273560e+02  -2.918987e+02
   2.889227e+02   2.747861e+02
  -1.042613e+02   3.571629e+02
  -4.195809e+02   3.669885e+02
  -4.278175e+02   8.295662e+01
  -2.596696e+02  -2.226616e+02
  -1.148831e+01  -5.904494e+02
   3.054609e+02  -2.039238e+02
   1.792331e+02   4.185314e+02
  -1.224552e+02   3.811237e+02
  -3.837560e+02   4.485794e+01
  -1.365990e+02  -3.714596e+02
   1.638800e+02  -4.303735e+02
   1.777119e+02  -1.713844e+02
   3.112629e+02   1.062279e+02
   1.146472e+02   2.086640e+02
  -1.140337e+02   1.415499e+02
  -5.032435e+01   3.741560e+01
   1.743405e+02   4.216038e+01
   1.773805e+02   1.486206e+02
   5.287123e+01   2.696251e+02
  -3.401298e+02   2.400391e+02
  -3.638173e+02  -1.449008e+02
  -2.080537e+02  -2.231583e+02
   1.702374e+02  -4.951508e+01
   2.816163e+02   4.836751e+01
   2.144032e+02   2.937686e+02
  -1.755753e+02   2.080478e+02
  -3.051674e+02   1.075019e+02
  -1.590030e+02  -1.082401e+02
   1.821476e+00  -2.137612e+02
   8.857796e+01  -1.246005e+02
  -5.929633e+01   5.007049e+01
  -9.268304e+01   1.511543e+02
  -1.712680e+02  -5.590430e+01
  -7.077560e+01  -3.953271e+02
   2.535114e+02  -5.041453e+02
   1.606269e+02   7.934654e+01
   8.548161e+01   1.838917e+02
  -1.860384e+02   1.895563e+02
  -1.951319e+02  -1.301918e+02
   9.258169e+01  -2.672156e+02
   3.092453e+02  -9.614877e+01
   3.662992e+02   2.466871e+02
   1.566161e+02   2.985032e+02
  -2.029943e+02   2.352579e+02
  -4.095966e+02  -7.382826e+01
  -3.013113e+02  -2.641516e+02
   8.510543e+01  -1.985598e+02
   1.862781e+02  -4.179328e+01
   1.033616e+02   4.963228e+01
   3.397991e+00   4.901806e+01
  -6.841591e+01  -8.105473e+01
   1.006941e+02  -9.405782e+01
   1.717797e+02  -1.124912e+01
   7.348540e+01   1.022001e+02
  -8.768250e+01   1.698137e+02
  -2.388887e+02   8.929456e+01
  -1.720935e+02  -8.113271e+01
   4.932096e+01  -2.291761e+02
   1.909265e+02  -1.973573e+02
   1.934277e+02  -1.065931e+02
   2.030517e+02   1.029736e+02
   3.806366e+01   2.729902e+02
  -2.263630e+01   2.444755e+02
  -7.987520e+01   9.785806e+01
  -1.148481e+01   5.463265e+01
  -8.193413e+01   1.060589e+02
  -1.587963e+02   3.657378e+01
  -1.355113e+02  -7.313594e+01
  -5.102573e+01  -1.467382e+02
   5.093541e+01  -1.513194e+02
   1.352210e+02   6.905880e+00
   1.189214e+02   1.823081e+02
  -3.306296e+00   1.390840e+02
  -1.983246e+02   6.320509e+01
  -2.040896e+02  -9.418646e+01
  -1.434005e+02  -2.180009e+02
   5.136663e+01  -2.124441e+02
   1.233052e+02  -9.626147e+01
   1.125288e+02  -6.348551e+00
   9.764258e+01  -3.418161e+01
   2.242208e+02  -1.310455e+01
   2.628397e+02   5.689447e+01
   2.108342e+02   1.892819e+02
  -4.263030e+01   3.040147e+02
  -2.826612e+02   2.465756e+02
  -2.551299e+02   1.387516e+02
  -2.131378e+02  -4.295691e+01
  -3.800266e+00  -1.603480e+02
   7.049979e+01  -1.327834e+02
   2.579648e+01  -2.609406e+01
  -7.640742e+01   4.238672e+01
  -1.114221e+02  -2.994149e+01
   1.068485e+01  -1.319717e+02
   1.019264e+02  -9.960151e+01
   9.498033e+01   4.395081e+01
  -2.522767e+00   8.688096e+01
  -1.442388e+02  -1.550850e+01
  -9.799975e+01  -1.714198e+02
   1.628481e+01  -2.734880e+02
   1.393543e+02  -1.401057e+02
   2.222758e+02   2.937197e+01
   1.960399e+02   1.767491e+02
   6.803902e+01   1.606052e+02
  -8.261619e+01   9.107088e+01
  -9.437943e+01  -2.249959e+01
  -2.308955e+01  -2.339533e+01
   4.152760e+01   3.702728e+01
   1.160005e+00   7.146504e+01
  -1.023397e+02   4.892830e+01
  -8.994464e+01  -2.394709e+01
  -1.875233e+01  -4.135644e+01
   6.821739e+01   4.195923e+00
   1.888674e+01   6.521967e+01
  -1.047562e+02   6.981902e+01
  -2.117407e+02  -7.373110e+00
  -1.984590e+02  -1.303404e+02
  -2.180866e+01  -1.567650e+02
   1.684195e+02  -1.590220e+02
   1.420366e+02  -4.060410e+01
   8.638756e+01   2.043248e+01
  -2.887417e+01   5.390148e+01
  -6.502628e+01  -6.482322e+00
   3.720063e+01  -5.954762e+01
   1.148020e+02  -3.306912e+01
   1.151822e+02   4.622276e+01
   7.039917e+01   1.620648e+02
  -4.875434e+01   9.081609e+01
  -1.011016e+02  -3.644287e+00
  -3.101116e+01  -2.088205e+01
   2.972610e+01   7.542414e+00
   3.137885e+01   8.822902e+01
  -7.444091e+01   8.651875e+01
  -1.453767e+02   7.395971e+00
  -9.291722e+01  -8.244880e+01
  -5.028979e+00  -1.432043e+02
   1.189659e+02  -1.338814e+02
   1.535446e+02  -5.428742e+00
   4.002422e+01   7.581753e+01
  -3.303975e+01   5.870737e+01
  -5.349784e+01   1.398415e+01
  -1.144338e+00  -2.036272e+01
   2.322784e+01  -1.151986e+01
  -7.847294e+00   1.628438e+01
  -5.061164e+01   1.294150e+01
  -6.231035e+01  -5.456506e+01
  -1.094873e+01  -1.065685e+02
   7.431685e+01  -1.286558e+02
   1.543098e+02   2.646992e-01
   1.565232e+02   8.121947e+01
   3.688054e+01   1.974718e+02
  -5.509393e+01   1.292691e+02
  -8.200718e+01   3.414782e+01
  -4.281897e+01  -1.888173e+01
  -2.030173e+01  -1.419726e+01
  -4.453726e+01   1.326677e+01
  -6.449002e+01   4.745751e+00
  -3.024832e+01  -4.502205e+01
   2.564412e+01  -7.340894e+01
   7.918879e+01  -3.983974e+01
   7.347570e+01   1.920409e+01
  -1.173627e+01   8.065444e+01
  -1.143018e+02   5.871827e+01
  -1.651595e+02  -5.101186e+01
  -6.826292e+01  -1.216584e+02
   4.977677e+01  -1.291243e+02
   1.856785e+02  -7.299022e+01
   1.434667e+02   5.578714e+01
   9.732760e+01   1.053369e+02
  -2.825156e+01   9.973479e+01
  -6.776425e+01   4.888136e+01
  -6.475869e+01   5.561730e+01
  -4.063493e+01   5.781495e+01
  -7.189194e+01   5.193767e+01
  -1.020933e+02  -2.097063e+01
  -9.227125e+01  -8.192575e+01
  -1.525645e+01  -1.694034e+02
   7.519794e+01  -1.234265e+02
   1.275758e+02  -1.863360e+00
   1.010789e+02   7.439045e+01
  -8.480537e+00   1.088764e+02
  -4.589555e+01   4.567268e+01
  -4.220928e+01  -6.220247e+00
  -1.602093e+00  -3.538097e+01
   1.316341e+01  -1.464642e+01
  -1.982567e+01  -8.118192e+00
  -5.687658e+01  -7.234729e+00
  -3.691001e+01  -2.841743e+01
   5.866589e+01  -3.699497e+01
   1.167952e+02  -4.209011e+00
   1.075086e+02   3.885610e+01
  -4.716832e+00   5.688814e+01
  -9.172540e+01   4.968539e+01
  -1.173919e+02  -2.131759e+00
  -2.804523e+01  -3.515871e+01
   4.489337e+01  -3.130265e+01
   4.959124e+01   3.585899e+00
   1.137277e+01   4.990026e+01
  -4.474219e+01   4.945603e+01
  -4.751204e+01   5.764692e+00
  -4.002942e+01  -3.651285e+01
  -3.167943e+01  -3.406438e+01
  -3.377335e+01  -1.623074e+00
  -4.064696e+01  -4.704400e+00
  -3.640714e+01  -4.609231e+01
   2.104802e+01  -1.110569e+02
   7.913993e+01  -9.513795e+01
   1.225681e+02  -2.649764e+01
   8.785500e+01   9.082146e+01
  -4.341608e+00   9.068358e+01
  -6.353017e+01   3.683118e+01
  -4.412795e+01  -7.366456e+00
   4.733816e+01  -1.897966e+01
   8.481614e+01   3.516513e+01
   6.926464e+01   6.556937e+01
  -4.265179e+01   6.536947e+01
  -1.162541e+02   2.593564e+01
  -1.122902e+02  -2.083906e+01
  -1.822128e+01  -6.839098e+01
   4.073693e+01  -3.185975e+01
   3.102175e+01   1.241318e+00
  -2.906882e+01   2.493662e+01
  -6.066475e+01  -8.613704e+00
  -1.625248e+01  -8.525190e+01
   2.493683e+01  -1.005454e+02
   1.159900e+02  -3.553671e+01
   8.995184e+01   6.478533e+01
   1.416162e+01   1.372582e+02
  -6.583655e+01   1.159381e+02
  -6.481472e+01  -1.463972e+01
  -5.020802e+01  -1.021531e+02
   1.434033e+01  -6.024100e+01
   3.559319e+01  -1.063333e+01
   3.088989e+01   2.153270e+01
   1.094511e+01   7.159699e+00
   3.119671e+00  -9.296852e+00
   2.602529e+01   1.318982e+01
   3.461207e+01   6.290849e+01
   1.460679e+01   7.757193e+01
  -3.450484e+01   3.256423e+01
  -9.217490e+01  -1.684401e+01
  -1.068862e+02  -4.291823e+01
  -1.117798e+01  -3.529720e+01
   6.654884e+01  -1.399355e+01
   5.902356e+01  -8.383140e+00
   9.894208e+00   7.156013e+00
  -1.898607e+01   1.621360e+01
  -1.501022e+01   8.448139e+00
   7.663516e+00  -2.875142e+00
  -2.048426e+00  -5.990563e+00
  -5.523936e+01  -3.642307e+00
  -6.698214e+01  -9.893582e+00
  -5.521713e+00  -4.524338e+01
   7.311364e+01  -8.427712e+01
   1.184117e+02  -5.598969e+01
   1.036083e+02   4.183230e+01
   3.376983e+01   1.157020e+02
  -5.266170e+01   9.634700e+01
  -8.429918e+01   4.995453e+01
  -5.100794e+01  -8.925460e+00
  -1.803517e+01  -2.637525e+01
  -3.217374e-01  -9.517654e+00
  -1.004759e+01  -5.149081e+00
  -1.513021e+01  -3.181921e+01
  -9.223443e+00  -5.669420e+01
   2.392720e+01  -4.624388e+01
   5.321699e+01   5.336750e+00
   6.137520e+01   6.603621e+01
   1.226024e+01   6.339426e+01
  -4.653977e+01   1.592531e+01
  -8.076985e+01  -3.084136e+01
  -2.435642e+01  -7.674010e+01
   4.605879e+01  -5.134415e+01
   6.404910e+01   1.131440e+01
   3.611348e+01   4.849165e+01
  -2.547021e+01   4.091517e+01
  -2.754192e+01   1.368244e+01
   1.632774e+01  -3.937491e+00
   5.256070e+01  -4.225495e+00
   1.106373e+01   1.726969e+01
  -6.258186e+01   4.434117e+01
  -7.469685e+01   2.859544e+01
  -5.033368e+01  -3.395068e+00
   2.165351e+01  -6.172482e+01
   3.230159e+01  -5.745607e+01
   2.937424e+01  -5.760920e+00
   1.502304e+00   3.709344e+01
  -1.909371e+01   3.183041e+01
  -2.495149e+01  -3.600825e+00
  -1.601360e+01  -2.799121e+01
   2.038695e-01  -2.865723e+01
   2.192776e+01   2.997558e+00
   3.359867e+01   1.566610e+01
   1.267312e+01   4.687966e+00
  -5.080623e+00  -1.154513e+01
  -4.729584e+00  -6.658963e+00
   1.435554e+00   2.011352e+01
   3.287784e+00   3.347310e+01
  -1.000971e+01   1.565365e+01
  -2.709390e+01  -2.126684e+01
  -9.295511e+00  -3.922590e+01
   3.057356e+01  -1.969918e+01
   3.719931e+01   2.142469e+01
   1.585760e+01   4.494782e+01
  -4.088015e+01   2.757949e+01
  -5.408374e+01  -9.467505e+00
  -3.749291e+01  -2.653836e+01
   2.326282e+01  -3.196579e+01
   4.291398e+01  -2.111420e+01
   2.335675e+01  -3.287953e+00
  -2.267547e+01   5.635930e-01
  -2.243440e+01  -4.891093e-01
   1.728575e+01  -2.166094e+01
   5.657272e+01  -6.097099e+00
