
 $NMID
 id='ANONYMOUS ', fmtdat='(2E16.6)'
 volume=1.0
 tramp=1.0
 $END
  -2.823097e+03   4.852503e+02
  -1.910063e+03  -1.599087e+03
   2.633090e+02  -2.393167e+03
   9.458342e+02  -8.967334e+02
   7.920396e+02   6.343875e+01
  -2.848041e+02   2.398613e+02
  -5.126132e+02  -2.219401e+02
   7.995362e+00  -7.115777e+02
   5.279118e+02  -5.446267e+02
   5.634391e+02   1.205029e+02
   3.234595e+02   5.030291e+02
  -6.326355e+01   7.297586e+02
  -2.569817e+02   1.903436e+02
  -1.654178e+02  -3.191268e+02
   5.238454e+01  -6.614598e+02
   4.023120e+02   1.479558e+01
   3.190012e+02   4.385823e+02
  -1.781801e+02   5.361885e+02
  -4.181266e+02   2.705765e+02
  -3.659274e+02  -1.854104e+02
  -1.043764e+02  -3.530054e+02
   1.399464e+02  -2.019053e+02
   1.274615e+02  -3.771897e+01
  -1.996775e+02  -3.446586e+01
  -2.968871e+02  -2.174756e+02
  -1.164877e+01  -3.376396e+02
   4.299147e+02  -1.664601e+02
   6.548111e+02   1.926034e+02
   2.137910e+02   3.816585e+02
  -3.402183e+02   2.984240e+02
  -5.472567e+02  -3.087605e+01
  -1.675716e+02  -3.723675e+02
   2.461798e+02  -3.724884e+02
   4.246502e+02  -1.899074e+02
   3.499627e+02   2.023583e+02
   8.199125e+01   3.146021e+02
  -2.820143e+01   2.247610e+02
   4.113022e+01  -1.832292e+02
   1.459179e+02  -1.780356e+02
   2.130429e+02   5.156718e+01
   8.462740e+01   4.798263e+02
  -1.771119e+02   4.052051e+02
  -3.810551e+02  -3.665195e+01
  -1.502363e+02  -3.423466e+02
   1.125716e+02  -1.882395e+02
   1.918436e+02   2.168078e+02
  -6.351305e+01   4.267899e+02
  -4.760799e+02   3.698990e+01
  -5.248182e+02  -3.485110e+02
  -1.664699e+02  -4.922569e+02
   2.751543e+02  -2.676765e+02
   5.630068e+02   5.321881e+01
   3.198073e+02   2.485367e+02
  -4.745732e+01   2.366104e+02
  -3.573354e+02   5.288563e+01
  -1.767976e+02  -7.876773e+01
   3.516576e+01  -1.535656e+01
   9.708417e+01   8.401407e+01
  -1.086438e+02   1.007705e+02
  -1.877780e+02  -2.329573e+01
  -7.822957e+01  -2.033876e+02
   1.804326e+02  -2.450402e+02
   2.897055e+02  -8.354161e+01
   2.362705e+02   7.198853e+01
  -6.999570e+00   2.574993e+02
  -2.133487e+02   3.538707e+02
  -3.289723e+02   1.649816e+02
  -2.281074e+02  -1.594395e+02
  -6.507122e+01  -3.501190e+02
   9.199824e+01  -2.891594e+02
   4.452956e+01  -1.476688e+02
   1.310973e+01  -8.079742e+01
   8.072837e+01  -1.174509e+02
   1.783277e+02  -8.237072e+01
   2.513691e+02   1.034105e+02
   9.811737e+01   2.321582e+02
  -8.873233e+01   1.671887e+02
  -1.729089e+02  -5.729207e+00
  -1.397750e+02  -2.305020e+02
   1.624974e+01  -2.352078e+02
   2.261972e+02  -8.472138e+01
   2.729055e+02   1.809855e+02
   1.501841e+02   3.014740e+02
  -5.795901e+01   2.013987e+02
  -1.323933e+02   1.146756e+02
  -1.532919e+02   6.112999e+01
  -1.115592e+02   6.203561e+01
  -2.384123e+02   3.841716e+01
  -3.458875e+02  -5.949677e+01
  -3.076827e+02  -2.247318e+02
   3.818182e+01  -4.083097e+02
   3.707853e+02  -3.827646e+02
   4.178948e+02  -1.877468e+02
   2.741976e+02   7.658078e+01
   1.318626e+01   2.563376e+02
  -7.107853e+01   1.956925e+02
  -3.056914e+01   2.681983e+01
   9.173698e+01  -6.882934e+01
   1.383109e+02   2.357941e+01
   1.476826e+01   1.598153e+02
  -1.003513e+02   1.149408e+02
  -1.120809e+02  -5.929345e+01
   2.985830e+01  -1.348018e+02
   1.623692e+02  -1.369249e+01
   1.485153e+02   2.107513e+02
  -1.747447e+01   2.967382e+02
  -2.018542e+02   1.547146e+02
  -3.757827e+02  -4.068997e+01
  -2.709130e+02  -2.179826e+02
  -4.554546e+01  -2.571417e+02
   1.180663e+02  -1.202716e+02
   1.359136e+02  -1.091148e+01
   4.184866e+01   1.518746e+01
  -5.255548e+01  -4.634121e+01
  -5.022766e+00  -1.173209e+02
   1.019939e+02  -7.611436e+01
   1.571990e+02   1.075572e+01
   2.007760e+01   6.997824e+01
  -8.442627e+01  -8.569007e+00
  -4.369849e+01  -8.438013e+01
   1.317054e+02  -7.998370e+01
   2.523510e+02  -1.567424e+01
   2.353779e+02   1.249990e+02
   3.739200e+01   2.336019e+02
  -1.724793e+02   2.048904e+02
  -2.302738e+02   1.108473e+02
  -1.346900e+02  -3.897490e+01
   2.911072e+01  -8.793457e+01
   5.954492e+01   1.397407e+01
  -4.131241e+01   7.695452e+01
  -1.764924e+02   1.079477e+01
  -1.819245e+02  -1.040519e+02
  -4.395418e+01  -1.419424e+02
   7.863219e+01  -1.111231e+02
   1.157283e+02  -3.230524e+01
   5.367540e+01   2.785081e+01
  -3.160520e+01  -1.271890e+01
  -3.624681e+01  -1.146595e+02
   7.838863e+01  -1.182203e+02
   1.978595e+02  -3.748044e+01
   1.688707e+02   1.147360e+02
   2.700176e+01   1.986209e+02
  -1.341304e+02   1.392744e+02
  -1.426898e+02   3.366772e+01
  -5.299402e+01  -8.525152e+01
   5.472863e+01  -7.054026e+01
   6.307693e+01  -3.013945e+01
   3.620912e+00   1.580272e+01
  -3.187178e+01   1.159420e+01
   4.992884e+00  -2.060078e+01
   7.557580e+01  -2.578277e+00
   9.868473e+01   8.574405e+01
   1.564371e+01   1.665983e+02
  -1.224563e+02   1.302689e+02
  -1.997842e+02   5.165427e+00
  -1.533862e+02  -1.348494e+02
  -3.851622e+01  -1.781700e+02
   8.791992e+01  -1.392125e+02
   1.182081e+02  -2.707790e+01
   6.160108e+01   3.819190e+01
   3.125870e+01   2.609866e+01
   5.307083e+01  -1.135086e+01
   7.930423e+01  -1.187400e+01
   5.395476e+01   6.245082e+01
  -3.208757e+01   8.953568e+01
  -1.177015e+02   7.257914e+01
  -8.689808e+01  -3.321744e+01
   8.202513e+00  -1.032512e+02
   1.192582e+02  -9.449023e+01
   1.932475e+02   4.605047e+01
   5.525527e+01   1.751427e+02
  -1.297770e+02   1.980613e+02
  -2.403879e+02   7.833735e+01
  -2.710039e+02  -8.326885e+01
  -8.212185e+01  -1.569390e+02
   2.718984e+01  -1.284285e+02
   7.536151e+01  -7.253756e+01
   6.388164e+01  -6.187573e+01
   5.357352e+01  -8.698925e+01
   8.259520e+01  -7.795855e+01
   1.290264e+02   1.256727e+01
   1.159141e+02   1.384073e+02
   4.148657e+01   1.979101e+02
  -6.439834e+01   1.502853e+02
  -1.414642e+02   3.370670e+01
  -1.030888e+02  -1.007184e+02
  -1.472726e+01  -1.666141e+02
   7.381060e+01  -8.482777e+01
   5.475919e+01   1.292296e+01
  -1.944689e+00   5.184798e+01
  -2.226048e+01   2.633225e+01
   2.400390e+01   9.869468e+00
   7.925779e+01   1.652808e+01
   4.728045e+01   3.499186e+01
  -5.474575e+01   3.684043e+01
  -1.553958e+02   5.421233e+00
  -1.320619e+02  -5.852077e+01
  -8.810596e+00  -8.860760e+01
   1.310369e+02  -6.711654e+01
   1.208096e+02  -9.855518e+00
   4.502144e+01   4.600131e+01
  -5.360200e+01   4.013803e+01
  -7.398402e+01  -1.531615e+01
  -1.470771e+01  -6.083244e+01
   3.678066e+01  -6.049644e+01
   5.989278e+01   6.427406e+00
   4.661119e+01   4.035829e+01
   4.189631e+01   3.185021e+01
   5.456996e+01  -8.055104e-01
   6.055171e+01  -1.636106e+00
   2.904568e+01   5.933125e+01
  -3.971010e+01   1.430631e+02
  -1.268042e+02   1.446134e+02
  -1.561989e+02   3.422323e+01
  -1.191673e+02  -6.901586e+01
   5.908677e+00  -1.297996e+02
   8.102317e+01  -6.038594e+01
   5.465923e+01   1.271354e+01
  -4.275317e+01   1.719248e+01
  -1.286244e+02  -2.892422e+01
  -6.876791e+01  -8.444609e+01
   7.520719e+01  -1.008941e+02
   1.749388e+02  -5.301869e+01
   1.479322e+02   2.406337e+01
   3.272345e+01   7.261400e+01
  -6.166987e+01   5.977389e+01
  -4.106269e+01   1.312286e+00
   3.681436e+01  -3.048263e+01
   8.365486e+01   1.367823e+01
   4.566349e+01   9.222601e+01
  -7.275941e+01   1.354078e+02
  -1.497942e+02   7.101452e+01
  -1.011316e+02  -8.922406e+01
  -1.086109e+01  -1.680278e+02
   5.589512e+01  -1.277937e+02
   1.008334e+02   1.264267e+01
   4.709420e+01   1.068054e+02
  -9.745968e+00   1.079508e+02
  -4.403360e+01   2.025668e+01
  -4.152398e+01  -2.268456e+01
  -1.817234e+01  -8.200013e+00
  -5.196345e+00   1.430868e+01
  -2.725604e+01  -1.816157e+01
  -5.964839e+01  -8.349467e+01
  -2.601292e+01  -9.148339e+01
   4.573092e+01  -4.258819e+01
   1.285120e+02   3.826527e+01
   1.038108e+02   5.880519e+01
   1.667414e+01   4.528778e+01
  -7.222395e+01   2.611599e+01
  -8.250869e+01   9.969032e+00
  -1.204561e+01  -1.142570e+01
   3.140318e+01  -1.969528e+01
   1.648102e+01  -1.551723e+01
  -1.599166e+01   2.368853e+00
   2.404887e+00   5.599412e+00
   5.897999e+01  -3.270897e+00
   8.261952e+01   1.902957e+01
   2.116026e+01   7.305873e+01
  -1.060654e+02   9.189909e+01
  -1.740481e+02   6.981639e+01
  -1.283428e+02  -5.032442e+01
  -2.437817e+01  -1.308776e+02
   6.881699e+01  -1.318432e+02
   8.707679e+01  -6.233411e+01
   7.109592e+01   1.762096e+01
   2.557817e+01   3.111286e+01
   2.598142e+00   9.171104e+00
   1.080646e+01   4.883231e+00
   3.039685e+01   4.278618e+01
   1.285734e+01   9.083731e+01
  -2.736192e+01   7.738128e+01
  -7.340659e+01  -1.896202e+01
  -7.461229e+01  -9.603632e+01
  -1.284754e+01  -1.084318e+02
   6.552512e+01  -3.433345e+01
   9.404703e+01   6.437073e+01
   3.212353e+01   8.881878e+01
  -5.094277e+01   6.109180e+01
  -9.561237e+01  -5.895050e+00
  -5.016207e+01  -5.337008e+01
   3.262454e+01  -5.552158e+01
   2.994289e+01  -2.687796e+01
  -2.368944e+01   1.160722e+00
  -5.682896e+01   1.149925e+01
  -1.908434e+01  -2.059518e+01
   6.277271e+01  -6.953041e+01
   1.072845e+02  -5.926266e+01
   5.894949e+01   1.818437e+01
  -1.091892e+01   7.603059e+01
  -5.231057e+01   8.646410e+01
  -4.249470e+01   1.295008e+01
  -4.577711e+00  -4.995982e+01
   1.942175e+01  -4.531817e+01
   3.273134e+01   1.190697e+01
   2.961821e+01   5.312026e+01
  -7.037638e-01   3.601332e+01
  -2.862490e+01  -3.620506e+00
  -3.367265e+01  -2.212657e+01
  -2.200263e+01  -1.315723e+00
   2.364490e+00   1.712049e+01
   6.779501e+00   5.052020e+00
  -3.781746e+00  -2.846840e+01
   3.499869e+00  -4.365632e+01
   2.085855e+01  -1.479464e+01
   3.333491e+01   2.545983e+01
   3.055597e+00   5.960666e+01
  -3.241666e+01   2.127903e+01
  -6.110153e+01  -3.219494e+01
  -2.443475e+01  -5.466653e+01
   5.111899e+01  -3.342690e+01
   7.723386e+01   7.627274e+00
   4.180241e+01   3.371737e+01
  -2.373711e+01   3.941329e+01
  -5.671835e+01   2.521013e+01
  -2.522161e+01   6.110310e+00
   2.181772e+01   6.137832e-02
   3.284457e+01   6.879351e+00
  -1.941603e+01   2.506545e+01
  -8.345630e+01   1.676262e+01
