
 $NMID
 id='ANONYMOUS ', fmtdat='(2E16.6)'
 volume=1.0
 tramp=1.0
 $END
  -2.074958e+03  -2.268796e+02
  -2.068952e+03  -1.366973e+03
   3.378595e+02  -1.377229e+03
   1.204157e+03  -9.968492e+02
   5.533617e+02   9.159184e+01
  -2.771848e+02   4.410684e+02
  -4.709220e+02  -2.068262e+02
  -1.202818e+02  -5.565464e+02
   4.324586e+02  -4.806231e+02
   5.362530e+02  -1.013396e+02
   3.089408e+02   4.490329e+02
  -9.283666e+01   5.680456e+02
  -3.317817e+02   1.357762e+02
  -2.871735e+02  -3.634695e+02
   1.595094e+02  -4.807539e+02
   3.176735e+02   1.400839e+01
   1.898281e+02   4.005095e+02
  -1.667698e+02   4.975317e+02
  -2.777400e+02   1.324465e+02
  -2.991692e+02  -1.523916e+02
  -6.816588e+01  -2.256820e+02
   1.031231e+02  -1.731563e+02
   5.923619e+01  -5.367828e+01
  -1.193798e+02  -5.040063e+01
  -2.432206e+02  -1.403430e+02
  -1.013579e+02  -2.065130e+02
   2.826310e+02  -2.085150e+02
   4.884835e+02   1.068277e+02
   2.936352e+02   2.800915e+02
  -2.332206e+02   2.453306e+02
  -3.720556e+02  -1.845930e+01
  -2.134362e+02  -2.759397e+02
   1.707135e+02  -2.342956e+02
   3.316079e+02  -1.369260e+02
   2.033797e+02   1.334706e+02
   1.109367e+01   2.339368e+02
  -1.044541e+02   1.646751e+02
  -2.279780e+00  -1.454267e+01
   7.512465e+01  -1.853788e+02
   1.586811e+02   1.126424e+01
   1.193438e+02   4.496530e+02
  -2.311590e+02   4.670086e+02
  -1.927453e+02   2.697563e+01
  -1.488224e+02  -2.294064e+02
   1.470452e+02  -1.984923e+02
   2.819285e+02   1.861440e+02
  -4.772334e+01   2.636928e+02
  -2.694359e+02   5.913096e+01
  -3.965705e+02  -2.122832e+02
  -1.210604e+02  -3.615146e+02
   2.140467e+02  -2.298699e+02
   4.165129e+02  -3.660245e-02
   2.581603e+02   1.842137e+02
  -6.337032e+01   2.269528e+02
  -2.114675e+02   6.763224e+01
  -1.199925e+02  -7.082989e+01
   1.336225e+01  -6.187261e+01
   6.648574e+01   7.994964e+01
  -5.938694e+01   8.351313e+01
  -2.228044e+02  -3.421984e+01
  -9.650559e+01  -1.222369e+02
   1.196170e+02  -1.615834e+02
   2.424723e+02  -5.809911e+01
   1.543920e+02   8.388298e+01
  -2.361916e+01   1.874437e+02
  -2.000371e+02   1.838485e+02
  -2.087805e+02   1.769219e+02
  -1.763110e+02  -9.216949e+01
  -7.028143e+01  -2.690158e+02
   4.533776e+01  -2.475344e+02
   6.996113e+01  -1.093206e+02
   3.984795e+01  -3.248382e+01
   6.172443e+01  -8.336052e+01
   9.682557e+01  -8.719228e+01
   1.496793e+02   6.846159e+01
   1.069195e+02   1.473124e+02
  -5.064943e+01   1.373092e+02
  -1.314992e+02   1.138947e+01
  -9.529188e+01  -1.564839e+02
  -1.052342e+01  -1.659451e+02
   1.824474e+02  -5.493907e+01
   2.144437e+02   1.302569e+02
   1.315540e+02   2.026833e+02
  -3.220859e+01   2.324292e+02
  -1.197019e+02   1.053833e+02
  -1.068480e+02   2.546739e+01
  -9.729947e+01  -5.181610e-01
  -1.608122e+02   5.421118e+01
  -2.954349e+02  -4.116211e+01
  -1.948155e+02  -1.900069e+02
   1.547351e+01  -2.694359e+02
   2.950783e+02  -2.311242e+02
   3.099693e+02  -1.677102e+02
   2.254307e+02   6.886560e+01
   2.930704e+01   1.799741e+02
  -9.231935e+01   2.007839e+02
  -4.642887e+01   3.435954e+01
   5.296760e+01  -6.140652e+01
   1.079237e+02  -3.362003e+00
   1.407441e+01   1.112725e+02
  -8.394170e+01   1.261787e+02
  -1.117938e+02  -3.932870e+01
  -7.520958e+00  -8.748595e+01
   1.133753e+02   2.882987e+00
   1.189088e+02   1.539748e+02
   1.396025e+01   2.202340e+02
  -1.624324e+02   1.394354e+02
  -2.311840e+02  -4.881275e+01
  -2.080779e+02  -1.680666e+02
  -9.297931e+01  -1.567936e+02
   7.644152e+01  -7.669043e+01
   1.054544e+02  -8.651206e+00
   2.761550e+01   1.317592e+01
  -4.233253e+01  -2.490202e+01
  -3.829085e+00  -7.835195e+01
   1.036798e+02  -6.647627e+01
   1.122380e+02  -6.267349e-01
   2.564381e+01   4.793572e+01
  -5.081213e+01  -2.243630e-01
  -2.976028e+01  -7.216965e+01
   9.022244e+01  -6.500359e+01
   2.033686e+02  -2.733439e+01
   1.667111e+02   9.764666e+01
   1.858512e+01   1.619536e+02
  -1.639496e+02   1.524052e+02
  -1.809725e+02   6.506548e+01
  -1.064582e+02  -1.744681e+01
   3.760909e+01  -5.526222e+01
   5.574097e+01  -1.003777e+00
  -2.495384e+01   4.214175e+01
  -1.208474e+02   1.215303e+01
  -1.227131e+02  -4.192961e+01
  -5.441614e+01  -1.396945e+02
   4.407886e+01  -9.966229e+01
   1.064352e+02  -2.363504e+01
   4.486717e+01   2.225026e+01
  -1.567839e+01  -6.052676e+00
  -2.131439e+01  -6.485267e+01
   6.327671e+01  -7.259011e+01
   1.512104e+02  -1.299156e+01
   8.299214e+01   8.270259e+01
   5.853131e+00   1.405450e+02
  -1.119804e+02   1.207825e+02
  -1.411174e+02   2.088180e+01
  -4.684212e+01  -7.963127e+01
   4.545536e+01  -6.512686e+01
   5.055608e+01  -2.520377e+01
   1.166838e+01   2.053732e+01
  -1.619754e+01   6.806106e+00
   8.963880e+00  -1.133278e+01
   4.968364e+01   4.627280e+00
   6.010925e+01   6.420344e+01
  -1.488499e+00   1.061631e+02
  -7.037286e+01   9.632767e+01
  -1.411422e+02   1.064647e+01
  -1.523252e+02  -8.992867e+01
  -3.789674e+01  -1.667324e+02
   4.730718e+01  -9.996912e+01
   8.917257e+01  -4.198483e+01
   5.037270e+01   2.964092e+01
   2.025430e+01   2.238371e+01
   3.810449e+01  -1.386768e+01
   6.068707e+01   3.242879e-01
   3.046090e+01   4.745359e+01
  -2.400538e+01   6.638659e+01
  -7.727309e+01   3.829652e+01
  -7.675182e+01  -2.948956e+01
   2.236707e+01  -6.399934e+01
   9.518656e+01  -5.821105e+01
   1.308750e+02   4.115339e+01
   5.480459e+01   1.203712e+02
  -4.695422e+01   1.342248e+02
  -1.813995e+02   7.171806e+01
  -1.464351e+02  -7.680166e+01
  -9.114778e+01  -1.142547e+02
   2.219648e+01  -9.504111e+01
   7.286964e+01  -3.981685e+01
   5.651279e+01  -5.194695e+01
   5.369792e+01  -6.287045e+01
   6.679079e+01  -3.735527e+01
   8.398405e+01   1.762869e+01
   7.954901e+01   9.609359e+01
   2.287378e+01   1.540668e+02
  -6.296545e+01   1.113378e+02
  -1.256188e+02   8.423429e+00
  -9.167677e+01  -6.301271e+01
  -9.607976e-01  -9.402420e+01
   4.160509e+01  -5.805964e+01
   4.838878e+01  -1.189390e+00
  -7.367734e-02   3.600575e+01
  -8.662855e+00   2.212984e+01
   2.394269e+01   7.200841e+00
   5.086325e+01   6.590674e+00
   3.381242e+01   2.811045e+01
  -5.688768e+01   2.778245e+01
  -1.097348e+02   1.111766e+01
  -9.665592e+01  -3.985222e+01
  -7.555870e+00  -6.014749e+01
   8.124450e+01  -4.856128e+01
   1.108744e+02  -7.787757e+00
   2.747102e+01   3.426444e+01
  -4.357763e+01   2.948788e+01
  -4.519703e+01  -5.142891e+00
  -4.257097e+00  -4.741348e+01
   3.259550e+01  -4.432569e+01
   3.986714e+01  -4.618077e+00
   3.687578e+01   3.466602e+01
   2.800124e+01   2.658986e+01
   3.732603e+01  -3.882727e+00
   4.318106e+01  -3.849142e+00
   3.031663e+01   5.090800e+01
  -2.034732e+01   1.021762e+02
  -7.502677e+01   9.322233e+01
  -1.167656e+02  -1.155420e+00
  -9.894791e+01  -6.994279e+01
   1.600039e+01  -7.783131e+01
   6.393245e+01  -3.678054e+01
   4.376833e+01   1.404626e+01
  -4.184413e+01   2.207002e+01
  -8.602342e+01  -3.142002e+01
  -5.920747e+01  -6.761788e+01
   5.101793e+01  -6.406352e+01
   1.230596e+02  -3.581185e+01
   1.094062e+02   2.013734e+01
   3.885504e+01   6.048011e+01
  -3.780389e+01   3.399277e+01
  -2.749714e+01   2.803249e+00
   2.521326e+01  -2.135792e+01
   5.156328e+01   1.715707e+01
   4.121652e+00   9.559091e+01
  -4.441281e+01   1.043193e+02
  -1.108391e+02   3.864148e+01
  -8.555318e+01  -5.946082e+01
  -2.586616e+01  -1.452273e+02
   5.100861e+01  -9.834786e+01
   6.982594e+01   1.409037e+01
   3.789447e+01   8.266368e+01
  -8.261565e+00   5.294007e+01
  -3.522446e+01   9.932697e+00
  -3.449583e+01  -2.204694e+01
  -1.078339e+01  -5.379590e+00
  -1.933053e+00   8.933639e+00
  -1.993092e+01  -1.345982e+01
  -3.246596e+01  -6.305451e+01
  -3.496883e+01  -6.629625e+01
   2.950463e+01  -1.772950e+01
   8.366680e+01   2.558085e+01
   1.018615e+02   3.502782e+01
   1.082087e+01   3.093960e+01
  -6.283752e+01   1.998991e+01
  -5.999689e+01   6.353129e+00
  -6.006676e+00  -5.323573e+00
   1.981172e+01  -1.403458e+01
   1.126587e+01  -8.977478e+00
  -1.137183e+01   2.511194e+00
   3.247101e+00   3.851791e+00
   5.284792e+01   5.346996e+00
   5.990454e+01   6.834063e+00
   9.372906e+00   4.954689e+01
  -8.767724e+01   6.894295e+01
  -1.122070e+02   3.036864e+01
  -9.335336e+01  -5.096075e+01
  -3.475868e+01  -9.825253e+01
   5.381160e+01  -1.040300e+02
   7.430087e+01  -5.433056e+01
   4.876360e+01   1.099540e+01
   1.790928e+01   2.020897e+01
  -1.252549e+00   7.644588e+00
   7.598520e+00   2.001965e+00
   1.758314e+01   3.012251e+01
   9.807167e+00   5.800909e+01
  -1.993158e+01   5.052308e+01
  -5.062469e+01  -8.472532e+00
  -5.562818e+01  -6.301261e+01
  -1.644042e+01  -5.745192e+01
   5.249504e+01  -8.727250e+00
   6.277813e+01   4.817633e+01
   1.882269e+01   7.564875e+01
  -4.370573e+01   4.630533e+01
  -6.750825e+01  -1.411142e+01
  -3.307788e+01  -4.407436e+01
   2.978453e+01  -3.516583e+01
   2.383859e+01  -1.454285e+01
  -2.596625e+01   2.355996e-01
  -4.580738e+01   2.668982e+00
  -1.326733e+01  -1.791614e+01
   5.798779e+01  -5.856725e+01
   8.862781e+01  -3.449054e+01
   4.588289e+01   5.397981e+00
  -1.486858e+01   5.804235e+01
  -3.206946e+01   6.037286e+01
  -2.684158e+01   6.343383e+00
  -5.732113e+00  -3.258798e+01
   1.636318e+01  -3.389543e+01
   2.901599e+01   8.642044e+00
   1.807327e+01   3.278457e+01
  -5.612738e+00   2.578023e+01
  -2.130980e+01  -2.628455e+00
  -2.548209e+01  -1.466916e+01
  -1.306414e+01   3.071999e-01
   1.075948e+00   1.284032e+01
   6.104895e+00   3.724428e+00
  -8.679606e-01  -2.207978e+01
  -2.061383e+00  -3.228861e+01
   1.543181e+01  -1.079536e+01
   2.804774e+01   2.830093e+01
   3.030059e+00   3.254917e+01
  -2.591913e+01   1.649705e+01
  -3.792338e+01  -2.329692e+01
  -2.081679e+01  -4.183322e+01
   3.241858e+01  -2.289770e+01
   6.401302e+01   1.003164e+01
   2.978937e+01   2.245160e+01
  -2.215688e+01   2.275396e+01
  -4.443997e+01   1.740850e+01
  -1.908831e+01   2.987572e+00
   2.352313e+01  -2.980547e+00
   2.282959e+01   6.247325e+00
  -1.787094e+01   2.238921e+01
  -5.482137e+01   4.693128e+00
