
 $NMID
 id='ANONYMOUS ', fmtdat='(2E16.6)'
 volume=1.0
 tramp=1.0
 $END
  -4.053004e+03  -3.327494e+00
  -2.499794e+03  -2.568215e+03
   6.171653e+02  -2.401811e+03
   1.799428e+03  -1.193970e+03
   1.022617e+03   2.570876e+02
  -6.355784e+02   5.208173e+02
  -7.834781e+02  -3.616023e+02
  -5.591604e+01  -1.260342e+03
   8.440577e+02  -7.639031e+02
   8.754870e+02   4.434106e+01
   3.723227e+02   8.797032e+02
  -1.197354e+02   9.085700e+02
  -5.804515e+02   1.188820e+02
  -5.390161e+02  -6.292795e+02
   1.998161e+02  -8.483753e+02
   4.748253e+02  -9.761438e+01
   3.254528e+02   5.357342e+02
  -2.618479e+02   6.973470e+02
  -6.161722e+02   1.157158e+02
  -4.080524e+02  -2.634194e+02
  -9.101389e+01  -4.367793e+02
   1.930423e+02  -3.033672e+02
   1.933903e+02   4.572952e+00
  -1.522453e+02   4.638932e+01
  -3.526728e+02  -1.431566e+02
  -1.013742e+02  -4.221171e+02
   4.148552e+02  -2.999560e+02
   8.408498e+02   1.733524e+02
   3.525941e+02   6.091287e+02
  -3.543082e+02   4.935303e+02
  -7.637708e+02  -1.822289e+02
  -2.441800e+02  -3.856784e+02
   2.036401e+02  -4.789633e+02
   5.463642e+02  -2.046231e+02
   4.009348e+02   2.460560e+02
   1.344881e+02   4.054534e+02
  -1.684884e+02   2.695918e+02
  -8.935910e+01  -1.782046e+02
   1.805699e+02  -3.712982e+02
   4.196778e+02   5.631813e+01
   2.320652e+02   5.620856e+02
  -3.040572e+02   6.602111e+02
  -5.703705e+02  -2.172482e+01
  -2.087908e+02  -4.945912e+02
   3.277655e+02  -2.548885e+02
   3.946210e+02   3.231610e+02
  -2.508729e+01   5.366711e+02
  -4.854067e+02   2.210716e+02
  -6.143357e+02  -3.446078e+02
  -1.918842e+02  -6.267707e+02
   3.660277e+02  -4.319242e+02
   6.345087e+02   6.716652e+01
   4.382630e+02   2.904165e+02
  -5.693832e+01   4.463254e+02
  -4.546282e+02   9.026474e+01
  -2.295144e+02  -1.671423e+02
   1.038781e+02  -9.136920e+01
   1.363575e+02   1.268048e+02
  -1.396246e+02   1.928969e+02
  -3.604281e+02  -1.021610e+02
  -1.469724e+02  -2.631474e+02
   1.980627e+02  -2.710460e+02
   3.019822e+02  -7.561672e+01
   2.160213e+02   1.047446e+02
   1.712159e+01   2.667574e+02
  -2.896767e+02   3.773549e+02
  -3.462383e+02   2.097985e+02
  -2.695817e+02  -1.213146e+02
  -6.866120e+01  -4.485392e+02
   1.428521e+02  -4.009015e+02
   8.901883e+01  -1.553863e+02
   3.967121e+01  -2.419729e+01
   7.806936e+01  -1.156583e+02
   1.617790e+02  -1.200701e+02
   2.778122e+02   8.187241e+01
   1.274143e+02   2.997746e+02
  -1.033733e+02   2.206905e+02
  -2.384251e+02   2.683678e+01
  -1.882526e+02  -2.668842e+02
   3.510561e+00  -3.134729e+02
   2.603169e+02  -9.749656e+01
   3.574840e+02   1.599323e+02
   1.762763e+02   3.424718e+02
  -2.042547e+01   3.129128e+02
  -1.867306e+02   1.832536e+02
  -1.609044e+02   2.198259e+01
  -1.013835e+02   5.337931e+01
  -2.419640e+02   7.104381e+01
  -4.220576e+02  -5.889865e+00
  -3.689872e+02  -2.672265e+02
   1.577261e+01  -4.529262e+02
   3.285068e+02  -4.690944e+02
   4.312654e+02  -2.272750e+02
   3.378641e+02   1.214119e+02
   4.885949e+01   2.812774e+02
  -1.060608e+02   2.922887e+02
  -6.752115e+01   2.924786e+01
   1.141126e+02  -1.154142e+02
   1.907342e+02   1.990011e+00
   6.745538e+01   1.732416e+02
  -1.326595e+02   1.953751e+02
  -1.867238e+02  -5.004577e+01
  -8.574537e-01  -2.016725e+02
   1.883055e+02  -5.857545e+01
   2.019471e+02   2.250792e+02
  -2.943310e+01   3.270078e+02
  -2.360043e+02   2.076160e+02
  -3.846398e+02  -7.702111e+01
  -3.007020e+02  -2.377974e+02
  -9.846622e+01  -2.543911e+02
   9.632648e+01  -1.695264e+02
   2.046927e+02  -1.088189e+01
   6.087497e+01   2.519919e+01
  -7.122243e+01  -2.791262e+01
  -1.975865e+01  -1.195601e+02
   1.060312e+02  -1.033850e+02
   1.761438e+02  -2.901264e+01
   4.964310e+01   6.684204e+01
  -8.173721e+01   1.508749e+01
  -4.571708e+01  -8.411950e+01
   1.043353e+02  -8.912172e+01
   2.975080e+02  -1.038325e+01
   2.785407e+02   1.541613e+02
   6.288479e+01   2.724128e+02
  -1.797700e+02   2.449665e+02
  -2.997750e+02   1.449003e+02
  -1.638194e+02  -5.359435e+01
   3.483386e+01  -1.005480e+02
   8.039407e+01  -1.096023e+01
  -1.447618e+01   9.734308e+01
  -1.655343e+02   4.419499e+01
  -2.156600e+02  -9.422396e+01
  -7.238261e+01  -2.007059e+02
   1.180462e+02  -1.647999e+02
   1.567344e+02  -5.229687e+01
   7.481089e+01   4.817910e+01
  -2.383952e+01   7.936545e+00
  -3.764572e+01  -8.247643e+01
   7.141483e+01  -1.195684e+02
   2.110544e+02  -2.203107e+01
   1.936912e+02   1.416738e+02
   3.401237e+01   2.156162e+02
  -1.228714e+02   1.645376e+02
  -1.832403e+02   2.870102e+01
  -7.982008e+01  -1.067115e+02
   5.935096e+01  -1.205265e+02
   7.204790e+01  -4.125422e+01
   1.482680e+01   1.672587e+01
  -2.597248e+01   2.002255e+01
   1.196370e+01  -1.116162e+01
   7.968297e+01   5.022696e+00
   8.483992e+01   7.883758e+01
   1.282212e+01   1.670340e+02
  -1.046761e+02   1.489669e+02
  -2.381826e+02   3.618989e+01
  -1.761803e+02  -1.622644e+02
  -4.716197e+01  -2.589976e+02
   1.104609e+02  -1.418984e+02
   1.306816e+02  -3.624831e+01
   7.818912e+01   6.037472e+01
   3.116519e+01   3.736760e+01
   5.460633e+01  -1.114617e+01
   7.820513e+01  -1.205435e+01
   4.513000e+01   5.052772e+01
  -3.873917e+01   8.129596e+01
  -1.173354e+02   6.496382e+01
  -9.033668e+01  -3.207597e+01
   4.401921e+00  -1.136482e+02
   1.229964e+02  -8.281467e+01
   2.025302e+02   2.618413e+01
   1.077528e+02   2.092411e+02
  -1.303697e+02   2.354665e+02
  -2.829963e+02   1.030052e+02
  -2.874010e+02  -9.573999e+01
  -1.068153e+02  -1.865892e+02
   3.404150e+01  -1.721285e+02
   8.036823e+01  -7.559428e+01
   7.045734e+01  -8.074469e+01
   5.940540e+01  -9.669522e+01
   9.499622e+01  -7.785947e+01
   1.398588e+02   2.163511e+01
   1.228752e+02   1.792973e+02
   4.445956e+01   2.235960e+02
  -1.001933e+02   2.050061e+02
  -1.825639e+02   1.715870e+01
  -1.394514e+02  -1.202978e+02
  -3.224266e+01  -1.661433e+02
   6.653382e+01  -9.375946e+01
   6.558952e+01   8.378548e+00
   6.585918e+00   4.328624e+01
  -1.500130e+01   3.493933e+01
   3.579369e+01   1.673627e+01
   8.900560e+01   1.688483e+01
   4.782624e+01   3.928117e+01
  -5.435345e+01   4.556694e+01
  -1.543587e+02   3.110845e+01
  -1.465283e+02  -3.619228e+01
  -1.231979e+01  -9.589089e+01
   1.241927e+02  -9.610079e+01
   1.254615e+02  -3.052249e+01
   4.720234e+01   4.809691e+01
  -6.478939e+01   3.924563e+01
  -7.816132e+01  -1.352924e+01
  -6.832096e+00  -7.062388e+01
   4.654203e+01  -6.602290e+01
   6.845086e+01   9.386507e+00
   5.005123e+01   4.403620e+01
   4.630060e+01   3.586021e+01
   6.018292e+01  -3.450495e+00
   6.323308e+01  -2.853335e-01
   3.529300e+01   7.323407e+01
  -4.904799e+01   1.440255e+02
  -1.203615e+02   1.666141e+02
  -1.842844e+02   4.292672e+01
  -1.330914e+02  -7.025832e+01
  -3.397585e+00  -1.316362e+02
   8.724214e+01  -7.550990e+01
   5.997649e+01   1.084301e+01
  -5.474719e+01   2.756536e+01
  -1.393425e+02  -2.383609e+01
  -8.105903e+01  -1.001226e+02
   8.741699e+01  -1.157905e+02
   2.156532e+02  -4.444243e+01
   1.757201e+02   2.403344e+01
   4.051863e+01   8.246807e+01
  -4.800617e+01   8.068357e+01
  -5.651491e+01   9.605672e+00
   3.654921e+01  -2.506370e+01
   9.218521e+01   2.973973e+01
   4.470381e+01   1.124711e+02
  -8.002433e+01   1.577727e+02
  -1.499212e+02   6.871270e+01
  -1.454864e+02  -1.055608e+02
  -1.059562e+01  -1.950220e+02
   9.407856e+01  -1.477512e+02
   1.092405e+02   1.628038e+01
   6.598807e+01   1.168394e+02
   1.550933e+01   1.170215e+02
  -4.634474e+01   2.259675e+01
  -6.015910e+01  -2.275310e+01
  -2.928907e+01  -7.472416e+00
  -5.769148e+00   2.021004e+01
  -2.428141e+01  -1.580869e+01
  -6.107088e+01  -1.018515e+02
  -5.094201e+01  -1.013211e+02
   4.138917e+01  -4.790690e+01
   1.340541e+02   4.207230e+01
   1.309259e+02   5.523570e+01
   1.800987e+01   4.850974e+01
  -8.674654e+01   2.564681e+01
  -8.514181e+01   1.041278e+01
  -1.139970e+01  -9.453830e+00
   4.208704e+01  -2.336204e+01
   1.607600e+01  -2.037391e+01
  -2.077109e+01   4.220769e+00
   5.364803e+00   8.051845e+00
   7.786538e+01  -4.629647e+00
   8.659345e+01   1.326677e+01
   2.528580e+01   8.556169e+01
  -1.001839e+02   9.490281e+01
  -1.852279e+02   8.469591e+01
  -1.573157e+02  -5.237232e+01
  -3.403665e+01  -1.549993e+02
   8.864019e+01  -1.725212e+02
   1.200458e+02  -7.660326e+01
   7.760671e+01   1.598864e+01
   2.961956e+01   4.071526e+01
   7.733147e-01   9.366823e+00
   9.863142e+00   4.118755e+00
   4.415080e+01   4.670216e+01
   2.821221e+01   9.760079e+01
  -2.452759e+01   6.777178e+01
  -8.193122e+01  -2.000085e+01
  -6.647535e+01  -1.052624e+02
  -4.845741e+00  -1.113124e+02
   8.015164e+01  -1.956736e+01
   1.020901e+02   8.512592e+01
   3.855623e+01   9.717704e+01
  -6.690140e+01   4.631020e+01
  -9.742450e+01  -1.136155e+01
  -5.135724e+01  -5.729589e+01
   3.426204e+01  -5.466629e+01
   2.773068e+01  -3.334488e+01
  -3.196362e+01   4.070730e+00
  -6.418032e+01   2.161523e+01
  -1.399951e+01  -2.409343e+01
   8.063949e+01  -7.937225e+01
   1.242423e+02  -6.857920e+01
   6.234575e+01   1.325610e+01
  -6.630267e+00   9.147980e+01
  -6.512686e+01   8.890956e+01
  -3.696543e+01   6.062218e+00
  -6.498999e+00  -5.755472e+01
   1.937128e+01  -5.435923e+01
   3.692102e+01   1.333074e+01
   3.366863e+01   5.636176e+01
  -2.850380e+00   3.230450e+01
  -3.464019e+01  -4.220867e+00
  -4.055963e+01  -1.583837e+01
  -2.229053e+01  -4.015359e+00
  -5.455614e-02   1.693330e+01
   8.566617e+00   9.342737e-01
   1.301792e+00  -4.231916e+01
   1.422681e+01  -4.449873e+01
   3.188197e+01  -9.204656e+00
   3.783736e+01   4.227587e+01
   3.261638e+00   6.332029e+01
  -4.372579e+01   2.291829e+01
  -6.979617e+01  -4.004098e+01
  -2.735349e+01  -6.757695e+01
   5.257750e+01  -3.654953e+01
   9.181290e+01   1.407309e+01
   4.795522e+01   4.272544e+01
  -2.032753e+01   3.750458e+01
  -6.162728e+01   3.268679e+01
  -2.447842e+01   4.730829e+00
   3.572025e+01  -1.985325e+00
   3.706608e+01   1.518778e+01
  -3.000359e+01   2.823819e+01
  -1.024729e+02   3.219197e+01
