
 $NMID
 id='ANONYMOUS ', fmtdat='(2E16.6)'
 volume=1.0
 tramp=1.0
 $END
  -3.418815e+03  -6.083015e+02
  -1.937064e+03  -2.011744e+03
   1.447753e+01  -2.145883e+03
   1.110007e+03  -4.522558e+02
   6.764340e+02   1.924355e+01
  -3.745722e+02   4.148566e+02
  -5.212648e+02  -3.012427e+02
   5.346946e+01  -6.885749e+02
   5.500680e+02  -5.864502e+02
   6.539370e+02   1.307934e+02
   3.034389e+02   5.401833e+02
  -2.018533e+02   7.270959e+02
  -4.526640e+02   3.784871e+01
  -2.616271e+02  -3.944141e+02
   1.945619e+02  -5.003997e+02
   4.158370e+02   2.750174e+01
   2.400385e+02   5.300558e+02
  -2.323353e+02   6.207783e+02
  -4.874119e+02   1.420256e+02
  -3.209210e+02  -2.537055e+02
  -1.173503e+01  -3.882230e+02
   1.193288e+02  -2.083573e+02
   9.105234e+01  -7.840603e+00
  -8.173902e+01  -2.046120e+01
  -3.420524e+02  -1.460897e+02
  -9.583971e+01  -3.981829e+02
   4.569859e+02  -2.356591e+02
   5.512045e+02   9.101981e+01
   3.340184e+02   4.100628e+02
  -2.943267e+02   3.239537e+02
  -5.613475e+02  -1.110387e+02
  -2.069709e+02  -3.658573e+02
   3.184868e+02  -3.847447e+02
   4.672239e+02  -1.407752e+02
   3.838318e+02   1.672644e+02
   8.796836e+01   3.315513e+02
  -1.237396e+02   1.807412e+02
  -1.175282e+00  -1.057936e+02
   1.818434e+02  -2.844758e+02
   3.367217e+02   8.964757e+01
  -7.242110e+00   6.881148e+02
  -3.245983e+02   4.238814e+02
  -3.916320e+02  -1.776027e+01
  -2.120791e+02  -3.348988e+02
   2.694555e+02  -2.037968e+02
   3.102857e+02   2.555534e+02
  -9.292659e+01   3.198623e+02
  -4.953856e+02   3.419297e+01
  -3.850007e+02  -3.592783e+02
  -1.606794e+02  -4.962022e+02
   2.811692e+02  -1.850185e+02
   4.528926e+02   1.181233e+02
   2.768330e+02   2.925961e+02
  -9.410607e+01   2.489826e+02
  -3.154994e+02   8.891944e+01
  -2.027748e+02  -6.919387e+01
   7.159053e+01  -6.293951e+01
   6.888868e+01   1.146204e+02
  -1.265914e+02   8.001869e+01
  -2.876914e+02  -1.140260e+02
  -8.969577e+01  -2.044317e+02
   1.241829e+02  -1.841535e+02
   3.038899e+02  -6.333124e+01
   1.999230e+02   1.040540e+02
  -1.213596e+01   2.284367e+02
  -2.784865e+02   3.449553e+02
  -3.040763e+02   1.882490e+02
  -2.263498e+02  -1.240400e+02
  -9.646451e+00  -3.315938e+02
   6.477620e+01  -2.987510e+02
   4.198615e+01  -9.093102e+01
   4.081321e+01  -4.557042e+01
   7.495077e+01  -9.041056e+01
   2.460723e+02  -7.859703e+01
   2.451990e+02   6.251975e+01
   1.046697e+02   2.214843e+02
  -8.144708e+01   1.695037e+02
  -1.844422e+02  -6.210158e+01
  -1.149156e+02  -2.380713e+02
   4.319288e+01  -2.307456e+02
   2.273569e+02  -6.204500e+01
   2.802623e+02   1.748110e+02
   8.680086e+01   3.045134e+02
  -8.561494e+01   2.400710e+02
  -2.101173e+02   1.290524e+02
  -1.352264e+02   4.164953e+01
  -1.080353e+02   3.990004e+01
  -2.368258e+02   1.674377e+01
  -3.836488e+02  -8.157193e+01
  -2.362521e+02  -2.769089e+02
   4.150785e+01  -3.838346e+02
   3.097215e+02  -2.869235e+02
   4.697493e+02  -9.599566e+01
   2.335773e+02   9.834353e+01
   2.402713e+01   2.181407e+02
  -1.388433e+02   1.930051e+02
  -4.420021e+01   2.528506e+01
   1.230677e+02  -4.102801e+01
   1.191945e+02   7.187076e+01
  -1.146616e+00   1.418057e+02
  -1.243409e+02   8.552080e+01
  -1.615468e+02  -2.634168e+01
   3.236464e+01  -1.253602e+02
   1.394133e+02  -4.510141e+00
   1.188639e+02   2.550572e+02
  -8.513177e+01   2.861248e+02
  -2.321858e+02   1.559409e+02
  -2.709899e+02  -6.775187e+01
  -2.172194e+02  -2.624699e+02
  -6.423913e+01  -2.383014e+02
   1.120614e+02  -1.387141e+02
   1.476262e+02  -5.502618e+00
   3.638817e+01   2.364643e+01
  -5.639215e+01  -4.683958e+01
  -1.174042e+00  -9.554798e+01
   1.067665e+02  -8.777322e+01
   1.180003e+02   5.812555e+00
   4.158755e+01   4.222161e+01
  -6.352130e+01  -9.113172e+00
  -4.940597e+01  -6.606743e+01
   1.328319e+02  -5.805175e+01
   2.545601e+02   4.283235e+01
   2.341999e+02   1.464659e+02
   2.931172e+01   2.260518e+02
  -1.864110e+02   1.804511e+02
  -2.293699e+02   1.051751e+02
  -1.284180e+02  -6.546274e+01
   2.703065e+01  -7.493552e+01
   5.947558e+01   1.432962e+01
  -5.002066e+01   7.571200e+01
  -1.768520e+02   1.832581e+01
  -1.712155e+02  -1.062059e+02
  -3.087466e+01  -1.952318e+02
   9.788241e+01  -1.264572e+02
   1.229147e+02   1.151472e+00
   4.869347e+01   4.093362e+01
  -3.080153e+01  -7.385720e+00
  -2.621475e+01  -8.822492e+01
   7.720265e+01  -8.195822e+01
   1.786150e+02  -1.064894e+01
   1.602897e+02   9.839580e+01
   1.508077e+01   1.888292e+02
  -1.639518e+02   1.236195e+02
  -1.480615e+02   2.089421e+00
  -4.727422e+01  -9.363402e+01
   6.848336e+01  -8.670145e+01
   5.593227e+01  -1.354125e+01
   3.349994e-01   2.922277e+01
  -3.178768e+01   8.432098e+00
   6.721829e+00  -9.280520e+00
   7.627059e+01   4.818623e+00
   7.728680e+01   9.318754e+01
  -1.881362e+00   1.596777e+02
  -1.262334e+02   1.113456e+02
  -2.163020e+02   7.690053e+00
  -1.992565e+02  -1.839129e+02
  -1.964059e+01  -1.993817e+02
   9.940219e+01  -1.393810e+02
   1.266631e+02  -2.603274e+01
   6.185642e+01   4.792743e+01
   2.622705e+01   2.726594e+01
   4.690227e+01  -7.337064e+00
   6.814774e+01  -3.528015e+00
   4.654772e+01   3.814702e+01
  -3.342449e+01   8.437991e+01
  -9.857990e+01   6.841401e+01
  -7.954260e+01  -3.339853e+01
   2.529795e+01  -9.712045e+01
   1.282745e+02  -5.066120e+01
   1.729928e+02   5.256597e+01
   9.855291e+01   2.204451e+02
  -1.171876e+02   1.983856e+02
  -2.198935e+02   1.025857e+02
  -1.743243e+02  -3.890783e+01
  -8.879550e+01  -1.633036e+02
   4.643863e+01  -1.226288e+02
   8.933541e+01  -7.303108e+01
   6.810162e+01  -4.861052e+01
   7.035251e+01  -7.870481e+01
   8.761600e+01  -5.463278e+01
   1.048858e+02   2.288007e+01
   8.820925e+01   1.552703e+02
   1.952523e+01   2.106783e+02
  -8.460541e+01   1.206661e+02
  -1.674131e+02   1.919029e+01
  -9.315529e+01  -1.277512e+02
  -2.004574e+01  -1.256245e+02
   6.361230e+01  -8.598044e+01
   5.631736e+01   1.559150e+01
  -2.018820e+00   4.256059e+01
  -1.183792e+01   3.249231e+01
   2.817859e+01   1.373976e+01
   7.141796e+01   1.548503e+01
   4.246133e+01   3.951694e+01
  -6.585784e+01   2.409356e+01
  -1.290311e+02   2.432900e+00
  -1.062384e+02  -5.510632e+01
  -7.789379e+00  -7.102377e+01
   1.008551e+02  -5.099308e+01
   1.366380e+02  -4.576897e+00
   3.976907e+01   3.348705e+01
  -5.164370e+01   3.786938e+01
  -7.402432e+01  -2.090435e+01
  -2.151059e+01  -5.966276e+01
   4.584123e+01  -5.639754e+01
   5.832428e+01   2.807293e+00
   4.708649e+01   3.761447e+01
   3.751803e+01   4.476132e+01
   4.922170e+01   1.087643e+01
   5.798795e+01   7.921066e+00
   3.517898e+01   5.342963e+01
  -4.303788e+01   1.248889e+02
  -1.015300e+02   1.187126e+02
  -1.349698e+02   3.033366e+01
  -1.008100e+02  -6.863424e+01
  -1.740583e+00  -1.261883e+02
   7.910382e+01  -5.158601e+01
   4.976783e+01   1.840539e+01
  -5.791855e+01   1.226835e+01
  -1.189088e+02  -3.575431e+01
  -3.892122e+01  -9.304304e+01
   7.901244e+01  -8.879384e+01
   1.520825e+02  -4.619010e+01
   1.356398e+02   6.087329e+01
   1.507264e+01   7.906529e+01
  -5.761790e+01   5.770015e+01
  -4.431724e+01   1.568142e+00
   3.308991e+01  -2.166153e+01
   7.445144e+01   2.340607e+01
   3.407518e+01   1.026402e+02
  -8.489559e+01   1.243713e+02
  -1.368299e+02   5.595539e+01
  -9.806580e+01  -9.583997e+01
  -2.312871e+01  -1.485754e+02
   9.260203e+01  -1.197577e+02
   9.037046e+01   1.768834e+00
   3.798757e+01   1.138206e+02
   4.974179e+00   8.516834e+01
  -4.564447e+01   1.325342e+01
  -4.029785e+01  -2.682660e+01
  -1.773990e+01  -3.737035e+00
  -4.879987e+00   1.777452e+01
  -2.249749e+01  -1.756592e+01
  -3.932853e+01  -7.457083e+01
  -2.109437e+01  -1.062433e+02
   4.921826e+01  -3.653960e+01
   1.008981e+02   4.961642e+01
   9.796011e+01   7.572462e+01
   1.040144e+01   4.630971e+01
  -7.842749e+01   1.486416e+01
  -7.014520e+01   9.886639e+00
  -1.500234e+01  -6.466548e+00
   3.312099e+01  -1.198614e+01
   1.233158e+01  -1.310691e+01
  -1.590515e+01  -2.017183e-02
   1.496692e+00   6.695995e+00
   6.543665e+01  -1.632944e+00
   7.022328e+01   2.576815e+01
   1.696842e+01   7.253023e+01
  -1.117574e+02   9.928222e+01
  -1.668473e+02   5.364860e+01
  -1.326998e+02  -4.838508e+01
  -1.856387e+01  -1.502211e+02
   8.494887e+01  -1.451319e+02
   1.065635e+02  -5.477679e+01
   7.609616e+01   2.866594e+01
   2.265697e+01   2.951463e+01
   2.302635e+00   1.177979e+01
   1.040087e+01   6.645417e+00
   2.787470e+01   4.113266e+01
   2.589781e+01   7.554328e+01
  -2.654732e+01   5.685411e+01
  -7.188749e+01  -1.957510e+01
  -6.590703e+01  -1.014222e+02
  -5.864551e-01  -8.523030e+01
   6.920069e+01  -1.729450e+01
   8.392233e+01   5.105020e+01
   3.411760e+01   9.630492e+01
  -6.171554e+01   5.117931e+01
  -7.762418e+01  -1.082633e+01
  -3.313864e+01  -4.115110e+01
   2.713755e+01  -4.692255e+01
   3.347444e+01  -2.430991e+01
  -2.529741e+01   2.387995e+00
  -6.081722e+01   5.535171e+00
  -1.494363e+01  -2.667515e+01
   5.648940e+01  -4.465264e+01
   1.040193e+02  -4.408968e+01
   6.462453e+01   9.907341e+00
  -1.433862e+01   7.062116e+01
  -4.770650e+01   6.235774e+01
  -3.559948e+01   9.626462e+00
  -5.953054e+00  -4.289996e+01
   1.670218e+01  -3.892966e+01
   3.231314e+01   1.412539e+01
   2.724822e+01   3.887435e+01
   4.159601e-01   3.617567e+01
  -2.748836e+01  -9.152685e+00
  -3.697085e+01  -1.515704e+01
  -1.904119e+01  -2.568850e+00
   1.051799e+00   1.405912e+01
   4.066948e+00   1.054145e-01
   4.159092e+00  -2.363552e+01
   1.134949e+01  -4.138905e+01
   2.476127e+01  -7.970580e+00
   2.521212e+01   3.636073e+01
   9.484556e+00   4.187426e+01
  -3.931067e+01   1.969571e+01
  -5.115570e+01  -3.332071e+01
  -3.995702e+00  -5.391394e+01
   5.163153e+01  -2.788909e+01
   7.789195e+01   1.127525e+01
   4.450736e+01   3.726543e+01
  -2.696117e+01   3.585604e+01
  -5.541913e+01   2.144500e+01
  -2.230935e+01   6.894925e+00
   2.575398e+01   2.375412e+00
   2.898171e+01   7.052031e+00
  -2.974834e+01   2.169773e+01
  -6.485776e+01   2.327076e+01
