
 $NMID
 id='ANONYMOUS ', fmtdat='(2E16.6)'
 volume=1.0
 tramp=1.0
 $END
   4.796212e+03   8.456414e+02
   2.280624e+03   2.686570e+03
  -6.107658e+02   2.765903e+03
  -1.931972e+03   9.507779e+02
  -9.800994e+02  -6.150247e+02
   6.319196e+02  -7.226580e+02
   7.733535e+02   3.655597e+02
  -5.979086e+01   9.809071e+02
  -9.624071e+02   9.114917e+02
  -9.340198e+02  -1.517736e+02
  -5.184812e+02  -8.569766e+02
   3.007264e+02  -9.945501e+02
   6.270896e+02  -7.162616e+01
   3.585462e+02   7.430949e+02
  -2.720823e+02   6.487010e+02
  -6.055313e+02  -9.560094e+00
  -2.626291e+02  -6.525962e+02
   3.301925e+02  -6.911554e+02
   6.025279e+02  -1.396051e+02
   3.735734e+02   3.537794e+02
   5.674834e+00   4.758741e+02
  -2.060558e+02   2.514613e+02
  -1.682660e+02   1.719043e+01
   1.104149e+02  -6.431337e+01
   4.248819e+02   1.184409e+02
   2.158205e+02   3.822454e+02
  -5.030115e+02   3.500291e+02
  -7.060620e+02  -1.291506e+01
  -4.070710e+02  -6.169825e+02
   3.290121e+02  -4.282270e+02
   7.862931e+02  -1.064227e+01
   3.573281e+02   4.537335e+02
  -3.565869e+02   4.690663e+02
  -5.797670e+02   2.206849e+02
  -4.092238e+02  -2.174991e+02
  -6.637324e+01  -4.221671e+02
   2.252049e+02  -2.800505e+02
   1.301014e+02   1.964318e+02
  -1.437395e+02   3.323636e+02
  -4.341959e+02  -5.808455e+01
  -9.545923e+01  -7.455253e+02
   2.999707e+02  -6.119432e+02
   5.513657e+02  -7.098580e+01
   3.095956e+02   5.667247e+02
  -3.315299e+02   3.139918e+02
  -4.172908e+02  -3.434892e+02
   6.417441e+01  -4.402976e+02
   5.577260e+02  -1.226985e+02
   5.668777e+02   3.897340e+02
   1.875854e+02   6.047706e+02
  -3.503865e+02   3.455863e+02
  -5.709945e+02  -6.642867e+01
  -3.983220e+02  -3.190253e+02
   1.394277e+02  -3.139047e+02
   4.588660e+02  -1.096746e+02
   2.994178e+02   1.492561e+02
  -1.131034e+02   1.428167e+02
  -1.437742e+02  -1.365064e+02
   1.574558e+02  -1.520655e+02
   3.500858e+02   9.010947e+01
   1.466487e+02   2.894613e+02
  -1.888311e+02   2.912411e+02
  -3.608823e+02   4.106846e+01
  -1.903524e+02  -8.577316e+01
   4.224629e+01  -2.177269e+02
   2.705917e+02  -3.418117e+02
   3.943602e+02  -2.294176e+02
   2.968039e+02   1.253400e+02
   6.424205e+01   4.122746e+02
  -8.004939e+01   3.896883e+02
  -1.177408e+02   8.444105e+01
  -2.439308e+01  -9.005714e+00
  -5.631401e+01   8.842604e+01
  -2.434595e+02   6.550849e+01
  -2.611282e+02  -7.267115e+01
  -1.843130e+02  -2.908710e+02
   6.020551e+01  -2.297138e+02
   2.133765e+02   2.278593e+00
   1.589912e+02   1.986005e+02
  -4.001955e+01   2.939660e+02
  -2.099310e+02   1.003530e+02
  -3.001209e+02  -1.965732e+02
  -1.849721e+02  -3.338860e+02
   1.059909e+02  -3.121050e+02
   2.186114e+02  -1.341815e+02
   1.439288e+02  -2.635502e+01
   1.026568e+02  -3.450690e+01
   2.461269e+02  -5.240871e+01
   4.359076e+02   4.195075e+01
   2.737129e+02   3.410268e+02
  -5.579914e+01   4.433593e+02
  -3.663664e+02   3.976840e+02
  -4.602571e+02   7.335778e+01
  -3.264380e+02  -9.561939e+01
  -6.871373e+01  -2.737087e+02
   1.488778e+02  -2.263920e+02
   8.337053e+01  -3.854054e+01
  -1.261482e+02   7.845501e+01
  -1.644436e+02  -1.734789e+01
  -4.060186e+01  -1.746887e+02
   1.524838e+02  -1.374001e+02
   1.911270e+02   3.918944e+01
  -6.939978e+00   1.727728e+02
  -1.872316e+02   4.370025e+01
  -1.381715e+02  -2.570639e+02
   4.845159e+01  -2.956729e+02
   2.307180e+02  -1.823567e+02
   3.161199e+02   6.741304e+01
   2.823061e+02   2.681075e+02
   5.702281e+01   2.718508e+02
  -1.357429e+02   1.439238e+02
  -1.981330e+02   1.609420e+01
  -6.138181e+01  -3.248093e+01
   5.672966e+01   3.988215e+01
   2.930708e+01   1.159080e+02
  -1.209805e+02   9.496249e+01
  -1.635411e+02  -4.023453e+00
  -6.693000e+01  -5.212498e+01
   7.212833e+01  -1.433754e+01
   5.046612e+01   7.411945e+01
  -1.187775e+02   6.216835e+01
  -2.499778e+02  -2.501528e+01
  -2.828890e+02  -1.305318e+02
  -6.353540e+01  -2.470654e+02
   1.845392e+02  -2.317257e+02
   2.909433e+02  -1.052209e+02
   1.651492e+02   8.187864e+01
  -1.052692e+01   1.066807e+02
  -7.678609e+01   2.102932e+01
   3.945595e+01  -9.662524e+01
   1.934403e+02  -5.558691e+01
   1.936647e+02   1.061514e+02
   5.101190e+01   2.194115e+02
  -9.948970e+01   1.590711e+02
  -1.454946e+02   1.934871e+01
  -6.913982e+01  -4.073620e+01
   2.427287e+01   8.470133e-01
   2.381300e+01   8.356105e+01
  -6.593541e+01   1.050635e+02
  -1.814270e+02   2.675454e+01
  -1.988071e+02  -1.373295e+02
   1.051449e+01  -2.108445e+02
   1.553122e+02  -1.393573e+02
   1.784291e+02   1.290773e+01
   5.788189e+01   1.078932e+02
  -7.185849e+01   1.222699e+02
  -7.951280e+01   2.170896e+01
  -6.968368e+00  -2.995355e+01
   2.461905e+01  -1.031737e+01
  -1.026805e+01   5.640909e+00
  -7.979043e+01  -1.666794e+01
  -8.174464e+01  -8.775824e+01
  -2.080777e+01  -1.650425e+02
   1.310198e+02  -1.240584e+02
   2.305930e+02  -4.977932e-02
   1.911388e+02   1.979620e+02
   3.641222e+01   2.285813e+02
  -1.054437e+02   1.579114e+02
  -1.420368e+02   3.973749e+00
  -7.136766e+01  -5.921032e+01
  -2.980891e+01  -3.481563e+01
  -5.123774e+01   8.920584e+00
  -8.101353e+01   1.219555e+01
  -4.172150e+01  -4.957504e+01
   5.303774e+01  -9.162659e+01
   1.109794e+02  -4.891751e+01
   7.611902e+01   4.016414e+01
  -2.190740e+01   9.714433e+01
  -1.473530e+02   7.096004e+01
  -1.746141e+02  -6.837043e+01
  -9.854450e+01  -2.444066e+02
   8.889927e+01  -2.064380e+02
   2.625016e+02  -1.193728e+02
   2.328912e+02   7.703940e+01
   9.272242e+01   1.836920e+02
  -5.948929e+01   1.455097e+02
  -1.054158e+02   8.515415e+01
  -7.718281e+01   6.433439e+01
  -6.751655e+01   8.964326e+01
  -9.614634e+01   7.266997e+01
  -1.061937e+02  -3.635458e+01
  -9.844519e+01  -1.571905e+02
  -9.429756e+00  -2.340875e+02
   8.826114e+01  -1.558228e+02
   1.872887e+02  -1.679975e+01
   1.349896e+02   1.359091e+02
   2.870043e+01   1.412751e+02
  -6.820939e+01   9.883080e+01
  -5.557332e+01  -9.843430e+00
  -2.354583e+00  -3.871306e+01
   7.015317e+00  -3.071476e+01
  -3.873049e+01  -1.473969e+01
  -8.457702e+01  -1.693239e+01
  -4.531158e+01  -4.242514e+01
   6.739053e+01  -3.389032e+01
   1.309894e+02   1.954397e+01
   1.255480e+02   5.153427e+01
   2.261965e+00   8.804559e+01
  -1.107262e+02   7.302613e+01
  -1.305727e+02   9.949322e+00
  -4.973390e+01  -4.104264e+01
   6.613207e+01  -2.955638e+01
   7.883940e+01   1.936859e+01
   1.262557e+01   7.055681e+01
  -4.785215e+01   5.363982e+01
  -6.681102e+01  -1.833367e+00
  -4.542447e+01  -4.408706e+01
  -4.594258e+01  -3.882898e+01
  -5.714618e+01  -1.210387e+01
  -6.882169e+01  -3.626013e+00
  -3.378597e+01  -6.709431e+01
   3.590725e+01  -1.362793e+02
   1.286293e+02  -1.217441e+02
   1.544880e+02  -4.436788e+01
   1.317663e+02   7.591369e+01
   6.015434e+00   1.295788e+02
  -8.545706e+01   5.596104e+01
  -5.642711e+01  -1.755409e+01
   5.869473e+01  -1.190517e+01
   1.525219e+02   4.748152e+01
   5.176756e+01   1.035720e+02
  -8.695863e+01   9.912491e+01
  -1.877465e+02   7.253211e+01
  -1.593717e+02  -4.288508e+01
  -2.737799e+01  -8.769724e+01
   6.622041e+01  -7.116965e+01
   5.526153e+01  -6.832664e+00
  -3.478095e+01   2.485098e+01
  -8.112330e+01  -3.018582e+01
  -3.329271e+01  -1.199369e+02
   9.794817e+01  -1.322263e+02
   1.492209e+02  -6.955882e+01
   1.317701e+02   1.135893e+02
   1.003776e+01   2.072993e+02
  -8.499527e+01   1.382387e+02
  -1.015967e+02  -9.058750e+00
  -5.749549e+01  -1.226253e+02
  -7.731108e+00  -1.031485e+02
   4.938616e+01  -1.841538e+01
   5.382245e+01   2.753011e+01
   2.876235e+01   3.897664e+00
   6.394433e+00  -1.940836e+01
   1.851205e+01   1.486093e+01
   5.626074e+01   6.873385e+01
   1.849933e+01   1.156553e+02
  -5.556483e+01   4.306897e+01
  -1.336544e+02  -4.408481e+01
  -1.118182e+02  -7.706372e+01
  -1.374951e+01  -4.841715e+01
   9.274946e+01  -1.709080e+01
   7.989375e+01  -1.738055e+01
   1.308337e+01   7.377764e+00
  -3.698663e+01   1.858970e+01
  -9.929745e+00   1.995776e+01
   2.188578e+01  -3.891846e+00
  -6.103437e+00  -8.194109e+00
  -7.606286e+01  -4.451195e+00
  -7.858541e+01  -2.721218e+01
  -1.375892e+01  -7.612455e+01
   1.091609e+02  -1.236911e+02
   1.907135e+02  -4.436454e+01
   1.521027e+02   5.691729e+01
   2.263005e+01   1.695349e+02
  -8.416807e+01   1.610975e+02
  -1.142959e+02   4.992920e+01
  -8.645479e+01  -3.283005e+01
  -2.590639e+01  -3.561693e+01
   2.555012e+00  -1.099907e+01
  -9.300282e+00  -6.284182e+00
  -2.703600e+01  -4.958745e+01
  -2.988580e+01  -8.199487e+01
   3.203622e+01  -6.701586e+01
   8.223186e+01   2.483304e+01
   6.588698e+01   1.021905e+02
   1.763984e+00   1.092209e+02
  -8.073597e+01   2.386473e+01
  -1.030787e+02  -5.707091e+01
  -3.288096e+01  -1.061703e+02
   6.149983e+01  -5.483070e+01
   1.029012e+02   8.862148e+00
   3.445662e+01   4.595347e+01
  -3.345955e+01   4.952635e+01
  -3.144491e+01   3.037337e+01
   3.391391e+01  -4.503873e+00
   6.308949e+01  -3.294402e-01
   1.377941e+01   2.873211e+01
  -7.290678e+01   6.310375e+01
  -1.065450e+02   5.557140e+01
  -6.928417e+01  -1.831276e+01
   1.191531e+01  -7.955590e+01
   5.684561e+01  -8.056506e+01
   4.118002e+01  -8.236730e+00
  -9.847134e-01   5.523537e+01
  -2.368264e+01   4.585784e+01
  -3.410579e+01  -2.100957e+01
  -2.757313e+01  -5.412413e+01
   2.727302e+00  -3.865760e+01
   3.349673e+01   1.348474e+01
   3.732803e+01   2.199395e+01
   2.065178e+01   3.516958e+00
   1.377599e+00  -1.350034e+01
  -3.061205e+00   1.954941e+00
  -9.498957e+00   3.364301e+01
  -1.726447e+01   4.763068e+01
  -3.186176e+01   7.773066e+00
  -2.841839e+01  -4.527801e+01
  -3.329452e+00  -6.625069e+01
   4.534268e+01  -2.536298e+01
   5.070481e+01   3.916379e+01
   1.166090e+01   5.876961e+01
  -5.488234e+01   3.142628e+01
  -9.433507e+01  -2.549685e+01
  -4.708928e+01  -4.828016e+01
   3.238124e+01  -3.966145e+01
   6.302565e+01  -2.084498e+01
   2.459748e+01  -4.765814e+00
  -3.984934e+01  -1.562697e+00
  -3.814364e+01  -2.044174e+01
   3.404553e+01  -2.766075e+01
   8.536134e+01  -2.525786e+01
