
 $NMID
 id='ANONYMOUS ', fmtdat='(2E16.6)'
 volume=1.0
 tramp=1.0
 $END
   3.580280e+03  -8.850152e+01
   2.172066e+03   2.592419e+03
  -7.271626e+02   2.791447e+03
  -1.702922e+03   9.513713e+02
  -9.163321e+02  -5.573338e+02
   4.779801e+02  -4.883808e+02
   7.915751e+02   2.570295e+02
   9.298925e+01   1.038951e+03
  -8.051338e+02   5.964337e+02
  -8.612388e+02   1.152092e+01
  -5.225919e+02  -8.472954e+02
   1.696353e+02  -8.964718e+02
   5.388067e+02  -2.082304e+02
   3.623032e+02   5.789442e+02
  -1.689181e+02   6.790486e+02
  -4.850361e+02   1.217358e+02
  -2.731497e+02  -6.184346e+02
   2.877073e+02  -6.167672e+02
   6.299418e+02  -1.334299e+02
   3.820130e+02   2.798462e+02
   3.075299e+01   4.619785e+02
  -1.897718e+02   2.901514e+02
  -2.489919e+02  -8.642481e-01
   1.297870e+02  -4.290139e+01
   3.154938e+02   1.131619e+02
   6.740080e+01   3.879684e+02
  -4.092256e+02   2.077874e+02
  -8.182184e+02  -1.823593e+02
  -3.523407e+02  -5.072462e+02
   4.208165e+02  -4.644009e+02
   7.134408e+02   1.057355e+01
   2.646016e+02   4.679975e+02
  -2.017311e+02   4.294760e+02
  -5.424222e+02   1.735900e+02
  -4.014688e+02  -2.573041e+02
  -6.886406e+01  -4.587849e+02
   1.546063e+02  -3.121938e+02
   6.078508e+01   2.166853e+02
  -1.511352e+02   3.774019e+02
  -3.814120e+02   3.871343e+01
  -1.836260e+02  -6.256989e+02
   2.089887e+02  -5.285665e+02
   5.187814e+02  -3.059845e+00
   2.054176e+02   5.479810e+02
  -2.734460e+02   2.539212e+02
  -2.571039e+02  -3.011086e+02
   3.269563e+01  -5.426461e+02
   4.752678e+02  -9.850749e+01
   5.326013e+02   3.870883e+02
   1.592312e+02   5.531752e+02
  -3.226008e+02   3.251465e+02
  -5.843681e+02  -7.171744e+01
  -4.020594e+02  -3.261168e+02
   5.385265e+01  -3.458555e+02
   4.293946e+02  -8.442409e+01
   2.464324e+02   1.750963e+02
  -1.115575e+02   1.111150e+02
  -1.504942e+02  -1.706256e+02
   1.482522e+02  -1.627693e+02
   3.205862e+02   5.967122e+01
   1.308145e+02   2.773673e+02
  -1.956738e+02   2.615059e+02
  -2.785903e+02   8.195520e+01
  -1.852702e+02  -1.011730e+02
   5.957115e+00  -2.653553e+02
   2.618161e+02  -3.228922e+02
   3.600913e+02  -1.811539e+02
   2.517343e+02   1.708191e+02
   6.086740e+01   4.269727e+02
  -1.069512e+02   3.780607e+02
  -1.156075e+02   1.422351e+02
  -3.275305e+01   3.525061e+01
  -7.616114e+01   8.528663e+01
  -1.636340e+02   1.012084e+02
  -2.668729e+02  -6.955167e+01
  -1.231486e+02  -2.828317e+02
   9.208441e+01  -2.260817e+02
   2.141142e+02  -7.751523e+00
   1.875454e+02   2.428518e+02
  -1.394055e+01   2.512134e+02
  -2.492053e+02   1.129687e+02
  -3.347418e+02  -1.482987e+02
  -1.584383e+02  -3.166353e+02
   4.525629e+01  -2.723856e+02
   1.873718e+02  -1.269763e+02
   1.434932e+02  -2.360355e+01
   9.066585e+01  -4.136122e+01
   2.367235e+02  -5.535774e+01
   3.675623e+02   1.304108e+01
   2.610625e+02   2.363364e+02
  -3.056517e+01   4.198279e+02
  -3.239906e+02   4.395318e+02
  -4.489078e+02   2.140489e+02
  -3.166619e+02  -1.224513e+02
  -3.163632e+01  -2.544305e+02
   6.943438e+01  -2.659762e+02
   6.584213e+01  -3.324481e+01
  -9.950013e+01   8.293862e+01
  -1.685993e+02   1.048597e+01
  -6.095234e+01  -1.719873e+02
   1.241303e+02  -1.558584e+02
   1.684013e+02   7.189461e+01
  -2.729337e+01   1.788377e+02
  -1.964051e+02   5.144950e+01
  -1.731654e+02  -2.177865e+02
   7.354822e+01  -3.011834e+02
   2.176225e+02  -1.687000e+02
   3.330780e+02   6.634955e+01
   2.803204e+02   2.047685e+02
   6.145565e+01   2.820682e+02
  -1.024904e+02   1.586929e+02
  -1.722294e+02   1.714248e+01
  -6.218602e+01  -2.963095e+01
   5.184046e+01   3.215023e+01
   1.578582e+01   1.321401e+02
  -1.047021e+02   9.094815e+01
  -1.675284e+02  -9.066605e+00
  -4.429984e+01  -7.707099e+01
   8.829816e+01  -1.841434e+01
   4.145615e+01   6.832443e+01
  -1.177208e+02   7.601481e+01
  -2.639777e+02  -7.062034e+00
  -2.464766e+02  -1.304828e+02
  -6.081065e+01  -2.634388e+02
   1.761552e+02  -2.196018e+02
   2.862081e+02  -1.261467e+02
   1.544675e+02   5.004721e+01
  -3.205823e+01   9.621023e+01
  -7.343241e+01   2.119695e+00
   2.134115e+01  -9.799691e+01
   1.972796e+02  -3.404987e+01
   1.923820e+02   1.259882e+02
   7.094524e+01   1.818402e+02
  -8.596506e+01   1.513454e+02
  -1.377639e+02   2.444722e+01
  -6.533100e+01  -4.487500e+01
   2.396204e+01  -7.373871e-01
   1.917774e+01   9.758339e+01
  -6.323586e+01   1.184849e+02
  -2.004721e+02   1.718266e+01
  -1.924735e+02  -1.224957e+02
  -2.320104e+01  -2.090087e+02
   1.352832e+02  -1.475430e+02
   1.787242e+02  -8.880956e+00
   6.282429e+01   1.063070e+02
  -6.311278e+01   9.462851e+01
  -7.523268e+01   3.944889e+01
  -1.223187e+01  -1.795483e+01
   2.560525e+01  -1.106739e+01
  -1.623457e+01   1.007940e+01
  -7.401242e+01  -1.548192e+01
  -8.417122e+01  -7.115401e+01
  -1.673967e+01  -1.619363e+02
   1.307499e+02  -1.316471e+02
   2.197306e+02  -4.970773e+01
   1.816780e+02   1.467870e+02
   6.221272e+01   2.251345e+02
  -9.485872e+01   1.418312e+02
  -1.331850e+02   2.621393e+01
  -5.895419e+01  -5.402170e+01
  -3.156345e+01  -3.483166e+01
  -5.181373e+01   1.080354e+01
  -7.645738e+01   9.917022e+00
  -4.882212e+01  -6.049004e+01
   4.987280e+01  -7.647285e+01
   1.067340e+02  -5.474672e+01
   7.160835e+01   3.956192e+01
  -7.935974e+00   1.000203e+02
  -1.472255e+02   9.093097e+01
  -1.976033e+02  -5.367444e+01
  -8.816065e+01  -1.881046e+02
   1.353093e+02  -1.886597e+02
   3.005547e+02  -7.911295e+01
   2.638963e+02   8.527612e+01
   9.503240e+01   1.566482e+02
  -3.780508e+01   1.639377e+02
  -7.987543e+01   8.747976e+01
  -6.518819e+01   7.454567e+01
  -6.087118e+01   8.856889e+01
  -8.858264e+01   6.721300e+01
  -1.343709e+02  -1.770998e+01
  -1.072634e+02  -1.423584e+02
  -4.453263e+01  -2.302320e+02
   8.660236e+01  -1.553387e+02
   1.658055e+02  -1.683935e+01
   1.289132e+02   1.287060e+02
   2.066156e+01   1.806369e+02
  -7.749783e+01   9.921980e+01
  -5.378654e+01  -9.237029e+00
   3.695200e+00  -4.230543e+01
   1.437651e+01  -2.932152e+01
  -3.223950e+01  -1.889462e+01
  -8.490062e+01  -2.789949e+01
  -4.890533e+01  -3.889781e+01
   5.107328e+01  -3.739533e+01
   1.612828e+02   5.351677e+00
   1.222633e+02   4.614526e+01
   6.889752e+00   9.066007e+01
  -1.046435e+02   7.395088e+01
  -1.281172e+02   1.789757e+01
  -4.409880e+01  -4.618149e+01
   6.037064e+01  -3.242235e+01
   7.911562e+01   2.106036e+01
   3.568591e+00   6.886731e+01
  -4.031038e+01   6.588209e+01
  -6.141173e+01  -1.114542e+01
  -4.273344e+01  -4.956394e+01
  -4.171693e+01  -4.028156e+01
  -6.036865e+01  -2.450799e+00
  -6.314943e+01   6.282977e-02
  -3.756452e+01  -6.650990e+01
   4.492640e+01  -1.285504e+02
   1.308713e+02  -1.396976e+02
   1.785544e+02  -2.888438e+01
   1.213803e+02   8.140630e+01
  -8.357706e+00   1.278284e+02
  -8.896608e+01   5.744026e+01
  -5.760878e+01  -1.189885e+01
   5.056920e+01  -1.538216e+01
   1.393618e+02   3.776569e+01
   6.228476e+01   9.462926e+01
  -8.633667e+01   1.058916e+02
  -2.162959e+02   3.731980e+01
  -1.526503e+02  -3.510213e+01
  -2.646977e+01  -8.750128e+01
   6.862098e+01  -6.578307e+01
   4.888278e+01  -4.072853e+00
  -4.076957e+01   2.939250e+01
  -7.960206e+01  -2.091475e+01
  -3.992620e+01  -1.059956e+02
   9.568034e+01  -1.477679e+02
   1.567831e+02  -5.099134e+01
   1.047178e+02   9.526063e+01
  -2.504560e+01   1.937789e+02
  -9.192614e+01   1.411685e+02
  -1.031395e+02  -7.731545e+00
  -5.778528e+01  -1.103547e+02
   9.228515e+00  -1.172713e+02
   4.425697e+01  -2.247734e+01
   5.137060e+01   3.152832e+01
   2.710719e+01   8.662092e+00
   3.816247e+00  -1.918505e+01
   2.110851e+01   1.829223e+01
   6.405260e+01   8.128028e+01
   3.698876e+01   9.027396e+01
  -5.184511e+01   4.096727e+01
  -1.337273e+02  -4.055311e+01
  -1.267183e+02  -6.326772e+01
  -1.149829e+01  -4.809949e+01
   7.633962e+01  -1.731104e+01
   9.197749e+01  -4.008242e+00
   1.111974e+01   8.816418e+00
  -3.663077e+01   1.995357e+01
  -1.755798e+01   1.837092e+01
   1.946021e+01  -3.811653e+00
  -4.979262e+00  -6.618626e+00
  -6.494126e+01   3.974525e+00
  -8.240706e+01  -2.486303e+01
  -1.667811e+01  -7.851456e+01
   1.049229e+02  -1.016310e+02
   1.724878e+02  -7.036500e+01
   1.371524e+02   5.534220e+01
   1.236604e+01   1.422047e+02
  -7.796919e+01   1.549235e+02
  -9.920280e+01   5.532867e+01
  -7.110496e+01  -2.569519e+01
  -2.538235e+01  -3.742942e+01
   5.732469e-01  -9.705888e+00
  -9.949641e+00  -4.823117e+00
  -2.990463e+01  -4.478703e+01
  -1.739009e+01  -9.083799e+01
   2.901776e+01  -7.567564e+01
   7.368395e+01   2.169852e+01
   6.423564e+01   1.117896e+02
  -4.098848e+00   1.050472e+02
  -7.656524e+01   2.512006e+01
  -9.961378e+01  -7.514300e+01
  -3.367624e+01  -8.973536e+01
   6.890665e+01  -4.908569e+01
   8.869195e+01   1.233481e+01
   4.395131e+01   5.341832e+01
  -3.836302e+01   4.485925e+01
  -2.896792e+01   3.139683e+01
   3.102695e+01  -4.610546e+00
   5.846613e+01  -6.548118e+00
   1.450125e+01   2.710013e+01
  -8.277390e+01   5.997320e+01
  -1.109659e+02   6.089321e+01
  -6.104939e+01  -1.661154e+01
   1.135967e+01  -8.395485e+01
   6.369313e+01  -7.323538e+01
   3.765350e+01  -1.511004e+00
  -1.357123e+00   5.852341e+01
  -2.969189e+01   4.355744e+01
  -3.634620e+01  -1.442905e+01
  -2.818436e+01  -5.768360e+01
   4.686564e+00  -3.207124e+01
   3.090466e+01   6.620471e+00
   3.490143e+01   1.858037e+01
   2.230889e+01   3.599808e+00
   6.915191e-01  -1.587214e+01
  -5.627404e+00   2.487290e+00
  -1.852472e+00   3.758864e+01
  -2.558363e+01   4.047399e+01
  -3.200187e+01   7.787689e+00
  -2.759490e+01  -4.047367e+01
   9.066082e+00  -6.118731e+01
   4.188204e+01  -2.190689e+01
   5.347948e+01   4.234418e+01
   1.534932e+01   6.003438e+01
  -5.157389e+01   3.381134e+01
  -8.723880e+01  -1.277183e+01
  -4.745489e+01  -3.863686e+01
   2.393088e+01  -3.919071e+01
   5.786362e+01  -1.887356e+01
   2.535851e+01  -4.962367e+00
  -3.266264e+01   7.806473e-01
  -3.504480e+01  -1.185920e+01
   2.651868e+01  -2.880069e+01
   9.937953e+01  -1.511265e+01
