
 $NMID
 id='ANONYMOUS ', fmtdat='(2E16.6)'
 volume=1.0
 tramp=1.0
 $END
   3.355241e+03  -8.741344e+02
   2.302163e+03   2.315252e+03
  -6.308308e+02   2.502090e+03
  -1.581387e+03   1.202771e+03
  -1.089430e+03  -2.810422e+02
   4.603102e+02  -4.266724e+02
   7.770954e+02   1.615925e+02
  -1.990814e+00   8.946777e+02
  -6.063780e+02   7.699156e+02
  -8.448922e+02   1.707354e+00
  -4.251030e+02  -6.393295e+02
   3.291785e+01  -8.437536e+02
   4.986068e+02  -2.242913e+02
   3.319267e+02   5.105420e+02
  -1.012718e+02   6.132748e+02
  -4.889827e+02   1.361908e+02
  -3.435445e+02  -5.516688e+02
   1.637642e+02  -5.715240e+02
   4.821674e+02  -2.062636e+02
   4.384593e+02   2.144981e+02
   9.495119e+01   3.708880e+02
  -1.656625e+02   2.231197e+02
  -1.462820e+02   3.683701e+01
   7.773498e+01  -9.896740e+00
   3.219267e+02   1.069910e+02
   1.551210e+02   3.026329e+02
  -2.977196e+02   3.105712e+02
  -5.744249e+02  -2.183807e+01
  -2.810700e+02  -4.761745e+02
   2.357236e+02  -3.005404e+02
   6.345418e+02   7.820200e+01
   3.106388e+02   3.468778e+02
  -1.362438e+02   4.268752e+02
  -3.975318e+02   2.441504e+02
  -3.054344e+02  -1.131237e+02
  -9.196526e+01  -3.683694e+02
   1.787130e+02  -2.700064e+02
   9.713770e+01   3.700935e+01
  -7.182443e+01   3.494418e+02
  -3.473016e+02   3.799239e+01
  -2.405812e+02  -4.543575e+02
   1.558877e+02  -6.430033e+02
   3.795872e+02  -1.010445e+02
   2.656737e+02   3.207613e+02
  -1.852015e+02   2.743824e+02
  -3.686724e+02  -2.952399e+02
   1.018049e+01  -4.548708e+02
   3.714014e+02  -2.122542e+02
   5.873637e+02   2.443611e+02
   1.726428e+02   4.795069e+02
  -2.848182e+02   4.375573e+02
  -4.883931e+02   1.476624e+01
  -3.596898e+02  -2.651907e+02
   9.012475e+01  -3.521902e+02
   3.568797e+02  -6.207802e+01
   1.511489e+02   1.228099e+02
  -9.931702e+01   1.048876e+02
  -1.482419e+02  -6.525668e+01
   1.008898e+02  -1.773398e+02
   2.930070e+02   3.005129e+01
   1.511422e+02   2.172220e+02
  -1.610803e+02   2.189751e+02
  -3.054135e+02   6.013998e+01
  -1.757512e+02  -9.423580e+01
   1.787230e+01  -2.310912e+02
   1.979191e+02  -2.492283e+02
   2.951966e+02  -2.050929e+02
   2.614807e+02   9.989461e+01
   1.117047e+02   3.631565e+02
  -7.863572e+01   3.060411e+02
  -1.004492e+02   1.420154e+02
  -4.746513e+01   4.330836e+01
  -9.136612e+01   9.207598e+01
  -1.522704e+02   7.866487e+01
  -2.078597e+02  -4.662658e+01
  -1.298946e+02  -2.186082e+02
   5.585743e+01  -1.861907e+02
   1.794310e+02  -4.397906e+01
   1.740840e+02   2.114057e+02
  -2.367155e-01   2.809382e+02
  -2.056139e+02   1.008206e+02
  -3.173283e+02  -1.656021e+02
  -2.125085e+02  -2.394617e+02
   2.683927e+01  -3.343509e+02
   1.521410e+02  -1.598666e+02
   1.419846e+02  -3.279933e+01
   9.927476e+01  -3.117393e+01
   1.978732e+02  -6.436879e+01
   3.771511e+02   2.453947e+01
   3.563891e+02   2.484495e+02
   2.978444e+00   3.899888e+02
  -2.720256e+02   4.216507e+02
  -4.087640e+02   2.417297e+02
  -2.756860e+02  -5.955636e+01
  -9.166513e+00  -2.668950e+02
   1.129524e+02  -2.277648e+02
   4.535331e+01  -4.231171e+01
  -7.221399e+01   1.021826e+02
  -1.530260e+02   2.983671e+01
  -6.837996e+01  -1.500762e+02
   1.091090e+02  -1.791590e+02
   1.244993e+02   5.609205e+01
   1.871044e+01   1.397827e+02
  -1.560348e+02   6.497205e+01
  -1.608215e+02  -2.065792e+02
  -1.348915e+01  -3.026213e+02
   2.132227e+02  -2.080348e+02
   3.124792e+02   6.313608e+01
   2.634251e+02   1.974421e+02
   1.279880e+02   2.226145e+02
  -7.326585e+01   1.423309e+02
  -1.520839e+02   2.163343e+01
  -6.026566e+01  -1.811787e+01
   6.551002e+01   2.812166e+01
   1.016338e+01   1.067302e+02
  -9.627184e+01   8.790058e+01
  -1.464138e+02   1.626087e+01
  -4.184396e+01  -4.538120e+01
   6.953064e+01  -1.382972e+01
   4.177300e+01   7.701708e+01
  -1.135069e+02   8.162296e+01
  -2.630767e+02   9.384586e+00
  -2.098782e+02  -1.103645e+02
  -3.663851e+01  -2.132801e+02
   1.484780e+02  -1.939589e+02
   2.527320e+02  -1.236317e+02
   1.219097e+02   2.653445e+01
  -2.743560e+01   8.342475e+01
  -7.854233e+01   2.102077e+01
   1.383161e+01  -7.810510e+01
   1.377162e+02  -6.296569e+01
   2.058189e+02   6.439476e+01
   9.634751e+01   1.631851e+02
  -8.232402e+01   1.279863e+02
  -1.195521e+02   3.075037e+01
  -7.145753e+01  -2.866632e+01
   2.357852e+01  -3.488015e+00
   3.901764e+01   7.058742e+01
  -6.904273e+01   9.716616e+01
  -1.703013e+02   1.355658e+01
  -1.502304e+02  -1.015670e+02
  -3.457660e+01  -1.778166e+02
   9.607532e+01  -1.513675e+02
   1.637876e+02  -1.146746e+01
   6.810388e+01   9.668478e+01
  -4.944774e+01   1.111363e+02
  -6.786603e+01   3.246078e+01
  -1.984853e+01  -1.403361e+01
   2.224665e+01  -1.764848e+01
  -9.945075e+00   1.068959e+01
  -6.574148e+01  -1.928783e+00
  -7.569790e+01  -6.121112e+01
  -1.406252e+01  -1.420174e+02
   8.749646e+01  -1.303619e+02
   1.938516e+02  -2.137425e+01
   1.756407e+02   1.153592e+02
   4.181100e+01   2.379182e+02
  -7.803807e+01   1.537107e+02
  -1.143332e+02   4.152887e+01
  -7.038771e+01  -4.455289e+01
  -2.757714e+01  -3.300498e+01
  -4.994128e+01   1.682346e+01
  -6.534313e+01   1.439415e+01
  -3.835355e+01  -4.249817e+01
   2.777855e+01  -8.044679e+01
   1.014371e+02  -5.214961e+01
   7.953058e+01   3.520347e+01
  -1.004861e+01   9.082746e+01
  -1.168158e+02   7.628833e+01
  -1.445389e+02  -2.786578e+01
  -9.562514e+01  -1.623033e+02
   7.482173e+01  -2.045808e+02
   2.296520e+02  -8.871790e+01
   2.054985e+02   7.980853e+01
   1.076651e+02   1.469554e+02
  -2.650154e+01   1.284412e+02
  -8.011983e+01   6.468294e+01
  -6.281547e+01   7.480826e+01
  -6.299799e+01   8.452457e+01
  -7.723742e+01   6.011776e+01
  -1.143603e+02  -3.182891e+01
  -1.001493e+02  -1.470950e+02
  -5.852392e+01  -2.003226e+02
   9.675100e+01  -1.722783e+02
   1.484824e+02  -2.301864e+01
   1.252138e+02   1.068157e+02
   1.994513e+01   1.222818e+02
  -4.765833e+01   8.455834e+01
  -5.364397e+01  -3.781553e+00
  -1.829187e+00  -3.761799e+01
   1.166130e+01  -2.905781e+01
  -3.651857e+01  -7.622321e+00
  -7.587567e+01  -1.531010e+01
  -3.641288e+01  -3.513252e+01
   6.325650e+01  -3.290681e+01
   1.358317e+02  -2.752120e+01
   1.245322e+02   3.535051e+01
   1.095716e+01   7.595114e+01
  -9.769866e+01   6.780450e+01
  -1.163471e+02   8.697457e+00
  -3.959179e+01  -3.678645e+01
   5.890467e+01  -3.533276e+01
   6.860874e+01   7.695713e+00
   1.284982e+01   5.808220e+01
  -4.806851e+01   5.767737e+01
  -5.295804e+01   6.702307e-01
  -4.285871e+01  -3.947271e+01
  -4.317566e+01  -3.182510e+01
  -4.913064e+01   3.698218e+00
  -5.787935e+01   4.147781e-01
  -4.148115e+01  -5.494575e+01
   2.569421e+01  -1.102956e+02
   9.584919e+01  -1.300268e+02
   1.495736e+02  -3.175952e+01
   1.239760e+02   7.614966e+01
   4.887661e+00   1.076186e+02
  -7.969120e+01   5.493201e+01
  -6.193279e+01  -1.089121e+01
   5.018950e+01  -2.337198e+01
   1.155651e+02   3.438859e+01
   8.325363e+01   8.471869e+01
  -6.443711e+01   8.824434e+01
  -1.692524e+02   5.087521e+01
  -1.450983e+02  -7.535146e+00
  -4.694138e+01  -7.886286e+01
   5.534881e+01  -7.378719e+01
   4.056254e+01  -6.318402e+00
  -3.513168e+01   2.526956e+01
  -8.010994e+01  -1.375956e+01
  -4.234904e+01  -1.084572e+02
   5.270952e+01  -1.504403e+02
   1.244844e+02  -5.823966e+01
   1.447652e+02   8.485136e+01
   3.323211e+01   1.678792e+02
  -7.304767e+01   1.274681e+02
  -9.194942e+01  -1.562714e+01
  -6.198348e+01  -9.517301e+01
   3.158444e+00  -8.548373e+01
   3.678925e+01  -1.828855e+01
   4.898576e+01   2.249435e+01
   2.043594e+01   3.767024e+00
   3.020668e+00  -1.556073e+01
   2.000363e+01   1.709549e+01
   4.866701e+01   8.231815e+01
   6.405845e+01   9.445256e+01
  -3.083248e+01   3.662740e+01
  -1.146552e+02  -3.689105e+01
  -1.275863e+02  -6.117193e+01
  -1.288264e+01  -4.277252e+01
   8.215060e+01  -2.593544e+01
   7.814808e+01  -1.167562e+01
   8.868992e+00   7.287748e+00
  -3.235731e+01   2.615046e+01
  -1.064261e+01   1.369545e+01
   1.723288e+01  -5.336484e+00
  -4.918018e+00  -5.853498e+00
  -7.164439e+01  -5.833793e+00
  -8.364165e+01  -1.613790e+01
  -9.713753e+00  -6.687308e+01
   7.703837e+01  -1.024831e+02
   1.575760e+02  -6.014484e+01
   1.230870e+02   4.409559e+01
   4.444011e+01   1.380556e+02
  -5.274554e+01   1.448702e+02
  -9.759769e+01   7.113389e+01
  -6.660740e+01  -8.152974e+00
  -2.526936e+01  -3.275996e+01
   1.604060e+00  -1.009710e+01
  -8.982573e+00  -4.247065e+00
  -3.196293e+01  -3.790755e+01
  -2.025992e+01  -7.852176e+01
   2.420680e+01  -6.020493e+01
   6.508382e+01   1.930818e+00
   5.665528e+01   7.722628e+01
   1.559084e+01   9.605478e+01
  -7.732163e+01   1.869720e+01
  -7.621811e+01  -5.502908e+01
  -3.113592e+01  -8.709718e+01
   6.527984e+01  -4.278319e+01
   8.058497e+01   1.025301e+01
   3.633369e+01   5.348373e+01
  -2.709331e+01   4.138255e+01
  -2.626877e+01   2.599155e+01
   2.635354e+01  -1.437266e+00
   5.840955e+01  -1.823147e+01
   1.530068e+01   2.075330e+01
  -7.348939e+01   6.989652e+01
  -1.088533e+02   5.704796e+01
  -5.361020e+01  -4.611587e+00
   1.010079e+01  -7.520482e+01
   4.517468e+01  -7.680664e+01
   3.167608e+01  -4.729787e+00
   7.449863e+00   4.921793e+01
  -2.238151e+01   4.702215e+01
  -3.788564e+01  -9.340036e+00
  -2.795047e+01  -4.406998e+01
   8.861601e-01  -3.007187e+01
   3.148839e+01   4.486179e+00
   3.232719e+01   1.449420e+01
   1.739681e+01   2.662620e+00
   1.508287e+00  -1.342588e+01
  -9.213424e+00  -3.092363e+00
   2.411279e-01   3.874952e+01
  -4.608053e+00   4.277759e+01
  -2.850585e+01   1.277551e+01
  -3.300501e+01  -3.652888e+01
  -1.110215e+01  -4.564002e+01
   3.822275e+01  -2.079627e+01
   5.606316e+01   3.140588e+01
   2.710325e+01   5.921800e+01
  -3.800899e+01   3.285102e+01
  -7.873610e+01  -1.877022e+01
  -4.558154e+01  -3.780270e+01
   2.212635e+01  -3.646217e+01
   5.617834e+01  -3.318795e+01
   2.026953e+01  -2.180164e+00
  -2.957373e+01   4.084538e+00
  -2.695234e+01  -6.849884e+00
   2.107843e+01  -2.940565e+01
   7.656207e+01  -1.600270e+01
