
 $NMID
 id='ANONYMOUS ', fmtdat='(2E16.6)'
 volume=1.0
 tramp=1.0
 $END
  -4.586992e+03  -2.304551e+02
  -2.006441e+03  -2.533860e+03
   9.459845e+02  -2.659523e+03
   2.158827e+03  -8.485471e+02
   9.727647e+02   4.028097e+02
  -5.629053e+02   3.516069e+02
  -9.028823e+02  -6.459371e+02
  -1.466663e+01  -1.029433e+03
   8.494799e+02  -7.724248e+02
   9.237140e+02   1.130898e+02
   3.854423e+02   7.070294e+02
  -2.410394e+02   8.394920e+02
  -6.223709e+02   1.298812e+02
  -3.107699e+02  -7.924591e+02
   2.901211e+02  -7.150444e+02
   5.893188e+02   2.787897e+01
   1.466858e+02   6.809261e+02
  -3.378478e+02   6.105124e+02
  -5.893514e+02   1.245817e+02
  -3.514220e+02  -3.737269e+02
   8.385714e+00  -4.325438e+02
   2.112909e+02  -2.390117e+02
   1.843241e+02   6.530106e+00
  -1.311748e+02   6.485400e+01
  -4.171085e+02  -1.260127e+02
  -1.701375e+02  -4.003524e+02
   4.791772e+02  -5.436350e+02
   7.269022e+02   3.899205e+00
   4.236252e+02   4.536901e+02
  -3.158003e+02   3.694313e+02
  -7.439549e+02  -3.123315e+01
  -2.379810e+02  -4.481765e+02
   2.922653e+02  -4.721881e+02
   4.403955e+02  -1.777030e+02
   4.477806e+02   2.137493e+02
   6.903600e+01   4.318053e+02
  -2.150355e+02   2.310686e+02
  -1.662695e+02  -1.757248e+02
   2.025905e+02  -4.784948e+02
   4.679181e+02   7.380505e+01
   1.989651e+02   6.897641e+02
  -3.429690e+02   7.105763e+02
  -6.163324e+02   4.448896e+01
  -2.968900e+02  -4.692317e+02
   2.713504e+02  -3.511014e+02
   3.397104e+02   3.092749e+02
  -9.664196e+00   5.074283e+02
  -6.222420e+02   1.306416e+02
  -5.881839e+02  -4.171428e+02
  -1.058108e+02  -5.387916e+02
   4.054791e+02  -2.625006e+02
   5.712144e+02   1.319555e+02
   3.602475e+02   4.236660e+02
  -2.012066e+02   3.842695e+02
  -4.186626e+02   5.924517e+01
  -2.382348e+02  -1.451855e+02
   9.875391e+01  -9.709141e+01
   9.955043e+01   1.454270e+02
  -1.963858e+02   1.626763e+02
  -3.323418e+02  -1.257528e+02
  -1.260723e+02  -3.142288e+02
   1.903907e+02  -2.464852e+02
   3.050095e+02  -7.914670e+01
   1.903426e+02   1.282656e+02
  -2.276096e+01   1.643577e+02
  -2.155937e+02   3.036562e+02
  -3.349655e+02   2.174416e+02
  -2.828890e+02  -1.774970e+02
  -1.165195e+02  -3.721525e+02
   8.707038e+01  -3.402076e+02
   1.254710e+02  -7.138819e+01
   4.683824e+01  -4.298012e+00
   5.468633e+01  -8.062287e+01
   1.821594e+02  -1.250689e+02
   2.540626e+02   6.492170e+01
   1.645953e+02   2.088079e+02
  -3.980615e+01   2.545894e+02
  -2.111553e+02   8.413794e+00
  -1.622060e+02  -2.454479e+02
   3.790543e+01  -2.696303e+02
   2.841224e+02  -9.978569e+01
   3.707697e+02   1.297115e+02
   1.658569e+02   2.983367e+02
  -1.149816e+02   2.990090e+02
  -2.275121e+02   1.068150e+02
  -1.594725e+02  -2.216150e+01
  -8.019599e+01   3.793811e+01
  -1.909786e+02   8.335706e+01
  -3.997370e+02  -8.688959e+01
  -3.330739e+02  -2.896496e+02
   1.786728e+01  -4.552381e+02
   3.564018e+02  -3.904808e+02
   5.556838e+02  -1.959889e+02
   2.819147e+02   9.270248e+01
   5.437548e+01   2.774751e+02
  -1.120599e+02   2.529205e+02
  -7.834418e+01   3.124621e+01
   1.253903e+02  -1.004643e+02
   2.037336e+02   2.765747e+01
   3.530469e+01   1.677296e+02
  -1.772092e+02   1.766109e+02
  -1.715074e+02  -5.469865e+01
   2.999128e+01  -2.016571e+02
   2.043698e+02  -1.849461e+01
   1.351495e+02   2.338356e+02
  -5.543575e+01   3.889062e+02
  -2.660032e+02   1.729218e+02
  -2.701237e+02  -3.895495e+01
  -2.442632e+02  -2.627347e+02
  -8.578962e+01  -2.422057e+02
   1.245511e+02  -1.805926e+02
   1.730962e+02  -4.560902e+01
   5.729936e+01   3.749177e+01
  -6.464696e+01  -4.255953e+01
  -1.651983e+01  -1.340417e+02
   1.305270e+02  -9.969045e+01
   1.853502e+02   3.177393e+01
   5.477302e+01   7.302114e+01
  -7.373803e+01   1.914289e+01
  -4.415595e+01  -6.697664e+01
   1.297171e+02  -9.490281e+01
   3.042146e+02  -3.298212e+00
   2.365419e+02   9.214780e+01
   6.322786e+01   2.365328e+02
  -1.802610e+02   2.659830e+02
  -2.732484e+02   1.161672e+02
  -1.581634e+02  -5.971154e+01
   2.654248e+01  -9.664638e+01
   9.848843e+01  -6.522745e+00
  -3.189105e+01   1.009099e+02
  -1.911193e+02   6.986271e+01
  -2.052633e+02  -1.145657e+02
  -3.498200e+01  -2.247246e+02
   7.539180e+01  -1.406321e+02
   1.338294e+02  -1.620674e+01
   5.701012e+01   3.770440e+01
  -3.406144e+01   4.686801e+00
  -3.885560e+01  -7.684601e+01
   5.410430e+01  -9.342584e+01
   1.805335e+02  -8.663056e+00
   1.825770e+02   1.127356e+02
   1.260469e+01   2.094190e+02
  -1.915542e+02   1.444109e+02
  -2.014834e+02  -1.710884e+00
  -6.007614e+01  -1.060728e+02
   7.674439e+01  -9.590526e+01
   9.175899e+01  -2.988044e+01
   1.528681e+01   2.616405e+01
  -2.116861e+01   1.641966e+01
   1.208238e+01  -4.640715e+00
   6.199433e+01   7.499817e+00
   6.546536e+01   8.042786e+01
   9.276205e-01   1.350538e+02
  -1.111247e+02   1.599160e+02
  -2.515182e+02  -1.304983e+01
  -2.029678e+02  -1.487805e+02
  -6.304275e+01  -2.300155e+02
   1.046323e+02  -1.739263e+02
   1.321289e+02  -3.361927e+01
   5.877186e+01   5.690107e+01
   2.480893e+01   3.785898e+01
   5.006741e+01  -1.082663e+01
   6.943283e+01  -1.764769e+00
   2.885814e+01   4.541174e+01
  -3.482460e+01   8.389934e+01
  -9.655428e+01   4.781364e+01
  -8.038131e+01  -3.764093e+01
   2.518268e+01  -1.063076e+02
   1.327038e+02  -7.336511e+01
   1.600101e+02   3.534312e+01
   9.133023e+01   1.968268e+02
  -1.019618e+02   2.400316e+02
  -2.731266e+02   9.634177e+01
  -2.409400e+02  -6.173828e+01
  -1.129306e+02  -1.728978e+02
   3.344324e+01  -1.348509e+02
   9.137250e+01  -9.230184e+01
   7.252928e+01  -6.057953e+01
   7.436421e+01  -8.853684e+01
   8.731576e+01  -6.022413e+01
   1.265633e+02   1.961306e+01
   1.058743e+02   1.468194e+02
   1.266826e-01   2.283103e+02
  -1.327101e+02   1.808426e+02
  -1.414758e+02   1.661226e+01
  -1.346275e+02  -1.086101e+02
  -1.512458e+01  -1.516342e+02
   6.251931e+01  -7.658753e+01
   6.149198e+01  -4.722181e+00
   4.729445e+00   4.295339e+01
  -9.248851e+00   3.173637e+01
   3.099288e+01   2.198172e+01
   7.468897e+01   1.534521e+01
   3.176458e+01   2.920435e+01
  -6.123974e+01   2.335395e+01
  -1.434007e+02  -6.549801e+00
  -1.466503e+02  -6.064530e+01
  -2.087204e+01  -8.279335e+01
   1.215858e+02  -7.094506e+01
   1.206281e+02  -5.321108e+00
   4.862624e+01   4.378883e+01
  -4.952571e+01   2.912320e+01
  -6.801417e+01  -1.719700e+01
  -4.106196e-01  -6.166841e+01
   6.119646e+01  -5.367392e+01
   5.748280e+01   1.937411e-01
   2.951478e+01   4.852754e+01
   3.382592e+01   4.978211e+01
   6.109299e+01   5.266422e+00
   5.845862e+01  -3.786847e+00
   3.402628e+01   5.601447e+01
  -2.832749e+01   1.528311e+02
  -1.106073e+02   1.591664e+02
  -1.498440e+02   1.764228e+01
  -1.167992e+02  -8.802130e+01
  -4.909974e+00  -1.310177e+02
   7.988325e+01  -6.126773e+01
   5.294742e+01   1.542607e+01
  -6.166226e+01   1.701726e+01
  -1.168159e+02  -4.390948e+01
  -7.227960e+01  -1.220698e+02
   6.027975e+01  -1.140761e+02
   1.745462e+02  -5.704993e+01
   1.465850e+02   5.005800e+01
   4.033941e+01   7.525358e+01
  -6.385590e+01   6.013045e+01
  -4.310820e+01   4.136917e+00
   3.598896e+01  -2.841244e+01
   8.734076e+01   3.187604e+01
   1.683448e+01   1.173018e+02
  -9.868367e+01   1.493596e+02
  -1.616131e+02   5.554552e+01
  -1.229283e+02  -1.165492e+02
  -1.590434e+01  -1.736364e+02
   9.660358e+01  -1.388824e+02
   9.860254e+01   3.975700e+00
   4.734474e+01   1.139069e+02
   6.439139e+00   1.006258e+02
  -3.807705e+01   1.500462e+01
  -4.293178e+01  -2.547799e+01
  -2.375416e+01  -6.930274e+00
  -8.051272e-01   1.866240e+01
  -2.115110e+01  -1.299557e+01
  -4.391727e+01  -8.488322e+01
  -3.312120e+01  -1.040937e+02
   4.623943e+01  -4.065806e+01
   1.270973e+02   4.162851e+01
   1.228667e+02   5.754053e+01
   9.956939e+00   4.972096e+01
  -8.486517e+01   2.300550e+01
  -7.999581e+01   5.213950e+00
  -8.523465e+00  -5.554137e+00
   4.223218e+01  -1.622026e+01
   1.234389e+01  -1.752060e+01
  -1.996716e+01   3.609161e+00
   6.500148e+00   1.024158e+01
   6.598127e+01   9.202878e+00
   1.015747e+02   1.938750e+01
   1.985173e+01   8.086591e+01
  -1.106913e+02   1.039166e+02
  -1.671404e+02   4.397669e+01
  -1.185741e+02  -5.731288e+01
  -3.567825e+00  -1.737548e+02
   7.544384e+01  -1.234182e+02
   1.181849e+02  -4.309707e+01
   7.112992e+01   2.090826e+01
   2.576910e+01   2.926123e+01
  -4.388416e+00   7.453278e+00
   8.733062e+00   3.034900e+00
   2.750813e+01   4.515378e+01
   1.303983e+01   9.066240e+01
  -1.543072e+01   7.042456e+01
  -7.583471e+01  -1.494760e+01
  -8.543263e+01  -1.043579e+02
  -2.567618e+00  -1.104587e+02
   7.721048e+01  -2.490420e+01
   8.489310e+01   7.567754e+01
   2.343513e+01   9.514457e+01
  -6.412708e+01   4.160407e+01
  -8.702504e+01  -1.568329e+01
  -3.246421e+01  -4.427123e+01
   2.612580e+01  -4.948717e+01
   3.269945e+01  -2.499277e+01
  -3.284292e+01  -1.241253e+00
  -7.209282e+01   4.044949e+00
  -1.285843e+01  -2.086355e+01
   7.763942e+01  -5.989151e+01
   1.052754e+02  -3.970170e+01
   6.526684e+01   1.609997e+01
  -1.835522e+01   7.646662e+01
  -3.668341e+01   6.282383e+01
  -3.138705e+01   1.908329e+00
   2.291593e+00  -5.044452e+01
   2.295901e+01  -3.669515e+01
   3.391956e+01   1.505558e+01
   2.140889e+01   4.733174e+01
   1.325449e+00   2.602984e+01
  -3.233735e+01  -1.068030e+01
  -3.746482e+01  -1.945113e+01
  -1.787561e+01   1.493117e+00
   1.042982e+00   1.287072e+01
   6.140699e+00  -2.360001e+00
   1.346987e+01  -3.865028e+01
   1.270704e+01  -3.697582e+01
   2.215657e+01  -9.770769e+00
   2.616988e+01   4.121331e+01
  -2.001438e+00   4.998424e+01
  -4.507337e+01   1.270101e+01
  -4.682517e+01  -2.890922e+01
  -9.839505e+00  -5.943016e+01
   4.944038e+01  -2.909278e+01
   7.753105e+01   1.239256e+01
   4.835857e+01   4.895774e+01
  -3.177372e+01   4.009715e+01
  -7.221021e+01   1.521930e+01
  -2.035503e+01   5.529708e+00
   3.568170e+01  -2.195750e+00
   3.461744e+01   1.157806e+01
  -2.928630e+01   2.825432e+01
  -7.766119e+01   1.785446e+01
