
 $NMID
 id='ANONYMOUS ', fmtdat='(2E16.6)'
 volume=1.0
 tramp=1.0
 $END
   4.671188e+03   2.856809e+02
   2.504559e+03   2.876602e+03
  -8.151559e+02   2.559920e+03
  -2.310443e+03   6.790610e+02
  -1.044015e+03  -8.499887e+02
   7.621473e+02  -5.013953e+02
   8.129652e+02   4.901035e+02
  -2.025037e+02   1.017524e+03
  -1.112715e+03   8.026977e+02
  -8.880895e+02  -1.556152e+02
  -4.106025e+02  -8.006107e+02
   2.762210e+02  -7.680566e+02
   6.138626e+02  -7.443057e+01
   1.865593e+02   8.247134e+02
  -3.836866e+02   7.065246e+02
  -6.236648e+02  -5.118058e+01
  -1.245575e+02  -6.329914e+02
   4.932614e+02  -6.579573e+02
   5.781937e+02  -1.145183e+02
   3.832740e+02   3.777770e+02
  -2.237259e+01   4.072814e+02
  -2.513771e+02   2.444131e+02
  -1.884710e+02   4.304360e+00
   1.138934e+02  -1.155077e+02
   4.741152e+02   1.002400e+02
   2.073901e+02   4.298441e+02
  -5.485103e+02   4.629099e+02
  -8.746393e+02   1.230943e+01
  -4.691160e+02  -5.415402e+02
   3.931991e+02  -5.333305e+02
   7.956662e+02   3.563040e+01
   2.913042e+02   4.885062e+02
  -2.805022e+02   4.799132e+02
  -5.667177e+02   1.952186e+02
  -4.731722e+02  -2.219011e+02
  -6.874046e+01  -4.504555e+02
   2.123340e+02  -2.763811e+02
   1.781475e+02   2.498947e+02
  -2.344349e+02   4.328167e+02
  -4.441787e+02  -4.976194e+01
  -2.016693e+02  -7.290166e+02
   3.575959e+02  -7.225680e+02
   6.365653e+02  -7.931466e+01
   2.999662e+02   5.291127e+02
  -3.256857e+02   3.643534e+02
  -3.889839e+02  -3.183281e+02
   9.004136e+01  -5.386854e+02
   6.135554e+02  -1.387542e+02
   5.816640e+02   4.593572e+02
   1.221717e+02   6.073342e+02
  -4.531485e+02   3.192199e+02
  -5.780532e+02  -1.790270e+02
  -3.482634e+02  -4.363828e+02
   2.613848e+02  -3.536296e+02
   4.636781e+02  -9.325603e+00
   2.900279e+02   1.949653e+02
  -1.566254e+02   1.035268e+02
  -1.076739e+02  -1.499327e+02
   2.337495e+02  -1.855748e+02
   3.730662e+02   1.151418e+02
   1.122459e+02   3.066572e+02
  -2.116884e+02   2.410913e+02
  -3.401724e+02   6.850403e+01
  -1.853065e+02  -1.066598e+02
   5.016361e+00  -1.746946e+02
   2.326890e+02  -3.001448e+02
   3.266613e+02  -2.031583e+02
   3.058695e+02   1.558846e+02
   1.157830e+02   4.624337e+02
  -1.340919e+02   4.044721e+02
  -1.420422e+02   6.802664e+01
  -2.466470e+01  -2.862725e+01
  -3.635362e+01   8.726000e+01
  -1.849993e+02   1.176472e+02
  -2.749095e+02  -5.958729e+01
  -1.824853e+02  -2.517940e+02
   8.793891e+01  -2.707867e+02
   2.285234e+02  -5.198148e+00
   1.713214e+02   2.598788e+02
  -3.624028e+01   2.961674e+02
  -2.558397e+02   1.083695e+02
  -3.302230e+02  -1.419559e+02
  -1.717456e+02  -3.396284e+02
   1.206914e+02  -3.281220e+02
   2.254044e+02  -8.787029e+01
   1.486319e+02   3.946863e+01
   8.807625e+01  -3.455262e+01
   1.920252e+02  -7.013683e+01
   3.872061e+02   9.587143e+01
   2.997205e+02   3.084782e+02
   4.456601e+00   4.303266e+02
  -3.532311e+02   3.693949e+02
  -4.843868e+02   1.585856e+02
  -3.073936e+02  -6.970651e+01
  -4.281238e+01  -2.965844e+02
   1.573284e+02  -2.661892e+02
   1.004704e+02  -1.960333e+01
  -1.224189e+02   9.811201e+01
  -1.962289e+02  -3.330300e+01
  -4.351676e+01  -1.939398e+02
   2.005722e+02  -1.605443e+02
   2.167877e+02   6.949573e+01
  -5.234345e+01   1.958447e+02
  -2.148390e+02   2.033487e+01
  -1.182853e+02  -2.663854e+02
   7.970903e+01  -3.432921e+02
   2.465155e+02  -1.744997e+02
   2.997367e+02   4.952799e+01
   2.239487e+02   2.978032e+02
   1.086394e+02   2.513691e+02
  -1.372172e+02   1.824379e+02
  -1.934544e+02   2.790478e+01
  -5.833956e+01  -3.640513e+01
   6.862034e+01   4.872910e+01
   3.184041e+01   1.321323e+02
  -1.400226e+02   1.016735e+02
  -1.631666e+02  -2.537275e+01
  -6.410341e+01  -7.305572e+01
   8.321464e+01  -6.400908e+00
   6.092099e+01   6.128068e+01
  -1.242624e+02   8.790789e+01
  -2.794161e+02   7.415837e+00
  -2.746216e+02  -1.481326e+02
  -5.052173e+01  -2.432927e+02
   1.815603e+02  -2.922503e+02
   2.870887e+02  -1.425200e+02
   1.604742e+02   4.785449e+01
  -9.199608e+00   1.102264e+02
  -1.021745e+02  -5.825866e-01
   4.115986e+01  -9.526539e+01
   1.994101e+02  -5.768522e+01
   1.882414e+02   1.107542e+02
   4.680784e+01   2.384642e+02
  -1.038597e+02   1.549189e+02
  -1.603969e+02   1.561642e+01
  -6.882754e+01  -3.482598e+01
   3.453305e+01  -5.455352e+00
   4.746995e+01   8.033658e+01
  -6.016547e+01   8.628286e+01
  -1.932253e+02   4.211148e+01
  -1.653395e+02  -1.245373e+02
  -1.710252e+01  -2.156092e+02
   1.858554e+02  -1.236499e+02
   2.034690e+02   2.526540e+00
   6.023437e+01   1.165841e+02
  -7.888223e+01   9.556807e+01
  -7.508851e+01   1.401983e+01
  -1.771792e+01  -2.388767e+01
   2.054874e+01  -1.941539e+01
  -4.698294e+00   6.314859e-01
  -6.320248e+01  -8.448337e+00
  -6.452837e+01  -7.954262e+01
  -1.169879e+00  -1.452487e+02
   1.110730e+02  -1.591313e+02
   2.241678e+02   9.379499e+00
   2.133378e+02   1.569378e+02
   4.688737e+01   2.527457e+02
  -1.002326e+02   1.587998e+02
  -1.227190e+02   8.006281e+00
  -5.783517e+01  -6.341534e+01
  -2.658218e+01  -3.895652e+01
  -4.804825e+01   1.097346e+01
  -6.775159e+01  -4.202246e+00
  -3.709459e+01  -4.326129e+01
   3.851551e+01  -8.681110e+01
   9.359122e+01  -5.246005e+01
   7.365209e+01   1.903071e+01
  -3.572103e+01   9.008597e+01
  -1.228746e+02   8.977791e+01
  -1.925250e+02  -4.854717e+01
  -7.074262e+01  -2.028291e+02
   1.266639e+02  -2.468478e+02
   2.652289e+02  -1.063817e+02
   2.270780e+02   8.388339e+01
   1.013732e+02   1.824878e+02
  -4.618456e+01   1.466997e+02
  -9.917599e+01   9.627773e+01
  -7.646020e+01   6.108357e+01
  -7.647749e+01   8.321442e+01
  -9.399173e+01   7.548782e+01
  -1.223701e+02  -2.485014e+01
  -1.233880e+02  -1.644412e+02
   3.243455e+00  -2.298088e+02
   1.248242e+02  -1.821560e+02
   1.704155e+02  -1.978088e+01
   1.059736e+02   1.247446e+02
   2.114316e+01   1.453223e+02
  -7.032713e+01   7.212288e+01
  -6.441319e+01   8.063677e+00
  -1.255427e+00  -4.073518e+01
   4.362909e+00  -3.464464e+01
  -3.554211e+01  -2.499957e+01
  -6.627585e+01  -2.207086e+01
  -3.243443e+01  -2.787314e+01
   5.847421e+01  -2.297614e+01
   1.265696e+02   1.466476e+00
   1.459188e+02   5.564589e+01
   2.827704e+01   7.911035e+01
  -1.169878e+02   6.081492e+01
  -1.273884e+02   1.210556e+01
  -4.656234e+01  -3.971083e+01
   5.215652e+01  -4.205651e+01
   7.029722e+01   2.131808e+01
   7.422315e+00   6.029724e+01
  -6.410231e+01   4.583270e+01
  -6.461785e+01  -2.450349e+00
  -3.647670e+01  -4.708558e+01
  -3.646176e+01  -4.998291e+01
  -5.746812e+01  -9.542005e+00
  -6.817379e+01   2.662672e+00
  -3.404983e+01  -6.305181e+01
   3.547554e+01  -1.399290e+02
   1.220968e+02  -1.506452e+02
   1.613741e+02  -2.715918e+01
   1.147150e+02   1.003554e+02
   7.987771e+00   1.303391e+02
  -8.349154e+01   4.783796e+01
  -4.889241e+01  -1.776892e+01
   6.206111e+01  -1.622240e+01
   1.247086e+02   3.875411e+01
   6.547287e+01   1.186382e+02
  -8.313101e+01   1.193085e+02
  -1.606178e+02   5.535660e+01
  -1.408220e+02  -5.611667e+01
  -4.404507e+01  -8.018291e+01
   6.553613e+01  -5.725006e+01
   4.699469e+01  -9.610541e+00
  -3.674968e+01   2.316916e+01
  -9.265782e+01  -3.026096e+01
  -2.571151e+01  -1.235632e+02
   8.551344e+01  -1.345013e+02
   1.761079e+02  -5.607977e+01
   1.084820e+02   1.065076e+02
   2.282622e+01   1.923712e+02
  -8.469917e+01   1.552495e+02
  -1.003348e+02  -1.022255e+01
  -5.072546e+01  -1.195543e+02
  -9.354168e+00  -1.024456e+02
   4.424274e+01  -1.409415e+01
   5.141791e+01   3.092069e+01
   2.549309e+01   8.556449e+00
   3.584396e+00  -1.896515e+01
   2.249900e+01   1.421997e+01
   5.469095e+01   8.716109e+01
   3.821939e+01   1.109382e+02
  -4.557725e+01   4.021579e+01
  -1.209706e+02  -2.677737e+01
  -1.154538e+02  -7.242544e+01
  -1.361752e+01  -4.939755e+01
   1.026585e+02  -1.331665e+01
   7.531441e+01   1.408718e+00
   7.087743e+00   6.835859e+00
  -3.876817e+01   1.252899e+01
  -1.286751e+01   1.693204e+01
   1.974412e+01   5.664714e-01
  -5.219380e+00  -9.177328e+00
  -7.308400e+01  -1.439416e+01
  -8.975217e+01  -3.188877e+01
  -9.343707e+00  -7.838239e+01
   1.313430e+02  -1.179635e+02
   2.049683e+02  -2.809684e+01
   1.300976e+02   6.865885e+01
   7.699155e+00   1.562474e+02
  -8.774153e+01   1.281795e+02
  -1.182580e+02   3.224022e+01
  -7.948896e+01  -2.515261e+01
  -2.192385e+01  -3.369817e+01
   3.208795e+00  -6.666544e+00
  -8.703549e+00  -2.199419e+00
  -2.361175e+01  -4.204123e+01
  -1.407282e+01  -9.111447e+01
   3.056143e+01  -6.776433e+01
   7.458636e+01   2.028242e+01
   8.420026e+01   9.823003e+01
   3.406957e+00   1.036888e+02
  -8.843945e+01   1.119945e+01
  -9.893478e+01  -7.306576e+01
  -1.332054e+01  -1.042410e+02
   6.027842e+01  -4.058964e+01
   8.880466e+01   1.817685e+01
   3.508256e+01   4.590108e+01
  -3.037213e+01   4.727760e+01
  -2.946353e+01   2.271114e+01
   3.515931e+01   6.868450e+00
   6.787058e+01   5.545274e+00
   1.192951e+01   2.137396e+01
  -7.871671e+01   6.084901e+01
  -1.081335e+02   4.155158e+01
  -5.966891e+01  -1.437110e+01
   1.605237e+01  -8.026542e+01
   4.293486e+01  -7.937972e+01
   3.158848e+01  -2.605924e+00
  -4.576247e+00   5.130099e+01
  -2.154935e+01   3.823600e+01
  -3.158644e+01  -2.491934e+01
  -1.967513e+01  -4.931211e+01
  -4.488237e+00  -3.143138e+01
   2.885572e+01   1.302326e+01
   4.073302e+01   2.023919e+01
   1.838943e+01  -1.979931e+00
  -1.144825e+00  -1.154444e+01
  -5.600551e+00   3.233008e+00
  -1.423231e+01   3.080951e+01
  -8.818306e+00   3.410649e+01
  -2.649430e+01   4.584439e+00
  -1.807422e+01  -3.959591e+01
   3.396956e+00  -4.712877e+01
   4.898553e+01  -1.495169e+01
   4.917069e+01   2.935571e+01
   7.603277e+00   6.585897e+01
  -5.863475e+01   2.876503e+01
  -7.936113e+01  -1.672388e+01
  -4.597995e+01  -5.432010e+01
   3.395936e+01  -3.690384e+01
   6.546297e+01  -9.728528e+00
   2.154626e+01  -4.266561e+00
  -3.572416e+01  -8.240851e+00
  -3.818851e+01  -1.547595e+01
   3.579883e+01  -2.870226e+01
   8.863455e+01  -1.746019e+01
