
 $NMID
 id='ANONYMOUS ', fmtdat='(2E16.6)'
 volume=1.0
 tramp=1.0
 $END
  -3.219475e+03  -3.368704e+02
  -1.892597e+03  -1.886008e+03
   6.172552e+02  -2.149740e+03
   1.518081e+03  -7.444795e+02
   9.080450e+02   1.123314e+02
  -2.218111e+02   2.137785e+02
  -4.342127e+02  -2.322190e+02
   6.020702e+01  -6.828687e+02
   5.951922e+02  -5.703060e+02
   6.935667e+02  -8.463059e+00
   3.058812e+02   4.806171e+02
  -1.683373e+02   4.681250e+02
  -3.995114e+02   8.304515e+01
  -1.519120e+02  -6.299352e+02
   2.298037e+02  -5.647423e+02
   5.454336e+02  -3.589518e+01
   1.257035e+02   5.234467e+02
  -2.168904e+02   5.636143e+02
  -4.558708e+02   2.035995e+02
  -4.229366e+02  -1.979400e+02
  -8.345453e+01  -4.213682e+02
   1.433006e+02  -2.613719e+02
   9.562317e+01  -3.729667e+01
  -1.441353e+02  -8.651654e+01
  -3.048810e+02  -2.348321e+02
  -4.033671e+00  -3.608207e+02
   4.689720e+02  -2.809439e+02
   5.379408e+02   2.716759e+01
   3.032545e+02   3.832743e+02
  -2.708884e+02   2.597117e+02
  -4.924851e+02  -1.203768e+02
  -1.701376e+02  -4.382990e+02
   2.877579e+02  -3.961720e+02
   3.920825e+02  -2.012369e+02
   3.147580e+02   1.710854e+02
   9.860021e+01   2.917158e+02
  -1.150636e+02   1.777816e+02
  -1.990582e+01  -8.287115e+01
   3.187752e+02  -2.120553e+02
   2.699088e+02   9.901983e+01
   8.824071e+01   5.157668e+02
  -3.000813e+02   4.009148e+02
  -2.909542e+02   1.003932e+02
  -1.935407e+01  -3.267840e+02
   1.758473e+02  -1.393542e+02
   1.923451e+02   3.525276e+02
  -1.523846e+02   3.677308e+02
  -4.675525e+02   7.107008e+01
  -4.333153e+02  -3.821037e+02
  -1.118149e+02  -4.730810e+02
   3.537608e+02  -2.188053e+02
   4.497763e+02   1.373470e+02
   2.372534e+02   3.581089e+02
  -7.682312e+01   2.600005e+02
  -2.884945e+02   2.300795e+01
  -1.853276e+02  -6.262349e+01
   4.144667e+01  -2.907527e+01
   2.718247e+01   1.286016e+02
  -2.121299e+02   8.482813e+01
  -2.517607e+02  -8.889314e+01
  -1.087329e+02  -2.030955e+02
   1.549187e+02  -2.283402e+02
   3.170386e+02  -1.165022e+02
   2.188807e+02   1.186281e+02
  -5.324017e+01   2.413089e+02
  -2.586126e+02   3.074450e+02
  -3.214830e+02   1.620815e+02
  -2.184326e+02  -1.605294e+02
  -1.096871e+02  -2.889712e+02
   3.752631e+01  -2.966439e+02
   8.229407e+01  -1.258299e+02
   2.410588e+01  -4.288190e+01
   1.193786e+02  -1.010744e+02
   2.057570e+02  -8.717415e+01
   2.083472e+02   1.125683e+02
   9.368187e+01   2.178704e+02
  -9.929279e+01   1.935513e+02
  -1.805659e+02  -6.422966e+01
  -5.509716e+01  -2.841537e+02
   5.572135e+01  -2.638639e+02
   2.564813e+02  -5.244646e+01
   3.115826e+02   1.686067e+02
   1.088950e+02   2.800073e+02
  -1.167690e+02   2.757342e+02
  -1.754949e+02   1.267290e+02
  -1.361405e+02   9.915822e+00
  -1.243273e+02   5.029181e+01
  -1.886109e+02   1.313078e+01
  -3.803800e+02  -8.634408e+01
  -3.337961e+02  -3.080950e+02
  -9.726548e+00  -3.848628e+02
   3.568162e+02  -3.551591e+02
   5.464251e+02  -1.916106e+02
   2.462515e+02   8.615242e+01
   1.593937e+00   2.514066e+02
  -7.222829e+01   2.194558e+02
  -2.304397e+01   2.095815e+01
   1.307210e+02  -5.236742e+01
   1.335436e+02   4.534255e+01
  -2.338007e+01   1.408805e+02
  -1.603779e+02   9.915251e+01
  -1.114500e+02  -2.960355e+01
   5.445292e+01  -1.345746e+02
   1.700694e+02   1.623920e+00
   1.000320e+02   2.212653e+02
  -8.971643e+01   3.592769e+02
  -2.772231e+02   1.911098e+02
  -2.824050e+02  -6.341630e+01
  -1.999608e+02  -2.531548e+02
  -6.344346e+01  -2.554131e+02
   1.117565e+02  -1.498962e+02
   1.486995e+02  -1.735847e+01
   2.945080e+01   1.670879e+01
  -5.508782e+01  -6.604172e+01
  -2.692452e+00  -1.108848e+02
   1.310685e+02  -6.548544e+01
   1.522672e+02   3.378598e+01
   2.595177e+01   5.073017e+01
  -8.141178e+01  -7.269430e+00
  -1.713815e+01  -7.848633e+01
   1.491753e+02  -7.758553e+01
   3.101937e+02   2.854859e+01
   1.856848e+02   1.296961e+02
   1.265376e+01   2.304112e+02
  -1.821402e+02   2.135155e+02
  -2.493706e+02   1.357181e+02
  -1.341526e+02  -3.665469e+01
   2.834626e+01  -7.533634e+01
   7.800124e+01   9.207614e+00
  -5.768284e+01   8.642812e+01
  -1.826248e+02   2.981575e+01
  -1.853507e+02  -1.187417e+02
  -2.867330e+01  -2.230969e+02
   7.049201e+01  -1.252076e+02
   1.098251e+02  -5.091406e+00
   4.882351e+01   2.812332e+01
  -3.787008e+01  -1.441052e+01
  -2.435296e+01  -1.054465e+02
   7.384776e+01  -8.786677e+01
   1.886827e+02  -1.503777e+01
   1.590588e+02   9.648531e+01
   2.093283e+01   1.833944e+02
  -1.943269e+02   1.369586e+02
  -1.744690e+02  -4.197418e+00
  -5.640366e+01  -8.879183e+01
   8.166480e+01  -8.197844e+01
   7.395973e+01  -1.686178e+01
   9.358864e+00   2.233292e+01
  -3.269127e+01   1.253738e+01
   7.369567e+00  -1.710471e+01
   8.121009e+01   6.093689e+00
   9.530741e+01   7.997905e+01
   5.110431e+00   1.512798e+02
  -1.351295e+02   1.503706e+02
  -2.351918e+02  -2.924867e+00
  -2.152094e+02  -1.392131e+02
  -3.985486e+01  -2.297830e+02
   1.166039e+02  -1.475448e+02
   1.182448e+02  -3.991365e+01
   5.822624e+01   5.272433e+01
   2.597329e+01   3.154099e+01
   4.340025e+01  -9.128873e+00
   7.354120e+01  -1.554295e+00
   4.618963e+01   5.224901e+01
  -3.463539e+01   8.842487e+01
  -1.103334e+02   5.257891e+01
  -9.374237e+01  -2.989103e+01
   1.835823e+01  -1.179219e+02
   1.440871e+02  -7.331475e+01
   1.528946e+02   5.868245e+01
   9.251011e+01   1.636156e+02
  -1.423576e+02   2.220116e+02
  -2.588560e+02   8.229864e+01
  -2.195679e+02  -6.378462e+01
  -9.412617e+01  -1.435212e+02
   3.376356e+01  -1.216040e+02
   8.167241e+01  -7.395812e+01
   6.474600e+01  -4.931385e+01
   6.000935e+01  -8.668714e+01
   7.677037e+01  -5.872999e+01
   1.189787e+02   1.700803e+01
   1.001377e+02   1.434796e+02
  -1.577726e+01   2.140743e+02
  -1.283605e+02   1.537483e+02
  -1.532529e+02   6.824563e+00
  -1.039012e+02  -1.166709e+02
   3.490020e+00  -1.383744e+02
   7.845191e+01  -6.429334e+01
   6.316430e+01   1.085089e+01
  -6.844231e+00   5.095412e+01
  -1.944351e+01   3.864837e+01
   2.184045e+01   2.163512e+01
   7.099721e+01   1.959210e+01
   3.306767e+01   3.130917e+01
  -6.771762e+01   3.144477e+01
  -1.590575e+02   3.347551e+00
  -1.145241e+02  -7.453249e+01
  -1.061641e+01  -8.694897e+01
   1.220445e+02  -6.278405e+01
   1.256240e+02   5.452963e+00
   3.837952e+01   4.782987e+01
  -4.604798e+01   3.415109e+01
  -6.343807e+01  -1.847104e+01
  -1.115239e+01  -6.312615e+01
   5.526500e+01  -5.027771e+01
   5.970488e+01   2.202601e+00
   4.286995e+01   4.726618e+01
   3.677915e+01   5.600581e+01
   5.570412e+01   6.252289e+00
   5.571125e+01   5.662594e+00
   3.779753e+01   6.346938e+01
  -1.925308e+01   1.424484e+02
  -1.321834e+02   1.486138e+02
  -1.665136e+02   1.585869e+01
  -9.894203e+01  -9.552871e+01
   9.339851e-02  -1.224263e+02
   9.148302e+01  -6.527786e+01
   5.637729e+01   1.767515e+01
  -5.691406e+01   1.764329e+01
  -1.089821e+02  -2.900181e+01
  -6.706546e+01  -1.208013e+02
   7.494643e+01  -1.097478e+02
   1.818584e+02  -3.180330e+01
   1.250878e+02   6.135817e+01
   3.449740e+01   7.933076e+01
  -7.224426e+01   4.487992e+01
  -3.417411e+01   4.027934e+00
   3.342143e+01  -2.421250e+01
   9.259811e+01   3.737232e+01
   2.296067e+01   1.162732e+02
  -9.851592e+01   1.479276e+02
  -1.508309e+02   5.089282e+01
  -1.071497e+02  -1.155053e+02
  -2.102592e+01  -1.717656e+02
   8.701291e+01  -1.085651e+02
   9.766975e+01  -3.165821e-01
   3.142881e+01   1.112742e+02
  -7.253718e+00   8.337863e+01
  -4.147832e+01   1.002002e+01
  -4.062021e+01  -3.472633e+01
  -1.574912e+01  -6.095234e+00
  -3.871328e+00   1.512626e+01
  -2.428004e+01  -1.978081e+01
  -3.793748e+01  -8.070453e+01
  -2.776877e+01  -1.029030e+02
   5.255172e+01  -2.987658e+01
   1.103323e+02   4.586729e+01
   1.239904e+02   7.572991e+01
   6.417381e+00   5.573642e+01
  -8.308295e+01   5.215869e+00
  -7.272852e+01  -1.096434e+01
  -1.156949e+01  -6.890006e+00
   3.875016e+01  -1.742359e+01
   1.657342e+01  -1.088894e+01
  -1.373362e+01  -6.490179e-01
   2.098169e+00   6.946560e+00
   6.459505e+01   2.598595e+00
   8.992469e+01   3.079167e+01
   2.220006e+01   7.377171e+01
  -1.171667e+02   9.367804e+01
  -1.908632e+02   3.725114e+01
  -1.210417e+02  -4.739499e+01
  -8.028171e+00  -1.547267e+02
   8.622951e+01  -1.127887e+02
   1.141338e+02  -4.881723e+01
   6.585316e+01   1.764834e+01
   2.495757e+01   3.221627e+01
  -3.640014e-01   9.535818e+00
   1.072101e+01   7.071303e+00
   2.538511e+01   4.499581e+01
   1.567199e+01   8.950470e+01
  -1.892683e+01   7.279133e+01
  -6.761322e+01  -1.240722e+01
  -6.851503e+01  -9.414194e+01
  -5.342990e+00  -1.021238e+02
   7.171020e+01  -2.389179e+01
   8.575673e+01   7.243597e+01
   2.589689e+01   1.048680e+02
  -5.493368e+01   4.693173e+01
  -8.491789e+01   3.723038e+00
  -3.457302e+01  -5.091744e+01
   3.358312e+01  -5.533071e+01
   3.536036e+01  -2.408943e+01
  -2.575719e+01   1.917914e-01
  -6.926434e+01   2.417688e+00
  -1.216481e+01  -2.169159e+01
   6.488732e+01  -5.620575e+01
   1.023648e+02  -4.456441e+01
   5.919497e+01   1.948725e+01
  -2.240867e+01   7.499514e+01
  -4.193794e+01   6.283535e+01
  -3.706799e+01   5.908646e+00
   4.832437e-01  -4.633395e+01
   2.267612e+01  -3.567002e+01
   3.641678e+01   1.287834e+01
   1.831793e+01   5.061892e+01
  -5.845626e-01   3.445029e+01
  -3.086474e+01  -8.685952e+00
  -3.780482e+01  -2.298892e+01
  -1.718045e+01  -3.060686e-01
   2.624737e+00   1.644529e+01
   4.551891e+00   4.909895e+00
  -5.533167e-01  -3.199622e+01
   2.557346e+00  -3.462405e+01
   2.660709e+01  -1.955414e+01
   3.403439e+01   3.356736e+01
   1.805982e+00   4.533391e+01
  -3.593110e+01   1.703026e+01
  -4.896917e+01  -3.189238e+01
  -8.345978e+00  -5.584846e+01
   5.394744e+01  -2.684377e+01
   7.572658e+01   4.538041e+00
   4.068499e+01   4.703586e+01
  -3.039674e+01   3.837582e+01
  -6.870382e+01   1.939804e+01
  -2.044770e+01   4.035425e+00
   2.394698e+01  -6.030173e-01
   2.867831e+01   3.235388e+00
  -2.581103e+01   2.151134e+01
  -5.980035e+01   1.137388e+01
