
 $NMID
 id='ANONYMOUS ', fmtdat='(2E16.6)'
 volume=1.0
 tramp=1.0
 $END
   4.154179e+03   7.758035e+02
   2.629583e+03   2.094827e+03
  -7.190739e+02   2.710902e+03
  -1.888598e+03   1.102963e+03
  -1.090034e+03  -1.110192e+02
   2.999046e+02  -7.220974e+02
   7.419890e+02   3.530488e+02
  -9.687434e+00   8.264639e+02
  -6.895888e+02   7.495839e+02
  -8.825830e+02   3.193135e+00
  -4.394918e+02  -6.869717e+02
   2.030153e+02  -8.205169e+02
   4.988197e+02  -1.384499e+02
   3.392518e+02   6.145249e+02
  -2.409162e+02   6.600722e+02
  -6.138558e+02  -6.043189e+01
  -1.618120e+02  -6.003847e+02
   3.173851e+02  -6.868785e+02
   5.839584e+02  -1.791083e+02
   4.784918e+02   3.458281e+02
   5.939007e+01   4.595340e+02
  -1.973775e+02   2.649425e+02
  -1.817539e+02   2.625565e+01
   7.978575e+01  -3.945633e+00
   3.765676e+02   1.402940e+02
   1.420960e+02   3.868825e+02
  -5.118861e+02   3.381636e+02
  -8.124335e+02   5.289139e+01
  -4.486184e+02  -4.462192e+02
   3.137734e+02  -3.932384e+02
   7.132113e+02   6.376847e+01
   2.472406e+02   3.991416e+02
  -3.812311e+02   4.266943e+02
  -5.510984e+02   2.114770e+02
  -4.424603e+02  -2.327459e+02
  -1.231006e+02  -3.822888e+02
   1.417198e+02  -2.430706e+02
   6.612186e+01   7.376927e+01
  -2.395606e+02   3.226838e+02
  -4.347892e+02  -7.975794e+01
  -7.624352e+01  -6.690300e+02
   3.147191e+02  -5.076997e+02
   5.175940e+02  -6.143493e+01
   1.566584e+02   4.462192e+02
  -2.773655e+02   2.972838e+02
  -3.793700e+02  -3.437227e+02
   2.081663e+01  -3.440119e+02
   5.725615e+02  -8.526424e+01
   5.286868e+02   3.951859e+02
   1.306081e+02   4.929804e+02
  -3.563982e+02   2.652119e+02
  -5.128290e+02  -9.325184e+01
  -3.637079e+02  -3.736048e+02
   9.763807e+01  -3.140558e+02
   4.117822e+02  -8.102185e+01
   2.699320e+02   1.450756e+02
  -6.571093e+01   1.080168e+02
  -7.373606e+01  -1.618016e+02
   1.535336e+02  -1.064131e+02
   3.186194e+02   1.220318e+02
   1.158046e+02   2.031965e+02
  -1.938832e+02   2.546675e+02
  -3.429290e+02   6.575975e+01
  -2.383238e+02  -1.390206e+02
   4.646942e+01  -2.376001e+02
   3.113732e+02  -3.505420e+02
   3.297902e+02  -2.202478e+02
   2.685068e+02   1.316059e+02
   8.030908e+01   3.855027e+02
  -8.803802e+01   3.671545e+02
  -7.132844e+01   1.245614e+02
  -4.341795e+01   4.739192e+01
  -8.711795e+01   6.597835e+01
  -2.265034e+02   9.003924e+01
  -2.677181e+02  -7.604285e+01
  -1.347943e+02  -2.642297e+02
   4.931923e+01  -2.213345e+02
   1.872268e+02   2.777026e+01
   1.014877e+02   2.368912e+02
  -4.786606e+01   2.684720e+02
  -2.709865e+02   9.158939e+01
  -3.631590e+02  -1.430770e+02
  -1.277428e+02  -3.147403e+02
   9.484343e+01  -2.359580e+02
   2.369073e+02  -1.342799e+02
   1.743351e+02   1.753867e+00
   1.307247e+02  -2.736553e+01
   2.374680e+02  -3.048833e+01
   4.389084e+02   1.062470e+02
   3.446544e+02   2.870332e+02
  -1.996217e+01   4.274235e+02
  -3.639772e+02   3.051064e+02
  -5.319632e+02   1.212619e+02
  -2.676396e+02  -8.599831e+01
  -2.990449e+01  -2.554368e+02
   1.107640e+02  -2.330525e+02
   5.604814e+01  -3.283075e+01
  -1.276090e+02   4.777842e+01
  -1.598405e+02  -4.092502e+01
  -1.586744e+01  -1.705521e+02
   1.460911e+02  -1.167404e+02
   1.971768e+02   2.543528e+01
  -2.498461e+01   1.407541e+02
  -1.758284e+02   8.941076e+00
  -1.004206e+02  -2.537217e+02
   8.403215e+01  -3.695140e+02
   2.690217e+02  -1.670196e+02
   3.467560e+02   9.744426e+01
   2.538682e+02   2.934432e+02
   8.455426e+01   2.521483e+02
  -1.258144e+02   1.676276e+02
  -1.769231e+02   1.059481e+01
  -4.708614e+01  -3.018766e+01
   5.891876e+01   5.512252e+01
   2.562072e+01   1.122502e+02
  -1.397194e+02   8.266449e+01
  -1.589853e+02  -1.846644e+01
  -5.424181e+01  -5.566286e+01
   6.258311e+01   9.250594e+00
   4.520261e+01   8.136123e+01
  -1.423559e+02   6.855847e+01
  -2.813204e+02  -8.144402e+01
  -2.672780e+02  -1.806325e+02
  -4.742001e+01  -2.430714e+02
   1.965124e+02  -2.469123e+02
   2.980514e+02  -1.160738e+02
   1.377823e+02   5.613581e+01
  -1.497306e+01   7.173349e+01
  -7.427957e+01  -1.216014e+00
   5.374356e+01  -9.012617e+01
   1.885169e+02  -4.112264e+01
   1.996636e+02   1.276312e+02
   2.323771e+01   2.045791e+02
  -9.559331e+01   1.586106e+02
  -1.313635e+02   1.035010e+01
  -5.939533e+01  -3.308284e+01
   2.469645e+01   1.196981e+01
   2.003459e+01   8.435358e+01
  -9.056139e+01   8.843776e+01
  -2.055439e+02   2.079366e+01
  -1.928531e+02  -1.450856e+02
  -8.130344e+00  -2.407913e+02
   1.882888e+02  -1.364187e+02
   1.745217e+02  -8.560164e+00
   5.664181e+01   1.004152e+02
  -7.826054e+01   8.296693e+01
  -6.931472e+01   1.479220e+01
  -5.925847e+00  -3.207419e+01
   2.920393e+01  -1.056213e+01
  -9.076814e+00   1.532056e+01
  -7.610953e+01  -9.347740e+00
  -8.546000e+01  -9.809717e+01
   8.385121e+00  -1.572893e+02
   1.181585e+02  -1.477940e+02
   2.420571e+02   2.599227e+01
   2.068766e+02   1.800789e+02
   4.495715e+01   2.728369e+02
  -1.266646e+02   1.660201e+02
  -1.328815e+02   2.960800e+01
  -6.578132e+01  -4.600784e+01
  -2.996739e+01  -3.649126e+01
  -5.373563e+01   1.513280e+01
  -8.002781e+01   7.506833e+00
  -3.906372e+01  -5.386567e+01
   5.066621e+01  -8.743627e+01
   1.301969e+02  -5.272171e+01
   9.947989e+01   3.941408e+01
  -3.381098e+01   1.101986e+02
  -1.397767e+02   7.807800e+01
  -1.861061e+02  -6.211036e+01
  -9.070338e+01  -1.971085e+02
   1.463039e+02  -2.445304e+02
   2.711006e+02  -1.310519e+02
   2.317590e+02   5.343977e+01
   1.184795e+02   1.743165e+02
  -3.236042e+01   1.265678e+02
  -1.051347e+02   8.134317e+01
  -7.668648e+01   6.682621e+01
  -7.332310e+01   8.738648e+01
  -9.772555e+01   7.254910e+01
  -1.255709e+02  -2.621751e+01
  -1.230525e+02  -1.804696e+02
   1.551106e+01  -2.356345e+02
   1.134325e+02  -1.754994e+02
   1.774537e+02  -9.863591e+00
   1.107611e+02   1.248896e+02
   1.490615e+00   1.432724e+02
  -6.884542e+01   7.940070e+01
  -6.363306e+01  -9.593425e+00
   3.857171e+00  -4.707873e+01
   1.549038e+01  -3.279287e+01
  -2.904850e+01  -1.914780e+01
  -7.979722e+01  -1.991748e+01
  -3.859882e+01  -3.794867e+01
   7.039511e+01  -2.457279e+01
   1.604950e+02  -4.277391e+00
   1.326276e+02   5.866707e+01
   8.323288e+00   8.737338e+01
  -1.321451e+02   6.031132e+01
  -1.293074e+02  -4.250742e+00
  -4.422353e+01  -4.955172e+01
   5.852953e+01  -3.699217e+01
   7.910475e+01   1.949968e+01
   1.757606e+01   7.000539e+01
  -6.586358e+01   6.234548e+01
  -6.240873e+01   3.106943e+00
  -5.237953e+01  -4.646955e+01
  -3.901650e+01  -5.704585e+01
  -5.554512e+01  -6.350088e+00
  -7.102076e+01   1.357670e+00
  -3.628616e+01  -6.445666e+01
   3.918744e+01  -1.647548e+02
   1.278603e+02  -1.441707e+02
   1.727660e+02  -3.930718e+01
   1.215476e+02   1.063858e+02
  -3.648718e+00   1.276307e+02
  -8.647297e+01   5.350610e+01
  -5.452220e+01  -1.720912e+01
   6.414885e+01  -1.573044e+01
   1.177305e+02   3.802718e+01
   5.899876e+01   1.102009e+02
  -8.749328e+01   1.117945e+02
  -1.757401e+02   4.598876e+01
  -1.367665e+02  -6.397308e+01
  -3.316882e+01  -8.046140e+01
   6.096543e+01  -5.147570e+01
   4.573077e+01  -3.821265e+00
  -3.823893e+01   2.585467e+01
  -9.948479e+01  -2.775634e+01
  -2.885045e+01  -1.216544e+02
   1.022457e+02  -1.533206e+02
   1.751556e+02  -6.358719e+01
   1.189914e+02   9.701832e+01
   1.211785e+01   1.865673e+02
  -9.372589e+01   1.409924e+02
  -1.018078e+02  -7.229023e+00
  -5.006092e+01  -1.230960e+02
  -3.142200e+00  -9.936455e+01
   4.274368e+01  -1.315462e+01
   4.728661e+01   3.019263e+01
   2.033033e+01   7.662217e+00
   5.506248e+00  -1.863535e+01
   2.332762e+01   1.942331e+01
   4.664877e+01   9.128988e+01
   2.599795e+01   1.150506e+02
  -5.899387e+01   4.086837e+01
  -1.197635e+02  -4.667737e+01
  -1.289594e+02  -7.730880e+01
  -9.045575e+00  -4.863811e+01
   9.332237e+01  -1.381615e+01
   8.130225e+01  -7.517699e+00
   1.249985e+01   9.112142e+00
  -3.738380e+01   1.635362e+01
  -1.655792e+01   1.423095e+01
   1.914968e+01  -1.096020e+00
  -3.609104e+00  -7.896034e+00
  -8.101081e+01  -7.680295e+00
  -8.911874e+01  -2.379846e+01
  -2.383054e+01  -8.964046e+01
   1.309962e+02  -1.122517e+02
   2.018740e+02  -4.039400e+01
   1.485393e+02   7.031165e+01
   9.917149e+00   1.753160e+02
  -1.016926e+02   1.376015e+02
  -1.203717e+02   5.641931e+01
  -7.985388e+01  -2.565150e+01
  -2.573576e+01  -3.477773e+01
   2.536107e+00  -1.128952e+01
  -9.622146e+00  -6.236207e+00
  -3.174450e+01  -5.046144e+01
  -1.716162e+01  -9.946992e+01
   3.012030e+01  -7.071091e+01
   8.151316e+01   2.294729e+01
   8.372274e+01   1.088396e+02
   7.754851e+00   1.063138e+02
  -8.474697e+01   3.303564e+01
  -1.084804e+02  -7.336980e+01
  -2.413188e+01  -1.176473e+02
   6.384885e+01  -5.739785e+01
   1.060804e+02   1.380718e+01
   3.256660e+01   5.466938e+01
  -2.966407e+01   5.475681e+01
  -3.789450e+01   1.958384e+01
   2.948801e+01  -2.803614e+00
   7.084642e+01   7.357093e-01
   1.154689e+01   2.622748e+01
  -7.620014e+01   5.926219e+01
  -1.163529e+02   5.321719e+01
  -6.240138e+01  -2.198131e+01
   2.140396e+01  -8.458001e+01
   4.246793e+01  -7.331284e+01
   4.003519e+01  -5.644533e+00
   9.064510e-01   4.964164e+01
  -1.959288e+01   4.177245e+01
  -3.475890e+01  -1.602917e+01
  -2.274178e+01  -4.851232e+01
   2.955722e+00  -3.865626e+01
   2.856419e+01   1.209823e+01
   4.409177e+01   2.369171e+01
   2.166912e+01   4.384653e-01
  -1.019289e+00  -1.600481e+01
  -4.828067e+00  -6.710544e-01
  -5.198060e+00   3.036699e+01
  -7.515765e+00   3.973583e+01
  -2.682358e+01   1.573886e+01
  -3.620216e+01  -3.541038e+01
  -3.312061e+00  -5.279243e+01
   5.147937e+01  -1.597597e+01
   5.778057e+01   3.587950e+01
   1.105539e+01   5.934473e+01
  -5.774056e+01   2.853542e+01
  -8.374457e+01  -9.232468e+00
  -5.033311e+01  -5.354058e+01
   3.697994e+01  -3.766032e+01
   6.370928e+01  -2.247393e+01
   2.607353e+01  -5.845464e+00
  -2.990224e+01   1.460929e-01
  -3.746603e+01  -7.514525e+00
   3.704500e+01  -2.709257e+01
   8.117119e+01  -2.533930e+01
