
 $NMID
 id='ANONYMOUS ', fmtdat='(2E16.6)'
 volume=1.0
 tramp=1.0
 $END
  -4.574872e+03   2.831362e+02
  -2.827585e+03  -2.306084e+03
   8.021282e+02  -2.869676e+03
   1.924507e+03  -1.202176e+03
   1.019577e+03   6.790412e+02
  -6.413621e+02   5.950023e+02
  -1.055108e+03  -2.274116e+02
  -1.625721e+02  -1.154048e+03
   8.154618e+02  -7.266227e+02
   1.003970e+03  -1.093745e+02
   5.432816e+02   9.473512e+02
  -1.575282e+02   1.004556e+03
  -5.989033e+02   3.272632e+02
  -5.808912e+02  -6.434498e+02
   2.545164e+02  -7.451613e+02
   5.562512e+02  -5.611900e+01
   3.705565e+02   7.071030e+02
  -3.887136e+02   6.772250e+02
  -6.919030e+02   1.037611e+02
  -4.772837e+02  -2.924078e+02
  -5.118148e+01  -4.612837e+02
   2.396388e+02  -3.092210e+02
   2.476740e+02  -3.379831e+01
  -6.335536e+01   7.943122e+01
  -3.947025e+02  -1.330654e+02
  -2.535122e+02  -3.560367e+02
   4.353924e+02  -4.263354e+02
   8.695655e+02   6.508215e+01
   4.552310e+02   5.442279e+02
  -4.318025e+02   4.628183e+02
  -8.126194e+02  -8.394562e+01
  -3.472688e+02  -5.056038e+02
   2.315542e+02  -4.934768e+02
   6.233024e+02  -1.971955e+02
   4.710878e+02   2.072049e+02
   1.402503e+02   4.973479e+02
  -1.384805e+02   3.361923e+02
  -1.836379e+02  -1.981791e+02
   6.129377e+01  -4.913150e+02
   4.737182e+02  -3.403985e+01
   2.595900e+02   6.428918e+02
  -1.184294e+02   6.605755e+02
  -6.636395e+02   9.204068e+01
  -2.984175e+02  -5.707823e+02
   2.968254e+02  -3.336126e+02
   3.487998e+02   2.919011e+02
  -4.464101e+00   6.041645e+02
  -5.576624e+02   1.168068e+02
  -5.760706e+02  -4.872457e+02
  -1.565229e+02  -6.073720e+02
   3.841290e+02  -3.497250e+02
   5.957448e+02   5.131149e+01
   4.446932e+02   3.190213e+02
  -1.058035e+02   3.574434e+02
  -5.358966e+02   9.674378e+01
  -3.141232e+02  -1.791859e+02
   1.530703e+02  -1.257787e+02
   1.463916e+02   1.538297e+02
  -1.279350e+02   2.000928e+02
  -3.676356e+02  -3.436055e+01
  -1.718297e+02  -2.841146e+02
   2.204691e+02  -2.928025e+02
   3.575549e+02  -1.734082e+02
   2.139382e+02   7.354529e+01
  -2.770193e+01   2.853480e+02
  -2.612321e+02   3.546640e+02
  -3.731841e+02   2.067647e+02
  -2.701127e+02  -1.243192e+02
  -9.714071e+01  -4.477713e+02
   7.385175e+01  -3.966272e+02
   1.061480e+02  -1.274859e+02
   3.750585e+01   2.417652e+00
   5.643350e+01  -5.908749e+01
   1.951080e+02  -1.604785e+02
   2.664171e+02   5.419825e+01
   1.997464e+02   2.892367e+02
  -4.506653e+01   2.659953e+02
  -2.404434e+02   2.183700e+01
  -2.125080e+02  -1.747205e+02
  -1.826554e+01  -2.863926e+02
   2.648954e+02  -1.193965e+02
   3.677684e+02   1.298007e+02
   2.063384e+02   3.495614e+02
  -6.949163e+01   2.900863e+02
  -2.468073e+02   1.378325e+02
  -1.443991e+02   1.907529e+01
  -9.738008e+01   2.538109e+01
  -2.490557e+02   7.474696e+01
  -3.674934e+02  -3.193709e+01
  -3.288553e+02  -2.295338e+02
  -7.122666e+01  -4.316685e+02
   3.529678e+02  -4.331100e+02
   4.850709e+02  -2.131747e+02
   3.162760e+02   8.653508e+01
   1.298465e+02   2.863764e+02
  -9.527449e+01   2.802875e+02
  -7.462298e+01   2.100053e+01
   8.591083e+01  -1.219445e+02
   1.808531e+02   8.838255e+00
   6.747863e+01   1.934335e+02
  -1.285139e+02   2.034569e+02
  -1.731926e+02  -6.180741e+01
   4.061188e+00  -1.977184e+02
   1.933077e+02  -3.556852e+01
   1.993047e+02   2.349665e+02
  -2.451410e+01   3.091238e+02
  -2.081996e+02   2.346808e+02
  -3.362113e+02  -7.116085e+01
  -2.633058e+02  -2.408211e+02
  -8.028913e+01  -2.475172e+02
   9.567015e+01  -1.832092e+02
   1.679600e+02  -3.080859e+01
   7.126691e+01   2.830212e+01
  -6.551046e+01  -2.636963e+01
  -2.249545e+01  -1.339501e+02
   1.138114e+02  -9.916955e+01
   1.647444e+02   1.425407e+01
   6.290338e+01   6.984903e+01
  -7.117740e+01   2.189369e+01
  -4.718657e+01  -6.857533e+01
   1.282900e+02  -9.331548e+01
   3.038377e+02  -7.539411e+00
   2.518760e+02   1.790516e+02
   7.833440e+01   2.760461e+02
  -1.706065e+02   2.840944e+02
  -2.501291e+02   1.483483e+02
  -1.678523e+02  -5.199944e+01
   1.040213e+01  -1.150065e+02
   8.632097e+01  -1.820891e+01
  -2.867705e+01   1.189095e+02
  -1.941334e+02   8.588750e+01
  -2.162678e+02  -8.525834e+01
  -9.249479e+01  -1.911019e+02
   9.609939e+01  -1.692266e+02
   1.489588e+02  -3.943639e+01
   7.313545e+01   5.193599e+01
  -2.920846e+01   6.980320e+00
  -3.174089e+01  -8.140142e+01
   6.467051e+01  -1.220308e+02
   2.078723e+02  -3.314225e+01
   2.256150e+02   1.017269e+02
   3.828025e+01   2.125301e+02
  -1.489358e+02   1.942110e+02
  -2.076337e+02   1.642980e+01
  -7.139436e+01  -1.130452e+02
   5.683869e+01  -1.228633e+02
   7.996882e+01  -4.006271e+01
   2.484980e+01   1.775645e+01
  -1.796130e+01   1.329470e+01
   8.927021e+00  -7.719000e+00
   7.480566e+01   1.180759e+01
   9.668192e+01   7.994045e+01
   5.709742e+00   1.553360e+02
  -1.382702e+02   1.676901e+02
  -2.377262e+02   7.769426e+01
  -2.140600e+02  -1.300946e+02
  -5.512534e+01  -2.313013e+02
   1.031225e+02  -1.555439e+02
   1.296594e+02  -2.060032e+01
   7.482018e+01   4.581866e+01
   3.167227e+01   3.917573e+01
   4.979194e+01  -1.609215e+01
   9.139792e+01  -1.223166e+00
   4.816274e+01   4.828716e+01
  -4.154444e+01   8.977429e+01
  -1.078497e+02   4.896939e+01
  -8.829650e+01  -3.283203e+01
   2.843070e+00  -1.083318e+02
   1.736145e+02  -1.064616e+02
   2.154159e+02   4.830191e+01
   1.260584e+02   1.908193e+02
  -8.541270e+01   2.253956e+02
  -3.027548e+02   9.183100e+01
  -2.651561e+02  -7.789285e+01
  -1.039246e+02  -1.530648e+02
   3.182695e+01  -1.604976e+02
   1.003915e+02  -8.754003e+01
   7.379386e+01  -7.074739e+01
   5.851809e+01  -8.918132e+01
   9.831515e+01  -8.469329e+01
   1.375740e+02   7.353595e+00
   1.312700e+02   1.366036e+02
   5.230450e+01   2.207267e+02
  -9.973802e+01   1.662544e+02
  -1.680716e+02   2.100768e+01
  -1.628217e+02  -1.009703e+02
  -2.053406e+01  -1.621883e+02
   7.702858e+01  -9.132189e+01
   5.140093e+01  -4.461805e-01
   3.324560e+00   3.452530e+01
  -9.342291e+00   3.450862e+01
   3.925830e+01   1.427957e+01
   8.137455e+01   2.454344e+01
   5.221411e+01   4.261318e+01
  -5.953691e+01   4.248342e+01
  -1.451206e+02   3.116983e+00
  -1.452073e+02  -5.285686e+01
  -2.044059e+01  -8.617879e+01
   1.185522e+02  -8.361799e+01
   1.507456e+02  -2.590562e+01
   4.437388e+01   3.764750e+01
  -5.491511e+01   3.902084e+01
  -7.897268e+01  -2.816722e+01
  -4.208752e+00  -7.486045e+01
   4.789746e+01  -7.105175e+01
   6.088061e+01   1.535437e+00
   4.561028e+01   5.792231e+01
   4.808157e+01   4.382813e+01
   6.531455e+01  -6.304047e+00
   6.734783e+01  -2.717961e+00
   3.202571e+01   6.726437e+01
  -2.811327e+01   1.359607e+02
  -1.190013e+02   1.399115e+02
  -1.860537e+02   2.787153e+01
  -1.295420e+02  -1.019876e+02
  -1.756524e+01  -1.269303e+02
   8.076044e+01  -6.966459e+01
   5.786668e+01   2.653861e+00
  -5.321574e+01   2.644068e+01
  -1.592504e+02  -5.601674e+01
  -8.305266e+01  -9.528102e+01
   7.018042e+01  -1.271481e+02
   2.239423e+02  -5.421264e+01
   1.631222e+02   1.379827e+01
   4.172961e+01   9.296837e+01
  -5.621784e+01   7.856714e+01
  -5.008223e+01   3.455077e+00
   4.170260e+01  -2.638421e+01
   9.034820e+01   1.458243e+01
   4.266487e+01   1.167127e+02
  -9.707641e+01   1.722665e+02
  -1.589536e+02   6.184301e+01
  -1.273065e+02  -8.052264e+01
  -7.000318e+00  -2.120320e+02
   8.477232e+01  -1.512189e+02
   1.020430e+02  -8.399168e+00
   6.315088e+01   1.036187e+02
  -4.937959e+00   1.172576e+02
  -4.810220e+01   2.354894e+01
  -5.480469e+01  -3.650818e+01
  -3.020107e+01  -1.155759e+01
  -1.590565e+00   2.283673e+01
  -1.923495e+01  -1.618469e+01
  -6.461406e+01  -8.591984e+01
  -4.662311e+01  -9.116336e+01
   5.127868e+01  -4.337814e+01
   1.450232e+02   2.260070e+01
   1.469823e+02   4.401740e+01
   2.563357e+01   4.625308e+01
  -8.445727e+01   3.309968e+01
  -9.430768e+01   5.902892e+00
  -1.336724e+01  -7.372127e+00
   3.837457e+01  -2.421614e+01
   1.645164e+01  -1.911188e+01
  -2.336786e+01   2.000595e+00
   6.121851e+00   8.948427e+00
   6.749119e+01   1.408273e+00
   9.146842e+01   1.853377e+01
   1.012267e+01   8.713252e+01
  -1.315170e+02   1.179034e+02
  -1.748115e+02   7.228019e+01
  -1.672601e+02  -6.862955e+01
  -2.233354e+01  -1.577585e+02
   7.748644e+01  -1.564888e+02
   1.119321e+02  -5.592925e+01
   8.484856e+01   1.468997e+01
   2.238203e+01   3.866325e+01
  -1.567195e+00   1.189332e+01
   1.097758e+01   4.042898e+00
   4.063204e+01   4.215081e+01
   1.939962e+01   8.899001e+01
  -2.866610e+01   7.303458e+01
  -8.052672e+01  -1.465964e+01
  -9.161438e+01  -1.158504e+02
  -7.205578e+00  -1.073331e+02
   7.512144e+01  -2.582268e+01
   1.039669e+02   8.109462e+01
   4.111895e+01   9.369426e+01
  -7.764263e+01   6.716747e+01
  -9.902521e+01  -1.266681e+01
  -4.067016e+01  -4.386447e+01
   3.290380e+01  -5.067449e+01
   3.018174e+01  -2.954831e+01
  -3.555063e+01   6.662180e+00
  -6.274928e+01   1.442721e+01
  -1.643430e+01  -3.051990e+01
   8.389043e+01  -6.757304e+01
   1.042482e+02  -5.915295e+01
   6.324784e+01   1.631477e+01
  -1.107279e+01   9.207519e+01
  -5.917462e+01   8.083166e+01
  -4.048832e+01   5.305522e+00
   1.551983e+00  -5.725046e+01
   3.071696e+01  -4.321951e+01
   3.813531e+01   1.657205e+01
   2.697257e+01   5.534534e+01
  -4.388030e+00   3.557478e+01
  -3.335153e+01  -6.877910e+00
  -4.194663e+01  -1.973641e+01
  -2.102992e+01  -1.717606e+00
   1.540797e+00   1.424913e+01
   1.731454e+00  -4.676905e-01
   4.421654e+00  -3.842771e+01
   2.549003e+01  -4.827108e+01
   3.673357e+01  -9.701048e+00
   4.242792e+01   4.368413e+01
  -8.449125e+00   6.300341e+01
  -4.580932e+01   2.257705e+01
  -5.853648e+01  -3.797493e+01
  -1.270036e+01  -5.881759e+01
   5.282766e+01  -3.812345e+01
   9.874599e+01   1.023259e+01
   5.302741e+01   3.929918e+01
  -2.649502e+01   3.911739e+01
  -5.838100e+01   1.789967e+01
  -2.647685e+01   5.082886e+00
   4.231623e+01  -2.795383e+00
   4.471429e+01   1.151664e+01
  -2.628684e+01   3.256096e+01
  -9.749117e+01   2.154177e+01
