
 $NMID
 id='ANONYMOUS ', fmtdat='(2E16.6)'
 volume=1.0
 tramp=1.0
 $END
   4.206416e+03  -2.081912e+02
   2.620456e+03   2.395987e+03
  -6.171210e+02   2.722644e+03
  -1.863127e+03   1.387204e+03
  -1.151875e+03  -6.579005e+02
   4.635335e+02  -5.223079e+02
   9.626863e+02   2.090195e+02
   5.186396e+01   9.807892e+02
  -7.815560e+02   7.214280e+02
  -1.024389e+03   1.164513e+02
  -5.342831e+02  -8.284692e+02
   1.127529e+02  -9.852308e+02
   6.028288e+02  -3.547828e+02
   5.240282e+02   7.199981e+02
  -2.074398e+02   6.837527e+02
  -5.779250e+02   7.115337e+01
  -3.109041e+02  -6.984860e+02
   3.524283e+02  -5.587670e+02
   6.408311e+02  -1.203656e+02
   4.501553e+02   3.095441e+02
   5.315498e+01   4.721418e+02
  -2.345613e+02   2.986219e+02
  -1.904443e+02   4.305013e+01
   4.668217e+01  -6.651498e+01
   3.879617e+02   9.158556e+01
   1.776990e+02   3.908976e+02
  -3.329561e+02   3.670635e+02
  -8.397256e+02  -1.697952e+01
  -3.382045e+02  -4.559886e+02
   3.701562e+02  -5.107947e+02
   6.957880e+02   1.171401e+02
   3.066970e+02   4.206413e+02
  -2.354953e+02   5.548747e+02
  -5.528210e+02   2.013296e+02
  -3.875242e+02  -2.195567e+02
  -1.347742e+02  -4.548256e+02
   1.658347e+02  -2.662690e+02
   1.710028e+02   1.510970e+02
  -7.334542e+01   5.617014e+02
  -5.171083e+02   2.891415e+01
  -3.404996e+02  -6.108439e+02
   1.405411e+02  -7.007453e+02
   6.084957e+02   3.327031e+00
   2.675841e+02   5.378858e+02
  -2.957664e+02   2.787285e+02
  -3.793577e+02  -2.414319e+02
   3.903105e+01  -5.516014e+02
   5.127446e+02  -1.565045e+02
   6.029325e+02   4.128896e+02
   1.384318e+02   6.108138e+02
  -3.620320e+02   3.923223e+02
  -5.579511e+02   4.797281e+01
  -4.411473e+02  -3.570787e+02
   1.166810e+02  -3.838103e+02
   4.706434e+02  -4.218307e+01
   2.702577e+02   1.717794e+02
  -1.100895e+02   9.978448e+01
  -1.612506e+02  -1.306219e+02
   1.525878e+02  -2.123025e+02
   3.683055e+02   5.483335e+01
   1.877921e+02   3.045360e+02
  -1.840743e+02   2.774588e+02
  -3.330625e+02   1.040545e+02
  -1.931162e+02  -4.367700e+01
   3.606570e+01  -2.406145e+02
   2.320631e+02  -3.397449e+02
   3.588735e+02  -2.175634e+02
   2.817375e+02   1.153020e+02
   4.578585e+01   3.853892e+02
  -9.117436e+01   4.014856e+02
  -9.358978e+01   1.093239e+02
  -2.563790e+01   1.212623e+01
  -7.008698e+01   4.653700e+01
  -2.036661e+02   1.713559e+02
  -2.475150e+02  -6.749725e+01
  -1.560145e+02  -3.204533e+02
   2.935408e+01  -2.216881e+02
   2.213692e+02  -2.650915e+01
   2.293841e+02   1.974122e+02
   1.744644e+01   3.417061e+02
  -2.541983e+02   1.156497e+02
  -3.581896e+02  -9.238021e+01
  -2.259500e+02  -2.908263e+02
   7.700771e+01  -3.200308e+02
   2.014102e+02  -1.626705e+02
   1.291678e+02  -1.742642e+01
   9.906834e+01  -4.274855e+01
   2.328337e+02  -7.780468e+01
   3.669836e+02   5.217106e+01
   3.770159e+02   2.221665e+02
   3.660431e+01   4.142741e+02
  -2.766439e+02   4.394240e+02
  -4.845235e+02   2.678416e+02
  -3.237520e+02  -7.322402e+01
  -9.317364e+01  -2.943954e+02
   1.232170e+02  -2.510972e+02
   6.554973e+01  -3.395108e+01
  -1.047766e+02   1.214167e+02
  -1.915210e+02   2.276877e+01
  -6.080421e+01  -2.008390e+02
   1.520776e+02  -2.208228e+02
   1.618921e+02   4.412349e+01
   1.733076e+01   1.879664e+02
  -1.922924e+02   5.220346e+01
  -2.100653e+02  -2.479843e+02
  -2.270013e+01  -3.241656e+02
   2.074252e+02  -2.321520e+02
   3.537654e+02   9.779916e+01
   3.019214e+02   2.159354e+02
   1.060136e+02   2.391334e+02
  -1.112860e+02   1.776230e+02
  -1.854210e+02   2.821687e+01
  -6.762574e+01  -2.785775e+01
   6.835154e+01   3.059997e+01
   8.177247e+00   1.051635e+02
  -1.142748e+02   1.117134e+02
  -1.753154e+02  -1.300058e+00
  -6.052626e+01  -6.228349e+01
   6.699597e+01  -1.802491e+01
   5.268582e+01   7.945355e+01
  -1.236537e+02   8.637976e+01
  -3.063984e+02   8.315483e+00
  -2.529322e+02  -1.599380e+02
  -9.613348e+01  -2.447790e+02
   1.734548e+02  -2.695792e+02
   2.743359e+02  -1.549887e+02
   1.742865e+02   3.146929e+01
  -1.157270e+01   9.667912e+01
  -7.056803e+01   1.438021e+01
   1.956283e+01  -1.123956e+02
   1.837191e+02  -9.014028e+01
   2.305252e+02   8.601224e+01
   8.998962e+01   1.992365e+02
  -1.063700e+02   1.844630e+02
  -1.520976e+02   5.123969e+01
  -6.085287e+01  -3.710924e+01
   2.909267e+01  -8.133118e+00
   2.809128e+01   8.235707e+01
  -6.115390e+01   1.030966e+02
  -1.897686e+02   1.080682e+01
  -2.133049e+02  -1.087850e+02
  -4.704993e+01  -2.094686e+02
   1.286748e+02  -1.664347e+02
   1.825901e+02  -1.280663e+01
   7.501451e+01   1.056729e+02
  -4.873525e+01   1.254652e+02
  -8.575470e+01   4.853364e+01
  -2.201064e+01  -2.142710e+01
   1.995850e+01  -1.752227e+01
  -1.154263e+01   7.350053e+00
  -7.678187e+01  -7.935198e+00
  -1.052318e+02  -7.934595e+01
  -2.229212e+01  -1.425091e+02
   1.166958e+02  -1.540998e+02
   2.377039e+02  -5.535280e+01
   2.163295e+02   1.285463e+02
   4.355455e+01   2.387107e+02
  -7.966987e+01   1.548896e+02
  -1.235145e+02   2.464584e+01
  -7.376171e+01  -4.535658e+01
  -2.980447e+01  -3.739597e+01
  -5.000958e+01   1.649539e+01
  -8.106689e+01   1.130335e+01
  -4.523580e+01  -4.086503e+01
   4.538238e+01  -9.010222e+01
   1.096772e+02  -3.975076e+01
   7.793326e+01   3.894037e+01
   7.714590e+00   1.170148e+02
  -1.607295e+02   8.242858e+01
  -1.998397e+02  -5.882376e+01
  -1.194702e+02  -1.781368e+02
   9.482868e+01  -2.224059e+02
   2.569658e+02  -8.644530e+01
   2.355905e+02   8.884156e+01
   1.071426e+02   1.562737e+02
  -4.207137e+01   1.548512e+02
  -8.941800e+01   8.314378e+01
  -6.747977e+01   7.478858e+01
  -5.366872e+01   9.387710e+01
  -9.645996e+01   9.452779e+01
  -1.216335e+02  -1.724207e+01
  -1.340276e+02  -1.477334e+02
  -6.287819e+01  -2.106398e+02
   8.222758e+01  -1.668779e+02
   1.647318e+02  -1.926373e+01
   1.517842e+02   1.016928e+02
   5.150032e+00   1.644899e+02
  -6.958445e+01   1.066393e+02
  -5.059565e+01   4.885687e+00
  -4.959310e+00  -3.567603e+01
   1.024013e+01  -3.339076e+01
  -4.169327e+01  -1.473696e+01
  -7.831753e+01  -2.199922e+01
  -4.626181e+01  -4.287046e+01
   5.906974e+01  -4.357025e+01
   1.331401e+02  -9.228503e+00
   1.391362e+02   5.218726e+01
   1.122385e+01   8.778751e+01
  -1.298735e+02   8.409547e+01
  -1.443604e+02   1.562848e+01
  -4.176081e+01  -3.298524e+01
   6.200202e+01  -3.302879e+01
   7.623013e+01   2.366340e+01
   4.503050e-01   6.313512e+01
  -4.810299e+01   6.560762e+01
  -6.548600e+01   2.089099e+00
  -4.084563e+01  -5.389669e+01
  -4.819264e+01  -4.250541e+01
  -6.555676e+01   7.851032e+00
  -6.451175e+01   3.540396e+00
  -2.721917e+01  -5.909991e+01
   1.880257e+01  -1.343677e+02
   1.025892e+02  -1.340373e+02
   1.685165e+02  -2.876723e+01
   1.293092e+02   8.336174e+01
   1.897144e+01   1.177097e+02
  -7.406495e+01   5.589623e+01
  -5.601404e+01  -4.804094e+00
   6.045551e+01  -2.774091e+01
   1.428876e+02   4.962736e+01
   8.112859e+01   9.010386e+01
  -7.182642e+01   1.201683e+02
  -1.905028e+02   3.787533e+01
  -1.741094e+02   4.984608e+00
  -3.422313e+01  -8.547206e+01
   6.317790e+01  -8.255054e+01
   5.041694e+01  -2.860895e+00
  -4.008523e+01   2.311238e+01
  -9.565695e+01  -5.749783e+00
  -4.830183e+01  -1.054470e+02
   9.361004e+01  -1.663270e+02
   1.467670e+02  -7.197846e+01
   1.480077e+02   7.051702e+01
  -7.743686e+00   2.040026e+02
  -8.493433e+01   1.486981e+02
  -9.564960e+01  -7.203722e+00
  -6.824243e+01  -1.074930e+02
   1.085750e+01  -1.056372e+02
   4.654741e+01  -2.069182e+01
   5.255145e+01   2.849505e+01
   2.649595e+01   9.315013e+00
   3.167397e+00  -2.158907e+01
   2.024939e+01   1.614244e+01
   5.930746e+01   9.288714e+01
   5.229387e+01   1.070592e+02
  -4.612647e+01   4.200120e+01
  -1.338910e+02  -3.102770e+01
  -1.329364e+02  -6.257903e+01
  -2.847694e+01  -4.726859e+01
   8.141999e+01  -2.884742e+01
   8.618711e+01  -7.854507e+00
   1.047496e+01   5.330642e+00
  -3.514230e+01   2.915951e+01
  -1.414373e+01   1.799707e+01
   2.319337e+01  -2.225352e+00
  -5.623413e+00  -8.474062e+00
  -6.892779e+01  -2.719178e+00
  -8.574254e+01  -9.454951e+00
  -1.182362e+01  -7.965833e+01
   1.089334e+02  -1.030624e+02
   2.075701e+02  -8.036896e+01
   1.541939e+02   6.945229e+01
   3.584558e+01   1.541633e+02
  -6.140210e+01   1.563042e+02
  -1.158287e+02   5.796272e+01
  -8.359309e+01  -1.896496e+01
  -2.434318e+01  -3.164665e+01
   1.570823e+00  -1.147251e+01
  -1.077559e+01  -3.659515e+00
  -3.830878e+01  -4.089526e+01
  -2.191562e+01  -8.763728e+01
   2.818710e+01  -6.318616e+01
   8.532592e+01   1.704249e+01
   6.809391e+01   9.844479e+01
   1.819518e+01   1.099485e+02
  -7.109785e+01   3.249645e+01
  -1.046802e+02  -7.541245e+01
  -3.600699e+01  -9.963876e+01
   6.336414e+01  -5.324612e+01
   9.125733e+01   8.580580e+00
   4.244190e+01   5.054226e+01
  -2.524731e+01   5.058706e+01
  -2.625664e+01   3.167224e+01
   3.170782e+01  -3.764262e+00
   5.634356e+01  -1.249855e+01
   1.470356e+01   2.613169e+01
  -7.525886e+01   6.293093e+01
  -1.059268e+02   5.190659e+01
  -6.110851e+01  -1.692203e+01
   1.181406e+01  -9.067420e+01
   6.785303e+01  -7.407287e+01
   3.979899e+01  -8.063098e+00
   5.734706e-01   5.767266e+01
  -2.903284e+01   4.526974e+01
  -3.791826e+01  -1.751954e+01
  -2.305591e+01  -5.385136e+01
   4.474075e+00  -3.364757e+01
   3.289682e+01   3.903319e+00
   3.907536e+01   2.382629e+01
   2.058032e+01   3.378410e+00
  -2.671652e-01  -1.340115e+01
  -3.753610e+00   1.756204e+00
  -4.395678e+00   3.831012e+01
  -2.110449e+01   4.934227e+01
  -3.335278e+01   1.026555e+01
  -4.131864e+01  -4.772515e+01
   3.620331e+00  -6.389368e+01
   4.534239e+01  -1.819110e+01
   5.783509e+01   3.470065e+01
   1.965647e+01   6.219382e+01
  -5.550853e+01   3.479575e+01
  -9.205793e+01  -1.318725e+01
  -5.319208e+01  -3.746245e+01
   2.046418e+01  -3.492765e+01
   5.493373e+01  -2.531834e+01
   2.573743e+01  -3.455736e+00
  -3.967481e+01   4.678907e+00
  -3.820525e+01  -9.370634e+00
   2.795743e+01  -3.142488e+01
   8.405769e+01  -2.196315e+01
