
 $NMID
 id='ANONYMOUS ', fmtdat='(2E16.6)'
 volume=1.0
 tramp=1.0
 $END
   3.347020e+03  -6.386268e+02
   2.376695e+03   1.960508e+03
  -6.156026e+02   2.156424e+03
  -1.861611e+03   1.321737e+03
  -1.087976e+03  -4.282131e+02
   3.092883e+02  -3.430484e+02
   6.344132e+02   2.363049e+02
   7.533002e+01   8.600345e+02
  -6.266609e+02   4.705909e+02
  -8.176729e+02   8.326411e+01
  -5.289156e+02  -5.890655e+02
   2.232030e+02  -8.273466e+02
   4.813030e+02  -1.607959e+02
   3.982893e+02   6.078573e+02
  -1.931414e+02   6.620848e+02
  -4.611238e+02   6.148226e+01
  -3.293042e+02  -6.909388e+02
   1.730231e+02  -5.130884e+02
   5.198193e+02  -1.150161e+02
   3.656724e+02   2.610177e+02
   3.873481e+01   3.374762e+02
  -1.768238e+02   2.516975e+02
  -1.860116e+02   3.561311e+01
   1.083668e+02  -1.541298e+01
   2.961375e+02   1.797606e+02
   1.486078e+02   3.217104e+02
  -3.966693e+02   2.749571e+02
  -6.617537e+02  -1.645897e+02
  -2.803546e+02  -4.093429e+02
   3.842852e+02  -4.473141e+02
   5.068455e+02  -1.710959e+01
   3.395673e+02   4.511263e+02
  -2.037828e+02   4.341146e+02
  -4.911880e+02   1.788374e+02
  -3.361916e+02  -1.962941e+02
  -3.468224e+01  -4.466798e+02
   1.434492e+02  -2.524379e+02
   1.726584e+02   1.759469e+02
  -1.507119e+02   3.328961e+02
  -3.482783e+02  -9.248607e+01
  -1.177851e+02  -6.566845e+02
   2.276611e+02  -6.793813e+02
   4.723248e+02  -2.947944e+01
   2.438102e+02   4.294364e+02
  -1.575688e+02   1.879801e+02
  -2.372074e+02  -2.240523e+02
   1.010286e+01  -5.463074e+02
   5.612748e+02  -7.989190e+00
   5.177351e+02   3.891129e+02
   1.152548e+02   5.545352e+02
  -3.184368e+02   3.058237e+02
  -6.123699e+02   7.240895e+00
  -4.388041e+02  -3.048146e+02
   1.446776e+02  -3.348176e+02
   3.616366e+02  -1.142065e+01
   2.312679e+02   1.021486e+02
  -6.553490e+01   5.923705e+01
  -1.048673e+02  -1.022955e+02
   1.062696e+02  -1.418431e+02
   2.878623e+02   8.171728e+01
   1.435320e+02   3.021103e+02
  -1.890220e+02   2.250025e+02
  -3.408964e+02   9.938380e+01
  -2.593410e+02  -5.856526e+01
   4.803903e+01  -2.405551e+02
   2.299895e+02  -3.242041e+02
   2.886720e+02  -1.655666e+02
   2.965935e+02   1.719646e+02
   4.964847e+01   4.145380e+02
  -8.899007e+01   2.743669e+02
  -6.559909e+01   1.349805e+02
  -5.065197e+01   5.119602e+01
  -6.531529e+01   8.056986e+01
  -2.380739e+02   1.065807e+02
  -2.049597e+02  -8.624610e+01
  -1.038282e+02  -2.323589e+02
   6.830075e+01  -2.012278e+02
   2.193490e+02  -1.825798e+01
   2.236027e+02   2.458282e+02
  -1.209312e+01   2.675353e+02
  -2.049471e+02   8.561993e+01
  -3.056270e+02  -1.432973e+02
  -2.120202e+02  -3.056288e+02
   6.230477e+01  -2.752615e+02
   1.953998e+02  -1.403465e+02
   1.216381e+02  -4.328189e+01
   1.313432e+02  -5.645678e+01
   2.710767e+02  -6.708567e+01
   4.023485e+02   8.243823e+01
   3.242363e+02   2.677568e+02
  -1.587682e+01   3.825206e+02
  -3.575226e+02   4.149305e+02
  -4.888010e+02   1.808302e+02
  -3.178748e+02  -1.104736e+02
  -5.613484e+01  -2.964135e+02
   1.123787e+02  -2.199916e+02
   3.826162e+01  -3.038990e+01
  -1.340398e+02   8.354593e+01
  -1.774377e+02  -1.041984e+01
  -4.289484e+01  -1.790043e+02
   1.482324e+02  -1.497504e+02
   1.212347e+02   7.306845e+01
   1.008675e+00   1.928483e+02
  -1.734547e+02   2.596862e+01
  -2.153279e+02  -2.690896e+02
  -3.921900e+00  -3.536611e+02
   2.022679e+02  -1.965875e+02
   3.068404e+02   5.100128e+01
   3.190664e+02   2.176393e+02
   9.258668e+01   2.929597e+02
  -1.092239e+02   1.508186e+02
  -1.398411e+02  -1.472016e+00
  -4.240571e+01  -3.429310e+01
   7.115466e+01   4.498322e+01
   2.338977e+01   1.061502e+02
  -1.250216e+02   8.386267e+01
  -1.635473e+02  -2.090196e+01
  -4.940068e+01  -5.571549e+01
   7.559243e+01  -1.051827e+00
   4.580585e+01   6.803231e+01
  -1.169819e+02   6.670511e+01
  -2.555216e+02  -8.413454e+00
  -2.172924e+02  -1.542688e+02
  -5.449799e+01  -2.442087e+02
   1.442054e+02  -2.289139e+02
   2.789691e+02  -6.634790e+01
   1.272498e+02   2.700895e+01
  -2.126546e+01   8.931926e+01
  -6.618157e+01   9.787202e+00
   3.667578e+01  -9.520180e+01
   1.731546e+02  -7.000516e+01
   2.281779e+02   1.050063e+02
   7.009064e+01   1.966817e+02
  -7.433567e+01   1.380685e+02
  -1.299929e+02   2.836061e+01
  -6.280709e+01  -4.149418e+01
   3.927756e+01   3.991375e+00
   2.887048e+01   7.803691e+01
  -8.956901e+01   1.303290e+02
  -1.657536e+02   3.601029e+01
  -1.669502e+02  -1.337346e+02
  -1.191907e+01  -2.178679e+02
   1.354615e+02  -1.905626e+02
   1.799880e+02  -3.593880e+00
   6.850595e+01   1.123172e+02
  -5.431409e+01   1.120543e+02
  -8.504982e+01   2.871672e+01
  -1.113761e+01  -3.263097e+01
   2.335771e+01  -1.369197e+01
  -9.946692e+00   1.672738e+01
  -7.450397e+01  -6.265580e+00
  -1.100093e+02  -8.752444e+01
  -2.051789e+01  -1.720412e+02
   1.322011e+02  -1.398820e+02
   2.540991e+02  -1.877985e+01
   1.691022e+02   1.521021e+02
   1.287851e+01   1.969408e+02
  -1.033233e+02   1.503621e+02
  -1.376249e+02   2.970393e+01
  -7.841993e+01  -5.479956e+01
  -2.640328e+01  -2.657522e+01
  -5.479659e+01   1.392476e+01
  -8.455505e+01   1.523463e+01
  -4.878937e+01  -5.868716e+01
   4.070172e+01  -9.093630e+01
   9.956629e+01  -4.355696e+01
   8.618408e+01   4.932256e+01
  -1.267487e+01   1.283710e+02
  -1.330927e+02   1.040060e+02
  -2.052931e+02  -5.113401e+01
  -8.317903e+01  -1.976720e+02
   1.160066e+02  -2.068776e+02
   2.163474e+02  -6.850498e+01
   2.447788e+02   9.140889e+01
   6.882159e+01   1.655830e+02
  -3.672392e+01   1.217918e+02
  -7.548276e+01   6.817095e+01
  -6.913961e+01   7.457420e+01
  -5.048210e+01   8.102575e+01
  -9.518873e+01   8.167774e+01
  -1.193989e+02  -1.367452e+01
  -1.112796e+02  -1.313417e+02
  -6.334525e+01  -2.152853e+02
   6.870026e+01  -1.442638e+02
   1.493728e+02  -1.445489e+01
   1.340955e+02   1.294069e+02
   5.489582e-01   1.476693e+02
  -6.871179e+01   8.651592e+01
  -4.694803e+01   8.187152e-01
  -3.678915e+00  -5.009353e+01
   2.066228e+01  -2.932884e+01
  -3.041398e+01  -1.565958e+01
  -8.069833e+01  -2.169261e+01
  -4.875185e+01  -3.803287e+01
   6.697901e+01  -3.752018e+01
   1.557725e+02  -7.068701e+00
   1.198601e+02   4.250821e+01
   7.761985e+00   8.309406e+01
  -1.310757e+02   7.927336e+01
  -1.590663e+02   1.255968e+01
  -4.034380e+01  -3.712723e+01
   5.205412e+01  -3.248533e+01
   8.051507e+01   1.880812e+01
   8.861281e+00   6.775544e+01
  -4.861489e+01   6.231842e+01
  -5.408315e+01  -2.630300e+00
  -4.767298e+01  -5.046212e+01
  -5.456248e+01  -3.380977e+01
  -6.429141e+01  -1.592564e+00
  -5.648350e+01   7.345574e+00
  -2.574944e+01  -5.757628e+01
   2.364031e+01  -1.374951e+02
   1.128755e+02  -1.263246e+02
   1.386091e+02  -4.526626e+01
   1.105257e+02   9.016518e+01
   1.944096e+00   1.235882e+02
  -8.745495e+01   5.928907e+01
  -6.203025e+01  -1.214916e+01
   5.190453e+01  -2.081050e+01
   1.248623e+02   5.259074e+01
   9.310080e+01   1.002931e+02
  -7.569726e+01   1.123700e+02
  -1.819277e+02   4.438920e+01
  -1.793443e+02  -2.377977e+01
  -3.375861e+01  -7.804597e+01
   5.435379e+01  -7.420184e+01
   4.032265e+01   2.187423e+00
  -3.018557e+01   2.126873e+01
  -8.575877e+01  -9.215210e+00
  -3.373754e+01  -1.058147e+02
   7.272386e+01  -1.514607e+02
   1.597799e+02  -8.002619e+01
   1.283325e+02   8.057235e+01
   1.342956e+01   1.831723e+02
  -7.909273e+01   1.124210e+02
  -9.855444e+01  -1.227393e+01
  -6.897336e+01  -9.837474e+01
   1.869530e+01  -9.903952e+01
   5.294957e+01  -2.031455e+01
   4.945221e+01   2.655496e+01
   2.042797e+01   1.061387e+01
   6.004180e+00  -1.914243e+01
   2.241273e+01   1.493685e+01
   5.229498e+01   8.273898e+01
   3.718078e+01   9.502166e+01
  -5.043787e+01   4.024428e+01
  -1.355359e+02  -2.678732e+01
  -1.163121e+02  -5.836694e+01
  -2.906346e+01  -5.150012e+01
   7.560993e+01  -2.983773e+01
   8.913549e+01  -4.411217e+00
   1.258670e+01   1.117292e+01
  -3.605951e+01   2.031988e+01
  -1.330560e+01   1.462481e+01
   2.048355e+01  -5.637091e+00
  -5.175386e+00  -3.857132e+00
  -5.879547e+01  -1.319075e+00
  -1.025801e+02  -1.586344e+01
  -3.432762e+00  -7.440164e+01
   1.019771e+02  -1.063740e+02
   1.741961e+02  -7.886972e+01
   1.243174e+02   6.997682e+01
   1.987231e+01   1.479252e+02
  -7.909007e+01   1.529238e+02
  -1.134240e+02   5.781001e+01
  -9.104277e+01  -1.920587e+01
  -1.484232e+01  -2.724539e+01
   2.352902e+00  -1.322624e+01
  -1.261596e+01  -3.174297e+00
  -3.699488e+01  -4.840189e+01
  -5.564700e+00  -7.832900e+01
   2.848846e+01  -6.263176e+01
   8.163732e+01   2.172784e+01
   7.336461e+01   8.838298e+01
   1.816096e+01   1.099472e+02
  -7.786413e+01   3.649584e+01
  -9.494929e+01  -7.090759e+01
  -5.009705e+01  -1.032949e+02
   5.979155e+01  -6.473819e+01
   9.721493e+01   1.343632e+01
   3.454791e+01   4.869600e+01
  -3.164492e+01   4.769111e+01
  -3.303681e+01   3.229930e+01
   3.098412e+01  -5.328541e+00
   7.406747e+01  -5.400195e+00
   2.012313e+01   2.298335e+01
  -7.344887e+01   6.652344e+01
  -1.080054e+02   5.830437e+01
  -6.420310e+01  -1.772178e+01
   5.433990e+00  -8.384144e+01
   5.142763e+01  -7.397155e+01
   4.193402e+01  -1.196159e+01
  -1.279684e+00   5.626479e+01
  -2.130574e+01   3.987258e+01
  -3.257574e+01  -1.480236e+01
  -2.838372e+01  -5.123610e+01
   7.535411e-01  -3.297429e+01
   3.442394e+01   5.996781e+00
   3.533332e+01   2.296489e+01
   1.843942e+01   2.559338e+00
  -1.715316e+00  -1.542006e+01
  -4.003083e+00   4.016088e-02
  -5.177419e+00   3.230577e+01
  -8.183994e+00   4.570517e+01
  -2.681583e+01   1.116946e+01
  -3.778974e+01  -4.331853e+01
  -7.819051e+00  -6.033492e+01
   4.155565e+01  -1.848704e+01
   5.673922e+01   3.922408e+01
   2.216120e+01   6.327079e+01
  -5.135173e+01   4.220507e+01
  -8.128948e+01  -5.807432e+00
  -5.299087e+01  -3.342411e+01
   2.227492e+01  -3.948502e+01
   6.628453e+01  -2.677965e+01
   2.499204e+01  -5.807076e+00
  -3.501558e+01   3.332534e+00
  -3.703089e+01  -1.464299e+01
   2.802715e+01  -3.043503e+01
   8.271877e+01  -2.013273e+01
