
 $NMID
 id='ANONYMOUS ', fmtdat='(2E16.6)'
 volume=1.0
 tramp=1.0
 $END
   4.453987e+03  -3.550449e+02
   2.458195e+03   2.808209e+03
  -8.953736e+02   3.035158e+03
  -2.379714e+03   1.005455e+03
  -9.748735e+02  -7.635564e+02
   8.054454e+02  -5.846576e+02
   1.144205e+03   4.910124e+02
  -1.740441e+01   1.073737e+03
  -9.821832e+02   8.341650e+02
  -9.869335e+02  -1.720357e+02
  -4.931399e+02  -9.850709e+02
   3.010633e+02  -8.586297e+02
   7.550248e+02  -8.317571e+01
   3.277647e+02   7.665518e+02
  -4.037540e+02   7.478673e+02
  -7.635296e+02   2.184149e+01
  -2.142389e+02  -6.300892e+02
   5.177552e+02  -7.071493e+02
   6.745001e+02  -3.842360e+01
   4.409048e+02   4.830879e+02
  -1.384904e+01   4.326681e+02
  -3.109065e+02   2.609568e+02
  -2.413012e+02   1.656922e+01
   1.043218e+02  -5.640741e+01
   4.067654e+02   1.206194e+02
   2.697698e+02   4.188059e+02
  -4.938902e+02   4.757846e+02
  -9.557770e+02  -1.019648e+02
  -4.754627e+02  -7.383341e+02
   4.305484e+02  -5.631661e+02
   8.131176e+02   5.143080e+01
   4.124734e+02   5.276847e+02
  -2.542446e+02   5.122154e+02
  -7.013542e+02   2.184483e+02
  -4.419976e+02  -2.934926e+02
  -3.049549e+01  -4.872082e+02
   2.908165e+02  -2.829310e+02
   1.738518e+02   2.607122e+02
  -1.613877e+02   4.168652e+02
  -4.605484e+02   3.801449e+01
  -3.783088e+02  -6.936387e+02
   3.933652e+02  -7.452265e+02
   6.588414e+02   5.226718e+01
   2.572289e+02   7.017389e+02
  -3.945942e+02   3.759609e+02
  -4.948351e+02  -4.122951e+02
   1.059465e+02  -6.046652e+02
   5.997016e+02  -1.131090e+02
   6.114122e+02   4.703301e+02
   2.045023e+02   7.265873e+02
  -4.300327e+02   3.212171e+02
  -7.462442e+02  -1.245805e+02
  -3.850067e+02  -4.242193e+02
   1.609574e+02  -3.213768e+02
   4.707065e+02   5.872012e+00
   3.071900e+02   2.801204e+02
  -1.853086e+02   1.443931e+02
  -1.646178e+02  -1.823985e+02
   1.484880e+02  -2.074138e+02
   3.717382e+02   8.401141e+01
   1.607606e+02   3.088668e+02
  -2.586350e+02   2.718517e+02
  -3.749783e+02   1.391582e+01
  -1.690994e+02  -1.069357e+02
   1.781149e+01  -1.886955e+02
   2.456057e+02  -2.932938e+02
   2.922689e+02  -2.210564e+02
   3.217780e+02   1.295788e+02
   6.667274e+01   5.297813e+02
  -1.339168e+02   4.353399e+02
  -1.759233e+02   1.215056e+02
  -3.893635e+01  -2.056094e+01
  -5.174800e+01   6.745560e+01
  -1.855194e+02   1.245694e+02
  -2.735467e+02  -2.353234e+01
  -1.969017e+02  -2.960875e+02
   6.730249e+01  -2.990918e+02
   2.544115e+02   1.912653e+00
   2.084489e+02   2.580291e+02
  -5.933522e+00   2.541814e+02
  -2.912766e+02   1.435536e+02
  -3.851858e+02  -1.747271e+02
  -2.268672e+02  -4.403489e+02
   1.212575e+02  -3.482932e+02
   2.313307e+02  -9.516106e+01
   1.696040e+02   2.329320e+01
   1.099883e+02  -2.295023e+01
   2.534579e+02  -2.933961e+01
   3.859522e+02   6.473650e+01
   2.920453e+02   2.628286e+02
  -1.340661e-01   4.812991e+02
  -3.990407e+02   4.012211e+02
  -5.078811e+02   1.647225e+02
  -3.452488e+02  -9.399987e+01
  -5.822726e+01  -3.081745e+02
   1.797585e+02  -2.799343e+02
   1.052548e+02  -3.764101e+01
  -9.855304e+01   8.781279e+01
  -1.938672e+02  -1.547002e+01
  -4.143424e+01  -1.827445e+02
   1.836767e+02  -1.505512e+02
   2.478902e+02   9.243359e+01
  -4.558041e+01   1.830190e+02
  -1.966239e+02   2.968594e+01
  -1.385072e+02  -2.714676e+02
   3.294787e+01  -3.734791e+02
   2.326489e+02  -1.678521e+02
   3.607222e+02   9.901386e+01
   2.617711e+02   2.499080e+02
   1.050717e+02   2.562773e+02
  -1.276766e+02   1.597038e+02
  -2.001995e+02  -2.597058e+00
  -6.431288e+01  -3.821805e+01
   6.974188e+01   3.820760e+01
   3.721955e+01   1.306711e+02
  -1.282942e+02   1.028793e+02
  -1.812510e+02  -1.646821e+01
  -6.579228e+01  -7.699655e+01
   7.673205e+01  -1.723948e+01
   5.770506e+01   7.727343e+01
  -1.466492e+02   7.132524e+01
  -2.944576e+02  -3.213169e+01
  -2.721076e+02  -1.461713e+02
  -5.504195e+01  -2.724050e+02
   2.002783e+02  -2.702782e+02
   3.029790e+02  -1.111919e+02
   1.927597e+02   4.156110e+01
  -2.552711e+01   1.243547e+02
  -1.007546e+02   1.300230e+01
   3.552408e+01  -1.024861e+02
   2.107147e+02  -5.641395e+01
   2.171867e+02   1.118259e+02
   5.929661e+01   1.985759e+02
  -9.177115e+01   1.653608e+02
  -1.486390e+02   2.103166e+01
  -8.990167e+01  -4.040311e+01
   2.293881e+01  -7.357324e+00
   3.940696e+01   7.697338e+01
  -9.724086e+01   1.090366e+02
  -2.471022e+02   3.197322e+01
  -1.832539e+02  -1.406911e+02
  -2.563198e+01  -2.159003e+02
   1.760985e+02  -1.774252e+02
   2.248128e+02   3.296778e+00
   8.357852e+01   1.126070e+02
  -6.230234e+01   1.111933e+02
  -8.490938e+01   2.846757e+01
  -2.318924e+01  -2.378077e+01
   1.434500e+01  -1.743801e+01
  -5.256183e+00   2.988220e+00
  -5.853373e+01  -9.102328e+00
  -7.420464e+01  -8.489660e+01
  -1.115888e+01  -1.626047e+02
   1.322428e+02  -1.738785e+02
   2.070756e+02   1.952907e-02
   2.131198e+02   1.483589e+02
   2.910727e+01   2.270913e+02
  -1.208828e+02   1.781244e+02
  -1.422951e+02   3.302650e+01
  -6.638810e+01  -6.277732e+01
  -2.835599e+01  -4.353715e+01
  -5.502250e+01   1.194739e+01
  -8.508617e+01   4.164686e+00
  -4.596638e+01  -5.994014e+01
   4.227128e+01  -8.569710e+01
   1.132481e+02  -4.890641e+01
   8.383323e+01   3.105487e+01
  -1.506418e+01   8.441844e+01
  -1.336261e+02   7.690824e+01
  -1.966248e+02  -4.920966e+01
  -1.005843e+02  -1.653143e+02
   1.026209e+02  -2.574466e+02
   2.789277e+02  -1.421196e+02
   2.907435e+02   9.885259e+01
   1.232551e+02   1.892573e+02
  -4.075674e+01   1.393042e+02
  -1.168340e+02   9.839854e+01
  -9.631628e+01   7.279775e+01
  -8.582637e+01   8.640995e+01
  -8.995261e+01   7.070837e+01
  -1.502843e+02  -3.345616e+01
  -1.209160e+02  -1.639670e+02
  -1.317695e+01  -2.247284e+02
   8.717150e+01  -1.754149e+02
   2.037057e+02  -2.851120e+01
   1.132498e+02   1.195721e+02
   1.065842e+01   1.786489e+02
  -7.025187e+01   9.471789e+01
  -6.711678e+01   3.893528e+00
  -5.342209e+00  -4.445968e+01
   5.183975e+00  -3.516649e+01
  -3.534400e+01  -2.111498e+01
  -7.470917e+01  -2.541674e+01
  -4.407470e+01  -3.968328e+01
   7.155904e+01  -2.832210e+01
   1.823020e+02  -1.325775e+01
   1.549950e+02   5.071978e+01
   1.509052e+01   9.686486e+01
  -1.244744e+02   6.553902e+01
  -1.603205e+02   1.103131e+01
  -5.519061e+01  -4.097965e+01
   6.886532e+01  -3.948550e+01
   8.176693e+01   1.557162e+01
   6.351061e+00   7.590415e+01
  -7.248499e+01   5.071676e+01
  -6.087825e+01  -6.764269e-01
  -4.916283e+01  -5.897252e+01
  -3.511366e+01  -4.012949e+01
  -6.398199e+01  -3.156090e+00
  -7.173053e+01  -4.133836e+00
  -3.992000e+01  -7.720462e+01
   5.694686e+01  -1.602801e+02
   1.217417e+02  -1.351876e+02
   1.748981e+02  -4.356407e+01
   1.249247e+02   1.038877e+02
   8.760695e+00   1.339549e+02
  -9.934012e+01   5.694697e+01
  -6.262413e+01  -2.061577e+01
   6.020212e+01  -1.756846e+01
   1.385197e+02   5.295006e+01
   7.618363e+01   9.655841e+01
  -9.806880e+01   1.179202e+02
  -1.912855e+02   5.748847e+01
  -1.484045e+02  -3.468145e+01
  -4.259196e+01  -9.575257e+01
   5.534805e+01  -5.616066e+01
   4.576164e+01  -8.750288e+00
  -4.632291e+01   3.047288e+01
  -8.887513e+01  -2.334385e+01
  -1.639391e+01  -1.333044e+02
   9.504626e+01  -1.667295e+02
   2.008057e+02  -6.162085e+01
   1.121681e+02   9.951607e+01
   1.252663e+01   2.116345e+02
  -8.655624e+01   1.454694e+02
  -1.105613e+02  -1.936249e+00
  -6.252238e+01  -1.303139e+02
   7.889783e+00  -1.192094e+02
   4.771862e+01  -1.852922e+01
   5.811383e+01   4.152712e+01
   3.192291e+01   1.273241e+01
   3.406836e+00  -2.166609e+01
   2.312971e+01   1.930768e+01
   5.429199e+01   1.067520e+02
   3.290875e+01   9.810611e+01
  -4.460178e+01   3.822265e+01
  -1.583758e+02  -3.798657e+01
  -1.404625e+02  -9.309471e+01
  -1.364606e+01  -4.862931e+01
   1.006732e+02  -9.815280e+00
   9.536135e+01  -1.836287e+00
   5.947483e+00   7.480998e+00
  -3.301019e+01   1.948895e+01
  -1.544860e+01   1.723104e+01
   2.228751e+01  -7.797681e-02
  -7.898869e+00  -1.051262e+01
  -8.412424e+01  -1.182777e+01
  -9.839782e+01  -2.932045e+01
  -5.451958e+00  -8.342560e+01
   1.374452e+02  -1.257338e+02
   1.748252e+02  -3.246131e+01
   1.475884e+02   9.683198e+01
   1.866052e+01   1.577909e+02
  -7.883252e+01   1.239594e+02
  -1.162128e+02   5.815335e+01
  -8.696082e+01  -2.930536e+01
  -2.545111e+01  -3.850891e+01
   5.372570e+00  -7.530354e+00
  -1.000237e+01  -2.277495e+00
  -2.849718e+01  -4.318703e+01
  -2.017313e+01  -9.025531e+01
   4.008969e+01  -8.139654e+01
   8.819366e+01   2.823908e+01
   8.838613e+01   1.303954e+02
   1.345613e+01   1.130842e+02
  -9.361393e+01   1.783004e+01
  -1.087973e+02  -8.260793e+01
  -2.004478e+01  -1.121297e+02
   6.996806e+01  -5.540675e+01
   1.021774e+02   2.154093e+01
   3.273982e+01   5.068076e+01
  -3.703619e+01   5.098458e+01
  -3.207343e+01   2.234863e+01
   4.056476e+01  -1.049048e+00
   7.976777e+01   2.148890e+00
   1.125657e+01   2.657816e+01
  -9.251442e+01   7.191063e+01
  -1.185824e+02   5.461568e+01
  -6.114319e+01  -1.238746e+01
   2.418000e+01  -8.344195e+01
   5.280561e+01  -9.069940e+01
   3.308054e+01   1.851976e+00
  -1.346766e+00   5.524924e+01
  -2.553607e+01   3.541850e+01
  -3.885386e+01  -2.291052e+01
  -2.462617e+01  -5.733024e+01
   3.729817e+00  -3.630999e+01
   2.571462e+01   1.011914e+01
   4.280695e+01   2.007910e+01
   2.181192e+01  -1.245227e+00
   2.633027e+00  -1.063600e+01
  -5.392285e+00   6.844219e+00
  -1.025366e+01   3.726162e+01
  -2.069630e+01   4.729205e+01
  -3.366747e+01   8.761258e+00
  -2.977978e+01  -5.163434e+01
   1.080406e+01  -6.331994e+01
   4.927313e+01  -1.312689e+01
   6.315038e+01   4.081322e+01
   1.126533e+01   7.007515e+01
  -5.445661e+01   2.470568e+01
  -9.682040e+01  -1.968182e+01
  -3.721645e+01  -4.543637e+01
   4.025540e+01  -4.067848e+01
   6.783410e+01  -2.153296e+01
   2.585552e+01  -4.597753e+00
  -3.596600e+01  -6.815318e+00
  -4.500211e+01  -2.079625e+01
   3.668258e+01  -3.383578e+01
   1.116902e+02  -1.154362e+01
