
 $NMID
 id='ANONYMOUS ', fmtdat='(2E16.6)'
 volume=1.0
 tramp=1.0
 $END
  -2.906694e+03   5.231480e+02
  -1.999614e+03  -1.770763e+03
   3.801398e+02  -1.882825e+03
   1.551438e+03  -1.353503e+03
   9.127246e+02  -5.680486e+01
  -3.916881e+01   1.121108e+02
  -3.238308e+02  -1.946078e+02
   1.810653e+02  -6.134384e+02
   3.606253e+02  -4.258506e+02
   5.434524e+02   8.119535e+01
   4.725281e+02   4.164535e+02
  -2.051252e+02   6.430272e+02
  -3.818723e+02   5.776265e+01
  -2.203001e+02  -4.653567e+02
   1.419229e+02  -5.992344e+02
   3.191949e+02  -4.117920e+01
   2.415606e+02   5.948636e+02
  -1.461042e+02   5.177974e+02
  -4.703507e+02   2.325736e+02
  -4.501902e+02  -2.100341e+02
  -7.306714e+01  -3.221897e+02
   1.276718e+02  -2.432246e+02
   9.545688e+01  -5.800114e+01
  -1.406784e+02  -4.665282e+01
  -2.778694e+02  -2.848251e+02
   1.326716e+01  -2.822287e+02
   4.807535e+02  -1.444590e+02
   5.788756e+02   5.985133e+01
   1.811907e+02   3.876744e+02
  -3.269847e+02   2.776862e+02
  -4.329098e+02  -1.474228e+02
  -1.150079e+02  -4.192853e+02
   2.767062e+02  -3.427612e+02
   3.567243e+02  -1.314021e+02
   2.712713e+02   1.850189e+02
   6.639872e+01   3.846088e+02
  -1.026117e+02   1.798933e+02
  -5.059388e+01  -1.356338e+02
   2.244900e+02  -1.973140e+02
   1.892772e+02   6.882092e+01
  -1.263082e+00   5.697807e+02
  -2.705116e+02   4.836187e+02
  -3.535294e+02   1.021686e+02
  -2.235508e+02  -3.633555e+02
   9.267047e+01  -1.372496e+02
   1.911545e+02   2.678769e+02
  -1.089787e+02   4.413236e+02
  -4.682499e+02   3.566579e+01
  -4.465293e+02  -4.749302e+02
  -1.265325e+02  -5.432776e+02
   3.357285e+02  -2.849305e+02
   6.015180e+02   1.667685e+01
   2.738622e+02   2.803130e+02
  -1.483177e+02   2.178909e+02
  -2.577504e+02   3.936402e+01
  -2.322960e+02  -1.869708e+01
  -1.377935e+00  -1.764684e+00
   3.137902e+01   1.074057e+02
  -1.338805e+02   5.288595e+01
  -2.604967e+02  -7.734888e+01
  -1.056857e+02  -2.394247e+02
   1.715361e+02  -2.409805e+02
   3.557994e+02  -1.453702e+02
   2.535051e+02   9.915670e+01
  -3.343917e+01   2.550918e+02
  -2.650207e+02   2.815563e+02
  -3.377565e+02   1.444941e+02
  -2.536708e+02  -2.223793e+02
  -6.941705e+01  -3.158522e+02
   7.583778e+01  -2.510577e+02
   2.729924e+01  -1.695895e+02
   3.344587e+01  -6.933848e+01
   1.385275e+02  -1.076247e+02
   2.373239e+02  -6.983255e+01
   1.814695e+02   1.042861e+02
   9.249443e+01   2.467516e+02
  -1.025331e+02   1.919196e+02
  -2.150667e+02  -3.094726e+01
  -1.358593e+02  -2.825363e+02
   4.813250e+01  -2.574974e+02
   2.115688e+02  -5.138295e+01
   2.901464e+02   1.589597e+02
   2.107783e+02   3.067042e+02
  -7.402661e+01   2.573131e+02
  -1.611193e+02   1.400422e+02
  -1.269820e+02   5.809681e+01
  -1.427404e+02   6.271318e+01
  -2.526501e+02   6.541982e+01
  -3.940343e+02  -7.560908e+01
  -3.478968e+02  -2.917787e+02
   1.927683e+01  -4.049633e+02
   3.900270e+02  -3.889957e+02
   4.918820e+02  -1.910634e+02
   2.788073e+02   8.467742e+01
   9.676950e+00   3.089838e+02
  -1.158340e+02   2.115849e+02
  -6.901825e+00   4.087363e+01
   1.199758e+02  -4.381183e+01
   1.425137e+02   3.519358e+01
   1.459807e+01   1.369946e+02
  -1.428800e+02   1.237556e+02
  -9.427459e+01  -4.173650e+01
   4.967508e+01  -1.532186e+02
   1.546543e+02  -1.523675e+00
   1.927794e+02   2.792442e+02
  -2.560302e+01   3.321060e+02
  -2.547619e+02   1.670636e+02
  -3.393729e+02  -4.977990e+01
  -2.418950e+02  -2.459119e+02
  -4.124616e+01  -2.673728e+02
   1.326818e+02  -1.235912e+02
   1.407100e+02  -1.387044e+01
   3.646809e+01   2.548633e+01
  -5.394928e+01  -6.345411e+01
  -1.017883e-02  -1.139741e+02
   1.208812e+02  -6.516823e+01
   1.815111e+02   2.609208e+01
   4.215629e+01   6.101337e+01
  -9.306133e+01  -4.137902e+00
  -3.485592e+01  -7.806467e+01
   1.292573e+02  -8.199795e+01
   2.498665e+02   2.417399e+00
   2.285562e+02   1.415104e+02
   6.630083e+01   2.495777e+02
  -1.747291e+02   2.034927e+02
  -2.442596e+02   1.199917e+02
  -1.439374e+02  -2.357729e+01
   1.756012e+01  -7.642301e+01
   5.489893e+01   1.562165e+01
  -5.494029e+01   9.601543e+01
  -1.798075e+02   2.860459e+01
  -1.982965e+02  -1.045942e+02
  -2.187859e+01  -1.897122e+02
   6.158169e+01  -1.068719e+02
   1.189764e+02  -2.994050e+01
   5.177732e+01   4.185863e+01
  -4.252184e+01  -1.772113e+01
  -1.323837e+01  -9.718844e+01
   8.512575e+01  -1.370743e+02
   1.871987e+02  -1.121699e+01
   1.759015e+02   1.208407e+02
  -8.048879e+00   2.087220e+02
  -1.784295e+02   1.561426e+02
  -1.778531e+02   1.575467e+01
  -5.234290e+01  -1.032635e+02
   8.008184e+01  -1.072231e+02
   7.631761e+01  -2.541120e+01
   7.830440e+00   3.298361e+01
  -3.166873e+01   8.164408e+00
   1.126506e+01  -2.003527e+01
   9.113527e+01   1.177359e+01
   1.044002e+02   9.781758e+01
   1.120034e+01   1.748769e+02
  -1.511749e+02   1.433081e+02
  -2.451786e+02   1.191634e+00
  -1.635955e+02  -1.469813e+02
  -2.075970e+01  -1.725782e+02
   1.184686e+02  -1.293128e+02
   1.317613e+02  -1.639876e+01
   7.380464e+01   5.853477e+01
   2.890928e+01   2.787541e+01
   5.538235e+01  -8.297472e+00
   8.209732e+01  -1.445428e+01
   5.095432e+01   5.907244e+01
  -4.332496e+01   9.813811e+01
  -1.065097e+02   5.331997e+01
  -1.001134e+02  -4.292128e+01
   1.434288e+01  -1.321458e+02
   1.547914e+02  -8.629687e+01
   2.020847e+02   4.964064e+01
   6.812045e+01   2.091721e+02
  -1.079480e+02   1.955482e+02
  -2.072036e+02   3.767297e+01
  -2.402305e+02  -9.677686e+01
  -7.069131e+01  -1.691290e+02
   5.030422e+01  -1.172122e+02
   7.667814e+01  -6.460069e+01
   6.665983e+01  -6.893866e+01
   5.794769e+01  -9.035996e+01
   9.280753e+01  -7.835937e+01
   1.164578e+02   1.912637e+01
   1.064921e+02   1.395031e+02
   1.620651e+01   2.122026e+02
  -9.290920e+01   1.398887e+02
  -1.368533e+02   4.914894e+00
  -1.251556e+02  -1.274986e+02
   2.451914e+00  -1.371051e+02
   7.839930e+01  -7.646281e+01
   5.281646e+01   6.618797e+00
  -1.500375e+00   5.529590e+01
  -2.565831e+01   3.146895e+01
   2.828675e+01   1.738248e+01
   7.679039e+01   2.920437e+01
   4.671025e+01   4.050848e+01
  -7.335618e+01   3.522615e+01
  -1.691858e+02  -1.242991e+00
  -1.349627e+02  -6.684197e+01
  -6.219475e+00  -8.475483e+01
   1.466382e+02  -7.493143e+01
   1.582874e+02   3.671385e+00
   3.666635e+01   4.761301e+01
  -5.386293e+01   4.122144e+01
  -7.085340e+01  -2.005928e+01
  -5.992061e+00  -6.876106e+01
   3.664537e+01  -5.267573e+01
   6.052737e+01   3.663981e+00
   5.445568e+01   5.447114e+01
   4.584958e+01   4.422837e+01
   5.804718e+01   2.076657e+00
   6.185448e+01  -9.217050e+00
   3.114873e+01   6.632419e+01
  -2.878619e+01   1.439316e+02
  -9.833410e+01   1.393521e+02
  -1.593283e+02   2.885840e+01
  -1.268841e+02  -7.504915e+01
   4.264595e+00  -1.257811e+02
   9.478264e+01  -6.901500e+01
   6.763548e+01   1.641021e+01
  -4.789534e+01   2.033515e+01
  -1.313014e+02  -4.804254e+01
  -7.351296e+01  -1.180661e+02
   8.495737e+01  -1.132103e+02
   1.776535e+02  -4.157580e+01
   1.763223e+02   4.916469e+01
   3.371598e+01   7.728310e+01
  -6.546233e+01   6.010072e+01
  -3.685039e+01   1.215555e+00
   3.413727e+01  -2.957306e+01
   8.555756e+01   3.256144e+01
   3.559261e+01   1.080461e+02
  -6.236406e+01   1.428199e+02
  -1.611541e+02   7.900276e+01
  -1.073822e+02  -1.076875e+02
   3.893290e+00  -1.824224e+02
   8.032541e+01  -1.175315e+02
   1.085104e+02   9.099603e+00
   3.992798e+01   1.016543e+02
  -5.093576e+00   8.671710e+01
  -5.290744e+01   1.482082e+01
  -4.680389e+01  -2.562302e+01
  -1.837868e+01  -6.185124e+00
  -5.029821e+00   1.596162e+01
  -2.746006e+01  -1.923820e+01
  -5.033252e+01  -9.687675e+01
  -1.545835e+01  -1.004793e+02
   4.591113e+01  -3.672162e+01
   1.365066e+02   5.186268e+01
   1.085345e+02   6.850785e+01
   1.716538e+01   5.960998e+01
  -6.862550e+01   2.312196e+01
  -8.739862e+01   1.881372e+00
  -1.386498e+01  -8.873096e+00
   3.615925e+01  -1.705074e+01
   1.596824e+01  -1.210302e+01
  -1.532594e+01   1.162161e+00
   2.319710e+00   5.125090e+00
   4.975340e+01  -3.360540e+00
   1.012422e+02   2.972259e+01
   2.572337e+01   7.251090e+01
  -9.208671e+01   1.027138e+02
  -1.844089e+02   6.510445e+01
  -1.368259e+02  -4.767066e+01
  -1.802062e+01  -1.496320e+02
   8.562401e+01  -1.475545e+02
   1.092783e+02  -4.641524e+01
   8.190831e+01   1.863197e+01
   2.534034e+01   2.711453e+01
  -1.148150e+00   1.127025e+01
   1.286382e+01   6.365393e+00
   3.591385e+01   4.814553e+01
   1.587520e+01   7.370458e+01
  -2.365500e+01   7.375664e+01
  -7.481494e+01  -1.678588e+01
  -7.389762e+01  -8.722305e+01
  -9.192157e+00  -1.088518e+02
   6.801804e+01  -3.495107e+01
   8.214668e+01   7.090441e+01
   3.995071e+01   9.025167e+01
  -5.730762e+01   6.094732e+01
  -1.000483e+02  -4.237234e+00
  -4.843649e+01  -5.243563e+01
   3.481538e+01  -5.575940e+01
   3.593364e+01  -3.112440e+01
  -2.729248e+01   3.862821e+00
  -6.865035e+01   1.028255e+01
  -1.843188e+01  -2.703391e+01
   7.145874e+01  -7.294745e+01
   1.193865e+02  -6.050858e+01
   6.536283e+01   2.103429e+01
  -1.089771e+01   7.318336e+01
  -5.311896e+01   7.583750e+01
  -4.354784e+01   8.816839e+00
  -3.077679e+00  -5.128398e+01
   2.514295e+01  -4.541851e+01
   3.600127e+01   1.211548e+01
   2.786198e+01   5.437502e+01
  -2.094480e+00   3.880324e+01
  -3.307512e+01  -5.523260e+00
  -3.484841e+01  -2.719029e+01
  -1.862244e+01  -2.983486e+00
   2.125157e+00   1.959135e+01
   5.498181e+00   3.989285e+00
  -1.397311e+00  -3.173429e+01
   1.687957e+00  -4.674972e+01
   2.442182e+01  -2.282693e+01
   3.271651e+01   3.918509e+01
   2.939637e+00   6.270875e+01
  -3.671396e+01   1.806431e+01
  -5.649551e+01  -2.590369e+01
  -1.753481e+01  -6.117910e+01
   5.416098e+01  -3.374158e+01
   8.413414e+01  -2.498417e+00
   4.732373e+01   3.657963e+01
  -2.400746e+01   4.165679e+01
  -6.687826e+01   1.768524e+01
  -2.328405e+01   7.130486e+00
   2.488636e+01   1.535808e+00
   3.719521e+01   8.472094e+00
  -1.820759e+01   2.409778e+01
  -8.054611e+01   2.513959e+01
