
 $NMID
 id='ANONYMOUS ', fmtdat='(2E16.6)'
 volume=1.0
 tramp=1.0
 $END
  -4.211784e+03  -3.170839e+01
  -2.663386e+03  -2.188726e+03
   4.871841e+02  -3.051763e+03
   2.118971e+03  -1.258605e+03
   1.165524e+03   3.387511e+02
  -6.727552e+02   4.968615e+02
  -8.238378e+02  -4.461275e+02
  -1.190346e+02  -1.007057e+03
   7.218378e+02  -7.671905e+02
   8.592490e+02  -1.090932e+01
   5.495754e+02   8.367026e+02
  -2.308453e+02   7.734736e+02
  -4.675807e+02   1.831485e+02
  -4.673645e+02  -6.198677e+02
   3.216627e+02  -7.814897e+02
   6.368990e+02  -7.109761e+01
   3.686112e+02   6.621631e+02
  -4.189466e+02   6.866968e+02
  -6.199279e+02   1.335409e+02
  -4.219028e+02  -3.130248e+02
  -5.890819e+01  -4.265629e+02
   2.429014e+02  -3.437962e+02
   2.256883e+02  -3.223054e+01
  -1.031437e+02   7.520944e+01
  -4.175775e+02  -1.363999e+02
  -1.701858e+02  -4.765809e+02
   4.649806e+02  -4.216066e+02
   8.783645e+02   9.221540e+01
   4.495169e+02   5.143663e+02
  -3.619530e+02   5.171563e+02
  -7.717988e+02  -4.632416e+01
  -4.292641e+02  -5.075051e+02
   3.009393e+02  -4.915968e+02
   6.726454e+02  -1.245884e+02
   4.498174e+02   2.205961e+02
   1.190548e+02   4.638200e+02
  -1.509627e+02   2.555144e+02
  -2.000664e+02  -2.036364e+02
   8.983260e+01  -3.518635e+02
   3.661617e+02  -9.753148e+00
   2.183011e+02   6.451109e+02
  -2.994950e+02   7.673244e+02
  -6.034369e+02  -7.905616e+01
  -2.668770e+02  -5.496051e+02
   2.657041e+02  -2.708597e+02
   3.791591e+02   3.701048e+02
  -2.674144e+01   6.117137e+02
  -5.886706e+02   1.879007e+02
  -6.042272e+02  -4.202908e+02
  -2.274020e+02  -6.385421e+02
   3.842798e+02  -3.512776e+02
   6.801532e+02   1.078343e+02
   3.777001e+02   3.512742e+02
  -1.218922e+02   3.550064e+02
  -4.669934e+02   8.172208e+01
  -3.005920e+02  -1.406318e+02
   8.948179e+01  -9.485370e+01
   1.051233e+02   9.870626e+01
  -1.309786e+02   2.293156e+02
  -2.948423e+02  -7.069040e+01
  -1.869244e+02  -2.776693e+02
   2.430140e+02  -2.384008e+02
   3.735358e+02  -1.251914e+02
   2.166047e+02   1.031436e+02
  -1.801820e+01   2.363475e+02
  -2.611019e+02   3.243101e+02
  -3.724935e+02   1.896668e+02
  -2.918036e+02  -1.585781e+02
  -9.564116e+01  -4.808300e+02
   7.046090e+01  -3.786307e+02
   1.126986e+02  -1.596242e+02
   4.010527e+01  -8.339584e+00
   7.147133e+01  -1.013077e+02
   2.010920e+02  -1.133298e+02
   2.862123e+02   5.095651e+01
   1.473739e+02   3.053726e+02
  -7.411367e+01   2.951471e+02
  -2.625742e+02   2.481972e+00
  -1.969300e+02  -2.251814e+02
  -9.041004e+00  -2.612731e+02
   2.856229e+02  -1.256128e+02
   3.975180e+02   1.216952e+02
   1.963798e+02   4.106397e+02
  -5.930364e+01   3.485188e+02
  -2.220261e+02   1.590820e+02
  -1.690155e+02   2.663184e+01
  -1.241498e+02   3.421310e+01
  -2.603236e+02   7.376382e+01
  -4.061265e+02  -9.504544e+01
  -3.417289e+02  -2.822478e+02
  -1.839597e+01  -4.597004e+02
   3.773949e+02  -4.596479e+02
   4.662252e+02  -1.932544e+02
   3.742133e+02   5.824811e+01
   8.926051e+01   3.157325e+02
  -1.126912e+02   2.831830e+02
  -7.450792e+01   3.733069e+01
   9.356722e+01  -1.086958e+02
   1.839699e+02  -8.206115e+00
   8.147163e+01   1.829325e+02
  -1.778936e+02   1.721301e+02
  -1.987917e+02  -6.315731e+01
   1.060309e+01  -1.931684e+02
   1.923413e+02  -1.101468e+01
   1.705696e+02   2.278172e+02
   7.583795e+00   3.767797e+02
  -2.166652e+02   2.042233e+02
  -3.576881e+02  -8.121485e+01
  -2.498182e+02  -2.936363e+02
  -1.124587e+02  -2.684741e+02
   1.010532e+02  -1.626519e+02
   1.793238e+02  -1.670520e+01
   5.502910e+01   2.964291e+01
  -7.944215e+01  -3.266932e+01
  -2.853176e+01  -1.357841e+02
   1.259894e+02  -9.744978e+01
   1.948074e+02   7.885249e+00
   6.613413e+01   7.892591e+01
  -7.306826e+01   1.381452e+01
  -5.254078e+01  -7.628319e+01
   1.242031e+02  -8.819741e+01
   2.825884e+02  -2.637490e+01
   2.903790e+02   1.746629e+02
   7.502667e+01   2.783844e+02
  -1.981178e+02   2.899401e+02
  -3.075996e+02   1.477518e+02
  -1.780884e+02  -4.017520e+01
   1.943396e+01  -1.312265e+02
   9.767220e+01  -7.662134e+00
  -4.302455e+01   1.048763e+02
  -2.105972e+02   5.430219e+01
  -2.212374e+02  -7.242665e+01
  -7.784067e+01  -2.027793e+02
   8.947215e+01  -1.601630e+02
   1.389326e+02  -2.196425e+01
   7.900203e+01   5.178278e+01
  -2.648602e+01   6.943942e-01
  -4.635689e+01  -8.122270e+01
   8.580501e+01  -1.247636e+02
   2.323958e+02  -2.361535e+01
   2.081214e+02   1.323083e+02
   1.367738e+01   2.139949e+02
  -1.768655e+02   1.745631e+02
  -2.067953e+02   3.336285e+01
  -8.150172e+01  -1.113077e+02
   5.450944e+01  -1.140424e+02
   8.021487e+01  -2.849908e+01
   1.837767e+01   2.262458e+01
  -1.825243e+01   1.630448e+01
   5.683154e+00  -1.131618e+01
   7.572597e+01   2.316932e+00
   9.160475e+01   8.809978e+01
  -4.502620e+00   1.751751e+02
  -1.336773e+02   1.651330e+02
  -2.314273e+02   4.114244e+01
  -2.208009e+02  -1.305748e+02
  -5.705637e+01  -2.307618e+02
   1.037492e+02  -1.890836e+02
   1.397940e+02  -2.812557e+01
   8.294989e+01   4.408983e+01
   3.534418e+01   3.696248e+01
   5.645549e+01  -1.804781e+01
   9.492993e+01  -2.721939e+00
   4.992908e+01   5.992938e+01
  -2.595819e+01   1.075538e+02
  -1.081470e+02   6.176506e+01
  -1.072612e+02  -2.815971e+01
   1.088606e+01  -1.095815e+02
   1.501317e+02  -9.034583e+01
   2.183699e+02   3.694027e+01
   1.092753e+02   2.005246e+02
  -9.778581e+01   2.512957e+02
  -2.975738e+02   8.791754e+01
  -3.036537e+02  -1.161087e+02
  -1.403489e+02  -1.790106e+02
   2.323160e+01  -1.355826e+02
   9.953691e+01  -9.301605e+01
   8.502530e+01  -8.211166e+01
   6.366185e+01  -9.918736e+01
   8.571039e+01  -8.764598e+01
   1.400683e+02   1.083239e+01
   1.321209e+02   1.513456e+02
   2.015458e+01   2.138394e+02
  -9.458207e+01   1.783376e+02
  -2.090397e+02   2.512998e+01
  -1.404589e+02  -1.162429e+02
  -2.837241e+01  -1.764330e+02
   7.009134e+01  -8.915247e+01
   6.603101e+01   1.484329e+00
   6.408529e+00   5.001520e+01
  -1.139790e+01   4.329013e+01
   3.522472e+01   1.683875e+01
   8.423550e+01   2.242597e+01
   5.233377e+01   4.017784e+01
  -6.879743e+01   4.586877e+01
  -1.928927e+02   3.341555e+00
  -1.495391e+02  -5.584392e+01
  -2.693966e+01  -9.532319e+01
   1.246836e+02  -9.043229e+01
   1.713911e+02  -2.072078e+01
   4.812644e+01   4.817249e+01
  -6.132492e+01   4.778373e+01
  -8.098872e+01  -1.840317e+01
  -1.329619e+01  -8.076340e+01
   5.907199e+01  -6.524358e+01
   6.680787e+01  -7.364232e+00
   6.139691e+01   4.743725e+01
   4.242000e+01   4.320005e+01
   5.844680e+01  -2.175013e+00
   7.139481e+01   1.207898e+01
   4.434081e+01   7.942795e+01
  -3.813104e+01   1.551858e+02
  -1.168194e+02   1.580644e+02
  -1.890201e+02   3.132089e+01
  -1.324564e+02  -1.000097e+02
  -1.441058e+01  -1.295257e+02
   8.482254e+01  -7.713072e+01
   6.645356e+01   6.193086e+00
  -5.945520e+01   2.667102e+01
  -1.507620e+02  -5.157212e+01
  -7.781385e+01  -1.047198e+02
   7.732719e+01  -1.186421e+02
   2.218020e+02  -5.606583e+01
   1.530588e+02   3.408248e+01
   4.544841e+01   9.175957e+01
  -5.011269e+01   6.200421e+01
  -5.545903e+01   5.891874e+00
   4.250561e+01  -3.004798e+01
   9.147004e+01   1.730148e+01
   2.815042e+01   1.262939e+02
  -9.368599e+01   1.675725e+02
  -1.974325e+02   6.791023e+01
  -1.186511e+02  -8.385950e+01
  -1.553844e+01  -2.050197e+02
   8.313228e+01  -1.463412e+02
   1.222644e+02  -1.558828e+00
   5.383500e+01   1.321928e+02
  -9.422736e-01   1.180744e+02
  -4.662279e+01   2.171272e+01
  -5.063359e+01  -4.101756e+01
  -2.643842e+01  -1.016558e+01
  -2.302732e+00   2.065952e+01
  -2.722976e+01  -1.996149e+01
  -6.174217e+01  -9.861791e+01
  -3.983644e+01  -9.594534e+01
   4.183580e+01  -4.868580e+01
   1.635628e+02   2.517736e+01
   1.385878e+02   5.247595e+01
   2.418288e+01   4.873212e+01
  -7.976190e+01   3.205103e+01
  -9.961956e+01   9.625075e+00
  -1.464475e+01  -8.003025e+00
   3.157366e+01  -2.306588e+01
   1.565949e+01  -1.893183e+01
  -2.040817e+01   6.227126e-01
   7.454864e+00   8.566543e+00
   7.700586e+01   2.762387e-01
   1.028131e+02   1.300702e+01
   4.007568e+00   8.313366e+01
  -1.339972e+02   1.267956e+02
  -1.704305e+02   6.266556e+01
  -1.604017e+02  -7.489079e+01
  -4.721217e+01  -1.552379e+02
   6.177171e+01  -1.436900e+02
   1.196271e+02  -6.682506e+01
   8.839429e+01   1.873994e+01
   2.777310e+01   3.716693e+01
  -1.864920e+00   1.070207e+01
   1.318212e+01   3.899253e+00
   3.499960e+01   4.062608e+01
   2.815782e+01   8.747384e+01
  -3.440030e+01   8.264202e+01
  -8.427733e+01  -1.013383e+01
  -9.676195e+01  -1.181516e+02
  -1.537897e+01  -1.188723e+02
   1.008783e+02  -2.411176e+01
   1.155875e+02   8.327542e+01
   3.856694e+01   1.134824e+02
  -6.988127e+01   6.697929e+01
  -1.097315e+02  -1.573288e+01
  -4.781750e+01  -5.046907e+01
   3.920785e+01  -6.170656e+01
   3.313377e+01  -2.880341e+01
  -3.497380e+01   4.621804e+00
  -7.164552e+01   1.683080e+01
  -1.733679e+01  -2.599610e+01
   8.247203e+01  -7.730898e+01
   1.314316e+02  -5.768874e+01
   6.577942e+01   4.274633e+00
  -1.589828e+01   8.757457e+01
  -5.906329e+01   9.660516e+01
  -4.435689e+01   1.322714e+01
  -2.091039e+00  -5.613958e+01
   2.523123e+01  -4.371367e+01
   3.837718e+01   1.691389e+01
   2.895358e+01   5.556393e+01
  -1.150707e+00   3.664521e+01
  -3.326527e+01  -5.299053e+00
  -4.601214e+01  -1.875889e+01
  -2.307653e+01  -1.850917e-01
   4.648472e+00   1.187680e+01
   9.416619e+00   1.122559e+00
  -4.101993e-01  -3.406833e+01
   7.184991e+00  -4.807256e+01
   3.915447e+01  -1.716027e+01
   4.161982e+01   4.254152e+01
   6.950327e+00   6.465598e+01
  -4.401003e+01   2.469127e+01
  -6.814121e+01  -3.983773e+01
  -1.341201e+01  -6.768625e+01
   5.164312e+01  -3.518744e+01
   9.826789e+01   1.464361e+01
   5.311176e+01   4.203018e+01
  -2.927201e+01   4.746881e+01
  -7.091286e+01   2.816159e+01
  -2.731726e+01   5.390067e+00
   3.182612e+01  -5.551958e+00
   4.025130e+01   1.580847e+01
  -2.720447e+01   3.259348e+01
  -9.944751e+01   2.501122e+01
