
 $NMID
 id='ANONYMOUS ', fmtdat='(2E16.6)'
 volume=1.0
 tramp=1.0
 $END
   3.946524e+03  -6.749414e+02
   2.274527e+03   1.800966e+03
  -3.145352e+02   2.114453e+03
  -1.818307e+03   1.304747e+03
  -8.058100e+02  -5.513423e+02
   2.404202e+02  -3.524719e+02
   7.064704e+02   1.625850e+02
   7.002843e+01   8.466789e+02
  -4.943744e+02   5.440466e+02
  -8.872183e+02  -4.431286e+00
  -4.877148e+02  -5.902808e+02
   2.767961e+02  -8.494226e+02
   5.278145e+02  -6.476053e+01
   2.190018e+02   6.817862e+02
  -1.177048e+02   7.153550e+02
  -5.365879e+02   3.482041e+01
  -3.148255e+02  -5.881067e+02
   1.665583e+02  -4.668385e+02
   5.143118e+02  -1.517276e+02
   3.830092e+02   2.262638e+02
   3.634992e+01   3.434437e+02
  -1.605130e+02   2.507833e+02
  -1.756302e+02   4.118500e+01
   1.190159e+02  -4.238905e+01
   3.032868e+02   1.558102e+02
   1.082580e+02   4.010526e+02
  -4.537673e+02   3.098972e+02
  -7.398653e+02  -8.784716e+01
  -3.713294e+02  -3.517753e+02
   2.930990e+02  -4.074612e+02
   5.915862e+02   8.252104e+01
   3.031017e+02   3.433332e+02
  -2.142003e+02   4.233516e+02
  -4.164489e+02   1.686431e+02
  -3.255544e+02  -2.076067e+02
  -1.210784e+02  -4.059065e+02
   1.389430e+02  -2.754354e+02
   1.143502e+02   1.151185e+02
  -2.353080e+02   3.385401e+02
  -4.206909e+02  -3.720441e+01
  -2.121720e+02  -5.541122e+02
   2.049944e+02  -5.709887e+02
   4.835539e+02  -1.276919e+02
   1.372821e+02   4.508008e+02
  -1.565073e+02   2.348249e+02
  -3.025640e+02  -2.770707e+02
   3.945029e+01  -5.128832e+02
   5.489652e+02  -9.607732e+01
   5.085903e+02   3.458090e+02
   1.088486e+02   5.260336e+02
  -3.198926e+02   3.302848e+02
  -6.326560e+02   2.518544e+01
  -3.462968e+02  -3.026616e+02
   1.577576e+02  -3.091653e+02
   3.582306e+02  -1.971993e+01
   2.026303e+02   1.206082e+02
  -6.659170e+01   4.387327e+01
  -1.401687e+02  -1.173186e+02
   1.603864e+02  -1.422814e+02
   3.154980e+02   6.087909e+01
   1.168363e+02   2.502139e+02
  -1.693760e+02   2.367851e+02
  -3.083014e+02   9.154470e+01
  -2.434887e+02  -5.727533e+01
   1.608629e+01  -2.433193e+02
   1.665770e+02  -2.922158e+02
   2.806298e+02  -1.786562e+02
   2.713148e+02   1.207987e+02
   1.123322e+02   3.301883e+02
  -8.096984e+01   3.095951e+02
  -6.451825e+01   1.258273e+02
  -4.051169e+01   2.345621e+01
  -6.102144e+01   6.675275e+01
  -2.180813e+02   1.131267e+02
  -2.452490e+02  -8.143348e+01
  -8.433369e+01  -2.405709e+02
   7.637502e+01  -2.329786e+02
   2.219167e+02  -2.236306e+01
   2.338601e+02   2.251854e+02
  -6.689786e-01   2.753755e+02
  -2.145771e+02   1.092697e+02
  -3.297072e+02  -1.426471e+02
  -2.110343e+02  -3.162392e+02
   7.102423e+01  -2.363860e+02
   2.046488e+02  -1.573867e+02
   1.203362e+02  -5.281435e+01
   9.100209e+01  -4.998064e+01
   2.442333e+02  -5.456536e+01
   3.691320e+02   3.284935e+01
   3.497469e+02   2.648616e+02
   3.844429e+01   4.270168e+02
  -3.527926e+02   4.380111e+02
  -4.717198e+02   2.045614e+02
  -3.553883e+02  -6.898919e+01
  -5.745603e+01  -2.326294e+02
   1.233290e+02  -1.734118e+02
   3.546293e+01  -2.019168e+01
  -1.043613e+02   1.069723e+02
  -1.827392e+02   2.425650e+01
  -6.263147e+01  -1.832190e+02
   1.367533e+02  -1.167942e+02
   1.396414e+02   5.508187e+01
  -1.618390e+01   1.952906e+02
  -1.700500e+02   4.607516e+01
  -1.762697e+02  -2.468736e+02
  -1.362045e+01  -3.276921e+02
   1.773412e+02  -1.834418e+02
   2.836100e+02   6.494749e+01
   2.892360e+02   2.341527e+02
   9.273305e+01   2.721146e+02
  -8.975780e+01   1.455717e+02
  -1.360910e+02   2.049382e+01
  -5.440204e+01  -2.444992e+01
   7.546380e+01   4.356507e+01
   2.491255e+01   9.746332e+01
  -1.109035e+02   8.254142e+01
  -1.806917e+02  -2.094364e+01
  -4.262769e+01  -6.117598e+01
   7.206177e+01  -5.942458e+00
   4.884652e+01   6.134863e+01
  -1.085634e+02   7.629978e+01
  -2.297657e+02  -2.488155e+00
  -2.024897e+02  -1.256761e+02
  -7.865519e+01  -2.478588e+02
   1.410312e+02  -2.114294e+02
   2.579710e+02  -9.956473e+01
   1.539980e+02   2.750143e+01
   3.687845e+00   8.134479e+01
  -7.452540e+01   1.488111e+01
   2.273611e+01  -9.860031e+01
   1.520113e+02  -4.718799e+01
   2.039494e+02   8.059049e+01
   7.535773e+01   2.012213e+02
  -9.593344e+01   1.394877e+02
  -1.218934e+02   3.868098e+01
  -6.936310e+01  -3.427473e+01
   3.347777e+01  -4.905031e+00
   2.734673e+01   8.769974e+01
  -5.431742e+01   1.172979e+02
  -1.425250e+02   4.137569e+01
  -1.926834e+02  -1.214352e+02
  -2.868007e+01  -2.058789e+02
   1.385970e+02  -1.757639e+02
   1.674502e+02  -6.804518e+00
   6.479760e+01   9.308419e+01
  -5.536304e+01   1.135954e+02
  -8.604806e+01   2.674062e+01
  -1.583022e+01  -2.155441e+01
   1.890949e+01  -2.046331e+01
  -1.122607e+01   1.174265e+01
  -7.537645e+01  -6.904677e+00
  -1.043817e+02  -7.708327e+01
  -3.433203e+01  -1.568790e+02
   1.195696e+02  -1.336618e+02
   2.342356e+02  -5.068607e+01
   1.710370e+02   1.224389e+02
   7.455570e+00   1.690719e+02
  -1.084767e+02   1.456273e+02
  -1.428501e+02   2.476646e+01
  -7.323942e+01  -4.714804e+01
  -2.800134e+01  -2.416022e+01
  -5.172189e+01   1.412163e+01
  -7.375014e+01   8.555065e+00
  -5.558213e+01  -4.487883e+01
   4.394013e+01  -8.711425e+01
   9.248596e+01  -5.016206e+01
   8.845543e+01   2.852654e+01
   4.633491e+00   1.291948e+02
  -1.274485e+02   8.778438e+01
  -2.007769e+02  -5.419553e+01
  -1.081312e+02  -2.075833e+02
   9.762293e+01  -1.968531e+02
   2.150769e+02  -7.324495e+01
   2.503626e+02   8.735976e+01
   9.351480e+01   1.760632e+02
  -3.345394e+01   1.343382e+02
  -6.768697e+01   6.935610e+01
  -6.816849e+01   7.263743e+01
  -4.974934e+01   8.188762e+01
  -8.358119e+01   8.970414e+01
  -1.115476e+02  -1.031451e+01
  -9.596715e+01  -1.325200e+02
  -3.621292e+01  -2.167580e+02
   5.350127e+01  -1.683700e+02
   1.445908e+02  -2.237524e+01
   1.406796e+02   1.138131e+02
   1.586424e+01   1.335972e+02
  -6.406589e+01   9.240840e+01
  -4.688799e+01   1.751327e+00
  -3.314579e+00  -4.061650e+01
   1.730581e+01  -3.446791e+01
  -3.284659e+01  -1.818633e+01
  -7.012189e+01  -2.702330e+01
  -4.241465e+01  -3.647884e+01
   5.602349e+01  -3.893334e+01
   1.529547e+02  -1.725930e+01
   1.327359e+02   4.339263e+01
   2.008995e+01   8.080657e+01
  -1.213831e+02   7.365221e+01
  -1.401898e+02   1.891913e+01
  -4.589205e+01  -3.522343e+01
   5.379201e+01  -4.125287e+01
   6.809679e+01   2.216948e+01
   1.698436e+01   6.405879e+01
  -5.057425e+01   6.151549e+01
  -6.179007e+01  -9.017595e-02
  -4.169302e+01  -4.582361e+01
  -4.521689e+01  -3.477281e+01
  -6.429885e+01   2.365522e+00
  -5.843589e+01   2.523737e+00
  -2.859462e+01  -6.727660e+01
   1.472600e+01  -1.334933e+02
   9.684752e+01  -1.262765e+02
   1.252341e+02  -3.034234e+01
   1.076548e+02   6.991870e+01
   1.015366e+01   1.150625e+02
  -7.550293e+01   5.601170e+01
  -5.988113e+01  -1.479499e+01
   5.482034e+01  -2.310791e+01
   1.137155e+02   3.674587e+01
   8.445464e+01   9.891008e+01
  -7.861617e+01   1.086378e+02
  -1.554875e+02   2.193520e+01
  -1.833355e+02  -1.747450e+01
  -3.169399e+01  -7.373876e+01
   4.319463e+01  -6.740873e+01
   3.854349e+01  -6.862368e+00
  -3.049788e+01   2.323194e+01
  -8.998934e+01  -1.091734e+01
  -4.400660e+01  -1.041919e+02
   7.231991e+01  -1.340119e+02
   1.428371e+02  -7.127261e+01
   1.272223e+02   8.503044e+01
   1.551990e+01   1.919120e+02
  -5.009713e+01   1.231628e+02
  -9.016694e+01  -7.729126e+00
  -6.643871e+01  -1.109705e+02
   1.261432e+01  -8.948268e+01
   4.730412e+01  -2.005815e+01
   4.239277e+01   2.687378e+01
   2.106378e+01   8.631076e+00
   6.690600e+00  -1.809304e+01
   2.129832e+01   1.492348e+01
   5.767693e+01   7.804259e+01
   4.015847e+01   1.009405e+02
  -4.579669e+01   4.753364e+01
  -1.291439e+02  -3.527632e+01
  -1.086935e+02  -6.130644e+01
  -2.781997e+01  -4.711143e+01
   7.656918e+01  -2.186022e+01
   8.015123e+01  -4.966562e+00
   1.374070e+01   8.349757e+00
  -3.927817e+01   2.448790e+01
  -1.482267e+01   1.548206e+01
   1.929414e+01  -1.645438e+00
  -5.664764e+00  -5.948659e+00
  -6.006230e+01  -1.590293e+00
  -9.350338e+01  -1.969522e+01
  -6.275539e+00  -7.284213e+01
   9.601817e+01  -1.016873e+02
   1.667854e+02  -5.908381e+01
   1.312111e+02   5.885007e+01
   3.714729e+01   1.524698e+02
  -8.296089e+01   1.548379e+02
  -1.091037e+02   6.044086e+01
  -8.316254e+01  -1.389830e+01
  -2.098424e+01  -2.960848e+01
   1.334746e-01  -9.662302e+00
  -1.183557e+01  -3.953546e+00
  -4.256397e+01  -4.680912e+01
  -2.173441e+01  -7.733213e+01
   3.715890e+01  -6.317376e+01
   8.096367e+01   2.206642e+01
   6.458770e+01   8.715605e+01
   1.286514e+01   1.109522e+02
  -6.846689e+01   2.930915e+01
  -1.032211e+02  -6.597224e+01
  -3.461247e+01  -9.068467e+01
   4.831721e+01  -5.480829e+01
   9.806580e+01  -3.738778e+00
   4.041238e+01   4.305919e+01
  -2.289611e+01   5.295966e+01
  -2.942370e+01   3.050200e+01
   2.774761e+01  -1.581952e+00
   6.522881e+01  -9.975908e+00
   1.391260e+01   2.483314e+01
  -6.483733e+01   5.787305e+01
  -1.027928e+02   5.842155e+01
  -5.928337e+01  -1.498597e+01
   4.559971e+00  -6.981125e+01
   5.543672e+01  -7.168421e+01
   3.747592e+01  -1.028149e+01
   6.644804e+00   5.315987e+01
  -1.897612e+01   3.748373e+01
  -2.759564e+01  -1.984958e+01
  -2.695636e+01  -4.747295e+01
   2.627124e+00  -3.209219e+01
   3.277339e+01   4.198802e+00
   3.946315e+01   1.899578e+01
   1.748891e+01   3.264132e+00
  -3.724302e+00  -1.412135e+01
  -3.496690e+00   3.028645e+00
  -4.998523e+00   3.548785e+01
  -1.312202e+01   4.325961e+01
  -3.285351e+01   1.151699e+01
  -3.187645e+01  -3.584483e+01
  -1.547484e+00  -6.374720e+01
   4.265558e+01  -1.956416e+01
   5.756570e+01   3.268122e+01
   1.786073e+01   6.149207e+01
  -5.166421e+01   3.727522e+01
  -8.269236e+01  -2.560484e+00
  -4.404565e+01  -3.752116e+01
   2.379136e+01  -3.965433e+01
   5.538060e+01  -2.940934e+01
   2.278157e+01  -5.119659e+00
  -3.394033e+01  -2.135327e+00
  -3.170941e+01  -1.190342e+01
   2.689475e+01  -2.940211e+01
   7.836620e+01  -3.305486e+01
