
 $NMID
 id='ANONYMOUS ', fmtdat='(2E16.6)'
 volume=1.0
 tramp=1.0
 $END
  -4.735946e+03   2.571752e+02
  -2.647847e+03  -3.346265e+03
   7.919919e+02  -2.775651e+03
   2.303222e+03  -8.340474e+02
   9.477519e+02   8.333909e+02
  -6.940101e+02   5.325629e+02
  -9.660705e+02  -4.251231e+02
   1.270629e+02  -1.205041e+03
   1.018288e+03  -1.013353e+03
   1.059190e+03   2.537855e+02
   4.548078e+02   9.256022e+02
  -4.605451e+02   9.325211e+02
  -7.779314e+02  -1.233350e+01
  -2.914022e+02  -7.401570e+02
   3.587073e+02  -7.719929e+02
   5.950831e+02   6.646180e+01
   2.688447e+02   7.468988e+02
  -2.781901e+02   5.655356e+02
  -5.991114e+02   9.463799e+01
  -4.308282e+02  -3.823249e+02
  -4.996426e+00  -4.055216e+02
   2.464470e+02  -3.041223e+02
   2.651271e+02  -2.265749e+01
  -1.533470e+02   1.125480e+02
  -4.770027e+02  -1.871774e+02
  -1.581612e+02  -4.781570e+02
   4.550257e+02  -3.955170e+02
   9.549837e+02   4.761842e+01
   4.119416e+02   6.594205e+02
  -3.644930e+02   5.676628e+02
  -8.793351e+02  -4.527681e+01
  -3.162405e+02  -5.469125e+02
   2.867105e+02  -5.911848e+02
   5.630271e+02  -3.126587e+02
   3.699081e+02   2.769799e+02
   8.407154e+01   5.718525e+02
  -2.970813e+02   2.800559e+02
  -1.929035e+02  -2.888129e+02
   2.172564e+02  -4.372793e+02
   4.608854e+02   8.553873e+01
   1.633560e+02   6.976899e+02
  -3.780559e+02   7.317441e+02
  -7.814823e+02  -3.804222e+01
  -2.874487e+02  -6.588379e+02
   3.895285e+02  -2.538173e+02
   3.520858e+02   3.417884e+02
  -6.065998e+01   6.318564e+02
  -5.245752e+02   9.759018e+01
  -6.812599e+02  -4.742167e+02
  -1.394921e+02  -5.979805e+02
   4.719740e+02  -3.848627e+02
   6.804592e+02   8.614255e+01
   3.823916e+02   4.112258e+02
  -2.247182e+02   3.776995e+02
  -5.012887e+02   7.950283e+01
  -2.596187e+02  -2.484043e+02
   1.343240e+02  -9.624222e+01
   1.227083e+02   1.756663e+02
  -2.129612e+02   1.737455e+02
  -3.370785e+02  -1.485189e+02
  -1.680650e+02  -3.283928e+02
   2.243181e+02  -2.967300e+02
   3.511372e+02  -5.207907e+01
   1.855534e+02   9.903249e+01
  -2.767338e+01   2.589902e+02
  -1.968493e+02   3.631780e+02
  -3.877870e+02   2.418968e+02
  -3.042805e+02  -1.935671e+02
  -1.296009e+02  -4.682784e+02
   1.144686e+02  -4.262084e+02
   1.386350e+02  -1.176824e+02
   2.596516e+01   3.260302e+01
   3.004565e+01  -9.643931e+01
   2.373042e+02  -9.537942e+01
   3.057219e+02   8.208026e+01
   1.595720e+02   3.167854e+02
  -9.401793e+01   2.973719e+02
  -2.834748e+02  -2.193374e+01
  -1.902141e+02  -2.711764e+02
   4.382529e+01  -3.446721e+02
   2.965692e+02  -9.281343e+01
   3.604402e+02   2.225567e+02
   1.840832e+02   3.359475e+02
  -1.272289e+02   3.346161e+02
  -2.547592e+02   1.127586e+02
  -1.524198e+02   2.271357e+01
  -1.014538e+02   4.824183e+01
  -2.802918e+02   6.424617e+01
  -4.465247e+02  -6.770259e+01
  -3.489931e+02  -3.425889e+02
   1.036841e+02  -4.639706e+02
   3.963104e+02  -4.647839e+02
   5.231314e+02  -1.706108e+02
   3.686475e+02   8.797673e+01
   2.834946e+01   3.457480e+02
  -1.604207e+02   2.618502e+02
  -7.676082e+01   3.045428e+01
   1.308498e+02  -9.321206e+01
   2.385212e+02   1.259823e+00
   3.668420e+01   2.444929e+02
  -1.816943e+02   1.592816e+02
  -1.934641e+02  -7.962580e+01
   3.617648e+01  -2.193623e+02
   2.367186e+02  -4.099996e+01
   1.606989e+02   2.949538e+02
  -7.573054e+01   3.568213e+02
  -2.370311e+02   1.865286e+02
  -3.752240e+02  -3.235793e+01
  -3.239256e+02  -2.485075e+02
  -6.430176e+01  -3.216172e+02
   1.119810e+02  -1.731106e+02
   1.856770e+02  -2.700565e+01
   7.417815e+01   4.843598e+01
  -7.401674e+01  -4.044716e+01
  -4.748919e+01  -1.424695e+02
   1.319442e+02  -9.804467e+01
   1.962574e+02   1.763472e+01
   5.814706e+01   8.343162e+01
  -7.791347e+01   2.371041e+01
  -6.147484e+01  -8.123309e+01
   1.195128e+02  -8.354135e+01
   2.920591e+02  -1.818539e+00
   3.343826e+02   1.120021e+02
   5.693719e+01   2.899952e+02
  -2.012675e+02   2.818264e+02
  -3.037640e+02   1.543372e+02
  -1.768428e+02  -6.365824e+01
   4.395245e+01  -1.164148e+02
   1.105440e+02  -1.144084e+01
  -3.728219e+01   1.215952e+02
  -1.993172e+02   6.355456e+01
  -2.140326e+02  -1.215773e+02
  -5.766197e+01  -2.215187e+02
   1.082015e+02  -1.974387e+02
   1.566564e+02  -3.215406e+01
   7.368335e+01   5.412231e+01
  -3.263267e+01   4.596789e+00
  -2.196280e+01  -8.525167e+01
   7.174499e+01  -1.302039e+02
   2.025087e+02  -4.556490e+01
   2.063576e+02   1.217630e+02
   3.762990e+01   2.306502e+02
  -1.731964e+02   1.492145e+02
  -1.957815e+02  -1.074200e+01
  -7.157013e+01  -1.316860e+02
   7.516466e+01  -1.090159e+02
   9.182785e+01  -2.846990e+01
   1.798725e+01   2.606766e+01
  -2.539687e+01   1.415471e+01
   9.078389e+00  -3.029131e+00
   7.374837e+01   2.322559e+01
   1.027985e+02   8.162612e+01
   1.646825e+01   1.625574e+02
  -1.442031e+02   1.463662e+02
  -2.368131e+02   2.119608e+00
  -1.772278e+02  -1.739618e+02
  -4.401577e+01  -2.639855e+02
   1.212425e+02  -1.567477e+02
   1.312502e+02  -1.817695e+01
   6.724267e+01   7.793411e+01
   3.266673e+01   3.713425e+01
   5.658190e+01  -7.273466e+00
   8.267565e+01  -1.577919e+01
   3.192083e+01   5.492858e+01
  -6.409799e+01   8.536992e+01
  -1.004918e+02   5.366343e+01
  -8.790544e+01  -5.385048e+01
   2.087899e+01  -1.144079e+02
   1.421496e+02  -1.161875e+02
   2.107046e+02   3.995369e+01
   1.023025e+02   2.254077e+02
  -1.387526e+02   2.242338e+02
  -2.795024e+02   8.866030e+01
  -2.919302e+02  -9.656219e+01
  -1.129099e+02  -1.850166e+02
   5.448414e+01  -1.616129e+02
   9.297382e+01  -8.204016e+01
   9.106041e+01  -7.369076e+01
   7.092388e+01  -9.044690e+01
   1.152809e+02  -7.369389e+01
   1.348011e+02   2.309247e+01
   1.212712e+02   1.630140e+02
   1.741848e+01   2.093524e+02
  -1.161657e+02   1.955899e+02
  -1.849574e+02   3.315504e+01
  -1.432192e+02  -1.319192e+02
  -2.241435e+01  -1.641197e+02
   5.863533e+01  -1.026341e+02
   6.373835e+01   4.175843e+00
   3.650551e+00   4.201787e+01
  -1.464475e+01   3.596406e+01
   3.596804e+01   2.563487e+01
   9.359221e+01   2.957015e+01
   4.348121e+01   3.932393e+01
  -6.208905e+01   4.368589e+01
  -1.477386e+02   7.883392e-01
  -1.482957e+02  -5.921032e+01
  -9.820236e+00  -9.469300e+01
   1.242104e+02  -7.824197e+01
   1.641377e+02  -6.983662e+00
   5.279188e+01   4.333804e+01
  -7.012607e+01   3.721880e+01
  -7.883923e+01  -1.967474e+01
  -7.910050e-01  -6.711819e+01
   5.412730e+01  -5.632540e+01
   6.340774e+01   9.526043e+00
   4.306501e+01   5.062113e+01
   4.248327e+01   4.154438e+01
   6.376736e+01   1.138189e+01
   6.766033e+01  -3.054695e+00
   3.649095e+01   6.483896e+01
  -3.554337e+01   1.382522e+02
  -1.176947e+02   1.549521e+02
  -1.636552e+02   4.521065e+01
  -1.364829e+02  -1.037850e+02
   1.074720e+01  -1.191959e+02
   8.990041e+01  -6.143026e+01
   5.467410e+01   2.122003e+01
  -6.350229e+01   1.632495e+01
  -1.539008e+02  -3.219327e+01
  -7.021863e+01  -1.136428e+02
   8.874502e+01  -1.171906e+02
   2.002083e+02  -6.241297e+01
   1.725948e+02   5.172816e+01
   3.469860e+01   1.013900e+02
  -7.372138e+01   7.642111e+01
  -5.773402e+01   8.385709e+00
   3.560749e+01  -2.934727e+01
   8.980960e+01   3.011246e+01
   3.196925e+01   1.122258e+02
  -9.729797e+01   1.590628e+02
  -1.635204e+02   6.035640e+01
  -1.089120e+02  -1.347273e+02
   1.009421e+00  -2.345837e+02
   1.203835e+02  -1.435533e+02
   1.085951e+02   1.128642e+01
   6.671772e+01   1.130066e+02
  -1.904629e+00   1.201998e+02
  -5.243288e+01   2.776580e+01
  -5.901690e+01  -2.687832e+01
  -2.674119e+01  -9.149551e+00
  -4.243206e+00   2.200245e+01
  -2.302283e+01  -1.506356e+01
  -6.315208e+01  -1.026501e+02
  -3.725563e+01  -1.236318e+02
   4.408694e+01  -4.970704e+01
   1.342632e+02   5.190443e+01
   1.139629e+02   8.319669e+01
   1.012881e+01   5.620514e+01
  -9.976232e+01   2.034053e+01
  -9.511135e+01   1.096267e+01
  -1.002001e+01  -7.423341e+00
   4.463541e+01  -2.196736e+01
   1.169661e+01  -2.244506e+01
  -2.490671e+01  -6.652673e-01
   6.510133e+00   1.025120e+01
   7.446037e+01  -3.999188e+00
   8.373746e+01   4.252437e+01
   1.065279e+01   8.199291e+01
  -1.159288e+02   1.204749e+02
  -1.924717e+02   7.375437e+01
  -1.664589e+02  -6.146205e+01
   7.700701e+00  -1.575608e+02
   1.005149e+02  -1.608077e+02
   1.203218e+02  -4.466777e+01
   7.958793e+01   2.547556e+01
   2.600479e+01   3.659069e+01
  -3.318486e+00   9.152801e+00
   1.033869e+01   4.296579e+00
   3.150773e+01   5.318822e+01
   2.021630e+01   9.333779e+01
  -2.392317e+01   7.920141e+01
  -8.096659e+01  -2.306894e+01
  -7.821508e+01  -1.101305e+02
   1.094704e+01  -1.195676e+02
   8.311376e+01  -2.808857e+01
   9.521125e+01   8.815741e+01
   3.223823e+01   1.033610e+02
  -6.993857e+01   5.055656e+01
  -1.074898e+02  -6.806202e+00
  -4.149229e+01  -5.779259e+01
   3.575475e+01  -4.830186e+01
   3.293780e+01  -3.273275e+01
  -3.476339e+01  -1.616880e+00
  -6.307956e+01   6.877425e-01
  -1.265468e+01  -2.704427e+01
   8.830588e+01  -7.818744e+01
   1.340297e+02  -6.860288e+01
   6.167743e+01   1.250907e+01
  -2.324157e+01   8.625058e+01
  -5.937113e+01   9.684804e+01
  -4.079669e+01   1.863147e+00
   3.316033e+00  -6.254500e+01
   3.140581e+01  -4.714066e+01
   3.884375e+01   1.664694e+01
   2.582088e+01   5.960763e+01
  -7.861990e+00   3.621482e+01
  -3.340142e+01  -1.316794e+01
  -4.032423e+01  -2.426934e+01
  -2.168997e+01  -1.453540e+00
  -8.934839e-01   1.522504e+01
   9.200170e+00  -8.093688e+00
   8.137615e+00  -3.753870e+01
   2.596721e+01  -5.431910e+01
   3.796202e+01  -4.849752e+00
   2.365188e+01   5.468795e+01
  -4.176038e+00   6.566333e+01
  -4.481273e+01   2.500875e+01
  -5.738707e+01  -5.177073e+01
  -1.330305e+01  -6.612562e+01
   6.040799e+01  -3.666495e+01
   9.448228e+01   1.251817e+01
   5.054533e+01   4.890088e+01
  -2.547513e+01   3.852471e+01
  -6.650483e+01   1.661419e+01
  -2.505755e+01   5.640135e+00
   4.148319e+01   8.735982e+00
   4.252362e+01   1.808983e+01
  -2.979355e+01   3.204784e+01
  -1.033354e+02   2.135630e+01
