
 $NMID
 id='ANONYMOUS ', fmtdat='(2E16.6)'
 volume=1.0
 tramp=1.0
 $END
  -4.535140e+03   9.916356e+02
  -2.525285e+03  -2.609187e+03
   7.358216e+02  -2.626753e+03
   2.237125e+03  -1.094420e+03
   1.052213e+03   5.736939e+02
  -7.141702e+02   5.700685e+02
  -9.895723e+02  -4.608242e+02
   3.654896e+01  -9.903702e+02
   9.483021e+02  -8.339637e+02
   9.975536e+02   1.552007e+02
   5.028013e+02   9.773275e+02
  -2.900559e+02   8.564835e+02
  -7.093955e+02   4.201044e+01
  -3.732628e+02  -7.647353e+02
   2.340084e+02  -7.066411e+02
   7.108245e+02  -3.665192e+00
   3.060391e+02   5.482915e+02
  -2.870847e+02   6.723455e+02
  -6.337289e+02   1.077297e+02
  -4.761232e+02  -3.531833e+02
  -4.126018e+01  -4.559856e+02
   2.710595e+02  -2.749589e+02
   2.205533e+02  -4.328823e+01
  -1.413222e+02   7.313887e+01
  -4.259568e+02  -1.513735e+02
  -2.695720e+02  -4.261652e+02
   5.190528e+02  -4.175601e+02
   8.985463e+02   1.116792e+02
   4.528637e+02   6.554093e+02
  -4.850023e+02   5.381684e+02
  -8.599440e+02  -1.138146e+02
  -4.179421e+02  -4.779297e+02
   2.061009e+02  -5.963249e+02
   6.278058e+02  -2.469188e+02
   4.580789e+02   2.907978e+02
   2.097948e+01   4.603393e+02
  -2.536000e+02   2.060335e+02
  -2.020904e+02  -2.278999e+02
   1.626475e+02  -3.551218e+02
   4.346552e+02  -2.985331e+01
   2.679675e+02   7.202505e+02
  -3.272642e+02   7.790145e+02
  -6.032313e+02   1.652567e+01
  -3.310971e+02  -5.975791e+02
   3.015572e+02  -4.018005e+02
   4.623626e+02   3.062591e+02
  -9.452946e+01   6.084614e+02
  -5.895541e+02   1.266500e+02
  -5.479489e+02  -4.225650e+02
  -1.932429e+02  -6.974347e+02
   3.646655e+02  -3.385191e+02
   6.924016e+02   6.424928e+01
   3.793761e+02   4.102204e+02
  -1.442589e+02   3.182604e+02
  -3.978695e+02   3.740742e+01
  -2.437152e+02  -2.647263e+02
   1.255145e+02  -9.280015e+01
   1.478432e+02   1.671077e+02
  -1.876714e+02   1.316668e+02
  -3.926634e+02  -4.230885e+01
  -1.587459e+02  -3.075856e+02
   2.002862e+02  -2.807636e+02
   3.699157e+02  -5.317027e+01
   1.912443e+02   1.070072e+02
  -2.704812e+01   2.617723e+02
  -1.817689e+02   3.220866e+02
  -3.235804e+02   2.598472e+02
  -3.147807e+02  -1.383318e+02
  -5.930839e+01  -5.119889e+02
   1.483126e+02  -4.583660e+02
   1.238881e+02  -1.091245e+02
   3.693931e+01   2.499389e+01
   5.645514e+01  -9.484527e+01
   1.704031e+02  -1.257468e+02
   2.833426e+02   1.408418e+01
   1.769801e+02   2.776638e+02
  -8.711909e+01   2.831720e+02
  -2.418838e+02   3.226573e+01
  -2.305594e+02  -2.335366e+02
  -2.774473e+01  -2.894916e+02
   2.866608e+02  -1.378998e+02
   3.706988e+02   1.889552e+02
   2.566291e+02   3.777563e+02
  -8.791288e+01   3.354897e+02
  -2.167235e+02   1.507109e+02
  -1.585627e+02   1.445464e+01
  -9.743332e+01   4.383547e+01
  -2.488176e+02   3.845236e+01
  -4.082273e+02   1.218868e+01
  -3.103560e+02  -3.004437e+02
   6.682411e+01  -4.895383e+02
   3.670231e+02  -4.491463e+02
   4.990565e+02  -2.038450e+02
   3.513639e+02   1.153168e+02
   5.450334e+01   3.052466e+02
  -1.867270e+02   2.603377e+02
  -1.008181e+02   3.371127e+01
   9.601774e+01  -9.763581e+01
   2.157650e+02  -3.535240e+00
   4.716465e+01   1.731229e+02
  -1.208055e+02   1.742793e+02
  -2.003040e+02  -7.510461e+01
   3.921347e+00  -1.914235e+02
   1.961787e+02  -3.379477e+01
   1.555431e+02   2.473664e+02
  -5.729879e+01   3.627204e+02
  -2.544250e+02   2.162548e+02
  -3.736376e+02  -4.882487e+01
  -2.858539e+02  -2.227436e+02
  -1.117103e+02  -2.867184e+02
   1.196204e+02  -1.837821e+02
   1.876854e+02  -2.859902e+01
   5.495852e+01   3.952502e+01
  -7.189179e+01  -4.271625e+01
  -2.396639e+01  -1.624755e+02
   1.283410e+02  -1.187503e+02
   1.929597e+02   1.462875e+01
   6.300017e+01   8.024083e+01
  -8.320013e+01   2.995225e+01
  -5.396955e+01  -8.099738e+01
   1.484601e+02  -9.436836e+01
   3.150711e+02   1.769935e+00
   2.782325e+02   1.088239e+02
   6.259661e+01   2.736500e+02
  -1.888439e+02   2.611530e+02
  -2.910285e+02   1.250009e+02
  -2.000196e+02  -4.337050e+01
   3.461453e+01  -1.273381e+02
   9.669501e+01  -1.296211e+01
  -2.436747e+01   9.951547e+01
  -2.030028e+02   8.112903e+01
  -2.182095e+02  -1.067794e+02
  -8.260294e+01  -1.922161e+02
   9.036246e+01  -1.513565e+02
   1.481580e+02  -2.394674e+01
   7.626914e+01   4.791885e+01
  -1.925677e+01   1.054468e+01
  -3.887142e+01  -1.027021e+02
   8.803840e+01  -1.170296e+02
   2.393948e+02  -4.003574e+01
   1.962399e+02   1.308571e+02
   4.023637e+01   2.340380e+02
  -1.722888e+02   1.744858e+02
  -2.120678e+02  -1.895244e+01
  -7.737245e+01  -1.277184e+02
   5.836436e+01  -1.209695e+02
   8.160785e+01  -3.042649e+01
   1.912024e+01   2.273732e+01
  -1.645910e+01   1.960927e+01
   8.343607e+00  -4.941491e+00
   6.564082e+01   1.030099e+01
   7.966979e+01   6.490406e+01
   3.546845e+01   1.538548e+02
  -1.111994e+02   1.732202e+02
  -2.376659e+02   2.987770e+01
  -2.158369e+02  -1.586114e+02
  -8.941728e+00  -2.511466e+02
   9.639325e+01  -2.036665e+02
   1.399074e+02  -4.769527e+01
   6.719191e+01   5.283462e+01
   3.084218e+01   4.225676e+01
   5.849626e+01  -1.219831e+01
   8.376690e+01  -1.494720e+01
   5.049162e+01   6.149081e+01
  -4.561811e+01   8.969274e+01
  -1.071039e+02   6.677681e+01
  -8.212506e+01  -4.688252e+01
   1.686247e+01  -1.018304e+02
   1.532637e+02  -7.285370e+01
   2.069867e+02   2.680700e+01
   1.087226e+02   1.666054e+02
  -1.002622e+02   2.582992e+02
  -3.154500e+02   1.288740e+02
  -2.938189e+02  -8.596360e+01
  -1.213865e+02  -1.838621e+02
   4.984451e+01  -1.534627e+02
   1.026151e+02  -9.368664e+01
   8.837962e+01  -6.079949e+01
   5.859217e+01  -9.328058e+01
   9.256571e+01  -6.085871e+01
   1.462639e+02   4.899515e+01
   1.242891e+02   1.606248e+02
   6.689274e+01   2.385313e+02
  -1.071593e+02   1.787403e+02
  -1.884125e+02   4.346594e+01
  -1.241380e+02  -1.186037e+02
  -1.349822e+01  -1.910474e+02
   5.700953e+01  -1.055302e+02
   6.620419e+01  -1.912721e+00
   6.434084e+00   4.540765e+01
  -1.026005e+01   3.382629e+01
   3.635568e+01   1.599069e+01
   8.207466e+01   2.128053e+01
   4.583673e+01   3.910456e+01
  -5.876039e+01   3.863614e+01
  -1.941527e+02   2.390095e+01
  -1.529432e+02  -5.165948e+01
  -1.040385e+01  -9.626759e+01
   1.213376e+02  -6.921784e+01
   1.498877e+02  -5.511439e+00
   5.608772e+01   4.645367e+01
  -7.052582e+01   3.760997e+01
  -8.117054e+01  -1.031073e+01
  -1.705747e+01  -7.117425e+01
   6.002875e+01  -6.203086e+01
   6.500127e+01   4.736772e+00
   4.312035e+01   5.710077e+01
   4.534849e+01   4.536200e+01
   6.574675e+01   1.494788e+00
   7.148240e+01   5.647434e-01
   4.469186e+01   8.082294e+01
  -4.917742e+01   1.592987e+02
  -1.246692e+02   1.588095e+02
  -1.874030e+02   4.635510e+01
  -1.298575e+02  -9.606193e+01
  -4.285284e+00  -1.447360e+02
   9.891835e+01  -5.675230e+01
   6.273076e+01   2.280292e+01
  -5.569645e+01   1.010698e+01
  -1.352293e+02  -4.256024e+01
  -7.945759e+01  -1.064942e+02
   9.305481e+01  -1.164002e+02
   2.168586e+02  -4.988373e+01
   1.568414e+02   1.293136e+01
   2.393338e+01   9.819500e+01
  -4.935010e+01   5.994552e+01
  -4.974628e+01   9.663135e+00
   4.412882e+01  -3.854523e+01
   9.438277e+01   2.306402e+01
   2.731627e+01   1.316473e+02
  -8.826879e+01   1.650216e+02
  -1.761268e+02   6.947033e+01
  -1.339001e+02  -9.236683e+01
  -1.246216e+01  -1.874739e+02
   9.584801e+01  -1.477485e+02
   1.061799e+02   2.112122e+01
   8.141979e+01   1.309878e+02
  -1.723465e+00   1.093905e+02
  -4.213303e+01   2.095944e+01
  -6.035082e+01  -3.016323e+01
  -2.861705e+01  -9.245508e+00
  -2.015428e+00   2.039558e+01
  -2.235943e+01  -1.773510e+01
  -5.562850e+01  -9.640289e+01
  -5.040587e+01  -8.621689e+01
   4.745467e+01  -5.035038e+01
   1.454935e+02   6.100093e+01
   1.358848e+02   9.006630e+01
   1.806832e+01   4.672529e+01
  -9.440011e+01   1.475533e+01
  -9.378736e+01   7.773434e-01
  -1.160786e+01  -6.187869e+00
   3.622863e+01  -2.162555e+01
   1.523091e+01  -1.955201e+01
  -2.091441e+01   3.214603e+00
   7.515613e+00   1.062431e+01
   7.741995e+01   8.467368e+00
   1.000609e+02   2.742656e+01
  -1.823057e+00   8.730913e+01
  -1.274723e+02   1.193519e+02
  -1.682191e+02   7.940790e+01
  -1.410967e+02  -6.525987e+01
  -3.332034e+01  -1.586128e+02
   7.352944e+01  -1.269676e+02
   1.165471e+02  -6.465133e+01
   8.311753e+01   2.219520e+01
   2.974964e+01   4.308488e+01
  -2.903631e+00   9.305902e+00
   1.225427e+01   3.814323e+00
   2.950818e+01   4.019090e+01
   2.611580e+01   9.467704e+01
  -3.455021e+01   8.019692e+01
  -8.554596e+01  -1.644953e+01
  -7.318016e+01  -1.317027e+02
  -1.244073e+00  -1.236408e+02
   9.024230e+01  -1.677476e+01
   1.041326e+02   8.499600e+01
   3.102250e+01   9.241116e+01
  -7.470001e+01   5.797737e+01
  -1.041088e+02  -8.050206e+00
  -4.042295e+01  -5.680092e+01
   3.683593e+01  -5.398824e+01
   3.539477e+01  -2.894119e+01
  -3.654018e+01  -3.013873e+00
  -7.971630e+01   7.368349e+00
  -1.620265e+01  -2.619558e+01
   8.790246e+01  -7.003341e+01
   1.185679e+02  -7.095125e+01
   6.799042e+01   1.347633e+01
  -1.817336e+01   8.407077e+01
  -6.132412e+01   8.618937e+01
  -3.255343e+01   6.740989e-01
  -2.478829e+00  -5.524372e+01
   2.208855e+01  -4.604531e+01
   3.715453e+01   1.554331e+01
   3.702658e+01   5.347980e+01
  -5.484501e+00   3.293629e+01
  -2.974291e+01  -3.662242e+00
  -4.361036e+01  -2.139613e+01
  -2.274719e+01  -9.253191e-01
  -3.525782e-01   1.362425e+01
   9.390308e+00  -3.852998e+00
   8.227080e+00  -3.519604e+01
   1.591583e+01  -4.255969e+01
   3.747670e+01  -6.557481e+00
   2.878327e+01   5.193303e+01
   2.340435e+00   6.067436e+01
  -4.528164e+01   2.157420e+01
  -6.100243e+01  -4.671053e+01
  -1.993275e+01  -7.175975e+01
   4.845903e+01  -3.162552e+01
   9.058971e+01   2.034253e+01
   5.185674e+01   4.106739e+01
  -3.070905e+01   4.891840e+01
  -6.205761e+01   2.629229e+01
  -2.437632e+01   1.135677e+00
   4.013452e+01   3.171324e+00
   4.267789e+01   1.651052e+01
  -2.929690e+01   3.685986e+01
  -9.406289e+01   2.459491e+01
