
 $NMID
 id='ANONYMOUS ', fmtdat='(2E16.6)'
 volume=1.0
 tramp=1.0
 $END
  -3.663104e+03   3.486721e+02
  -2.535568e+03  -2.033242e+03
   1.519157e+02  -1.982005e+03
   1.747268e+03  -1.142287e+03
   1.135664e+03  -2.172644e+01
  -4.871884e+02   3.507364e+02
  -5.525356e+02  -2.076098e+02
   2.014614e+01  -6.846849e+02
   4.948897e+02  -8.029990e+02
   7.917587e+02  -1.208019e+02
   4.023149e+02   7.329830e+02
  -6.809899e+01   7.480328e+02
  -5.332706e+02   2.010329e+02
  -3.823248e+02  -5.362801e+02
   2.060308e+02  -5.750526e+02
   5.356142e+02  -4.613963e+01
   3.181659e+02   5.367793e+02
  -1.840330e+02   6.181127e+02
  -4.439266e+02   1.561196e+02
  -4.321302e+02  -2.374573e+02
  -8.367916e+01  -4.070988e+02
   2.355416e+02  -2.161609e+02
   1.427886e+02  -2.621420e+01
  -1.767504e+02   7.050118e+00
  -3.765891e+02  -2.090363e+02
  -1.713214e+02  -3.105810e+02
   4.974694e+02  -2.960935e+02
   6.621277e+02   6.247406e+01
   3.425153e+02   4.992312e+02
  -4.120861e+02   3.324204e+02
  -4.742250e+02  -2.253782e+01
  -3.445629e+02  -4.389540e+02
   3.168858e+02  -3.973474e+02
   4.804931e+02  -2.005746e+02
   3.542551e+02   1.699481e+02
   5.665270e+01   3.767093e+02
  -9.244769e+01   1.732423e+02
  -7.101039e+01  -1.693891e+02
   1.125247e+02  -3.095407e+02
   3.926175e+02   1.001542e+02
   4.893920e+01   6.013184e+02
  -2.488665e+02   7.070471e+02
  -4.164152e+02  -3.305601e+00
  -2.544674e+02  -3.551604e+02
   3.210587e+02  -2.333674e+02
   3.614354e+02   2.702024e+02
  -5.868554e+01   4.034164e+02
  -5.331815e+02   1.420400e+02
  -4.812812e+02  -3.606557e+02
  -2.294085e+02  -4.982911e+02
   3.322023e+02  -3.146057e+02
   5.634506e+02   7.447039e+01
   3.967841e+02   2.684047e+02
  -5.771241e+01   2.909887e+02
  -3.061468e+02   6.002524e+01
  -2.283041e+02  -1.174554e+02
   6.028168e+01  -5.033808e+01
   1.334152e+02   8.375503e+01
  -1.231843e+02   1.112491e+02
  -2.821766e+02   3.035629e+01
  -1.348207e+02  -2.117696e+02
   1.662892e+02  -2.506664e+02
   3.397853e+02  -1.040426e+02
   2.346120e+02   8.714448e+01
   1.499326e+01   2.449180e+02
  -2.366485e+02   3.481215e+02
  -3.184737e+02   2.340939e+02
  -2.679576e+02  -1.353748e+02
  -2.783240e+01  -3.996654e+02
   3.558005e+01  -3.681375e+02
   4.195468e+01  -1.281865e+02
   6.799105e+00  -5.015139e+01
   6.149332e+01  -1.171225e+02
   1.978850e+02  -9.430491e+01
   2.545537e+02   4.081931e+01
   9.496587e+01   2.204757e+02
  -4.887359e+01   2.267986e+02
  -2.001900e+02  -2.130538e+01
  -2.233792e+02  -1.977694e+02
  -6.759852e+00  -2.848221e+02
   2.271730e+02  -9.652337e+01
   3.138712e+02   1.475769e+02
   1.800021e+02   2.983027e+02
  -4.212585e+01   3.201994e+02
  -1.931741e+02   1.556986e+02
  -1.413131e+02   5.121659e+01
  -1.221344e+02   6.601916e+01
  -2.298417e+02   5.084724e+01
  -3.919942e+02  -6.870322e+01
  -3.171820e+02  -2.597681e+02
   4.601894e+01  -4.038240e+02
   3.802071e+02  -3.672382e+02
   3.991118e+02  -1.893927e+02
   3.108669e+02   5.404660e+01
   5.501038e+01   2.525095e+02
  -1.078998e+02   1.935450e+02
  -5.963991e+01   1.096815e+01
   1.059319e+02  -1.014523e+02
   1.528000e+02  -1.164908e+00
   4.173991e+01   1.659158e+02
  -1.327057e+02   1.551264e+02
  -1.294227e+02  -7.675207e+01
   1.864581e+01  -1.613818e+02
   1.666707e+02  -3.676613e+00
   1.636761e+02   2.308956e+02
   1.959205e+01   3.232765e+02
  -2.045781e+02   2.477615e+02
  -3.405584e+02  -1.216683e+01
  -2.651794e+02  -1.896363e+02
  -7.728781e+01  -2.510310e+02
   1.445558e+02  -1.412164e+02
   1.581066e+02  -1.129062e+01
   3.735473e+01   2.053917e+01
  -6.686260e+01  -5.540243e+01
  -1.334555e+01  -1.149896e+02
   1.080761e+02  -9.890444e+01
   1.393104e+02   7.681174e+00
   5.391221e+01   5.899773e+01
  -7.695440e+01   2.315148e+01
  -5.727497e+01  -6.955918e+01
   1.176554e+02  -9.775276e+01
   2.935980e+02   7.498573e+00
   2.695504e+02   1.313800e+02
   1.151227e+01   2.354205e+02
  -2.041520e+02   2.340491e+02
  -2.581829e+02   1.041645e+02
  -1.507082e+02  -6.880300e+01
   3.824259e+01  -7.765179e+01
   7.037368e+01  -7.414319e+00
  -4.570836e+01   8.165140e+01
  -1.883131e+02   2.229721e+01
  -1.793758e+02  -8.844940e+01
  -1.004301e+02  -1.904008e+02
   6.892390e+01  -1.418752e+02
   1.315380e+02  -2.405660e+01
   4.576448e+01   3.856368e+01
  -3.605581e+01  -4.342535e+00
  -3.751867e+01  -8.511071e+01
   8.363444e+01  -1.030488e+02
   2.082357e+02  -1.009919e+01
   1.546493e+02   1.300930e+02
   1.679053e+01   2.186017e+02
  -1.592400e+02   1.573929e+02
  -1.658189e+02   1.079501e+01
  -6.022744e+01  -1.023677e+02
   5.023078e+01  -1.130403e+02
   6.194540e+01  -3.167580e+01
   1.322485e+01   2.278255e+01
  -2.021313e+01   1.427668e+01
  -6.806095e-01  -2.154216e+01
   7.574682e+01  -1.076390e+01
   8.966578e+01   8.132251e+01
   1.892707e+01   1.524586e+02
  -1.115886e+02   1.465162e+02
  -2.169853e+02  -2.040184e-01
  -2.015919e+02  -1.553911e+02
  -7.389318e+01  -2.309658e+02
   8.051439e+01  -1.821299e+02
   1.153649e+02  -3.455185e+01
   8.022413e+01   3.285893e+01
   3.054729e+01   2.937727e+01
   5.009296e+01  -1.951858e+01
   7.535056e+01  -3.409248e+00
   4.347480e+01   5.881013e+01
  -3.524279e+01   9.966331e+01
  -9.794642e+01   7.254716e+01
  -9.287554e+01  -2.393280e+01
   1.569111e+00  -1.113169e+02
   1.316699e+02  -6.996674e+01
   1.962188e+02   4.312041e+01
   8.322204e+01   1.949790e+02
  -1.044345e+02   2.321656e+02
  -2.414696e+02   8.555481e+01
  -2.084688e+02  -7.209239e+01
  -1.046822e+02  -1.663349e+02
   2.732897e+01  -1.285932e+02
   9.809647e+01  -7.054784e+01
   7.936782e+01  -6.260503e+01
   5.056214e+01  -1.075339e+02
   8.612176e+01  -7.375043e+01
   1.139167e+02   7.759651e+00
   1.161160e+02   1.447925e+02
   3.891869e+01   1.974360e+02
  -6.915635e+01   1.737056e+02
  -1.712675e+02   3.531461e+01
  -1.382243e+02  -1.070343e+02
  -2.732560e+01  -1.416190e+02
   5.588860e+01  -8.334409e+01
   6.154284e+01   7.344748e+00
   1.012979e+01   5.273712e+01
  -1.100947e+01   3.662818e+01
   3.456842e+01   9.011601e+00
   8.064748e+01   1.251793e+01
   4.521447e+01   3.641536e+01
  -6.344110e+01   4.270893e+01
  -1.521673e+02   7.109545e+00
  -1.483987e+02  -4.797277e+01
   2.533204e+00  -8.883777e+01
   1.135009e+02  -8.132993e+01
   1.412655e+02  -1.823627e+01
   5.306528e+01   4.606884e+01
  -5.385177e+01   4.350344e+01
  -7.858322e+01  -8.495401e+00
  -1.938664e+01  -6.151237e+01
   4.613654e+01  -6.199600e+01
   6.117034e+01  -4.938888e+00
   5.550978e+01   4.046948e+01
   5.324239e+01   3.434196e+01
   4.925196e+01   7.843844e-01
   6.356511e+01   1.051268e+01
   4.679335e+01   6.697670e+01
  -2.079208e+01   1.402287e+02
  -1.145441e+02   1.459916e+02
  -1.684114e+02   4.802923e+01
  -1.154288e+02  -7.179894e+01
   5.748554e+00  -1.339592e+02
   8.157195e+01  -8.260391e+01
   6.504925e+01  -3.357309e+00
  -5.477105e+01   2.267080e+01
  -1.224838e+02  -3.169972e+01
  -6.587377e+01  -9.924575e+01
   8.152039e+01  -1.064150e+02
   1.679131e+02  -6.286373e+01
   1.474476e+02   1.146073e+01
   1.572479e+01   8.165150e+01
  -6.049874e+01   6.087991e+01
  -4.899356e+01   6.020333e+00
   3.519748e+01  -3.128133e+01
   9.000358e+01   8.395723e+00
   4.391176e+01   1.072398e+02
  -6.268325e+01   1.314498e+02
  -1.560035e+02   5.740625e+01
  -1.409794e+02  -7.189963e+01
  -1.744070e+01  -1.701850e+02
   6.075423e+01  -1.366785e+02
   9.948960e+01   4.341969e+00
   7.220196e+01   1.152076e+02
   2.083532e+00   9.124188e+01
  -4.196777e+01   1.796251e+01
  -5.005857e+01  -3.018888e+01
  -1.912388e+01  -5.028808e+00
  -1.355909e+00   1.797126e+01
  -2.333477e+01  -1.822873e+01
  -6.298988e+01  -7.347546e+01
  -5.904709e+01  -1.068799e+02
   5.057841e+01  -4.902263e+01
   1.351171e+02   3.056676e+01
   1.282758e+02   6.285150e+01
   2.193016e+01   4.715098e+01
  -7.607413e+01   3.221845e+01
  -7.362898e+01   2.840730e+01
  -1.486636e+01  -9.141059e+00
   2.839118e+01  -2.777165e+01
   1.820423e+01  -1.366699e+01
  -1.373662e+01   7.722751e+00
   4.208490e+00   5.188822e+00
   6.894976e+01  -4.844708e+00
   8.189939e+01   1.795519e+01
   1.789788e+01   7.980558e+01
  -9.265734e+01   1.337905e+02
  -1.862330e+02   7.989920e+01
  -1.449670e+02  -5.187881e+01
  -6.207232e+01  -1.488384e+02
   4.018779e+01  -1.539466e+02
   9.618871e+01  -8.408375e+01
   7.515632e+01   2.038417e+01
   2.235009e+01   3.525018e+01
   7.242572e-01   1.002094e+01
   1.127730e+01   6.138003e+00
   3.097353e+01   4.495023e+01
   3.751693e+01   8.965695e+01
  -2.879469e+01   6.934237e+01
  -8.331805e+01  -7.209877e+00
  -6.711969e+01  -9.590503e+01
  -3.892996e+00  -1.045894e+02
   7.594970e+01  -3.876460e+01
   1.057795e+02   5.249382e+01
   3.901016e+01   1.014753e+02
  -5.870608e+01   5.771522e+01
  -9.605776e+01  -1.196608e+01
  -4.236814e+01  -4.926591e+01
   2.785693e+01  -5.439381e+01
   3.517090e+01  -2.922000e+01
  -2.844867e+01   8.330538e+00
  -6.563401e+01   2.157352e+01
  -1.371796e+01  -2.505514e+01
   7.643939e+01  -5.903376e+01
   9.966317e+01  -5.244940e+01
   6.254804e+01   1.311503e+00
  -1.233329e+01   8.003478e+01
  -4.953478e+01   8.607191e+01
  -4.184895e+01   1.246703e+01
  -1.068819e+01  -4.235565e+01
   1.406744e+01  -4.200253e+01
   3.685603e+01   8.611294e+00
   2.773067e+01   4.867639e+01
   2.481132e+00   3.548807e+01
  -3.041436e+01  -3.887517e+00
  -4.188222e+01  -1.847034e+01
  -1.794994e+01  -3.898973e+00
   7.613607e+00   1.721094e+01
   5.169579e+00   2.045572e+00
  -4.505801e+00  -2.941700e+01
   1.440865e+00  -4.009751e+01
   2.796683e+01  -1.471611e+01
   3.391656e+01   3.976735e+01
   9.047676e+00   4.668230e+01
  -3.677221e+01   2.503559e+01
  -5.517477e+01  -3.351419e+01
  -2.391232e+01  -6.221100e+01
   5.187155e+01  -4.106090e+01
   7.733817e+01   2.903566e+01
   4.870667e+01   3.818702e+01
  -2.763297e+01   4.733833e+01
  -5.965663e+01   2.898921e+01
  -2.508245e+01   5.168426e+00
   3.240509e+01   2.096398e-01
   3.500293e+01   8.061896e+00
  -2.770557e+01   2.919298e+01
  -8.092077e+01   1.260888e+01
