
 $NMID
 id='ANONYMOUS ', fmtdat='(2E16.6)'
 volume=1.0
 tramp=1.0
 $END
   3.729712e+03   8.252770e+01
   2.017358e+03   2.038310e+03
   9.774923e+01   2.240563e+03
  -1.662930e+03   7.133686e+02
  -9.147878e+02  -2.575465e+02
   1.966648e+02  -2.824672e+02
   7.080877e+02   1.966544e+02
   1.574323e+02   8.213791e+02
  -4.645294e+02   5.928985e+02
  -7.945717e+02  -7.151316e+00
  -2.980638e+02  -5.800807e+02
   9.722051e+01  -6.771452e+02
   4.711642e+02  -1.669801e+02
   2.861081e+02   5.289299e+02
  -2.011654e+02   6.432660e+02
  -4.798250e+02   7.129941e+01
  -3.558151e+02  -5.781924e+02
   1.544918e+02  -6.101821e+02
   4.644185e+02  -2.190101e+02
   3.863758e+02   2.566920e+02
   5.127120e+01   3.698207e+02
  -1.689144e+02   2.270532e+02
  -5.323117e+01   5.442235e+01
   1.676640e+02   1.775563e+01
   3.595249e+02   1.793800e+02
   9.778068e+01   3.971769e+02
  -5.354747e+02   2.126347e+02
  -6.772641e+02  -2.094335e+02
  -2.532110e+02  -3.637692e+02
   3.045098e+02  -2.788175e+02
   4.553516e+02   3.278571e+01
   2.603800e+02   3.448596e+02
  -2.371372e+02   4.560473e+02
  -4.568462e+02   1.334239e+02
  -3.580104e+02  -1.940910e+02
  -1.117079e+02  -3.434756e+02
   5.139181e+01  -1.707413e+02
   4.014735e+01   1.656726e+02
  -1.983455e+02   2.793362e+02
  -3.151521e+02  -1.545026e+02
  -4.262299e+01  -5.833896e+02
   3.033834e+02  -5.420634e+02
   3.837640e+02  -1.098968e+01
   1.439148e+02   4.289181e+02
  -1.724209e+02   1.346241e+02
  -2.786211e+02  -3.076086e+02
   4.079642e+01  -3.491775e+02
   5.066589e+02  -2.779876e+01
   5.545801e+02   3.399974e+02
   2.004990e+02   5.213997e+02
  -3.784446e+02   3.079943e+02
  -5.528642e+02  -1.203605e+02
  -3.671159e+02  -2.492372e+02
   3.410485e+01  -2.692133e+02
   3.077240e+02  -5.314028e+01
   2.238726e+02   9.550884e+01
  -2.559784e+01   4.097670e+01
  -1.080999e+02  -1.008270e+02
   1.222036e+02  -1.473148e+02
   2.524064e+02   2.508201e+01
   1.328222e+02   2.311661e+02
  -1.557604e+02   2.035379e+02
  -3.228016e+02   6.623369e+01
  -2.257396e+02  -7.930216e+01
   6.632166e+00  -2.814993e+02
   2.369375e+02  -3.228659e+02
   3.160066e+02  -1.669909e+02
   2.426930e+02   1.320128e+02
   1.069674e+01   3.513737e+02
  -4.799229e+01   3.595997e+02
  -2.458588e+01   1.390350e+02
  -3.852927e+01   6.963202e+01
  -7.333180e+01   1.114350e+02
  -2.380147e+02   1.067467e+02
  -2.655647e+02  -3.999431e+01
  -1.172097e+02  -2.408104e+02
   8.231865e+01  -1.825557e+02
   1.802357e+02   2.747964e+01
   1.677776e+02   2.266901e+02
   1.146380e+01   2.515421e+02
  -2.209433e+02   9.531098e+01
  -2.778361e+02  -1.545551e+02
  -1.562334e+02  -3.408947e+02
   6.471449e+01  -2.746710e+02
   1.807274e+02  -1.368926e+02
   1.499690e+02  -5.978657e+01
   1.273160e+02  -6.510744e+01
   2.268320e+02  -3.067440e+01
   3.793614e+02   3.765385e+01
   2.928899e+02   2.524503e+02
  -4.764492e+01   4.018708e+02
  -3.898765e+02   3.633093e+02
  -4.379501e+02   1.616916e+02
  -2.786471e+02  -9.983094e+01
  -3.764402e+01  -2.350233e+02
   9.612405e+01  -1.911743e+02
   3.702384e+01   1.434342e+00
  -1.205909e+02   7.498561e+01
  -1.529171e+02  -2.548437e+01
  -3.261303e+01  -1.504276e+02
   1.302135e+02  -1.217492e+02
   1.062391e+02   6.372132e+01
  -4.481939e+01   1.628690e+02
  -1.571271e+02   1.392620e+01
  -1.552532e+02  -2.455775e+02
   3.231064e+01  -3.052077e+02
   2.266930e+02  -1.964785e+02
   3.001312e+02   5.439942e+01
   2.767742e+02   1.886625e+02
   8.202151e+01   2.387514e+02
  -1.297512e+02   1.085131e+02
  -1.441487e+02  -1.310230e+01
  -3.290660e+01  -2.167743e+01
   5.691826e+01   6.552693e+01
   2.254265e+01   8.419365e+01
  -1.243185e+02   7.777111e+01
  -1.493916e+02  -1.331025e+01
  -3.504994e+01  -5.622983e+01
   8.290388e+01  -2.878997e+00
   4.158287e+01   8.104793e+01
  -1.346097e+02   7.457537e+01
  -2.765121e+02  -2.538185e+01
  -2.549806e+02  -1.564875e+02
  -2.976580e+01  -2.130643e+02
   1.922837e+02  -2.258689e+02
   2.614582e+02  -6.744993e+01
   1.453498e+02   6.810366e+01
  -3.305447e+01   8.382736e+01
  -7.459784e+01   6.890843e-01
   4.846892e+01  -9.149784e+01
   1.958539e+02  -1.993927e+01
   1.747305e+02   1.028942e+02
   8.842429e+01   1.865049e+02
  -7.674002e+01   1.242892e+02
  -1.360335e+02   1.359504e+01
  -4.849957e+01  -3.189148e+01
   4.064206e+01   2.075985e+01
   3.416984e+01   8.629558e+01
  -9.369374e+01   1.110815e+02
  -1.843526e+02   2.361692e+01
  -1.538029e+02  -1.272353e+02
  -1.113085e+01  -2.215525e+02
   1.499575e+02  -1.680314e+02
   1.674537e+02  -1.082172e+01
   6.073340e+01   9.896430e+01
  -5.267662e+01   1.109595e+02
  -6.886399e+01   2.837510e+01
  -1.214972e+01  -2.724052e+01
   2.436673e+01  -1.404229e+01
  -8.413095e+00   2.053411e+01
  -8.112153e+01   5.342494e+00
  -9.589927e+01  -8.967473e+01
  -3.152341e+01  -1.441225e+02
   1.244208e+02  -1.501580e+02
   2.325590e+02  -2.763959e+01
   1.826134e+02   1.558750e+02
   4.864815e+01   2.105569e+02
  -8.394710e+01   1.565485e+02
  -1.249526e+02   2.181636e+01
  -8.360079e+01  -4.316801e+01
  -3.128532e+01  -2.707321e+01
  -4.681799e+01   1.159665e+01
  -7.679581e+01  -4.066012e-01
  -4.719659e+01  -5.847598e+01
   4.200736e+01  -9.689462e+01
   9.185717e+01  -6.163279e+01
   1.023456e+02   3.009690e+01
  -1.439762e+01   1.233114e+02
  -1.418363e+02   8.519970e+01
  -2.008847e+02  -6.502758e+01
  -7.478235e+01  -2.186534e+02
   1.158927e+02  -2.146539e+02
   2.013271e+02  -8.786604e+01
   2.221270e+02   6.964027e+01
   1.197932e+02   1.613716e+02
  -1.850850e+01   1.403518e+02
  -8.270293e+01   7.427429e+01
  -6.393095e+01   6.027244e+01
  -4.408526e+01   9.295184e+01
  -8.819108e+01   7.327891e+01
  -1.113739e+02  -1.676816e+01
  -1.022753e+02  -1.359066e+02
  -1.677219e+01  -2.100340e+02
   6.744562e+01  -1.623981e+02
   1.545877e+02  -2.790345e+01
   1.094005e+02   1.322814e+02
   3.770498e+01   1.359243e+02
  -5.887422e+01   7.183673e+01
  -5.433844e+01  -1.290521e+01
   2.308343e+00  -5.049416e+01
   1.425260e+01  -3.984030e+01
  -2.995780e+01  -1.113540e+01
  -7.479639e+01  -8.239361e+00
  -4.600925e+01  -3.674851e+01
   6.515999e+01  -4.131372e+01
   1.515253e+02   2.748060e+00
   1.459622e+02   5.229077e+01
  -1.810022e+00   9.205953e+01
  -1.114309e+02   8.019894e+01
  -1.343041e+02   1.079947e+01
  -4.570940e+01  -4.056634e+01
   4.789057e+01  -4.270756e+01
   6.923334e+01   1.044022e+01
   2.734495e+01   6.183634e+01
  -4.688725e+01   5.494959e+01
  -6.134046e+01   5.840578e+00
  -5.505518e+01  -3.503619e+01
  -4.809247e+01  -3.714516e+01
  -4.918111e+01   1.109203e+00
  -5.382699e+01  -5.189297e+00
  -3.950504e+01  -6.693082e+01
   3.145000e+01  -1.333456e+02
   1.216084e+02  -1.310603e+02
   1.520973e+02  -3.268299e+01
   1.122188e+02   7.410478e+01
  -1.372025e-01   1.154605e+02
  -7.602931e+01   6.354768e+01
  -6.130559e+01  -4.629057e+00
   6.107900e+01  -1.782174e+01
   1.299874e+02   3.714078e+01
   7.251442e+01   1.109865e+02
  -8.101666e+01   9.010722e+01
  -1.571349e+02   3.198077e+01
  -1.621637e+02  -3.731928e+01
  -2.265726e+01  -7.596853e+01
   5.819196e+01  -5.975899e+01
   4.585173e+01  -5.398574e+00
  -3.540933e+01   2.506508e+01
  -8.814583e+01  -1.083615e+01
  -4.342972e+01  -9.805884e+01
   7.614756e+01  -1.293868e+02
   1.444122e+02  -5.258427e+01
   1.256948e+02   7.338153e+01
   2.360043e+01   1.721395e+02
  -5.416582e+01   1.454667e+02
  -9.125364e+01  -1.139202e+01
  -5.128645e+01  -1.107079e+02
   4.926243e+00  -9.403618e+01
   4.602257e+01  -1.787324e+01
   3.870622e+01   3.216578e+01
   1.672840e+01   9.760174e+00
   4.686474e+00  -1.580813e+01
   2.070026e+01   1.854256e+01
   6.442796e+01   6.955894e+01
   4.476744e+01   9.784784e+01
  -4.991871e+01   4.793577e+01
  -1.264008e+02  -4.019891e+01
  -1.075196e+02  -6.526110e+01
  -1.856333e+01  -5.000593e+01
   7.445370e+01  -1.742742e+01
   7.901111e+01  -1.595316e+01
   1.617305e+01   8.339663e+00
  -3.095998e+01   2.343066e+01
  -1.844460e+01   1.328972e+01
   1.748603e+01  -6.665991e+00
  -4.141452e+00  -6.273018e+00
  -5.427617e+01   4.937878e+00
  -8.812205e+01  -2.327475e+01
  -1.667138e+01  -7.189131e+01
   9.576816e+01  -1.270748e+02
   1.780261e+02  -6.437636e+01
   1.336381e+02   5.286894e+01
   4.766182e+01   1.364365e+02
  -5.557157e+01   1.640354e+02
  -1.017369e+02   7.627018e+01
  -7.192972e+01  -2.645900e+01
  -1.686972e+01  -3.334552e+01
  -6.654322e-01  -1.074586e+01
  -1.141125e+01  -7.381792e+00
  -2.890249e+01  -4.474414e+01
  -2.965650e+01  -8.147590e+01
   3.613097e+01  -5.804836e+01
   7.685704e+01   1.243670e+01
   7.730717e+01   9.584538e+01
   4.642716e+00   1.043626e+02
  -7.068694e+01   2.465936e+01
  -9.820300e+01  -4.317262e+01
  -3.550366e+01  -9.570293e+01
   5.533617e+01  -6.338990e+01
   8.560299e+01   1.340278e+01
   3.946348e+01   5.328702e+01
  -2.694683e+01   4.736849e+01
  -3.415385e+01   2.843114e+01
   3.082196e+01  -7.642175e+00
   6.545054e+01  -1.288851e+01
   1.648398e+01   2.685126e+01
  -7.489779e+01   5.159750e+01
  -1.002524e+02   6.484288e+01
  -6.621044e+01  -9.655072e+00
   8.929816e+00  -7.115998e+01
   4.333477e+01  -7.506230e+01
   4.240052e+01  -8.220920e+00
   1.356326e+01   4.547577e+01
  -1.774900e+01   4.504275e+01
  -3.175370e+01  -1.097841e+01
  -2.504029e+01  -4.740816e+01
  -1.641861e+00  -3.215913e+01
   3.432275e+01   3.376130e+00
   3.946194e+01   1.733847e+01
   1.786873e+01   3.387119e+00
  -6.014668e+00  -1.710481e+01
  -4.639138e+00  -2.557035e+00
   6.843399e+00   2.656650e+01
  -2.056032e+00   4.068747e+01
  -2.887842e+01   1.525048e+01
  -3.329292e+01  -3.665610e+01
  -1.192477e+01  -5.269663e+01
   3.308559e+01  -2.599296e+01
   4.868585e+01   3.042664e+01
   1.563871e+01   5.377414e+01
  -5.542242e+01   4.076819e+01
  -7.543277e+01  -1.707132e+01
  -4.559546e+01  -3.723078e+01
   2.904384e+01  -4.127695e+01
   6.134143e+01  -3.514606e+01
   2.288966e+01  -5.072242e+00
  -3.264197e+01  -8.088962e-01
  -3.336101e+01  -9.664926e+00
   2.736834e+01  -2.260154e+01
   7.399299e+01  -1.290808e+01
