
 $NMID
 id='ANONYMOUS ', fmtdat='(2E16.6)'
 volume=1.0
 tramp=1.0
 $END
   3.660869e+03   7.554281e+02
   2.549233e+03   1.275673e+03
   1.470002e+01   2.224240e+03
  -1.593535e+03   6.010866e+02
  -7.293842e+02  -2.496367e+02
  -1.551238e+01  -3.422457e+02
   7.348291e+02   3.142899e+02
   2.184858e+01   7.247565e+02
  -6.475168e+02   6.516903e+02
  -8.599924e+02   6.134725e+01
  -3.961958e+02  -6.320775e+02
   7.704039e+01  -6.580297e+02
   4.503864e+02  -2.290325e+02
   2.991035e+02   5.231999e+02
  -1.983634e+02   5.014599e+02
  -4.821425e+02  -5.827196e+01
  -2.315418e+02  -5.102175e+02
   1.813283e+02  -5.358955e+02
   4.279421e+02  -1.538863e+02
   3.610658e+02   1.888111e+02
   6.392070e+01   3.455076e+02
  -1.718834e+02   2.521526e+02
  -8.863379e+01   4.422008e+01
   1.125273e+02   2.369107e+01
   2.772097e+02   2.220484e+02
   1.177855e+02   4.117578e+02
  -4.375703e+02   2.382617e+02
  -6.161993e+02  -9.212316e+01
  -2.903853e+02  -2.839004e+02
   2.854911e+02  -2.104558e+02
   5.193540e+02   1.683466e+02
   1.914385e+02   3.620872e+02
  -2.567261e+02   2.765752e+02
  -4.370436e+02   1.383955e+02
  -3.388603e+02  -9.873484e+01
  -1.107536e+02  -3.511978e+02
   5.368904e+01  -2.302232e+02
   2.404279e+01   1.428058e+02
  -2.184732e+02   1.863884e+02
  -2.909300e+02  -1.796569e+02
   6.480070e+01  -5.028308e+02
   3.828027e+02  -5.794308e+02
   4.271585e+02   4.266668e+01
   1.272282e+02   3.860416e+02
  -1.773956e+02   1.521767e+02
  -1.578403e+02  -2.597005e+02
   1.081131e+02  -4.870121e+02
   4.503846e+02   2.199304e+01
   4.875827e+02   3.929846e+02
   1.615690e+02   4.925537e+02
  -3.287118e+02   2.744093e+02
  -5.580767e+02  -1.125125e+02
  -3.593688e+02  -3.535072e+02
   1.086285e+02  -2.437416e+02
   3.004116e+02  -3.929028e+01
   1.963281e+02   7.575728e+01
  -3.177951e+01   1.122693e+01
  -5.779665e+01  -5.960247e+01
   1.257497e+02  -8.218073e+01
   2.155354e+02   5.159912e+01
   1.135039e+02   2.245314e+02
  -1.584881e+02   2.563655e+02
  -3.237750e+02   1.140671e+02
  -2.397947e+02  -1.128500e+02
  -2.944944e+01  -3.041880e+02
   3.278808e+02  -2.626399e+02
   3.341379e+02  -1.666229e+02
   2.268227e+02   1.018236e+02
   3.645249e+01   3.303920e+02
  -4.800456e+01   3.844835e+02
  -4.396698e+01   1.642252e+02
  -2.595247e+01   4.582268e+01
  -8.259290e+01   1.048595e+02
  -2.627761e+02   6.026623e+01
  -2.459457e+02  -1.002925e+02
  -1.170190e+02  -2.423073e+02
   7.808905e+01  -2.350127e+02
   1.940452e+02   5.123346e+01
   1.393317e+02   2.598216e+02
  -6.076069e+01   2.805477e+02
  -2.757912e+02   9.673392e+01
  -2.970175e+02  -1.580853e+02
  -1.071066e+02  -3.006455e+02
   7.111161e+01  -2.786857e+02
   2.053617e+02  -1.177164e+02
   1.515184e+02  -3.826972e+01
   1.089450e+02  -4.769353e+01
   2.412403e+02  -7.001714e+01
   3.678602e+02   4.947111e+01
   2.397892e+02   3.729987e+02
   2.492979e+01   4.287166e+02
  -3.827260e+02   4.118060e+02
  -4.855151e+02   7.356259e+01
  -2.688374e+02  -1.227782e+02
  -4.762708e+01  -2.248637e+02
   9.248528e+01  -1.980825e+02
   3.735581e+01  -3.691101e+01
  -1.290118e+02   6.734707e+01
  -1.595321e+02  -4.224393e+01
  -2.642399e+01  -1.838086e+02
   1.427223e+02  -9.433096e+01
   1.048081e+02   3.589627e+01
  -3.216159e+01   1.565802e+02
  -1.785550e+02   5.498285e+00
  -1.151816e+02  -2.246862e+02
   4.900946e+01  -3.247650e+02
   2.573267e+02  -2.144691e+02
   2.828294e+02   6.491669e+01
   2.292291e+02   3.258778e+02
   5.078963e+01   2.716671e+02
  -1.327379e+02   1.194479e+02
  -1.392076e+02  -1.811871e+01
  -4.024348e+01  -9.533778e+00
   4.901199e+01   6.125068e+01
   1.094605e+01   1.137215e+02
  -1.158792e+02   6.619998e+01
  -1.435221e+02  -4.232783e+01
  -3.723962e+01  -5.012533e+01
   9.489708e+01   9.188565e+00
   3.957142e+01   7.686961e+01
  -1.422473e+02   8.234775e+01
  -2.846791e+02  -5.045072e+00
  -2.260612e+02  -1.678728e+02
  -1.702807e+01  -2.273872e+02
   2.183849e+02  -2.381160e+02
   2.655692e+02  -4.985040e+01
   1.330351e+02   5.810364e+01
  -2.485928e+01   8.838702e+01
  -8.657273e+01   4.678736e+00
   5.569012e+01  -7.394779e+01
   1.827666e+02  -4.984635e+00
   1.329845e+02   1.030938e+02
   5.622749e+01   2.110621e+02
  -9.005531e+01   1.410518e+02
  -1.355636e+02   1.481047e+01
  -4.132233e+01  -3.094081e+01
   3.552042e+01   1.029260e+01
   4.027305e+01   1.020515e+02
  -7.426470e+01   1.027934e+02
  -1.799987e+02   1.424785e+01
  -1.599963e+02  -1.275588e+02
   1.208982e+01  -1.798820e+02
   1.738301e+02  -1.237394e+02
   1.800198e+02  -2.940607e+01
   5.528557e+01   1.079771e+02
  -6.894597e+01   9.564594e+01
  -7.910492e+01   1.961163e+01
   1.571580e+00  -2.606756e+01
   3.263245e+01  -9.585718e+00
  -3.304049e+00   1.940870e+01
  -8.478694e+01   7.910897e+00
  -7.336990e+01  -9.329328e+01
   1.153569e+01  -1.473380e+02
   1.252560e+02  -1.519480e+02
   2.422594e+02  -2.330285e+01
   1.713669e+02   1.547562e+02
   3.484092e+01   2.483811e+02
  -1.202655e+02   1.422433e+02
  -1.116625e+02   1.364658e+01
  -6.814828e+01  -4.044146e+01
  -3.344882e+01  -2.776402e+01
  -5.056262e+01   1.421431e+01
  -7.682207e+01   4.560958e+00
  -4.757207e+01  -4.921293e+01
   3.992022e+01  -1.009355e+02
   1.090938e+02  -4.279047e+01
   1.057235e+02   4.024484e+01
  -2.884166e+01   1.267886e+02
  -1.749885e+02   9.336464e+01
  -1.905116e+02  -4.310886e+01
  -6.991620e+01  -1.925720e+02
   1.316289e+02  -2.102589e+02
   2.837366e+02  -1.071548e+02
   2.336760e+02   9.254721e+01
   9.085817e+01   1.579345e+02
  -3.478608e+01   1.664940e+02
  -9.073867e+01   6.575881e+01
  -7.702426e+01   6.387430e+01
  -6.221327e+01   8.514036e+01
  -8.067387e+01   8.160592e+01
  -1.272286e+02   3.935321e-01
  -8.801894e+01  -1.383673e+02
  -8.078899e+00  -2.273385e+02
   1.170966e+02  -1.815224e+02
   1.721137e+02  -1.645767e+01
   1.236671e+02   1.419787e+02
   2.034319e+01   1.616757e+02
  -7.897346e+01   6.760936e+01
  -5.522731e+01  -7.634860e+00
   3.738673e+00  -4.417622e+01
   2.422117e+01  -3.486335e+01
  -2.991659e+01  -1.219722e+01
  -8.351318e+01  -1.084851e+01
  -4.308199e+01  -3.639663e+01
   7.066856e+01  -3.000826e+01
   1.506110e+02   1.409894e+01
   1.508126e+02   6.398665e+01
   4.715237e+00   9.941100e+01
  -1.195732e+02   6.327721e+01
  -1.380245e+02   1.071093e+01
  -4.028585e+01  -3.972483e+01
   5.465141e+01  -4.537672e+01
   6.497518e+01   2.533423e+01
   1.756852e+01   6.559619e+01
  -5.535844e+01   5.892789e+01
  -6.598273e+01  -1.774075e+00
  -6.014739e+01  -4.258553e+01
  -4.565319e+01  -5.169367e+01
  -5.066508e+01  -2.374339e+00
  -5.687732e+01  -9.823919e+00
  -3.931320e+01  -6.331523e+01
   3.506755e+01  -1.234439e+02
   1.280441e+02  -1.218982e+02
   1.658954e+02  -3.456482e+01
   1.263079e+02   1.058950e+02
   8.538624e+00   1.126333e+02
  -8.160795e+01   6.800535e+01
  -5.573562e+01  -1.099616e+01
   5.323830e+01  -2.153773e+01
   1.289217e+02   4.227566e+01
   5.917715e+01   1.122479e+02
  -6.257613e+01   1.025260e+02
  -1.849887e+02   5.149224e+01
  -1.463781e+02  -3.253914e+01
  -3.494320e+01  -8.408954e+01
   7.061046e+01  -6.866083e+01
   4.907687e+01  -4.095122e+00
  -3.896646e+01   2.940260e+01
  -8.516129e+01  -2.702869e+01
  -2.196229e+01  -1.177233e+02
   9.739867e+01  -1.207044e+02
   1.320358e+02  -5.089669e+01
   1.439806e+02   8.516550e+01
   1.273285e+01   1.752872e+02
  -8.346180e+01   1.564526e+02
  -9.200768e+01  -1.599861e+01
  -4.345591e+01  -1.201247e+02
  -2.151747e-02  -9.411014e+01
   4.381811e+01  -1.668922e+01
   4.143431e+01   3.670246e+01
   1.537176e+01   7.460599e+00
   6.720234e+00  -1.497538e+01
   2.341590e+01   1.665598e+01
   5.554970e+01   8.088810e+01
   2.983121e+01   1.091247e+02
  -5.458653e+01   3.402961e+01
  -1.232750e+02  -2.966774e+01
  -1.278807e+02  -7.449299e+01
  -1.954906e+01  -5.398143e+01
   8.576146e+01  -2.177791e+01
   8.141360e+01  -9.115703e+00
   1.636995e+01   1.290757e+01
  -3.780593e+01   1.879311e+01
  -1.662848e+01   1.101017e+01
   1.579161e+01  -7.926035e-01
  -3.970231e+00  -9.080964e+00
  -5.764272e+01  -5.811503e+00
  -8.853812e+01  -2.075541e+01
  -1.814574e+01  -6.840352e+01
   1.110258e+02  -9.269486e+01
   1.897330e+02  -4.054839e+01
   1.271513e+02   5.504039e+01
   1.678595e+01   1.598358e+02
  -9.675520e+01   1.439018e+02
  -1.176549e+02   7.464477e+01
  -7.377877e+01  -2.269007e+01
  -2.820904e+01  -3.716530e+01
  -3.750997e+00  -1.024110e+01
  -1.268942e+01  -6.769793e+00
  -2.473897e+01  -4.240363e+01
  -8.976501e+00  -8.677875e+01
   2.889365e+01  -6.312870e+01
   6.291156e+01   1.912945e+01
   6.291272e+01   9.462203e+01
  -2.295367e+00   9.666469e+01
  -6.937808e+01   1.808048e+01
  -1.007038e+02  -5.750672e+01
  -1.701983e+01  -9.104410e+01
   5.315494e+01  -6.956612e+01
   9.269840e+01   2.427316e+01
   4.613433e+01   5.441022e+01
  -2.607894e+01   5.599367e+01
  -3.886637e+01   2.797437e+01
   2.564919e+01  -3.104702e+00
   6.448771e+01  -5.119995e+00
   1.730246e+01   2.477009e+01
  -6.353662e+01   6.035023e+01
  -1.171998e+02   5.090657e+01
  -6.612103e+01  -1.678454e+01
   5.047769e+00  -8.752748e+01
   4.093295e+01  -7.652178e+01
   3.848879e+01  -5.970123e+00
   9.605918e+00   5.389507e+01
  -2.045118e+01   4.876702e+01
  -2.835383e+01  -1.612851e+01
  -2.856860e+01  -4.756745e+01
  -2.832884e+00  -3.466705e+01
   3.466746e+01   9.750949e+00
   4.301376e+01   1.828562e+01
   1.740224e+01   2.248721e+00
  -4.824627e+00  -2.026799e+01
  -6.743599e+00  -5.256742e+00
  -5.109895e+00   3.239023e+01
   3.128313e+00   5.066161e+01
  -2.556053e+01   1.774801e+01
  -3.556531e+01  -3.128064e+01
  -1.135795e+01  -5.799467e+01
   3.892866e+01  -2.110159e+01
   4.927776e+01   3.000237e+01
   1.353694e+01   5.682149e+01
  -5.335081e+01   3.615894e+01
  -8.302117e+01  -1.294148e+01
  -4.896637e+01  -4.882469e+01
   3.321372e+01  -3.575287e+01
   5.162338e+01  -1.983319e+01
   2.563415e+01  -7.173378e+00
  -3.615816e+01  -1.938217e-01
  -2.786542e+01  -9.335305e+00
   2.450328e+01  -1.650091e+01
   6.800277e+01  -2.417996e+01
