
 $NMID
 id='ANONYMOUS ', fmtdat='(2E16.6)'
 volume=1.0
 tramp=1.0
 $END
   4.760476e+03  -3.769005e+02
   2.580975e+03   2.556871e+03
  -8.786673e+02   2.866612e+03
  -1.932944e+03   1.398233e+03
  -1.161782e+03  -4.850623e+02
   4.726628e+02  -4.661491e+02
   7.144197e+02   5.942002e+02
   1.799208e+01   8.927189e+02
  -8.573481e+02   7.369476e+02
  -1.015700e+03  -1.385923e+02
  -5.489413e+02  -8.387676e+02
   1.190595e+02  -7.746524e+02
   5.670111e+02  -1.152921e+02
   3.294407e+02   6.791663e+02
  -1.651194e+02   6.265667e+02
  -5.939444e+02   1.863110e+01
  -2.847780e+02  -5.952256e+02
   1.720207e+02  -6.115936e+02
   5.935832e+02  -1.129234e+02
   4.024506e+02   4.050271e+02
   1.011689e+02   5.016944e+02
  -2.205743e+02   2.502374e+02
  -1.868641e+02   5.170811e+01
   1.760637e+02  -1.006130e+02
   3.946653e+02   2.155826e+02
   1.759268e+02   4.294156e+02
  -5.492797e+02   4.217024e+02
  -7.896361e+02  -1.634104e+01
  -4.107829e+02  -6.047131e+02
   4.284867e+02  -4.340800e+02
   7.370576e+02   1.389892e+02
   3.013370e+02   5.502653e+02
  -2.632305e+02   5.978147e+02
  -5.998887e+02   1.665739e+02
  -4.239910e+02  -2.486307e+02
  -5.623259e+01  -4.170817e+02
   1.786143e+02  -1.742137e+02
   1.647870e+02   2.101904e+02
  -1.316561e+02   4.181597e+02
  -4.385552e+02  -1.823083e+01
  -2.529970e+02  -6.653693e+02
   2.674144e+02  -6.706890e+02
   5.367719e+02   1.201033e+01
   2.460423e+02   5.395339e+02
  -2.734038e+02   2.587306e+02
  -3.959714e+02  -2.521595e+02
   5.588886e+01  -5.176018e+02
   5.632624e+02  -1.390507e+02
   6.016204e+02   4.359318e+02
   1.362111e+02   5.762759e+02
  -3.626279e+02   3.545957e+02
  -6.162137e+02   1.444021e+01
  -3.811701e+02  -3.645833e+02
   1.447342e+02  -3.182365e+02
   4.350412e+02  -6.635156e+01
   2.178331e+02   2.095233e+02
  -6.931340e+01   1.054670e+02
  -1.190139e+02  -1.622032e+02
   1.674795e+02  -1.362019e+02
   3.175882e+02   8.679212e+01
   1.619668e+02   3.338813e+02
  -2.090631e+02   2.871519e+02
  -3.329476e+02   1.159059e+02
  -2.109974e+02  -5.296573e+01
   6.392360e+01  -2.496048e+02
   1.889401e+02  -4.027500e+02
   3.887657e+02  -2.328164e+02
   2.895988e+02   1.443541e+02
   5.580582e+01   4.566260e+02
  -1.510460e+02   4.079874e+02
  -8.925755e+01   1.043161e+02
  -1.048093e+01  -6.865535e+00
  -6.942857e+01   1.011881e+02
  -1.496571e+02   1.143978e+02
  -3.071812e+02  -6.220819e+01
  -1.362467e+02  -2.876464e+02
   9.348532e+01  -2.649054e+02
   2.126038e+02  -1.490413e+01
   1.814201e+02   2.231295e+02
  -7.745572e+00   3.034266e+02
  -2.714391e+02   1.128843e+02
  -3.979714e+02  -1.770485e+02
  -2.447973e+02  -3.191191e+02
   7.997851e+01  -3.107428e+02
   1.850659e+02  -1.576304e+02
   1.343090e+02  -2.838939e+01
   1.055193e+02  -4.393725e+01
   2.369415e+02  -5.585428e+01
   3.984778e+02   4.230746e+01
   3.712266e+02   2.836166e+02
  -4.390555e+00   4.660335e+02
  -3.602858e+02   4.659877e+02
  -4.979954e+02   2.407535e+02
  -3.453014e+02  -1.111790e+02
  -5.267636e+01  -2.812240e+02
   1.440504e+02  -2.346741e+02
   6.428773e+01  -3.787716e+01
  -1.318764e+02   1.139552e+02
  -1.964876e+02  -2.689238e+01
  -2.194664e+01  -1.806052e+02
   1.118048e+02  -1.694896e+02
   1.394345e+02   5.725880e+01
  -3.854951e+00   1.674239e+02
  -2.034804e+02   2.052975e+01
  -1.652071e+02  -2.125019e+02
   1.538028e+01  -3.682701e+02
   2.551068e+02  -2.281203e+02
   3.295990e+02   6.561368e+01
   2.986653e+02   2.300134e+02
   1.194196e+02   2.569557e+02
  -1.168210e+02   1.954701e+02
  -1.761780e+02   3.040561e+01
  -4.167769e+01  -2.467354e+01
   6.256012e+01   4.324404e+01
   7.807455e+00   1.618829e+02
  -1.286426e+02   9.326103e+01
  -1.589447e+02  -1.267031e+01
  -4.947127e+01  -7.727074e+01
   8.278108e+01  -1.388865e+01
   4.268697e+01   7.677948e+01
  -1.354439e+02   8.651791e+01
  -2.927079e+02   1.120527e+01
  -2.723019e+02  -1.331929e+02
  -7.556514e+01  -2.441646e+02
   1.731398e+02  -2.893678e+02
   2.930170e+02  -1.598722e+02
   1.895217e+02   3.606610e+01
  -2.596494e+01   1.179567e+02
  -9.398443e+01  -2.567311e+00
   3.261219e+01  -9.815099e+01
   2.013190e+02  -8.933302e+01
   2.379187e+02   8.183897e+01
   5.951250e+01   1.921764e+02
  -1.025129e+02   1.631767e+02
  -1.249428e+02   2.986278e+01
  -6.822117e+01  -4.678731e+01
   2.755378e+01  -5.723262e+00
   3.576020e+01   1.061400e+02
  -7.091767e+01   1.205098e+02
  -2.086115e+02   2.297064e+01
  -2.017203e+02  -1.122449e+02
  -4.519105e+01  -2.211660e+02
   1.575552e+02  -1.673779e+02
   1.789113e+02   2.337880e+01
   6.674714e+01   1.149071e+02
  -6.041912e+01   1.159469e+02
  -8.245509e+01   2.149439e+01
  -1.715932e+01  -2.869130e+01
   2.043037e+01  -1.903148e+01
  -1.373994e+01   1.491163e+01
  -7.959044e+01  -8.795819e+00
  -1.008200e+02  -6.928473e+01
  -4.107653e+01  -1.565995e+02
   1.070730e+02  -1.801671e+02
   2.439039e+02  -6.051774e+01
   2.353963e+02   1.570449e+02
   2.446097e+01   2.498495e+02
  -9.714237e+01   1.880265e+02
  -1.231256e+02   4.546690e+01
  -6.469921e+01  -5.683568e+01
  -2.707890e+01  -4.417075e+01
  -5.248586e+01   9.554945e+00
  -7.400197e+01   1.229426e+01
  -4.860872e+01  -5.264538e+01
   3.929359e+01  -9.456077e+01
   1.004299e+02  -5.560300e+01
   7.629508e+01   4.067183e+01
  -8.555754e+00   1.094479e+02
  -1.720517e+02   8.224286e+01
  -2.080162e+02  -4.124406e+01
  -1.241575e+02  -2.073145e+02
   9.072180e+01  -2.506619e+02
   2.949915e+02  -8.022100e+01
   2.608221e+02   8.101575e+01
   1.091661e+02   1.737448e+02
  -5.757099e+01   1.486086e+02
  -9.000823e+01   9.787701e+01
  -7.336483e+01   7.033498e+01
  -5.774401e+01   8.985454e+01
  -8.297442e+01   6.980047e+01
  -1.309407e+02  -3.104962e+01
  -1.331272e+02  -1.406842e+02
  -5.876962e+01  -2.323596e+02
   1.087877e+02  -1.647538e+02
   1.766602e+02  -1.612763e+01
   1.408198e+02   1.186430e+02
   4.945334e+00   1.680764e+02
  -6.958613e+01   9.958624e+01
  -6.272957e+01   6.543355e+00
  -9.074674e+00  -4.523389e+01
   1.089698e+01  -3.298055e+01
  -3.208031e+01  -1.769656e+01
  -8.551058e+01  -2.957236e+01
  -4.659603e+01  -3.644844e+01
   5.758649e+01  -3.815335e+01
   1.565402e+02  -2.875583e+01
   1.417679e+02   6.495612e+01
   2.284171e+01   8.619296e+01
  -1.146641e+02   6.522792e+01
  -1.402952e+02  -4.155276e+00
  -5.429938e+01  -4.422178e+01
   6.342983e+01  -2.715063e+01
   8.572983e+01   2.304746e+01
   1.339660e+01   6.847550e+01
  -4.999219e+01   5.701667e+01
  -7.461440e+01   6.082848e+00
  -4.534033e+01  -5.638651e+01
  -5.093170e+01  -4.732203e+01
  -5.808759e+01   4.628919e+00
  -6.557678e+01   6.810698e+00
  -3.288767e+01  -7.350478e+01
   2.492995e+01  -1.506486e+02
   1.321898e+02  -1.537781e+02
   1.726684e+02  -3.640426e+01
   1.269000e+02   8.065671e+01
   1.957347e+01   1.372051e+02
  -9.220059e+01   6.584596e+01
  -4.955953e+01  -1.593784e+01
   5.346595e+01  -2.068346e+01
   1.388510e+02   6.022952e+01
   9.222926e+01   1.055630e+02
  -8.213367e+01   1.142773e+02
  -2.332436e+02   4.568047e+01
  -1.558882e+02  -8.477988e+00
  -2.351877e+01  -8.850158e+01
   6.384051e+01  -7.720560e+01
   5.205592e+01  -5.539864e+00
  -4.244337e+01   3.080863e+01
  -9.720116e+01  -1.938543e+01
  -3.060388e+01  -1.052245e+02
   8.962755e+01  -1.684124e+02
   1.492632e+02  -7.705300e+01
   1.459150e+02   9.906873e+01
   1.436471e+01   2.014146e+02
  -9.564578e+01   1.321702e+02
  -1.177908e+02  -5.496514e+00
  -6.450635e+01  -1.179528e+02
   1.171674e+01  -1.091590e+02
   4.912195e+01  -1.515125e+01
   5.243424e+01   3.221142e+01
   2.509004e+01   8.863463e+00
   3.516957e+00  -2.161523e+01
   2.011159e+01   1.620245e+01
   4.341990e+01   9.081078e+01
   4.119877e+01   9.916589e+01
  -5.560197e+01   4.937077e+01
  -1.488140e+02  -4.547108e+01
  -1.313531e+02  -7.218141e+01
  -2.496437e+01  -4.450741e+01
   8.511301e+01  -2.535364e+01
   8.513259e+01   1.159788e+01
   1.377625e+01   5.975425e+00
  -4.139626e+01   2.277266e+01
  -1.658121e+01   1.886152e+01
   1.980960e+01  -6.069884e-01
  -6.607956e+00  -8.666255e+00
  -7.295470e+01  -7.597797e+00
  -9.207659e+01  -1.349694e+01
  -3.558803e+00  -8.342948e+01
   1.110368e+02  -1.061723e+02
   1.939706e+02  -9.281967e+01
   1.328905e+02   5.952335e+01
   3.260903e+01   1.605566e+02
  -7.356043e+01   1.511056e+02
  -1.117120e+02   5.737313e+01
  -8.808498e+01  -7.839606e+00
  -3.091426e+01  -3.972150e+01
   3.649639e+00  -1.048318e+01
  -1.404590e+01  -6.074607e+00
  -3.589075e+01  -4.188614e+01
  -1.931024e+01  -8.960392e+01
   2.735279e+01  -8.163024e+01
   7.689082e+01   1.593414e+01
   7.534118e+01   1.144215e+02
   8.126873e+00   1.217330e+02
  -7.986088e+01   1.942553e+01
  -9.595450e+01  -7.402173e+01
  -4.257030e+01  -9.732461e+01
   6.482597e+01  -5.703111e+01
   9.520543e+01   4.096543e-02
   4.291909e+01   4.820952e+01
  -3.531565e+01   5.786867e+01
  -3.382659e+01   3.111552e+01
   2.728461e+01   1.874613e+00
   6.870908e+01  -6.366237e+00
   1.875525e+01   2.490128e+01
  -7.219437e+01   6.346191e+01
  -9.725121e+01   5.903857e+01
  -6.855438e+01  -1.731663e+01
   1.218063e+01  -8.055303e+01
   6.940207e+01  -7.282122e+01
   3.480812e+01  -7.630836e+00
  -3.900554e-01   5.202637e+01
  -2.331392e+01   4.572935e+01
  -3.798760e+01  -8.061366e+00
  -3.275881e+01  -5.534825e+01
   5.891112e+00  -3.373767e+01
   3.761162e+01   3.188780e+00
   4.143658e+01   2.235953e+01
   2.190878e+01   9.136140e-01
  -1.724774e+00  -1.632751e+01
  -7.858159e+00   3.151276e-02
  -7.874995e+00   2.960787e+01
  -1.403568e+01   4.652206e+01
  -3.323182e+01   1.263365e+01
  -3.091524e+01  -4.279491e+01
  -3.388330e+00  -6.128391e+01
   4.272036e+01  -2.209036e+01
   5.922631e+01   3.521349e+01
   1.823203e+01   5.506664e+01
  -5.134929e+01   3.682052e+01
  -8.569052e+01  -8.350390e+00
  -5.632632e+01  -3.966715e+01
   2.623946e+01  -4.468545e+01
   6.046966e+01  -2.627366e+01
   2.375629e+01  -4.534209e+00
  -3.646532e+01   2.096535e+00
  -3.767595e+01  -1.051795e+01
   2.514790e+01  -3.606719e+01
   8.223336e+01  -2.184256e+01
