
 $NMID
 id='ANONYMOUS ', fmtdat='(2E16.6)'
 volume=1.0
 tramp=1.0
 $END
  -3.984250e+03  -8.940071e+02
  -2.603413e+03  -2.179678e+03
  -7.084165e+01  -2.420884e+03
   1.736230e+03  -8.120916e+02
   6.877288e+02   4.750280e+02
  -2.637949e+02   5.947447e+02
  -7.328306e+02  -5.286424e+02
  -4.536757e+01  -8.576411e+02
   8.739474e+02  -7.997458e+02
   8.479223e+02   2.400483e+01
   4.443496e+02   7.299261e+02
  -1.781104e+02   8.127507e+02
  -5.509376e+02   1.717115e+02
  -2.885675e+02  -5.649385e+02
   1.903084e+02  -7.970540e+02
   5.798709e+02   1.792081e+01
   2.912165e+02   6.091780e+02
  -2.511582e+02   6.245100e+02
  -5.240658e+02   1.692913e+02
  -4.762597e+02  -2.746679e+02
  -7.384956e+01  -3.637195e+02
   2.016723e+02  -2.641131e+02
   1.184906e+02  -5.521199e+01
  -1.865051e+02   1.482205e+01
  -3.866577e+02  -1.579424e+02
  -4.694590e+01  -4.655001e+02
   5.102451e+02  -3.730709e+02
   7.600860e+02   1.556076e+02
   4.346697e+02   4.507567e+02
  -2.679100e+02   3.097829e+02
  -6.563065e+02  -9.530054e+01
  -2.560331e+02  -4.418839e+02
   3.422903e+02  -4.251480e+02
   5.375438e+02  -7.666857e+01
   3.977181e+02   1.531348e+02
   1.043263e+02   4.453269e+02
  -1.096291e+02   3.053264e+02
  -1.256295e+01  -1.875281e+02
   2.622557e+02  -3.013359e+02
   3.374025e+02   1.057859e+02
   1.074437e+02   5.884750e+02
  -4.005172e+02   5.897836e+02
  -5.634385e+02  -6.413020e+01
  -1.953759e+02  -4.432280e+02
   2.898243e+02  -2.963342e+02
   2.929765e+02   3.321224e+02
  -1.256917e+02   4.962402e+02
  -4.799696e+02   6.179785e+01
  -6.387175e+02  -4.163023e+02
  -1.327484e+02  -5.517325e+02
   4.335988e+02  -3.467691e+02
   6.630909e+02   1.321683e+02
   3.557223e+02   3.647084e+02
  -1.450625e+02   3.314452e+02
  -3.862579e+02   3.766158e+01
  -1.983312e+02  -1.173241e+02
   5.204990e+01  -8.466002e+01
   1.095299e+02   8.011046e+01
  -1.402056e+02   1.476895e+02
  -2.924221e+02  -8.807849e+01
  -7.503861e+01  -2.670402e+02
   2.086212e+02  -2.767602e+02
   3.304089e+02  -9.816689e+01
   2.307690e+02   7.757671e+01
   1.533115e+01   2.942889e+02
  -2.702387e+02   3.281582e+02
  -3.277183e+02   1.915689e+02
  -2.827299e+02  -1.441590e+02
  -5.597380e+01  -4.535515e+02
   9.030117e+01  -3.804540e+02
   5.575617e+01  -1.909391e+02
   3.287889e+00  -3.850059e+01
   1.000108e+02  -1.400147e+02
   2.315954e+02  -1.037395e+02
   2.683841e+02   9.819950e+01
   1.253372e+02   2.811393e+02
  -9.913062e+01   2.507439e+02
  -2.472457e+02  -2.768003e+01
  -1.662220e+02  -2.728407e+02
   5.529116e+01  -2.800723e+02
   2.993419e+02  -9.269200e+01
   3.405662e+02   1.699684e+02
   1.244394e+02   3.714159e+02
  -1.148836e+02   3.416402e+02
  -2.217635e+02   1.011144e+02
  -1.689131e+02   5.242287e+01
  -1.263088e+02   5.920101e+01
  -2.832082e+02   8.713400e+01
  -4.192279e+02  -8.900818e+01
  -3.251698e+02  -3.176151e+02
  -3.073139e+01  -4.815392e+02
   4.058182e+02  -4.598889e+02
   4.805600e+02  -1.051182e+02
   3.042065e+02   1.435214e+02
   5.523968e+01   2.834119e+02
  -1.166186e+02   2.588425e+02
  -5.186043e+01   3.012299e+01
   1.230325e+02  -7.652102e+01
   2.040297e+02   6.532333e+01
   2.673617e+01   1.982494e+02
  -1.627174e+02   9.820491e+01
  -1.646819e+02  -6.667316e+01
   1.511170e+01  -1.837298e+02
   2.102001e+02  -2.155002e+01
   1.559953e+02   2.493031e+02
  -1.277185e+01   3.709839e+02
  -2.385618e+02   2.147492e+02
  -3.701457e+02  -9.843160e+01
  -2.589996e+02  -2.939777e+02
  -8.472286e+01  -2.728527e+02
   9.555392e+01  -1.499435e+02
   1.603167e+02  -6.616416e+00
   6.189413e+01   2.236872e+01
  -6.733907e+01  -5.814411e+01
  -1.958329e+01  -1.249191e+02
   1.357170e+02  -9.959555e+01
   1.735185e+02   1.825414e+01
   5.636049e+01   7.083814e+01
  -9.659058e+01  -8.683291e+00
  -5.996603e+01  -1.003517e+02
   1.562467e+02  -9.303386e+01
   3.482603e+02   2.545251e+01
   2.737878e+02   1.780412e+02
   4.750430e+01   2.581835e+02
  -2.373908e+02   3.073406e+02
  -2.779716e+02   9.077103e+01
  -1.595183e+02  -5.442035e+01
   2.590223e+01  -1.047114e+02
   1.056474e+02  -6.465185e+00
  -5.407221e+01   1.055958e+02
  -2.018680e+02   2.728878e+01
  -1.900695e+02  -7.813150e+01
  -4.820110e+01  -2.213032e+02
   1.126411e+02  -1.306684e+02
   1.509265e+02  -1.192256e+01
   6.078558e+01   3.601980e+01
  -3.782898e+01   1.132990e+00
  -5.394415e+01  -9.888518e+01
   8.210708e+01  -1.458873e+02
   2.284999e+02  -1.894276e+01
   1.731508e+02   1.153100e+02
   1.633874e+01   2.368255e+02
  -1.788446e+02   1.792211e+02
  -2.068764e+02   1.138653e+01
  -8.502494e+01  -1.169271e+02
   6.915066e+01  -1.043640e+02
   8.916383e+01  -1.240413e+01
   1.164346e+01   2.353147e+01
  -3.676501e+01   1.952883e+01
   5.348941e+00  -1.226661e+01
   8.253610e+01  -1.966761e+00
   8.237308e+01   9.670813e+01
  -2.656501e+00   1.506641e+02
  -1.494416e+02   1.549899e+02
  -2.418077e+02   3.448250e+01
  -2.072708e+02  -1.363299e+02
  -6.307930e+01  -2.706230e+02
   1.238611e+02  -1.581826e+02
   1.330238e+02  -2.486416e+01
   7.544071e+01   4.990103e+01
   4.154680e+01   3.096515e+01
   5.889570e+01  -1.667662e+01
   8.862324e+01  -4.215872e+00
   5.562921e+01   5.186712e+01
  -4.447144e+01   1.120738e+02
  -1.347137e+02   6.102114e+01
  -1.087973e+02  -4.044209e+01
   2.066775e+01  -1.166968e+02
   1.494723e+02  -8.973705e+01
   1.833217e+02   4.488586e+01
   7.789873e+01   1.845514e+02
  -1.286487e+02   2.416614e+02
  -2.621551e+02   8.698729e+01
  -2.844127e+02  -1.059148e+02
  -1.056105e+02  -2.071167e+02
   4.539245e+01  -1.599995e+02
   9.921539e+01  -9.293565e+01
   8.907248e+01  -8.436123e+01
   7.216463e+01  -9.698229e+01
   7.805351e+01  -1.022432e+02
   1.528922e+02   1.408987e+01
   1.276315e+02   1.686067e+02
   1.837578e+01   2.274996e+02
  -1.245515e+02   1.959546e+02
  -1.822662e+02   7.437457e+00
  -1.241563e+02  -1.177912e+02
  -1.362193e+01  -1.669874e+02
   6.612127e+01  -6.514134e+01
   6.765198e+01   1.296454e+01
   4.573869e+00   4.956014e+01
  -2.191634e+01   3.697821e+01
   3.501439e+01   1.958861e+01
   8.562746e+01   2.269228e+01
   5.163319e+01   3.767991e+01
  -8.389095e+01   4.182565e+01
  -1.851170e+02  -1.203389e+01
  -1.753976e+02  -8.233503e+01
  -1.458601e+01  -1.057543e+02
   1.382152e+02  -7.986500e+01
   1.486381e+02  -1.813118e+01
   5.572225e+01   4.938956e+01
  -6.634297e+01   4.769096e+01
  -7.293716e+01  -2.136323e+01
  -1.653139e+01  -7.259107e+01
   6.284057e+01  -6.104432e+01
   6.064117e+01  -5.023669e+00
   6.189143e+01   5.043255e+01
   4.408793e+01   4.342441e+01
   5.203381e+01   3.222894e+00
   6.527346e+01   7.788729e+00
   4.386826e+01   7.674729e+01
  -3.606943e+01   1.575466e+02
  -1.310937e+02   1.553788e+02
  -1.987054e+02   4.986110e+01
  -1.497612e+02  -1.036692e+02
  -1.607517e+01  -1.169493e+02
   8.968599e+01  -8.003447e+01
   6.541664e+01   1.316145e+01
  -6.287676e+01   2.410394e+01
  -1.396360e+02  -6.670197e+01
  -9.052272e+01  -1.164601e+02
   8.576069e+01  -1.040343e+02
   1.748971e+02  -5.829144e+01
   1.573908e+02   4.405460e+01
   4.218898e+01   9.327896e+01
  -5.898080e+01   7.026615e+01
  -5.320841e+01   4.892801e+00
   4.447455e+01  -2.842934e+01
   9.080298e+01   2.304854e+01
   3.336825e+01   1.205186e+02
  -9.247811e+01   1.520608e+02
  -1.599934e+02   6.264982e+01
  -1.429222e+02  -1.024570e+02
  -1.903404e+01  -1.980935e+02
   8.892416e+01  -1.681753e+02
   1.069325e+02   2.106936e+00
   4.544614e+01   1.322747e+02
  -1.775089e+00   1.069978e+02
  -4.758435e+01   1.866381e+01
  -4.781288e+01  -4.119975e+01
  -2.155271e+01  -7.097981e+00
  -7.394890e+00   1.759351e+01
  -3.224214e+01  -2.198682e+01
  -6.692432e+01  -1.049551e+02
  -3.252108e+01  -1.154552e+02
   5.177664e+01  -3.894076e+01
   1.596026e+02   3.563008e+01
   1.488253e+02   7.882265e+01
   2.178322e+01   5.171388e+01
  -1.001740e+02   3.221429e+01
  -9.929534e+01   7.042802e+00
  -1.310995e+01  -8.992056e+00
   4.209650e+01  -1.773654e+01
   1.838062e+01  -1.762631e+01
  -1.827064e+01  -1.078305e+00
   4.203881e+00   1.057292e+01
   7.537154e+01   4.002231e+00
   1.007112e+02   2.299747e+01
   1.425215e+01   7.908224e+01
  -1.175844e+02   1.093573e+02
  -1.846073e+02   3.668510e+01
  -1.479293e+02  -6.944246e+01
  -4.234912e+01  -1.594819e+02
   7.616031e+01  -1.558981e+02
   1.286410e+02  -6.370962e+01
   8.257204e+01   1.238452e+01
   2.642827e+01   4.179761e+01
   7.208320e-01   1.052880e+01
   1.136740e+01   5.715946e+00
   3.184983e+01   4.672472e+01
   2.274529e+01   9.670733e+01
  -2.743188e+01   8.186294e+01
  -8.033450e+01  -1.854415e+01
  -7.848138e+01  -1.125372e+02
  -9.211019e+00  -1.131161e+02
   8.611467e+01  -2.387338e+01
   1.014305e+02   6.603802e+01
   2.917265e+01   1.063957e+02
  -6.082519e+01   6.575518e+01
  -1.094144e+02  -2.309718e+01
  -5.728590e+01  -5.761455e+01
   2.941508e+01  -6.528818e+01
   3.703376e+01  -3.087264e+01
  -3.652763e+01   1.268205e+00
  -7.269304e+01   7.962264e+00
  -1.720315e+01  -2.547221e+01
   9.218734e+01  -7.627313e+01
   1.388717e+02  -5.690549e+01
   6.571523e+01   1.355417e+01
  -6.116927e+00   9.062016e+01
  -6.737224e+01   8.275312e+01
  -4.205088e+01   9.472523e+00
  -8.818899e+00  -5.562696e+01
   2.330980e+01  -5.147769e+01
   3.800901e+01   1.698173e+01
   2.918722e+01   5.641853e+01
   3.025174e+00   3.886789e+01
  -3.199179e+01  -7.997285e+00
  -4.332491e+01  -1.893519e+01
  -1.989657e+01  -1.920522e+00
   3.922244e+00   1.746931e+01
   8.050295e+00   3.397571e+00
   5.463685e+00  -3.433288e+01
   1.106040e+01  -5.463843e+01
   3.014360e+01  -1.700723e+01
   3.934635e+01   3.472941e+01
   6.544094e+00   5.913748e+01
  -4.769714e+01   1.886191e+01
  -6.196907e+01  -3.087378e+01
  -1.287348e+01  -7.042238e+01
   6.095683e+01  -3.608996e+01
   8.637947e+01   1.453977e+01
   4.341526e+01   4.821502e+01
  -3.232937e+01   4.432125e+01
  -6.972158e+01   2.862299e+01
  -2.850126e+01   8.937278e+00
   3.613110e+01   2.519888e+00
   3.687001e+01   1.506694e+01
  -2.605167e+01   2.210443e+01
  -8.732460e+01   2.227253e+01
