
 $NMID
 id='ANONYMOUS ', fmtdat='(2E16.6)'
 volume=1.0
 tramp=1.0
 $END
  -4.272613e+03   5.672724e+01
  -2.808207e+03  -2.594759e+03
   3.288568e+02  -2.791653e+03
   2.326036e+03  -6.411715e+02
   8.127511e+02   7.810132e+02
  -7.757679e+02   7.087991e+02
  -9.298435e+02  -3.878799e+02
   6.594035e+01  -1.311100e+03
   8.287161e+02  -6.681952e+02
   9.747384e+02   3.714152e+01
   4.167790e+02   1.027214e+03
  -2.723095e+02   9.029840e+02
  -6.773802e+02   5.324520e+01
  -4.658652e+02  -7.392586e+02
   3.506771e+02  -8.823381e+02
   6.332705e+02  -4.647745e+01
   2.939013e+02   7.048768e+02
  -3.850679e+02   6.233265e+02
  -6.648178e+02   5.470033e+01
  -4.157348e+02  -3.156581e+02
  -1.239236e+02  -3.767629e+02
   2.859643e+02  -2.977619e+02
   2.445528e+02  -1.417645e+01
  -1.113804e+02   1.130213e+02
  -3.870297e+02  -1.109577e+02
  -2.136421e+02  -4.190013e+02
   3.990224e+02  -5.417682e+02
   9.302306e+02   5.447466e+01
   4.885190e+02   5.728399e+02
  -3.991244e+02   5.227479e+02
  -7.207989e+02   7.346299e+01
  -4.351218e+02  -5.166774e+02
   2.967374e+02  -5.390042e+02
   6.392127e+02  -2.278175e+02
   4.456247e+02   1.940101e+02
   3.571497e+01   5.408021e+02
  -1.956118e+02   3.097860e+02
  -1.680741e+02  -2.471859e+02
   1.415794e+02  -4.001206e+02
   4.037771e+02  -9.892242e+01
   2.964495e+02   7.147503e+02
  -2.895932e+02   7.310031e+02
  -6.953185e+02  -7.351397e+00
  -1.644001e+02  -7.222534e+02
   2.741608e+02  -3.414590e+02
   3.717088e+02   2.898142e+02
  -1.211401e+02   6.254084e+02
  -6.027298e+02   1.738395e+02
  -6.260009e+02  -4.632893e+02
  -2.503097e+02  -6.615876e+02
   4.037051e+02  -3.553915e+02
   7.333308e+02   1.770437e+02
   3.994108e+02   4.275594e+02
  -1.612484e+02   4.047033e+02
  -4.655728e+02   4.721324e+01
  -2.624721e+02  -2.188988e+02
   1.316349e+02  -9.371362e+01
   1.211721e+02   1.421627e+02
  -1.886570e+02   2.232409e+02
  -3.686095e+02  -6.752300e+01
  -1.564288e+02  -2.790522e+02
   1.973854e+02  -2.907161e+02
   3.224495e+02  -1.145401e+02
   1.969261e+02   1.004227e+02
  -1.825729e+01   2.375343e+02
  -2.526174e+02   3.268194e+02
  -3.404390e+02   2.357383e+02
  -3.062500e+02  -9.499723e+01
  -1.419554e+02  -4.921524e+02
   1.184686e+02  -4.055848e+02
   1.384871e+02  -1.258075e+02
   2.931730e+01   2.336678e+01
   2.987301e+01  -8.659753e+01
   2.079799e+02  -1.247528e+02
   2.643525e+02   4.208649e+01
   1.717002e+02   3.016228e+02
  -1.712651e+01   2.752110e+02
  -2.375017e+02  -3.197820e-01
  -2.141548e+02  -2.643603e+02
   2.154921e+01  -3.017466e+02
   2.706866e+02  -1.098607e+02
   3.693507e+02   1.022786e+02
   2.164564e+02   3.881867e+02
  -1.115313e+02   3.026976e+02
  -2.307581e+02   1.074294e+02
  -1.640733e+02  -2.475547e+01
  -1.021686e+02   4.948204e+01
  -2.773052e+02   8.729889e+01
  -4.209345e+02  -1.352280e+02
  -3.803509e+02  -2.488501e+02
  -9.427169e+01  -4.345307e+02
   4.204625e+02  -4.304588e+02
   4.666698e+02  -2.360635e+02
   3.892015e+02   4.560960e+01
   6.681205e+01   3.127496e+02
  -1.255510e+02   2.505267e+02
  -8.366402e+01   3.891684e+01
   9.740444e+01  -1.286477e+02
   2.087163e+02   1.057299e+01
   5.949767e+01   2.325936e+02
  -1.655246e+02   1.701800e+02
  -2.030619e+02  -6.566319e+01
   1.411744e+01  -2.133829e+02
   1.962393e+02  -1.715749e+01
   1.789399e+02   2.650403e+02
   7.215605e+00   3.371950e+02
  -2.069185e+02   2.202259e+02
  -3.641315e+02  -4.579863e+01
  -2.465034e+02  -3.031438e+02
  -1.280435e+02  -2.734751e+02
   1.098168e+02  -1.715542e+02
   1.962070e+02  -4.065709e+01
   5.312375e+01   3.091729e+01
  -7.368836e+01  -3.688501e+01
  -6.053702e+01  -1.214625e+02
   1.357758e+02  -8.292023e+01
   1.925468e+02   3.602842e+01
   6.951649e+01   7.386827e+01
  -8.449417e+01   1.618578e+01
  -5.576136e+01  -6.263367e+01
   1.003004e+02  -9.169651e+01
   2.594785e+02  -6.650749e+00
   2.928965e+02   1.689439e+02
   5.517955e+01   2.533928e+02
  -1.809694e+02   2.645759e+02
  -2.717685e+02   1.261425e+02
  -1.756755e+02  -4.400004e+01
   8.718317e+00  -1.284552e+02
   9.917880e+01  -1.210703e+01
  -2.777331e+01   1.026641e+02
  -2.027945e+02   8.830631e+01
  -2.176694e+02  -1.013443e+02
  -7.562630e+01  -2.125575e+02
   1.031952e+02  -1.666387e+02
   1.480043e+02  -1.211260e+01
   8.437819e+01   4.647746e+01
  -3.275327e+01   1.334432e+00
  -6.563952e+01  -8.086244e+01
   7.420212e+01  -1.310616e+02
   1.959349e+02  -4.895733e+01
   2.032115e+02   1.252061e+02
   4.780730e+01   2.272896e+02
  -1.628509e+02   1.677122e+02
  -2.003181e+02   2.658055e+01
  -7.118764e+01  -1.306886e+02
   6.621349e+01  -1.204507e+02
   8.064498e+01  -4.040850e+01
   2.127131e+01   2.996450e+01
  -2.019185e+01   1.882453e+01
   5.734573e+00  -9.151626e+00
   6.369365e+01  -3.929748e+00
   1.000569e+02   8.333428e+01
   1.672497e+01   1.705048e+02
  -1.240431e+02   1.617105e+02
  -2.462948e+02   2.643450e+01
  -2.221627e+02  -1.172190e+02
  -5.515178e+01  -2.344623e+02
   8.181128e+01  -1.748168e+02
   1.486658e+02  -3.307477e+01
   8.142029e+01   4.787109e+01
   2.912989e+01   3.703720e+01
   5.181413e+01  -1.790667e+01
   8.269622e+01  -5.905503e+00
   4.501379e+01   5.314021e+01
  -3.141265e+01   8.952183e+01
  -1.004874e+02   5.947023e+01
  -9.473352e+01  -2.389852e+01
   1.098746e+01  -1.194542e+02
   1.406687e+02  -9.266776e+01
   2.188735e+02   4.048362e+01
   1.245345e+02   2.022189e+02
  -7.442780e+01   2.320594e+02
  -2.634830e+02   9.517947e+01
  -2.932557e+02  -7.502580e+01
  -1.186970e+02  -1.734829e+02
   4.077940e+01  -1.627218e+02
   1.016684e+02  -8.861484e+01
   8.749361e+01  -6.719625e+01
   7.589649e+01  -8.097510e+01
   9.597937e+01  -8.532862e+01
   1.316199e+02   1.654035e+01
   1.270934e+02   1.458608e+02
   1.374188e+01   2.427551e+02
  -1.028066e+02   1.616812e+02
  -1.976706e+02   2.114373e+01
  -1.657029e+02  -1.187576e+02
  -2.056136e+01  -1.533752e+02
   7.461202e+01  -9.458606e+01
   5.704100e+01  -9.173096e+00
   1.852048e+01   4.464283e+01
  -9.808740e+00   3.729177e+01
   3.582465e+01   1.817677e+01
   8.319499e+01   1.499416e+01
   5.886049e+01   3.722858e+01
  -6.664498e+01   3.372971e+01
  -1.720276e+02   1.169279e+01
  -1.307498e+02  -3.856843e+01
  -2.039157e+01  -9.616211e+01
   1.394755e+02  -8.534885e+01
   1.573229e+02  -2.564239e+01
   5.130573e+01   4.034686e+01
  -5.955357e+01   4.485330e+01
  -8.418225e+01  -6.710345e+00
  -1.766581e+01  -7.571478e+01
   6.077156e+01  -5.884337e+01
   6.360073e+01  -8.846620e+00
   4.603772e+01   4.823819e+01
   4.318819e+01   3.717438e+01
   7.083638e+01   8.031766e+00
   6.980787e+01   7.076742e+00
   3.843887e+01   6.720720e+01
  -1.316011e+01   1.524122e+02
  -1.053447e+02   1.444898e+02
  -1.659701e+02   3.945959e+01
  -1.158571e+02  -1.031392e+02
  -2.960879e+01  -1.226611e+02
   7.613253e+01  -6.361992e+01
   6.621426e+01   5.843146e+00
  -5.732609e+01   2.362212e+01
  -1.514409e+02  -3.625668e+01
  -8.185710e+01  -1.073896e+02
   6.300493e+01  -1.248498e+02
   1.939271e+02  -7.710227e+01
   1.798108e+02   3.646237e+01
   4.780739e+01   8.766227e+01
  -5.944869e+01   7.627718e+01
  -5.397606e+01   9.310988e+00
   3.449048e+01  -2.412220e+01
   9.176079e+01   1.390810e+01
   3.540405e+01   1.281987e+02
  -8.724919e+01   1.481637e+02
  -1.810186e+02   8.522060e+01
  -1.336354e+02  -9.539130e+01
  -3.456785e+01  -2.026809e+02
   7.626675e+01  -1.384197e+02
   1.073542e+02  -3.842340e+00
   5.881978e+01   1.215829e+02
   2.672580e+00   1.146184e+02
  -5.510620e+01   3.007812e+01
  -5.357947e+01  -3.734730e+01
  -2.676138e+01  -7.643417e+00
  -2.637611e+00   2.215009e+01
  -2.220556e+01  -1.436178e+01
  -5.759895e+01  -9.016085e+01
  -3.918232e+01  -1.152261e+02
   3.597355e+01  -5.166293e+01
   1.419971e+02   2.835121e+01
   1.309982e+02   5.527268e+01
   2.338975e+01   4.914650e+01
  -9.000352e+01   2.094578e+01
  -9.316170e+01   1.193640e+01
  -1.301973e+01  -7.602190e+00
   3.881510e+01  -2.199324e+01
   1.525054e+01  -2.041911e+01
  -2.345050e+01  -7.389743e-01
   3.696439e+00   9.229046e+00
   7.809327e+01   8.765128e+00
   9.362585e+01   1.193226e+01
   8.840632e+00   8.195456e+01
  -1.163816e+02   1.203105e+02
  -1.933094e+02   6.258873e+01
  -1.441649e+02  -7.829895e+01
  -2.850699e+01  -1.476145e+02
   1.039428e+02  -1.600369e+02
   1.152815e+02  -5.440228e+01
   8.525331e+01   9.495043e+00
   2.387839e+01   3.369430e+01
  -3.947045e+00   7.873906e+00
   1.186925e+01   4.141531e+00
   3.803519e+01   4.873699e+01
   2.791845e+01   9.143266e+01
  -2.270279e+01   7.446803e+01
  -9.382581e+01  -1.035839e+01
  -8.525107e+01  -1.015022e+02
  -1.548023e+01  -1.091156e+02
   8.550276e+01  -3.795845e+01
   1.091375e+02   7.615851e+01
   4.733699e+01   1.036243e+02
  -6.574419e+01   6.741322e+01
  -1.098457e+02  -1.091655e+01
  -3.831229e+01  -5.535817e+01
   1.918065e+01  -5.379605e+01
   3.513458e+01  -3.052935e+01
  -3.757380e+01   9.219856e-01
  -6.984549e+01   1.319398e+01
  -1.895457e+01  -2.691024e+01
   8.772226e+01  -7.212790e+01
   1.261318e+02  -5.230103e+01
   6.568784e+01  -1.903580e+00
  -1.985986e+01   7.974200e+01
  -4.451852e+01   9.109070e+01
  -3.563266e+01   9.734909e+00
  -1.875853e+00  -6.239181e+01
   2.506870e+01  -4.578406e+01
   3.586091e+01   1.615080e+01
   2.460123e+01   5.644794e+01
   5.465985e+00   3.080435e+01
  -3.217311e+01  -1.090662e+01
  -4.202760e+01  -1.561277e+01
  -2.569539e+01  -9.954279e-01
   1.363546e+00   1.360808e+01
   5.800172e+00  -2.891647e+00
   7.091138e+00  -4.017665e+01
   1.599603e+01  -3.947241e+01
   2.652983e+01  -6.896455e+00
   3.328236e+01   4.351918e+01
  -4.665166e+00   6.025207e+01
  -4.744218e+01   2.587181e+01
  -5.856154e+01  -3.259386e+01
  -1.138936e+01  -6.903245e+01
   5.392866e+01  -3.127125e+01
   9.611324e+01   1.318355e+01
   4.923037e+01   4.040409e+01
  -2.514652e+01   4.145651e+01
  -6.198826e+01   2.436176e+01
  -2.559897e+01   7.248489e+00
   3.784649e+01   3.697284e+00
   3.640245e+01   1.564555e+01
  -3.240555e+01   3.427031e+01
  -1.057830e+02   2.177459e+01
