
 $NMID
 id='ANONYMOUS ', fmtdat='(2E16.6)'
 volume=1.0
 tramp=1.0
 $END
  -3.799777e+03  -3.341154e+02
  -2.212360e+03  -2.225768e+03
   6.151073e+02  -2.235284e+03
   1.905687e+03  -1.218693e+03
   7.822479e+02   2.000680e+02
  -4.513122e+02   3.365117e+02
  -7.017525e+02  -2.976321e+02
  -1.221772e+02  -6.413178e+02
   4.440093e+02  -6.640755e+02
   7.850961e+02   1.670535e+01
   3.393733e+02   6.867361e+02
  -6.043986e-01   7.538651e+02
  -4.584664e+02   1.333851e+02
  -3.780196e+02  -5.458490e+02
   7.517012e+01  -6.177694e+02
   5.471615e+02   3.815356e+01
   2.759706e+02   5.368157e+02
  -2.547697e+02   6.933116e+02
  -5.861340e+02   2.164715e+02
  -4.168582e+02  -3.186055e+02
  -9.051674e+01  -4.023003e+02
   1.910901e+02  -2.408241e+02
   1.552176e+02  -6.629963e+01
  -1.782986e+02   1.672353e+01
  -2.702913e+02  -2.261520e+02
  -7.925762e+01  -4.786707e+02
   5.211207e+02  -2.704229e+02
   7.459132e+02   9.976674e+01
   2.812865e+02   4.815740e+02
  -4.216787e+02   3.421404e+02
  -6.874655e+02  -1.104836e+02
  -1.985230e+02  -5.138203e+02
   3.206227e+02  -3.676240e+02
   4.752270e+02  -1.799481e+02
   3.563702e+02   2.231631e+02
   1.189181e+02   3.216749e+02
  -6.869781e+01   2.611395e+02
  -8.130423e+01  -1.915894e+02
   2.124501e+02  -2.493608e+02
   3.081494e+02   1.165339e+02
   1.533629e+02   5.456094e+02
  -2.955508e+02   6.374501e+02
  -4.073998e+02   5.433671e+01
  -9.680675e+01  -4.544540e+02
   2.611162e+02  -2.140026e+02
   2.903274e+02   3.400252e+02
   2.124241e+01   4.750523e+02
  -5.147998e+02   1.164877e+02
  -4.858928e+02  -3.155150e+02
  -1.146817e+02  -5.852537e+02
   2.923877e+02  -2.847704e+02
   6.104388e+02   2.262508e+01
   3.347039e+02   3.276583e+02
  -6.939743e+01   3.139637e+02
  -3.083183e+02   5.625363e+01
  -1.867413e+02  -1.205662e+02
   3.956638e+00  -7.203969e+01
   6.096426e+01   1.255090e+02
  -8.137365e+01   1.144400e+02
  -2.976683e+02  -7.438840e+01
  -1.048014e+02  -2.456541e+02
   1.614580e+02  -2.040670e+02
   3.274623e+02  -1.075821e+02
   2.515447e+02   5.555446e+01
  -3.859417e+01   2.667659e+02
  -2.140803e+02   3.281541e+02
  -3.396724e+02   1.211825e+02
  -2.184398e+02  -1.789430e+02
  -7.619582e+01  -3.987801e+02
   1.121037e+02  -3.479165e+02
   7.790768e+01  -1.409074e+02
   2.511992e+01  -1.362324e+01
   1.000281e+02  -1.053781e+02
   1.996373e+02  -7.671431e+01
   2.501115e+02   1.103389e+02
   8.526236e+01   2.462555e+02
  -7.585307e+01   2.149677e+02
  -1.897740e+02   5.858061e+00
  -1.646635e+02  -2.647802e+02
   2.135424e+01  -2.520053e+02
   2.777286e+02  -1.245213e+02
   3.599317e+02   1.969500e+02
   1.800474e+02   3.460097e+02
  -1.016132e+02   2.701858e+02
  -2.143776e+02   1.511230e+02
  -1.481107e+02   3.570640e+01
  -1.257349e+02   3.762818e+01
  -2.456387e+02   5.409691e+01
  -4.104309e+02  -8.561219e+01
  -3.822930e+02  -2.299450e+02
   5.174661e+01  -4.971189e+02
   3.052552e+02  -3.950050e+02
   4.916969e+02  -2.379801e+02
   3.062848e+02   1.130902e+02
   5.188834e+01   2.516315e+02
  -6.478519e+01   2.774696e+02
  -4.412640e+01   2.181092e+01
   9.749126e+01  -6.743553e+01
   1.795590e+02   3.358669e+01
   2.356842e+01   1.666145e+02
  -1.279264e+02   1.648272e+02
  -1.497093e+02  -4.436121e+01
   3.286836e+01  -1.447096e+02
   1.367512e+02  -2.851122e+01
   1.654846e+02   2.368207e+02
  -3.869113e+01   3.695537e+02
  -2.460872e+02   1.755630e+02
  -3.479671e+02  -4.086776e+01
  -2.918525e+02  -2.259031e+02
  -5.189474e+01  -2.928174e+02
   1.209967e+02  -1.356181e+02
   1.645619e+02  -8.104256e+00
   4.020321e+01   1.643085e+01
  -6.196184e+01  -5.100540e+01
  -7.849914e+00  -1.086659e+02
   1.198320e+02  -7.728567e+01
   1.665172e+02  -4.408698e+00
   4.650990e+01   6.064910e+01
  -7.012551e+01   6.444914e+00
  -4.338554e+01  -9.075631e+01
   1.287748e+02  -1.038873e+02
   2.793069e+02   3.041398e+01
   2.414459e+02   1.514824e+02
   6.372567e+01   2.496359e+02
  -1.578883e+02   2.640732e+02
  -2.642907e+02   1.234082e+02
  -1.638968e+02  -6.306685e+01
   3.353549e+01  -1.018596e+02
   7.001001e+01  -1.425096e-01
  -3.620431e+01   7.987603e+01
  -1.872869e+02   6.474764e+01
  -1.911163e+02  -1.159109e+02
  -5.363223e+01  -1.837016e+02
   9.627760e+01  -1.327188e+02
   1.216260e+02  -5.259397e+01
   4.813062e+01   3.524837e+01
  -2.917456e+01  -6.691892e+00
  -2.017393e+01  -1.023148e+02
   8.712495e+01  -1.191375e+02
   2.198810e+02  -1.718026e+01
   1.842024e+02   1.208958e+02
  -1.677841e+00   2.284624e+02
  -1.566643e+02   1.700655e+02
  -1.786716e+02   2.551940e+01
  -6.025744e+01  -1.001177e+02
   6.919087e+01  -9.477243e+01
   6.851844e+01  -2.565100e+01
   1.110170e+01   2.185216e+01
  -3.236219e+01   2.209081e+01
   1.493883e+01  -1.494537e+01
   8.048709e+01   1.520705e+01
   1.080635e+02   8.216685e+01
   4.928036e+00   1.686166e+02
  -1.247190e+02   1.511977e+02
  -2.426989e+02  -1.285740e+01
  -1.968392e+02  -1.772606e+02
  -4.764939e+01  -2.015337e+02
   1.279513e+02  -1.535568e+02
   1.505087e+02  -2.714234e+01
   7.083607e+01   5.927748e+01
   2.392481e+01   3.579014e+01
   5.891357e+01  -1.158493e+01
   8.361875e+01  -1.000601e+01
   4.918401e+01   5.387814e+01
  -5.819965e+01   9.232525e+01
  -1.290081e+02   5.150853e+01
  -1.044466e+02  -3.075704e+01
   4.178617e+00  -1.238128e+02
   1.283300e+02  -6.896801e+01
   1.951166e+02   8.537877e+01
   6.596378e+01   2.031405e+02
  -1.349085e+02   2.281842e+02
  -2.649595e+02   7.969740e+01
  -2.578400e+02  -6.197099e+01
  -1.039193e+02  -1.997373e+02
   1.397966e+01  -1.289079e+02
   9.471499e+01  -7.022645e+01
   5.717200e+01  -7.549767e+01
   6.135918e+01  -9.856630e+01
   8.200315e+01  -6.573421e+01
   1.304837e+02   1.119961e+01
   1.245584e+02   1.667384e+02
   1.796026e+01   2.347007e+02
  -7.327857e+01   1.708223e+02
  -1.844063e+02   6.056032e+00
  -1.105914e+02  -1.040010e+02
   5.375923e-01  -1.661046e+02
   6.862875e+01  -8.198704e+01
   6.876911e+01   9.612480e+00
  -7.245438e+00   5.139628e+01
  -1.989420e+01   3.540272e+01
   2.924796e+01   1.828592e+01
   7.808019e+01   2.485151e+01
   4.436778e+01   4.132082e+01
  -6.314503e+01   4.671482e+01
  -1.888263e+02   6.104275e+00
  -1.387551e+02  -6.089615e+01
  -6.769555e+00  -1.007554e+02
   1.235741e+02  -7.359212e+01
   1.492153e+02   1.775118e-01
   3.975007e+01   5.668679e+01
  -6.931198e+01   3.801466e+01
  -7.460192e+01  -3.467919e+01
  -8.521606e+00  -7.734257e+01
   5.089829e+01  -6.450416e+01
   6.462038e+01   9.109611e+00
   4.400297e+01   5.710402e+01
   4.243830e+01   4.134318e+01
   6.370355e+01   4.755318e-01
   6.721470e+01  -6.555889e+00
   3.889797e+01   7.737203e+01
  -2.726577e+01   1.640686e+02
  -1.228868e+02   1.358190e+02
  -1.738622e+02   3.802031e+01
  -1.249685e+02  -7.818722e+01
   7.779236e+00  -1.437335e+02
   8.426382e+01  -6.115312e+01
   6.822491e+01   6.666776e+00
  -5.584792e+01   2.663932e+01
  -1.251708e+02  -3.868050e+01
  -7.386915e+01  -9.368593e+01
   7.450417e+01  -1.170836e+02
   1.696027e+02  -2.690902e+01
   1.578377e+02   4.278462e+01
   4.082541e+01   7.925870e+01
  -5.359953e+01   5.325491e+01
  -4.017217e+01   2.806563e+00
   4.260135e+01  -2.773675e+01
   9.214034e+01   2.813893e+01
   5.218485e+01   1.118877e+02
  -8.898012e+01   1.662974e+02
  -1.741029e+02   7.236552e+01
  -1.178434e+02  -9.460109e+01
  -1.123219e+00  -1.829940e+02
   7.208303e+01  -1.334497e+02
   9.974185e+01   5.447687e+00
   6.423872e+01   1.318851e+02
  -1.609944e+01   9.491710e+01
  -4.287732e+01   1.291181e+01
  -4.573698e+01  -3.210480e+01
  -1.904519e+01  -9.578427e+00
  -5.505228e+00   1.833887e+01
  -2.679568e+01  -2.049876e+01
  -5.589212e+01  -8.660844e+01
  -3.598861e+01  -1.121332e+02
   5.230318e+01  -3.171965e+01
   1.442772e+02   4.110792e+01
   1.375471e+02   6.006409e+01
   2.026686e+01   4.898640e+01
  -7.930448e+01   2.703344e+01
  -8.554936e+01   9.298073e+00
  -1.399040e+01  -1.049506e+01
   3.297105e+01  -1.957143e+01
   1.749814e+01  -1.384583e+01
  -1.575124e+01   2.352779e+00
   5.190486e+00   6.963809e+00
   6.920483e+01   5.736327e-01
   1.030862e+02   2.526707e+01
   2.599416e+01   8.219098e+01
  -1.102734e+02   1.154449e+02
  -1.847091e+02   3.960511e+01
  -1.451012e+02  -5.015553e+01
  -1.019915e+01  -1.579322e+02
   6.504218e+01  -1.393305e+02
   1.287046e+02  -5.436274e+01
   8.324388e+01   2.232991e+01
   2.555678e+01   3.648278e+01
  -1.274601e+00   9.646841e+00
   1.061683e+01   7.850315e+00
   3.010990e+01   4.373249e+01
   1.209549e+01   9.425403e+01
  -3.135230e+01   6.969088e+01
  -8.036927e+01  -2.663340e+01
  -8.323531e+01  -1.113421e+02
  -5.046424e+00  -1.105474e+02
   7.746851e+01  -3.718440e+01
   1.024232e+02   8.322697e+01
   3.543155e+01   1.023569e+02
  -6.063258e+01   5.725120e+01
  -1.013311e+02  -2.507152e+00
  -4.334851e+01  -5.243540e+01
   3.604674e+01  -5.513587e+01
   3.409419e+01  -2.996688e+01
  -2.974374e+01   6.776272e+00
  -7.606375e+01   5.947443e+00
  -1.409909e+01  -2.531403e+01
   7.288541e+01  -7.317082e+01
   1.168301e+02  -7.132558e+01
   6.793920e+01   2.891690e+01
  -1.474766e+01   7.790508e+01
  -5.590474e+01   7.937831e+01
  -4.016410e+01   6.407339e+00
   1.393474e+00  -5.094710e+01
   2.233320e+01  -3.924539e+01
   3.658705e+01   1.593493e+01
   2.390177e+01   5.324819e+01
  -5.027739e+00   3.637873e+01
  -2.712397e+01  -9.414040e+00
  -3.965487e+01  -2.983575e+01
  -1.927558e+01  -6.390218e+00
   2.252972e+00   1.565833e+01
   5.892474e+00   5.563162e+00
  -1.777686e+00  -3.543601e+01
   7.130673e+00  -4.517682e+01
   3.253876e+01  -1.885059e+01
   3.879724e+01   4.658127e+01
  -2.358904e+00   6.022283e+01
  -4.543842e+01   1.919547e+01
  -6.497687e+01  -4.040502e+01
  -2.274843e+01  -6.579748e+01
   4.671547e+01  -2.895215e+01
   9.501145e+01   1.437678e+01
   4.820008e+01   4.766166e+01
  -2.922365e+01   4.120077e+01
  -6.645316e+01   2.217924e+01
  -2.721260e+01   5.025427e+00
   2.895331e+01   1.841237e+00
   3.391958e+01   1.179214e+01
  -2.839763e+01   2.974293e+01
  -8.319271e+01   2.264710e+01
