
 $NMID
 id='ANONYMOUS ', fmtdat='(2E16.6)'
 volume=1.0
 tramp=1.0
 $END
  -4.376009e+03  -8.836363e+02
  -2.280207e+03  -2.295638e+03
   8.256666e+02  -2.421352e+03
   2.022135e+03  -4.434395e+02
   8.097112e+02   7.221611e+02
  -8.659345e+02   4.527043e+02
  -7.382812e+02  -7.163816e+02
   2.272666e+02  -1.063120e+03
   7.782734e+02  -6.690578e+02
   8.773415e+02   1.006375e+02
   3.206091e+02   8.900047e+02
  -2.545982e+02   8.972764e+02
  -5.853349e+02   1.300794e+02
  -3.868706e+02  -7.269923e+02
   4.122594e+02  -6.942827e+02
   6.238727e+02   2.119752e+01
   1.837459e+02   6.819555e+02
  -3.200973e+02   6.361292e+02
  -4.937436e+02   5.962740e+01
  -2.910399e+02  -3.520425e+02
   2.804048e+01  -4.129693e+02
   2.395780e+02  -2.294639e+02
   2.392506e+02   3.864302e+01
  -1.046414e+02   1.395625e+02
  -4.142786e+02  -6.155722e+01
  -2.866366e+02  -4.505763e+02
   5.054532e+02  -4.468133e+02
   9.557807e+02   1.743890e+02
   3.619692e+02   5.282352e+02
  -5.145636e+02   4.657645e+02
  -7.139624e+02  -4.800748e+01
  -3.635548e+02  -5.290498e+02
   3.468530e+02  -4.906908e+02
   5.808717e+02  -1.995696e+02
   3.967011e+02   2.273050e+02
  -7.429667e+00   4.615063e+02
  -2.261135e+02   2.773706e+02
  -2.187634e+02  -2.896761e+02
   1.323385e+02  -4.253179e+02
   5.334039e+02  -8.472133e+00
   1.939163e+02   8.005483e+02
  -4.186628e+02   6.276482e+02
  -6.402704e+02  -1.138646e+02
  -2.518801e+02  -4.915014e+02
   3.459482e+02  -3.306870e+02
   4.413291e+02   2.964467e+02
  -1.286872e+02   5.517177e+02
  -6.292414e+02   1.737094e+02
  -5.165571e+02  -4.552161e+02
  -2.517456e+02  -5.849338e+02
   3.916919e+02  -2.868107e+02
   6.302835e+02   1.982576e+02
   3.709176e+02   4.143159e+02
  -1.270470e+02   3.759283e+02
  -4.783530e+02   6.477053e+01
  -2.086055e+02  -1.710916e+02
   1.339444e+02  -1.066694e+02
   1.484090e+02   1.430690e+02
  -1.873928e+02   2.122932e+02
  -3.528853e+02  -8.740081e+01
  -1.218239e+02  -3.148390e+02
   2.009247e+02  -2.823615e+02
   3.399103e+02  -8.110394e+01
   1.822793e+02   1.133671e+02
   1.328622e+01   1.910447e+02
  -2.236818e+02   3.117700e+02
  -3.090180e+02   2.377366e+02
  -3.529075e+02  -1.540322e+02
  -4.736926e+01  -4.640401e+02
   1.374803e+02  -3.251355e+02
   1.043060e+02  -9.959575e+01
  -2.193947e+01   4.701341e+00
   1.435474e+01  -1.146747e+02
   1.994254e+02  -1.264439e+02
   2.868270e+02   2.678957e+01
   1.920836e+02   2.513536e+02
  -5.894703e+01   2.657952e+02
  -2.287615e+02  -1.769451e+01
  -1.933931e+02  -2.837634e+02
   4.161619e+01  -3.160731e+02
   2.443086e+02  -4.970888e+01
   3.532082e+02   1.255983e+02
   1.913249e+02   3.839561e+02
  -9.101300e+01   2.560840e+02
  -2.324989e+02   8.475970e+01
  -1.154738e+02   1.457015e+01
  -9.375326e+01   5.451367e+01
  -2.259882e+02   8.580567e+01
  -3.653680e+02  -7.905366e+01
  -3.161299e+02  -3.108315e+02
   6.951268e+00  -4.314589e+02
   3.878963e+02  -3.643656e+02
   4.593164e+02  -1.682727e+02
   3.365737e+02   1.037627e+02
   1.807337e+01   2.739730e+02
  -1.266828e+02   2.221784e+02
  -7.759576e+01   1.707657e+01
   1.233727e+02  -1.191533e+02
   2.127686e+02   3.675340e+01
   4.836907e+01   2.291631e+02
  -1.729025e+02   1.615801e+02
  -1.816770e+02  -8.994255e+01
   5.376053e+01  -2.169469e+02
   1.943302e+02  -2.866755e+00
   1.694029e+02   2.629232e+02
  -5.986205e+01   3.374144e+02
  -2.015681e+02   1.744938e+02
  -3.379793e+02  -3.324379e+01
  -2.427669e+02  -2.445756e+02
  -1.158346e+02  -2.607251e+02
   1.205922e+02  -1.644433e+02
   1.753836e+02  -1.143993e+01
   5.896178e+01   4.251890e+01
  -6.375819e+01  -3.500374e+01
  -3.063521e+01  -1.286578e+02
   1.154323e+02  -8.575445e+01
   1.699276e+02   2.997814e+01
   6.340964e+01   7.845789e+01
  -7.262426e+01   2.032598e+01
  -6.432727e+01  -6.250163e+01
   1.096868e+02  -9.715342e+01
   2.696208e+02  -9.568269e-01
   2.928434e+02   1.135076e+02
   5.441522e+01   2.450001e+02
  -1.889672e+02   2.452275e+02
  -2.604167e+02   1.200977e+02
  -1.641610e+02  -7.206778e+01
   4.146692e+01  -1.085796e+02
   9.559231e+01   2.063792e+00
  -4.784017e+01   1.063481e+02
  -2.223020e+02   3.517587e+01
  -2.166320e+02  -8.638815e+01
  -7.077379e+01  -2.188658e+02
   9.165088e+01  -1.669123e+02
   1.534454e+02  -1.269687e+01
   7.569435e+01   4.265699e+01
  -2.798056e+01   4.670665e+00
  -5.562357e+01  -7.364173e+01
   9.082952e+01  -1.150540e+02
   1.905688e+02  -2.202641e+01
   1.866119e+02   1.243825e+02
   4.271494e+00   2.312190e+02
  -1.806901e+02   1.564509e+02
  -1.801565e+02   1.531565e+00
  -4.710004e+01  -1.192217e+02
   6.882758e+01  -1.103917e+02
   8.218351e+01  -3.362498e+01
   1.660536e+01   3.211037e+01
  -2.372195e+01   1.873906e+01
   1.105352e+00  -9.198737e+00
   5.809637e+01   5.680668e+00
   8.909746e+01   9.782267e+01
   2.197379e+01   1.608483e+02
  -1.070600e+02   1.810504e+02
  -2.220490e+02   2.215302e+00
  -1.802942e+02  -1.365508e+02
  -5.340992e+01  -1.924890e+02
   8.937104e+01  -1.701787e+02
   1.313134e+02  -3.289360e+01
   6.796296e+01   5.494570e+01
   1.999883e+01   2.982739e+01
   4.987013e+01  -1.306724e+01
   7.835717e+01  -2.343822e+00
   3.839695e+01   4.472408e+01
  -3.044164e+01   8.915445e+01
  -8.284084e+01   5.815948e+01
  -7.507451e+01  -2.998999e+01
   1.911667e+01  -1.107004e+02
   1.368128e+02  -9.102027e+01
   2.163794e+02   3.708288e+01
   1.010467e+02   1.877499e+02
  -9.680048e+01   2.342294e+02
  -2.252716e+02   8.300858e+01
  -2.769916e+02  -9.516589e+01
  -1.125302e+02  -1.566410e+02
   3.515052e+01  -1.360824e+02
   9.463849e+01  -7.860466e+01
   8.496133e+01  -6.261393e+01
   5.027804e+01  -7.483397e+01
   1.109218e+02  -6.730726e+01
   1.175232e+02   1.814228e+01
   1.244582e+02   1.565395e+02
   2.131503e+01   2.118946e+02
  -9.205998e+01   1.490140e+02
  -1.708212e+02   2.543348e+01
  -1.300875e+02  -1.177030e+02
  -3.726401e+01  -1.562808e+02
   5.719376e+01  -9.461224e+01
   5.800368e+01  -4.898466e+00
   1.127624e+01   4.403338e+01
   2.274746e-01   3.771814e+01
   3.639757e+01   1.397997e+01
   6.743361e+01   1.622377e+01
   4.628523e+01   3.753165e+01
  -5.595457e+01   3.446696e+01
  -1.433116e+02   6.053218e+00
  -1.398750e+02  -3.794654e+01
  -6.499977e+00  -8.659860e+01
   1.213660e+02  -7.984518e+01
   1.397693e+02  -2.089625e+01
   4.593064e+01   3.538320e+01
  -4.832685e+01   3.770461e+01
  -7.943460e+01  -1.206154e+01
  -1.096843e+01  -6.010984e+01
   5.847479e+01  -4.932990e+01
   5.785815e+01   1.394364e+00
   4.503320e+01   3.796197e+01
   3.913751e+01   4.158526e+01
   6.450913e+01   3.278546e+00
   7.254087e+01   1.863624e+00
   3.867411e+01   5.152874e+01
  -3.321350e+01   1.359905e+02
  -1.053040e+02   1.426563e+02
  -1.545549e+02   3.423972e+01
  -9.821921e+01  -8.014294e+01
  -8.872180e+00  -1.271463e+02
   6.990024e+01  -6.896588e+01
   5.757565e+01   1.330772e+01
  -5.692747e+01   1.227550e+01
  -1.311349e+02  -3.184496e+01
  -6.152285e+01  -1.179072e+02
   8.610315e+01  -1.222156e+02
   1.638449e+02  -5.939008e+01
   1.684833e+02   5.284482e+01
   3.111513e+01   7.855933e+01
  -7.050415e+01   6.575571e+01
  -4.722194e+01   7.057581e+00
   2.864003e+01  -2.648070e+01
   9.172347e+01   2.559509e+01
   1.751500e+01   1.155794e+02
  -8.497088e+01   1.390226e+02
  -1.764310e+02   4.735197e+01
  -1.140808e+02  -9.694834e+01
  -6.863506e+00  -1.902307e+02
   7.916560e+01  -1.183655e+02
   9.769999e+01   5.460984e+00
   5.900235e+01   1.090442e+02
   1.483097e+01   1.178338e+02
  -5.294891e+01   2.366687e+01
  -5.419111e+01  -2.812817e+01
  -2.784536e+01  -9.763895e+00
  -3.313021e-01   2.236490e+01
  -2.259645e+01  -9.799013e+00
  -5.399266e+01  -8.770745e+01
  -4.280690e+01  -1.055058e+02
   4.716221e+01  -5.213407e+01
   1.310309e+02   2.865640e+01
   1.148230e+02   7.079003e+01
   1.547806e+01   5.306246e+01
  -8.577291e+01   2.112360e+01
  -8.002673e+01   1.419536e+01
  -1.086501e+01  -5.453868e+00
   3.649026e+01  -2.043573e+01
   1.287375e+01  -1.939511e+01
  -2.200681e+01   9.440283e-01
   4.070281e+00   9.481736e+00
   6.692047e+01   3.476683e+00
   8.821890e+01   3.067677e+01
   1.093175e+01   7.058851e+01
  -1.011072e+02   1.242642e+02
  -2.041260e+02   7.316242e+01
  -1.350634e+02  -5.259788e+01
  -1.866537e+01  -1.375736e+02
   7.382944e+01  -1.327178e+02
   9.299578e+01  -5.211950e+01
   8.534195e+01   3.259180e+01
   2.269937e+01   2.684388e+01
  -5.380156e-02   2.983617e+00
   9.122138e+00   2.137271e+00
   2.587974e+01   5.318382e+01
   3.334384e+01   8.495726e+01
  -2.870993e+01   6.924028e+01
  -8.806910e+01  -1.446693e+01
  -6.813788e+01  -9.201853e+01
   4.966446e+00  -1.047551e+02
   8.758538e+01  -2.011536e+01
   1.065572e+02   6.594028e+01
   3.605316e+01   1.070546e+02
  -6.024685e+01   4.208478e+01
  -1.044226e+02  -1.922044e+01
  -3.462991e+01  -4.309692e+01
   3.311800e+01  -4.078510e+01
   3.014391e+01  -2.832790e+01
  -3.407456e+01  -1.494765e+00
  -6.837368e+01   6.060377e+00
  -1.100001e+01  -2.363088e+01
   8.012912e+01  -5.498037e+01
   1.191011e+02  -4.686382e+01
   6.252631e+01   2.443247e+00
  -1.473829e+01   7.489810e+01
  -4.530357e+01   8.205853e+01
  -3.683837e+01   7.456383e+00
  -1.294805e+00  -5.572842e+01
   1.863138e+01  -3.955341e+01
   3.890657e+01   1.679783e+01
   2.686561e+01   4.888210e+01
   2.748462e+00   3.044581e+01
  -2.705313e+01  -9.911158e+00
  -4.146074e+01  -1.322741e+01
  -2.110544e+01   9.980760e-01
   1.606612e+00   1.200937e+01
   9.869437e+00  -6.715412e+00
   1.032966e+01  -3.744081e+01
   1.530297e+01  -3.865668e+01
   2.497059e+01  -3.230848e+00
   2.166583e+01   4.070311e+01
  -9.922829e-01   5.666281e+01
  -4.326841e+01   2.450473e+01
  -4.906983e+01  -4.184623e+01
  -9.923473e+00  -6.464405e+01
   5.745048e+01  -3.620329e+01
   8.465105e+01   2.138852e+01
   4.584733e+01   3.867838e+01
  -2.375817e+01   3.815052e+01
  -5.761011e+01   1.494774e+01
  -2.342972e+01   5.860449e+00
   3.657461e+01   7.584471e+00
   3.908338e+01   1.684657e+01
  -3.315801e+01   3.053377e+01
  -9.705792e+01   8.630451e+00
