
 $NMID
 id='ANONYMOUS ', fmtdat='(2E16.6)'
 volume=1.0
 tramp=1.0
 $END
  -4.561483e+03  -1.215063e+02
  -2.522008e+03  -2.911571e+03
   9.252333e+02  -3.220792e+03
   2.396839e+03  -6.701712e+02
   6.344725e+02   1.032656e+03
  -8.822821e+02   6.697900e+02
  -8.201791e+02  -3.498471e+02
  -5.216913e+01  -1.152412e+03
   7.989638e+02  -7.391144e+02
   8.747321e+02   2.968159e+02
   5.318574e+02   9.497324e+02
  -2.446374e+02   1.061107e+03
  -6.883451e+02  -4.507107e+01
  -3.378751e+02  -8.492780e+02
   1.718377e+02  -8.927080e+02
   6.640241e+02   6.412986e+01
   3.042771e+02   8.168339e+02
  -3.035168e+02   6.468734e+02
  -5.847364e+02   5.844673e+01
  -3.398884e+02  -3.777077e+02
   4.637712e+01  -4.921106e+02
   3.161392e+02  -3.054490e+02
   2.443630e+02   5.107448e+01
  -1.379299e+02   1.103493e+02
  -4.329547e+02  -8.742981e+01
  -2.324820e+02  -5.075015e+02
   4.781790e+02  -3.903977e+02
   9.311751e+02   1.702351e+02
   4.666472e+02   6.448653e+02
  -3.478705e+02   5.613818e+02
  -7.773773e+02  -5.226034e+01
  -4.195230e+02  -5.920131e+02
   2.989659e+02  -6.245104e+02
   5.970162e+02  -2.405122e+02
   4.264805e+02   2.951759e+02
   6.650721e+01   5.274667e+02
  -1.680223e+02   2.668964e+02
  -2.001286e+02  -2.508787e+02
   2.218394e+02  -5.122017e+02
   5.157448e+02  -1.127656e+01
   3.339973e+02   7.910744e+02
  -3.807744e+02   7.329447e+02
  -6.734521e+02   4.892978e+00
  -2.686936e+02  -6.838823e+02
   2.637396e+02  -3.546895e+02
   4.717346e+02   3.046984e+02
  -7.532857e+01   5.833378e+02
  -6.283495e+02   1.693231e+02
  -6.126463e+02  -3.877488e+02
  -1.670369e+02  -5.867560e+02
   3.493062e+02  -4.282701e+02
   6.417094e+02   5.717254e+01
   3.517129e+02   4.154045e+02
  -1.973729e+02   4.123349e+02
  -5.275804e+02   5.019976e+01
  -2.131931e+02  -2.546999e+02
   1.286184e+02  -1.349852e+02
   1.673114e+02   1.780821e+02
  -2.157202e+02   1.973823e+02
  -3.470019e+02  -5.682726e+01
  -1.299227e+02  -3.635582e+02
   2.298358e+02  -2.909452e+02
   3.779714e+02  -4.889111e+01
   1.516049e+02   7.609803e+01
  -2.241822e+01   1.881187e+02
  -1.912366e+02   3.296201e+02
  -3.464983e+02   2.126952e+02
  -3.079831e+02  -1.464402e+02
  -8.611758e+01  -4.681010e+02
   1.366454e+02  -3.317944e+02
   1.494367e+02  -1.051926e+02
   3.702961e+01   2.182630e+01
   1.313419e+01  -9.329496e+01
   1.859424e+02  -1.162171e+02
   3.142512e+02   4.050344e+01
   1.626272e+02   2.850570e+02
  -1.084022e+02   2.769322e+02
  -2.340185e+02   4.990314e+01
  -1.714367e+02  -2.255522e+02
   8.793414e+00  -2.780481e+02
   2.643389e+02  -1.401351e+02
   3.971635e+02   2.294684e+02
   2.183126e+02   3.992687e+02
  -1.232260e+02   2.993090e+02
  -2.392290e+02   1.245211e+02
  -1.679564e+02  -5.894104e+00
  -1.027494e+02   2.479118e+01
  -2.250967e+02   8.432511e+01
  -3.961722e+02   1.721752e+01
  -3.120585e+02  -2.814955e+02
  -4.121912e-01  -4.222581e+02
   3.454309e+02  -4.038608e+02
   4.824695e+02  -2.265593e+02
   4.112099e+02   1.171734e+02
   1.052352e+01   2.975089e+02
  -1.358492e+02   2.236759e+02
  -9.561764e+01   3.825393e+01
   1.078763e+02  -1.273044e+02
   2.123882e+02  -1.649450e+01
   6.050502e+01   2.031327e+02
  -1.945748e+02   1.859522e+02
  -1.775382e+02  -4.777799e+01
  -4.718384e+00  -2.073419e+02
   1.839356e+02  -6.829387e+01
   1.602278e+02   2.585025e+02
  -3.156379e+01   3.397643e+02
  -2.232784e+02   1.724618e+02
  -3.044579e+02  -7.301788e+01
  -2.678496e+02  -1.998482e+02
  -1.011781e+02  -2.949925e+02
   1.104414e+02  -1.531825e+02
   1.671590e+02  -2.941323e+01
   7.114189e+01   2.794194e+01
  -6.457722e+01  -3.004415e+01
  -3.572863e+01  -1.297167e+02
   1.033150e+02  -8.721395e+01
   1.755246e+02  -1.145937e+01
   6.505257e+01   9.506233e+01
  -7.709101e+01   2.900432e+01
  -6.357897e+01  -6.165415e+01
   1.221569e+02  -6.938161e+01
   2.512245e+02  -1.191179e+01
   2.691344e+02   1.213915e+02
   7.641493e+01   3.100432e+02
  -1.954239e+02   2.809735e+02
  -2.814953e+02   1.492583e+02
  -1.848398e+02  -6.056381e+01
   3.114228e+01  -1.236730e+02
   9.291104e+01  -1.159127e+01
  -2.171519e+01   1.008245e+02
  -2.167758e+02   6.087296e+01
  -2.243184e+02  -1.217585e+02
  -7.917736e+01  -2.042303e+02
   1.000289e+02  -1.688421e+02
   1.315303e+02  -3.202049e+01
   9.261338e+01   2.854364e+01
  -2.349280e+01  -1.039619e+00
  -3.405301e+01  -7.503305e+01
   6.854093e+01  -1.152237e+02
   1.783540e+02  -3.401285e+01
   1.902835e+02   1.181542e+02
   4.017522e+01   2.148868e+02
  -1.744379e+02   1.715150e+02
  -1.823814e+02   8.749489e-01
  -6.500319e+01  -1.154767e+02
   6.266469e+01  -1.061273e+02
   9.599024e+01  -3.863429e+01
   2.544661e+01   2.879719e+01
  -1.637511e+01   2.374726e+01
   1.375376e+01  -8.719695e+00
   6.197893e+01   1.330871e+01
   8.866203e+01   9.015460e+01
   2.269389e+01   1.603877e+02
  -1.308457e+02   1.627185e+02
  -2.100401e+02   3.138753e+01
  -1.853948e+02  -1.504394e+02
  -3.608705e+01  -2.139247e+02
   1.216682e+02  -1.722540e+02
   1.468197e+02  -1.824383e+01
   6.157527e+01   5.967479e+01
   2.255644e+01   3.822571e+01
   4.857323e+01  -7.179347e+00
   8.135507e+01  -1.169952e+01
   3.600794e+01   5.078503e+01
  -5.700476e+01   8.172948e+01
  -8.563333e+01   4.204560e+01
  -8.362186e+01  -3.160413e+01
   2.542382e+01  -1.032407e+02
   1.524543e+02  -9.210287e+01
   2.184262e+02   5.266167e+01
   1.042693e+02   2.402027e+02
  -1.140820e+02   2.012842e+02
  -2.553891e+02   1.155908e+02
  -2.909329e+02  -7.514182e+01
  -1.048845e+02  -2.009327e+02
   4.737457e+01  -1.353193e+02
   8.804738e+01  -8.790906e+01
   7.528314e+01  -7.673983e+01
   6.034201e+01  -8.353968e+01
   9.722855e+01  -7.019461e+01
   1.221633e+02   3.570445e+01
   1.005060e+02   1.413749e+02
   1.387287e+01   2.007149e+02
  -7.227417e+01   1.657912e+02
  -1.761329e+02   1.967149e+01
  -1.292510e+02  -1.463429e+02
  -2.350226e+01  -1.568310e+02
   6.571960e+01  -9.221659e+01
   6.019331e+01  -8.562725e-01
   6.380063e+00   4.357754e+01
  -7.783031e+00   3.743410e+01
   3.806477e+01   1.883912e+01
   7.465816e+01   2.318102e+01
   4.694725e+01   4.140396e+01
  -5.925246e+01   3.874023e+01
  -1.631573e+02   3.760807e+00
  -1.431644e+02  -4.291913e+01
  -1.871371e+01  -8.229957e+01
   1.176188e+02  -7.267737e+01
   1.671844e+02  -8.044178e+00
   5.409269e+01   3.576347e+01
  -5.748195e+01   3.660049e+01
  -8.077501e+01  -2.304050e+01
  -3.447708e+00  -7.324963e+01
   5.482507e+01  -5.503319e+01
   6.009527e+01   9.646582e+00
   4.458750e+01   5.018502e+01
   3.502973e+01   4.112486e+01
   5.878054e+01   7.980900e+00
   6.460959e+01  -1.039682e+00
   3.747936e+01   6.449589e+01
  -3.552548e+01   1.431205e+02
  -1.205173e+02   1.360011e+02
  -1.542760e+02   2.615788e+01
  -1.286216e+02  -7.929956e+01
   8.626888e+00  -1.161733e+02
   8.948812e+01  -4.794802e+01
   5.462518e+01   1.958360e+01
  -6.318841e+01   2.089982e+01
  -1.547129e+02  -3.799288e+01
  -8.445183e+01  -1.118240e+02
   8.240076e+01  -1.059743e+02
   2.142039e+02  -6.419927e+01
   1.687607e+02   2.912682e+01
   3.590616e+01   8.633732e+01
  -5.676190e+01   6.134460e+01
  -5.517560e+01   1.047032e+01
   3.761931e+01  -2.269705e+01
   7.829585e+01   2.150834e+01
   4.275356e+01   1.070900e+02
  -9.897671e+01   1.690775e+02
  -1.597105e+02   6.817798e+01
  -1.091168e+02  -9.231999e+01
  -8.933182e+00  -2.190428e+02
   6.702723e+01  -1.292113e+02
   1.004654e+02   2.346716e+01
   6.285742e+01   1.131105e+02
  -4.341625e+00   1.172925e+02
  -4.450945e+01   1.866459e+01
  -5.981407e+01  -2.173057e+01
  -2.817124e+01  -4.892748e+00
  -5.856360e+00   2.291229e+01
  -1.737242e+01  -1.110998e+01
  -5.196669e+01  -7.212506e+01
  -3.724893e+01  -1.001871e+02
   5.101568e+01  -4.921567e+01
   1.371038e+02   5.362934e+01
   1.058644e+02   7.057536e+01
   1.249820e+01   5.031249e+01
  -8.199467e+01   8.936985e+00
  -8.505154e+01   1.905503e+00
  -9.550663e+00  -8.421718e+00
   3.881680e+01  -2.335670e+01
   1.340993e+01  -2.154814e+01
  -2.025843e+01   2.716938e+00
   5.245943e+00   9.269244e+00
   6.960302e+01   9.484932e-01
   8.097175e+01   3.460912e+01
   1.301129e+01   7.473313e+01
  -1.199807e+02   1.154772e+02
  -1.741178e+02   5.366941e+01
  -1.488397e+02  -6.519676e+01
  -1.599404e+01  -1.603085e+02
   6.493355e+01  -1.476866e+02
   9.891882e+01  -5.552425e+01
   8.179303e+01   2.810611e+01
   2.206206e+01   3.256199e+01
  -4.226954e+00   7.235314e+00
   8.271846e+00   4.394753e+00
   3.218459e+01   4.511982e+01
   2.314883e+01   8.735165e+01
  -3.354947e+01   7.637213e+01
  -8.283522e+01  -2.373222e+01
  -7.017033e+01  -1.151719e+02
   9.047135e+00  -1.253697e+02
   8.546950e+01  -2.007529e+01
   1.100080e+02   6.510097e+01
   2.710788e+01   1.114832e+02
  -7.252777e+01   5.078917e+01
  -9.844529e+01  -1.151490e+01
  -2.982970e+01  -4.422580e+01
   3.594068e+01  -5.030124e+01
   2.807424e+01  -2.632252e+01
  -3.707510e+01  -2.115623e+00
  -6.505759e+01   5.623830e+00
  -1.313137e+01  -2.729110e+01
   7.967185e+01  -6.360293e+01
   9.735607e+01  -5.881631e+01
   6.487078e+01   1.236403e+01
  -1.073098e+01   8.333812e+01
  -5.839346e+01   7.325421e+01
  -3.712696e+01  -1.947616e+00
  -6.579341e+00  -5.474886e+01
   2.632890e+01  -4.272614e+01
   3.716431e+01   2.151094e+01
   2.481819e+01   5.751254e+01
  -4.249700e+00   2.977374e+01
  -3.601565e+01  -8.063273e+00
  -4.373221e+01  -2.289808e+01
  -2.079158e+01  -6.142909e-01
  -2.653545e+00   1.298321e+01
   6.653244e+00  -5.316692e+00
   7.967832e+00  -3.879234e+01
   2.014083e+01  -4.553166e+01
   3.437346e+01  -1.751262e+00
   1.463694e+01   4.778345e+01
  -7.322503e+00   6.019777e+01
  -4.701926e+01   2.059387e+01
  -5.570554e+01  -4.212293e+01
  -1.088955e+01  -5.358909e+01
   5.769749e+01  -3.620303e+01
   1.018362e+02   2.070561e+01
   4.889106e+01   4.778327e+01
  -3.066286e+01   3.894955e+01
  -6.266149e+01   2.530321e+01
  -2.575586e+01   6.205247e+00
   3.622884e+01   7.888984e+00
   3.525000e+01   1.860834e+01
  -3.513868e+01   3.189150e+01
  -9.473897e+01   2.445316e+01
