
 $NMID
 id='ANONYMOUS ', fmtdat='(2E16.6)'
 volume=1.0
 tramp=1.0
 $END
   4.169134e+03  -9.658174e+00
   2.512351e+03   2.932082e+03
  -1.089306e+03   2.938585e+03
  -2.364224e+03   9.661404e+02
  -8.811274e+02  -5.122790e+02
   7.565351e+02  -5.766925e+02
   8.333233e+02   3.165108e+02
   1.420237e+02   1.003495e+03
  -7.108278e+02   7.055399e+02
  -8.855938e+02  -1.202839e+02
  -4.547258e+02  -8.680077e+02
   2.031396e+02  -9.293554e+02
   6.610708e+02  -6.372775e+01
   4.075297e+02   6.605713e+02
  -1.491016e+02   8.638213e+02
  -6.479551e+02  -9.943555e+00
  -2.498196e+02  -6.775436e+02
   2.147115e+02  -6.652564e+02
   6.401534e+02  -7.644682e+01
   3.628699e+02   3.177459e+02
   1.674243e+01   4.650540e+02
  -2.674490e+02   2.748857e+02
  -2.489803e+02   9.087336e+00
   1.375098e+02  -6.403038e+01
   3.636202e+02   1.718050e+02
   1.324264e+02   5.169728e+02
  -4.899348e+02   3.758096e+02
  -9.350943e+02  -8.706252e+01
  -4.327712e+02  -5.980856e+02
   3.954274e+02  -5.132287e+02
   7.381289e+02   6.837207e+01
   2.839314e+02   5.402399e+02
  -2.626609e+02   5.214070e+02
  -5.732034e+02   3.480940e+02
  -4.344485e+02  -2.402214e+02
  -7.706008e+01  -4.610654e+02
   1.405206e+02  -3.359924e+02
   1.697978e+02   2.559475e+02
  -1.640480e+02   4.151672e+02
  -4.134419e+02  -1.079068e+02
  -1.879088e+02  -7.296873e+02
   2.573313e+02  -7.146638e+02
   5.813914e+02  -6.715907e+01
   3.010094e+02   5.845497e+02
  -2.736134e+02   3.258631e+02
  -4.218376e+02  -3.582290e+02
   2.853893e+01  -6.142038e+02
   5.935298e+02  -1.681610e+02
   6.286712e+02   3.786215e+02
   1.425516e+02   6.715314e+02
  -3.632246e+02   3.695085e+02
  -7.182548e+02  -3.523450e+01
  -3.954792e+02  -3.806799e+02
   1.345111e+02  -3.750756e+02
   4.768434e+02  -1.121027e+02
   2.377479e+02   2.138944e+02
  -9.974715e+01   1.372346e+02
  -1.195117e+02  -1.469488e+02
   1.789490e+02  -1.536987e+02
   3.458390e+02   5.856309e+01
   1.090016e+02   3.076996e+02
  -1.922990e+02   3.156430e+02
  -3.524803e+02   8.382840e+01
  -2.073850e+02  -8.327735e+01
   1.343550e+01  -2.041907e+02
   1.955057e+02  -3.517548e+02
   3.040268e+02  -2.136979e+02
   2.568242e+02   1.667536e+02
   9.733682e+01   4.540334e+02
  -1.394082e+02   3.719530e+02
  -1.165878e+02   1.310718e+02
  -2.106676e+01  -1.320545e+01
  -4.251441e+01   9.922934e+01
  -1.803171e+02   1.117499e+02
  -3.131753e+02  -6.418156e+01
  -1.581778e+02  -2.643401e+02
   1.200391e+02  -2.801944e+02
   2.222317e+02  -5.090824e+01
   2.123146e+02   2.477999e+02
   1.595495e+00   2.646624e+02
  -2.867113e+02   1.299552e+02
  -3.960622e+02  -2.284478e+02
  -2.170056e+02  -3.760008e+02
   7.958059e+01  -2.928740e+02
   2.285528e+02  -1.431777e+02
   1.517273e+02   8.376996e-01
   1.003370e+02  -5.014423e+01
   2.457062e+02  -7.648041e+01
   3.728819e+02  -3.418397e+01
   3.424306e+02   2.824215e+02
  -5.705998e+01   4.948324e+02
  -2.854416e+02   4.465212e+02
  -4.647420e+02   2.362025e+02
  -3.696059e+02  -1.503232e+02
  -6.746742e+01  -2.911099e+02
   1.083164e+02  -2.807129e+02
   8.396392e+01  -3.271545e+01
  -1.025751e+02   1.096066e+02
  -2.000610e+02   3.438345e+00
  -3.537728e+01  -1.818795e+02
   1.330714e+02  -2.223902e+02
   1.836540e+02   5.823021e+01
   1.623667e+01   1.913649e+02
  -1.779787e+02   5.173659e+01
  -1.602198e+02  -2.394243e+02
   6.899914e+01  -3.789382e+02
   2.184853e+02  -1.807249e+02
   3.447793e+02   5.158426e+01
   3.072756e+02   2.154079e+02
   7.267746e+01   2.758854e+02
  -1.060735e+02   1.504681e+02
  -1.690737e+02   4.967579e+01
  -5.633563e+01  -3.492164e+01
   6.941596e+01   3.725617e+01
   2.962555e+01   1.159217e+02
  -1.081840e+02   9.772394e+01
  -1.908963e+02   1.505446e+01
  -5.285367e+01  -7.771797e+01
   7.318098e+01  -3.550373e+01
   6.027902e+01   8.364440e+01
  -1.260419e+02   8.513154e+01
  -2.396526e+02   1.237758e+01
  -2.825239e+02  -1.344486e+02
  -6.272578e+01  -2.756748e+02
   1.967838e+02  -2.680043e+02
   2.742403e+02  -1.660047e+02
   1.801059e+02   8.500072e+01
  -4.480631e+01   1.181728e+02
  -8.581935e+01   8.518887e+00
   2.320387e+01  -9.799841e+01
   1.865299e+02  -6.477679e+01
   1.988284e+02   1.348257e+02
   8.401061e+01   1.894599e+02
  -9.929470e+01   1.717398e+02
  -1.252657e+02   5.001321e+01
  -7.756691e+01  -4.458738e+01
   2.680999e+01   2.395111e+00
   2.921537e+01   8.922810e+01
  -6.894087e+01   1.276198e+02
  -1.853808e+02   4.353056e+01
  -2.139692e+02  -1.109860e+02
  -1.930128e+01  -2.130432e+02
   1.502239e+02  -1.813658e+02
   1.962098e+02  -1.980526e+01
   6.772958e+01   1.128343e+02
  -6.457365e+01   1.035231e+02
  -8.755600e+01   4.530589e+01
  -1.909670e+01  -2.957773e+01
   2.594609e+01  -2.559825e+01
  -1.556957e+01   7.467690e+00
  -7.060880e+01  -1.796626e+01
  -1.079249e+02  -8.639560e+01
  -1.961846e+01  -1.685572e+02
   1.429614e+02  -1.621462e+02
   2.377798e+02  -5.661260e+00
   1.712335e+02   1.786796e+02
   4.681389e+01   2.223525e+02
  -1.131682e+02   1.833649e+02
  -1.418725e+02   3.200753e+01
  -6.175075e+01  -6.090607e+01
  -2.017194e+01  -4.137800e+01
  -5.558871e+01   9.786213e+00
  -8.701848e+01   1.651988e+01
  -3.559494e+01  -4.977048e+01
   6.209919e+01  -8.396364e+01
   9.676695e+01  -6.470636e+01
   9.443506e+01   3.785023e+01
  -9.571027e+00   1.115687e+02
  -1.506806e+02   9.275764e+01
  -2.273515e+02  -7.096055e+01
  -9.499140e+01  -2.322271e+02
   1.170281e+02  -2.179822e+02
   2.547081e+02  -8.801619e+01
   3.004901e+02   7.632199e+01
   9.618831e+01   2.011798e+02
  -4.034896e+01   1.388613e+02
  -9.433147e+01   8.294833e+01
  -7.726945e+01   7.446039e+01
  -5.603630e+01   9.159914e+01
  -9.814224e+01   6.821507e+01
  -1.266641e+02  -2.288870e+01
  -1.012704e+02  -1.635896e+02
  -4.916941e+01  -2.148631e+02
   8.479729e+01  -1.774586e+02
   1.982631e+02  -3.126849e+01
   1.270192e+02   1.150453e+02
   1.429079e+01   1.676060e+02
  -5.786866e+01   1.076910e+02
  -6.061495e+01  -9.641986e-01
  -2.032760e+00  -4.353060e+01
   1.363475e+01  -3.390648e+01
  -3.629242e+01  -1.695110e+01
  -7.937298e+01  -1.730218e+01
  -4.292223e+01  -4.231211e+01
   6.093746e+01  -4.797757e+01
   1.796324e+02  -9.506835e+00
   1.489790e+02   6.050872e+01
   1.346659e+01   9.460745e+01
  -1.041438e+02   8.029881e+01
  -1.606339e+02   6.154348e+00
  -4.268064e+01  -4.113410e+01
   6.879160e+01  -4.176957e+01
   7.532608e+01   2.449623e+01
   6.566037e+00   7.387526e+01
  -5.546721e+01   6.651731e+01
  -6.335391e+01  -1.517595e+01
  -4.459470e+01  -5.902554e+01
  -3.681245e+01  -4.158929e+01
  -6.075200e+01  -7.071876e+00
  -6.898254e+01   7.204851e+00
  -3.386630e+01  -7.072542e+01
   2.602475e+01  -1.639409e+02
   1.080166e+02  -1.270804e+02
   1.611070e+02  -2.395829e+01
   1.364072e+02   7.896686e+01
  -1.981762e+01   1.295842e+02
  -8.075203e+01   5.211853e+01
  -5.695904e+01  -1.280935e+01
   6.506035e+01  -1.812031e+01
   1.445414e+02   3.185702e+01
   6.496234e+01   1.048382e+02
  -7.891819e+01   1.165538e+02
  -1.982384e+02   4.255611e+01
  -1.694813e+02  -1.574535e+01
  -3.436665e+01  -8.643603e+01
   5.546919e+01  -5.743833e+01
   5.107562e+01  -7.823988e+00
  -3.707045e+01   2.908930e+01
  -9.176403e+01  -2.604693e+01
  -4.631385e+01  -1.155181e+02
   9.657157e+01  -1.605170e+02
   1.773868e+02  -6.529419e+01
   1.130097e+02   8.602520e+01
   1.135434e+01   2.152261e+02
  -8.468587e+01   1.417447e+02
  -1.036515e+02  -1.407562e+01
  -7.658840e+01  -1.280016e+02
   9.219761e+00  -1.131138e+02
   4.686520e+01  -2.208836e+01
   5.853167e+01   2.136903e+01
   2.804440e+01   6.300129e+00
   4.448708e+00  -2.231278e+01
   2.045098e+01   1.678469e+01
   6.133306e+01   8.702719e+01
   4.710771e+01   1.033337e+02
  -4.830476e+01   4.346180e+01
  -1.400931e+02  -6.907847e+01
  -1.278297e+02  -6.887976e+01
  -1.966106e+01  -5.258250e+01
   8.683728e+01  -2.216297e+01
   9.176230e+01  -1.153436e+01
   1.069043e+01   7.807908e+00
  -3.724555e+01   2.601949e+01
  -1.474087e+01   1.837644e+01
   2.026104e+01  -4.831526e+00
  -5.130004e+00  -8.176175e+00
  -7.806671e+01   2.758431e+00
  -8.744479e+01  -2.986307e+01
  -1.103527e+01  -7.892876e+01
   1.202755e+02  -1.241364e+02
   1.840119e+02  -6.840123e+01
   1.696936e+02   5.490013e+01
   1.536874e+01   1.728153e+02
  -7.399178e+01   1.512992e+02
  -1.168681e+02   5.361368e+01
  -8.291711e+01  -2.246931e+01
  -2.679084e+01  -3.727865e+01
   2.397506e+00  -8.130046e+00
  -7.499815e+00  -5.492151e+00
  -3.278025e+01  -4.524234e+01
  -2.214622e+01  -9.503214e+01
   3.170440e+01  -7.620626e+01
   8.468680e+01   2.707808e+01
   6.811917e+01   1.274214e+02
  -1.150401e+01   1.217428e+02
  -8.509296e+01   2.517762e+01
  -1.137558e+02  -9.673879e+01
  -3.837004e+01  -1.058732e+02
   6.845924e+01  -5.641370e+01
   1.033720e+02   2.217442e+00
   3.849762e+01   4.506391e+01
  -3.838683e+01   5.164325e+01
  -2.655272e+01   2.846995e+01
   3.262694e+01  -1.573606e+00
   7.628636e+01  -9.433417e+00
   1.294865e+01   2.425277e+01
  -7.465822e+01   6.707838e+01
  -1.106102e+02   7.778011e+01
  -6.169472e+01  -2.453586e+01
   1.118937e+01  -8.414237e+01
   5.491766e+01  -7.770007e+01
   3.742706e+01  -7.649570e-01
   3.367055e+00   5.447831e+01
  -2.427288e+01   4.269040e+01
  -3.836741e+01  -1.447257e+01
  -3.157977e+01  -5.145317e+01
   6.475704e+00  -3.320527e+01
   3.635769e+01   8.338378e+00
   4.312892e+01   2.839631e+01
   2.135375e+01   2.678306e+00
  -5.940831e-01  -1.278460e+01
  -7.049361e+00   2.869876e+00
  -5.835802e+00   3.484879e+01
  -1.650356e+01   4.844199e+01
  -3.773294e+01   5.905019e+00
  -2.401995e+01  -5.074903e+01
   6.806832e+00  -6.714152e+01
   4.742904e+01  -2.097592e+01
   5.829144e+01   5.040914e+01
   1.627335e+01   6.379004e+01
  -5.008483e+01   3.758751e+01
  -1.029712e+02  -1.403757e+01
  -5.091913e+01  -4.685367e+01
   3.008179e+01  -4.400830e+01
   6.117585e+01  -2.385963e+01
   2.998486e+01  -4.182380e+00
  -3.220694e+01  -7.925836e-02
  -3.716899e+01  -1.437448e+01
   3.205777e+01  -3.286642e+01
   9.686373e+01  -2.584431e+01
