
 $NMID
 id='ANONYMOUS ', fmtdat='(2E16.6)'
 volume=1.0
 tramp=1.0
 $END
   3.449661e+03   7.740397e+02
   2.567095e+03   1.467866e+03
   8.603811e+01   2.180334e+03
  -1.703142e+03   9.159167e+02
  -7.730801e+02   7.141676e+01
   2.696010e+01  -2.441338e+02
   3.417747e+02   2.459913e+02
  -4.345632e+01   6.428506e+02
  -4.419041e+02   6.714872e+02
  -6.158597e+02   1.394101e+02
  -2.171519e+02  -5.646168e+02
   1.131162e+01  -7.118222e+02
   4.023573e+02  -2.291378e+02
   3.793590e+02   4.285238e+02
  -2.572454e+02   5.968331e+02
  -3.720628e+02   6.008178e+01
  -2.610898e+02  -5.749615e+02
   1.504902e+02  -6.357235e+02
   4.517130e+02  -1.710351e+02
   4.299809e+02   1.417094e+02
   1.390186e+02   3.579655e+02
  -1.515181e+02   2.185637e+02
  -8.254340e+01   6.894620e+01
   1.451774e+02   6.322591e+01
   3.659273e+02   1.272606e+02
   1.101386e+02   3.599191e+02
  -4.314599e+02   3.002752e+02
  -7.047483e+02  -9.747103e+01
  -3.019611e+02  -3.669472e+02
   3.950247e+02  -3.035534e+02
   5.237560e+02   1.891344e+01
   2.771920e+02   3.557519e+02
  -3.006766e+02   3.920239e+02
  -4.047274e+02   1.482130e+02
  -3.705298e+02  -1.538517e+02
  -8.235137e+01  -3.726637e+02
   6.552477e+01  -2.059431e+02
   1.466233e+01   1.423860e+02
  -1.355658e+02   2.105452e+02
  -2.421462e+02  -8.838113e+01
  -1.631972e+02  -4.913472e+02
   3.263745e+02  -5.291316e+02
   3.939987e+02   7.198125e+01
   8.862513e+01   4.746619e+02
  -2.116198e+02   8.316762e+01
  -2.079287e+02  -2.052357e+02
   1.404518e+02  -3.876063e+02
   4.698651e+02  -1.570505e+02
   5.535622e+02   4.274339e+02
   2.531910e+02   4.799342e+02
  -3.388761e+02   2.595396e+02
  -5.503341e+02  -1.705540e+02
  -3.698954e+02  -2.155546e+02
  -4.619776e+00  -3.120934e+02
   2.863151e+02  -1.059569e+02
   1.841408e+02   7.303821e+01
  -3.787177e+01   6.268419e+01
  -8.021372e+01  -8.428522e+01
   1.171456e+02  -5.395993e+01
   2.644061e+02   4.150827e+01
   1.754579e+02   2.091548e+02
  -1.356775e+02   2.516168e+02
  -3.151150e+02   9.443082e+01
  -2.469501e+02  -1.018668e+02
   2.476248e+01  -2.788871e+02
   2.530102e+02  -3.277956e+02
   3.071251e+02  -2.193299e+02
   2.936655e+02   1.031189e+02
   3.593536e+01   3.572142e+02
   2.458264e+01   3.205252e+02
  -4.478620e+01   1.752784e+02
  -2.004348e+01   9.984182e+01
  -9.227103e+01   1.223313e+02
  -2.434964e+02   6.861894e+01
  -2.376119e+02  -8.456397e+01
  -1.322636e+02  -2.394423e+02
   3.023311e+01  -2.107166e+02
   2.174742e+02   4.641093e+01
   1.342224e+02   2.674919e+02
  -2.368216e+01   2.771204e+02
  -2.548949e+02   4.626365e+01
  -2.979569e+02  -1.517159e+02
  -1.338764e+02  -2.986988e+02
   6.876555e+01  -2.594999e+02
   1.726601e+02  -9.308800e+01
   1.490554e+02  -5.350591e+01
   1.296161e+02  -5.884843e+01
   2.669130e+02  -1.602619e+01
   4.493864e+02   5.855345e+01
   3.361459e+02   3.077414e+02
   7.720540e+00   4.254241e+02
  -4.545032e+02   4.120496e+02
  -4.794350e+02   2.170914e+02
  -3.216552e+02  -1.032264e+02
  -1.948475e+01  -2.575256e+02
   1.259846e+02  -2.046087e+02
   3.650631e+01  -2.139102e+01
  -1.180866e+02   4.292277e+01
  -1.492550e+02  -5.528514e+01
   2.490259e+01  -1.570413e+02
   1.160547e+02  -1.112157e+02
   1.100138e+02   4.125211e+01
  -1.608018e+01   1.535633e+02
  -1.771473e+02  -6.624051e+00
  -1.505741e+02  -2.661394e+02
   4.558301e+01  -3.614749e+02
   1.972076e+02  -2.289251e+02
   3.257387e+02   4.682161e+01
   2.761853e+02   2.953928e+02
   1.123236e+02   2.698495e+02
  -1.169105e+02   1.501371e+02
  -1.569484e+02   5.945688e-01
  -4.117622e+01  -1.971739e+01
   5.270429e+01   6.341821e+01
   2.302132e+01   1.195406e+02
  -1.401765e+02   7.607238e+01
  -1.771435e+02  -2.956364e+01
  -4.450198e+01  -5.800692e+01
   7.886226e+01   6.727286e-01
   3.406733e+01   9.029863e+01
  -1.329588e+02   9.136805e+01
  -2.880595e+02  -3.944068e+01
  -2.546823e+02  -1.225067e+02
  -2.051463e+01  -2.468143e+02
   2.186566e+02  -2.041355e+02
   2.833239e+02  -1.297615e+02
   1.351188e+02   6.028048e+01
  -4.327571e+01   7.439972e+01
  -6.669148e+01  -1.018920e+01
   6.097937e+01  -8.464358e+01
   1.870758e+02  -2.209141e+01
   1.842074e+02   1.097644e+02
   7.253037e+01   1.857422e+02
  -8.131655e+01   1.299389e+02
  -1.300522e+02  -1.160896e+00
  -5.619129e+01  -3.612998e+01
   4.000518e+01   1.864486e+01
   3.735616e+01   1.048804e+02
  -9.577557e+01   1.148348e+02
  -2.045068e+02   2.177245e+01
  -1.821293e+02  -1.121469e+02
  -2.493571e+01  -2.194592e+02
   1.600382e+02  -1.609842e+02
   1.746543e+02  -7.314048e+00
   4.762604e+01   1.094476e+02
  -6.546806e+01   9.693389e+01
  -7.078281e+01   3.509285e+01
  -1.036103e+01  -3.086916e+01
   3.815264e+01  -1.414535e+01
  -9.681515e+00   2.423725e+01
  -8.030382e+01   1.032665e+01
  -1.021405e+02  -8.202461e+01
  -8.141885e+00  -1.615590e+02
   1.145273e+02  -1.327292e+02
   2.471461e+02  -9.535409e+00
   2.020070e+02   1.333871e+02
   5.180324e+01   1.911677e+02
  -8.103655e+01   1.751833e+02
  -1.254177e+02   4.348509e+01
  -7.555339e+01  -4.404887e+01
  -2.911479e+01  -2.968891e+01
  -5.414892e+01   1.690837e+01
  -8.356787e+01   2.895104e+00
  -5.867095e+01  -5.662794e+01
   3.852495e+01  -1.058756e+02
   1.122870e+02  -7.735108e+01
   1.045120e+02   3.632268e+01
  -1.774738e+01   1.322528e+02
  -1.547998e+02   8.039278e+01
  -2.058733e+02  -6.065528e+01
  -1.043500e+02  -1.564663e+02
   1.026053e+02  -2.469195e+02
   2.351432e+02  -1.048919e+02
   2.683842e+02   7.924329e+01
   1.130673e+02   1.470873e+02
  -3.487931e+01   1.168400e+02
  -8.750373e+01   7.242591e+01
  -7.966361e+01   5.323231e+01
  -6.691078e+01   8.777200e+01
  -1.028513e+02   7.072193e+01
  -1.246558e+02  -1.829573e+01
  -1.113889e+02  -1.505656e+02
  -2.699331e+01  -2.322083e+02
   9.418734e+01  -1.544415e+02
   1.472457e+02  -9.435896e+00
   1.270140e+02   1.152199e+02
   2.213192e+01   1.622413e+02
  -6.355416e+01   8.725648e+01
  -5.918040e+01  -2.892378e+00
   9.184410e-01  -5.107860e+01
   1.215613e+01  -3.682789e+01
  -2.811829e+01  -1.004034e+01
  -8.308496e+01  -4.948325e+00
  -4.294163e+01  -3.301311e+01
   6.935329e+01  -3.840956e+01
   1.592880e+02   3.894414e+00
   1.469830e+02   6.331819e+01
  -1.833318e+01   1.026990e+02
  -1.370398e+02   7.504582e+01
  -1.470929e+02   2.468294e+01
  -4.502775e+01  -4.217609e+01
   4.815229e+01  -4.206088e+01
   8.037873e+01   1.801662e+00
   2.687863e+01   6.856242e+01
  -4.394564e+01   6.075133e+01
  -6.203597e+01   9.407864e+00
  -5.058282e+01  -4.318395e+01
  -4.602693e+01  -4.453047e+01
  -6.142358e+01  -2.973949e+00
  -6.314974e+01  -9.396742e+00
  -4.658696e+01  -6.103980e+01
   3.225055e+01  -1.511748e+02
   1.291893e+02  -1.384043e+02
   1.597458e+02  -1.942492e+01
   1.250439e+02   8.598154e+01
   1.125682e+01   1.285508e+02
  -9.660599e+01   6.953768e+01
  -6.447697e+01  -4.300308e+00
   5.597395e+01  -1.698566e+01
   1.232713e+02   1.711664e+01
   6.718690e+01   1.115789e+02
  -8.542741e+01   1.165194e+02
  -1.715241e+02   4.611652e+01
  -1.532631e+02  -4.137401e+01
  -2.295807e+01  -8.469493e+01
   6.782502e+01  -5.268655e+01
   4.332705e+01  -1.300549e+00
  -3.738290e+01   3.272363e+01
  -9.299020e+01  -8.569835e+00
  -3.811159e+01  -1.115898e+02
   8.044982e+01  -1.421707e+02
   1.655256e+02  -7.382144e+01
   1.381749e+02   7.147882e+01
   2.541990e+01   1.889033e+02
  -8.579517e+01   1.240833e+02
  -1.097916e+02   1.495923e-01
  -5.034647e+01  -1.081999e+02
   6.307274e+00  -9.649936e+01
   4.955076e+01  -1.623119e+01
   4.353761e+01   2.812309e+01
   1.883865e+01   6.898480e+00
   3.586024e+00  -1.691990e+01
   2.661396e+01   2.050233e+01
   6.737866e+01   9.506094e+01
   3.180656e+01   9.858865e+01
  -4.991874e+01   4.045882e+01
  -1.368121e+02  -3.408580e+01
  -1.070657e+02  -6.501151e+01
  -1.676723e+01  -5.496628e+01
   8.151267e+01  -6.304644e+00
   8.705835e+01  -1.414472e+01
   1.793719e+01   6.817187e+00
  -2.900265e+01   2.560056e+01
  -1.901111e+01   1.180215e+01
   1.582604e+01  -4.038241e-01
  -3.534754e-01  -6.884275e+00
  -5.651448e+01   4.697159e+00
  -1.033401e+02  -3.333541e+01
  -2.534744e+01  -7.894014e+01
   9.471122e+01  -1.165963e+02
   1.698621e+02  -6.961033e+01
   1.452514e+02   5.279621e+01
   3.838488e+01   1.469291e+02
  -7.655034e+01   1.361327e+02
  -1.108126e+02   7.568700e+01
  -8.266220e+01  -2.442875e+01
  -2.413020e+01  -3.262690e+01
  -3.277992e+00  -1.168057e+01
  -1.347071e+01  -6.204630e+00
  -2.940663e+01  -5.288999e+01
  -2.575462e+01  -7.974304e+01
   2.359328e+01  -7.224562e+01
   7.084809e+01   8.358927e+00
   6.461637e+01   1.018477e+02
   1.257738e+01   1.099554e+02
  -7.905805e+01   2.822017e+01
  -1.193854e+02  -5.555759e+01
  -3.714442e+01  -9.591131e+01
   5.358014e+01  -5.919190e+01
   1.047405e+02   1.022613e+01
   4.036650e+01   5.595768e+01
  -3.682128e+01   6.680217e+01
  -3.888134e+01   2.859625e+01
   2.751626e+01  -7.271261e+00
   7.066893e+01  -9.799732e+00
   1.503955e+01   2.515787e+01
  -8.671393e+01   5.472494e+01
  -1.176647e+02   4.781495e+01
  -7.229212e+01  -1.113551e+00
   1.537238e+01  -7.871442e+01
   5.260231e+01  -8.577651e+01
   4.231780e+01  -1.401553e+01
   1.312356e+01   4.729292e+01
  -2.193682e+01   4.128886e+01
  -3.648897e+01  -6.559408e+00
  -3.315164e+01  -5.418074e+01
  -3.590178e+00  -3.671123e+01
   2.801426e+01   6.640831e+00
   4.414936e+01   1.510416e+01
   1.853694e+01   3.188654e+00
  -3.864574e+00  -1.955034e+01
  -1.018632e+01  -2.740678e+00
   4.058451e+00   2.829479e+01
  -3.547458e+00   4.792025e+01
  -2.545624e+01   1.383318e+01
  -4.121201e+01  -3.685827e+01
  -1.212948e+01  -6.198579e+01
   3.251936e+01  -2.986810e+01
   6.090071e+01   2.884240e+01
   1.775929e+01   6.258662e+01
  -5.523219e+01   3.140181e+01
  -8.358666e+01  -1.492871e+01
  -5.167847e+01  -3.695365e+01
   2.728956e+01  -4.276560e+01
   6.343145e+01  -3.222993e+01
   2.556778e+01  -5.699649e+00
  -2.612825e+01   2.262410e+00
  -3.417482e+01  -5.559075e+00
   2.599706e+01  -2.437503e+01
   7.749150e+01  -1.593127e+01
