
 $NMID
 id='ANONYMOUS ', fmtdat='(2E16.6)'
 volume=1.0
 tramp=1.0
 $END
   4.654824e+03   5.506027e+02
   2.361138e+03   2.819045e+03
  -4.464698e+02   2.569505e+03
  -2.398435e+03   1.070978e+03
  -8.205487e+02  -7.738389e+02
   5.272663e+02  -6.492658e+02
   6.336671e+02   4.233336e+02
   8.172657e+01   1.011599e+03
  -7.856750e+02   8.506352e+02
  -9.287440e+02  -2.648220e+02
  -4.623210e+02  -8.842179e+02
   3.888466e+02  -1.077377e+03
   6.312814e+02   5.228610e+01
   4.572260e+02   6.528322e+02
  -2.899300e+02   7.830960e+02
  -7.016149e+02  -4.073900e+01
  -3.082577e+02  -6.715976e+02
   3.192935e+02  -5.982881e+02
   5.425087e+02  -1.179866e+02
   3.274108e+02   3.374714e+02
  -4.596006e+01   4.540657e+02
  -2.604794e+02   2.894518e+02
  -2.691918e+02   1.870447e+00
   1.001969e+02  -1.295531e+02
   4.016298e+02   1.601993e+02
   9.648930e+01   5.205619e+02
  -5.134941e+02   3.475066e+02
  -9.568349e+02  -1.910086e+02
  -3.909013e+02  -6.488673e+02
   4.282019e+02  -4.450281e+02
   7.477649e+02   1.070918e+02
   3.839214e+02   5.860034e+02
  -3.506445e+02   5.254493e+02
  -6.126705e+02   1.897560e+02
  -4.149523e+02  -2.379685e+02
  -6.777288e+01  -4.928912e+02
   2.003921e+02  -2.487627e+02
   1.761601e+02   1.813166e+02
  -1.534276e+02   3.653830e+02
  -4.902343e+02   1.752210e+01
  -1.554651e+02  -7.850884e+02
   3.511619e+02  -5.215229e+02
   6.343874e+02   3.297074e+01
   2.725989e+02   5.413171e+02
  -2.436112e+02   3.097905e+02
  -4.156186e+02  -3.343461e+02
   8.808237e+01  -4.946075e+02
   6.378621e+02  -2.032599e+02
   5.619729e+02   3.486267e+02
   1.576565e+02   5.825091e+02
  -3.639768e+02   3.348694e+02
  -6.058023e+02  -9.654206e+01
  -3.398524e+02  -4.504040e+02
   1.353463e+02  -3.572535e+02
   4.967236e+02  -9.630476e+01
   2.206036e+02   1.889396e+02
  -9.399552e+01   1.261625e+02
  -1.277909e+02  -1.595523e+02
   1.580271e+02  -1.924355e+02
   3.443313e+02   1.127499e+02
   1.257398e+02   3.214337e+02
  -2.386481e+02   2.775970e+02
  -3.426956e+02   5.047652e+01
  -1.928143e+02  -1.199020e+02
   3.010950e+01  -2.134432e+02
   2.620965e+02  -2.801883e+02
   4.102936e+02  -2.184151e+02
   3.206659e+02   1.666579e+02
   5.439308e+01   4.449812e+02
  -1.169393e+02   3.766941e+02
  -1.256909e+02   1.210093e+02
  -2.474756e+01   2.074376e+00
  -3.729306e+01   8.989411e+01
  -2.043805e+02   8.169487e+01
  -3.028796e+02  -7.393078e+01
  -1.455241e+02  -3.002121e+02
   1.043493e+02  -2.901709e+02
   1.996594e+02  -6.310955e+00
   1.697711e+02   2.407039e+02
  -4.887614e+01   2.916634e+02
  -2.567135e+02   6.259939e+01
  -3.654501e+02  -2.100037e+02
  -1.990572e+02  -3.648621e+02
   8.160599e+01  -2.622300e+02
   2.418210e+02  -1.339972e+02
   1.672045e+02  -3.892107e+01
   1.115797e+02  -2.166657e+01
   2.562248e+02  -5.468542e+01
   3.738945e+02   1.116015e+02
   3.072356e+02   3.261550e+02
  -7.087406e+01   4.427316e+02
  -3.522833e+02   3.116879e+02
  -5.094894e+02   1.144195e+02
  -3.892124e+02  -1.422903e+02
  -1.813595e+01  -2.678028e+02
   1.224448e+02  -1.904716e+02
   7.688301e+01  -4.681311e+01
  -1.241800e+02   1.140038e+02
  -2.128309e+02   2.962437e+00
  -5.686454e+01  -2.161135e+02
   1.444192e+02  -1.686603e+02
   1.919088e+02   6.178828e+01
  -2.836800e+01   1.996657e+02
  -1.877599e+02   4.099869e+01
  -1.416007e+02  -2.719356e+02
   5.643742e+01  -3.430512e+02
   2.347509e+02  -1.454216e+02
   3.419783e+02   5.290312e+01
   2.528096e+02   2.354488e+02
   1.068186e+02   3.037167e+02
  -1.271659e+02   1.557581e+02
  -1.647846e+02   2.431626e+00
  -6.276186e+01  -2.999738e+01
   5.767710e+01   4.064047e+01
   1.296061e+01   1.319634e+02
  -1.098327e+02   6.577386e+01
  -1.606723e+02  -1.457013e+01
  -5.995599e+01  -6.733023e+01
   7.568800e+01  -1.828801e+01
   5.399415e+01   8.164351e+01
  -1.308198e+02   7.057866e+01
  -2.745070e+02  -1.750872e+01
  -2.878349e+02  -1.419244e+02
  -6.351353e+01  -2.420681e+02
   1.709422e+02  -2.145433e+02
   2.771324e+02  -1.037538e+02
   1.747576e+02   7.136012e+01
  -3.332736e+01   1.011162e+02
  -8.567462e+01  -2.430333e+00
   4.934060e+01  -1.031239e+02
   2.123024e+02  -4.702516e+01
   2.246643e+02   1.117306e+02
   4.646541e+01   2.075072e+02
  -1.198362e+02   1.621664e+02
  -1.165445e+02   1.858996e+01
  -7.308479e+01  -4.607843e+01
   1.872454e+01   7.775742e+00
   4.307280e+01   8.162519e+01
  -7.303813e+01   1.027908e+02
  -1.763889e+02   1.684135e+01
  -1.960856e+02  -1.791731e+02
  -6.501976e-01  -2.331398e+02
   1.647628e+02  -1.612670e+02
   1.659162e+02   1.320590e+01
   6.642857e+01   1.016307e+02
  -6.392992e+01   9.213239e+01
  -8.595948e+01   2.877356e+01
  -1.059298e+01  -3.072261e+01
   2.300795e+01  -1.704367e+01
  -1.207259e+01   5.983521e+00
  -8.090964e+01  -9.750906e+00
  -9.473871e+01  -1.077910e+02
  -1.637838e+01  -1.588674e+02
   1.258700e+02  -1.612794e+02
   2.387061e+02   2.135192e+01
   1.947801e+02   1.612467e+02
   3.307103e+01   2.202639e+02
  -1.130899e+02   1.746444e+02
  -1.485536e+02   2.748271e+01
  -6.057297e+01  -5.596720e+01
  -3.040179e+01  -3.316386e+01
  -5.620593e+01   7.046603e+00
  -8.022750e+01   5.495414e+00
  -3.048109e+01  -5.234084e+01
   4.899225e+01  -8.676052e+01
   1.140302e+02  -5.081270e+01
   7.295543e+01   4.593846e+01
  -4.118490e+01   1.161866e+02
  -1.549431e+02   8.060227e+01
  -2.197472e+02  -5.927150e+01
  -1.020826e+02  -2.423654e+02
   1.285521e+02  -2.018491e+02
   2.386548e+02  -9.534842e+01
   2.566337e+02   1.133397e+02
   1.039042e+02   1.898352e+02
  -4.028187e+01   1.384647e+02
  -9.886628e+01   7.941345e+01
  -7.680916e+01   6.791389e+01
  -6.189570e+01   7.225626e+01
  -1.081149e+02   7.519564e+01
  -1.154113e+02  -3.897286e+01
  -1.051616e+02  -1.611108e+02
  -7.434969e+00  -2.110082e+02
   9.707804e+01  -1.426727e+02
   1.585362e+02  -2.532357e+01
   1.187237e+02   1.503275e+02
   3.290614e+01   1.271392e+02
  -6.846869e+01   9.276859e+01
  -6.144238e+01  -7.911464e+00
  -7.678420e+00  -4.516941e+01
   7.484103e+00  -3.710151e+01
  -3.789113e+01  -1.481835e+01
  -7.882740e+01  -3.160175e+01
  -4.779969e+01  -4.152370e+01
   5.780954e+01  -2.902803e+01
   1.578537e+02  -2.092900e+01
   1.341880e+02   5.260675e+01
   1.001055e+01   8.216344e+01
  -1.171704e+02   5.707272e+01
  -1.552667e+02   5.896451e+00
  -4.926458e+01  -4.265153e+01
   6.755783e+01  -4.060118e+01
   8.356515e+01   2.398083e+01
   9.793561e+00   7.332862e+01
  -6.271433e+01   5.319633e+01
  -6.630495e+01  -5.786443e+00
  -4.529028e+01  -4.197694e+01
  -4.062648e+01  -3.878910e+01
  -6.390111e+01  -6.624138e+00
  -6.926888e+01   1.882816e+00
  -4.493694e+01  -6.626052e+01
   5.381417e+01  -1.351019e+02
   1.104106e+02  -1.346325e+02
   1.572404e+02  -3.839438e+01
   1.172355e+02   9.058876e+01
  -3.694378e+00   1.261900e+02
  -8.288904e+01   4.674749e+01
  -5.147693e+01  -2.288501e+01
   6.159599e+01  -1.516875e+01
   1.431985e+02   4.494059e+01
   6.072293e+01   1.082290e+02
  -9.376595e+01   1.065433e+02
  -1.777690e+02   7.103799e+01
  -1.626163e+02  -5.303608e+01
  -3.211749e+01  -8.605335e+01
   6.705038e+01  -5.782346e+01
   5.343567e+01  -6.098699e+00
  -3.462659e+01   2.420099e+01
  -9.294965e+01  -3.198590e+01
  -1.367528e+01  -1.193783e+02
   9.796090e+01  -1.587944e+02
   1.562035e+02  -4.670905e+01
   1.060441e+02   1.056760e+02
   8.004191e+00   2.357206e+02
  -6.742208e+01   1.309415e+02
  -1.008083e+02  -2.001536e+01
  -5.626997e+01  -1.296613e+02
  -9.448739e+00  -1.095566e+02
   5.145223e+01  -1.841143e+01
   5.053003e+01   2.765955e+01
   2.894508e+01   6.310275e+00
   4.840350e+00  -2.196473e+01
   2.024512e+01   1.507329e+01
   4.665984e+01   8.246844e+01
   3.926312e+01   1.139915e+02
  -5.308583e+01   4.745804e+01
  -1.367987e+02  -4.033640e+01
  -1.084714e+02  -8.555179e+01
  -6.642721e+00  -5.232075e+01
   8.701344e+01  -1.611277e+01
   8.098724e+01  -4.396151e+00
   9.161071e+00   9.003199e+00
  -4.329972e+01   2.052060e+01
  -1.215567e+01   1.917155e+01
   1.940229e+01  -1.394348e+00
  -5.471132e+00  -7.126110e+00
  -7.382792e+01  -3.285003e+00
  -7.626254e+01  -3.689398e+01
  -1.010200e+01  -8.197815e+01
   1.111243e+02  -1.223813e+02
   2.018727e+02  -5.853055e+01
   1.523680e+02   7.589227e+01
   2.820792e+01   1.604651e+02
  -7.371942e+01   1.578433e+02
  -1.001335e+02   5.225410e+01
  -8.464176e+01  -3.164425e+01
  -2.214197e+01  -3.565328e+01
   2.524814e+00  -8.974493e+00
  -1.012229e+01  -7.266570e+00
  -2.304472e+01  -5.648857e+01
  -2.680134e+01  -8.782243e+01
   3.535483e+01  -7.916302e+01
   9.622161e+01   2.188919e+01
   7.385993e+01   9.951752e+01
  -2.697096e+00   1.206769e+02
  -7.899091e+01   1.524486e+01
  -1.043070e+02  -7.425985e+01
  -2.721765e+01  -1.154238e+02
   6.744936e+01  -4.221508e+01
   1.035017e+02   3.020762e+01
   3.117747e+01   4.749211e+01
  -4.309245e+01   5.082296e+01
  -2.925114e+01   2.366608e+01
   3.521461e+01   2.645242e+00
   6.913519e+01  -1.507283e+00
   1.329678e+01   2.499989e+01
  -7.701194e+01   5.809397e+01
  -1.179786e+02   4.481318e+01
  -6.910421e+01  -1.238023e+01
   2.190878e+01  -7.357930e+01
   5.137691e+01  -7.840346e+01
   4.395202e+01  -5.504733e+00
   1.733015e-01   5.688569e+01
  -2.070089e+01   4.051104e+01
  -3.973987e+01  -1.997925e+01
  -2.257171e+01  -5.418493e+01
  -1.607992e-01  -3.440015e+01
   3.563510e+01   9.597646e+00
   4.032742e+01   2.110767e+01
   2.263329e+01   2.063310e+00
   2.998847e+00  -1.443679e+01
  -9.012963e+00   2.867122e+00
  -1.287313e+01   3.788771e+01
  -1.195419e+01   4.376745e+01
  -3.333567e+01   7.151543e+00
  -2.460598e+01  -4.519446e+01
  -3.661465e+00  -6.451558e+01
   5.227698e+01  -2.344758e+01
   5.990309e+01   4.392398e+01
   9.832214e+00   5.562498e+01
  -5.763048e+01   2.941255e+01
  -9.605746e+01  -3.342461e+01
  -4.915185e+01  -5.211182e+01
   3.219417e+01  -3.871157e+01
   6.346915e+01  -1.479899e+01
   2.766833e+01  -2.380002e+00
  -4.029323e+01  -7.817418e+00
  -3.497833e+01  -1.902060e+01
   3.664246e+01  -3.403974e+01
   1.000622e+02  -1.503373e+01
