
 $NMID
 id='ANONYMOUS ', fmtdat='(2E16.6)'
 volume=1.0
 tramp=1.0
 $END
   4.210872e+03  -1.739992e+02
   2.312354e+03   2.985263e+03
  -8.712555e+02   3.051526e+03
  -2.059074e+03   9.146262e+02
  -9.546584e+02  -6.549211e+02
   6.358318e+02  -5.702852e+02
   1.071163e+03   4.268445e+02
   4.990270e+00   1.057651e+03
  -8.195306e+02   8.144001e+02
  -9.284524e+02  -1.301492e+02
  -4.493147e+02  -9.200329e+02
   1.582287e+02  -8.648147e+02
   5.838284e+02  -3.593395e+01
   3.523917e+02   7.378720e+02
  -1.872741e+02   8.308875e+02
  -6.289116e+02  -1.437518e+00
  -3.176456e+02  -6.944359e+02
   3.034540e+02  -6.986520e+02
   6.108106e+02  -1.305525e+02
   4.290890e+02   3.943173e+02
   3.352856e+01   4.649214e+02
  -2.229949e+02   3.131556e+02
  -1.923081e+02   4.076625e+01
   1.657078e+02  -6.914610e+01
   3.563766e+02   1.022582e+02
   1.182453e+02   4.838371e+02
  -4.643842e+02   3.318622e+02
  -8.781892e+02  -9.839060e+01
  -4.290343e+02  -5.220645e+02
   4.416329e+02  -5.510853e+02
   7.364372e+02   4.322044e+01
   3.061820e+02   5.755884e+02
  -3.091244e+02   5.266212e+02
  -6.083769e+02   2.871640e+02
  -4.347755e+02  -2.711843e+02
  -6.394460e+01  -5.232855e+02
   2.274936e+02  -3.332122e+02
   2.013068e+02   2.818144e+02
  -2.048755e+02   3.905954e+02
  -4.119433e+02  -1.012912e+01
  -8.810814e+01  -6.588965e+02
   2.700756e+02  -7.783192e+02
   6.109811e+02  -1.815810e+01
   2.257260e+02   5.870144e+02
  -2.669414e+02   3.740426e+02
  -3.774708e+02  -3.409189e+02
   6.745188e+01  -6.979841e+02
   5.488823e+02  -1.506932e+02
   7.119675e+02   4.542903e+02
   1.052829e+02   7.243329e+02
  -4.109130e+02   4.319652e+02
  -6.856990e+02  -9.122470e+01
  -3.681082e+02  -3.708430e+02
   1.355050e+02  -3.407043e+02
   4.703812e+02  -8.180434e+01
   2.410506e+02   2.570653e+02
  -1.349472e+02   1.046790e+02
  -1.114020e+02  -1.573383e+02
   1.932689e+02  -1.374742e+02
   3.305825e+02   8.863565e+01
   1.459147e+02   3.477216e+02
  -2.026348e+02   2.856422e+02
  -3.900030e+02   5.993251e+01
  -1.966565e+02  -9.440612e+01
   2.164625e+01  -2.397998e+02
   1.767040e+02  -3.539104e+02
   3.545605e+02  -1.873848e+02
   3.117344e+02   1.813614e+02
   7.780412e+01   4.437817e+02
  -1.214453e+02   3.666586e+02
  -1.486891e+02   1.117223e+02
  -3.578024e+01  -2.851522e+01
  -3.424783e+01   9.491314e+01
  -2.210478e+02   1.282137e+02
  -3.061259e+02  -9.269270e+01
  -1.550946e+02  -3.128786e+02
   1.262823e+02  -2.629822e+02
   2.293321e+02  -5.682635e+01
   2.049671e+02   2.863450e+02
   3.559534e+00   2.675049e+02
  -2.746309e+02   1.394626e+02
  -3.551772e+02  -2.280552e+02
  -2.192303e+02  -4.209264e+02
   1.121608e+02  -3.306230e+02
   2.097961e+02  -1.262119e+02
   1.542952e+02  -4.563490e+00
   1.047980e+02  -4.121093e+01
   2.705338e+02  -8.134180e+01
   3.889039e+02  -1.210462e+00
   3.010538e+02   2.996388e+02
  -3.299413e+01   4.650660e+02
  -3.213538e+02   4.791023e+02
  -4.989003e+02   2.211713e+02
  -3.324725e+02  -1.423119e+02
  -5.995121e+01  -3.436022e+02
   1.322204e+02  -2.751900e+02
   8.845061e+01  -4.111343e+01
  -8.595958e+01   9.264889e+01
  -1.934114e+02   7.213589e+00
  -7.264255e+01  -1.939226e+02
   1.494980e+02  -2.043990e+02
   1.849040e+02   5.843094e+01
   5.845050e+00   1.852726e+02
  -1.857215e+02   5.935192e+01
  -2.009865e+02  -2.644064e+02
   6.425465e+01  -3.678882e+02
   2.481117e+02  -1.918449e+02
   3.493176e+02   7.584447e+01
   3.200957e+02   2.227000e+02
   5.190730e+01   2.917042e+02
  -1.103461e+02   1.656027e+02
  -1.720811e+02   4.710361e+01
  -7.038328e+01  -2.814824e+01
   6.952503e+01   4.122050e+01
   2.718862e+01   1.312562e+02
  -1.202530e+02   1.108344e+02
  -1.898499e+02  -2.975116e+00
  -5.110403e+01  -9.098514e+01
   8.232293e+01  -2.684054e+01
   6.497838e+01   8.087667e+01
  -1.234908e+02   8.889420e+01
  -2.827510e+02  -2.720995e+00
  -3.065643e+02  -1.648720e+02
  -4.908347e+01  -2.758927e+02
   2.140427e+02  -3.127000e+02
   2.971301e+02  -1.435918e+02
   1.750529e+02   6.788406e+01
  -4.738982e+01   1.201293e+02
  -9.520966e+01   1.162045e+01
   1.817228e+01  -1.133973e+02
   2.112504e+02  -5.191149e+01
   2.221649e+02   1.463631e+02
   8.190071e+01   2.034979e+02
  -1.040127e+02   1.625448e+02
  -1.574395e+02   3.509424e+01
  -8.286555e+01  -4.452663e+01
   2.699144e+01  -8.828795e+00
   2.337644e+01   9.719160e+01
  -7.686694e+01   1.289509e+02
  -2.265995e+02   2.395419e+01
  -1.910794e+02  -1.208887e+02
  -3.351843e+01  -2.289658e+02
   1.876274e+02  -1.634987e+02
   2.256751e+02  -2.380343e+00
   6.321378e+01   1.190328e+02
  -8.136179e+01   1.137799e+02
  -8.934179e+01   3.798487e+01
  -1.928500e+01  -2.403190e+01
   2.185651e+01  -2.081287e+01
  -1.505131e+01   3.448454e+00
  -6.724756e+01  -1.661803e+01
  -8.950198e+01  -8.842947e+01
  -1.436698e+01  -1.782753e+02
   1.578083e+02  -1.599636e+02
   2.333715e+02  -3.399749e+01
   1.904158e+02   1.693816e+02
   3.058084e+01   2.357810e+02
  -1.221624e+02   1.621598e+02
  -1.502836e+02   1.982481e+01
  -7.331841e+01  -7.324362e+01
  -3.057376e+01  -3.984428e+01
  -5.479241e+01   9.691038e+00
  -9.364057e+01   1.025512e+01
  -4.374812e+01  -5.743379e+01
   5.127609e+01  -9.330381e+01
   8.426604e+01  -5.349903e+01
   9.068780e+01   4.638164e+01
  -1.960212e+01   1.104629e+02
  -1.526976e+02   1.028575e+02
  -2.052144e+02  -8.028760e+01
  -8.882912e+01  -2.057817e+02
   1.288073e+02  -2.343306e+02
   2.820090e+02  -6.778948e+01
   2.828839e+02   8.229538e+01
   1.156610e+02   2.002582e+02
  -3.374427e+01   1.515553e+02
  -9.994611e+01   9.321047e+01
  -8.203215e+01   7.976232e+01
  -6.627689e+01   9.098316e+01
  -9.676693e+01   7.933968e+01
  -1.471289e+02  -3.326821e+01
  -1.059165e+02  -1.614513e+02
  -3.373723e+01  -2.147858e+02
   9.564366e+01  -1.778905e+02
   1.975478e+02  -2.776835e+01
   1.391473e+02   1.327752e+02
   1.787250e+01   1.793396e+02
  -6.240186e+01   1.013085e+02
  -5.861625e+01  -2.335167e+00
  -1.211855e+00  -5.103812e+01
   1.908401e+01  -3.483803e+01
  -3.989575e+01  -2.049019e+01
  -8.284334e+01  -1.595336e+01
  -4.536608e+01  -4.425231e+01
   6.858565e+01  -4.977082e+01
   1.886981e+02   1.469735e+01
   1.625852e+02   5.490986e+01
   1.422914e+01   9.024713e+01
  -1.264975e+02   8.516910e+01
  -1.685657e+02   1.511044e+01
  -4.226130e+01  -4.320371e+01
   6.459335e+01  -3.514659e+01
   7.829077e+01   2.329763e+01
   5.722012e+00   8.366682e+01
  -4.423039e+01   6.208692e+01
  -6.478848e+01  -1.759145e+01
  -5.145635e+01  -5.755211e+01
  -4.183893e+01  -4.651171e+01
  -6.093909e+01  -8.662147e+00
  -6.851324e+01  -3.637113e+00
  -3.500092e+01  -7.713462e+01
   4.453650e+01  -1.439866e+02
   1.214412e+02  -1.457099e+02
   1.782172e+02  -9.178139e+00
   1.417818e+02   8.912915e+01
  -1.474383e+01   1.314484e+02
  -9.418260e+01   5.646540e+01
  -6.563079e+01  -2.023695e+01
   6.443922e+01  -1.894977e+01
   1.618176e+02   2.883815e+01
   8.262554e+01   1.138896e+02
  -8.902131e+01   1.191260e+02
  -1.999772e+02   3.923378e+01
  -1.659037e+02  -4.086358e+01
  -3.663498e+01  -8.727416e+01
   5.287670e+01  -7.788468e+01
   4.603192e+01  -3.924579e+00
  -4.112177e+01   2.720849e+01
  -9.036359e+01  -3.003664e+01
  -4.054128e+01  -1.186336e+02
   1.086317e+02  -1.652941e+02
   1.918949e+02  -6.667248e+01
   1.134977e+02   8.871076e+01
  -2.875379e+00   2.151452e+02
  -7.946029e+01   1.516095e+02
  -1.074795e+02  -2.151114e+01
  -7.188965e+01  -1.203907e+02
  -1.397394e+00  -1.161081e+02
   5.122932e+01  -2.452096e+01
   6.537232e+01   2.896891e+01
   2.980524e+01   8.064733e+00
   5.061838e+00  -2.143448e+01
   2.492665e+01   1.654086e+01
   6.468037e+01   9.408362e+01
   4.921330e+01   9.672260e+01
  -5.259253e+01   4.290022e+01
  -1.506537e+02  -6.742528e+01
  -1.361237e+02  -6.599026e+01
  -1.582912e+01  -5.027737e+01
   9.010048e+01  -2.503359e+01
   1.035987e+02  -9.434132e+00
   1.280082e+01   1.233784e+01
  -3.708394e+01   1.939016e+01
  -1.561829e+01   1.702094e+01
   2.235575e+01  -3.852660e+00
  -6.417315e+00  -1.176699e+01
  -7.745071e+01  -3.517659e+00
  -9.840685e+01  -2.582099e+01
  -9.823523e+00  -7.241852e+01
   1.507457e+02  -1.112562e+02
   1.920886e+02  -6.441365e+01
   1.594613e+02   6.330937e+01
   1.125835e+01   1.522185e+02
  -8.769468e+01   1.350141e+02
  -1.209253e+02   6.051445e+01
  -9.444330e+01  -2.548704e+01
  -2.142636e+01  -3.482680e+01
   4.815950e-01  -9.476535e+00
  -1.154033e+01  -7.107919e+00
  -2.817342e+01  -4.637318e+01
  -1.461146e+01  -8.980798e+01
   2.869051e+01  -7.527782e+01
   8.816324e+01   2.556379e+01
   7.398156e+01   1.340897e+02
  -1.207826e+01   1.146184e+02
  -8.883514e+01   2.120444e+01
  -1.014922e+02  -8.557143e+01
  -3.124122e+01  -1.108970e+02
   7.792162e+01  -6.549029e+01
   1.088057e+02   1.869455e+00
   4.481568e+01   5.250370e+01
  -3.380761e+01   5.005232e+01
  -3.428729e+01   2.912362e+01
   3.660372e+01   2.090812e+00
   7.023521e+01  -3.244442e+00
   1.657405e+01   2.948195e+01
  -9.001199e+01   7.415752e+01
  -1.108056e+02   6.268686e+01
  -6.561258e+01  -2.104619e+01
   6.690277e+00  -8.585644e+01
   6.790244e+01  -8.922238e+01
   3.953738e+01  -3.047059e+00
   4.685318e+00   5.864115e+01
  -2.830257e+01   4.694136e+01
  -3.773624e+01  -2.333007e+01
  -2.175382e+01  -5.768642e+01
   6.148495e+00  -3.417513e+01
   3.296926e+01   9.402667e+00
   4.193863e+01   2.980337e+01
   2.258787e+01   3.397653e+00
  -7.150867e-02  -1.515506e+01
  -7.367251e+00   1.152114e+00
  -7.262970e+00   3.667097e+01
  -2.350438e+01   5.002960e+01
  -3.229189e+01   6.351916e+00
  -2.326950e+01  -4.579541e+01
   6.893819e+00  -6.583725e+01
   4.720422e+01  -2.026691e+01
   5.671279e+01   4.830323e+01
   1.794957e+01   6.552278e+01
  -5.908600e+01   3.728439e+01
  -9.054054e+01  -1.795138e+01
  -4.889628e+01  -4.626983e+01
   2.872521e+01  -5.099755e+01
   6.833575e+01  -2.162907e+01
   2.393635e+01  -6.924401e+00
  -3.551717e+01  -4.172732e-01
  -4.647979e+01  -1.863520e+01
   3.048125e+01  -3.143453e+01
   9.965951e+01  -2.709680e+01
