
 $NMID
 id='ANONYMOUS ', fmtdat='(2E16.6)'
 volume=1.0
 tramp=1.0
 $END
  -3.763367e+03  -5.607012e+01
  -2.125283e+03  -2.317295e+03
   5.422338e+02  -2.601480e+03
   1.693703e+03  -1.096495e+03
   8.144671e+02   5.148199e+02
  -4.846490e+02   5.782939e+02
  -9.344025e+02  -3.032856e+02
   1.032104e+02  -9.583792e+02
   7.750217e+02  -7.357967e+02
   9.334363e+02   1.485401e+02
   3.771098e+02   7.958968e+02
  -1.899070e+02   8.941947e+02
  -6.049203e+02   7.761025e+01
  -3.534017e+02  -6.319154e+02
   1.721641e+02  -7.942066e+02
   5.897206e+02   4.765249e+01
   2.804469e+02   5.684364e+02
  -3.300067e+02   7.280320e+02
  -5.743664e+02   1.860845e+02
  -4.479554e+02  -3.731628e+02
   2.171507e+00  -4.407701e+02
   2.218870e+02  -2.694700e+02
   1.959210e+02  -2.031802e+01
  -1.451277e+02   5.778503e+01
  -3.165003e+02  -1.073023e+02
  -1.028352e+02  -3.773735e+02
   4.011110e+02  -2.913676e+02
   8.372286e+02   2.842112e+01
   4.385785e+02   5.461836e+02
  -4.090597e+02   4.103488e+02
  -6.976377e+02   2.794126e+00
  -2.746926e+02  -4.786152e+02
   2.804571e+02  -4.844102e+02
   5.774829e+02  -2.586900e+02
   4.395430e+02   2.483956e+02
   7.069396e+01   4.048577e+02
  -1.520440e+02   3.044609e+02
  -8.151303e+01  -1.813896e+02
   1.175962e+02  -3.891397e+02
   3.644899e+02   3.153365e+01
   1.975674e+02   6.459830e+02
  -3.385940e+02   7.091585e+02
  -5.377782e+02   2.825547e+01
  -2.126248e+02  -4.981278e+02
   2.861696e+02  -2.782570e+02
   4.043380e+02   2.838834e+02
  -7.384680e+01   5.542938e+02
  -5.584684e+02   1.114762e+02
  -6.347439e+02  -3.619225e+02
  -1.275044e+02  -6.251781e+02
   3.735059e+02  -3.842364e+02
   6.432669e+02   1.105721e+00
   3.789641e+02   3.293602e+02
  -1.175300e+02   3.260429e+02
  -3.671773e+02   8.716484e+01
  -2.539360e+02  -2.144390e+02
   9.798999e+01  -1.099334e+02
   1.192499e+02   1.431012e+02
  -1.758555e+02   1.695012e+02
  -3.414821e+02  -3.406226e+01
  -1.110700e+02  -2.419214e+02
   1.760622e+02  -2.888792e+02
   3.524243e+02  -6.684540e+01
   2.288863e+02   9.770357e+01
  -1.692208e+01   2.385770e+02
  -1.907330e+02   3.369967e+02
  -3.216886e+02   1.723160e+02
  -2.780572e+02  -1.603190e+02
  -1.095632e+02  -4.736311e+02
   1.150821e+02  -3.831299e+02
   1.239869e+02  -1.443384e+02
   1.772939e+01  -6.782702e+00
   6.945255e+01  -9.871198e+01
   1.872269e+02  -1.270039e+02
   2.637236e+02   5.095195e+01
   1.597085e+02   2.663457e+02
  -1.062409e+02   2.120037e+02
  -2.287925e+02   3.230870e+01
  -2.108127e+02  -2.664127e+02
   9.736445e+00  -2.704540e+02
   2.720658e+02  -1.432968e+02
   3.265292e+02   2.075133e+02
   2.049658e+02   3.549061e+02
  -9.234226e+01   3.007141e+02
  -2.016728e+02   1.480868e+02
  -1.557674e+02   3.493858e+01
  -1.029678e+02   4.609556e+01
  -2.493780e+02   6.932871e+01
  -3.858095e+02   3.067786e+01
  -3.008344e+02  -2.943236e+02
   4.750566e+01  -4.696482e+02
   2.896954e+02  -4.560825e+02
   4.737249e+02  -2.336935e+02
   2.845190e+02   1.026218e+02
   4.713102e+01   3.056235e+02
  -1.281758e+02   2.532382e+02
  -6.764046e+01   4.627663e+01
   8.275414e+01  -6.651507e+01
   1.909477e+02  -1.388178e+01
   4.672318e+01   1.808040e+02
  -1.476312e+02   1.643445e+02
  -2.119417e+02  -5.734891e+01
  -2.327735e+00  -1.818721e+02
   1.841187e+02  -5.168003e+01
   1.750634e+02   2.476985e+02
  -1.874905e+01   3.753280e+02
  -2.449676e+02   1.882553e+02
  -3.405480e+02  -7.783927e+01
  -3.366028e+02  -2.233501e+02
  -5.968797e+01  -2.506116e+02
   1.269051e+02  -1.472514e+02
   1.609291e+02  -4.334433e+01
   6.382891e+01   2.338901e+01
  -7.855459e+01  -3.383767e+01
  -1.466294e+01  -1.138454e+02
   1.243384e+02  -1.188281e+02
   1.622682e+02  -1.055792e+00
   4.394091e+01   7.722467e+01
  -7.596297e+01   1.931868e+01
  -6.062070e+01  -8.639201e+01
   1.324320e+02  -8.439788e+01
   2.817454e+02  -1.799169e+01
   2.889010e+02   1.597488e+02
   4.628361e+01   2.413286e+02
  -2.410223e+02   2.699531e+02
  -2.527068e+02   1.431735e+02
  -1.617408e+02  -4.766211e+01
   3.139034e+01  -1.055346e+02
   9.281182e+01  -1.632727e+01
  -2.511120e+01   1.031176e+02
  -2.015449e+02   4.598199e+01
  -1.888958e+02  -1.151103e+02
  -7.911782e+01  -2.062914e+02
   9.556372e+01  -1.614878e+02
   1.451066e+02  -4.011990e+01
   6.655865e+01   4.104693e+01
  -3.269292e+01   5.851082e+00
  -3.761228e+01  -8.800490e+01
   6.776912e+01  -1.267768e+02
   2.218326e+02  -1.613261e+01
   1.934413e+02   1.124585e+02
   3.037505e+01   2.342598e+02
  -1.855889e+02   1.720107e+02
  -2.178134e+02   7.888425e+00
  -5.878414e+01  -1.165988e+02
   6.578099e+01  -1.063313e+02
   7.467340e+01  -3.722574e+01
   1.493270e+01   2.726823e+01
  -2.314255e+01   2.617103e+01
   1.137121e+01  -8.734273e+00
   6.811811e+01   9.957013e+00
   9.637503e+01   8.267076e+01
   1.408766e+01   1.607403e+02
  -1.578716e+02   1.418245e+02
  -2.317307e+02   4.590611e+01
  -1.776922e+02  -1.648284e+02
  -4.060336e+01  -2.489954e+02
   1.058752e+02  -1.565493e+02
   1.338870e+02  -1.957158e+01
   6.516485e+01   5.605214e+01
   2.841205e+01   3.452003e+01
   5.323659e+01  -1.007318e+01
   9.467445e+01  -1.255467e+01
   5.205736e+01   4.840695e+01
  -5.318302e+01   9.815923e+01
  -9.731633e+01   6.865416e+01
  -1.000806e+02  -4.844424e+01
   6.999340e+00  -1.142095e+02
   1.436731e+02  -9.213462e+01
   1.931850e+02   6.406991e+01
   7.789731e+01   1.822577e+02
  -1.157995e+02   2.283673e+02
  -2.581102e+02   9.826485e+01
  -2.673611e+02  -9.046695e+01
  -9.190570e+01  -1.663263e+02
   5.907215e+01  -1.387321e+02
   1.021562e+02  -9.358726e+01
   8.168468e+01  -8.234905e+01
   5.878683e+01  -9.655981e+01
   9.841340e+01  -8.203575e+01
   1.401818e+02   2.712605e+01
   1.138909e+02   1.700026e+02
   5.642668e+01   2.180507e+02
  -1.178080e+02   1.881933e+02
  -1.911486e+02   1.116845e+01
  -1.218213e+02  -1.184070e+02
  -2.138266e+01  -1.767058e+02
   6.966446e+01  -9.560330e+01
   5.801505e+01   2.857734e+00
  -1.564611e+00   4.789504e+01
  -2.032650e+01   3.065298e+01
   3.458648e+01   1.764966e+01
   7.846275e+01   1.813845e+01
   3.617543e+01   4.170695e+01
  -6.919139e+01   4.331924e+01
  -1.741027e+02  -1.296540e+01
  -1.568109e+02  -5.817133e+01
  -1.678723e+01  -9.578065e+01
   1.267484e+02  -8.456950e+01
   1.578261e+02  -1.255215e+01
   4.961733e+01   3.650925e+01
  -6.973989e+01   3.566822e+01
  -7.543405e+01  -2.299363e+01
   3.399105e+00  -7.504683e+01
   5.370006e+01  -7.336490e+01
   5.814797e+01   1.024764e+01
   4.822529e+01   6.343744e+01
   4.355840e+01   4.318244e+01
   6.034540e+01   1.842349e+00
   7.119969e+01   5.293412e-01
   3.156910e+01   7.284599e+01
  -3.901905e+01   1.534518e+02
  -1.188860e+02   1.384004e+02
  -1.891495e+02   3.476129e+01
  -1.342748e+02  -7.913968e+01
  -7.921472e-01  -1.274146e+02
   8.757029e+01  -6.470639e+01
   6.138761e+01   2.156257e+01
  -6.118097e+01   2.346583e+01
  -1.374953e+02  -4.300165e+01
  -6.453520e+01  -1.120915e+02
   8.521119e+01  -1.164507e+02
   1.845395e+02  -3.388905e+01
   1.560446e+02   1.730091e+01
   3.835458e+01   8.870194e+01
  -5.767736e+01   6.781070e+01
  -4.139162e+01   5.283794e+00
   4.078102e+01  -2.240374e+01
   9.094226e+01   2.565363e+01
   3.964061e+01   1.242081e+02
  -9.292581e+01   1.553815e+02
  -1.868298e+02   6.824912e+01
  -1.162620e+02  -9.057177e+01
  -9.576111e+00  -1.979607e+02
   1.054606e+02  -1.493723e+02
   1.033578e+02   1.109723e+01
   6.127886e+01   1.276579e+02
  -6.554558e+00   1.149176e+02
  -4.512268e+01   2.251735e+01
  -5.818408e+01  -2.951784e+01
  -2.789023e+01  -6.794078e+00
  -4.888373e+00   2.014223e+01
  -2.797181e+01  -1.918937e+01
  -6.647422e+01  -9.675229e+01
  -4.057610e+01  -1.021205e+02
   4.328424e+01  -4.235593e+01
   1.367014e+02   5.895617e+01
   1.355766e+02   8.771570e+01
   1.455230e+01   5.081938e+01
  -9.053172e+01   2.420012e+01
  -9.326890e+01   8.851346e+00
  -9.431134e+00  -8.768071e+00
   3.140195e+01  -2.284356e+01
   1.341362e+01  -1.496238e+01
  -2.090349e+01   1.199962e+00
   5.068943e+00   1.027597e+01
   7.683867e+01   3.667055e+00
   9.568331e+01   2.402072e+01
   6.771975e+00   8.235831e+01
  -1.283928e+02   1.130615e+02
  -1.838506e+02   6.294687e+01
  -1.609095e+02  -6.391646e+01
  -2.233012e+01  -1.533652e+02
   6.917240e+01  -1.473487e+02
   1.192847e+02  -6.629905e+01
   8.050851e+01   2.190022e+01
   2.378781e+01   3.086688e+01
  -2.451531e+00   9.225929e+00
   1.055806e+01   6.075822e+00
   3.456625e+01   4.140515e+01
   2.597056e+01   9.225060e+01
  -2.655279e+01   7.562255e+01
  -8.643493e+01  -1.838292e+01
  -7.940847e+01  -1.244270e+02
   4.348124e-01  -9.923461e+01
   9.147474e+01  -2.741820e+01
   1.205123e+02   9.049127e+01
   4.340019e+01   1.042802e+02
  -8.114817e+01   5.210015e+01
  -1.140938e+02  -5.724687e+00
  -4.730695e+01  -5.106820e+01
   3.318150e+01  -4.835611e+01
   3.259101e+01  -2.945484e+01
  -3.461609e+01   9.896584e-01
  -7.497681e+01   1.220197e+01
  -1.446218e+01  -2.337323e+01
   7.930678e+01  -7.995790e+01
   1.183876e+02  -6.929580e+01
   6.233493e+01   1.738978e+01
  -1.245075e+01   9.314895e+01
  -6.342441e+01   8.028519e+01
  -3.689423e+01   6.213468e+00
  -5.600733e+00  -6.207719e+01
   2.505453e+01  -4.182567e+01
   3.581043e+01   1.464225e+01
   2.840661e+01   4.725934e+01
  -4.908471e+00   3.390806e+01
  -3.001319e+01  -1.760257e+00
  -4.015013e+01  -2.855040e+01
  -2.151816e+01  -2.000917e+00
  -6.036991e-01   1.507711e+01
   4.306621e+00  -1.667322e+00
   5.948262e-01  -3.609853e+01
   2.045732e+01  -4.953332e+01
   3.582070e+01  -6.992476e+00
   2.916070e+01   4.550486e+01
   7.063980e+00   6.121452e+01
  -4.618201e+01   2.699053e+01
  -5.842940e+01  -4.266566e+01
  -1.549848e+01  -7.047375e+01
   5.475665e+01  -3.366801e+01
   9.381945e+01   1.378278e+01
   4.887163e+01   4.208236e+01
  -2.954992e+01   3.989441e+01
  -6.029242e+01   2.470822e+01
  -2.665971e+01   4.694700e+00
   3.294099e+01   1.251971e+00
   4.003292e+01   1.279266e+01
  -2.870971e+01   3.545406e+01
  -9.403923e+01   2.964742e+01
