
 $NMID
 id='ANONYMOUS ', fmtdat='(2E16.6)'
 volume=1.0
 tramp=1.0
 $END
   4.351217e+03  -3.930462e+02
   2.538254e+03   1.792667e+03
  -6.969151e+02   3.063486e+03
  -1.792953e+03   8.518895e+02
  -7.698326e+02  -3.130188e+02
   3.833461e+02  -5.784785e+02
   9.482646e+02   4.312108e+02
  -6.191052e+01   9.621032e+02
  -8.073570e+02   7.114036e+02
  -8.815724e+02  -6.990583e+01
  -4.152437e+02  -6.997059e+02
   2.990022e+02  -7.833146e+02
   5.095624e+02  -1.558354e+01
   3.282678e+02   7.321337e+02
  -2.910651e+02   6.893617e+02
  -5.862694e+02  -1.226059e+01
  -2.887310e+02  -6.584014e+02
   3.206533e+02  -5.329228e+02
   5.088631e+02  -1.347388e+02
   4.164735e+02   2.757874e+02
   2.100667e+00   4.691620e+02
  -1.928145e+02   2.203817e+02
  -1.974747e+02   1.936068e+01
   1.002286e+02  -9.303480e+01
   4.491250e+02   1.033042e+02
   1.913063e+02   4.084552e+02
  -4.724904e+02   3.892364e+02
  -6.486613e+02  -2.127686e+02
  -3.202478e+02  -5.186511e+02
   3.003723e+02  -3.674453e+02
   7.612433e+02   5.363681e+01
   3.072633e+02   4.395347e+02
  -2.645356e+02   4.896547e+02
  -4.664494e+02   2.152089e+02
  -4.019812e+02  -2.464602e+02
  -3.114777e+01  -4.333715e+02
   1.747787e+02  -2.811080e+02
   1.442736e+02   2.093868e+02
  -1.682171e+02   4.402764e+02
  -4.189973e+02   1.389790e+00
  -1.970849e+02  -6.045677e+02
   2.774643e+02  -7.235535e+02
   5.083661e+02   8.289929e+00
   1.497325e+02   5.155216e+02
  -2.460536e+02   3.061088e+02
  -3.673775e+02  -2.900550e+02
   9.241450e+01  -5.814574e+02
   5.323458e+02  -1.814703e+02
   5.924333e+02   4.626046e+02
   1.529646e+02   4.945130e+02
  -3.901530e+02   3.566534e+02
  -5.411885e+02  -8.704942e+01
  -3.864355e+02  -3.340701e+02
   1.397342e+02  -3.327069e+02
   3.851912e+02  -5.337659e+01
   1.418803e+02   2.105124e+02
  -1.129834e+02   9.267154e+01
  -1.622460e+02  -1.635799e+02
   1.464696e+02  -2.269035e+02
   3.408019e+02   8.292403e+01
   1.576819e+02   2.853435e+02
  -1.908825e+02   2.296685e+02
  -2.932301e+02   4.226231e+01
  -2.106815e+02  -6.741954e+01
   1.992872e+01  -1.998731e+02
   2.294708e+02  -3.464186e+02
   3.205456e+02  -1.953134e+02
   2.525019e+02   8.682334e+01
   4.666544e+01   3.407000e+02
  -1.131487e+02   2.857483e+02
  -1.159103e+02   9.731361e+01
  -8.405342e+00  -3.613269e+00
  -1.953242e+01   8.990660e+01
  -1.935206e+02   1.162850e+02
  -2.834977e+02  -6.259111e+01
  -1.241659e+02  -2.297429e+02
   6.077171e+01  -2.627700e+02
   2.317248e+02  -1.646845e+01
   2.028519e+02   2.073443e+02
  -2.925704e+01   2.918445e+02
  -3.180817e+02   1.165337e+02
  -3.325532e+02  -1.972371e+02
  -1.607961e+02  -2.967976e+02
   8.356354e+01  -3.191063e+02
   2.029886e+02  -9.779168e+01
   1.385720e+02  -1.146196e+01
   7.939699e+01  -2.961032e+01
   1.856019e+02  -5.466966e+01
   4.677739e+02   6.280156e+01
   3.250994e+02   2.890276e+02
   1.746680e+00   3.613781e+02
  -3.429012e+02   4.029416e+02
  -5.306360e+02   2.213832e+02
  -2.922788e+02  -5.441554e+01
  -4.845549e+01  -3.027048e+02
   1.381956e+02  -2.464507e+02
   8.540110e+01  -2.311056e+01
  -8.705516e+01   1.223588e+02
  -2.135456e+02  -2.541544e+00
  -3.430588e+01  -1.737142e+02
   1.580626e+02  -1.892302e+02
   1.628632e+02   7.011554e+01
  -1.455392e+01   1.819952e+02
  -2.203496e+02   4.158696e+01
  -1.429156e+02  -1.972918e+02
   1.948229e+01  -3.807871e+02
   2.286755e+02  -1.884711e+02
   2.488155e+02   4.500908e+01
   2.928443e+02   2.074243e+02
   7.761213e+01   2.171716e+02
  -9.434216e+01   1.599062e+02
  -1.800996e+02   5.316984e+00
  -5.901855e+01  -3.261647e+01
   6.948618e+01   2.831018e+01
   3.685056e+01   1.306172e+02
  -1.379775e+02   9.682748e+01
  -1.835009e+02  -2.060356e+01
  -5.322579e+01  -6.678992e+01
   7.953538e+01  -1.456903e+01
   5.605385e+01   6.619484e+01
  -1.262130e+02   9.938717e+01
  -2.614902e+02   1.707860e+01
  -1.849673e+02  -1.122862e+02
  -5.722674e+01  -2.220374e+02
   1.780332e+02  -2.621544e+02
   2.833798e+02  -1.277077e+02
   1.555392e+02   4.232853e+01
  -1.805608e+01   1.066045e+02
  -9.080727e+01  -1.257153e+00
   1.783257e+01  -1.009646e+02
   1.839532e+02  -5.379088e+01
   2.268519e+02   7.795699e+01
   7.659499e+01   2.042482e+02
  -8.304628e+01   1.328026e+02
  -1.306915e+02   2.464988e+01
  -6.208588e+01  -2.750438e+01
   3.311633e+01  -1.512791e+01
   3.912228e+01   8.459158e+01
  -5.422710e+01   1.018867e+02
  -1.572472e+02   4.229167e+01
  -1.836546e+02  -1.163190e+02
  -1.802641e+01  -1.806304e+02
   1.431907e+02  -1.896554e+02
   1.829430e+02   1.631750e+00
   5.332670e+01   1.116968e+02
  -6.196469e+01   1.144706e+02
  -8.907828e+01   3.112435e+01
  -1.695962e+01  -2.733639e+01
   2.031478e+01  -2.454919e+01
  -1.224858e+01   5.059415e+00
  -6.592907e+01  -4.957747e-01
  -7.640967e+01  -7.152088e+01
  -1.609709e+01  -1.238389e+02
   1.141995e+02  -1.283265e+02
   2.265818e+02  -3.966901e+01
   1.968623e+02   1.378672e+02
   2.476757e+01   2.382779e+02
  -1.309082e+02   1.789019e+02
  -1.198309e+02   1.121694e+01
  -7.110036e+01  -5.183385e+01
  -2.782622e+01  -3.253801e+01
  -5.209946e+01   1.562255e+01
  -6.403949e+01   9.472823e+00
  -3.952403e+01  -3.677398e+01
   3.294944e+01  -8.049581e+01
   1.023839e+02  -5.834808e+01
   8.287412e+01   3.555940e+01
  -2.369137e+00   1.097974e+02
  -1.110491e+02   7.655640e+01
  -1.457427e+02  -2.176330e+01
  -8.118440e+01  -1.776467e+02
   9.788187e+01  -2.432494e+02
   2.794718e+02  -9.878882e+01
   2.150922e+02   8.808663e+01
   1.127319e+02   1.766490e+02
  -5.108765e+01   1.275101e+02
  -9.286078e+01   8.080352e+01
  -6.871021e+01   6.035792e+01
  -7.443584e+01   9.329129e+01
  -7.241509e+01   6.101412e+01
  -1.268382e+02  -1.985175e+01
  -1.070052e+02  -1.286033e+02
  -4.082941e+01  -2.278357e+02
   9.265090e+01  -1.766170e+02
   1.591068e+02  -2.144308e+01
   1.303957e+02   9.598912e+01
   2.550984e+01   1.444928e+02
  -5.296159e+01   8.785283e+01
  -6.115988e+01   4.258579e+00
  -5.368162e+00  -3.448218e+01
   8.539709e+00  -2.723393e+01
  -3.604616e+01  -1.861171e+01
  -7.423419e+01  -2.500558e+01
  -3.322962e+01  -2.783371e+01
   5.675339e+01  -4.288516e+01
   1.424872e+02  -9.976249e+00
   1.410619e+02   2.615375e+01
   2.163932e+01   7.273101e+01
  -1.076389e+02   4.829402e+01
  -1.179295e+02   2.175320e+01
  -4.867889e+01  -3.960414e+01
   4.552558e+01  -3.065100e+01
   6.703281e+01   1.027339e+01
   6.233070e+00   6.208496e+01
  -4.939726e+01   5.647804e+01
  -5.739455e+01  -3.520248e+00
  -3.956936e+01  -4.736396e+01
  -4.689583e+01  -3.375996e+01
  -5.366277e+01  -5.395671e-01
  -5.492962e+01  -1.469708e+00
  -3.360760e+01  -6.099603e+01
   3.929670e+01  -1.479557e+02
   1.081641e+02  -1.336424e+02
   1.468326e+02  -3.341958e+01
   1.259731e+02   8.919580e+01
   1.027401e+01   1.121378e+02
  -8.506172e+01   5.867458e+01
  -5.475051e+01  -1.366725e+01
   5.468335e+01  -2.371966e+01
   1.092402e+02   3.490069e+01
   7.804305e+01   1.054817e+02
  -6.529439e+01   9.061177e+01
  -1.697841e+02   4.904964e+01
  -1.506384e+02  -1.528245e+01
  -3.464993e+01  -7.999114e+01
   5.159707e+01  -7.985872e+01
   4.310843e+01  -9.776107e+00
  -3.611067e+01   2.394251e+01
  -8.535689e+01  -1.986868e+01
  -3.290749e+01  -1.157430e+02
   8.138526e+01  -1.584333e+02
   1.429228e+02  -5.714882e+01
   1.249711e+02   9.322135e+01
   1.149276e+01   1.654366e+02
  -8.618605e+01   1.388143e+02
  -1.054398e+02  -5.557101e+00
  -6.757172e+01  -1.018707e+02
  -2.099689e-01  -8.633067e+01
   3.615125e+01  -1.516505e+01
   4.370679e+01   2.154326e+01
   2.140754e+01   6.213780e+00
   4.501751e+00  -1.852498e+01
   1.728453e+01   1.109004e+01
   4.970889e+01   7.757424e+01
   3.931287e+01   1.044747e+02
  -3.691146e+01   4.558014e+01
  -1.283677e+02  -2.543247e+01
  -1.325921e+02  -7.047665e+01
  -1.716683e+01  -4.469652e+01
   8.425296e+01  -2.760779e+01
   8.475558e+01  -2.703517e+00
   1.004930e+01   5.331490e+00
  -3.933760e+01   2.345282e+01
  -1.068864e+01   1.713362e+01
   1.673232e+01   8.666178e-01
  -6.855733e+00  -1.076424e+01
  -6.538702e+01   3.402626e+00
  -9.366901e+01  -2.514155e+01
  -8.206067e+00  -7.654335e+01
   9.989867e+01  -9.792893e+01
   1.440530e+02  -6.171632e+01
   1.132499e+02   5.347179e+01
   3.149826e+01   1.792294e+02
  -7.730821e+01   1.297124e+02
  -1.100526e+02   5.059408e+01
  -7.586866e+01  -9.806518e+00
  -2.607563e+01  -3.437832e+01
   8.585779e-01  -6.877869e+00
  -1.002203e+01  -1.076742e+00
  -3.539121e+01  -3.688255e+01
  -1.974970e+01  -8.118139e+01
   2.692559e+01  -6.206017e+01
   5.980076e+01   1.530861e+01
   6.939469e+01   9.894302e+01
   1.700782e+01   1.092016e+02
  -7.219776e+01   2.620056e+01
  -8.728341e+01  -6.768334e+01
  -3.483166e+01  -9.265255e+01
   5.883915e+01  -4.991270e+01
   8.114804e+01   7.185643e+00
   3.718065e+01   4.528129e+01
  -3.428459e+01   5.754820e+01
  -2.750039e+01   2.450073e+01
   3.014163e+01   2.655363e+00
   6.854665e+01  -1.002847e+01
   1.272383e+01   2.271555e+01
  -6.447372e+01   5.984826e+01
  -1.090959e+02   5.264181e+01
  -5.848333e+01  -5.826747e+00
   1.816375e+01  -7.778311e+01
   3.334836e+01  -5.541028e+01
   2.850486e+01  -9.761268e+00
   7.095073e-01   4.658898e+01
  -2.730681e+01   3.348563e+01
  -3.726658e+01  -1.795426e+01
  -2.674407e+01  -4.821932e+01
   3.601031e+00  -2.749118e+01
   3.500453e+01   1.249011e+01
   3.344544e+01   1.588651e+01
   1.626492e+01   1.666297e+00
  -1.085710e+00  -1.242938e+01
  -6.746539e+00   4.427166e+00
  -4.268993e+00   3.404511e+01
  -1.338448e+01   3.258403e+01
  -2.817574e+01   3.135847e+00
  -2.713615e+01  -4.183314e+01
   5.374304e+00  -5.123185e+01
   3.289090e+01  -1.655854e+01
   4.888202e+01   2.689992e+01
   1.190354e+01   4.393880e+01
  -5.002683e+01   2.766399e+01
  -7.377293e+01  -3.953859e+00
  -4.920581e+01  -3.886700e+01
   2.450914e+01  -3.819864e+01
   7.088879e+01  -2.707970e+01
   1.981260e+01  -5.273068e+00
  -3.117706e+01  -5.514355e+00
  -3.126695e+01  -1.624343e+01
   2.518786e+01  -2.449369e+01
   6.260520e+01  -1.685539e+01
