
 $NMID
 id='ANONYMOUS ', fmtdat='(2E16.6)'
 volume=1.0
 tramp=1.0
 $END
  -4.313395e+03  -1.808366e+02
  -2.804091e+03  -2.153905e+03
   7.277732e+02  -3.059074e+03
   1.965389e+03  -6.409771e+02
   8.308563e+02   6.201714e+02
  -6.063345e+02   7.574272e+02
  -8.379431e+02  -5.198702e+02
   1.441650e+02  -9.948604e+02
   8.341867e+02  -7.451445e+02
   1.059667e+03   1.143603e+02
   4.372960e+02   7.968197e+02
  -3.530052e+02   8.480278e+02
  -6.065338e+02   1.562182e+02
  -5.052631e+02  -7.407822e+02
   3.613560e+02  -6.330812e+02
   6.502788e+02   8.152271e+01
   2.566834e+02   6.721422e+02
  -3.262436e+02   5.775681e+02
  -5.164919e+02   7.882210e+01
  -4.407432e+02  -3.193091e+02
  -3.408485e+00  -4.608393e+02
   2.109771e+02  -2.306932e+02
   2.109506e+02  -4.795412e+01
  -1.047676e+02   1.102777e+02
  -4.163995e+02  -1.177349e+02
  -2.088409e+02  -4.311215e+02
   4.038861e+02  -4.153145e+02
   6.965520e+02   1.021560e+02
   4.000881e+02   4.788642e+02
  -3.540196e+02   4.398193e+02
  -8.101890e+02   2.495142e+01
  -3.551750e+02  -4.915425e+02
   3.223125e+02  -4.801531e+02
   5.849131e+02  -2.015417e+02
   4.335969e+02   2.162643e+02
   4.656271e+00   4.268515e+02
  -2.284244e+02   2.776204e+02
  -1.691639e+02  -2.357804e+02
   1.541113e+02  -4.258553e+02
   4.108631e+02  -3.574395e+00
   1.981807e+02   6.418762e+02
  -2.974594e+02   6.716107e+02
  -5.969299e+02  -6.649447e+01
  -2.066844e+02  -4.873826e+02
   2.903329e+02  -3.223003e+02
   4.197765e+02   2.879630e+02
  -1.123424e+02   5.411074e+02
  -5.552655e+02   1.367117e+02
  -5.428305e+02  -4.804901e+02
  -2.276136e+02  -5.867306e+02
   4.675244e+02  -3.536938e+02
   5.342114e+02   1.536886e+02
   3.528635e+02   3.516093e+02
  -1.365168e+02   3.780482e+02
  -4.244673e+02   7.423389e+01
  -2.199765e+02  -1.952051e+02
   1.386707e+02  -1.320916e+02
   1.553498e+02   1.686405e+02
  -1.814813e+02   1.947460e+02
  -3.364296e+02  -5.270550e+01
  -1.163313e+02  -2.859982e+02
   1.860105e+02  -2.476501e+02
   2.915348e+02  -1.263437e+02
   1.968773e+02   1.063216e+02
  -2.617571e+01   1.796565e+02
  -2.332801e+02   3.226796e+02
  -3.133213e+02   1.947995e+02
  -2.725850e+02  -1.044671e+02
  -4.995650e+01  -3.673410e+02
   6.767472e+01  -3.523962e+02
   1.230474e+02  -1.024224e+02
   8.130598e+00   2.743566e+01
   3.096711e+01  -9.009955e+01
   1.843857e+02  -1.302904e+02
   2.658635e+02   6.634299e+01
   1.583055e+02   2.531312e+02
  -4.596811e+01   2.804607e+02
  -2.350393e+02   1.179824e+01
  -1.976232e+02  -2.093892e+02
   1.721398e+01  -3.038977e+02
   3.182855e+02  -9.156116e+01
   3.632484e+02   1.565606e+02
   1.431409e+02   3.233084e+02
  -1.231218e+02   3.206018e+02
  -2.399437e+02   9.055711e+01
  -1.256699e+02  -1.412688e+01
  -7.357451e+01   1.884632e+01
  -1.644235e+02   7.525351e+01
  -4.095274e+02  -6.704373e+01
  -3.010959e+02  -3.518490e+02
  -2.380688e+01  -4.249828e+02
   4.282399e+02  -3.594197e+02
   5.427577e+02  -1.986972e+02
   3.066561e+02   8.417165e+01
   4.795153e+01   3.012864e+02
  -1.424782e+02   2.494880e+02
  -7.918292e+01   3.975915e+01
   1.077385e+02  -1.145986e+02
   2.077183e+02   2.124216e+01
   3.206074e+01   1.839543e+02
  -1.579200e+02   2.105636e+02
  -1.824639e+02  -4.283986e+01
   2.428912e+01  -1.842905e+02
   2.179982e+02  -3.516687e+00
   1.637664e+02   2.108250e+02
  -6.764962e+01   3.683104e+02
  -2.563822e+02   2.093203e+02
  -3.079459e+02  -4.367586e+01
  -2.553849e+02  -2.439859e+02
  -7.423932e+01  -2.265231e+02
   1.283123e+02  -1.628597e+02
   1.788794e+02  -1.860824e+01
   4.316321e+01   4.604214e+01
  -7.466834e+01  -3.533619e+01
  -2.567583e+01  -1.348445e+02
   1.351873e+02  -9.330613e+01
   1.746022e+02   3.500137e+01
   5.538665e+01   6.761794e+01
  -8.248480e+01   1.750896e+01
  -6.283671e+01  -6.640717e+01
   1.284041e+02  -1.002392e+02
   2.985983e+02  -1.476440e+01
   2.267455e+02   1.067804e+02
   4.722212e+01   2.256339e+02
  -1.859466e+02   2.417181e+02
  -2.915378e+02   1.234316e+02
  -1.696578e+02  -5.412490e+01
   2.232657e+01  -1.108581e+02
   9.250245e+01   1.437930e+00
  -3.486808e+01   1.049802e+02
  -2.064707e+02   5.520120e+01
  -2.251384e+02  -1.014615e+02
  -6.201387e+01  -1.901045e+02
   9.087076e+01  -1.354770e+02
   1.320428e+02  -2.498296e+01
   6.095911e+01   3.314068e+01
  -2.500853e+01   6.537726e+00
  -3.301215e+01  -8.380362e+01
   6.096107e+01  -1.011135e+02
   1.870268e+02  -5.334565e+01
   1.888306e+02   1.175570e+02
  -4.611330e+00   2.059422e+02
  -1.896323e+02   1.498440e+02
  -1.914092e+02  -1.081126e-01
  -3.672481e+01  -1.117900e+02
   7.111769e+01  -1.142341e+02
   8.568456e+01  -3.200815e+01
   1.802133e+01   2.636856e+01
  -2.089450e+01   2.191646e+01
   9.571910e+00  -3.599635e+00
   7.121912e+01   5.181245e+00
   7.660558e+01   7.728038e+01
  -1.875121e+00   1.359739e+02
  -1.245925e+02   1.418307e+02
  -2.252013e+02   3.860021e+01
  -1.902575e+02  -1.363043e+02
  -3.333214e+01  -2.439559e+02
   1.164670e+02  -1.923520e+02
   1.259890e+02  -2.011603e+01
   6.629262e+01   4.699719e+01
   2.892655e+01   3.332873e+01
   5.291880e+01  -6.857576e+00
   6.537059e+01  -1.385405e+00
   3.722242e+01   4.288417e+01
  -3.340131e+01   7.841393e+01
  -1.014281e+02   6.277992e+01
  -7.658469e+01  -4.505315e+01
   2.056240e+01  -9.374577e+01
   1.219912e+02  -7.185065e+01
   1.699691e+02   1.436600e+01
   8.517098e+01   1.959317e+02
  -1.045279e+02   2.465912e+02
  -2.624231e+02   8.184978e+01
  -2.484684e+02  -6.925449e+01
  -1.051339e+02  -1.662314e+02
   3.874219e+01  -1.235910e+02
   9.313529e+01  -8.122339e+01
   8.447645e+01  -4.870331e+01
   8.146725e+01  -9.895889e+01
   8.157556e+01  -5.533294e+01
   1.227555e+02   1.273183e+01
   1.343185e+02   1.609277e+02
   3.311684e+01   2.338896e+02
  -1.104715e+02   1.643769e+02
  -1.529664e+02   2.194894e+01
  -1.338705e+02  -1.112576e+02
  -2.221040e+01  -1.529585e+02
   5.621822e+01  -8.227581e+01
   6.121498e+01  -6.675002e+00
   6.322985e+00   3.765472e+01
  -1.074003e+01   2.496285e+01
   3.969866e+01   1.887296e+01
   6.977040e+01   2.373384e+01
   3.569412e+01   3.052478e+01
  -5.919259e+01   3.901804e+01
  -1.447507e+02  -1.192693e+01
  -1.469415e+02  -4.273517e+01
  -9.893286e+00  -8.320601e+01
   1.155513e+02  -6.142212e+01
   1.359766e+02  -2.210116e+01
   4.783336e+01   3.992280e+01
  -4.896016e+01   3.831055e+01
  -7.279120e+01  -1.681163e+01
  -4.393164e+00  -5.828239e+01
   5.464579e+01  -5.347430e+01
   6.279908e+01   3.751302e+00
   3.632054e+01   4.690428e+01
   3.766084e+01   4.010242e+01
   5.815975e+01   5.308695e+00
   5.501734e+01   2.195356e+00
   3.735662e+01   6.173376e+01
  -3.692532e+01   1.425984e+02
  -1.148933e+02   1.224367e+02
  -1.600902e+02   2.713492e+01
  -1.122950e+02  -8.963312e+01
   1.121684e+00  -1.215725e+02
   9.206283e+01  -5.989063e+01
   6.060574e+01   1.633939e+01
  -5.696400e+01   2.185040e+01
  -1.144510e+02  -3.315385e+01
  -7.029665e+01  -1.134781e+02
   7.031237e+01  -9.562141e+01
   1.730149e+02  -4.912894e+01
   1.436593e+02   4.282224e+01
   2.968695e+01   8.790344e+01
  -6.319036e+01   7.305141e+01
  -4.688990e+01   6.731536e+00
   3.646251e+01  -2.846577e+01
   9.174426e+01   2.382345e+01
   1.707262e+01   1.235782e+02
  -9.784504e+01   1.680022e+02
  -1.367410e+02   4.794800e+01
  -1.335592e+02  -1.082160e+02
   6.390731e-01  -1.680903e+02
   9.713265e+01  -1.478564e+02
   1.021014e+02   6.399041e+00
   7.070689e+01   9.954164e+01
   3.663999e+00   9.733245e+01
  -3.778366e+01   1.735565e+01
  -4.641910e+01  -2.189703e+01
  -2.416618e+01  -7.289309e+00
  -2.799024e+00   2.064899e+01
  -1.985723e+01  -9.517036e+00
  -4.997892e+01  -7.655017e+01
  -3.040652e+01  -1.126536e+02
   3.749708e+01  -4.612627e+01
   1.493364e+02   2.760560e+01
   1.461028e+02   6.085426e+01
   2.033735e+01   4.902609e+01
  -8.596454e+01   1.641654e+01
  -8.016087e+01   8.521541e+00
  -8.274682e+00  -5.824892e+00
   4.253795e+01  -1.880564e+01
   1.075037e+01  -1.791468e+01
  -1.751136e+01  -1.085777e+00
   4.718854e+00   1.012747e+01
   7.057259e+01   4.995380e+00
   9.718466e+01   2.169716e+01
   8.456631e+00   7.843487e+01
  -1.363631e+02   8.448489e+01
  -1.527040e+02   6.709980e+01
  -1.190445e+02  -7.254603e+01
  -1.043488e+01  -1.871384e+02
   8.955827e+01  -1.169614e+02
   1.046461e+02  -5.422087e+01
   6.667572e+01   1.795004e+01
   2.369483e+01   3.567041e+01
  -1.405238e+00   5.114100e+00
   9.321974e+00   8.575176e-01
   2.542793e+01   4.464607e+01
   1.919835e+01   9.151641e+01
  -3.047628e+01   7.261473e+01
  -6.624625e+01  -2.272979e+01
  -7.122513e+01  -9.782182e+01
  -1.174131e+00  -1.018977e+02
   7.739663e+01  -1.100694e+01
   8.919173e+01   6.469208e+01
   2.738207e+01   9.881772e+01
  -6.100784e+01   4.878534e+01
  -8.405538e+01  -1.727932e+01
  -3.937838e+01  -4.917333e+01
   3.538632e+01  -5.216112e+01
   2.677621e+01  -2.100562e+01
  -2.860054e+01  -4.334253e+00
  -7.596193e+01   1.978199e+00
  -1.237237e+01  -2.053235e+01
   8.106087e+01  -4.859479e+01
   1.056888e+02  -4.851093e+01
   6.527737e+01   1.223065e+01
  -1.570568e+01   7.838097e+01
  -3.600393e+01   6.669874e+01
  -3.151296e+01   7.364403e+00
   5.861374e+00  -4.757297e+01
   2.567960e+01  -3.690700e+01
   3.616868e+01   2.379239e+01
   2.980674e+01   4.871919e+01
  -7.464297e+00   2.688646e+01
  -3.360239e+01  -1.231154e+01
  -3.566508e+01  -1.719602e+01
  -1.825183e+01   5.941584e-01
   2.590135e-01   1.441397e+01
   5.998607e+00  -3.198418e+00
   6.971053e+00  -3.411598e+01
   2.047465e+01  -3.747877e+01
   2.745692e+01  -3.113163e+00
   2.363640e+01   4.033996e+01
  -6.330537e+00   5.211524e+01
  -3.402833e+01   1.867371e+01
  -5.052752e+01  -3.876033e+01
  -1.008838e+01  -5.170976e+01
   4.616795e+01  -2.909692e+01
   7.745100e+01   1.100572e+01
   5.018451e+01   3.396538e+01
  -2.295255e+01   4.119809e+01
  -6.694495e+01   1.482958e+01
  -1.889143e+01   5.803889e+00
   3.325129e+01   6.323895e+00
   3.363265e+01   1.700600e+01
  -2.616921e+01   2.959700e+01
  -6.648896e+01   1.692471e+01
