
 $NMID
 id='ANONYMOUS ', fmtdat='(2E16.6)'
 volume=1.0
 tramp=1.0
 $END
   4.421770e+03  -7.846759e+02
   2.482168e+03   2.909168e+03
  -8.483864e+02   3.026872e+03
  -1.934063e+03   7.589334e+02
  -9.796826e+02  -5.251658e+02
   6.840547e+02  -4.061686e+02
   8.134903e+02   2.613424e+02
   2.265438e+02   1.202680e+03
  -8.856447e+02   9.042363e+02
  -9.642169e+02  -1.043404e+02
  -5.056455e+02  -8.362833e+02
   1.706996e+02  -9.638544e+02
   5.958939e+02  -6.725695e+01
   4.138584e+02   7.399148e+02
  -1.567166e+02   8.271343e+02
  -5.764703e+02   6.654511e+01
  -3.217797e+02  -6.350536e+02
   2.389383e+02  -6.820018e+02
   6.226762e+02  -1.042852e+02
   3.576470e+02   3.315537e+02
   4.569953e+01   4.212014e+02
  -2.069640e+02   2.728264e+02
  -2.167089e+02   2.091329e+01
   1.452092e+02  -6.095672e+01
   4.305443e+02   1.434159e+02
   1.254955e+02   4.800595e+02
  -4.414911e+02   3.554057e+02
  -8.330864e+02  -2.585282e+02
  -3.475430e+02  -6.154123e+02
   4.521088e+02  -5.847135e+02
   8.607488e+02   8.635253e+01
   2.580201e+02   4.906022e+02
  -2.013952e+02   5.383389e+02
  -6.141930e+02   2.331820e+02
  -4.534548e+02  -2.624274e+02
  -5.241145e+01  -4.575350e+02
   2.125206e+02  -3.098226e+02
   1.636138e+02   2.437478e+02
  -1.705220e+02   4.051248e+02
  -4.075848e+02  -2.224935e+01
  -2.767751e+02  -6.491542e+02
   2.619445e+02  -6.688111e+02
   6.507841e+02   3.266663e+01
   2.247503e+02   5.757135e+02
  -2.504351e+02   3.153119e+02
  -3.757754e+02  -3.845884e+02
   6.118553e+01  -5.447374e+02
   5.673930e+02  -1.533488e+02
   6.722872e+02   3.959338e+02
   1.781238e+02   5.799991e+02
  -3.359066e+02   3.866678e+02
  -5.689907e+02  -5.628010e+01
  -3.907525e+02  -3.936607e+02
   1.601455e+02  -4.148798e+02
   4.451754e+02  -8.613009e+01
   2.281635e+02   1.617107e+02
  -8.926143e+01   1.312502e+02
  -1.235559e+02  -1.543360e+02
   1.345679e+02  -2.016949e+02
   3.781059e+02   7.172834e+01
   1.357692e+02   2.743126e+02
  -1.890783e+02   2.587854e+02
  -3.392339e+02   7.272410e+01
  -2.365961e+02  -6.126606e+01
   2.124892e+01  -2.325810e+02
   1.903094e+02  -4.181459e+02
   3.498392e+02  -2.634180e+02
   3.073160e+02   1.785510e+02
   7.747074e+01   4.510573e+02
  -1.497319e+02   3.926596e+02
  -1.295464e+02   9.447647e+01
  -5.753658e+00   8.807483e+00
  -4.870498e+01   8.904077e+01
  -1.618472e+02   1.515252e+02
  -2.906995e+02  -7.252560e+01
  -1.973731e+02  -2.716345e+02
   1.027678e+02  -2.218690e+02
   2.436654e+02  -5.601102e+01
   1.898078e+02   2.560674e+02
   2.587553e+01   3.216221e+02
  -2.600946e+02   1.096026e+02
  -3.308952e+02  -1.971810e+02
  -1.544848e+02  -3.043462e+02
   5.440361e+01  -2.723062e+02
   2.126646e+02  -1.365773e+02
   1.482178e+02  -7.432724e+00
   1.088149e+02  -4.991655e+01
   2.443594e+02  -5.914582e+01
   4.452070e+02  -5.362846e+00
   3.518449e+02   2.703715e+02
  -3.669587e+01   4.108591e+02
  -2.947573e+02   4.377813e+02
  -4.820121e+02   2.738309e+02
  -3.087555e+02  -1.255600e+02
  -7.856008e+01  -2.984037e+02
   1.019392e+02  -3.009708e+02
   8.142563e+01  -3.917693e+01
  -1.085894e+02   1.279200e+02
  -1.880754e+02   3.592603e+00
  -7.991815e+01  -2.022327e+02
   1.252028e+02  -1.911995e+02
   1.904043e+02   8.591134e+01
  -1.978301e+01   1.932998e+02
  -2.120021e+02   6.335128e+01
  -1.992954e+02  -2.064341e+02
   2.083800e+01  -3.398588e+02
   2.203953e+02  -2.064158e+02
   3.256353e+02   6.141247e+01
   3.689020e+02   2.173696e+02
   5.732627e+01   2.706407e+02
  -1.026351e+02   1.811371e+02
  -2.030833e+02   2.945920e+01
  -6.138849e+01  -3.418319e+01
   7.870723e+01   2.080261e+01
   3.789473e+01   1.349475e+02
  -1.097261e+02   1.218162e+02
  -1.918949e+02   8.439670e+00
  -4.797334e+01  -7.325095e+01
   7.705372e+01  -2.475291e+01
   5.316805e+01   7.842102e+01
  -1.234087e+02   8.894147e+01
  -2.703630e+02   2.160835e+01
  -3.017052e+02  -1.255443e+02
  -4.538890e+01  -2.657499e+02
   1.890196e+02  -2.711165e+02
   3.042227e+02  -1.781659e+02
   1.439800e+02   3.041005e+01
  -3.420455e+01   1.082337e+02
  -9.252573e+01   6.266225e+00
   3.484133e+00  -1.016995e+02
   1.798399e+02  -6.230748e+01
   2.331341e+02   1.012019e+02
   1.081766e+02   2.089899e+02
  -1.077366e+02   1.918675e+02
  -1.523992e+02   5.280132e+01
  -7.352129e+01  -4.125730e+01
   3.091683e+01  -2.740550e+00
   4.049364e+01   7.356795e+01
  -5.132049e+01   1.098316e+02
  -1.914373e+02   4.470054e+01
  -2.376665e+02  -1.099801e+02
  -3.983951e+01  -2.166692e+02
   1.348465e+02  -1.700275e+02
   1.886562e+02  -2.460195e+01
   7.871092e+01   1.128599e+02
  -5.763422e+01   1.266621e+02
  -7.031769e+01   3.291308e+01
  -1.878722e+01  -2.643390e+01
   2.287430e+01  -2.143442e+01
  -6.497112e+00   9.821907e+00
  -6.783300e+01  -9.406432e+00
  -9.569726e+01  -6.978994e+01
  -3.079991e+01  -1.629319e+02
   1.163945e+02  -1.582432e+02
   2.342506e+02  -5.731866e+01
   2.036609e+02   1.624645e+02
   5.763514e+01   2.597508e+02
  -1.044745e+02   1.630786e+02
  -1.239745e+02   3.424011e+01
  -6.439046e+01  -5.323086e+01
  -2.854601e+01  -3.658434e+01
  -5.100070e+01   7.673601e+00
  -7.656609e+01   8.726110e+00
  -3.644968e+01  -4.231998e+01
   3.654085e+01  -8.146563e+01
   9.285645e+01  -5.741046e+01
   8.863005e+01   4.156998e+01
   8.064420e+00   1.110266e+02
  -1.429233e+02   9.949240e+01
  -2.171424e+02  -5.309990e+01
  -1.052818e+02  -2.195611e+02
   9.423657e+01  -2.245055e+02
   2.902665e+02  -8.933438e+01
   2.474665e+02   6.657894e+01
   1.083552e+02   1.783057e+02
  -3.264650e+01   1.583904e+02
  -8.820133e+01   1.021496e+02
  -7.410281e+01   7.772114e+01
  -5.936698e+01   9.674967e+01
  -9.277770e+01   8.736697e+01
  -1.239067e+02  -1.564461e+01
  -1.202626e+02  -1.354282e+02
  -6.541329e+01  -2.186728e+02
   9.291208e+01  -1.905787e+02
   1.945655e+02  -3.296743e+01
   1.506300e+02   1.096059e+02
   1.189942e+01   1.505479e+02
  -7.002498e+01   1.106643e+02
  -6.323805e+01   4.165182e+00
  -5.127980e+00  -4.168120e+01
   1.713117e+01  -3.440498e+01
  -3.642339e+01  -1.891013e+01
  -7.640015e+01  -1.732741e+01
  -4.769455e+01  -3.223164e+01
   5.519396e+01  -3.903410e+01
   1.440498e+02  -2.427829e+00
   1.319896e+02   4.903617e+01
   1.501983e+01   8.313001e+01
  -1.002092e+02   8.975700e+01
  -1.245304e+02   1.917481e+01
  -4.334632e+01  -4.288165e+01
   6.395309e+01  -3.924739e+01
   7.721682e+01   1.569362e+01
   6.999600e+00   6.795374e+01
  -5.339861e+01   5.848418e+01
  -6.592113e+01  -4.043490e+00
  -4.333174e+01  -5.105749e+01
  -4.879728e+01  -4.003336e+01
  -5.750653e+01   4.127162e+00
  -7.045088e+01  -1.859090e-01
  -3.487517e+01  -7.399971e+01
   4.217119e+01  -1.485660e+02
   9.851590e+01  -1.613627e+02
   1.480484e+02  -3.284476e+01
   1.233559e+02   7.906683e+01
  -2.669542e+00   1.251670e+02
  -7.147656e+01   6.610861e+01
  -5.236810e+01  -4.699922e+00
   6.482759e+01  -2.117713e+01
   1.332161e+02   4.249254e+01
   8.824720e+01   9.241293e+01
  -7.944568e+01   1.292710e+02
  -1.921158e+02   3.693586e+01
  -1.712373e+02  -1.772847e+01
  -4.226439e+01  -8.697858e+01
   5.766647e+01  -8.216636e+01
   5.231478e+01  -1.073447e+01
  -3.369400e+01   2.987312e+01
  -9.045911e+01  -2.133328e+01
  -4.005532e+01  -1.161063e+02
   8.539150e+01  -1.604980e+02
   1.641489e+02  -6.685155e+01
   1.186020e+02   9.911155e+01
  -3.373953e+00   2.021480e+02
  -8.852175e+01   1.679969e+02
  -1.053283e+02  -7.013315e-01
  -6.669505e+01  -1.208891e+02
   5.894394e+00  -1.056356e+02
   4.532243e+01  -2.443708e+01
   5.448370e+01   2.992430e+01
   2.639186e+01   8.878883e+00
   3.923646e+00  -1.958742e+01
   2.234005e+01   1.532269e+01
   5.161093e+01   9.306241e+01
   5.161319e+01   1.112095e+02
  -5.031149e+01   5.493824e+01
  -1.182877e+02  -3.440399e+01
  -1.273118e+02  -5.443084e+01
  -2.118521e+01  -4.498904e+01
   9.285874e+01  -3.346022e+01
   8.501862e+01  -2.876431e-01
   1.168272e+01   6.658798e+00
  -3.435378e+01   2.494411e+01
  -1.486377e+01   1.848496e+01
   2.333381e+01  -3.908766e+00
  -5.140031e+00  -7.706395e+00
  -8.054947e+01   2.331630e+00
  -8.502935e+01  -1.342697e+01
  -8.970533e+00  -8.707888e+01
   1.144670e+02  -1.271263e+02
   1.878140e+02  -8.016857e+01
   1.643079e+02   7.020641e+01
   2.873452e+01   1.644795e+02
  -7.960036e+01   1.894108e+02
  -9.888007e+01   5.750257e+01
  -8.320240e+01  -1.657146e+01
  -2.528411e+01  -3.341577e+01
   2.010994e+00  -7.342949e+00
  -1.098992e+01  -2.271585e+00
  -4.153293e+01  -4.522030e+01
  -2.491843e+01  -9.266940e+01
   1.924261e+01  -6.822545e+01
   7.280099e+01   1.790206e+01
   6.561332e+01   1.153809e+02
   5.416077e+00   9.933923e+01
  -7.942541e+01   2.617524e+01
  -1.016270e+02  -8.751710e+01
  -3.588042e+01  -9.610310e+01
   5.995403e+01  -6.399230e+01
   9.600837e+01   3.639862e-02
   3.716369e+01   3.824458e+01
  -2.753620e+01   4.706870e+01
  -3.009163e+01   3.503401e+01
   3.008232e+01  -5.275397e+00
   6.467326e+01  -1.091450e+01
   1.708362e+01   2.363322e+01
  -7.017918e+01   6.589347e+01
  -1.109697e+02   7.360694e+01
  -6.204207e+01  -1.419885e+01
   1.502970e+01  -8.783450e+01
   5.555350e+01  -7.815095e+01
   3.162307e+01  -7.152641e+00
   6.808073e+00   6.064445e+01
  -2.936015e+01   4.151664e+01
  -3.422156e+01  -1.329512e+01
  -2.707479e+01  -4.361655e+01
   5.317346e+00  -3.234963e+01
   3.480097e+01   3.787335e+00
   3.948587e+01   2.517276e+01
   2.187843e+01   1.257673e+00
  -2.226972e+00  -1.531561e+01
  -8.076578e+00   2.950714e+00
  -2.795871e+00   3.612486e+01
  -1.414122e+01   4.187048e+01
  -3.011258e+01   7.861971e+00
  -2.708437e+01  -3.858519e+01
   7.231970e+00  -6.041539e+01
   4.602465e+01  -1.940163e+01
   5.036560e+01   4.282068e+01
   1.711808e+01   5.666752e+01
  -5.323537e+01   4.531676e+01
  -9.023072e+01  -1.487131e+01
  -5.174537e+01  -4.414059e+01
   2.491832e+01  -4.386103e+01
   6.074992e+01  -2.319944e+01
   2.450581e+01  -6.464136e+00
  -3.346936e+01   2.317717e-01
  -3.531903e+01  -1.342370e+01
   2.769283e+01  -3.331688e+01
   8.723470e+01  -1.644448e+01
