
 $NMID
 id='ANONYMOUS ', fmtdat='(2E16.6)'
 volume=1.0
 tramp=1.0
 $END
   3.936349e+03   4.377368e+01
   2.565456e+03   1.826653e+03
  -3.987310e+02   2.410648e+03
  -1.939305e+03   3.782967e+02
  -6.631586e+02  -2.523263e+02
   2.416738e+02  -6.632797e+02
   5.531317e+02   2.608582e+02
  -1.048518e+02   8.493255e+02
  -5.809863e+02   6.194453e+02
  -7.103750e+02  -2.195800e+01
  -3.846862e+02  -6.016643e+02
   3.514661e+02  -7.575914e+02
   4.742424e+02  -8.657448e+01
   3.262005e+02   6.442425e+02
  -3.385026e+02   5.404792e+02
  -5.275152e+02  -6.517663e+01
  -1.325769e+02  -6.021240e+02
   2.391246e+02  -6.369372e+02
   5.442370e+02  -1.454337e+02
   4.672149e+02   3.064841e+02
   1.895860e+01   4.342855e+02
  -1.577565e+02   2.257680e+02
  -1.575597e+02   4.596502e+01
   1.468023e+02  -2.216619e+01
   3.263144e+02   1.855736e+02
   7.370983e+01   4.135858e+02
  -4.302149e+02   2.716160e+02
  -6.847147e+02  -1.312349e+02
  -3.990810e+02  -4.161417e+02
   3.095708e+02  -2.815289e+02
   6.276175e+02   7.573238e+01
   2.624056e+02   3.893891e+02
  -3.426842e+02   4.046361e+02
  -5.422453e+02   1.334650e+02
  -4.314574e+02  -1.629101e+02
  -4.699741e+01  -3.267366e+02
   1.065775e+02  -2.485077e+02
   6.794014e+01   2.210421e+02
  -2.161323e+02   3.293584e+02
  -4.315609e+02  -6.895581e+01
  -1.193970e+02  -6.317274e+02
   2.985698e+02  -4.858451e+02
   5.063723e+02   1.819137e+01
   1.450125e+02   4.675860e+02
  -1.466093e+02   2.875756e+02
  -3.193084e+02  -3.744310e+02
   1.330838e+02  -3.876711e+02
   5.541263e+02  -7.698062e+01
   4.659731e+02   4.330367e+02
   2.519059e+02   5.379703e+02
  -3.739093e+02   2.323161e+02
  -4.973040e+02  -1.834413e+02
  -3.426932e+02  -3.564175e+02
   8.833699e+01  -3.458313e+02
   3.941268e+02  -8.021060e+01
   2.085736e+02   1.186342e+02
  -9.956455e+01   4.597004e+01
  -1.162412e+02  -1.195741e+02
   1.315474e+02  -1.093563e+02
   3.005946e+02   4.223378e+01
   1.128599e+02   2.272006e+02
  -1.749542e+02   2.383053e+02
  -3.008511e+02   1.099426e+02
  -2.108596e+02  -9.669973e+01
   6.675567e+01  -2.389646e+02
   2.988056e+02  -3.318082e+02
   3.416657e+02  -2.197628e+02
   2.593106e+02   1.157905e+02
   7.192702e+01   3.642736e+02
  -1.614084e+01   3.421026e+02
  -3.682041e+01   1.460911e+02
  -5.280295e+01   6.836283e+01
  -8.582079e+01   9.764328e+01
  -2.196020e+02   8.088306e+01
  -2.430968e+02  -6.643783e+01
  -1.537814e+02  -2.923497e+02
   8.439695e+01  -1.849781e+02
   1.723705e+02   3.908988e+01
   1.076838e+02   2.376247e+02
  -4.830225e+01   3.061943e+02
  -2.813156e+02   6.498607e+01
  -3.311522e+02  -1.625911e+02
  -1.247371e+02  -3.183734e+02
   1.116780e+02  -2.583544e+02
   2.106235e+02  -7.854843e+01
   1.619229e+02  -2.747357e+00
   1.225561e+02  -3.255820e+01
   2.110535e+02  -4.884128e+01
   3.910884e+02   9.818527e+01
   2.940048e+02   3.829159e+02
   3.564294e+01   4.400139e+02
  -4.170265e+02   2.514962e+02
  -5.381046e+02   1.604683e+02
  -2.801191e+02  -9.367322e+01
  -2.874438e+01  -2.544334e+02
   1.091623e+02  -2.256996e+02
   5.475118e+01  -2.490255e+01
  -8.947704e+01   8.322852e+01
  -1.689897e+02  -5.048107e+01
  -8.715125e+00  -1.568497e+02
   1.665399e+02  -1.382690e+02
   1.468262e+02   6.528791e+01
  -4.090587e+01   1.500686e+02
  -1.606997e+02  -3.131255e+01
  -1.364650e+02  -2.500724e+02
   3.597340e+01  -3.360271e+02
   2.417901e+02  -1.887205e+02
   3.533697e+02   5.994887e+01
   2.264361e+02   2.953010e+02
   6.935240e+01   2.400188e+02
  -1.406450e+02   1.411629e+02
  -1.862114e+02   6.744534e+00
  -4.106399e+01  -2.487202e+01
   5.139584e+01   4.908917e+01
   7.062338e+00   1.132264e+02
  -1.336012e+02   6.287074e+01
  -1.592145e+02  -4.659968e+01
  -3.246381e+01  -6.687724e+01
   8.222788e+01   1.293697e+01
   5.101423e+01   7.564712e+01
  -1.633742e+02   7.702127e+01
  -3.143589e+02  -3.809881e+01
  -2.651435e+02  -1.679004e+02
  -2.317916e+01  -2.301893e+02
   1.945143e+02  -2.031046e+02
   2.977356e+02  -8.518226e+01
   1.666924e+02   5.579489e+01
  -1.952684e+01   8.441822e+01
  -5.129511e+01  -1.185526e+01
   6.175715e+01  -7.936645e+01
   1.977399e+02  -6.719748e+00
   2.131454e+02   1.267948e+02
   4.397956e+01   1.784848e+02
  -8.831312e+01   1.555477e+02
  -1.392274e+02   5.434132e+00
  -5.519427e+01  -2.981025e+01
   3.083510e+01   2.398465e+01
   1.892818e+01   9.055579e+01
  -7.116347e+01   9.722469e+01
  -1.966485e+02   3.377218e+01
  -2.070248e+02  -1.482050e+02
  -2.338303e+00  -2.292863e+02
   1.693287e+02  -1.206240e+02
   1.585514e+02  -9.322211e+00
   2.640340e+01   9.283830e+01
  -7.308416e+01   9.831362e+01
  -7.883955e+01   2.647401e+01
  -9.924046e+00  -2.689696e+01
   2.968988e+01  -1.339843e+01
  -9.454239e+00   1.624601e+01
  -7.611401e+01  -3.380363e+00
  -9.335780e+01  -8.126346e+01
  -4.810008e+00  -1.591265e+02
   1.339833e+02  -1.498248e+02
   2.408610e+02  -2.481064e+01
   2.010941e+02   1.560140e+02
   2.060750e+01   2.305319e+02
  -1.072079e+02   1.479781e+02
  -1.295720e+02   2.146938e+01
  -7.065096e+01  -5.550204e+01
  -3.553575e+01  -3.306124e+01
  -5.548139e+01   9.443843e+00
  -8.175401e+01  -5.424858e+00
  -3.820684e+01  -5.330856e+01
   4.434707e+01  -8.918128e+01
   1.218150e+02  -6.372123e+01
   8.599539e+01   3.839656e+01
  -3.121087e+01   1.168030e+02
  -1.345245e+02   7.394509e+01
  -1.908073e+02  -2.709875e+01
  -8.633516e+01  -2.056939e+02
   1.659746e+02  -2.435855e+02
   2.729486e+02  -7.959384e+01
   2.250361e+02   7.514592e+01
   1.056113e+02   1.565352e+02
  -4.464012e+01   1.331034e+02
  -9.076199e+01   7.949135e+01
  -8.120051e+01   3.876917e+01
  -7.058002e+01   8.088847e+01
  -1.000494e+02   5.874801e+01
  -1.308637e+02  -3.109495e+00
  -1.394178e+02  -1.637577e+02
  -1.498918e+01  -2.226002e+02
   1.063586e+02  -1.597098e+02
   1.689586e+02  -2.057887e+01
   9.692248e+01   1.385950e+02
   2.202047e+01   1.573697e+02
  -8.519147e+01   7.983152e+01
  -6.785088e+01  -2.503204e+00
  -4.213377e+00  -4.823067e+01
   1.767349e+01  -3.678790e+01
  -3.280460e+01  -1.557217e+01
  -7.429923e+01  -2.562859e+01
  -4.881570e+01  -3.670269e+01
   6.636753e+01  -2.590558e+01
   1.587275e+02   2.937156e+00
   1.384608e+02   5.449395e+01
   2.834538e+00   8.934031e+01
  -1.383092e+02   6.165131e+01
  -1.317542e+02   1.306119e+01
  -4.830132e+01  -3.828135e+01
   4.883613e+01  -4.209082e+01
   8.103183e+01   2.025901e+01
   1.539396e+01   6.396111e+01
  -5.420818e+01   5.849702e+01
  -6.752566e+01   4.186978e+00
  -4.340151e+01  -4.666854e+01
  -4.462665e+01  -4.555126e+01
  -6.199484e+01  -1.000804e+01
  -6.599957e+01  -2.871590e+00
  -3.770712e+01  -6.477420e+01
   2.501017e+01  -1.417763e+02
   1.245688e+02  -1.143646e+02
   1.831661e+02  -2.916155e+01
   1.043070e+02   1.019685e+02
  -6.801397e+00   1.343585e+02
  -8.990119e+01   5.739410e+01
  -5.668948e+01  -1.456059e+01
   5.606506e+01  -2.043648e+01
   1.274369e+02   4.443217e+01
   5.221753e+01   1.062036e+02
  -8.146199e+01   1.037922e+02
  -1.847177e+02   4.510034e+01
  -1.476706e+02  -4.100646e+01
  -2.059205e+01  -8.745696e+01
   8.000795e+01  -5.704013e+01
   4.639029e+01  -4.666730e+00
  -3.744618e+01   3.110349e+01
  -9.791708e+01  -2.607339e+01
  -1.911833e+01  -1.165513e+02
   1.044436e+02  -1.667715e+02
   1.546596e+02  -5.142978e+01
   1.355908e+02   1.077702e+02
   3.475174e+00   1.775013e+02
  -9.078363e+01   1.389620e+02
  -9.939908e+01  -9.331316e+00
  -5.322162e+01  -1.331284e+02
   9.951767e+00  -1.030501e+02
   4.334165e+01  -1.236999e+01
   4.341120e+01   3.683110e+01
   2.130175e+01   1.087969e+01
   6.331820e+00  -2.174205e+01
   2.490507e+01   1.622571e+01
   5.239971e+01   9.152591e+01
   2.697322e+01   1.180803e+02
  -5.019370e+01   4.068946e+01
  -1.408309e+02  -3.193540e+01
  -1.130243e+02  -7.762191e+01
  -1.407509e+01  -4.572196e+01
   7.888845e+01  -3.677074e+00
   8.205998e+01  -5.618708e+00
   1.312203e+01   9.398357e+00
  -3.738504e+01   1.783110e+01
  -1.895667e+01   1.541911e+01
   1.801042e+01   2.465134e+00
  -2.612438e+00  -7.004516e+00
  -7.349286e+01  -2.202303e+00
  -8.583785e+01  -3.246650e+01
  -7.016795e+00  -7.745874e+01
   1.034765e+02  -7.974242e+01
   2.002863e+02  -5.009770e+01
   1.303893e+02   7.425680e+01
   1.968333e+01   1.714127e+02
  -9.018002e+01   1.250925e+02
  -1.132301e+02   6.243972e+01
  -7.858603e+01  -2.566492e+01
  -2.560709e+01  -3.751816e+01
   1.625055e+00  -1.127460e+01
  -9.599196e+00  -5.609352e+00
  -2.726871e+01  -5.387271e+01
  -1.632676e+01  -8.660462e+01
   2.953234e+01  -6.293880e+01
   8.294487e+01   1.907242e+01
   7.642426e+01   1.067733e+02
  -4.685472e+00   1.113544e+02
  -6.947843e+01   1.476942e+01
  -1.084835e+02  -6.461949e+01
  -2.789979e+01  -1.101212e+02
   5.594731e+01  -5.667374e+01
   9.465300e+01   1.700306e+01
   3.458805e+01   5.666108e+01
  -3.856985e+01   4.921530e+01
  -3.418728e+01   2.095199e+01
   2.360741e+01   7.331301e-01
   6.886235e+01  -3.342327e-01
   1.304444e+01   2.421929e+01
  -7.399841e+01   5.473989e+01
  -1.160666e+02   4.829231e+01
  -6.856147e+01  -1.132122e+01
   1.992361e+01  -8.294973e+01
   5.519425e+01  -7.596879e+01
   4.024086e+01  -7.955231e+00
   2.461080e+00   5.177307e+01
  -2.486750e+01   3.885742e+01
  -3.218224e+01  -1.763772e+01
  -2.844634e+01  -5.155744e+01
   2.365957e+00  -3.223681e+01
   2.951245e+01   1.014688e+01
   3.856189e+01   1.582297e+01
   2.256091e+01   7.563597e-01
  -6.000473e-01  -1.532427e+01
  -9.154732e+00  -5.297431e+00
  -2.384229e+00   3.372342e+01
  -4.565219e+00   3.982454e+01
  -1.957677e+01   1.694591e+01
  -3.640710e+01  -4.724639e+01
   2.541311e+00  -6.405432e+01
   4.217028e+01  -2.809579e+01
   5.522723e+01   4.292900e+01
   9.576576e+00   6.076869e+01
  -4.867819e+01   2.339062e+01
  -8.901778e+01  -1.098069e+01
  -5.169588e+01  -3.875942e+01
   3.216169e+01  -3.865047e+01
   6.360514e+01  -2.394174e+01
   2.465174e+01  -5.547675e+00
  -3.108423e+01  -3.683836e+00
  -2.835818e+01  -1.354275e+01
   3.339829e+01  -2.726324e+01
   8.163259e+01  -1.455642e+01
