
 $NMID
 id='ANONYMOUS ', fmtdat='(2E16.6)'
 volume=1.0
 tramp=1.0
 $END
   2.415496e+03   8.985403e+01
   1.678857e+03   1.784991e+03
  -7.190933e+02   1.813148e+03
  -1.200031e+03   2.522893e+02
  -5.654217e+02  -3.223313e+02
   2.949386e+02  -3.537292e+02
   3.939525e+02   4.245978e+02
  -6.258977e+01   6.822043e+02
  -6.548050e+02   4.581138e+02
  -5.627562e+02  -1.649275e+02
  -1.482945e+02  -4.514581e+02
   2.464265e+02  -5.549504e+02
   3.122791e+02  -4.084433e+01
   2.087403e+02   4.905240e+02
  -1.703785e+02   3.522891e+02
  -3.573927e+02  -8.243388e+01
  -6.821762e+01  -4.686934e+02
   2.852694e+02  -2.968148e+02
   2.734830e+02  -4.491080e+01
   2.592985e+02   2.118717e+02
  -4.722856e+01   3.220091e+02
  -1.252430e+02   1.172857e+02
  -1.447094e+02   1.196220e+01
   6.892078e+01  -5.507115e+01
   2.404358e+02   1.502215e+02
   6.061320e+01   2.611359e+02
  -2.540682e+02   3.094129e+02
  -3.631088e+02  -9.204403e+01
  -2.489264e+02  -2.845461e+02
   2.117005e+02  -1.741487e+02
   5.031174e+02   1.012492e+02
   1.939783e+02   2.931257e+02
  -1.912857e+02   2.835762e+02
  -3.454787e+02   6.881940e+01
  -2.193328e+02  -1.521107e+02
  -1.589913e+01  -2.666766e+02
   1.620129e+02  -1.535740e+02
   1.740913e+00   1.459875e+02
  -1.662656e+02   2.747236e+02
  -2.973577e+02  -9.081072e+01
  -2.306936e+02  -4.313443e+02
   2.856646e+02  -5.034874e+02
   2.765326e+02   5.683464e+01
   2.648698e+01   3.132236e+02
  -1.419155e+02   1.867935e+02
  -2.699995e+02  -2.001891e+02
   2.335495e+01  -2.788645e+02
   3.443597e+02  -3.575420e+01
   3.195965e+02   2.898351e+02
   1.978616e+01   3.640296e+02
  -3.423263e+02   1.832293e+02
  -2.870459e+02  -7.991462e+01
  -2.008239e+02  -2.270994e+02
   1.342089e+02  -2.314465e+02
   2.263865e+02   1.361652e-01
   1.381288e+02   8.155869e+01
  -7.566586e+01   6.269518e+01
  -7.460616e+01  -1.323507e+02
   1.433432e+02  -1.154085e+02
   2.138138e+02   1.073466e+02
   6.549352e+01   2.036742e+02
  -1.294235e+02   1.293247e+02
  -1.962446e+02   4.327670e+01
  -1.038961e+02  -4.684485e+01
   1.225437e+01  -1.463980e+02
   1.571333e+02  -1.822756e+02
   1.625548e+02  -9.602523e+01
   1.642972e+02   8.495714e+01
   2.564820e+00   2.712480e+02
  -5.212136e+01   2.584217e+02
  -6.965919e+01   6.712181e+01
  -2.810748e+00   6.461556e+00
  -3.047397e+01   5.652891e+01
  -1.397782e+02   5.322047e+01
  -1.454127e+02  -6.266353e+01
  -5.801065e+01  -1.426280e+02
   2.481044e+01  -1.633838e+02
   1.624677e+02   1.163449e+01
   1.149413e+02   1.594742e+02
  -5.496671e+01   1.621758e+02
  -1.609511e+02   5.125743e+01
  -2.570951e+02  -9.767632e+01
  -8.416388e+01  -1.854300e+02
   1.039736e+02  -1.871256e+02
   1.594150e+02  -4.509255e+01
   8.939904e+01   8.469515e+00
   4.906248e+01  -5.525145e+00
   1.406768e+02  -1.896763e+01
   2.729510e+02   6.467013e+01
   1.919885e+02   2.065103e+02
  -9.167740e+00   2.707451e+02
  -2.341769e+02   2.441879e+02
  -2.827783e+02   7.616722e+01
  -1.851199e+02  -8.254994e+01
  -3.124585e+01  -1.783917e+02
   8.344151e+01  -1.563913e+02
   4.704103e+01  -8.220383e+00
  -6.721408e+01   5.438835e+01
  -1.266594e+02  -3.589640e+01
   9.617567e+00  -1.058289e+02
   1.183168e+02  -1.018133e+02
   1.219880e+02   4.228657e+01
  -3.404938e+01   1.209217e+02
  -1.485525e+02   5.930854e+00
  -9.289565e+01  -1.540510e+02
   5.144571e+01  -2.381586e+02
   1.628182e+02  -1.032530e+02
   1.668668e+02   5.018504e+01
   1.381463e+02   1.471717e+02
   3.348822e+01   1.473360e+02
  -6.244662e+01   9.018975e+01
  -9.436779e+01  -1.180902e+00
  -3.162226e+01  -2.898846e+01
   6.243546e+01   2.961055e+01
   1.671726e+01   7.297525e+01
  -8.213564e+01   5.932855e+01
  -1.038351e+02  -2.439227e+01
  -2.915787e+01  -4.714842e+01
   6.148086e+01  -7.644923e+00
   3.036202e+01   5.992598e+01
  -8.911313e+01   4.774008e+01
  -1.737932e+02  -1.851865e+01
  -1.386571e+02  -8.372743e+01
  -5.979138e+01  -1.248583e+02
   1.007201e+02  -1.607302e+02
   1.726639e+02  -6.405649e+01
   8.661695e+01   1.698983e+01
  -1.311466e+01   6.161782e+01
  -6.350548e+01   2.678713e+00
   2.813852e+01  -7.449489e+01
   1.174168e+02  -3.155665e+01
   1.308619e+02   7.823264e+01
   5.846743e+00   1.451936e+02
  -4.512863e+01   7.566089e+01
  -7.487006e+01   1.977286e+01
  -3.845123e+01  -3.514237e+01
   1.546632e+01  -7.955861e+00
   1.443473e+01   5.245125e+01
  -4.510114e+01   6.697304e+01
  -1.252062e+02   1.825221e+01
  -1.037106e+02  -5.761885e+01
   1.484283e+00  -1.221955e+02
   1.357842e+02  -8.148971e+01
   1.254226e+02   5.688264e+00
   2.834893e+01   6.940676e+01
  -4.790565e+01   5.591705e+01
  -5.142797e+01   8.396563e+00
  -6.685343e+00  -1.849981e+01
   1.910864e+01  -1.375455e+01
  -5.892497e+00  -3.515055e+00
  -5.093537e+01  -9.564794e+00
  -5.018397e+01  -4.994140e+01
   1.862997e+00  -7.505017e+01
   6.912415e+01  -6.652752e+01
   1.432148e+02  -9.942887e+00
   1.052105e+02   9.774708e+01
   3.308860e+01   1.717702e+02
  -9.202906e+01   1.201331e+02
  -9.532146e+01   5.075573e+00
  -3.975481e+01  -4.181997e+01
  -1.493094e+01  -1.890265e+01
  -4.250913e+01   4.323023e+00
  -4.081160e+01   1.158677e+01
  -2.124858e+01  -2.740975e+01
   3.768850e+01  -4.658134e+01
   7.303994e+01  -2.980149e+01
   4.916124e+01   2.338056e+01
  -5.035702e+00   5.887494e+01
  -7.585056e+01   3.780620e+01
  -1.105744e+02  -2.640443e+01
  -6.231025e+01  -1.210747e+02
   8.494684e+01  -1.400992e+02
   1.640970e+02  -4.666103e+01
   1.182235e+02   5.879971e+01
   5.436617e+01   1.204406e+02
  -2.719323e+01   7.070329e+01
  -4.154594e+01   5.407054e+01
  -5.036256e+01   3.545198e+01
  -4.863046e+01   5.039491e+01
  -4.467768e+01   3.444770e+01
  -6.893399e+01  -7.393664e+00
  -7.273822e+01  -9.798300e+01
  -4.062405e+00  -1.472324e+02
   6.748459e+01  -1.002109e+02
   9.287500e+01  -7.173021e+00
   7.657655e+01   8.384009e+01
  -1.098436e+00   9.589961e+01
  -3.014504e+01   4.027024e+01
  -3.966287e+01  -7.698840e-01
  -3.595188e+00  -2.007822e+01
   6.788256e+00  -1.736050e+01
  -2.184166e+01  -1.812915e+01
  -4.432333e+01  -2.127854e+01
  -2.422009e+01  -2.684138e+01
   4.291659e+01  -2.425773e+01
   9.443875e+01   2.144446e+00
   9.455712e+01   4.046799e+01
   1.070340e+01   5.188502e+01
  -6.300178e+01   2.125790e+01
  -8.796212e+01   4.487878e+00
  -2.849960e+01  -2.716622e+01
   3.956561e+01  -2.063038e+01
   4.146795e+01   1.657744e+01
  -7.416637e+00   3.453949e+01
  -3.999079e+01   3.149433e+01
  -3.297205e+01  -6.505777e+00
  -1.231794e+01  -3.522892e+01
  -1.999906e+01  -2.642500e+01
  -3.114002e+01  -3.790774e+00
  -3.171874e+01   1.778702e+00
  -1.433524e+01  -4.604332e+01
   1.988942e+01  -7.580699e+01
   5.937415e+01  -6.349597e+01
   9.960656e+01  -2.777956e+01
   7.073311e+01   5.590998e+01
  -5.943143e-01   6.881009e+01
  -5.549868e+01   2.614732e+01
  -3.735980e+01  -1.445860e+01
   4.059107e+01  -5.628786e+00
   6.577974e+01   2.287193e+01
   3.775544e+01   7.041835e+01
  -4.102813e+01   5.074337e+01
  -1.117855e+02   2.244333e+01
  -8.483523e+01  -2.684431e+01
  -1.166942e+01  -5.927496e+01
   4.669251e+01  -3.802005e+01
   3.184945e+01   4.738391e-02
  -2.583747e+01   1.685183e+01
  -4.942612e+01  -2.114765e+01
  -1.231550e+01  -7.947342e+01
   5.631871e+01  -9.007573e+01
   9.366116e+01  -2.779192e+01
   7.738068e+01   7.970933e+01
  -1.791138e+01   1.090227e+02
  -7.409532e+01   7.462447e+01
  -6.023934e+01  -1.766692e+00
  -4.276863e+01  -8.220037e+01
   1.910969e+00  -5.262750e+01
   2.437714e+01  -5.068885e+00
   2.895291e+01   1.777608e+01
   1.461861e+01   5.993642e+00
   4.092949e+00  -1.179686e+01
   1.265536e+01   8.730028e+00
   2.638249e+01   5.350248e+01
   2.379126e+00   8.284341e+01
  -3.258168e+01   1.888412e+01
  -8.400876e+01  -1.923111e+01
  -8.887986e+01  -6.092764e+01
  -8.209296e+00  -2.745239e+01
   5.411240e+01  -1.185623e+01
   5.088882e+01   2.415668e+00
   6.571762e+00   3.544309e+00
  -2.500402e+01   1.002801e+01
  -9.509519e+00   1.040965e+01
   8.601187e+00   3.202661e+00
  -3.234549e+00  -6.425995e+00
  -4.910834e+01  -1.326535e+00
  -5.996625e+01  -9.305111e+00
  -6.344626e+00  -3.893573e+01
   7.410230e+01  -5.273992e+01
   9.636146e+01  -1.723188e+01
   7.257175e+01   3.042618e+01
  -9.521159e+00   1.074217e+02
  -5.276188e+01   8.343871e+01
  -8.438979e+01   2.432721e+01
  -4.217082e+01  -1.329351e+01
  -1.576946e+01  -2.240715e+01
   7.284785e-03  -5.947816e+00
  -5.667362e+00  -2.643034e+00
  -1.494298e+01  -2.901613e+01
  -3.080741e+00  -5.185300e+01
   1.733159e+01  -4.049381e+01
   3.750525e+01   1.428358e+01
   3.740966e+01   5.967973e+01
   3.427983e-01   5.901683e+01
  -4.646974e+01   1.866342e+01
  -4.890283e+01  -5.071689e+01
  -1.974121e+01  -6.168080e+01
   4.677477e+01  -2.383077e+01
   4.481476e+01   1.273137e+01
   2.485021e+01   3.324688e+01
  -2.338437e+01   2.712136e+01
  -1.540346e+01   1.007258e+01
   1.764474e+01   9.724621e-01
   4.701830e+01   3.253707e+00
   7.416564e+00   1.393299e+01
  -4.831354e+01   2.760785e+01
  -8.131384e+01   2.900686e+01
  -3.792232e+01  -1.277868e+01
   7.882633e+00  -4.101080e+01
   3.534501e+01  -3.761874e+01
   2.183077e+01  -1.906234e-01
  -1.004347e+01   2.754409e+01
  -2.094730e+01   1.786600e+01
  -1.785920e+01  -1.495426e+01
  -1.153739e+01  -3.129974e+01
   4.470674e+00  -1.839486e+01
   2.313000e+01   7.379859e+00
   1.921501e+01   1.523388e+01
   1.100832e+01   1.428132e+00
   8.280406e-01  -7.611044e+00
  -4.672971e+00   1.405588e+00
  -8.190824e+00   2.129807e+01
  -1.433196e+01   2.190069e+01
  -1.873156e+01   4.189062e+00
  -2.123523e+01  -2.295252e+01
   1.137035e+00  -2.898814e+01
   2.741927e+01  -9.169829e+00
   3.378835e+01   2.271653e+01
   3.499447e+00   3.802230e+01
  -3.350720e+01   9.144881e+00
  -4.950261e+01  -3.813356e+00
  -2.456827e+01  -2.296223e+01
   1.853458e+01  -2.407612e+01
   4.532879e+01  -3.994578e+00
   1.330359e+01  -1.962774e+00
  -1.708426e+01  -2.258650e-01
  -1.938313e+01  -1.087790e+01
   2.033997e+01  -2.140160e+01
   4.983751e+01  -1.411600e+01
