
 $NMID
 id='ANONYMOUS ', fmtdat='(2E16.6)'
 volume=1.0
 tramp=1.0
 $END
   4.420684e+03   2.871114e+02
   2.826498e+03   2.683038e+03
  -7.630966e+02   2.902793e+03
  -2.005747e+03   5.901761e+02
  -9.207404e+02  -7.920720e+02
   7.036593e+02  -5.820532e+02
   9.381002e+02   4.737709e+02
  -5.114463e+01   1.185742e+03
  -9.217851e+02   8.975860e+02
  -9.778115e+02  -1.553980e+02
  -4.353148e+02  -9.812755e+02
   3.936660e+02  -8.542485e+02
   5.966038e+02  -8.956196e+01
   3.516953e+02   6.947867e+02
  -3.349385e+02   8.470510e+02
  -6.148353e+02  -3.723284e+01
  -2.142054e+02  -6.918251e+02
   3.954707e+02  -6.603705e+02
   6.489182e+02  -6.281104e+01
   4.257992e+02   3.635397e+02
  -4.071627e+01   4.812398e+02
  -2.475861e+02   2.426384e+02
  -2.301408e+02   4.466144e+01
   1.463475e+02  -1.089988e+02
   4.419304e+02   3.795536e+01
   2.249591e+02   3.656627e+02
  -5.151624e+02   4.158247e+02
  -8.261001e+02  -1.175688e+02
  -5.100714e+02  -5.042205e+02
   4.577274e+02  -5.562335e+02
   8.171494e+02  -5.655954e+00
   3.727494e+02   4.900131e+02
  -3.364618e+02   5.124758e+02
  -6.318788e+02   1.817566e+02
  -4.595129e+02  -2.324657e+02
  -2.424651e+01  -4.491118e+02
   1.709821e+02  -3.037137e+02
   1.378949e+02   1.986453e+02
  -1.042007e+02   4.119101e+02
  -4.462353e+02   2.434612e+01
  -2.231834e+02  -7.161417e+02
   3.541474e+02  -6.714579e+02
   6.071644e+02  -3.130949e+01
   2.831057e+02   5.768475e+02
  -2.888714e+02   3.595534e+02
  -3.918140e+02  -4.244559e+02
   7.144085e+01  -5.381377e+02
   6.010033e+02  -5.003605e+01
   5.546919e+02   4.143875e+02
   1.176544e+02   6.180927e+02
  -4.525646e+02   2.735424e+02
  -5.656518e+02  -9.222750e+01
  -3.659684e+02  -4.424646e+02
   2.144435e+02  -3.135038e+02
   4.817327e+02  -3.172412e+01
   2.771349e+02   2.116626e+02
  -1.864304e+02   1.262570e+02
  -1.774643e+02  -1.694832e+02
   1.583066e+02  -2.164323e+02
   3.655890e+02   8.430895e+01
   1.296368e+02   2.964227e+02
  -2.258927e+02   2.290312e+02
  -3.241484e+02   5.769036e+01
  -1.693415e+02  -7.297316e+01
   8.289475e+01  -2.125509e+02
   2.328512e+02  -3.208677e+02
   2.990902e+02  -2.459287e+02
   3.031126e+02   1.025138e+02
   5.598079e+01   4.571550e+02
  -1.205668e+02   4.103366e+02
  -1.457809e+02   1.153009e+02
  -5.597800e+01  -1.814957e+01
  -4.307838e+01   1.010415e+02
  -1.508711e+02   1.329223e+02
  -2.508965e+02  -2.861902e+01
  -1.704220e+02  -2.541609e+02
   6.106800e+01  -2.715559e+02
   2.199740e+02  -7.105741e-01
   1.957304e+02   2.475837e+02
  -3.414025e+01   2.642577e+02
  -2.517001e+02   1.067974e+02
  -3.680142e+02  -1.671843e+02
  -1.682173e+02  -3.851514e+02
   1.351308e+02  -2.758936e+02
   2.299689e+02  -7.189959e+01
   1.616900e+02   2.740610e-02
   8.688395e+01  -1.356714e+01
   2.316326e+02  -7.429313e+01
   3.623641e+02   9.347040e+01
   3.031179e+02   2.806622e+02
   3.279674e+01   4.749724e+02
  -4.080365e+02   3.447122e+02
  -4.726125e+02   1.617779e+02
  -3.124064e+02  -1.155157e+02
  -6.016925e+01  -2.775172e+02
   1.321388e+02  -2.654392e+02
   9.075755e+01  -1.151001e+01
  -1.072419e+02   1.114867e+02
  -2.007014e+02  -4.858545e+01
  -6.017682e+01  -1.806963e+02
   2.008324e+02  -1.629646e+02
   2.227669e+02   6.814626e+01
  -3.370296e+01   2.006264e+02
  -1.991030e+02   3.331034e+01
  -1.580814e+02  -2.265247e+02
   3.602594e+01  -3.540748e+02
   2.365770e+02  -1.819371e+02
   3.525991e+02   6.766452e+01
   2.636774e+02   2.470944e+02
   1.198847e+02   2.520289e+02
  -1.197503e+02   1.788969e+02
  -1.975914e+02   1.258975e+01
  -6.005380e+01  -2.433248e+01
   7.011135e+01   4.301393e+01
   3.799960e+01   1.289188e+02
  -1.192277e+02   9.709570e+01
  -1.676073e+02  -2.790305e+01
  -6.496032e+01  -7.306532e+01
   9.179308e+01   3.607283e-01
   5.321897e+01   7.642359e+01
  -1.126450e+02   6.678836e+01
  -2.760665e+02  -3.476662e+01
  -2.622358e+02  -1.656495e+02
  -9.910702e+01  -2.413451e+02
   1.666123e+02  -2.784377e+02
   2.945013e+02  -1.110202e+02
   1.741882e+02   5.842576e+01
  -1.783572e+01   1.068857e+02
  -8.150757e+01   4.430623e+00
   3.362774e+01  -9.222761e+01
   1.972245e+02  -6.489536e+01
   2.526849e+02   8.388983e+01
   6.855489e+01   2.133271e+02
  -1.014008e+02   1.693145e+02
  -1.485872e+02   2.485153e+01
  -8.493396e+01  -3.740356e+01
   2.030109e+01  -1.446916e+01
   3.970702e+01   7.823390e+01
  -6.270894e+01   1.010853e+02
  -2.125254e+02   3.161290e+01
  -1.831237e+02  -1.134384e+02
  -4.143591e+00  -2.283878e+02
   1.607516e+02  -1.521283e+02
   1.916263e+02  -6.227318e+00
   6.208348e+01   1.208931e+02
  -7.210281e+01   1.114188e+02
  -8.239400e+01   2.041492e+01
  -1.988831e+01  -2.455421e+01
   1.894776e+01  -1.556935e+01
  -9.087150e+00  -7.695308e-01
  -6.616908e+01  -6.666716e+00
  -6.718350e+01  -7.451856e+01
  -2.478791e+01  -1.448045e+02
   1.220774e+02  -1.463657e+02
   2.068014e+02  -1.803036e+01
   2.371387e+02   1.306963e+02
   1.758347e+01   2.418688e+02
  -1.212710e+02   1.475735e+02
  -1.443555e+02   2.089528e+01
  -6.906574e+01  -4.731069e+01
  -3.221294e+01  -3.289996e+01
  -4.992875e+01   7.561157e+00
  -7.910034e+01   1.532226e+00
  -4.790226e+01  -5.250268e+01
   4.320050e+01  -8.005802e+01
   1.081361e+02  -4.885159e+01
   7.345144e+01   3.982649e+01
  -1.433594e+01   9.129062e+01
  -1.142765e+02   7.252732e+01
  -1.965551e+02  -6.019829e+01
  -1.176645e+02  -1.877959e+02
   1.072093e+02  -2.280574e+02
   2.823684e+02  -1.047828e+02
   2.732759e+02   8.971283e+01
   1.202957e+02   1.780029e+02
  -3.064038e+01   1.567383e+02
  -1.000594e+02   8.463925e+01
  -8.970857e+01   6.035262e+01
  -6.734797e+01   9.075227e+01
  -8.234519e+01   6.921589e+01
  -1.433110e+02  -2.243857e+01
  -1.087655e+02  -1.719256e+02
  -7.012237e+00  -2.323971e+02
   1.083352e+02  -1.741696e+02
   1.800466e+02  -1.248481e+01
   1.342029e+02   1.180388e+02
   2.353654e+01   1.729613e+02
  -6.033228e+01   1.020329e+02
  -6.705206e+01   1.741524e+00
  -6.998994e+00  -4.359860e+01
   2.451137e+00  -3.173747e+01
  -3.541314e+01  -1.913798e+01
  -8.159013e+01  -2.595050e+01
  -4.216433e+01  -4.131467e+01
   6.493789e+01  -2.871561e+01
   1.628065e+02   4.420050e+00
   1.420442e+02   6.166021e+01
   1.891761e+01   8.890900e+01
  -1.213170e+02   7.129129e+01
  -1.336388e+02   6.375367e+00
  -5.105372e+01  -3.583322e+01
   5.777717e+01  -3.876672e+01
   7.727799e+01   2.309436e+01
   1.154292e+01   6.661087e+01
  -5.982894e+01   4.483687e+01
  -6.221412e+01   6.165782e+00
  -3.938958e+01  -4.543182e+01
  -4.203581e+01  -3.319204e+01
  -6.259844e+01  -5.971768e-01
  -6.388411e+01   8.328756e-01
  -2.772666e+01  -6.638205e+01
   2.911200e+01  -1.375278e+02
   1.239570e+02  -1.514992e+02
   1.709481e+02  -2.780218e+01
   9.821360e+01   8.458474e+01
   1.669369e+01   1.336843e+02
  -8.059129e+01   6.123823e+01
  -6.347336e+01  -1.611621e+01
   5.461859e+01  -1.902374e+01
   1.339374e+02   4.619713e+01
   6.963727e+01   9.914051e+01
  -7.450220e+01   1.230026e+02
  -1.935534e+02   5.456652e+01
  -1.616371e+02  -4.373983e+01
  -4.107503e+01  -8.112358e+01
   6.024494e+01  -6.772996e+01
   4.332171e+01  -1.140480e+01
  -3.976928e+01   2.667273e+01
  -8.537844e+01  -2.452994e+01
  -1.627712e+01  -1.072575e+02
   9.870585e+01  -1.541612e+02
   1.808031e+02  -6.284342e+01
   1.317518e+02   9.038964e+01
   2.495941e+01   1.783869e+02
  -8.002228e+01   1.514934e+02
  -1.040861e+02   1.268171e+00
  -6.036585e+01  -1.190525e+02
  -4.310566e+00  -1.056952e+02
   4.095572e+01  -1.877286e+01
   5.419057e+01   3.795396e+01
   2.895926e+01   1.301118e+01
   4.665252e+00  -2.037069e+01
   2.629548e+01   1.406403e+01
   5.732033e+01   8.620286e+01
   4.234408e+01   1.082054e+02
  -4.706879e+01   3.946140e+01
  -1.379244e+02  -4.172438e+01
  -1.382918e+02  -8.220527e+01
  -1.753899e+01  -4.513932e+01
   8.250598e+01  -1.852806e+01
   8.335252e+01  -7.716100e+00
   9.238685e+00   5.416432e+00
  -3.867873e+01   1.915591e+01
  -1.429636e+01   1.984947e+01
   2.109900e+01  -8.466700e-01
  -4.994829e+00  -9.133393e+00
  -7.784324e+01  -8.936314e+00
  -8.307138e+01  -2.995514e+01
  -2.682026e-01  -8.367172e+01
   1.149164e+02  -9.456260e+01
   1.890619e+02  -4.380675e+01
   1.341504e+02   7.786773e+01
   1.741734e+01   1.460217e+02
  -8.941897e+01   1.383259e+02
  -1.198273e+02   4.356552e+01
  -7.695930e+01  -1.754655e+01
  -2.132756e+01  -3.971220e+01
   3.892822e+00  -9.559236e+00
  -9.452948e+00  -1.050496e+00
  -3.106087e+01  -4.184778e+01
  -2.357493e+01  -8.624970e+01
   3.289659e+01  -6.680903e+01
   7.440981e+01   1.891567e+01
   8.286312e+01   9.901364e+01
   7.305801e+00   1.046537e+02
  -8.254281e+01   1.711982e+01
  -1.031084e+02  -8.205282e+01
  -1.782041e+01  -1.006946e+02
   5.556182e+01  -5.623416e+01
   9.693418e+01   1.289288e+01
   3.347832e+01   5.806024e+01
  -2.930613e+01   5.102609e+01
  -2.972332e+01   2.892878e+01
   3.143780e+01   2.844237e+00
   6.462831e+01   3.062976e+00
   1.332492e+01   2.066284e+01
  -8.103816e+01   5.780610e+01
  -1.189781e+02   5.308218e+01
  -5.484319e+01  -1.472470e+01
   1.660737e+01  -8.520540e+01
   5.216973e+01  -8.841339e+01
   3.398128e+01  -4.297700e+00
   4.295667e-01   5.704153e+01
  -2.630720e+01   4.026416e+01
  -3.128209e+01  -2.622733e+01
  -2.208940e+01  -5.753350e+01
   2.045063e-01  -3.260190e+01
   2.629421e+01   1.332584e+01
   3.899979e+01   2.055600e+01
   2.198343e+01   4.096127e-01
  -7.195586e-01  -1.323643e+01
  -6.783800e+00   3.597501e+00
  -1.107722e+01   3.495827e+01
  -1.411991e+01   4.490965e+01
  -2.985886e+01   8.146598e+00
  -3.276215e+01  -4.703513e+01
   5.309730e+00  -5.753433e+01
   4.618152e+01  -1.764058e+01
   5.776851e+01   4.505499e+01
   9.462672e+00   6.585081e+01
  -4.742937e+01   2.812391e+01
  -8.253771e+01  -1.696944e+01
  -4.572047e+01  -4.173574e+01
   2.801455e+01  -3.593424e+01
   6.526837e+01  -1.119015e+01
   1.991860e+01  -2.442050e+00
  -3.344159e+01  -5.115745e+00
  -3.375039e+01  -1.806338e+01
   3.415710e+01  -2.746685e+01
   9.993630e+01  -1.698640e+01
