
 $NMID
 id='ANONYMOUS ', fmtdat='(2E16.6)'
 volume=1.0
 tramp=1.0
 $END
  -4.601734e+03  -3.438068e+02
  -2.764207e+03  -2.627129e+03
   8.268175e+02  -3.179378e+03
   2.016529e+03  -9.540382e+02
   9.528666e+02   7.104152e+02
  -6.462226e+02   5.673516e+02
  -9.354950e+02  -4.856540e+02
   2.819805e+01  -1.299082e+03
   9.534663e+02  -8.157502e+02
   8.843000e+02  -5.733996e+01
   5.238863e+02   1.006277e+03
  -3.373101e+02   9.804292e+02
  -6.424678e+02   1.897424e+02
  -3.881148e+02  -7.220065e+02
   3.230210e+02  -7.621578e+02
   5.920749e+02   1.388153e+02
   2.814819e+02   7.224265e+02
  -3.918119e+02   6.913807e+02
  -6.596684e+02   6.774689e+01
  -3.843926e+02  -3.440331e+02
   3.798291e+01  -4.607952e+02
   2.825997e+02  -2.723821e+02
   2.557868e+02  -3.845536e+01
  -1.341527e+02   9.202912e+01
  -4.826247e+02  -6.584285e+01
  -2.243481e+02  -4.000978e+02
   3.961015e+02  -4.411808e+02
   9.333995e+02   7.985063e+01
   5.776819e+02   5.280112e+02
  -4.744393e+02   5.170009e+02
  -8.692524e+02   6.657596e+01
  -4.095174e+02  -4.981273e+02
   3.745500e+02  -4.666646e+02
   5.941346e+02  -1.357272e+02
   4.583470e+02   2.288059e+02
   8.696200e+01   5.205381e+02
  -1.948594e+02   3.457045e+02
  -2.042599e+02  -1.699322e+02
   6.707804e+01  -4.702404e+02
   5.076185e+02  -1.654298e+01
   2.629163e+02   7.919579e+02
  -2.807860e+02   5.584832e+02
  -6.666200e+02   2.155261e+01
  -3.710104e+02  -6.551099e+02
   3.112355e+02  -3.514706e+02
   3.816941e+02   3.172108e+02
  -6.850306e+01   6.083529e+02
  -5.942370e+02   7.420301e+01
  -6.293236e+02  -4.232473e+02
  -1.347927e+02  -6.434208e+02
   4.175823e+02  -3.438920e+02
   6.475162e+02   6.347909e+01
   3.852035e+02   3.787713e+02
  -1.684632e+02   3.105820e+02
  -5.321680e+02   4.308896e+01
  -3.094032e+02  -2.208202e+02
   1.559850e+02  -1.349589e+02
   2.057524e+02   1.843225e+02
  -1.466476e+02   2.384804e+02
  -3.638370e+02  -2.623924e+01
  -1.261463e+02  -2.989136e+02
   2.579598e+02  -2.844955e+02
   3.458827e+02  -5.490663e+01
   1.815933e+02   7.014402e+01
  -7.653170e+01   2.172632e+02
  -2.440292e+02   2.804818e+02
  -3.509654e+02   2.922963e+02
  -3.073784e+02  -1.258907e+02
  -5.930973e+01  -4.522008e+02
   1.092362e+02  -4.048458e+02
   1.495188e+02  -1.494225e+02
   3.773099e+01   1.764378e+01
   7.139618e+01  -8.846387e+01
   1.564267e+02  -1.682631e+02
   2.930719e+02   2.559915e+01
   2.015806e+02   2.792693e+02
  -4.551931e+01   2.633112e+02
  -2.353024e+02   4.707450e+00
  -2.130539e+02  -2.186010e+02
   2.515979e+01  -2.668221e+02
   2.654028e+02  -1.253652e+02
   3.617328e+02   1.859176e+02
   1.940144e+02   4.115556e+02
  -1.014543e+02   2.791812e+02
  -2.208401e+02   1.041411e+02
  -1.820859e+02  -5.161024e+00
  -9.620046e+01   1.455419e+01
  -2.484188e+02   7.835104e+01
  -3.542380e+02  -9.794870e+01
  -3.446203e+02  -2.777252e+02
  -2.183915e+01  -4.794945e+02
   3.859611e+02  -3.596305e+02
   4.820089e+02  -1.828991e+02
   3.376870e+02   1.067463e+02
   8.841265e+01   3.006876e+02
  -1.451782e+02   2.402591e+02
  -9.925334e+01   4.006056e+01
   1.121774e+02  -1.032642e+02
   1.955330e+02   3.658358e+01
   5.744274e+01   1.984221e+02
  -1.736335e+02   1.512428e+02
  -2.112258e+02  -5.674705e+01
  -2.868583e+00  -2.012070e+02
   2.137687e+02  -2.806618e+01
   1.652686e+02   2.627731e+02
   1.349402e+00   3.295688e+02
  -2.201099e+02   1.917422e+02
  -3.577944e+02  -7.848353e+01
  -2.713378e+02  -2.335539e+02
  -1.383802e+02  -2.804754e+02
   1.224511e+02  -1.691804e+02
   1.982118e+02  -3.114291e+01
   7.274517e+01   3.477373e+01
  -5.035121e+01  -3.176829e+01
  -2.609041e+01  -1.426175e+02
   1.197976e+02  -1.093780e+02
   1.955097e+02   2.248565e+01
   6.801240e+01   6.617812e+01
  -8.266806e+01   8.038485e+00
  -5.819080e+01  -7.678848e+01
   1.095588e+02  -6.583926e+01
   2.555498e+02   1.846033e+01
   2.770842e+02   1.700913e+02
   7.761290e+01   2.845058e+02
  -1.651517e+02   2.500196e+02
  -3.130622e+02   1.388004e+02
  -1.742435e+02  -5.201202e+01
   1.435480e+01  -1.082585e+02
   9.200353e+01  -8.949557e+00
  -3.036100e+01   9.938369e+01
  -2.061605e+02   6.483651e+01
  -2.474523e+02  -8.895546e+01
  -6.172092e+01  -2.097282e+02
   1.049799e+02  -1.604820e+02
   1.422549e+02  -3.027769e+01
   8.550845e+01   4.609351e+01
  -1.243305e+01   6.570563e+00
  -3.909877e+01  -7.655698e+01
   8.461684e+01  -1.068973e+02
   2.151109e+02  -2.792452e+01
   2.039983e+02   1.411246e+02
   2.303870e+00   2.378964e+02
  -1.610790e+02   1.569752e+02
  -2.108634e+02   1.935617e+01
  -5.669952e+01  -1.195257e+02
   6.084298e+01  -1.126691e+02
   9.304374e+01  -2.067786e+01
   2.136813e+01   2.906514e+01
  -1.605546e+01   1.333703e+01
   1.041905e+01   1.146987e+00
   6.528800e+01   3.513042e+00
   6.522739e+01   8.731154e+01
   2.627728e+01   1.737585e+02
  -1.276350e+02   1.433445e+02
  -2.060458e+02   3.484279e+01
  -2.135403e+02  -1.303723e+02
  -4.658278e+01  -2.438036e+02
   1.213603e+02  -1.737053e+02
   1.458037e+02  -1.754799e+01
   7.708013e+01   5.063869e+01
   2.987504e+01   3.647800e+01
   5.195242e+01  -1.327707e+01
   8.224196e+01   1.640900e+00
   4.476263e+01   5.938199e+01
  -3.531301e+01   7.780251e+01
  -1.057751e+02   3.887820e+01
  -7.524544e+01  -3.376315e+01
   1.247719e+01  -9.796550e+01
   1.220004e+02  -6.691181e+01
   2.024704e+02   6.505651e+01
   1.283577e+02   2.132570e+02
  -1.041787e+02   2.189350e+02
  -2.829416e+02   1.221363e+02
  -2.836362e+02  -1.045820e+02
  -1.051266e+02  -1.717543e+02
   4.774682e+01  -1.619850e+02
   1.077629e+02  -7.343435e+01
   9.073172e+01  -7.069674e+01
   6.748345e+01  -9.461904e+01
   8.947076e+01  -6.315109e+01
   1.388877e+02   2.232013e+01
   1.111825e+02   1.661111e+02
   1.619974e+01   2.266285e+02
  -1.019758e+02   1.671652e+02
  -1.732146e+02   6.935063e+00
  -1.543930e+02  -1.167535e+02
  -1.804018e+01  -1.683328e+02
   7.038678e+01  -9.536976e+01
   5.617776e+01   2.494047e+00
   6.349059e+00   4.221733e+01
  -5.314257e+00   3.584666e+01
   3.771081e+01   2.006461e+01
   8.676106e+01   2.740873e+01
   3.518623e+01   4.667469e+01
  -6.716439e+01   2.716733e+01
  -1.715396e+02   4.224849e+00
  -1.415729e+02  -6.367405e+01
  -2.227115e+01  -9.180897e+01
   1.227944e+02  -6.227660e+01
   1.369663e+02  -7.478776e+00
   5.589975e+01   3.817431e+01
  -6.427822e+01   4.094903e+01
  -7.933647e+01  -2.546259e+01
  -1.279416e+01  -6.840364e+01
   5.897325e+01  -4.291267e+01
   6.932212e+01  -6.735911e+00
   4.197013e+01   4.516204e+01
   4.067643e+01   3.896981e+01
   6.338959e+01  -8.205316e-01
   6.859187e+01   3.766410e+00
   3.764075e+01   6.454444e+01
  -1.865583e+01   1.535083e+02
  -1.273222e+02   1.585570e+02
  -1.703946e+02   2.776923e+01
  -1.048787e+02  -9.785932e+01
  -1.185188e+01  -1.253009e+02
   8.916134e+01  -6.606497e+01
   6.192852e+01   1.618506e+01
  -4.986882e+01   2.176729e+01
  -1.467827e+02  -5.921080e+01
  -7.259166e+01  -1.020874e+02
   7.732548e+01  -1.229179e+02
   2.063452e+02  -6.818563e+01
   1.705095e+02   3.811942e+01
   4.158622e+01   7.756091e+01
  -5.999141e+01   6.538598e+01
  -5.080298e+01   8.504460e+00
   4.509700e+01  -2.516938e+01
   8.450869e+01   1.140950e+01
   2.549770e+01   1.225658e+02
  -9.745908e+01   1.487491e+02
  -1.849628e+02   5.623003e+01
  -1.420967e+02  -9.663907e+01
  -2.853991e+01  -1.971814e+02
   8.183356e+01  -1.434325e+02
   1.104790e+02  -5.746723e+00
   5.637442e+01   1.218293e+02
   1.051513e+00   1.163089e+02
  -4.743691e+01   2.442281e+01
  -5.331070e+01  -3.663165e+01
  -3.264224e+01  -1.023664e+01
  -4.505086e+00   2.190198e+01
  -2.366364e+01  -1.767799e+01
  -4.743685e+01  -9.245788e+01
  -3.858008e+01  -1.105221e+02
   4.848072e+01  -4.381138e+01
   1.507464e+02   4.875283e+01
   1.261162e+02   6.941699e+01
   1.651875e+01   4.769989e+01
  -8.011823e+01   2.724619e+01
  -8.787998e+01   1.285038e+01
  -8.602369e+00  -7.423088e+00
   3.945741e+01  -2.411599e+01
   1.504932e+01  -1.849372e+01
  -2.417912e+01   2.205909e+00
   6.553935e+00   9.502160e+00
   7.861113e+01   1.483586e+01
   8.748376e+01   2.421362e+01
  -6.609673e+00   8.205597e+01
  -1.274340e+02   1.109404e+02
  -1.971262e+02   3.888664e+01
  -1.342047e+02  -7.968512e+01
  -3.294796e+01  -1.430174e+02
   8.049654e+01  -1.530767e+02
   1.111619e+02  -5.179495e+01
   7.757523e+01   2.324315e+01
   2.673400e+01   4.125286e+01
  -4.711770e+00   9.187479e+00
   1.029994e+01   1.904205e+00
   3.336794e+01   3.787509e+01
   2.348023e+01   9.208087e+01
  -3.204248e+01   7.099820e+01
  -8.526049e+01  -1.593030e+01
  -9.540574e+01  -1.041929e+02
  -5.030300e+00  -1.106963e+02
   8.200814e+01  -2.007632e+01
   1.050245e+02   7.874678e+01
   2.341873e+01   1.046067e+02
  -7.143565e+01   5.650285e+01
  -9.994305e+01  -2.223940e+01
  -3.879023e+01  -5.566495e+01
   3.445377e+01  -5.391932e+01
   3.086187e+01  -2.863332e+01
  -3.492198e+01   1.697618e+00
  -6.608087e+01   7.870896e+00
  -1.309747e+01  -2.608647e+01
   7.922468e+01  -6.400779e+01
   1.176242e+02  -4.758211e+01
   6.410194e+01   1.354149e+01
  -2.164652e+01   8.020231e+01
  -5.781774e+01   8.897120e+01
  -3.416570e+01   1.140855e+00
   1.871287e-01  -6.303632e+01
   3.066945e+01  -4.818373e+01
   3.474806e+01   2.698944e+01
   2.561545e+01   6.196532e+01
   1.738443e+00   3.424594e+01
  -3.027446e+01  -1.171627e+01
  -3.884404e+01  -2.295769e+01
  -2.411743e+01   8.345773e-01
   1.879414e+00   1.391909e+01
   6.388452e+00  -3.029855e+00
   9.261836e+00  -3.948563e+01
   2.057526e+01  -5.264734e+01
   3.160404e+01  -6.634949e+00
   2.984516e+01   4.201697e+01
  -8.682505e+00   7.049799e+01
  -4.725836e+01   1.658547e+01
  -5.922414e+01  -4.606924e+01
  -1.139833e+01  -6.519529e+01
   5.497330e+01  -3.301053e+01
   8.596684e+01   1.792300e+01
   4.798558e+01   4.519341e+01
  -3.372178e+01   3.742699e+01
  -5.994255e+01   1.665895e+01
  -2.102696e+01   1.044250e+00
   3.708566e+01   2.756626e+00
   4.065128e+01   1.660044e+01
  -3.318071e+01   3.156856e+01
  -1.075236e+02   1.904251e+01
