
 $NMID
 id='ANONYMOUS ', fmtdat='(2E16.6)'
 volume=1.0
 tramp=1.0
 $END
   3.205038e+03  -2.112633e+02
   1.565050e+03   1.918659e+03
  -3.121136e+02   1.909143e+03
  -1.455495e+03   5.923980e+02
  -8.462848e+02  -1.273645e+02
   2.664147e+02  -4.042594e+02
   4.210460e+02   2.289696e+02
   2.618815e+01   5.190894e+02
  -6.384903e+02   5.035519e+02
  -6.131394e+02  -1.353805e+02
  -3.437633e+02  -4.610494e+02
   1.199130e+02  -5.816935e+02
   3.306059e+02  -3.915978e+01
   2.308925e+02   5.015513e+02
  -1.417314e+02   4.707004e+02
  -4.152363e+02   8.035955e+00
  -1.773684e+02  -4.496158e+02
   2.033392e+02  -4.510802e+02
   3.272055e+02  -1.313027e+02
   3.508437e+02   2.657516e+02
   3.325457e+00   3.035086e+02
  -9.084946e+01   1.589326e+02
  -1.152474e+02   3.586733e+01
   1.280262e+02   3.496937e+01
   2.299920e+02   1.682008e+02
   2.857807e+01   2.857474e+02
  -3.547131e+02   2.338249e+02
  -4.640500e+02  -1.616285e+02
  -2.490604e+02  -2.862006e+02
   1.947901e+02  -1.323600e+02
   4.812872e+02   3.088644e+01
   1.671467e+02   3.850338e+02
  -1.924684e+02   2.987259e+02
  -3.682346e+02   4.157583e+01
  -2.303321e+02  -1.758408e+02
  -5.939539e+00  -2.401929e+02
   8.997572e+01  -1.947815e+02
  -3.862902e+01   1.629982e+02
  -1.743827e+02   2.427800e+02
  -2.336638e+02  -3.809913e+01
  -1.029635e+02  -4.912605e+02
   3.233096e+02  -4.426663e+02
   1.885547e+02   4.190032e+01
   4.042257e+01   2.700790e+02
  -1.829642e+02   2.186081e+02
  -3.206826e+02  -2.839514e+02
   6.677863e+01  -3.493881e+02
   3.644425e+02   2.742619e+00
   3.257196e+02   4.919626e+02
   7.094458e+01   4.495954e+02
  -3.888281e+02   2.240992e+02
  -3.903962e+02  -1.288533e+02
  -2.760948e+02  -2.634264e+02
   9.880124e+01  -2.087392e+02
   2.822684e+02  -4.099152e+01
   2.049871e+02   4.650425e+01
  -4.891657e+01   3.514873e+01
  -8.543940e+01  -1.073931e+02
   1.087078e+02  -1.064003e+02
   2.177929e+02   9.379445e+01
   6.001467e+01   1.756241e+02
  -1.704092e+02   1.567258e+02
  -2.456256e+02   1.089766e+02
  -1.726218e+02  -4.995122e+01
   5.989325e+01  -2.303540e+02
   1.866134e+02  -3.200524e+02
   2.441918e+02  -1.048177e+02
   1.699464e+02   1.660631e+02
   1.079177e+01   3.166574e+02
  -1.102070e+02   2.707705e+02
  -6.317721e+01   1.359168e+02
  -7.439400e+01   5.507741e+01
  -9.531246e+01   6.171361e+01
  -1.794535e+02   6.430492e+01
  -1.619366e+02  -7.428698e+01
  -6.108163e+01  -2.042378e+02
   7.991804e+01  -1.754457e+02
   1.701730e+02   5.966824e+01
   9.494785e+01   2.063061e+02
  -5.940083e+01   2.108802e+02
  -1.921458e+02   6.443358e+01
  -2.634126e+02  -8.834410e+01
  -1.413528e+02  -2.815941e+02
   1.184075e+02  -2.725952e+02
   1.333492e+02  -7.067569e+01
   1.226710e+02  -3.032342e+01
   9.131192e+01  -3.905901e+01
   1.886669e+02   1.219091e+01
   3.426762e+02   9.775873e+01
   2.564270e+02   2.386647e+02
  -1.310038e+01   3.616812e+02
  -3.595995e+02   2.872954e+02
  -3.403412e+02   1.216858e+02
  -2.265325e+02  -7.857639e+01
   3.616966e+01  -2.035662e+02
   1.038091e+02  -1.749222e+02
   3.752266e+01  -3.393163e+01
  -8.877543e+01   4.325173e+01
  -1.368069e+02  -5.903981e+01
   1.510324e+01  -1.025957e+02
   1.463788e+02  -9.414563e+01
   1.003657e+02   5.248157e+01
  -3.816700e+01   1.511393e+02
  -1.501218e+02  -1.329847e+01
  -8.848875e+01  -1.758274e+02
   5.718751e+01  -2.726327e+02
   2.495251e+02  -1.365793e+02
   2.554224e+02   4.017374e+01
   2.069716e+02   2.165530e+02
   2.647594e+01   2.043418e+02
  -1.062464e+02   1.078924e+02
  -1.257189e+02   1.498472e+01
  -3.199702e+01  -2.081330e+01
   4.851341e+01   5.135504e+01
  -1.033375e+00   9.103447e+01
  -1.113245e+02   6.816336e+01
  -1.086814e+02  -3.900319e+01
  -2.433661e+01  -4.843394e+01
   8.938780e+01   1.449186e+01
   3.934016e+01   5.915746e+01
  -1.292376e+02   6.798151e+01
  -2.378973e+02  -3.245257e+01
  -1.846707e+02  -1.469337e+02
  -5.812266e+01  -1.590363e+02
   1.548837e+02  -2.296883e+02
   1.936017e+02  -7.461084e+01
   1.129146e+02   2.471277e+01
  -1.517614e+01   6.578718e+01
  -5.962903e+01  -1.641301e+01
   5.281737e+01  -7.568093e+01
   1.607944e+02  -2.230985e+01
   1.458820e+02   8.541111e+01
   2.563183e+01   1.960787e+02
  -5.307669e+01   8.903573e+01
  -1.059334e+02   1.437401e+01
  -3.627523e+01  -3.641147e+01
   2.469683e+01   1.116476e+01
   4.299599e+00   8.372422e+01
  -7.451350e+01   8.609934e+01
  -1.801497e+02  -2.418691e+00
  -1.267149e+02  -8.853164e+01
  -9.990636e+00  -1.647805e+02
   1.467169e+02  -1.282652e+02
   1.678823e+02  -6.521240e+00
   3.016957e+01   9.304495e+01
  -6.718983e+01   7.891660e+01
  -6.252736e+01   1.662424e+01
  -4.738050e+00  -2.070436e+01
   2.356258e+01  -1.218840e+01
  -1.059397e+01   1.295823e+01
  -6.122773e+01  -1.036768e+00
  -7.578916e+01  -6.094508e+01
  -1.884446e+01  -1.212116e+02
   1.073084e+02  -1.147474e+02
   1.931224e+02   4.626504e+00
   1.319394e+02   1.414815e+02
   1.049246e+01   2.056560e+02
  -9.929132e+01   1.311885e+02
  -1.092615e+02   2.475754e+01
  -6.003905e+01  -4.866259e+01
  -2.038116e+01  -2.347526e+01
  -5.025424e+01   4.857373e+00
  -6.564822e+01  -6.559621e-02
  -4.351340e+01  -4.527129e+01
   5.245739e+01  -7.708344e+01
   9.499110e+01  -4.669021e+01
   7.172925e+01   3.098784e+01
   7.593774e+00   9.082128e+01
  -1.274681e+02   4.982602e+01
  -1.359697e+02  -5.198387e+01
  -6.627475e+01  -1.678761e+02
   1.156720e+02  -1.619536e+02
   2.370140e+02  -5.116033e+01
   2.037960e+02   5.043237e+01
   8.200610e+01   1.521504e+02
  -3.426046e+01   1.056791e+02
  -6.549129e+01   6.901447e+01
  -6.874113e+01   6.113320e+01
  -5.047839e+01   7.828223e+01
  -6.495073e+01   4.414556e+01
  -1.013874e+02  -1.626773e+01
  -1.113576e+02  -1.278137e+02
   1.210868e+01  -2.102211e+02
   8.438301e+01  -1.553521e+02
   1.397525e+02  -1.630036e+01
   1.035939e+02   1.271067e+02
  -6.840850e+00   1.101011e+02
  -5.225456e+01   4.341103e+01
  -5.307618e+01  -5.722675e+00
   4.178363e+00  -3.968674e+01
   1.734412e+01  -2.727185e+01
  -2.439189e+01  -2.109737e+01
  -6.152434e+01  -3.612643e+01
  -4.103530e+01  -3.450593e+01
   5.871621e+01  -4.230979e+01
   1.289922e+02   1.319662e+00
   1.203668e+02   7.375631e+01
   9.655944e+00   7.036962e+01
  -1.000108e+02   3.386380e+01
  -1.139593e+02  -3.992966e+00
  -3.311328e+01  -4.136124e+01
   4.958158e+01  -2.858712e+01
   5.556947e+01   2.661368e+01
   6.525906e-01   5.588499e+01
  -4.103094e+01   5.437481e+01
  -5.442231e+01  -5.888516e+00
  -3.338539e+01  -4.645740e+01
  -3.302954e+01  -3.658460e+01
  -4.035101e+01  -9.390490e+00
  -4.759119e+01   3.877933e+00
  -2.372908e+01  -6.253727e+01
   2.405528e+01  -1.046021e+02
   8.645186e+01  -1.062835e+02
   1.518869e+02  -2.601010e+01
   1.122430e+02   8.842105e+01
  -5.041620e-01   1.008259e+02
  -7.322408e+01   5.109555e+01
  -5.079832e+01  -1.944869e+01
   4.422328e+01  -1.413446e+01
   1.022040e+02   3.968708e+01
   4.683672e+01   1.050257e+02
  -5.822359e+01   6.335568e+01
  -1.353513e+02   1.781922e+01
  -1.032339e+02  -5.086828e+01
  -1.399092e+01  -7.824657e+01
   6.378751e+01  -4.652031e+01
   3.779502e+01  -2.141554e+00
  -3.241498e+01   1.896873e+01
  -7.066062e+01  -3.025594e+01
  -2.664343e+01  -9.599821e+01
   7.684591e+01  -1.077912e+02
   1.176815e+02  -3.834712e+01
   9.319599e+01   1.087463e+02
  -7.479043e+00   1.507146e+02
  -8.429102e+01   1.033893e+02
  -7.971331e+01   1.856536e+00
  -5.829640e+01  -1.006447e+02
   1.097102e+01  -6.545334e+01
   3.817024e+01  -5.141953e+00
   3.832536e+01   2.824721e+01
   1.534476e+01   4.922471e+00
   4.327102e+00  -1.357688e+01
   2.021421e+01   1.311697e+01
   3.959522e+01   7.055352e+01
   9.903449e+00   9.599220e+01
  -4.706702e+01   2.835806e+01
  -1.121030e+02  -3.290503e+01
  -1.202760e+02  -7.833952e+01
  -9.807245e+00  -4.072346e+01
   7.239127e+01  -1.864024e+01
   6.577328e+01   1.330572e+01
   1.327112e+01   1.109402e+01
  -3.051152e+01   1.369619e+01
  -1.218256e+01   1.013374e+01
   1.081489e+01   2.009969e-01
  -2.005195e+00  -6.168679e+00
  -5.755777e+01   2.838112e+00
  -6.900650e+01  -2.839179e+01
  -2.483698e+01  -5.715916e+01
   9.838260e+01  -8.055208e+01
   1.255769e+02  -4.008766e+01
   9.955252e+01   4.514662e+01
  -1.752149e+00   1.386699e+02
  -8.718032e+01   1.159213e+02
  -1.116435e+02   3.372743e+01
  -6.078716e+01  -1.572565e+01
  -2.195320e+01  -2.978056e+01
  -7.301767e-01  -1.089138e+01
  -9.587976e+00  -7.037438e+00
  -2.518483e+01  -3.722672e+01
  -1.081237e+01  -6.593465e+01
   2.182240e+01  -5.712776e+01
   5.528435e+01   2.293294e+01
   4.940151e+01   7.308053e+01
   4.044167e+00   8.218313e+01
  -5.821241e+01   2.934385e+01
  -6.205877e+01  -6.003239e+01
  -3.802234e+01  -8.264521e+01
   5.179583e+01  -4.508569e+01
   8.034162e+01   3.522920e+00
   3.598123e+01   4.762015e+01
  -2.629326e+01   4.437149e+01
  -2.811210e+01   2.104447e+01
   2.241239e+01  -2.265882e+00
   5.915157e+01   2.810316e+00
   1.177217e+01   2.323592e+01
  -6.972397e+01   4.792442e+01
  -1.043666e+02   5.206455e+01
  -5.222097e+01  -2.320604e+01
   1.266229e+01  -6.135239e+01
   4.582504e+01  -5.365304e+01
   3.191333e+01  -8.483736e+00
  -6.311309e+00   4.230783e+01
  -2.289894e+01   3.287023e+01
  -2.788200e+01  -1.290770e+01
  -1.446022e+01  -4.456862e+01
   4.045976e+00  -2.670873e+01
   2.693248e+01   9.112815e+00
   2.781385e+01   1.842032e+01
   1.411382e+01   3.253553e+00
  -9.517492e-01  -1.514613e+01
  -5.148494e+00  -3.302883e+00
  -6.807364e-01   2.792876e+01
  -1.540114e+01   3.662910e+01
  -1.978339e+01   1.374683e+01
  -2.861966e+01  -2.863845e+01
   2.745350e-01  -4.583721e+01
   3.397572e+01  -1.896760e+01
   4.811879e+01   3.436124e+01
   7.282585e+00   5.438905e+01
  -4.860226e+01   1.457771e+01
  -6.580091e+01  -4.435610e-01
  -3.571437e+01  -3.570093e+01
   2.687252e+01  -3.761645e+01
   5.822198e+01  -1.199282e+01
   2.069692e+01  -5.950444e+00
  -2.753859e+01  -8.881953e-02
  -2.401275e+01  -7.397900e+00
   1.897104e+01  -2.032358e+01
   5.982966e+01  -1.827662e+01
