
 $NMID
 id='ANONYMOUS ', fmtdat='(2E16.6)'
 volume=1.0
 tramp=1.0
 $END
   4.346002e+03   4.632858e+02
   3.131267e+03   2.727477e+03
  -4.593375e+02   2.879472e+03
  -1.955611e+03   8.096802e+02
  -9.345892e+02  -5.588731e+02
   4.641492e+02  -7.177072e+02
   8.748365e+02   3.375259e+02
  -3.086725e+00   1.146504e+03
  -8.929216e+02   8.482219e+02
  -9.481336e+02   7.321196e+01
  -5.535651e+02  -8.505094e+02
   2.267414e+02  -8.608472e+02
   5.526480e+02  -2.082124e+02
   2.659533e+02   7.616215e+02
  -3.219100e+02   7.045135e+02
  -4.782717e+02  -1.058023e+01
  -1.731127e+02  -7.139718e+02
   3.409667e+02  -6.264060e+02
   6.589726e+02  -1.385819e+02
   4.441878e+02   3.455111e+02
   4.634870e+00   4.413513e+02
  -2.338684e+02   2.593016e+02
  -2.387976e+02   4.191084e+01
   1.426393e+02  -6.500432e+01
   4.496330e+02   9.425982e+01
   1.788872e+02   4.303849e+02
  -3.905104e+02   4.571042e+02
  -8.974865e+02  -3.798015e+01
  -4.758466e+02  -4.973260e+02
   4.607775e+02  -5.497538e+02
   8.218345e+02   3.907156e+01
   3.331558e+02   4.317604e+02
  -3.224421e+02   4.972796e+02
  -5.840343e+02   1.816888e+02
  -4.779491e+02  -2.337636e+02
  -5.183208e+01  -4.239263e+02
   1.727684e+02  -2.686824e+02
   1.701888e+02   2.106279e+02
  -1.605798e+02   4.056148e+02
  -4.712522e+02  -3.871018e+01
  -2.683701e+02  -7.103743e+02
   3.336039e+02  -7.058715e+02
   6.060512e+02  -3.812347e+01
   2.258852e+02   5.456231e+02
  -2.452363e+02   3.256082e+02
  -3.450995e+02  -3.827402e+02
   1.202506e+02  -5.271654e+02
   5.792238e+02  -1.289770e+02
   5.046687e+02   3.974566e+02
   1.784903e+02   6.460047e+02
  -4.210271e+02   3.370929e+02
  -6.452969e+02   6.020545e+00
  -3.535474e+02  -4.122084e+02
   2.315805e+02  -3.874898e+02
   4.631547e+02  -3.406277e+01
   2.402280e+02   2.000123e+02
  -1.122865e+02   8.621196e+01
  -1.327465e+02  -1.071420e+02
   1.431448e+02  -1.836286e+02
   3.417387e+02   5.495196e+01
   1.494831e+02   3.068971e+02
  -1.834177e+02   2.860021e+02
  -3.306344e+02   1.043082e+02
  -2.178400e+02  -5.025645e+01
   6.996948e+01  -2.449015e+02
   2.490846e+02  -3.565380e+02
   3.322633e+02  -2.399383e+02
   3.222677e+02   1.060275e+02
   8.890794e+01   5.295309e+02
  -4.410657e+01   4.484968e+02
  -1.079429e+02   1.269169e+02
  -3.670160e+01   2.908665e+01
  -4.889627e+01   1.131815e+02
  -2.229980e+02   1.061453e+02
  -2.980180e+02  -4.727375e+01
  -1.687936e+02  -2.590891e+02
   5.585919e+01  -2.567891e+02
   2.409426e+02  -8.621781e+00
   2.183720e+02   2.421329e+02
  -5.320002e+01   2.694480e+02
  -2.559719e+02   1.190073e+02
  -4.199304e+02  -1.815769e+02
  -2.137685e+02  -3.748549e+02
   1.177515e+02  -2.887866e+02
   2.314321e+02  -9.417497e+01
   1.676828e+02   1.282873e+01
   1.068949e+02  -3.274833e+01
   2.324283e+02  -7.814430e+01
   4.028088e+02   9.162255e+01
   3.142617e+02   3.318782e+02
   5.685410e+01   4.975770e+02
  -3.710208e+02   4.006395e+02
  -5.419524e+02   1.726287e+02
  -3.609509e+02  -8.810551e+01
  -6.682123e+01  -2.933557e+02
   1.594329e+02  -2.674486e+02
   8.408378e+01  -3.148454e+01
  -1.044618e+02   1.206009e+02
  -1.973161e+02  -2.706353e+01
  -6.538027e+01  -1.776158e+02
   1.670801e+02  -1.592899e+02
   1.996429e+02   6.148698e+01
  -2.797866e+01   1.997537e+02
  -2.016730e+02   2.122049e+01
  -1.563726e+02  -2.730909e+02
   1.447268e+00  -3.700261e+02
   2.052052e+02  -2.287596e+02
   3.803067e+02   6.421536e+01
   2.468438e+02   2.862311e+02
   1.169328e+02   2.999076e+02
  -1.330572e+02   1.699070e+02
  -2.096443e+02   2.273906e+01
  -5.883493e+01  -2.827568e+01
   6.717721e+01   5.298127e+01
   4.120060e+01   1.284667e+02
  -1.341767e+02   8.487470e+01
  -1.861425e+02  -5.054991e+01
  -6.528620e+01  -6.740592e+01
   8.207848e+01  -2.152822e+00
   5.742505e+01   9.168014e+01
  -1.314443e+02   8.340659e+01
  -3.023620e+02  -1.776719e+01
  -2.768293e+02  -1.614335e+02
  -8.551851e+01  -2.792837e+02
   1.711017e+02  -2.810281e+02
   3.167714e+02  -1.267389e+02
   1.745731e+02   6.684186e+01
  -1.446426e+01   1.220620e+02
  -8.989879e+01   1.894653e+01
   3.321020e+01  -9.331041e+01
   1.914257e+02  -6.272526e+01
   2.353602e+02   1.103104e+02
   6.782036e+01   1.959323e+02
  -9.555611e+01   1.790164e+02
  -1.540388e+02   3.534702e+01
  -8.668318e+01  -4.678036e+01
   2.677873e+01  -3.494185e+00
   4.300681e+01   8.487763e+01
  -6.857535e+01   1.292335e+02
  -2.264317e+02   4.568189e+01
  -1.898384e+02  -1.255985e+02
  -9.855553e+00  -2.437474e+02
   1.465885e+02  -1.565699e+02
   1.950205e+02  -7.650555e+00
   6.757963e+01   1.193405e+02
  -5.883611e+01   1.120629e+02
  -8.839614e+01   2.099800e+01
  -1.707671e+01  -2.627217e+01
   3.018673e+01  -1.465735e+01
  -8.649531e+00   9.999315e+00
  -7.717326e+01  -5.064586e+00
  -9.512600e+01  -9.236697e+01
  -3.914742e+01  -1.836617e+02
   1.292929e+02  -1.588776e+02
   2.285445e+02  -2.718040e+01
   2.424709e+02   1.502574e+02
   5.611062e+01   2.449775e+02
  -1.133667e+02   1.724492e+02
  -1.550443e+02   1.728554e+01
  -7.507495e+01  -5.433198e+01
  -3.475972e+01  -3.699493e+01
  -5.646406e+01   1.489354e+01
  -8.482756e+01   6.196659e+00
  -4.406009e+01  -5.087213e+01
   4.134347e+01  -9.888525e+01
   1.222238e+02  -6.398521e+01
   9.725588e+01   2.983804e+01
  -2.831872e+01   1.153829e+02
  -1.284741e+02   7.740317e+01
  -2.101718e+02  -4.835716e+01
  -1.262489e+02  -2.007726e+02
   1.160055e+02  -2.512550e+02
   2.916000e+02  -1.119029e+02
   2.904722e+02   1.151676e+02
   1.210707e+02   2.021938e+02
  -3.905425e+01   1.537840e+02
  -9.101963e+01   8.560957e+01
  -7.607064e+01   6.319852e+01
  -6.377272e+01   9.100753e+01
  -8.067347e+01   7.311436e+01
  -1.429134e+02  -1.424733e+01
  -1.373658e+02  -1.726826e+02
   1.882381e+00  -2.529772e+02
   1.077335e+02  -1.848321e+02
   1.874356e+02  -2.428588e+01
   1.291418e+02   9.630479e+01
   2.567140e+01   1.845661e+02
  -7.493867e+01   1.018521e+02
  -7.241777e+01   2.784404e+00
  -8.956480e+00  -4.876787e+01
   9.848429e+00  -3.631255e+01
  -3.659474e+01  -1.666219e+01
  -8.049396e+01  -2.501497e+01
  -4.740687e+01  -4.480077e+01
   6.673539e+01  -3.277104e+01
   1.896631e+02  -1.062943e+00
   1.441643e+02   5.794261e+01
   1.681721e+01   1.063250e+02
  -1.288419e+02   7.583865e+01
  -1.468708e+02   1.218904e+01
  -6.036482e+01  -3.936482e+01
   6.613463e+01  -5.003267e+01
   7.802375e+01   2.183862e+01
   1.394238e+01   6.757205e+01
  -6.334927e+01   5.689218e+01
  -6.668430e+01   7.442621e+00
  -4.964406e+01  -4.255850e+01
  -4.106064e+01  -3.710708e+01
  -6.283393e+01  -4.575738e+00
  -6.992988e+01   1.340392e+00
  -3.522678e+01  -7.105486e+01
   1.191881e+01  -1.709630e+02
   1.174608e+02  -1.648926e+02
   1.732052e+02  -3.155277e+01
   1.191012e+02   1.028048e+02
   2.309150e+01   1.502564e+02
  -7.943814e+01   6.114681e+01
  -6.501337e+01  -1.150828e+01
   5.959622e+01  -2.109341e+01
   1.394258e+02   4.770783e+01
   8.742241e+01   1.011977e+02
  -7.876851e+01   1.305613e+02
  -2.032845e+02   7.467140e+01
  -1.835668e+02  -3.943450e+01
  -3.785029e+01  -8.374555e+01
   6.459160e+01  -6.560603e+01
   5.337561e+01  -9.015756e+00
  -4.464629e+01   3.035545e+01
  -9.009087e+01  -1.947046e+01
  -2.675264e+01  -1.178419e+02
   1.079320e+02  -1.694682e+02
   1.755000e+02  -8.169292e+01
   1.399818e+02   8.927198e+01
   1.681284e+01   1.915315e+02
  -8.781061e+01   1.619400e+02
  -1.095639e+02  -2.289071e+00
  -6.224155e+01  -1.264205e+02
   6.622248e+00  -1.217838e+02
   4.679415e+01  -1.666476e+01
   5.296518e+01   3.055420e+01
   2.557625e+01   8.360702e+00
   5.745316e+00  -2.245629e+01
   2.552888e+01   1.648206e+01
   6.055613e+01   9.302279e+01
   3.558305e+01   1.105984e+02
  -4.985518e+01   3.951649e+01
  -1.463675e+02  -3.289454e+01
  -1.235926e+02  -7.429792e+01
  -2.790352e+01  -4.556891e+01
   8.687716e+01  -2.746350e+01
   9.298725e+01  -1.125149e+01
   1.149757e+01   7.076842e+00
  -3.654505e+01   2.271475e+01
  -1.549711e+01   1.865136e+01
   1.974021e+01  -1.235367e+00
  -4.710948e+00  -7.607233e+00
  -7.597525e+01  -8.813520e+00
  -9.791668e+01  -2.982352e+01
   1.613621e+00  -8.818661e+01
   1.047302e+02  -1.234856e+02
   1.912414e+02  -6.134037e+01
   1.420219e+02   7.081925e+01
   2.926309e+01   1.488865e+02
  -7.848941e+01   1.452099e+02
  -1.227891e+02   5.322229e+01
  -7.770106e+01  -1.893984e+01
  -2.473131e+01  -4.071142e+01
   3.585621e+00  -8.617614e+00
  -9.091720e+00  -1.323849e+00
  -3.113189e+01  -4.889774e+01
  -2.720074e+01  -1.045567e+02
   3.451846e+01  -7.371080e+01
   8.601210e+01   1.462731e+01
   9.296267e+01   1.110070e+02
   3.059371e+00   1.209667e+02
  -8.501454e+01   3.115741e+01
  -1.246712e+02  -7.139604e+01
  -3.033770e+01  -1.042340e+02
   6.059339e+01  -6.346759e+01
   9.979490e+01   1.498826e+01
   4.837925e+01   6.156755e+01
  -2.997467e+01   5.399269e+01
  -3.245565e+01   2.976476e+01
   2.935112e+01  -3.488505e+00
   6.636204e+01  -2.619028e+00
   1.437331e+01   2.247265e+01
  -8.724017e+01   7.114668e+01
  -1.397325e+02   5.587832e+01
  -6.855836e+01  -8.701503e+00
   1.030160e+01  -8.971761e+01
   5.861289e+01  -8.091212e+01
   3.758744e+01  -5.751245e+00
   4.412675e+00   5.779245e+01
  -2.792279e+01   4.797568e+01
  -3.737277e+01  -1.865880e+01
  -2.662729e+01  -5.872193e+01
  -1.258388e+00  -3.543296e+01
   3.084906e+01   9.658052e+00
   4.323776e+01   1.878855e+01
   2.536226e+01   7.176525e-01
  -1.998274e+00  -1.132206e+01
  -6.177808e+00  -1.227632e+00
  -6.967742e+00   3.550201e+01
  -1.033846e+01   4.977746e+01
  -3.621910e+01   1.521419e+01
  -3.634604e+01  -4.522522e+01
   2.516729e+00  -6.423445e+01
   4.829928e+01  -2.062215e+01
   6.387320e+01   4.658296e+01
   1.298266e+01   6.679031e+01
  -4.890555e+01   3.624604e+01
  -9.829466e+01  -1.107772e+01
  -5.442271e+01  -4.372183e+01
   2.981461e+01  -3.747558e+01
   7.000180e+01  -2.427072e+01
   2.647644e+01  -5.147330e+00
  -2.856666e+01  -2.557236e+00
  -3.875900e+01  -1.477869e+01
   3.595701e+01  -3.122318e+01
   1.004465e+02  -1.929293e+01
