
 $NMID
 id='ANONYMOUS ', fmtdat='(2E16.6)'
 volume=1.0
 tramp=1.0
 $END
  -3.292877e+03  -4.762992e+02
  -2.831769e+03  -2.517147e+03
   7.100067e+02  -2.909671e+03
   1.727659e+03  -8.225763e+02
   8.046843e+02   5.059966e+02
  -6.742214e+02   5.373301e+02
  -9.324856e+02  -2.729150e+02
   6.504979e+01  -1.042101e+03
   7.275796e+02  -7.843054e+02
   7.747435e+02  -4.720070e-01
   3.702133e+02   7.184650e+02
  -2.351874e+02   7.192364e+02
  -4.849204e+02   9.872345e+01
  -3.723492e+02  -7.299289e+02
   2.671147e+02  -5.951754e+02
   5.434753e+02   6.097375e+01
   2.945198e+02   6.981470e+02
  -3.115281e+02   4.755516e+02
  -5.313261e+02   1.365236e+02
  -3.771691e+02  -2.520321e+02
  -2.832430e+01  -4.009804e+02
   2.738177e+02  -2.561656e+02
   2.373375e+02  -1.713589e+01
  -1.792246e+02   6.653238e+01
  -4.684452e+02  -1.230708e+02
  -2.136314e+02  -3.855841e+02
   4.824235e+02  -4.595656e+02
   8.598884e+02   9.937449e+01
   4.389619e+02   4.666968e+02
  -4.340228e+02   4.575641e+02
  -6.700794e+02  -9.872555e+01
  -3.065621e+02  -4.650324e+02
   3.229646e+02  -3.853288e+02
   5.623894e+02  -1.456533e+02
   4.024528e+02   2.251982e+02
   6.936639e+01   4.682486e+02
  -1.974551e+02   2.471336e+02
  -1.678865e+02  -2.250009e+02
   1.443529e+02  -3.769716e+02
   4.816827e+02  -3.255334e+00
   1.717149e+02   7.229913e+02
  -3.448799e+02   6.841697e+02
  -5.697031e+02   2.392514e+00
  -2.849025e+02  -5.553045e+02
   3.024527e+02  -3.216522e+02
   3.035824e+02   3.521565e+02
  -1.146257e+02   5.671973e+02
  -5.631766e+02   9.500516e+01
  -5.664583e+02  -3.868351e+02
  -1.700261e+02  -5.843233e+02
   3.471568e+02  -3.019356e+02
   6.135543e+02   4.224026e+01
   3.166068e+02   3.384970e+02
  -1.849984e+02   3.582539e+02
  -4.188262e+02   3.841229e+01
  -2.365458e+02  -9.642971e+01
   1.386045e+02  -6.776124e+01
   1.046009e+02   9.596059e+01
  -1.488587e+02   1.760448e+02
  -2.869654e+02  -3.248443e+01
  -1.440865e+02  -2.855492e+02
   2.223523e+02  -2.614731e+02
   3.001723e+02  -1.104700e+02
   1.801910e+02   5.427357e+01
  -3.493576e+01   1.918227e+02
  -2.263541e+02   3.161045e+02
  -3.289048e+02   2.396301e+02
  -3.062398e+02  -1.215733e+02
  -1.264448e+02  -4.419383e+02
   1.111824e+02  -3.829778e+02
   1.070563e+02  -1.351725e+02
   9.031789e+00  -1.110537e+01
   6.407397e+01  -1.174351e+02
   1.744898e+02  -1.089847e+02
   2.663388e+02   3.834095e+01
   1.354636e+02   2.542116e+02
  -5.818487e+01   2.711917e+02
  -2.350939e+02  -3.694870e+00
  -1.994713e+02  -2.269195e+02
   2.557665e+01  -2.672497e+02
   2.445668e+02  -9.727449e+01
   3.398752e+02   1.755625e+02
   1.508438e+02   3.239702e+02
  -9.336683e+01   2.724583e+02
  -1.850966e+02   9.050992e+01
  -1.392862e+02   1.846727e+01
  -9.211869e+01   3.121059e+01
  -2.416581e+02   8.823378e+01
  -3.546165e+02  -9.041427e+01
  -3.071027e+02  -2.223985e+02
  -3.355699e+01  -4.507196e+02
   3.890518e+02  -4.039102e+02
   4.792056e+02  -1.581767e+02
   3.353765e+02   8.743854e+01
   9.519645e+01   2.465985e+02
  -1.357329e+02   2.440485e+02
  -7.926694e+01   2.343946e+01
   1.043618e+02  -1.104293e+02
   1.759746e+02   3.460859e+01
   5.691528e+01   1.919895e+02
  -1.838804e+02   1.650198e+02
  -1.715867e+02  -5.546607e+01
   2.139031e+01  -1.924046e+02
   1.948547e+02  -3.249745e+01
   1.667384e+02   2.289833e+02
   3.683412e+00   3.258009e+02
  -2.006795e+02   2.167803e+02
  -3.598410e+02  -5.161297e+01
  -2.409110e+02  -2.501210e+02
  -1.382071e+02  -2.999184e+02
   1.120156e+02  -1.589796e+02
   1.927846e+02  -2.510385e+01
   5.701618e+01   2.235872e+01
  -6.892714e+01  -3.092109e+01
  -3.301025e+01  -1.360624e+02
   1.017861e+02  -8.560244e+01
   1.800174e+02   1.590575e+01
   6.248470e+01   6.742868e+01
  -8.313365e+01   5.728837e+00
  -5.877476e+01  -7.694015e+01
   1.079106e+02  -8.728807e+01
   2.561460e+02  -8.586098e+00
   2.299340e+02   1.451042e+02
   6.530240e+01   2.553944e+02
  -1.525772e+02   2.578433e+02
  -3.128419e+02   1.495519e+02
  -1.454853e+02  -5.084394e+01
   9.872983e+00  -1.159041e+02
   8.602632e+01  -8.076232e+00
  -2.492873e+01   7.976132e+01
  -2.083445e+02   4.719718e+01
  -2.362071e+02  -9.092843e+01
  -5.224066e+01  -1.776842e+02
   1.127133e+02  -1.590807e+02
   1.343096e+02  -3.363249e+01
   7.442815e+01   4.431487e+01
  -2.645418e+01   8.299450e+00
  -6.559777e+01  -8.062470e+01
   6.428967e+01  -1.200059e+02
   1.986121e+02  -2.180324e+01
   1.825452e+02   1.315071e+02
   9.026988e+00   1.918521e+02
  -1.221843e+02   1.468899e+02
  -1.872736e+02   3.001521e+01
  -7.570823e+01  -1.085876e+02
   5.616336e+01  -9.118685e+01
   8.544184e+01  -2.769529e+01
   1.559217e+01   2.335713e+01
  -2.451576e+01   1.322608e+01
   3.133695e+00  -7.615060e+00
   6.271230e+01  -7.036377e+00
   8.273293e+01   8.067673e+01
   1.361470e+01   1.675652e+02
  -1.257813e+02   1.360272e+02
  -1.990541e+02   1.875956e+01
  -2.041795e+02  -1.291509e+02
  -4.619954e+01  -2.200415e+02
   1.318043e+02  -1.657644e+02
   1.277022e+02  -1.328111e+01
   6.628497e+01   3.795542e+01
   3.095454e+01   3.144511e+01
   4.832312e+01  -1.423375e+01
   7.383919e+01  -8.467538e+00
   4.805890e+01   4.873841e+01
  -2.259695e+01   8.477822e+01
  -1.017598e+02   6.250470e+01
  -7.856751e+01  -1.498906e+01
   9.134362e+00  -9.526819e+01
   1.176636e+02  -9.550642e+01
   1.882785e+02   3.472516e+01
   1.062382e+02   1.910318e+02
  -8.730560e+01   2.146334e+02
  -2.693310e+02   1.014952e+02
  -2.760707e+02  -1.036846e+02
  -9.783365e+01  -1.704305e+02
   3.919083e+01  -1.419165e+02
   9.389450e+01  -7.144896e+01
   7.675022e+01  -7.111634e+01
   4.657524e+01  -8.853208e+01
   7.416887e+01  -7.063606e+01
   1.231927e+02   1.520307e+01
   1.008088e+02   1.247672e+02
   2.875917e+00   2.043109e+02
  -8.038527e+01   1.577063e+02
  -1.858902e+02   1.571449e+01
  -1.396500e+02  -9.445834e+01
  -3.131578e+01  -1.662315e+02
   7.393571e+01  -9.291832e+01
   6.265331e+01   3.825524e+00
   8.950376e+00   4.712300e+01
  -5.694331e+00   3.609730e+01
   3.180904e+01   1.254312e+01
   8.496301e+01   2.083239e+01
   4.278659e+01   3.994858e+01
  -5.779282e+01   4.159682e+01
  -1.681748e+02  -6.120248e-01
  -1.241064e+02  -5.291111e+01
  -1.951133e+01  -9.155168e+01
   1.010661e+02  -6.705957e+01
   1.385592e+02  -2.342351e+01
   5.681188e+01   4.167417e+01
  -6.027853e+01   4.850736e+01
  -7.797021e+01  -1.465875e+01
  -9.107182e+00  -6.581158e+01
   4.817753e+01  -4.423249e+01
   6.345471e+01  -8.579917e+00
   5.318354e+01   3.695589e+01
   4.191265e+01   3.274993e+01
   5.318392e+01   1.027493e+00
   6.367032e+01   1.737663e+00
   3.392131e+01   6.116921e+01
  -1.024010e+01   1.424801e+02
  -9.232972e+01   1.583575e+02
  -1.508043e+02   3.401579e+01
  -1.041715e+02  -8.995946e+01
  -2.380351e+01  -1.208209e+02
   6.940107e+01  -6.848312e+01
   5.696676e+01   1.069469e+01
  -4.875354e+01   1.785050e+01
  -1.263712e+02  -4.470748e+01
  -7.564761e+01  -9.272607e+01
   7.118689e+01  -1.234710e+02
   1.974709e+02  -7.712296e+01
   1.457052e+02   3.239546e+01
   5.095364e+01   7.827719e+01
  -5.751042e+01   6.471677e+01
  -4.903818e+01   9.510467e+00
   4.281372e+01  -2.595069e+01
   7.927427e+01   1.459507e+01
   2.872568e+01   1.008618e+02
  -8.604291e+01   1.473252e+02
  -1.547581e+02   6.265995e+01
  -1.158451e+02  -9.481256e+01
  -3.357625e+01  -2.028151e+02
   6.890625e+01  -1.369810e+02
   1.060380e+02  -3.051393e-01
   5.799775e+01   1.225613e+02
   3.182958e+00   9.962757e+01
  -3.952781e+01   2.190495e+01
  -5.354452e+01  -3.254415e+01
  -2.487237e+01  -1.007386e+01
  -5.283265e+00   1.823951e+01
  -2.425392e+01  -7.871430e+00
  -5.250771e+01  -8.033774e+01
  -3.660346e+01  -1.037988e+02
   4.340627e+01  -4.692071e+01
   1.245678e+02   3.067715e+01
   1.309042e+02   6.276302e+01
   2.021913e+01   4.471144e+01
  -7.652262e+01   2.630485e+01
  -8.515173e+01   1.773312e+01
  -1.083124e+01  -5.748580e+00
   3.627971e+01  -2.034806e+01
   1.407097e+01  -1.955968e+01
  -1.674493e+01   8.364638e-02
   4.151944e+00   7.713909e+00
   6.528604e+01   7.664833e+00
   8.412659e+01   2.429539e+01
   7.161786e+00   7.553999e+01
  -1.002623e+02   1.065799e+02
  -1.797779e+02   5.026595e+01
  -1.292334e+02  -6.612468e+01
  -4.433490e+01  -1.385626e+02
   7.369253e+01  -1.375410e+02
   9.974566e+01  -4.289610e+01
   7.493244e+01   1.639728e+01
   2.656776e+01   3.794434e+01
  -4.296004e+00   6.924784e+00
   1.014499e+01   6.462193e-01
   3.016044e+01   3.564378e+01
   3.355368e+01   8.699860e+01
  -2.601640e+01   7.145959e+01
  -8.029359e+01  -1.036221e+01
  -9.124245e+01  -7.613651e+01
  -7.870735e+00  -1.114826e+02
   7.231943e+01  -2.217492e+01
   9.748371e+01   7.723007e+01
   2.438466e+01   8.353435e+01
  -5.376505e+01   5.355085e+01
  -9.238192e+01  -1.847053e+01
  -4.010850e+01  -4.595163e+01
   2.490047e+01  -5.121050e+01
   2.819383e+01  -3.007498e+01
  -2.712800e+01   2.744746e+00
  -6.263690e+01   1.400991e+01
  -1.663712e+01  -1.866751e+01
   7.415280e+01  -6.892738e+01
   1.045213e+02  -3.374040e+01
   6.244557e+01   3.707644e+00
  -1.023177e+01   7.472231e+01
  -5.191707e+01   8.402000e+01
  -3.061037e+01   1.219095e+01
  -8.972543e+00  -5.420737e+01
   1.623985e+01  -4.298789e+01
   3.297996e+01   1.751329e+01
   2.618538e+01   5.479464e+01
   5.350711e+00   3.346034e+01
  -2.786543e+01  -7.588317e+00
  -3.905601e+01  -1.667312e+01
  -2.190929e+01  -7.834789e-01
   4.129427e+00   1.024319e+01
   7.840347e+00  -1.182953e+00
   1.718114e+00  -3.626561e+01
   8.854585e+00  -4.784536e+01
   3.347021e+01  -1.247102e+01
   3.494804e+01   3.538222e+01
   1.100405e+00   5.393685e+01
  -3.785081e+01   1.870374e+01
  -5.790782e+01  -3.491286e+01
  -1.639649e+01  -5.847716e+01
   4.630108e+01  -3.184028e+01
   8.598560e+01   1.239757e+01
   4.775023e+01   4.043801e+01
  -2.713463e+01   4.080257e+01
  -5.170756e+01   1.648548e+01
  -2.249704e+01   6.013692e+00
   2.951698e+01   1.327210e+00
   3.505074e+01   1.296662e+01
  -3.113607e+01   2.628442e+01
  -8.760579e+01   1.995855e+01
