
 $NMID
 id='ANONYMOUS ', fmtdat='(2E16.6)'
 volume=1.0
 tramp=1.0
 $END
   3.245047e+03  -2.938967e+02
   1.930158e+03   1.886016e+03
  -5.843371e+02   1.741910e+03
  -1.423403e+03   1.093544e+03
  -6.517456e+02  -5.231205e+02
   5.174826e+02  -5.532969e+02
   6.063950e+02   2.486691e+02
   1.923523e+02   7.521401e+02
  -6.983049e+02   5.474049e+02
  -7.161304e+02  -1.008771e+01
  -3.740735e+02  -5.172724e+02
   1.132659e+02  -6.856058e+02
   5.869068e+02  -7.509563e+01
   2.282730e+02   5.626136e+02
  -1.099139e+02   6.629517e+02
  -4.607386e+02   1.978632e+01
  -2.483347e+02  -5.071745e+02
   2.776360e+02  -4.839383e+02
   3.753072e+02  -6.304882e+01
   2.929539e+02   1.819401e+02
   5.409127e+01   2.794566e+02
  -1.677300e+02   1.846223e+02
  -1.464988e+02   4.410714e+01
   1.013108e+02   6.549353e+00
   2.949459e+02   9.539141e+01
   1.046101e+02   3.610041e+02
  -3.422351e+02   2.873467e+02
  -6.064550e+02  -7.056387e+01
  -3.212580e+02  -3.916900e+02
   2.719991e+02  -3.363575e+02
   4.935924e+02   4.191173e+01
   1.865978e+02   3.109098e+02
  -1.495857e+02   3.715408e+02
  -3.881787e+02   1.221909e+02
  -2.633619e+02  -2.158112e+02
  -9.118574e+01  -3.378881e+02
   1.784278e+02  -2.051028e+02
   1.022269e+02   1.834384e+02
  -1.437354e+02   3.718683e+02
  -3.525818e+02  -2.409004e+01
  -2.841671e+02  -4.501532e+02
   1.901897e+02  -4.977197e+02
   4.105960e+02   5.081450e+01
   1.386882e+02   3.960293e+02
  -2.146510e+02   2.593188e+02
  -3.309814e+02  -2.199388e+02
   1.542057e+01  -4.321177e+02
   3.708188e+02  -8.166139e+01
   4.856618e+02   2.087918e+02
   9.929136e+01   5.206488e+02
  -2.362427e+02   2.685076e+02
  -5.780041e+02   4.516753e+01
  -2.889565e+02  -3.105180e+02
   1.373196e+02  -2.969577e+02
   3.213740e+02  -4.557703e+01
   1.125495e+02   1.284736e+02
  -6.119862e+01   1.292548e+02
  -1.191604e+02  -1.251991e+02
   1.174007e+02  -1.397205e+02
   3.095461e+02   7.572392e+01
   1.017735e+02   1.832118e+02
  -1.543265e+02   1.736596e+02
  -2.132619e+02   5.161567e+01
  -1.732179e+02  -6.123149e+01
   1.473581e+01  -2.082754e+02
   1.616646e+02  -2.560296e+02
   2.450106e+02  -1.858398e+02
   2.082111e+02   8.598077e+01
   8.790858e+01   3.154012e+02
  -6.068565e+01   2.866641e+02
  -8.634090e+01   4.754510e+01
  -3.531632e+01   1.689432e+01
  -3.835140e+01   3.292546e+01
  -1.309430e+02   1.331190e+02
  -2.198505e+02  -8.399136e+01
  -1.394996e+02  -2.050831e+02
   4.171931e+01  -1.592711e+02
   1.662121e+02  -2.470261e+01
   1.748612e+02   1.897745e+02
   1.357320e+01   2.306927e+02
  -1.812697e+02   1.154392e+02
  -2.127451e+02  -8.696024e+01
  -1.964487e+02  -2.563301e+02
   7.851489e+01  -2.450097e+02
   1.836947e+02  -1.331378e+02
   1.284229e+02  -8.450188e+00
   8.651196e+01  -1.593735e+01
   2.091882e+02  -5.371322e+01
   3.082107e+02  -2.450552e+00
   2.685517e+02   1.671331e+02
   1.212806e+01   3.384193e+02
  -2.441688e+02   3.514459e+02
  -3.209017e+02   2.208575e+02
  -2.343390e+02  -7.180938e+01
  -2.231426e+01  -1.974000e+02
   1.044378e+02  -2.201032e+02
   5.913480e+01  -2.897563e+01
  -9.150811e+01   8.896637e+01
  -1.465072e+02   2.628532e+01
  -2.748257e+01  -1.325340e+02
   9.178432e+01  -1.347654e+02
   1.256964e+02   3.033898e+01
   3.052062e+00   1.533585e+02
  -1.269241e+02   2.586591e+01
  -1.346192e+02  -1.963176e+02
  -6.379692e+00  -2.395414e+02
   1.861639e+02  -1.392812e+02
   2.453462e+02   6.422643e+01
   2.329957e+02   1.907199e+02
   8.429722e+01   1.972873e+02
  -5.533302e+01   1.139396e+02
  -1.515425e+02   2.901313e+01
  -5.174995e+01  -2.765442e+01
   5.158118e+01   2.829858e+01
   1.014070e+01   7.859537e+01
  -9.563993e+01   7.335614e+01
  -1.466878e+02  -1.275570e+01
  -2.843925e+01  -5.226010e+01
   5.257773e+01  -1.708911e+01
   3.470921e+01   5.106871e+01
  -7.910558e+01   6.501190e+01
  -2.056883e+02   3.329265e+01
  -1.972627e+02  -1.255683e+02
  -6.284506e+01  -1.501812e+02
   1.048534e+02  -1.682294e+02
   1.761247e+02  -8.364441e+01
   1.407182e+02   1.468163e+01
  -1.335772e+01   7.711361e+01
  -6.164809e+01   6.005333e+00
  -1.574175e+00  -7.960872e+01
   1.258567e+02  -6.371948e+01
   1.352593e+02   4.981059e+01
   8.300417e+01   1.743096e+02
  -5.577235e+01   1.140475e+02
  -1.176788e+02   4.183588e+01
  -5.310800e+01  -2.869359e+01
   1.481098e+01  -2.902946e+00
   2.053950e+01   7.821147e+01
  -4.594157e+01   9.087830e+01
  -1.322799e+02   1.759650e+01
  -1.210832e+02  -9.207954e+01
  -2.863382e+01  -1.583771e+02
   1.160468e+02  -1.271048e+02
   1.417907e+02  -2.724471e+00
   5.977549e+01   9.919147e+01
  -6.037140e+01   9.578728e+01
  -6.250774e+01   2.025306e+01
  -1.616913e+01  -1.705730e+01
   1.424338e+01  -1.913980e+01
  -9.659540e+00   3.936594e+00
  -5.452727e+01  -5.424696e-01
  -6.663209e+01  -4.864518e+01
  -1.413607e+01  -1.289016e+02
   7.940718e+01  -1.105783e+02
   1.813888e+02  -3.302440e+01
   1.758988e+02   1.099119e+02
   3.542759e+01   1.696290e+02
  -7.334925e+01   1.095246e+02
  -1.095644e+02   2.986286e+01
  -5.944052e+01  -4.608907e+01
  -1.778932e+01  -2.343662e+01
  -4.086158e+01   1.518381e+01
  -5.448932e+01   9.743132e+00
  -3.753513e+01  -4.462118e+01
   3.522686e+01  -6.521210e+01
   7.994084e+01  -4.087560e+01
   6.315231e+01   1.809691e+01
   4.903164e+00   8.510018e+01
  -9.449395e+01   5.745229e+01
  -1.502556e+02  -3.981868e+01
  -9.107474e+01  -1.534747e+02
   5.665813e+01  -1.714449e+02
   1.913976e+02  -7.755426e+01
   1.872890e+02   6.997024e+01
   1.009783e+02   1.229861e+02
  -3.370744e+01   1.204135e+02
  -6.695248e+01   6.280208e+01
  -4.831971e+01   6.286728e+01
  -5.083933e+01   6.582730e+01
  -6.851154e+01   6.657534e+01
  -9.412617e+01  -2.916154e+01
  -9.690807e+01  -9.927709e+01
  -2.644634e+01  -2.035395e+02
   8.507374e+01  -1.271020e+02
   1.456271e+02  -2.760305e+00
   1.255341e+02   7.960218e+01
   2.374383e+00   1.118486e+02
  -4.747076e+01   7.341283e+01
  -4.617275e+01   7.147479e+00
   3.044935e+00  -3.212863e+01
  -6.655804e-01  -2.912191e+01
  -2.536323e+01  -1.681960e+01
  -6.479417e+01  -2.347657e+01
  -4.164984e+01  -3.025994e+01
   4.814570e+01  -3.217434e+01
   9.612669e+01  -1.434450e+01
   9.398172e+01   3.209211e+01
   1.955621e+01   5.876396e+01
  -8.339868e+01   6.070537e+01
  -1.264718e+02   1.178437e+01
  -3.315707e+01  -3.222400e+01
   5.126800e+01  -2.199251e+01
   5.132310e+01   1.495471e+01
   2.299004e+00   4.904738e+01
  -3.614902e+01   5.325449e+01
  -5.002943e+01   2.249337e+00
  -2.139352e+01  -3.931201e+01
  -3.546156e+01  -3.426713e+01
  -4.765859e+01   4.067570e+00
  -5.234980e+01   7.844234e+00
  -1.974223e+01  -4.454737e+01
   2.161263e+01  -9.941635e+01
   8.593754e+01  -9.961873e+01
   1.105998e+02  -1.891018e+01
   9.252145e+01   6.628706e+01
   1.368713e+01   1.079777e+02
  -6.512852e+01   4.063366e+01
  -4.597252e+01  -1.106520e+01
   4.087157e+01  -2.171346e+01
   1.059056e+02   4.851689e+01
   6.774849e+01   6.082312e+01
  -4.877748e+01   7.143965e+01
  -1.311781e+02   3.006221e+01
  -1.439412e+02  -1.272385e+01
  -3.483525e+01  -6.283821e+01
   4.364171e+01  -5.682821e+01
   3.754235e+01  -6.858090e+00
  -2.721190e+01   1.635718e+01
  -6.576792e+01  -1.473482e+01
  -2.446262e+01  -8.342720e+01
   3.888110e+01  -1.067357e+02
   1.233973e+02  -5.307098e+01
   1.117197e+02   7.067013e+01
  -1.144233e+00   1.353028e+02
  -6.462491e+01   1.238373e+02
  -6.595322e+01  -6.490929e+00
  -4.904695e+01  -8.074312e+01
   1.101663e+01  -7.305694e+01
   3.893529e+01  -1.708652e+01
   3.689913e+01   2.032005e+01
   1.693253e+01   7.369927e+00
   4.422038e+00  -1.427896e+01
   1.323049e+01   1.512529e+01
   4.437361e+01   6.123357e+01
   4.040848e+01   9.253173e+01
  -3.773767e+01   3.061384e+01
  -8.819901e+01  -3.079483e+01
  -1.006693e+02  -3.591160e+01
  -1.582073e+01  -3.905782e+01
   7.107022e+01  -1.618246e+01
   6.820190e+01   2.895123e+00
   1.103708e+01   5.888312e+00
  -2.711744e+01   1.951092e+01
  -1.251055e+01   1.278892e+01
   1.662374e+01  -5.816180e-01
  -4.868808e+00  -5.433887e+00
  -4.956090e+01  -5.287848e+00
  -6.823881e+01  -1.586460e+01
  -9.842061e+00  -5.280485e+01
   8.985308e+01  -8.601709e+01
   1.530743e+02  -3.692093e+01
   1.075110e+02   5.041999e+01
   3.176198e+01   1.173941e+02
  -7.279316e+01   1.231900e+02
  -9.560260e+01   5.480905e+01
  -6.527131e+01  -5.404702e+00
  -1.936950e+01  -2.420317e+01
   1.735155e+00  -6.731974e+00
  -8.103160e+00  -4.390489e+00
  -3.206881e+01  -2.883843e+01
  -6.523097e+00  -6.675818e+01
   2.113274e+01  -4.412723e+01
   6.859152e+01   1.101423e+01
   6.088375e+01   7.448622e+01
   1.489433e+01   7.473295e+01
  -5.809659e+01   2.047846e+01
  -7.325518e+01  -5.322739e+01
  -1.559653e+01  -7.366876e+01
   5.099751e+01  -4.676892e+01
   8.099587e+01   2.149182e+00
   3.280547e+01   4.277720e+01
  -1.733727e+01   3.024327e+01
  -2.915755e+01   2.092687e+01
   2.806951e+01   2.610123e+00
   4.935234e+01  -6.821373e-01
   1.508907e+01   2.072418e+01
  -6.214145e+01   5.482076e+01
  -9.294362e+01   6.267571e+01
  -4.948743e+01  -1.173329e+01
   9.938593e+00  -6.233947e+01
   4.120578e+01  -6.048259e+01
   3.066978e+01  -5.190113e+00
   1.055996e+00   4.881446e+01
  -2.413856e+01   3.093435e+01
  -2.555270e+01  -1.286836e+01
  -1.246929e+01  -3.721715e+01
   3.365608e+00  -2.800141e+01
   2.752538e+01   1.849307e+00
   2.459229e+01   1.822533e+01
   1.562994e+01   1.351450e+00
   4.890343e-01  -1.039954e+01
  -7.660200e+00   1.813601e+00
  -4.455024e+00   2.807365e+01
  -1.304193e+01   3.348332e+01
  -2.236737e+01   1.091926e+01
  -2.796130e+01  -3.785795e+01
   4.445668e+00  -4.498683e+01
   3.828329e+01  -1.300497e+01
   4.265602e+01   2.201588e+01
   1.670680e+01   4.877433e+01
  -4.269494e+01   2.559942e+01
  -6.056058e+01  -4.737375e+00
  -3.957743e+01  -3.588844e+01
   2.432086e+01  -2.754000e+01
   4.868593e+01  -1.601849e+01
   1.851366e+01  -3.765225e+00
  -3.118391e+01   2.007616e+00
  -2.484395e+01  -7.998718e+00
   1.483702e+01  -2.420095e+01
   6.617535e+01  -1.523759e+01
