
 $NMID
 id='ANONYMOUS ', fmtdat='(2E16.6)'
 volume=1.0
 tramp=1.0
 $END
  -1.614739e+03   1.577618e+02
  -7.965778e+02  -1.804109e+03
   7.168992e+02  -9.951617e+02
   9.643027e+02  -1.796742e+02
   3.252463e+02   3.457166e+02
  -3.628629e+02   2.622035e+02
  -4.827737e+02  -1.052384e+02
   3.528645e-01  -4.661678e+02
   3.396822e+02  -3.431374e+02
   3.900053e+02   1.172825e+02
   2.266017e+02   3.232582e+02
  -2.100404e+02   3.823224e+02
  -2.681982e+02  -1.264086e+01
  -2.185289e+02  -3.229860e+02
   1.270973e+02  -3.134403e+02
   2.787698e+02   6.546810e+01
   5.173080e+01   3.919348e+02
  -1.595232e+02   2.673036e+02
  -2.033302e+02   8.045210e+01
  -1.767996e+02  -1.741364e+02
   1.782812e+01  -1.893168e+02
   9.430509e+01  -1.053346e+02
   5.955721e+01  -1.107379e+01
  -2.766715e+01   4.745009e+01
  -1.792543e+02  -8.815311e+01
  -6.604836e+01  -2.564223e+02
   1.840834e+02  -2.471508e+02
   2.915076e+02   3.427561e+01
   9.348951e+01   2.625710e+02
  -1.567658e+02   2.339903e+02
  -2.655649e+02  -6.966736e+01
  -1.601219e+02  -2.911214e+02
   8.329280e+01  -2.362378e+02
   2.074496e+02  -7.180093e+01
   1.742303e+02   9.613283e+01
   5.424255e+01   2.168025e+02
  -1.351748e+02   1.076088e+02
  -4.468961e+01  -6.588132e+01
   1.516830e+02  -1.737035e+02
   1.586202e+02   3.055393e+01
   1.543502e+02   3.412496e+02
  -2.075016e+02   4.212160e+02
  -1.986988e+02  -2.581652e+01
  -1.003249e+02  -1.997885e+02
   2.039004e+02  -1.416449e+02
   1.656771e+02   1.894596e+02
  -7.078231e+01   1.995665e+02
  -2.722956e+02   7.227804e+01
  -2.956078e+02  -1.796494e+02
  -4.094758e+01  -2.883012e+02
   2.008663e+02  -1.274599e+02
   3.108059e+02  -1.782590e+01
   1.471033e+02   2.079407e+02
  -1.380689e+02   1.671581e+02
  -1.972667e+02   2.564369e+00
  -8.711192e+01  -5.372280e+01
   5.652873e+01  -7.312140e+01
   4.697243e+01   1.281982e+02
  -1.126643e+02   7.170807e+01
  -1.476155e+02  -1.086139e+02
  -6.200514e+01  -1.250309e+02
   7.834123e+01  -1.116698e+02
   1.788623e+02  -8.533712e+00
   8.215082e+01   5.407704e+01
   7.379024e+00   1.362289e+02
  -8.117254e+01   1.245220e+02
  -1.329122e+02   8.735561e+01
  -1.400373e+02  -7.945141e+01
  -3.195309e+01  -1.633159e+02
   3.890419e+01  -2.025597e+02
   7.252126e+01  -4.971103e+01
  -1.718383e+01   9.913726e+00
   6.585672e+00  -2.101187e+01
   1.010687e+02  -4.621614e+01
   1.016576e+02   2.886573e+01
   6.861648e+01   1.271899e+02
  -3.795681e+01   8.577470e+01
  -1.099775e+02  -4.548437e+00
  -7.959056e+01  -1.261680e+02
   5.163262e+01  -1.169093e+02
   1.246480e+02  -4.877879e+01
   1.437322e+02   9.073202e+01
   9.936084e+01   1.655934e+02
  -8.437761e+01   1.531147e+02
  -9.113040e+01   4.930863e+01
  -6.455128e+01  -7.004178e+00
  -3.491302e+01   2.155113e+01
  -1.188609e+02   3.312301e+01
  -1.816190e+02  -2.826544e+01
  -1.337610e+02  -1.353924e+02
   2.019673e+01  -1.777550e+02
   1.292452e+02  -2.256931e+02
   2.309873e+02  -5.818010e+01
   1.437361e+02   6.752703e+01
   8.320174e+00   1.233705e+02
  -7.854096e+01   1.354310e+02
  -4.988242e+01   2.552897e+01
   6.182865e+01  -4.047693e+01
   8.010905e+01   1.661536e+01
  -2.937148e+00   8.655421e+01
  -8.889207e+01   1.111873e+02
  -9.619928e+01  -2.382502e+01
   1.042744e+01  -8.139945e+01
   9.352744e+01  -2.602393e+01
   7.084049e+01   1.297754e+02
  -3.796146e+01   1.606049e+02
  -8.509023e+01   4.957867e+01
  -1.178006e+02  -3.200420e+01
  -1.334612e+02  -9.706854e+01
  -3.848081e+01  -1.027265e+02
   3.089129e+01  -7.037880e+01
   5.792556e+01  -1.825477e+01
   1.535648e+01   1.865440e+01
  -3.824144e+01  -1.995742e+01
  -2.011124e+01  -4.564351e+01
   7.298108e+01  -5.491732e+01
   7.402459e+01  -4.874308e+00
   3.020227e+01   3.931017e+01
  -3.657246e+01   1.774820e+01
  -2.725801e+01  -4.324733e+01
   6.857089e+01  -3.583157e+01
   1.246848e+02   2.323359e+01
   1.336401e+02   5.177660e+01
   1.232370e+01   1.066371e+02
  -8.518220e+01   1.316422e+02
  -9.352467e+01   9.059804e+01
  -8.159527e+01  -3.340115e+01
   4.912857e+00  -5.033500e+01
   3.624592e+01  -7.738451e+00
  -3.041800e+01   5.131940e+01
  -7.732396e+01   3.972491e+01
  -6.758170e+01  -5.991514e+01
  -3.016065e+01  -1.092441e+02
   3.771563e+01  -6.655796e+01
   7.482154e+01  -1.837896e+01
   2.421780e+01   2.399667e+01
  -1.266673e+01   2.986878e+00
  -1.795968e-01  -4.045123e+01
   3.210253e+01  -4.330573e+01
   8.410172e+01  -1.045382e+01
   8.549154e+01   2.410384e+01
   2.016165e+01   9.562436e+01
  -9.017200e+01   8.785488e+01
  -9.603722e+01  -1.505112e+01
  -3.270741e+01  -5.266756e+01
   4.109511e+01  -3.809728e+01
   3.772801e+01  -5.373143e+00
   1.110809e+01   1.246339e+01
  -1.545856e+01   7.488871e+00
   5.897714e-01  -2.982500e+00
   3.120104e+01   1.289765e+01
   4.541750e+01   3.865114e+01
   1.369574e+00   5.944632e+01
  -5.388202e+01   5.486507e+01
  -1.192479e+02  -1.994461e+00
  -9.420655e+01  -8.454590e+01
  -1.278710e+01  -1.020946e+02
   5.929236e+01  -6.969015e+01
   5.837525e+01  -1.082028e+01
   1.741449e+01   3.402921e+01
   1.301520e+01   1.475350e+01
   3.334218e+01  -7.441422e+00
   3.511178e+01  -8.889510e+00
   1.236898e+01   2.383313e+01
  -1.879595e+01   4.438555e+01
  -4.429645e+01   2.206382e+01
  -3.932286e+01  -2.341698e+01
   3.496369e+00  -4.848881e+01
   7.192497e+01  -3.807904e+01
   9.811262e+01   2.996156e+01
   2.388024e+01   7.328496e+01
  -5.127736e+01   7.829741e+01
  -1.154084e+02   3.651027e+01
  -9.547648e+01  -3.510718e+01
  -4.424196e+01  -9.504960e+01
   2.761277e+01  -5.269593e+01
   3.763209e+01  -4.538507e+01
   3.411688e+01  -4.328877e+01
   3.952689e+01  -3.015389e+01
   4.636807e+01  -2.813183e+01
   5.427434e+01   1.153464e+01
   4.353593e+01   8.027600e+01
   1.951508e+01   1.093752e+02
  -4.589891e+01   6.197429e+01
  -7.141731e+01   1.575052e+01
  -3.553502e+01  -6.242114e+01
  -1.401751e+01  -5.735230e+01
   1.939208e+01  -3.967423e+01
   2.266344e+01   6.173367e+00
   3.896227e+00   1.273190e+01
  -4.389471e+00   1.554283e+01
   1.614812e+01   1.568286e+01
   2.526815e+01   1.166866e+01
   2.221377e+01   1.757484e+01
  -4.114351e+01   1.789261e+01
  -5.637654e+01   7.921116e+00
  -7.512917e+01  -1.829190e+01
  -1.548107e+01  -3.714874e+01
   4.098438e+01  -3.015162e+01
   8.385779e+01   7.856202e+00
   1.627327e+01   1.576222e+01
  -2.889305e+01   1.453262e+01
  -2.737114e+01  -1.041826e+01
  -7.412189e-02  -2.682616e+01
   2.603234e+01  -2.814728e+01
   2.789140e+01   1.146719e+01
   1.638648e+01   2.702894e+01
   1.391748e+01   2.248977e+01
   2.404669e+01   8.496280e+00
   2.405061e+01   9.103361e-01
   1.281207e+01   3.323556e+01
  -1.290603e+01   6.572887e+01
  -3.646879e+01   4.154055e+01
  -6.523638e+01   1.835487e+01
  -7.318953e+01  -5.143929e+01
   4.673116e+00  -4.688933e+01
   2.768585e+01  -1.761849e+01
   2.381148e+01   5.460255e+00
  -3.320183e+01   7.119614e+00
  -6.240733e+01  -2.062860e+01
  -3.568141e+01  -4.782491e+01
   3.215264e+01  -4.596551e+01
   6.492282e+01  -2.782720e+01
   7.443184e+01   1.474408e+01
   1.268456e+01   4.214790e+01
  -2.922192e+01   2.153019e+01
  -2.297296e+01  -1.784010e-02
   1.785212e+01  -1.590888e+01
   3.472187e+01   1.443644e+01
   3.181029e+01   5.517508e+01
  -4.223199e+01   6.975128e+01
  -6.667283e+01   3.177546e+01
  -4.418942e+01  -5.547035e+01
  -4.493771e-01  -9.034872e+01
   5.017620e+01  -4.994076e+01
   4.749946e+01  -2.198041e+00
   3.689126e+01   6.432822e+01
  -1.399849e+00   3.777478e+01
  -2.003355e+01   7.120657e+00
  -2.547544e+01  -5.796476e+00
  -1.288284e+01  -3.457192e+00
  -4.403545e+00   7.908321e+00
  -5.482110e+00  -8.676910e+00
  -2.498931e+01  -4.580776e+01
  -1.001100e+01  -4.981788e+01
   1.987219e+01  -1.472580e+01
   5.896368e+01   2.412158e+01
   5.154113e+01   4.754360e+01
   1.567472e+00   2.168994e+01
  -3.840667e+01   7.753512e+00
  -4.101885e+01   1.794131e+00
  -6.026586e+00  -4.713936e+00
   1.402060e+01  -5.148533e+00
   5.966525e+00  -9.117645e+00
  -5.971337e+00  -2.544331e-01
   3.310813e+00   4.915786e+00
   3.322505e+01  -3.774766e+00
   3.980066e+01   1.950316e+01
   8.166105e+00   2.840701e+01
  -4.393799e+01   6.152994e+01
  -7.184139e+01   2.021059e+01
  -8.457738e+01  -2.853160e+00
   1.222385e+01  -7.113103e+01
   2.488495e+01  -6.513106e+01
   6.435554e+01  -3.179098e+01
   3.715024e+01   1.125855e+01
   1.310003e+01   1.249094e+01
   1.914942e-01   4.930661e+00
   5.067450e+00   2.847856e+00
   1.346596e+01   1.982250e+01
   2.015220e+00   2.869733e+01
  -4.881803e+00   3.566272e+01
  -3.428832e+01  -1.578056e+01
  -4.141108e+01  -5.545922e+01
   3.212017e+00  -4.327566e+01
   3.192831e+01  -1.701092e+01
   4.502916e+01   3.497667e+01
   1.677278e+01   4.744309e+01
  -3.785230e+01   1.867000e+01
  -4.093393e+01  -5.041836e+00
  -1.765418e+01  -2.288158e+01
   1.420865e+01  -2.497223e+01
   6.739682e+00  -1.070776e+01
  -1.559350e+01   1.660929e+00
  -3.085719e+01   5.785253e+00
  -5.117154e+00  -1.319227e+01
   3.061292e+01  -2.744704e+01
   5.104507e+01  -2.463329e+01
   2.844275e+01   1.150774e+01
  -4.358382e+00   3.177538e+01
  -2.668259e+01   3.297629e+01
  -2.141468e+01   3.062298e+00
   5.161013e+00  -2.084855e+01
   1.192337e+01  -1.652091e+01
   1.574177e+01   8.909924e+00
   1.228931e+01   1.734014e+01
   2.115304e+00   1.050986e+01
  -1.258751e+01  -7.256374e+00
  -1.743679e+01  -1.095761e+01
  -7.593825e+00  -1.385329e+00
  -3.081617e-01   4.766932e+00
   3.038525e+00   1.002548e+00
   6.692845e+00  -1.206438e+01
   8.442555e+00  -2.001875e+01
   1.641219e+01  -5.629335e+00
   1.432373e+01   2.343512e+01
   4.809062e+00   2.357997e+01
  -2.170918e+01   8.183745e+00
  -2.375434e+01  -1.642172e+01
  -2.816166e+00  -2.825663e+01
   2.217318e+01  -1.276743e+01
   3.889626e+01   8.526787e+00
   1.498425e+01   1.975139e+01
  -9.913605e+00   1.701578e+01
  -2.555606e+01   5.635051e+00
  -1.452590e+01   2.727983e+00
   1.256423e+01  -1.000812e+00
   1.954095e+01   7.321682e+00
  -1.558206e+01   2.041728e+01
  -3.660829e+01   1.232548e+01
