
 $NMID
 id='ANONYMOUS ', fmtdat='(2E16.6)'
 volume=1.0
 tramp=1.0
 $END
  -4.079330e+03  -2.021863e+02
  -2.412102e+03  -2.592638e+03
   8.884572e+02  -2.647753e+03
   1.822094e+03  -9.102364e+02
   1.051303e+03   7.284510e+02
  -7.659581e+02   7.652898e+02
  -8.926431e+02  -4.265416e+02
   5.199088e+00  -1.060569e+03
   9.361160e+02  -8.970782e+02
   9.258086e+02   2.688337e+01
   3.939198e+02   9.202283e+02
  -2.878662e+02   7.957086e+02
  -6.348079e+02   1.418538e+02
  -2.963214e+02  -6.355415e+02
   2.957787e+02  -7.801853e+02
   6.254171e+02  -4.386153e+01
   2.214750e+02   5.831152e+02
  -3.236376e+02   6.820217e+02
  -5.741224e+02   7.551392e+01
  -4.070268e+02  -3.777072e+02
   3.360513e+01  -4.394526e+02
   1.990386e+02  -2.806092e+02
   2.609645e+02  -2.853384e+01
  -1.066110e+02   9.033415e+01
  -3.782967e+02  -8.308036e+01
  -2.151985e+02  -3.602212e+02
   5.384389e+02  -3.874107e+02
   7.907648e+02   8.204715e+01
   5.120806e+02   6.194646e+02
  -3.688126e+02   4.504706e+02
  -7.924459e+02  -3.942774e+01
  -3.661913e+02  -4.796009e+02
   2.592344e+02  -5.556673e+02
   5.903925e+02  -1.776132e+02
   4.283208e+02   2.592284e+02
   5.505573e+01   4.303482e+02
  -2.291525e+02   2.780490e+02
  -1.319634e+02  -1.705438e+02
   1.214116e+02  -4.615528e+02
   4.291220e+02   6.148300e+00
   2.725520e+02   7.258061e+02
  -3.461459e+02   6.387444e+02
  -5.620755e+02   7.464631e+01
  -2.416431e+02  -4.519495e+02
   3.492474e+02  -3.110347e+02
   4.061222e+02   3.804023e+02
  -3.867285e+01   4.912753e+02
  -6.004819e+02   1.351631e+02
  -5.469929e+02  -3.939605e+02
  -9.476364e+01  -5.926972e+02
   3.669937e+02  -2.618805e+02
   6.785779e+02   8.949932e+01
   3.702669e+02   3.590075e+02
  -1.255514e+02   3.627009e+02
  -4.569040e+02   5.823255e+01
  -2.882599e+02  -2.181150e+02
   1.459227e+02  -1.169131e+02
   1.556406e+02   1.683404e+02
  -1.509850e+02   1.864087e+02
  -3.341066e+02  -1.023322e+02
  -1.427633e+02  -2.644207e+02
   1.967970e+02  -2.652337e+02
   3.082259e+02  -7.288329e+01
   1.995996e+02   8.263073e+01
  -4.559308e+01   1.957007e+02
  -2.101521e+02   3.024090e+02
  -3.123837e+02   2.369185e+02
  -3.049798e+02  -1.203968e+02
  -8.141823e+01  -4.753363e+02
   8.692095e+01  -4.175492e+02
   1.556303e+02  -1.207539e+02
   4.343739e+01   5.179425e+00
   2.151927e+01  -9.174517e+01
   1.960321e+02  -1.162170e+02
   3.040396e+02   4.478356e+00
   1.592478e+02   2.705622e+02
  -8.473586e+01   2.466265e+02
  -2.479237e+02   9.674489e+00
  -1.915904e+02  -2.455776e+02
   3.085931e+01  -2.546140e+02
   2.771848e+02  -1.366986e+02
   3.942396e+02   1.226598e+02
   1.843905e+02   3.498721e+02
  -8.142773e+01   2.895740e+02
  -2.114568e+02   1.232843e+02
  -1.507145e+02  -2.462763e+00
  -8.000199e+01   3.165150e+01
  -2.079248e+02   6.235836e+01
  -3.624801e+02  -4.136431e+01
  -3.052947e+02  -2.702299e+02
  -2.500514e+01  -4.540434e+02
   3.382513e+02  -3.897114e+02
   4.753654e+02  -2.079789e+02
   3.168423e+02   1.247237e+02
   6.314689e+01   2.809045e+02
  -1.281831e+02   2.614308e+02
  -9.225565e+01   2.178940e+01
   1.023803e+02  -1.085440e+02
   1.973630e+02   1.947402e+01
   8.355166e+01   1.887458e+02
  -1.630028e+02   1.569553e+02
  -2.047241e+02  -6.237423e+01
   2.968021e+01  -1.778379e+02
   1.874035e+02  -3.846579e+01
   1.687755e+02   2.290964e+02
  -4.180040e+01   3.673599e+02
  -2.282302e+02   1.823512e+02
  -3.371765e+02  -9.078066e+01
  -2.941016e+02  -2.335668e+02
  -1.076745e+02  -2.398937e+02
   1.066010e+02  -1.533092e+02
   1.728984e+02  -1.944943e+01
   5.946963e+01   2.481635e+01
  -8.111590e+01  -4.311715e+01
  -3.520757e+01  -1.179653e+02
   1.120143e+02  -1.006222e+02
   1.804911e+02   7.818986e+00
   6.305187e+01   6.172354e+01
  -8.032390e+01   3.958842e+00
  -5.582472e+01  -6.903260e+01
   1.193049e+02  -8.022232e+01
   2.637227e+02   4.392559e+01
   2.460864e+02   1.476737e+02
   7.980368e+01   2.308549e+02
  -1.794453e+02   2.696717e+02
  -2.851996e+02   9.248621e+01
  -1.750010e+02  -7.240930e+01
   2.264975e+01  -1.229479e+02
   9.254063e+01  -1.881818e+01
  -3.070168e+01   9.360621e+01
  -1.784745e+02   6.652857e+01
  -2.048334e+02  -1.054034e+02
  -6.306933e+01  -1.944093e+02
   9.523340e+01  -1.472538e+02
   1.443877e+02  -2.135129e+01
   7.625042e+01   4.425377e+01
  -2.684261e+01   6.323652e+00
  -3.521236e+01  -8.252221e+01
   5.931199e+01  -1.084713e+02
   2.181169e+02  -1.328367e+01
   1.829342e+02   1.163628e+02
   1.373508e+01   2.179494e+02
  -1.711996e+02   1.727988e+02
  -1.980301e+02  -1.986628e+01
  -5.906632e+01  -1.100742e+02
   5.985181e+01  -9.965947e+01
   7.908082e+01  -2.942039e+01
   1.572471e+01   2.652391e+01
  -1.488990e+01   1.678488e+01
   1.142976e+01  -9.441103e+00
   6.571324e+01   1.319415e+01
   8.664666e+01   6.731632e+01
   3.269168e+01   1.551192e+02
  -1.277215e+02   1.376262e+02
  -2.070559e+02   4.096012e+01
  -2.071313e+02  -1.553454e+02
  -2.009259e+01  -2.288369e+02
   1.145923e+02  -1.540846e+02
   1.312773e+02  -1.526422e+01
   6.688696e+01   5.617552e+01
   2.987730e+01   3.715538e+01
   5.190233e+01  -6.907353e+00
   8.633429e+01  -1.017300e+01
   4.816489e+01   5.112108e+01
  -4.427253e+01   8.959502e+01
  -9.882897e+01   5.957155e+01
  -6.957447e+01  -4.106714e+01
   1.314927e+01  -9.737391e+01
   1.131015e+02  -8.011994e+01
   1.828626e+02   6.602518e+01
   1.061737e+02   1.716197e+02
  -9.840661e+01   2.070401e+02
  -2.613702e+02   8.851350e+01
  -2.596115e+02  -7.900754e+01
  -1.015809e+02  -1.725179e+02
   2.814575e+01  -1.323597e+02
   9.573505e+01  -9.309695e+01
   7.972302e+01  -6.783607e+01
   7.256242e+01  -9.459955e+01
   8.445739e+01  -6.790809e+01
   1.267752e+02   2.976579e+01
   1.022455e+02   1.696247e+02
   3.037529e+01   2.000653e+02
  -1.197197e+02   1.677862e+02
  -1.781810e+02   1.384284e+01
  -1.165719e+02  -1.109148e+02
  -2.163111e+01  -1.659285e+02
   5.450063e+01  -1.111027e+02
   5.476174e+01   4.332382e-01
   8.877014e+00   4.532632e+01
  -7.648996e+00   3.212984e+01
   2.994951e+01   1.893676e+01
   7.446457e+01   1.550787e+01
   4.079984e+01   3.417697e+01
  -6.661619e+01   3.188094e+01
  -1.483487e+02  -2.894812e+00
  -1.513925e+02  -5.605339e+01
  -1.530630e+01  -8.653459e+01
   1.097754e+02  -9.675862e+01
   1.358474e+02  -1.437498e+01
   5.060952e+01   3.931235e+01
  -6.292083e+01   3.389724e+01
  -6.908319e+01  -1.688934e+01
  -1.086582e+01  -6.724210e+01
   5.185806e+01  -5.432822e+01
   5.957110e+01  -6.419579e-01
   4.079514e+01   4.896752e+01
   4.450184e+01   3.475114e+01
   5.889755e+01   1.866492e+00
   6.965033e+01   2.962320e+00
   3.621788e+01   6.795032e+01
  -3.147723e+01   1.452210e+02
  -1.159924e+02   1.388950e+02
  -1.665412e+02   2.638723e+01
  -1.202579e+02  -7.714105e+01
  -1.189998e+01  -1.268233e+02
   7.804569e+01  -5.764309e+01
   5.892082e+01   1.366518e+01
  -5.451853e+01   1.409023e+01
  -1.346270e+02  -3.709091e+01
  -5.614730e+01  -1.036385e+02
   7.979049e+01  -1.190055e+02
   1.853538e+02  -3.259112e+01
   1.484231e+02   3.227652e+01
   3.514636e+01   8.175890e+01
  -4.354420e+01   6.392875e+01
  -3.865929e+01   7.285562e+00
   4.044945e+01  -2.621318e+01
   8.683279e+01   2.227726e+01
   3.082744e+01   1.167817e+02
  -9.553839e+01   1.561994e+02
  -1.662728e+02   8.106157e+01
  -1.140672e+02  -8.493693e+01
  -8.053462e+00  -1.951536e+02
   9.574288e+01  -1.395642e+02
   9.944767e+01   9.115868e+00
   7.108843e+01   1.187151e+02
  -2.602382e+00   1.033132e+02
  -4.102323e+01   1.898348e+01
  -5.455394e+01  -3.023889e+01
  -2.524676e+01  -1.052268e+01
  -3.840306e+00   1.862158e+01
  -2.062512e+01  -1.503606e+01
  -5.682881e+01  -8.551505e+01
  -4.646883e+01  -1.010730e+02
   3.938052e+01  -3.884497e+01
   1.397451e+02   4.306539e+01
   1.212899e+02   7.377921e+01
   1.551298e+01   4.531262e+01
  -9.064584e+01   1.830396e+01
  -8.646483e+01   6.825756e+00
  -9.065047e+00  -4.053475e+00
   3.782349e+01  -1.728041e+01
   1.304865e+01  -2.002079e+01
  -1.891345e+01   4.154280e+00
   6.046428e+00   7.949110e+00
   8.247635e+01   6.216836e+00
   9.090625e+01   2.316147e+01
   4.986836e+00   8.735730e+01
  -1.163546e+02   1.274891e+02
  -1.681790e+02   5.055781e+01
  -1.320617e+02  -7.942036e+01
  -1.099860e+01  -1.539980e+02
   6.646790e+01  -1.340196e+02
   1.142004e+02  -4.292127e+01
   7.523661e+01   2.090732e+01
   2.096060e+01   3.442212e+01
  -4.726697e+00   1.059732e+01
   8.482260e+00   3.062919e+00
   2.799393e+01   4.151396e+01
   2.972382e+01   9.397703e+01
  -3.549327e+01   7.258159e+01
  -8.063027e+01  -1.579029e+01
  -8.211985e+01  -1.167935e+02
  -6.553461e+00  -1.073887e+02
   8.320855e+01  -2.620511e+01
   1.133611e+02   7.874184e+01
   3.194796e+01   1.034967e+02
  -6.835675e+01   4.929223e+01
  -9.907192e+01  -6.173144e+00
  -3.272770e+01  -6.105445e+01
   3.779625e+01  -5.210959e+01
   2.360955e+01  -3.225336e+01
  -3.342924e+01   1.668969e+00
  -6.839429e+01   3.232642e+00
  -1.274050e+01  -2.197982e+01
   8.442856e+01  -6.041797e+01
   1.098015e+02  -5.529959e+01
   5.453259e+01   1.246228e+01
  -8.476982e+00   8.242447e+01
  -5.739752e+01   7.602035e+01
  -3.552884e+01   2.951000e+00
  -3.333985e+00  -5.211410e+01
   2.432174e+01  -3.638344e+01
   3.276267e+01   1.825038e+01
   2.454331e+01   5.393168e+01
  -1.263481e+00   3.159162e+01
  -2.715987e+01  -1.149276e+01
  -3.682128e+01  -1.970647e+01
  -1.825737e+01  -2.283234e+00
  -1.176833e-04   1.262891e+01
   6.255004e+00  -4.424542e+00
   1.034231e+01  -3.293252e+01
   2.081463e+01  -4.196820e+01
   3.856448e+01  -3.985306e+00
   3.381013e+01   4.866247e+01
  -1.867199e+00   6.614199e+01
  -4.178098e+01   1.474710e+01
  -5.636358e+01  -3.694149e+01
  -1.062714e+01  -6.165874e+01
   4.790144e+01  -3.416797e+01
   8.218671e+01   1.132932e+01
   4.955404e+01   3.811079e+01
  -2.407240e+01   4.139516e+01
  -5.957580e+01   2.231311e+01
  -2.266323e+01   4.712338e+00
   3.254458e+01  -6.797521e-01
   3.867565e+01   1.599666e+01
  -3.318090e+01   3.116453e+01
  -9.303789e+01   2.052564e+01
