
 $NMID
 id='ANONYMOUS ', fmtdat='(2E16.6)'
 volume=1.0
 tramp=1.0
 $END
   3.939054e+03  -4.520182e+02
   2.886693e+03   1.804376e+03
  -2.937550e+02   2.413602e+03
  -2.084307e+03   9.078151e+02
  -1.196960e+03  -4.934521e+02
   4.778302e+02  -5.897711e+02
   8.705821e+02   2.556373e+02
   3.587438e+01   1.107541e+03
  -8.443038e+02   7.140083e+02
  -9.726564e+02   4.167941e+01
  -5.083104e+02  -9.037549e+02
   1.856065e+02  -9.562170e+02
   5.194213e+02  -2.398262e+02
   3.806135e+02   7.142357e+02
  -2.153418e+02   8.398209e+02
  -5.073661e+02   4.896364e+01
  -3.731938e+02  -6.995861e+02
   3.219975e+02  -6.102103e+02
   5.565917e+02  -1.447423e+02
   4.778308e+02   2.686332e+02
   7.736224e+01   4.263971e+02
  -2.189312e+02   2.548982e+02
  -1.830973e+02   4.025020e+01
   1.224982e+02  -5.040259e+01
   3.775097e+02   1.700411e+02
   1.700767e+02   3.403219e+02
  -4.796754e+02   3.922442e+02
  -8.333395e+02  -6.288347e+01
  -4.083595e+02  -5.354660e+02
   3.136229e+02  -4.545075e+02
   7.175514e+02  -1.743352e+01
   3.952719e+02   3.919417e+02
  -2.437437e+02   5.175122e+02
  -5.518931e+02   2.430811e+02
  -3.995404e+02  -2.064186e+02
  -1.544758e+02  -4.516780e+02
   1.360209e+02  -3.037383e+02
   1.435547e+02   1.901888e+02
  -1.657320e+02   4.020832e+02
  -4.153573e+02  -2.899890e+01
  -2.201945e+02  -6.855337e+02
   2.595312e+02  -7.366077e+02
   5.381928e+02  -3.928305e+01
   1.974971e+02   5.063802e+02
  -2.557323e+02   3.067688e+02
  -3.384780e+02  -3.010527e+02
   4.002149e+01  -5.281100e+02
   5.631194e+02  -1.649367e+02
   6.292180e+02   3.666949e+02
   2.100210e+02   5.683255e+02
  -3.409731e+02   4.155748e+02
  -6.320062e+02  -6.746447e+01
  -4.147671e+02  -3.474491e+02
   5.498078e+01  -3.600528e+02
   4.629915e+02  -3.578144e+01
   2.497755e+02   2.024791e+02
  -1.062749e+02   9.492494e+01
  -1.513289e+02  -1.193952e+02
   1.723155e+02  -2.230036e+02
   3.716585e+02   4.926303e+01
   1.954840e+02   2.970201e+02
  -1.989249e+02   2.793281e+02
  -3.423168e+02   7.630024e+01
  -2.097589e+02  -1.122203e+02
  -3.449222e+00  -2.234996e+02
   2.546518e+02  -3.120881e+02
   3.742529e+02  -2.249568e+02
   2.914542e+02   1.276006e+02
   1.176977e+02   4.170782e+02
  -6.033280e+01   3.913550e+02
  -1.271276e+02   1.457272e+02
  -4.700099e+01  -2.085190e+01
  -7.110918e+01   7.946376e+01
  -2.057116e+02   1.064787e+02
  -2.663130e+02  -8.488944e+01
  -1.664255e+02  -2.791997e+02
   3.832226e+01  -2.623010e+02
   2.231940e+02   2.297426e+00
   1.977451e+02   2.280959e+02
   2.510791e+00   2.970726e+02
  -2.312371e+02   1.182387e+02
  -3.951701e+02  -1.528275e+02
  -1.829043e+02  -3.724586e+02
   5.078509e+01  -3.131597e+02
   1.988925e+02  -1.589946e+02
   1.463223e+02  -1.473241e+01
   1.047700e+02  -2.976714e+01
   2.395951e+02  -6.854335e+01
   4.076406e+02   8.215842e+01
   3.760641e+02   2.530532e+02
  -2.053515e+00   4.253552e+02
  -3.257106e+02   4.981429e+02
  -4.723174e+02   2.736921e+02
  -3.504535e+02  -4.615868e+01
  -4.410661e+01  -2.800423e+02
   8.341291e+01  -2.422677e+02
   6.423155e+01  -3.365963e+01
  -1.063386e+02   1.132242e+02
  -1.597833e+02   3.065480e+01
  -4.144594e+01  -1.987349e+02
   1.439189e+02  -1.917090e+02
   1.722026e+02   6.522489e+01
   1.886599e+00   2.042696e+02
  -1.988424e+02   3.799855e+01
  -1.936612e+02  -2.596088e+02
  -9.631254e+00  -3.587018e+02
   2.404598e+02  -2.463353e+02
   3.559328e+02   4.721741e+01
   2.502550e+02   2.562906e+02
   1.083513e+02   2.939507e+02
  -1.005095e+02   1.726386e+02
  -1.659173e+02   1.201682e+01
  -6.157126e+01  -2.865499e+01
   5.790241e+01   4.476132e+01
   1.983711e+01   1.180681e+02
  -1.316792e+02   9.880243e+01
  -1.619951e+02  -1.621308e+01
  -5.864440e+01  -6.717841e+01
   7.233725e+01  -1.679600e+01
   4.747633e+01   7.989873e+01
  -1.045256e+02   9.360207e+01
  -3.031584e+02   2.146060e+01
  -2.557163e+02  -1.355309e+02
  -4.413457e+01  -2.859681e+02
   1.937220e+02  -2.365931e+02
   2.780379e+02  -9.945018e+01
   1.726971e+02   2.588509e+01
  -2.507584e+01   1.059035e+02
  -9.395219e+01   1.775618e+01
   2.209870e+01  -9.685837e+01
   1.826804e+02  -6.587076e+01
   2.201683e+02   1.241930e+02
   7.471569e+01   2.026923e+02
  -9.362907e+01   1.600861e+02
  -1.429650e+02   2.499947e+01
  -7.599095e+01  -4.393585e+01
   2.183550e+01  -4.095569e+00
   3.928569e+01   8.975356e+01
  -6.929604e+01   1.141306e+02
  -2.050317e+02   2.387738e+01
  -1.813809e+02  -1.365318e+02
  -2.863815e+01  -2.145208e+02
   1.756085e+02  -1.779853e+02
   1.823576e+02  -2.892320e+01
   7.131001e+01   1.063847e+02
  -6.711380e+01   1.061735e+02
  -8.246099e+01   3.828142e+01
  -1.338147e+01  -2.345917e+01
   1.817482e+01  -8.989051e+00
  -7.952104e+00   7.497056e+00
  -8.514464e+01   7.357350e-01
  -1.045803e+02  -1.056718e+02
   6.078284e+00  -1.846960e+02
   9.921209e+01  -1.699225e+02
   2.287709e+02  -1.612204e+01
   2.125204e+02   1.549113e+02
   6.070949e+01   2.132200e+02
  -8.934137e+01   1.711216e+02
  -1.502637e+02   3.369671e+01
  -7.901696e+01  -4.795685e+01
  -2.852808e+01  -3.210608e+01
  -4.999071e+01   2.096003e+01
  -7.631628e+01  -9.643923e-01
  -3.723116e+01  -4.674496e+01
   3.529943e+01  -9.368097e+01
   1.056344e+02  -5.686540e+01
   8.667566e+01   2.719445e+01
  -2.487608e+01   1.293725e+02
  -1.401787e+02   1.098309e+02
  -1.900487e+02  -4.180210e+01
  -1.009011e+02  -2.232969e+02
   1.200277e+02  -2.232234e+02
   2.452227e+02  -1.006327e+02
   2.678026e+02   8.110624e+01
   1.163031e+02   1.687600e+02
  -1.141019e+01   1.503664e+02
  -9.350649e+01   7.396422e+01
  -7.536188e+01   7.608518e+01
  -5.632753e+01   8.733591e+01
  -9.272174e+01   7.963577e+01
  -1.347795e+02  -1.275483e+01
  -1.228702e+02  -1.339795e+02
  -4.977375e+01  -2.130098e+02
   8.671303e+01  -1.642620e+02
   1.599169e+02  -9.613124e+00
   1.526774e+02   1.318563e+02
   1.257800e+01   1.463778e+02
  -8.483270e+01   8.790195e+01
  -6.102691e+01  -3.919893e+00
   3.449040e-01  -4.667230e+01
   1.320816e+01  -4.095115e+01
  -3.766906e+01  -1.398873e+01
  -8.720499e+01  -1.341986e+01
  -5.282976e+01  -3.743651e+01
   5.988331e+01  -4.012191e+01
   1.789516e+02  -5.730418e+00
   1.347329e+02   3.742763e+01
   7.560421e+00   9.109981e+01
  -1.329225e+02   8.197899e+01
  -1.462133e+02   3.128250e+01
  -5.306401e+01  -5.146573e+01
   6.140114e+01  -3.942119e+01
   8.100527e+01   1.401855e+01
   1.242992e+01   6.950338e+01
  -4.287833e+01   6.597471e+01
  -6.390887e+01   7.109286e-01
  -5.261772e+01  -4.877883e+01
  -4.121776e+01  -4.293666e+01
  -6.414231e+01   1.568701e+00
  -6.534497e+01  -2.162266e+00
  -4.279367e+01  -7.240077e+01
   4.961649e+01  -1.502616e+02
   1.332497e+02  -1.359412e+02
   1.451752e+02  -3.317891e+01
   1.208567e+02   8.284295e+01
   2.013883e+01   1.260200e+02
  -8.880196e+01   6.384138e+01
  -6.792962e+01  -1.162479e+01
   5.781873e+01  -2.238034e+01
   1.378381e+02   3.295590e+01
   8.598440e+01   1.109953e+02
  -9.611490e+01   1.251809e+02
  -1.951680e+02   5.478412e+01
  -1.758267e+02  -3.484396e+01
  -4.477884e+01  -8.916614e+01
   5.816764e+01  -6.868486e+01
   5.052332e+01  -6.315397e+00
  -3.623272e+01   2.544047e+01
  -9.930470e+01  -1.256376e+01
  -4.244467e+01  -1.186768e+02
   7.804970e+01  -1.537538e+02
   1.649831e+02  -5.993903e+01
   1.377536e+02   8.589878e+01
   8.266904e+00   2.272235e+02
  -5.661072e+01   1.284320e+02
  -1.060580e+02  -1.576341e+01
  -4.880285e+01  -1.176621e+02
  -6.353308e+00  -1.106056e+02
   4.816653e+01  -2.329290e+01
   5.038143e+01   3.615944e+01
   2.674413e+01   9.608125e+00
   2.761605e+00  -1.948066e+01
   2.250162e+01   1.582195e+01
   6.927235e+01   7.830754e+01
   4.846039e+01   1.008620e+02
  -4.452066e+01   4.392592e+01
  -1.222212e+02  -2.851157e+01
  -1.259437e+02  -5.734929e+01
  -1.542069e+01  -5.112149e+01
   9.411477e+01  -1.366727e+01
   8.427473e+01  -1.632387e+01
   1.197566e+01   7.679506e+00
  -3.999153e+01   2.606075e+01
  -1.581189e+01   1.796081e+01
   1.959411e+01  -7.115500e-01
  -5.449781e+00  -7.829674e+00
  -7.286019e+01  -4.515177e+00
  -8.380131e+01  -1.528931e+01
  -1.187743e+01  -7.918902e+01
   1.044551e+02  -1.007020e+02
   1.988053e+02  -6.389261e+01
   1.449986e+02   5.323817e+01
   2.892761e+01   1.578310e+02
  -7.870236e+01   1.580752e+02
  -1.070397e+02   6.687012e+01
  -8.698533e+01  -1.998391e+01
  -2.439691e+01  -3.527898e+01
   3.492495e+00  -1.034456e+01
  -1.132418e+01  -4.808313e+00
  -3.587901e+01  -5.112578e+01
  -1.233864e+01  -9.747190e+01
   3.172827e+01  -8.252937e+01
   8.599915e+01   1.451358e+01
   8.033363e+01   9.221829e+01
   7.147175e+00   1.237170e+02
  -7.933034e+01   2.210977e+01
  -1.005390e+02  -6.688101e+01
  -3.084441e+01  -1.052207e+02
   6.363290e+01  -5.700541e+01
   1.069290e+02   1.401848e+01
   4.502066e+01   4.685000e+01
  -3.934727e+01   5.244841e+01
  -3.631953e+01   3.335208e+01
   3.807087e+01  -3.033286e+00
   6.648687e+01  -1.098664e+01
   1.709555e+01   2.655897e+01
  -7.836592e+01   7.552046e+01
  -1.187456e+02   5.650041e+01
  -6.716267e+01  -7.159080e+00
   1.151127e+01  -7.655019e+01
   5.018242e+01  -7.955296e+01
   3.982883e+01  -1.145840e+01
   5.742701e+00   5.837387e+01
  -1.793275e+01   4.474423e+01
  -3.885433e+01  -1.478548e+01
  -3.121054e+01  -6.112409e+01
  -6.786528e-02  -3.669996e+01
   3.350928e+01   7.176513e+00
   4.400864e+01   1.556454e+01
   2.087783e+01   2.793402e+00
  -4.728262e-01  -1.561571e+01
  -6.263988e+00  -2.241679e+00
  -1.774020e+00   3.930911e+01
  -1.776271e+01   4.644636e+01
  -3.535465e+01   1.181143e+01
  -3.581731e+01  -3.943432e+01
  -4.795188e+00  -5.616979e+01
   4.308483e+01  -2.683024e+01
   6.528517e+01   3.925568e+01
   1.774125e+01   6.001005e+01
  -5.839220e+01   3.418422e+01
  -9.811987e+01  -2.409321e+01
  -4.454264e+01  -4.094548e+01
   2.722111e+01  -4.043383e+01
   6.261735e+01  -3.176757e+01
   2.233333e+01  -5.420041e+00
  -4.210589e+01   3.162970e+00
  -3.554845e+01  -1.651053e+01
   3.085370e+01  -3.394313e+01
   9.890805e+01  -1.778402e+01
