
 $NMID
 id='ANONYMOUS ', fmtdat='(2E16.6)'
 volume=1.0
 tramp=1.0
 $END
   1.952492e+03   1.418480e+02
   9.953713e+02   1.858375e+03
  -5.035075e+02   1.148314e+03
  -1.215749e+03   1.011374e+03
  -6.785721e+02  -1.911699e+02
   1.636258e+02  -8.532301e+01
   4.327180e+02   1.908604e+02
  -1.740159e+01   4.094153e+02
  -3.643963e+02   4.349145e+02
  -5.270756e+02  -1.293029e+02
  -2.628276e+02  -2.808804e+02
   1.525258e+02  -5.356817e+02
   2.462320e+02  -5.351456e+01
   1.280106e+02   4.519005e+02
  -1.878516e+02   3.074443e+02
  -3.385270e+02   4.848506e+01
  -1.810856e+02  -3.437219e+02
   1.302325e+02  -3.657083e+02
   2.272759e+02  -1.386022e+02
   2.013382e+02   1.419556e+02
   6.007242e+01   1.933348e+02
  -5.995697e+01   1.756205e+02
  -9.146287e+01   9.572184e+00
   9.070616e+01   6.226960e+01
   1.808814e+02   1.282085e+02
   8.847936e+01   2.471444e+02
  -2.987987e+02   1.988624e+02
  -3.842799e+02  -5.318250e+01
  -7.025473e+01  -2.011665e+02
   1.765534e+02  -9.614569e+01
   3.145946e+02   1.095773e+02
   2.393807e+01   2.326566e+02
  -1.307044e+02   2.700699e+02
  -2.598478e+02   6.766047e+01
  -1.308223e+02  -1.060430e+02
  -1.616689e+01  -2.090602e+02
   1.223700e+02  -9.126803e+01
   4.280193e+01   6.957268e+01
  -1.101543e+02   1.726933e+02
  -2.191703e+02  -9.862011e+00
  -9.310689e+01  -2.687199e+02
   1.783573e+02  -4.459106e+02
   2.221800e+02  -5.605224e+01
   1.846348e+02   1.714213e+02
  -1.284456e+02   1.069435e+02
  -1.180397e+02  -1.872683e+02
   1.432365e+02  -2.585764e+02
   2.968349e+02  -8.304588e+01
   3.158406e+02   2.649424e+02
   4.594963e+01   3.480290e+02
  -2.392587e+02   2.429595e+02
  -3.650910e+02  -1.751533e+01
  -2.620156e+02  -2.846159e+02
   1.576516e+02  -1.850751e+02
   1.603869e+02  -4.610439e+01
   1.429788e+02   7.468989e+01
   1.232492e+00   2.369203e+01
  -6.157982e+01  -9.517408e+01
   1.108010e+02  -6.010666e+01
   1.630790e+02   7.539008e+01
   1.051441e+02   1.403692e+02
  -9.453604e+01   1.369474e+02
  -2.491932e+02   5.931048e+01
  -1.402274e+02  -8.658251e+01
  -8.211566e+00  -2.112400e+02
   1.511021e+02  -1.321518e+02
   2.014857e+02  -4.627164e+01
   1.870282e+02   1.129027e+02
   5.854598e+01   2.199444e+02
  -4.017680e+01   1.968195e+02
  -5.408502e+01   6.318322e+01
  -8.851235e+00   2.925872e+01
  -4.675184e+01   3.943369e+01
  -1.126381e+02   3.669830e+01
  -1.230376e+02  -5.265247e+01
  -5.752223e+01  -1.498265e+02
   8.788044e+01  -1.542389e+02
   1.213678e+02   5.422359e+00
   1.006503e+02   1.737215e+02
  -2.996703e+01   1.454520e+02
  -1.479580e+02   4.943501e+01
  -1.719689e+02  -1.301553e+02
  -1.722589e+02  -1.926374e+02
   5.773748e+01  -1.544838e+02
   1.082698e+02  -1.292258e+02
   9.108625e+01  -2.507494e+01
   7.625335e+01  -2.375063e+01
   1.780534e+02  -2.696904e+01
   2.275944e+02   7.869668e+01
   2.206192e+02   2.206742e+02
   1.941230e+01   2.388036e+02
  -2.272026e+02   2.448674e+02
  -3.134334e+02   5.675173e+01
  -2.398163e+02  -5.117732e+01
  -3.300814e+00  -1.385601e+02
   9.443800e+01  -9.854088e+01
   3.367522e+01  -3.420714e+01
  -7.911147e+01   3.318108e+01
  -1.081942e+02   8.264970e+00
  -3.176635e+01  -9.410281e+01
   9.124021e+01  -8.977931e+01
   8.101836e+01   2.389099e+01
  -3.123815e+01   9.945132e+01
  -1.239263e+02   2.915237e+01
  -9.206525e+01  -1.757034e+02
   4.785526e+01  -2.071262e+02
   1.443463e+02  -8.245835e+01
   2.189626e+02   6.420267e+01
   1.573423e+02   1.572682e+02
   4.311275e+01   1.544223e+02
  -7.364526e+01   8.106287e+01
  -8.079932e+01   2.485061e+01
  -3.045326e+01  -1.841225e+01
   3.321375e+01   3.627851e+01
  -1.313133e+01   6.236727e+01
  -6.999039e+01   3.784455e+01
  -1.038108e+02  -6.585122e+00
  -1.351497e+01  -4.089279e+01
   4.865738e+01  -1.188338e+01
   1.067917e+01   4.749539e+01
  -8.401205e+01   5.114635e+01
  -1.727082e+02  -1.587881e+01
  -1.499174e+02  -1.102297e+02
  -4.367701e-01  -1.334826e+02
   1.022673e+02  -1.349140e+02
   1.258627e+02  -5.174056e+01
   8.523292e+01   1.897959e+01
  -1.204665e+01   3.613181e+01
  -5.165306e+01   1.458600e+00
   2.928656e+01  -6.176820e+01
   1.079111e+02  -2.017485e+01
   9.730249e+01   6.399060e+01
   4.390228e+01   1.398750e+02
  -5.792967e+01   7.846510e+01
  -8.846165e+01   1.675230e+01
  -3.353510e+01  -2.429154e+01
   1.818076e+01   4.013966e+00
   1.380554e+01   7.581762e+01
  -5.938090e+01   8.489288e+01
  -1.088270e+02  -4.078705e+00
  -9.904169e+01  -7.932901e+01
  -1.405919e+01  -1.267908e+02
   1.123574e+02  -8.508704e+01
   1.300426e+02   1.698723e+01
   3.655153e+01   6.427934e+01
  -5.324804e+01   4.840570e+01
  -5.285445e+01   1.713740e+01
  -2.883635e-02  -1.119945e+01
   1.745803e+01  -4.405561e+00
  -5.242944e+00   1.039563e+01
  -4.081284e+01  -1.021596e+01
  -4.830211e+01  -6.195893e+01
   1.403856e+01  -8.701974e+01
   8.776728e+01  -8.826574e+01
   1.243578e+02   1.979566e+00
   9.331965e+01   8.852464e+01
   8.935023e+00   1.515973e+02
  -9.265187e+01   1.019106e+02
  -7.314365e+01   8.253380e+00
  -3.103365e+01  -3.375806e+01
  -1.439057e+01  -1.405871e+01
  -4.174252e+01   1.357439e+01
  -5.924492e+01   5.098607e+00
  -3.098912e+01  -4.063138e+01
   1.579085e+01  -5.788216e+01
   6.644156e+01  -2.437856e+01
   6.645528e+01   3.478236e+01
  -3.044113e+01   7.780469e+01
  -1.003286e+02   4.567408e+01
  -1.593038e+02  -4.917257e+01
  -2.682792e+01  -1.328495e+02
   5.042037e+01  -1.135920e+02
   1.604679e+02  -5.441461e+01
   1.510571e+02   4.210953e+01
   7.536735e+01   9.775314e+01
  -3.484921e+01   7.652950e+01
  -5.309387e+01   3.518234e+01
  -4.415653e+01   4.739496e+01
  -3.781261e+01   4.426089e+01
  -6.588275e+01   5.035442e+01
  -8.089468e+01  -3.127330e+01
  -5.002767e+01  -9.911915e+01
   2.008182e+00  -1.424554e+02
   6.616864e+01  -8.454469e+01
   1.087758e+02  -1.559439e+01
   7.598218e+01   1.012087e+02
   4.313175e+00   8.380403e+01
  -4.559377e+01   4.775959e+01
  -3.315049e+01  -7.299686e+00
   5.330486e+00  -2.789504e+01
   1.223851e+01  -2.020092e+01
  -1.622020e+01  -9.824064e+00
  -5.074113e+01  -2.029615e+01
  -3.304366e+01  -3.071069e+01
   5.184644e+01  -1.972742e+01
   9.796444e+01   1.364944e+01
   8.267622e+01   3.108251e+01
   5.742801e+00   3.877240e+01
  -8.460766e+01   3.259906e+01
  -1.116139e+02  -7.946847e+00
  -1.806259e+01  -2.565226e+01
   4.009281e+01  -1.969761e+01
   4.433257e+01   1.640232e+01
   3.850912e+00   3.385438e+01
  -3.401015e+01   4.460860e+01
  -4.483564e+01  -6.375937e+00
  -3.896091e+01  -3.027228e+01
  -2.323822e+01  -3.129017e+01
  -3.267739e+01  -4.019440e+00
  -3.668646e+01   1.344544e-02
  -1.983655e+01  -3.649779e+01
   2.026802e+01  -8.270893e+01
   6.054285e+01  -7.332931e+01
   8.691960e+01  -1.316024e+01
   8.807700e+01   5.580523e+01
  -4.808085e+00   6.807951e+01
  -5.309244e+01   3.074236e+01
  -3.278657e+01  -1.031876e+01
   4.254693e+01  -1.016034e+01
   7.564757e+01   2.922728e+01
   3.444067e+01   6.856742e+01
  -5.177156e+01   3.596243e+01
  -1.132647e+02   3.302648e+01
  -1.090838e+02  -4.304031e+01
  -2.323727e+01  -4.858705e+01
   3.922408e+01  -4.030961e+01
   3.017248e+01  -3.791931e+00
  -2.420561e+01   1.303609e+01
  -4.729723e+01  -2.409908e+01
  -2.089401e+01  -7.106999e+01
   3.808532e+01  -7.898344e+01
   1.092568e+02  -3.373167e+01
   6.654257e+01   6.369873e+01
   1.437859e+00   1.141423e+02
  -5.059530e+01   9.101435e+01
  -5.633303e+01  -1.621429e+01
  -3.593073e+01  -7.787171e+01
   1.953982e+00  -6.640151e+01
   3.712825e+01  -2.420589e+00
   2.425948e+01   1.669921e+01
   7.788699e+00   3.949050e+00
   4.522104e+00  -1.029262e+01
   1.171316e+01   1.279905e+01
   2.534806e+01   5.194436e+01
   3.244335e+01   6.186675e+01
  -3.855350e+01   2.581539e+01
  -7.555531e+01  -2.061539e+01
  -7.532953e+01  -4.478075e+01
  -9.702635e+00  -3.403199e+01
   4.697037e+01  -9.361057e+00
   4.839821e+01  -2.156577e+00
   8.520106e+00   8.194232e+00
  -1.967667e+01   8.759035e+00
  -9.897859e+00   6.715347e+00
   1.062150e+01  -1.993393e+00
  -2.315413e+00  -4.431129e+00
  -3.931944e+01  -5.254191e+00
  -5.453002e+01  -2.269028e+01
  -1.481565e+01  -3.250669e+01
   7.441935e+01  -5.840561e+01
   1.212653e+02  -1.596598e+01
   1.027458e+02   2.480319e+01
   1.095280e+01   1.043221e+02
  -4.658116e+01   7.649566e+01
  -6.327645e+01   3.903094e+01
  -5.114269e+01  -1.186499e+01
  -1.280562e+01  -1.804974e+01
  -1.046607e+00  -6.609855e+00
  -7.916568e+00  -7.028824e+00
  -1.659055e+01  -3.014447e+01
  -9.462634e+00  -4.044118e+01
   1.517955e+01  -3.517421e+01
   4.490866e+01   1.028449e+01
   4.337260e+01   5.585888e+01
  -5.577454e+00   6.193718e+01
  -4.199287e+01   7.056308e+00
  -5.705762e+01  -4.374975e+01
  -1.418921e+01  -6.241199e+01
   5.238389e+01  -2.968827e+01
   6.672359e+01   4.691980e+00
   3.575975e+01   3.817284e+01
  -1.343831e+01   2.647453e+01
  -2.146212e+01   1.414711e+01
   1.361845e+01  -4.298188e-01
   4.061250e+01  -4.821721e+00
   5.002644e+00   1.868602e+01
  -5.455291e+01   4.617284e+01
  -7.771934e+01   2.513913e+01
  -4.137690e+01  -1.998023e+01
   9.035692e+00  -4.914348e+01
   4.102248e+01  -4.988867e+01
   2.909352e+01  -2.401900e+00
   1.790597e+00   3.333273e+01
  -1.418447e+01   3.365148e+01
  -1.991127e+01  -8.985583e+00
  -1.232445e+01  -2.579256e+01
   2.605511e+00  -2.042632e+01
   2.145218e+01   5.105610e+00
   2.560003e+01   1.934610e+01
   1.112806e+01   3.788967e+00
   8.484024e-02  -9.784862e+00
  -1.391496e+00  -1.917213e+00
  -1.128379e+00   2.267203e+01
  -5.851902e+00   3.044234e+01
  -1.381328e+01   9.055925e+00
  -1.990857e+01  -2.267619e+01
  -3.323315e+00  -3.380361e+01
   2.965666e+01  -1.205036e+01
   3.598634e+01   1.950836e+01
   1.442439e+01   3.666836e+01
  -3.740174e+01   1.987330e+01
  -4.912922e+01  -6.039344e+00
  -2.074085e+01  -3.548218e+01
   1.945225e+01  -2.368956e+01
   4.083487e+01  -9.259759e+00
   1.742818e+01  -6.157705e+00
  -1.717846e+01   8.848120e-01
  -2.248239e+01  -5.425053e-01
   1.619317e+01  -1.946354e+01
   4.788805e+01  -1.870136e+01
