
 $NMID
 id='ANONYMOUS ', fmtdat='(2E16.6)'
 volume=1.0
 tramp=1.0
 $END
  -3.702797e+03  -1.244145e+02
  -2.520285e+03  -2.010471e+03
   3.886396e+02  -2.211445e+03
   1.350791e+03  -9.842186e+02
   1.045990e+03   7.581942e+01
  -3.853481e+02   6.532155e+02
  -7.348285e+02  -2.059606e+02
  -8.011540e+01  -8.131466e+02
   7.277013e+02  -8.879086e+02
   8.404021e+02  -1.861337e+02
   6.362295e+02   6.828488e+02
   7.888872e-01   7.437692e+02
  -4.015339e+02   3.037036e+02
  -2.195729e+02  -5.105862e+02
   2.405545e+02  -6.885011e+02
   4.629446e+02  -1.407772e+02
   2.097308e+02   5.209181e+02
  -1.815393e+02   6.404832e+02
  -5.094928e+02   2.091594e+02
  -4.788693e+02  -2.933725e+02
  -4.474419e+01  -3.617119e+02
   1.428204e+02  -2.356397e+02
   1.131362e+02  -7.752476e+01
  -1.101064e+02   4.620229e+00
  -3.804272e+02  -1.352210e+02
  -8.668666e+01  -3.482095e+02
   4.209411e+02  -3.114214e+02
   6.590060e+02   6.904694e+01
   4.014356e+02   4.064923e+02
  -4.325627e+02   3.904599e+02
  -6.942346e+02  -1.346788e+02
  -2.882539e+02  -3.917604e+02
   2.535027e+02  -4.961159e+02
   4.760161e+02  -2.468831e+02
   4.106771e+02   1.874559e+02
   1.214145e+02   3.306637e+02
  -1.073862e+02   2.187739e+02
  -7.128649e+01  -1.239474e+02
   1.362651e+02  -2.944805e+02
   2.859064e+02   1.283864e+02
   1.181279e+02   5.914315e+02
  -1.936737e+02   6.430253e+02
  -4.756572e+02   7.210562e+01
  -1.786279e+02  -3.757179e+02
   2.228568e+02  -2.613660e+02
   2.956234e+02   3.471149e+02
  -9.404474e+01   4.628788e+02
  -4.856291e+02   1.578264e+02
  -5.269875e+02  -3.920713e+02
  -2.239085e+02  -5.806246e+02
   3.309906e+02  -3.289810e+02
   6.155046e+02  -1.684719e+01
   3.681660e+02   2.516812e+02
  -1.318719e+02   2.634932e+02
  -3.502922e+02   3.996470e+01
  -2.293573e+02  -1.292535e+02
   7.527971e+01  -7.071917e+01
   1.238269e+02   9.042779e+01
  -1.128015e+02   1.404464e+02
  -2.564882e+02  -1.884065e+01
  -1.696810e+02  -2.270129e+02
   1.503640e+02  -2.592788e+02
   3.428631e+02  -1.453140e+02
   2.709257e+02   6.902418e+01
  -2.943278e+01   2.600315e+02
  -2.693629e+02   3.944963e+02
  -3.339042e+02   2.180320e+02
  -2.977305e+02  -1.105221e+02
  -7.308035e+01  -4.102161e+02
   3.128690e+01  -3.733176e+02
   6.582553e+01  -1.640751e+02
   3.929393e+01  -3.331896e+01
   8.525004e+01  -7.906122e+01
   2.311147e+02  -9.221181e+01
   2.673264e+02   5.899583e+01
   1.328586e+02   2.547850e+02
  -6.783575e+01   1.825479e+02
  -2.084703e+02   4.185294e+00
  -1.774525e+02  -2.256884e+02
   2.351767e+01  -2.612753e+02
   2.439030e+02  -1.111263e+02
   3.514299e+02   1.649839e+02
   2.280762e+02   3.285283e+02
  -6.694838e+01   2.973735e+02
  -1.658088e+02   1.308505e+02
  -1.512115e+02   3.800211e+01
  -9.440449e+01   6.783791e+01
  -2.193672e+02   7.443079e+01
  -4.091140e+02  -5.077900e+01
  -3.022729e+02  -2.992843e+02
  -1.878628e+01  -4.866743e+02
   3.026687e+02  -4.545671e+02
   4.968451e+02  -1.870469e+02
   2.876181e+02   8.914929e+01
   6.310905e+01   2.994694e+02
  -1.304338e+02   2.414845e+02
  -6.445448e+01   4.845328e+01
   8.911193e+01  -7.557883e+01
   1.552099e+02   1.756954e+01
   5.014754e+01   1.623435e+02
  -1.307084e+02   1.497952e+02
  -1.581997e+02  -5.089248e+01
   2.416644e+01  -1.506147e+02
   1.656077e+02  -4.310933e+01
   1.739412e+02   2.393420e+02
  -1.881238e+01   3.198447e+02
  -2.020969e+02   2.129113e+02
  -3.663665e+02  -5.976615e+01
  -2.883101e+02  -2.448016e+02
  -1.032156e+02  -2.297337e+02
   9.842110e+01  -1.623944e+02
   1.812820e+02  -1.085076e+01
   4.524905e+01   1.986407e+01
  -6.211983e+01  -5.185144e+01
  -2.902054e+01  -1.010521e+02
   1.400731e+02  -9.496255e+01
   1.841978e+02   2.342579e+01
   5.660719e+01   5.287485e+01
  -7.581184e+01  -6.520757e+00
  -4.984967e+01  -9.708353e+01
   1.348596e+02  -8.655768e+01
   2.894177e+02   2.479884e+01
   2.562468e+02   1.617590e+02
   6.346576e+01   2.573258e+02
  -1.844893e+02   3.102754e+02
  -2.872412e+02   1.327023e+02
  -1.710838e+02  -5.898233e+01
   1.126680e+01  -1.213496e+02
   7.132106e+01  -1.332137e+01
  -3.953133e+01   9.144823e+01
  -1.705599e+02   6.188569e+01
  -2.077318e+02  -1.151388e+02
  -6.736671e+01  -1.983163e+02
   8.092741e+01  -1.437067e+02
   1.506093e+02  -1.899795e+01
   6.599239e+01   3.605739e+01
  -4.040237e+01  -4.740304e+00
  -3.071586e+01  -9.066099e+01
   6.512264e+01  -1.244173e+02
   2.238323e+02  -4.768421e+01
   1.787909e+02   1.147607e+02
   2.595967e+01   2.266669e+02
  -1.448426e+02   1.855955e+02
  -1.924862e+02  -3.322667e+00
  -5.318998e+01  -9.249468e+01
   4.984982e+01  -1.069921e+02
   7.878762e+01  -1.913286e+01
   7.766149e+00   2.591015e+01
  -3.039448e+01   1.147266e+01
   7.713698e+00  -1.400035e+01
   8.757518e+01   6.653354e+00
   1.109146e+02   7.918495e+01
   3.329895e+01   1.794730e+02
  -1.359625e+02   1.711416e+02
  -2.219100e+02   4.216601e+01
  -2.054090e+02  -1.670939e+02
  -2.758380e+01  -2.111757e+02
   1.007422e+02  -1.604199e+02
   1.368675e+02  -2.843727e+01
   6.981505e+01   5.057869e+01
   3.180015e+01   3.523985e+01
   5.866809e+01  -1.081018e+01
   9.430675e+01  -1.336469e+01
   5.805351e+01   4.518846e+01
  -4.824011e+01   8.912960e+01
  -1.283383e+02   6.997034e+01
  -1.045885e+02  -4.743394e+01
   9.375575e+00  -1.187836e+02
   1.377225e+02  -7.858242e+01
   1.951543e+02   5.324681e+01
   1.133672e+02   1.861089e+02
  -1.098220e+02   2.350762e+02
  -2.658762e+02   9.858905e+01
  -2.703413e+02  -1.035705e+02
  -9.508990e+01  -1.894633e+02
   3.085066e+01  -1.318264e+02
   8.738727e+01  -9.973186e+01
   5.879575e+01  -7.249965e+01
   6.241312e+01  -1.014344e+02
   8.451636e+01  -7.900457e+01
   1.304655e+02   3.167031e+01
   1.191429e+02   1.796160e+02
   2.849038e+01   2.288388e+02
  -1.091089e+02   1.855531e+02
  -1.847803e+02   7.542463e+00
  -1.058557e+02  -1.102778e+02
  -2.894323e+01  -1.688479e+02
   7.325065e+01  -1.001093e+02
   6.362584e+01   1.472785e+01
   1.190899e+00   4.891345e+01
  -1.818812e+01   3.116948e+01
   3.236515e+01   1.384095e+01
   7.288438e+01   1.278598e+01
   4.639580e+01   4.048646e+01
  -7.398460e+01   4.304802e+01
  -1.676555e+02  -2.572237e+00
  -1.612716e+02  -5.400153e+01
  -3.928109e+00  -9.884599e+01
   1.270042e+02  -8.515379e+01
   1.298202e+02  -1.365523e+01
   5.327030e+01   4.294069e+01
  -6.299562e+01   3.830994e+01
  -7.067379e+01  -1.707971e+01
  -2.491353e+01  -6.947654e+01
   4.171695e+01  -6.224872e+01
   6.315894e+01  -2.261581e+00
   5.565358e+01   4.899294e+01
   4.571945e+01   3.563038e+01
   5.750333e+01   8.328154e+00
   6.857385e+01   3.492977e+00
   4.365419e+01   6.661136e+01
  -1.537163e+01   1.731738e+02
  -1.286441e+02   1.502598e+02
  -1.748355e+02   2.680541e+01
  -1.268065e+02  -9.890514e+01
  -2.033596e+01  -1.386276e+02
   8.112354e+01  -6.683157e+01
   6.523555e+01   9.447898e+00
  -5.525538e+01   1.745999e+01
  -1.383965e+02  -3.483990e+01
  -7.773512e+01  -1.035620e+02
   7.016478e+01  -1.310423e+02
   1.759452e+02  -4.603280e+01
   1.668688e+02   4.093407e+01
   3.097710e+01   8.310244e+01
  -5.734753e+01   6.334873e+01
  -4.015885e+01   5.946514e-01
   3.998127e+01  -2.934823e+01
   8.805569e+01   1.799076e+01
   4.358709e+01   1.165613e+02
  -9.763857e+01   1.542586e+02
  -1.685121e+02   1.056488e+02
  -1.343521e+02  -7.876424e+01
  -2.532211e+01  -1.862811e+02
   8.298047e+01  -1.412449e+02
   1.148133e+02   3.014003e+00
   6.005984e+01   1.225209e+02
  -6.825367e+00   1.045603e+02
  -4.722250e+01   1.723940e+01
  -5.081275e+01  -3.085539e+01
  -2.171181e+01  -6.495811e+00
  -7.456565e+00   1.667119e+01
  -2.703803e+01  -1.679093e+01
  -6.829967e+01  -8.429894e+01
  -3.622398e+01  -1.134189e+02
   4.163879e+01  -3.794643e+01
   1.446458e+02   4.390822e+01
   1.112428e+02   6.823766e+01
   2.476642e+01   4.874981e+01
  -8.314603e+01   2.409908e+01
  -8.681357e+01  -4.098119e-01
  -1.273017e+01  -8.321770e+00
   3.086465e+01  -2.271154e+01
   1.389849e+01  -1.595507e+01
  -1.773129e+01   3.718500e+00
   4.463761e+00   5.966443e+00
   7.209404e+01   2.533498e-01
   9.215774e+01   2.410093e+01
   1.053510e+01   8.474853e+01
  -1.105737e+02   1.412470e+02
  -1.736095e+02   7.779391e+01
  -1.498888e+02  -5.568777e+01
  -3.653234e+01  -1.517538e+02
   6.882941e+01  -1.419527e+02
   1.129974e+02  -5.487019e+01
   8.026467e+01   1.803597e+01
   2.441873e+01   3.461026e+01
   9.763394e-01   9.963297e+00
   1.113398e+01   3.915036e+00
   3.116831e+01   4.610159e+01
   3.122115e+01   9.743048e+01
  -2.919552e+01   7.543378e+01
  -7.872562e+01  -1.737045e+01
  -8.318398e+01  -1.225850e+02
  -1.295554e+01  -1.015721e+02
   8.803546e+01  -3.718492e+01
   1.217771e+02   6.498907e+01
   4.420106e+01   1.049332e+02
  -6.340125e+01   6.189625e+01
  -1.065124e+02   2.364294e+00
  -4.401091e+01  -6.158412e+01
   3.339181e+01  -6.449288e+01
   2.734050e+01  -3.121197e+01
  -2.972510e+01   8.148767e+00
  -6.522524e+01   1.007011e+01
  -1.476867e+01  -2.274860e+01
   8.008522e+01  -6.275909e+01
   1.227222e+02  -6.612653e+01
   6.721862e+01   1.809367e+01
  -8.815454e+00   8.243581e+01
  -5.596851e+01   7.485667e+01
  -4.648602e+01   9.129657e+00
  -8.684697e+00  -5.267711e+01
   2.384986e+01  -4.234211e+01
   4.212641e+01   1.333034e+01
   2.968056e+01   5.232417e+01
  -1.333717e-01   4.014924e+01
  -2.981964e+01  -7.395102e+00
  -4.248205e+01  -1.605558e+01
  -2.066869e+01  -4.674657e+00
   3.103880e+00   1.592135e+01
   3.312048e+00   2.662221e+00
   1.200903e+00  -3.169178e+01
   1.279084e+01  -5.073053e+01
   3.580115e+01  -1.423552e+01
   3.773119e+01   4.059964e+01
   5.643137e+00   6.483849e+01
  -3.627120e+01   2.346584e+01
  -6.107135e+01  -3.621266e+01
  -1.719664e+01  -5.879685e+01
   5.160002e+01  -4.081488e+01
   9.033065e+01   8.466749e+00
   5.417824e+01   3.585455e+01
  -2.371356e+01   4.158628e+01
  -6.278019e+01   3.345630e+01
  -2.754865e+01   4.584093e+00
   2.655061e+01  -2.370767e+00
   3.780699e+01   1.187230e+01
  -2.720366e+01   2.603562e+01
  -8.294137e+01   2.462038e+01
