
 $NMID
 id='ANONYMOUS ', fmtdat='(2E16.6)'
 volume=1.0
 tramp=1.0
 $END
   3.303123e+03   3.471189e+02
   2.040258e+03   2.287129e+03
  -3.939772e+02   1.848026e+03
  -1.617858e+03   1.033960e+03
  -9.675435e+02  -6.167145e+01
   2.640094e+02  -1.979868e+02
   4.105991e+02   3.016905e+02
   3.656927e+01   7.995890e+02
  -5.218457e+02   6.020195e+02
  -6.252540e+02   1.769061e+02
  -3.335118e+02  -6.288876e+02
   7.987335e+01  -7.815964e+02
   4.197995e+02  -1.894367e+02
   3.149665e+02   5.012893e+02
  -2.739426e+02   6.365938e+02
  -3.233201e+02   5.459895e+01
  -3.378778e+02  -6.009354e+02
   2.161525e+02  -4.555658e+02
   5.422695e+02  -1.483773e+02
   3.065336e+02   2.183928e+02
   7.813521e+01   3.446040e+02
  -1.673608e+02   2.219407e+02
  -1.225747e+02   2.081168e+01
   1.835467e+02   5.575680e+01
   3.389000e+02   1.949205e+02
   1.282699e+02   2.467867e+02
  -3.860647e+02   2.390307e+02
  -8.065135e+02  -3.365855e+01
  -3.692197e+02  -4.524274e+02
   4.166227e+02  -3.156739e+02
   5.546072e+02   4.703250e+01
   2.736974e+02   3.586503e+02
  -2.405658e+02   3.882871e+02
  -4.210514e+02   1.259634e+02
  -3.255780e+02  -2.063091e+02
  -5.020085e+01  -3.912023e+02
   1.288029e+02  -2.093689e+02
   7.985660e+01   1.323327e+02
  -1.090332e+02   3.356587e+02
  -3.670302e+02  -7.515802e+01
  -1.534631e+02  -4.924046e+02
   1.596876e+02  -4.485058e+02
   3.780214e+02   5.028974e+01
   2.205482e+02   3.753052e+02
  -1.671273e+02   1.655955e+02
  -2.386570e+02  -1.624861e+02
   1.038195e+02  -3.613419e+02
   4.475426e+02  -8.399628e+01
   5.386233e+02   3.536835e+02
   1.379195e+02   4.138797e+02
  -2.626082e+02   2.907914e+02
  -5.031965e+02  -1.155334e+02
  -3.699866e+02  -2.568834e+02
   7.384100e+01  -2.964766e+02
   3.713546e+02  -3.005214e+01
   2.002878e+02   1.274142e+02
  -2.180903e+01   4.456696e+01
  -1.119596e+02  -8.484792e+01
   1.216760e+02  -1.280197e+02
   2.881177e+02   1.853448e+01
   1.481282e+02   2.389393e+02
  -1.620285e+02   2.270274e+02
  -3.132698e+02   7.833513e+01
  -1.739676e+02  -8.925926e+01
  -2.560957e+01  -2.012255e+02
   2.384197e+02  -2.701968e+02
   3.375523e+02  -1.656327e+02
   2.272254e+02   1.689913e+02
   3.486213e+01   3.342525e+02
  -7.874322e+01   2.858449e+02
  -7.776479e+01   7.432712e+01
  -3.149771e+01   6.282918e+01
  -1.023639e+02   7.615705e+01
  -1.684054e+02   9.248947e+01
  -2.469796e+02  -9.386728e+01
  -1.366815e+02  -2.116204e+02
   6.699816e+01  -1.977909e+02
   1.759441e+02   1.665279e+01
   1.269406e+02   2.266732e+02
   1.924986e+01   2.231453e+02
  -1.828012e+02   6.966917e+01
  -3.092226e+02  -1.414018e+02
  -1.579948e+02  -2.669166e+02
   2.049276e+01  -2.170058e+02
   1.726246e+02  -1.436049e+02
   1.435445e+02  -1.405614e+01
   1.003967e+02  -5.750032e+01
   2.251571e+02  -4.183942e+01
   3.575988e+02   3.887260e+01
   3.298075e+02   2.342871e+02
  -3.690394e+01   3.657335e+02
  -2.918514e+02   3.715664e+02
  -4.181511e+02   1.863206e+02
  -3.083757e+02  -4.987062e+01
  -2.413587e+01  -2.268572e+02
   1.063417e+02  -1.556320e+02
   4.395550e+01  -1.614752e+01
  -1.110379e+02   8.546524e+01
  -1.404465e+02  -8.601772e+00
  -2.616956e+01  -1.534872e+02
   1.190150e+02  -1.423514e+02
   1.260577e+02   3.692140e+01
  -2.177186e+01   1.762146e+02
  -1.707232e+02   6.040639e+00
  -1.513319e+02  -2.213276e+02
   3.092842e+01  -3.242363e+02
   2.011342e+02  -1.847431e+02
   3.011449e+02   7.086674e+01
   2.411839e+02   2.039223e+02
   9.164758e+01   2.492742e+02
  -1.068513e+02   1.289193e+02
  -1.202135e+02   1.629613e+01
  -3.942550e+01  -2.542951e+01
   5.063640e+01   3.975740e+01
  -3.303459e+00   1.045809e+02
  -1.044739e+02   8.212981e+01
  -1.368895e+02   1.818980e+00
  -4.142980e+01  -5.449178e+01
   6.063365e+01  -7.015103e+00
   3.449404e+01   7.018775e+01
  -1.103616e+02   7.964318e+01
  -2.571567e+02   3.000783e+00
  -2.199428e+02  -1.115366e+02
  -2.185552e+01  -2.405789e+02
   2.152597e+02  -1.880789e+02
   2.342289e+02  -9.089361e+01
   1.379161e+02   3.964519e+01
  -2.506955e+01   6.339894e+01
  -5.988196e+01   1.584810e+01
   3.832137e+01  -7.765686e+01
   1.451714e+02  -3.950421e+01
   1.621291e+02   1.125366e+02
   5.949755e+01   1.630333e+02
  -7.436767e+01   1.318262e+02
  -1.244637e+02   3.502312e+00
  -5.562402e+01  -4.207304e+01
   3.135357e+01   1.222414e+01
   3.733826e+01   9.240005e+01
  -8.042626e+01   9.866821e+01
  -1.720237e+02   1.894749e+01
  -1.432905e+02  -1.120871e+02
  -1.105985e+01  -1.863865e+02
   1.451008e+02  -1.416376e+02
   1.472293e+02  -2.608406e+00
   5.564559e+01   8.842874e+01
  -5.863631e+01   7.658567e+01
  -7.308016e+01   3.320930e+01
  -1.335312e+01  -2.240870e+01
   1.736314e+01  -1.099071e+01
  -4.543693e+00   1.306700e+01
  -7.152201e+01  -8.344021e+00
  -8.278884e+01  -8.409129e+01
   5.516631e+00  -1.449320e+02
   1.045403e+02  -1.383556e+02
   2.054598e+02  -1.237963e+01
   1.584673e+02   1.232962e+02
   6.157170e+01   1.843810e+02
  -5.772395e+01   1.351572e+02
  -1.233083e+02   3.362678e+01
  -7.039659e+01  -4.226904e+01
  -2.385651e+01  -2.785437e+01
  -4.173995e+01   1.972558e+01
  -7.184120e+01  -4.802535e-01
  -4.316530e+01  -4.396650e+01
   4.840343e+01  -9.219332e+01
   8.515075e+01  -4.604959e+01
   8.004616e+01   1.940895e+01
  -1.332727e+01   1.140486e+02
  -1.420224e+02   9.130691e+01
  -1.802519e+02  -4.398715e+01
  -8.757293e+01  -1.993779e+02
   7.871204e+01  -1.663254e+02
   2.022700e+02  -7.856056e+01
   2.354100e+02   6.047401e+01
   9.281854e+01   1.486047e+02
  -2.049367e+01   1.290638e+02
  -8.130634e+01   5.473567e+01
  -5.094271e+01   6.108740e+01
  -5.564790e+01   6.992382e+01
  -8.357847e+01   6.354863e+01
  -1.110315e+02  -1.824465e+01
  -8.873348e+01  -1.208614e+02
  -4.270739e+01  -1.725219e+02
   7.108735e+01  -1.455729e+02
   1.229875e+02  -1.148015e+01
   1.259576e+02   1.165461e+02
  -1.492934e+01   1.295536e+02
  -6.761153e+01   7.119401e+01
  -4.768530e+01  -1.067889e+01
  -1.544333e+00  -4.482388e+01
   9.862658e+00  -2.793333e+01
  -3.179133e+01  -9.218561e+00
  -7.723755e+01  -8.722974e+00
  -3.853175e+01  -3.130648e+01
   5.729589e+01  -2.975843e+01
   1.364746e+02  -5.210607e+00
   1.303366e+02   2.909155e+01
  -3.885344e+00   7.849744e+01
  -1.133487e+02   7.355435e+01
  -1.234694e+02   2.285081e+01
  -4.076801e+01  -5.038695e+01
   4.809289e+01  -3.647639e+01
   6.906703e+01   9.539389e+00
   1.577213e+01   5.226212e+01
  -3.825608e+01   5.775636e+01
  -5.665918e+01   1.355075e+00
  -4.750847e+01  -3.560101e+01
  -3.514445e+01  -4.387007e+01
  -5.142914e+01  -9.255770e-01
  -5.346959e+01  -1.282625e+00
  -3.261526e+01  -4.446909e+01
   4.056669e+01  -1.253823e+02
   1.342191e+02  -1.273087e+02
   1.346117e+02  -2.263350e+01
   1.038884e+02   7.396606e+01
  -9.569407e-01   1.131236e+02
  -7.205018e+01   5.159390e+01
  -5.129281e+01  -4.457215e+00
   5.005769e+01  -1.678762e+01
   1.208816e+02   3.901265e+01
   8.112418e+01   9.324927e+01
  -8.524109e+01   8.874827e+01
  -1.630095e+02   4.961123e+01
  -1.362358e+02  -4.568583e+01
  -3.386036e+01  -6.898912e+01
   5.258212e+01  -6.214028e+01
   4.332481e+01  -3.759330e+00
  -3.221952e+01   2.467922e+01
  -7.836062e+01  -7.424380e+00
  -3.963959e+01  -8.702018e+01
   6.843405e+01  -1.320608e+02
   1.508623e+02  -4.156450e+01
   1.037161e+02   7.310928e+01
   1.933563e+01   1.816085e+02
  -5.304172e+01   1.174025e+02
  -8.041561e+01  -1.341752e+01
  -4.398488e+01  -9.696933e+01
   3.154170e+00  -1.012660e+02
   4.645501e+01  -1.581451e+01
   3.896449e+01   2.877266e+01
   1.766113e+01   8.087286e+00
   2.443887e+00  -1.666348e+01
   2.187446e+01   1.790563e+01
   4.910636e+01   7.121655e+01
   4.519491e+01   8.679610e+01
  -4.969011e+01   4.225229e+01
  -1.194588e+02  -3.729299e+01
  -9.554175e+01  -3.856569e+01
  -1.656065e+01  -4.374240e+01
   7.426400e+01  -1.308299e+01
   7.358749e+01  -1.295364e+01
   1.085944e+01   7.632864e+00
  -3.253891e+01   2.369479e+01
  -1.607183e+01   1.228490e+01
   1.581466e+01  -5.082191e+00
  -3.330316e+00  -4.604767e+00
  -5.825032e+01  -1.921495e+00
  -7.468667e+01  -9.512329e+00
  -2.459182e+01  -6.302100e+01
   9.061034e+01  -8.465187e+01
   1.731973e+02  -4.776548e+01
   1.252399e+02   5.121276e+01
   3.216276e+01   1.199640e+02
  -6.652582e+01   1.351302e+02
  -7.961288e+01   5.854908e+01
  -6.307656e+01  -2.773571e+01
  -2.138365e+01  -2.719079e+01
   1.158086e+00  -8.800514e+00
  -9.718291e+00  -4.606086e+00
  -3.047158e+01  -4.256320e+01
  -1.115170e+01  -8.109913e+01
   3.001717e+01  -6.037171e+01
   7.468506e+01   1.332811e+01
   6.462881e+01   8.827710e+01
   1.173898e+01   1.050726e+02
  -6.218767e+01   1.613626e+01
  -9.032633e+01  -5.034367e+01
  -3.753376e+01  -8.336159e+01
   5.223164e+01  -5.292901e+01
   8.171226e+01   1.549690e+01
   4.206810e+01   4.293196e+01
  -2.648003e+01   4.532933e+01
  -3.265173e+01   2.761723e+01
   2.595920e+01  -5.282782e+00
   5.317669e+01  -1.061851e+01
   1.330358e+01   2.497198e+01
  -6.523614e+01   6.084308e+01
  -9.846262e+01   5.020403e+01
  -6.073172e+01  -1.206704e+01
   1.572326e+01  -6.635198e+01
   4.272978e+01  -7.564171e+01
   3.883067e+01  -4.170498e+00
   5.135336e+00   4.920405e+01
  -1.735763e+01   4.538067e+01
  -2.866703e+01  -9.713925e+00
  -2.544389e+01  -4.821587e+01
   9.744969e-01  -3.235492e+01
   3.162095e+01   6.637819e+00
   3.832408e+01   1.755139e+01
   1.816499e+01   2.603432e+00
  -2.065971e+00  -1.455555e+01
  -5.638150e+00  -1.863799e+00
  -3.995603e-01   3.126628e+01
  -1.152260e+01   4.390575e+01
  -2.770003e+01   9.611802e+00
  -3.349151e+01  -3.267180e+01
  -6.006801e+00  -5.140471e+01
   3.624818e+01  -2.024105e+01
   5.674020e+01   3.177674e+01
   1.847041e+01   5.494482e+01
  -5.094587e+01   3.561115e+01
  -8.364518e+01  -1.964981e+01
  -3.923175e+01  -4.112068e+01
   2.220893e+01  -3.761310e+01
   4.940231e+01  -2.874298e+01
   2.151696e+01  -5.701347e+00
  -2.927886e+01   7.862132e+00
  -3.198619e+01  -5.949269e+00
   2.695419e+01  -2.801219e+01
   8.124058e+01  -1.410490e+01
