
 $NMID
 id='ANONYMOUS ', fmtdat='(2E16.6)'
 volume=1.0
 tramp=1.0
 $END
  -2.449377e+03   5.464440e+02
  -1.483651e+03  -1.245661e+03
   4.792845e+02  -1.327977e+03
   1.213224e+03  -1.045648e+03
   6.812625e+02   2.565392e+02
  -9.755398e+01   2.311264e+02
  -4.193821e+02   1.783704e+01
  -7.386254e+01  -5.195121e+02
   3.510153e+02  -4.185864e+02
   4.759066e+02  -1.003084e+02
   2.625336e+02   3.658423e+02
   1.153249e+01   5.913627e+02
  -2.955153e+02   8.559887e+01
  -8.192914e+01  -4.855864e+02
   8.941396e+01  -5.560361e+02
   2.481187e+02  -9.684938e+01
   2.768862e+02   4.161135e+02
  -1.384668e+02   3.315784e+02
  -2.944894e+02   4.421134e+01
  -2.809905e+02  -1.396280e+02
  -6.318026e+01  -2.171241e+02
   8.626160e+01  -1.460467e+02
   1.003435e+02  -4.869128e+01
  -7.403462e+01  -3.381363e+01
  -2.048720e+02  -1.416677e+02
  -4.236980e+01  -1.700587e+02
   2.525293e+02  -1.343625e+02
   4.567620e+02   1.600338e+00
   2.255566e+02   3.311944e+02
  -1.616939e+02   1.821908e+02
  -3.734095e+02  -9.671003e+01
  -1.621123e+02  -2.351612e+02
   9.278185e+01  -2.913158e+02
   2.416174e+02  -1.482281e+02
   1.401279e+02   9.030506e+01
   1.399415e+02   2.441215e+02
  -1.205253e+02   1.095774e+02
  -9.774478e+01  -8.754283e+01
   9.720451e+01  -2.178888e+02
   2.095333e+02   4.345228e+01
   1.949761e+02   3.177151e+02
  -3.269381e+01   3.978236e+02
  -2.048331e+02   7.367613e+01
  -1.469304e+02  -2.403167e+02
   8.657418e+01  -1.678724e+02
   2.467712e+02   1.707113e+02
  -4.887872e+01   2.337593e+02
  -2.507130e+02   1.087602e+02
  -4.089275e+02  -1.560528e+02
  -5.382121e+01  -2.785035e+02
   1.838357e+02  -2.517757e+02
   3.276554e+02  -1.206056e+01
   2.574376e+02   1.870537e+02
  -1.128434e+02   1.880542e+02
  -2.186699e+02   7.546436e+01
  -1.203804e+02  -8.070287e+01
   3.228494e+01  -6.472065e+01
   7.948740e+01   8.690428e+01
  -1.006775e+02   9.691164e+01
  -2.278008e+02  -4.349830e+01
  -8.095045e+01  -1.349565e+02
   1.035072e+02  -1.250540e+02
   2.017493e+02  -2.281888e+01
   1.329130e+02   5.543444e+01
   1.129014e+00   1.550450e+02
  -1.360054e+02   1.741198e+02
  -2.141705e+02   1.207709e+02
  -1.758964e+02  -9.440296e+01
  -8.712811e+01  -2.254147e+02
  -1.762661e+01  -1.537900e+02
   5.038112e+01  -3.125977e+01
   4.514196e+01  -1.852399e+01
   5.099904e+01  -1.862136e+01
   1.000064e+02  -1.027446e+02
   1.367860e+02   6.140558e+01
   9.142906e+01   1.468383e+02
  -5.114581e+01   1.137861e+02
  -1.085371e+02  -3.306429e-01
  -1.147571e+02  -1.207523e+02
  -3.605784e+01  -1.595314e+02
   8.722255e+01  -6.510749e+01
   1.824511e+02   9.583959e+01
   1.539266e+02   1.782340e+02
  -1.144326e+01   1.368141e+02
  -1.223035e+02   1.125783e+02
  -9.574027e+01   1.114728e+01
  -7.107169e+01   1.958672e+01
  -1.490771e+02   3.638045e+01
  -2.452486e+02  -7.726203e+00
  -2.301672e+02  -1.715542e+02
  -2.642795e+00  -2.989778e+02
   1.974098e+02  -2.944186e+02
   2.673104e+02  -1.262301e+02
   2.194235e+02   4.578721e+01
   1.180952e+01   1.289953e+02
  -8.623870e+01   1.232355e+02
  -2.594159e+01   2.808449e+01
   4.650493e+01  -4.714095e+01
   7.883172e+01  -6.216851e+00
   4.528439e+01   8.423847e+01
  -3.986386e+01   1.113905e+02
  -8.739993e+01  -1.431890e+01
   4.258036e+00  -1.192205e+02
   8.326184e+01  -2.650938e+01
   1.047683e+02   1.521036e+02
  -1.091522e+01   1.941435e+02
  -1.352903e+02   1.113014e+02
  -1.882772e+02  -3.608423e+01
  -1.524167e+02  -1.477392e+02
  -8.746389e+01  -1.610801e+02
   5.162249e+01  -8.943280e+01
   7.456738e+01  -1.828100e+01
   3.866379e+01   1.594508e+01
  -3.755804e+01  -2.938797e+01
   1.501890e+01  -5.569724e+01
   5.706963e+01  -5.517626e+01
   1.005346e+02  -4.057208e-01
   1.962514e+01   3.905051e+01
  -3.766485e+01   9.963649e+00
  -1.323623e+01  -3.546718e+01
   6.519994e+01  -4.558826e+01
   1.630037e+02  -1.819438e+01
   1.434321e+02   7.664565e+01
   1.660404e+01   1.250995e+02
  -1.097763e+02   1.171932e+02
  -1.248960e+02   4.839291e+01
  -8.875684e+01  -4.624333e+00
   8.477495e+00  -4.287026e+01
   3.686350e+01  -9.648172e+00
  -5.779664e+00   6.155104e+01
  -8.635044e+01   3.650808e+01
  -1.118830e+02  -5.592941e+01
  -5.444306e+01  -1.274403e+02
   5.588644e+01  -7.573140e+01
   8.733584e+01  -1.158586e+01
   3.582216e+01   2.535448e+01
  -1.485019e+01  -5.885253e+00
  -1.735916e+01  -6.833180e+01
   4.284013e+01  -7.478739e+01
   9.936071e+01  -1.510919e+01
   9.009818e+01   7.423445e+01
   1.932876e+01   1.205786e+02
  -9.232458e+01   8.338881e+01
  -1.030579e+02   3.176991e+00
  -4.205206e+01  -4.705529e+01
   3.665305e+01  -6.102370e+01
   5.046284e+01  -2.320866e+01
   7.794152e+00   8.944402e+00
  -1.284671e+01   6.476209e+00
   2.342406e+00  -7.091723e+00
   4.267252e+01   5.032574e+00
   4.407381e+01   4.249009e+01
  -5.509087e+00   8.997230e+01
  -7.306120e+01   9.835088e+01
  -1.429196e+02  -9.003713e+00
  -1.129897e+02  -6.532298e+01
  -2.115385e+01  -1.222793e+02
   2.946245e+01  -8.626191e+01
   7.368943e+01  -1.003681e+01
   4.595679e+01   3.299747e+01
   1.410002e+01   1.601641e+01
   3.015403e+01  -1.501210e+01
   4.937531e+01  -1.901292e-01
   2.096839e+01   2.948412e+01
  -2.218492e+01   5.633991e+01
  -5.248518e+01   3.135194e+01
  -4.715933e+01  -1.643222e+01
   1.651081e+01  -7.135494e+01
   9.233433e+01  -6.056592e+01
   1.258469e+02   3.123966e+01
   4.938869e+01   1.206079e+02
  -5.047670e+01   1.189881e+02
  -1.411680e+02   5.718104e+01
  -1.572057e+02  -4.667694e+01
  -7.045640e+01  -9.118436e+01
   1.936762e+01  -7.889020e+01
   4.637781e+01  -4.023972e+01
   3.436429e+01  -4.082276e+01
   2.686078e+01  -3.405438e+01
   6.069395e+01  -4.998659e+01
   7.570633e+01   2.764931e+01
   6.040807e+01   7.312443e+01
   2.228308e+01   1.297783e+02
  -5.488090e+01   1.050614e+02
  -8.237535e+01   1.175949e+01
  -9.950124e+01  -7.796797e+01
  -5.197864e+00  -7.729877e+01
   4.674970e+01  -4.805459e+01
   3.517656e+01   5.525924e+00
  -7.270599e+00   2.397011e+01
  -1.784437e+00   2.325428e+01
   1.715875e+01   9.437441e+00
   5.341942e+01   8.509210e+00
   2.729537e+01   2.092611e+01
  -3.493132e+01   2.291249e+01
  -9.414079e+01   1.276366e+01
  -7.766253e+01  -2.237325e+01
  -8.240799e+00  -4.507126e+01
   7.119283e+01  -4.220472e+01
   8.893144e+01  -1.094920e+01
   2.283632e+01   2.800253e+01
  -3.283562e+01   1.929796e+01
  -4.720469e+01  -1.004303e+01
  -1.011455e+01  -3.579873e+01
   2.521676e+01  -4.136713e+01
   3.884152e+01  -4.235043e+00
   3.251840e+01   2.329630e+01
   2.021716e+01   2.998612e+01
   3.683979e+01   5.922443e+00
   3.638506e+01  -1.547204e+00
   2.469018e+01   2.968803e+01
  -2.635381e+01   6.663609e+01
  -7.956726e+01   6.243608e+01
  -6.673907e+01   1.382787e+01
  -8.218314e+01  -4.798477e+01
   4.434492e+00  -7.380917e+01
   4.474041e+01  -2.676408e+01
   3.422690e+01   7.519026e+00
  -3.599730e+01   1.217854e+01
  -7.290375e+01  -3.065128e+01
  -4.676753e+01  -5.823257e+01
   4.395938e+01  -5.177929e+01
   9.934535e+01  -2.732280e+01
   1.087750e+02   3.215145e+01
   2.974142e+01   4.579770e+01
  -3.638050e+01   4.166126e+01
  -2.292150e+01   4.384089e+00
   1.671906e+01  -1.277246e+01
   5.497021e+01   1.377774e+01
   2.737893e+01   6.054216e+01
  -3.502643e+01   9.378991e+01
  -8.961544e+01   2.777963e+01
  -6.988318e+01  -4.770082e+01
  -2.516075e+01  -1.266361e+02
   2.691593e+01  -9.123907e+01
   4.402355e+01   1.786851e+01
   3.054797e+01   6.459338e+01
  -5.953057e+00   6.578516e+01
  -2.847177e+01   9.876765e+00
  -2.725043e+01  -1.716706e+01
  -1.158656e+01  -4.203469e+00
  -1.721585e+00   1.111953e+01
  -1.379498e+01  -1.248389e+01
  -4.071748e+01  -4.594638e+01
  -4.474114e+01  -5.491238e+01
   3.056502e+01  -2.223686e+01
   6.871313e+01   3.177632e+01
   6.912168e+01   2.399819e+01
   1.167383e+01   3.017460e+01
  -4.702249e+01   7.349314e+00
  -4.718233e+01   6.370110e+00
  -7.384361e+00  -3.750343e+00
   2.320603e+01  -1.126808e+01
   7.887189e+00  -6.350217e+00
  -1.397339e+01   2.022561e+00
   1.536202e+00   2.302463e+00
   3.025041e+01   5.546275e+00
   5.172973e+01   1.669858e+01
   1.030622e+01   3.456120e+01
  -6.504491e+01   5.479740e+01
  -1.038276e+02   1.992251e+01
  -8.123233e+01  -2.967341e+01
  -2.403047e+01  -8.336432e+01
   3.662818e+01  -8.579389e+01
   6.189476e+01  -3.027612e+01
   4.833354e+01   1.273759e+01
   9.567610e+00   1.584558e+01
  -3.711981e-01   6.968791e+00
   6.899128e+00   2.864083e+00
   2.332630e+01   3.078962e+01
   3.694445e+00   4.630680e+01
  -1.760477e+01   3.145612e+01
  -5.317161e+01  -9.539655e+00
  -3.785780e+01  -5.760191e+01
  -2.258212e+00  -6.196632e+01
   4.151281e+01  -1.408944e+00
   5.405294e+01   2.933050e+01
   1.386743e+01   5.703483e+01
  -3.641043e+01   3.502951e+01
  -6.071821e+01  -8.294192e+00
  -2.811455e+01  -2.952691e+01
   1.464241e+01  -2.406134e+01
   1.842027e+01  -1.451962e+01
  -1.795516e+01  -2.452764e+00
  -3.081388e+01   3.129976e+00
  -8.192516e+00  -1.530247e+01
   4.797815e+01  -4.702531e+01
   6.661440e+01  -2.893141e+01
   4.441762e+01   1.355814e+01
  -1.345139e+01   4.413198e+01
  -3.168515e+01   4.693608e+01
  -2.581331e+01   4.790410e+00
  -7.227161e+00  -3.504615e+01
   1.066527e+01  -2.881027e+01
   1.867579e+01   5.178347e+00
   9.253077e+00   2.783336e+01
  -4.576197e+00   2.366007e+01
  -1.917780e+01  -2.777067e+00
  -2.444153e+01  -1.244622e+01
  -1.131819e+01  -1.405017e+00
   9.500083e-01   9.001067e+00
   4.910184e+00   1.542278e+00
   4.648038e+00  -2.310590e+01
   2.872170e+00  -2.688330e+01
   1.754578e+01  -1.126701e+01
   1.447124e+01   2.385806e+01
  -2.805371e+00   3.529545e+01
  -2.696221e+01   1.428959e+01
  -4.043935e+01  -1.991937e+01
  -1.081632e+01  -3.699696e+01
   3.247861e+01  -2.449299e+01
   5.062350e+01   1.611176e+01
   2.991543e+01   2.469188e+01
  -1.793046e+01   2.303384e+01
  -3.417240e+01   1.721259e+01
  -1.706350e+01   4.298071e+00
   2.102552e+01  -2.133657e+00
   1.984516e+01   8.632109e-01
  -1.570757e+01   2.036823e+01
  -5.339099e+01   1.248059e+01
