
 $NMID
 id='ANONYMOUS ', fmtdat='(2E16.6)'
 volume=1.0
 tramp=1.0
 $END
   3.287391e+03  -8.186170e+01
   1.652134e+03   2.298850e+03
  -4.628737e+02   2.103243e+03
  -1.696896e+03   6.239546e+02
  -8.030234e+02  -4.397727e+02
   4.317099e+02  -3.908981e+02
   9.228566e+02   1.786879e+02
  -1.676145e+02   9.380956e+02
  -5.221665e+02   5.651988e+02
  -7.018521e+02  -3.972729e+01
  -4.624808e+02  -6.666140e+02
   1.887303e+02  -6.118000e+02
   4.194373e+02  -3.069366e+01
   2.313662e+02   6.413244e+02
  -1.878477e+02   6.242862e+02
  -4.314678e+02   7.851701e+00
  -1.585292e+02  -6.112539e+02
   1.882274e+02  -4.367488e+02
   4.838022e+02  -1.065129e+02
   3.351307e+02   3.289333e+02
   3.563309e+01   2.868122e+02
  -2.022066e+02   2.148986e+02
  -1.685200e+02   7.245627e+00
   1.590588e+01  -4.848011e+01
   2.857795e+02   6.812331e+01
   9.661585e+01   3.555515e+02
  -3.540307e+02   2.759146e+02
  -6.546266e+02  -2.768317e+01
  -3.155474e+02  -4.500963e+02
   2.125272e+02  -3.812551e+02
   5.552098e+02   6.605018e+01
   2.128122e+02   3.310331e+02
  -2.123039e+02   3.665406e+02
  -3.557205e+02   2.151455e+02
  -3.226015e+02  -1.931194e+02
  -5.024070e+01  -4.070278e+02
   1.356235e+02  -1.692227e+02
   1.246437e+02   1.050575e+02
  -2.397548e+02   2.966710e+02
  -3.337753e+02  -6.829551e+01
  -1.266779e+02  -4.928194e+02
   2.436958e+02  -4.156249e+02
   4.398971e+02  -1.215103e+01
   2.307514e+02   3.399608e+02
  -2.748117e+02   2.370330e+02
  -2.584721e+02  -2.055036e+02
   3.212746e+01  -4.334363e+02
   4.107576e+02  -9.506005e+01
   4.694579e+02   2.764279e+02
   9.987799e+01   4.641610e+02
  -2.757451e+02   2.696152e+02
  -5.392565e+02   2.535828e+01
  -2.328606e+02  -3.282708e+02
   1.637064e+02  -2.489929e+02
   3.438529e+02  -5.399242e+01
   2.067468e+02   1.477364e+02
  -6.391239e+01   7.862898e+01
  -7.183159e+01  -1.231065e+02
   1.748405e+02  -1.148996e+02
   2.574700e+02   1.041781e+02
   1.298142e+02   2.161786e+02
  -1.489961e+02   2.063763e+02
  -2.633860e+02   2.301827e+01
  -1.412862e+02  -7.716578e+01
   3.231241e+01  -1.696485e+02
   1.771070e+02  -2.674869e+02
   2.690373e+02  -1.561726e+02
   2.051867e+02   1.033299e+02
   1.251363e+02   2.919264e+02
  -4.994553e+01   2.653740e+02
  -8.801569e+01   8.213208e+01
  -3.553588e+01  -1.692265e+01
  -2.050277e+01   3.320372e+01
  -1.856159e+02   1.134768e+02
  -2.350592e+02  -2.425868e+01
  -1.133086e+02  -2.132409e+02
   4.683331e+01  -1.820465e+02
   1.619107e+02  -2.147256e+01
   1.206946e+02   1.718937e+02
  -4.394306e+01   2.129940e+02
  -2.091524e+02   8.122260e+01
  -2.076149e+02  -1.441954e+02
  -1.512335e+02  -2.914983e+02
   8.995910e+01  -2.197769e+02
   1.710620e+02  -8.825810e+01
   1.277606e+02   1.843085e+01
   8.460094e+01  -1.965069e+01
   1.881106e+02  -2.796725e+01
   3.243886e+02   9.569363e+01
   2.225296e+02   2.020129e+02
  -8.853399e+01   2.915913e+02
  -2.747621e+02   3.362366e+02
  -4.052129e+02   1.335043e+02
  -2.374520e+02  -4.987135e+01
  -3.307303e+01  -2.348894e+02
   9.915720e+01  -1.867941e+02
   6.536708e+01  -4.546636e+01
  -1.008074e+02   1.032548e+02
  -1.603779e+02   1.134313e+01
  -5.325887e+01  -1.572438e+02
   1.400638e+02  -1.310790e+02
   1.293981e+02   4.827765e+01
  -2.405991e+01   1.409175e+02
  -1.223100e+02   2.682624e+01
  -1.045716e+02  -2.059871e+02
   3.478525e+01  -2.391285e+02
   1.797374e+02  -1.018372e+02
   2.219261e+02   4.857248e+01
   2.256659e+02   1.791467e+02
   7.244000e+01   2.014512e+02
  -9.080747e+01   1.211549e+02
  -1.327736e+02   9.767827e+00
  -3.805477e+01  -1.998815e+01
   5.433266e+01   3.422665e+01
   2.909368e+01   9.856097e+01
  -1.013797e+02   7.341583e+01
  -1.439887e+02   2.299262e+00
  -4.606316e+01  -5.575324e+01
   4.541886e+01  -1.471024e+01
   3.196627e+01   5.230471e+01
  -9.916255e+01   4.869874e+01
  -2.126916e+02  -2.799004e+01
  -1.958869e+02  -8.022434e+01
  -3.362066e+01  -2.068871e+02
   1.344926e+02  -1.917791e+02
   2.141336e+02  -1.279474e+02
   1.212370e+02   4.006157e+01
  -1.299962e+01   6.991279e+01
  -7.151712e+01   1.220811e+01
   2.742210e+01  -7.062269e+01
   1.387329e+02  -2.912657e+01
   1.407605e+02   7.484128e+01
   3.705586e+01   1.577415e+02
  -6.286559e+01   1.388748e+02
  -1.108206e+02   2.218624e+01
  -4.915684e+01  -2.561179e+01
   2.315688e+01  -7.664138e-01
   2.025758e+01   6.039354e+01
  -6.685387e+01   7.056878e+01
  -1.403971e+02   1.639323e+01
  -1.516994e+02  -8.950578e+01
  -1.977837e+01  -1.528552e+02
   1.228439e+02  -1.113837e+02
   1.453885e+02   3.256386e+00
   5.860756e+01   8.370008e+01
  -6.273640e+01   8.525315e+01
  -6.380572e+01   2.135565e+01
  -1.622541e+01  -1.739182e+01
   2.281327e+01  -1.122729e+01
  -7.111064e-01   7.529644e+00
  -5.023357e+01  -1.170743e+01
  -6.038706e+01  -6.381880e+01
   2.578677e+00  -1.043996e+02
   8.275193e+01  -1.146900e+02
   1.998944e+02   1.505705e+00
   1.409414e+02   1.109827e+02
   3.860919e+01   1.619285e+02
  -6.795211e+01   1.290874e+02
  -9.465146e+01   2.783472e+01
  -4.581278e+01  -5.501014e+01
  -2.149768e+01  -2.960173e+01
  -4.426033e+01   7.815696e+00
  -5.181732e+01   3.423416e+00
  -2.563009e+01  -3.667230e+01
   2.104111e+01  -6.138087e+01
   7.533069e+01  -4.173410e+01
   6.229522e+01   2.406282e+01
  -9.909560e+00   9.407000e+01
  -1.312241e+02   6.751740e+01
  -1.394915e+02  -4.891059e+01
  -5.931049e+01  -1.521610e+02
   8.789559e+01  -1.664067e+02
   2.057834e+02  -7.207068e+01
   1.758009e+02   5.934607e+01
   9.772922e+01   1.363429e+02
  -2.758106e+01   1.057530e+02
  -7.760883e+01   7.311731e+01
  -5.560553e+01   4.888956e+01
  -4.947489e+01   6.614970e+01
  -7.804667e+01   5.922870e+01
  -9.508888e+01  -2.071119e+01
  -8.271669e+01  -1.128023e+02
   5.826150e-01  -1.786198e+02
   8.386840e+01  -1.288976e+02
   1.266691e+02  -1.863739e+01
   1.032977e+02   9.651603e+01
   1.820559e+01   1.014107e+02
  -4.796691e+01   6.649994e+01
  -3.148576e+01  -9.256250e+00
  -1.235948e+00  -2.989133e+01
   9.947445e+00  -2.626039e+01
  -2.459655e+01  -1.900710e+01
  -5.602481e+01  -1.820113e+01
  -3.266609e+01  -3.081033e+01
   4.575894e+01  -1.631295e+01
   1.026734e+02  -6.346393e+00
   1.077038e+02   4.029224e+01
   1.200262e+01   6.688684e+01
  -9.021455e+01   5.802958e+01
  -1.191981e+02  -1.826798e+01
  -2.949113e+01  -2.844093e+01
   4.844081e+01  -2.791092e+01
   5.636569e+01   1.125300e+01
   6.558083e+00   4.833657e+01
  -4.726384e+01   5.001176e+01
  -4.542796e+01  -6.664686e+00
  -2.925269e+01  -3.619722e+01
  -2.642855e+01  -3.483218e+01
  -4.214594e+01  -8.544041e+00
  -5.188460e+01  -6.060191e+00
  -2.699179e+01  -5.695267e+01
   2.589258e+01  -1.135092e+02
   7.017644e+01  -9.772921e+01
   1.218050e+02  -2.829282e+01
   9.667526e+01   8.614389e+01
  -4.587971e+00   8.597097e+01
  -5.881794e+01   3.820788e+01
  -3.890218e+01  -9.063578e+00
   4.801011e+01  -1.474015e+01
   1.019541e+02   2.985796e+01
   5.402285e+01   8.187894e+01
  -5.332285e+01   7.869536e+01
  -1.366959e+02   4.244657e+01
  -1.150055e+02  -3.312871e+01
  -2.172858e+01  -6.328199e+01
   5.437126e+01  -4.627005e+01
   3.894229e+01  -4.581720e+00
  -2.874137e+01   2.122393e+01
  -6.535619e+01  -2.817861e+01
  -2.842773e+01  -9.174670e+01
   7.191373e+01  -1.168168e+02
   1.243832e+02  -5.036770e+01
   7.332397e+01   8.930679e+01
   1.845006e+01   1.403089e+02
  -6.585419e+01   1.053554e+02
  -7.349872e+01  -5.156057e+00
  -3.101774e+01  -8.902283e+01
  -2.415581e+00  -7.245522e+01
   3.619707e+01  -1.395509e+01
   3.565794e+01   2.071412e+01
   1.779927e+01   4.700831e+00
   2.261670e+00  -1.513088e+01
   1.059368e+01   1.163977e+01
   3.705171e+01   7.772886e+01
   2.780840e+01   7.914972e+01
  -3.370504e+01   3.437483e+01
  -9.579694e+01  -3.512118e+01
  -7.931825e+01  -6.264005e+01
  -8.456997e+00  -4.116145e+01
   6.914157e+01  -1.629280e+01
   7.165933e+01  -8.206070e+00
   8.181291e+00   6.081009e+00
  -2.967382e+01   1.368574e+01
  -1.006594e+01   1.143582e+01
   1.410724e+01  -1.303994e+00
  -5.295815e+00  -7.458222e+00
  -5.540283e+01   1.497370e+00
  -6.727235e+01  -1.943478e+01
  -6.851159e+00  -6.750230e+01
   9.382256e+01  -1.044102e+02
   1.247263e+02  -3.734052e+01
   1.293846e+02   4.340192e+01
   1.211052e+01   1.198074e+02
  -5.779366e+01   1.187438e+02
  -9.277725e+01   4.580388e+01
  -6.971270e+01  -1.695838e+01
  -2.020971e+01  -2.453554e+01
   1.812547e+00  -6.433752e+00
  -7.962091e+00  -4.053016e+00
  -2.556483e+01  -4.088523e+01
  -1.412346e+01  -5.733353e+01
   1.145887e+01  -4.963382e+01
   6.032157e+01   1.815097e+01
   5.906133e+01   8.352419e+01
  -4.545265e+00   9.270028e+01
  -6.081957e+01   2.332904e+01
  -7.850356e+01  -5.294707e+01
  -1.416817e+01  -6.993992e+01
   5.321664e+01  -3.435283e+01
   7.156158e+01   3.114610e+00
   2.205192e+01   2.928034e+01
  -2.508944e+01   4.013507e+01
  -2.395315e+01   2.132287e+01
   2.821672e+01  -9.559805e-01
   4.475440e+01  -7.777471e+00
   9.874767e+00   2.103571e+01
  -5.791532e+01   5.458092e+01
  -9.340587e+01   4.430670e+01
  -4.396921e+01  -1.202486e+01
   2.009854e+01  -6.060842e+01
   3.447963e+01  -5.510319e+01
   2.932531e+01  -2.031946e+00
  -1.156308e+00   3.665345e+01
  -2.114783e+01   3.080524e+01
  -2.892612e+01  -9.566458e+00
  -2.460177e+01  -3.647995e+01
   3.808342e+00  -2.130493e+01
   2.638581e+01   7.499765e+00
   2.903187e+01   1.658361e+01
   1.524077e+01   7.838223e-01
  -1.772377e+00  -1.006426e+01
  -1.582674e+00  -7.689588e-01
  -7.403001e+00   2.653951e+01
  -1.423017e+01   3.178154e+01
  -2.798568e+01   8.269056e+00
  -1.717889e+01  -3.571252e+01
  -9.511639e-01  -4.400164e+01
   3.519456e+01  -1.400065e+01
   3.338957e+01   3.067111e+01
   1.286115e+01   4.371647e+01
  -4.148088e+01   2.591753e+01
  -6.928125e+01  -1.371927e+01
  -3.158660e+01  -3.806192e+01
   2.272291e+01  -2.805812e+01
   4.861587e+01  -1.304205e+01
   1.969432e+01  -3.454829e+00
  -2.761368e+01  -2.202162e+00
  -3.253568e+01  -1.056897e+01
   2.288491e+01  -2.150992e+01
   6.754572e+01  -1.487472e+01
