
 $NMID
 id='ANONYMOUS ', fmtdat='(2E16.6)'
 volume=1.0
 tramp=1.0
 $END
   4.075078e+03  -3.834531e+02
   2.398474e+03   2.250601e+03
  -8.599783e+02   2.733246e+03
  -1.870615e+03   1.354780e+03
  -1.015696e+03  -7.850842e+02
   6.961149e+02  -6.756678e+02
   8.612036e+02   4.783774e+02
  -8.542454e+00   1.043645e+03
  -8.622577e+02   8.091157e+02
  -9.308958e+02   3.220272e+01
  -4.855676e+02  -8.076541e+02
   2.689398e+02  -6.755450e+02
   5.608158e+02  -1.649732e+02
   3.709850e+02   6.339284e+02
  -2.731610e+02   7.273638e+02
  -6.326228e+02   6.457829e+01
  -2.618248e+02  -5.903511e+02
   3.044993e+02  -6.981110e+02
   5.819012e+02  -1.378624e+02
   4.018872e+02   3.607207e+02
   3.771328e+01   4.148398e+02
  -1.897915e+02   2.928969e+02
  -1.852990e+02  -2.168769e+00
   9.728814e+01  -1.133470e+02
   3.687294e+02   1.228109e+02
   2.569534e+02   3.842701e+02
  -4.459377e+02   4.080867e+02
  -7.138664e+02   6.711324e+01
  -4.680762e+02  -5.029297e+02
   3.382094e+02  -3.989142e+02
   8.070593e+02   5.983979e-02
   3.817357e+02   4.138880e+02
  -2.289671e+02   5.217838e+02
  -5.201671e+02   2.280823e+02
  -4.755554e+02  -2.408992e+02
  -8.973628e+01  -3.665936e+02
   1.822201e+02  -2.865003e+02
   1.678044e+02   1.357035e+02
  -1.580481e+02   4.017155e+02
  -3.684899e+02  -4.158593e+01
  -2.307448e+02  -7.226904e+02
   2.542345e+02  -6.239747e+02
   6.334248e+02  -9.464955e+01
   3.506801e+02   4.500095e+02
  -2.534852e+02   3.364073e+02
  -3.987162e+02  -2.892829e+02
   4.576434e+01  -4.107708e+02
   5.856912e+02  -1.535399e+02
   5.605425e+02   3.703178e+02
   1.374202e+02   5.302921e+02
  -3.559792e+02   2.969604e+02
  -6.309097e+02  -2.437306e+01
  -4.129386e+02  -2.912190e+02
   1.082691e+02  -3.420881e+02
   4.153908e+02  -7.672535e+01
   2.857311e+02   1.884140e+02
  -1.190649e+02   8.984001e+01
  -1.288693e+02  -1.293271e+02
   1.695142e+02  -1.805237e+02
   3.218851e+02   7.038568e+01
   1.395882e+02   2.444052e+02
  -1.813924e+02   2.595479e+02
  -3.066933e+02   8.596695e+01
  -1.980828e+02  -1.028348e+02
   1.052579e+01  -1.939918e+02
   2.043081e+02  -3.443760e+02
   3.105314e+02  -2.138832e+02
   2.847870e+02   1.313574e+02
   1.065747e+02   3.953656e+02
  -1.271857e+02   4.100371e+02
  -1.480523e+02   1.105610e+02
  -5.701091e+01  -2.042951e+00
  -2.989145e+01   7.790602e+01
  -2.088155e+02   1.011093e+02
  -2.839480e+02  -3.590851e+01
  -1.674935e+02  -2.747550e+02
   7.948164e+01  -2.326050e+02
   2.201818e+02  -3.250182e+00
   1.758973e+02   2.112939e+02
   1.159245e+00   2.279373e+02
  -2.605101e+02   1.380594e+02
  -3.435928e+02  -1.333509e+02
  -2.056478e+02  -2.832251e+02
   6.949772e+01  -2.858479e+02
   2.053418e+02  -1.353603e+02
   1.607667e+02  -2.340494e+01
   9.570213e+01  -4.682487e+01
   2.038089e+02  -5.472550e+01
   4.044199e+02   5.860463e+01
   2.848950e+02   2.614197e+02
   1.817919e+01   4.056263e+02
  -3.446339e+02   4.200270e+02
  -4.502705e+02   1.708772e+02
  -2.775174e+02  -7.290491e+01
  -4.734196e+01  -2.626128e+02
   1.628896e+02  -2.303060e+02
   6.977753e+01  -1.378585e+01
  -9.988892e+01   8.778080e+01
  -1.430584e+02   2.206001e+01
  -4.793308e+01  -1.707616e+02
   1.492151e+02  -1.581228e+02
   1.840472e+02   4.704601e+01
  -3.699685e+00   1.538249e+02
  -1.790315e+02   3.421333e+01
  -1.524933e+02  -2.196132e+02
   4.413425e+01  -3.662287e+02
   1.915692e+02  -1.764307e+02
   2.574594e+02   5.784408e+01
   2.952497e+02   2.220592e+02
   8.860317e+01   2.341074e+02
  -1.022999e+02   1.515506e+02
  -1.633447e+02   3.222800e+01
  -5.140001e+01  -2.033399e+01
   6.978428e+01   3.902222e+01
   3.261059e+01   1.201447e+02
  -1.158562e+02   9.544640e+01
  -1.743789e+02  -1.468326e+01
  -5.978644e+01  -6.665416e+01
   6.378543e+01  -3.817883e+00
   4.912033e+01   5.489862e+01
  -1.177368e+02   8.163561e+01
  -2.543627e+02  -9.116647e+00
  -2.648176e+02  -1.451336e+02
  -3.169681e+01  -2.285632e+02
   1.968329e+02  -2.746471e+02
   3.104486e+02  -1.227288e+02
   1.601954e+02   4.403312e+01
  -1.488707e+01   1.255325e+02
  -9.325351e+01   1.736173e+01
   3.686868e+01  -8.645237e+01
   1.751898e+02  -6.252105e+01
   1.901857e+02   9.867919e+01
   6.066644e+01   2.025202e+02
  -9.406953e+01   1.647526e+02
  -1.349932e+02   2.337320e+01
  -6.914742e+01  -3.810665e+01
   3.319486e+01   2.864058e+00
   2.721687e+01   6.923270e+01
  -6.191471e+01   9.895515e+01
  -1.790533e+02   2.401505e+01
  -2.102714e+02  -1.204202e+02
  -3.358403e+01  -2.014323e+02
   1.581920e+02  -1.493920e+02
   1.967055e+02   4.663059e+00
   5.263250e+01   9.397477e+01
  -6.428650e+01   9.943480e+01
  -6.524586e+01   3.168795e+01
  -1.613128e+01  -1.977095e+01
   2.050720e+01  -1.828172e+01
  -1.414964e+01   1.765318e+01
  -6.570850e+01  -1.243595e+01
  -9.112005e+01  -6.877062e+01
  -2.004871e+01  -1.492777e+02
   1.325910e+02  -1.537968e+02
   2.367718e+02  -1.893428e+01
   1.763313e+02   1.492715e+02
   6.130693e+00   2.246522e+02
  -1.083816e+02   1.776970e+02
  -1.236842e+02   2.697696e+01
  -7.082993e+01  -4.739356e+01
  -3.081688e+01  -3.383714e+01
  -4.545016e+01   5.867381e+00
  -7.677879e+01   8.189859e+00
  -4.396233e+01  -4.877668e+01
   4.291001e+01  -9.549545e+01
   1.038404e+02  -5.262659e+01
   7.731808e+01   4.315200e+01
  -1.991524e+01   9.905464e+01
  -1.404615e+02   8.272103e+01
  -1.608336e+02  -4.233338e+01
  -9.634461e+01  -1.780796e+02
   9.324919e+01  -2.393570e+02
   2.521974e+02  -8.590537e+01
   2.316581e+02   6.186864e+01
   8.811540e+01   1.659772e+02
  -3.551382e+01   1.274308e+02
  -1.093373e+02   8.717923e+01
  -7.093508e+01   6.923988e+01
  -7.346278e+01   8.771988e+01
  -9.634048e+01   6.771422e+01
  -1.123442e+02  -3.037677e+01
  -1.081709e+02  -1.432307e+02
  -4.633598e+01  -2.001102e+02
   1.008788e+02  -1.727353e+02
   1.711940e+02  -3.265365e+01
   1.089061e+02   1.082355e+02
   2.665292e+01   1.558737e+02
  -5.421894e+01   9.465483e+01
  -5.022058e+01   7.690966e+00
  -6.901632e+00  -3.740444e+01
   1.274718e+01  -3.355271e+01
  -3.136991e+01  -1.294377e+01
  -7.053450e+01  -2.221492e+01
  -3.922974e+01  -2.995433e+01
   5.670262e+01  -3.393220e+01
   1.379482e+02  -1.555229e+00
   1.471580e+02   3.848589e+01
   1.416877e+01   8.570509e+01
  -1.180011e+02   6.627212e+01
  -1.249656e+02   9.940688e+00
  -4.786684e+01  -3.441868e+01
   5.382229e+01  -3.092163e+01
   7.091316e+01   1.528460e+01
   6.017606e+00   7.099301e+01
  -5.233073e+01   6.071612e+01
  -5.267448e+01  -6.673580e+00
  -4.479801e+01  -4.712211e+01
  -4.306750e+01  -3.949980e+01
  -4.901596e+01   7.394647e-01
  -6.607334e+01  -8.479618e-01
  -3.191114e+01  -7.270514e+01
   3.632082e+01  -1.476087e+02
   1.042975e+02  -1.372886e+02
   1.709192e+02  -1.910809e+01
   1.150405e+02   7.944514e+01
   2.608157e+00   1.162460e+02
  -8.988446e+01   6.333672e+01
  -5.392090e+01  -1.690704e+01
   5.508465e+01  -1.393386e+01
   1.269719e+02   3.597289e+01
   6.388553e+01   9.938878e+01
  -8.222810e+01   1.125640e+02
  -1.607789e+02   3.884072e+01
  -1.293002e+02  -2.037879e+01
  -3.705231e+01  -8.059128e+01
   4.986955e+01  -6.559341e+01
   4.969317e+01  -6.989128e+00
  -3.652490e+01   2.604535e+01
  -8.740777e+01  -2.149165e+01
  -3.352507e+01  -1.142043e+02
   8.335051e+01  -1.505935e+02
   1.479817e+02  -7.732118e+01
   1.165358e+02   9.009584e+01
   5.995570e+00   1.883344e+02
  -9.341569e+01   1.487297e+02
  -1.086119e+02  -1.277855e+01
  -6.367741e+01  -1.077923e+02
   6.997738e+00  -1.014829e+02
   3.966487e+01  -1.122238e+01
   5.409766e+01   2.342997e+01
   2.271801e+01   1.059012e+01
   3.389842e+00  -1.644164e+01
   1.895814e+01   1.645202e+01
   5.071383e+01   8.670587e+01
   4.107251e+01   9.030647e+01
  -4.159484e+01   4.234121e+01
  -1.329288e+02  -3.784360e+01
  -1.162218e+02  -6.032784e+01
  -1.883468e+01  -4.503565e+01
   8.691508e+01  -2.260848e+01
   8.713073e+01  -5.031036e+00
   8.920513e+00   6.933380e+00
  -3.364347e+01   2.012643e+01
  -9.904023e+00   1.917836e+01
   1.972978e+01  -4.994276e+00
  -5.858200e+00  -8.113292e+00
  -7.401486e+01  -3.956129e+00
  -9.988512e+01  -2.279914e+01
  -7.014088e+00  -8.511483e+01
   1.290306e+02  -1.167275e+02
   1.600591e+02  -5.870179e+01
   1.437432e+02   7.259056e+01
   2.565422e+01   1.569195e+02
  -7.729323e+01   1.318286e+02
  -1.004172e+02   5.225135e+01
  -8.192406e+01  -2.381643e+01
  -2.304916e+01  -3.376167e+01
   3.640797e+00  -1.010506e+01
  -9.503519e+00  -5.091649e+00
  -2.934591e+01  -4.475606e+01
  -2.965611e+01  -8.550697e+01
   2.945507e+01  -7.103440e+01
   7.154595e+01   1.531257e+01
   7.953492e+01   1.198302e+02
   1.547774e+01   1.019071e+02
  -8.895943e+01   2.747599e+01
  -1.071571e+02  -8.283818e+01
  -4.256308e+01  -1.059519e+02
   6.148924e+01  -5.049084e+01
   1.014426e+02   9.442580e+00
   2.965935e+01   4.290678e+01
  -3.186183e+01   4.969362e+01
  -2.918281e+01   2.419781e+01
   3.061338e+01   2.784720e-02
   7.377998e+01  -7.232530e+00
   1.499353e+01   2.372056e+01
  -7.447048e+01   5.776872e+01
  -1.024500e+02   4.832246e+01
  -5.558125e+01  -9.988715e+00
   1.464590e+01  -8.511341e+01
   4.903915e+01  -6.924297e+01
   3.618613e+01  -8.173920e+00
   3.143155e+00   5.345241e+01
  -2.212172e+01   3.355693e+01
  -3.478304e+01  -1.659786e+01
  -2.915709e+01  -5.036405e+01
   5.990076e+00  -3.128654e+01
   3.121106e+01   6.384629e+00
   3.485061e+01   1.851429e+01
   1.668084e+01   1.991986e+00
   9.774145e-02  -1.435228e+01
  -3.452542e+00   4.087875e+00
  -5.058331e+00   3.267410e+01
  -1.507590e+01   4.090186e+01
  -3.716382e+01   2.662889e+00
  -2.600708e+01  -3.962702e+01
   3.394717e+00  -6.520917e+01
   4.217284e+01  -2.279202e+01
   4.781876e+01   3.489482e+01
   1.260992e+01   5.392113e+01
  -5.061538e+01   3.543983e+01
  -8.196683e+01  -1.561487e+01
  -5.487387e+01  -3.863662e+01
   2.868386e+01  -4.856955e+01
   6.107624e+01  -2.440747e+01
   2.475071e+01  -4.843295e+00
  -3.252993e+01   5.295464e+00
  -3.924787e+01  -1.350065e+01
   2.857049e+01  -3.272575e+01
   8.485931e+01  -2.260633e+01
