
 $NMID
 id='ANONYMOUS ', fmtdat='(2E16.6)'
 volume=1.0
 tramp=1.0
 $END
  -2.859326e+03  -2.831634e+02
  -1.867080e+03  -1.199111e+03
  -1.413685e+02  -1.576949e+03
   9.353172e+02  -1.145581e+03
   1.111978e+03  -2.889452e+02
   2.213290e+02   2.064858e+02
  -3.420425e+02   1.973714e+02
  -1.079093e+02  -4.112312e+02
   1.969794e+02  -3.395340e+02
   6.514706e+02  -2.594316e+02
   3.571004e+02   4.242559e+02
   5.463703e+01   5.984387e+02
  -2.362496e+02   3.541385e+02
  -3.168912e+02  -1.930666e+02
   8.765627e+01  -3.131288e+02
   2.951259e+02  -1.817480e+02
   2.686399e+02   4.494134e+02
  -1.028409e+01   4.177817e+02
  -4.361205e+02   2.447054e+02
  -4.082969e+02  -1.598414e+02
  -1.260691e+02  -2.966938e+02
   5.479854e+01  -2.213526e+02
  -1.177011e+01  -9.155713e+01
  -1.201320e+02  -1.047185e+02
  -1.817034e+02  -1.738622e+02
  -8.024090e+01  -2.109331e+02
   3.577845e+02  -1.571913e+02
   4.586354e+02   8.224930e+01
   1.931675e+02   2.293758e+02
  -2.396886e+02   1.798531e+02
  -3.611421e+02  -2.104837e+01
  -1.621008e+02  -1.985986e+02
   2.005006e+02  -2.763092e+02
   2.965593e+02  -1.033005e+02
   2.424242e+02   1.022781e+02
   5.711447e+01   1.804875e+02
   9.336575e+00   1.712327e+02
  -3.084172e+01  -4.240740e+01
   3.233371e+01  -1.722955e+02
   1.253982e+02   5.864218e+01
  -2.573145e+01   3.861713e+02
  -8.409964e+01   3.758558e+02
  -3.069787e+02   2.245187e+01
  -1.770893e+02  -2.383904e+02
   5.311933e+01  -3.265321e+01
   1.168712e+02   1.498722e+02
  -5.361173e+01   2.594141e+02
  -3.274321e+02   8.972811e+01
  -3.986460e+02  -2.695347e+02
  -1.891324e+02  -3.752672e+02
   2.463821e+02  -2.618811e+02
   3.198336e+02   5.370576e+01
   3.594631e+02   1.142484e+02
   6.214282e+01   2.408774e+02
  -1.819587e+02   1.020914e+02
  -2.063643e+02   1.050368e+01
  -4.933795e+01   4.649458e+00
   8.055287e+01   1.894171e+01
  -3.618639e+01   5.244817e+01
  -2.046562e+02  -1.233352e+01
  -1.490388e+02  -1.593644e+02
   1.066308e+02  -2.037252e+02
   2.969485e+02  -1.044776e+02
   1.712250e+02   7.059369e+01
   3.080746e+00   2.322398e+02
  -2.435205e+02   2.389003e+02
  -2.870140e+02   1.540444e+02
  -1.619830e+02  -1.121511e+02
  -4.896938e+01  -2.261870e+02
   4.468381e+00  -2.187070e+02
  -1.727662e+01  -1.349644e+02
   4.420630e+01  -8.831684e+01
   1.515279e+02  -8.543712e+01
   1.908065e+02  -4.316287e+01
   1.214440e+02   8.968920e+01
   6.813412e+01   1.991578e+02
  -4.762986e+01   1.508783e+02
  -9.047076e+01  -4.497815e+01
  -9.549144e+01  -1.538486e+02
  -3.293228e+00  -2.266848e+02
   1.914811e+02  -5.121469e+01
   2.484310e+02   9.277348e+01
   1.401835e+02   2.217168e+02
   1.746558e+01   2.360266e+02
  -9.677132e+01   1.333041e+02
  -9.947246e+01   6.617760e+01
  -1.175607e+02   6.947778e+01
  -2.029527e+02   3.155264e+01
  -2.652264e+02  -2.720220e+01
  -2.526959e+02  -1.903361e+02
  -1.234232e+01  -3.503830e+02
   2.842867e+02  -2.957963e+02
   3.950345e+02  -1.642901e+02
   2.473377e+02   4.748186e+01
   4.133140e+01   1.863370e+02
  -5.816569e+01   1.209122e+02
  -1.904481e+00   2.574675e+01
   9.519672e+01  -5.321482e+01
   8.894411e+01   1.192486e+01
   4.069347e+01   7.942992e+01
  -9.457064e+01   9.103800e+01
  -5.749080e+01  -3.676183e+01
   1.925857e+01  -1.077760e+02
   1.258407e+02   1.125250e+01
   1.481584e+02   1.804106e+02
   1.182242e+00   2.770888e+02
  -1.766980e+02   1.954390e+02
  -2.921743e+02  -5.018591e+01
  -2.203059e+02  -1.767054e+02
  -4.279722e+01  -2.018242e+02
   1.004682e+02  -1.250560e+02
   9.823007e+01   8.323511e-01
   2.440374e+01   2.934477e+00
  -3.589540e+01  -3.334214e+01
   1.481863e+01  -7.708616e+01
   9.453000e+01  -7.985983e+01
   1.080807e+02   5.241049e+00
   2.357703e+01   2.723802e+01
  -5.248693e+01  -7.299918e+00
  -3.324801e+01  -6.169579e+01
   1.243603e+02  -8.633767e+01
   2.538781e+02   1.214115e+01
   1.782393e+02   1.138162e+02
   7.945030e+00   2.157656e+02
  -1.506698e+02   1.607086e+02
  -2.101645e+02   8.548782e+01
  -1.035821e+02  -4.398256e+01
   1.684850e+01  -5.673366e+01
   2.415570e+01  -5.087038e+00
  -3.462977e+01   5.786321e+01
  -1.584360e+02   9.361828e+00
  -1.504455e+02  -6.816061e+01
  -5.150048e+01  -1.095828e+02
   4.680393e+01  -9.517735e+01
   9.255107e+01  -8.319993e+00
   3.301232e+01   1.170621e+01
  -3.226371e+01  -2.177845e+01
  -1.847360e+01  -7.111992e+01
   6.488914e+01  -1.066712e+02
   1.643957e+02  -2.396495e+01
   1.487508e+02   1.019103e+02
   9.848054e+00   1.564718e+02
  -1.076268e+02   1.105787e+02
  -1.045355e+02   3.378088e+01
  -4.606677e+01  -6.090911e+01
   3.929420e+01  -7.816772e+01
   5.415178e+01  -3.314008e+01
   1.191613e+00   1.732958e+01
  -2.787453e+01   4.450429e-01
   6.387737e+00  -2.276452e+01
   7.263592e+01   4.299594e+00
   7.635069e+01   6.751016e+01
  -8.964396e+00   1.194758e+02
  -1.192861e+02   1.099923e+02
  -2.050602e+02   2.974313e+01
  -1.360198e+02  -1.286988e+02
  -7.063604e+01  -1.545232e+02
   5.584017e+01  -1.089598e+02
   9.047550e+01  -2.333576e+01
   6.848549e+01   2.124604e+01
   3.021893e+01   2.122909e+01
   3.637839e+01  -1.527570e+01
   6.322915e+01  -5.714730e+00
   4.491035e+01   4.703478e+01
  -3.484993e+01   7.739056e+01
  -8.478237e+01   4.580671e+01
  -8.057998e+01  -2.827164e+01
   4.234521e+00  -1.064684e+02
   1.251957e+02  -1.023896e+02
   1.582946e+02   3.988785e+01
   6.372697e+01   1.437486e+02
  -8.995013e+01   1.643992e+02
  -1.904230e+02   7.405896e+01
  -1.959287e+02  -5.882283e+01
  -7.091945e+01  -1.130218e+02
   2.817805e+01  -1.140647e+02
   8.206003e+01  -5.172432e+01
   4.066779e+01  -5.667930e+01
   4.346574e+01  -7.427228e+01
   5.735992e+01  -5.874034e+01
   1.075489e+02   2.081142e+00
   9.247087e+01   9.536461e+01
   4.880882e+01   1.545347e+02
  -5.321479e+01   1.297718e+02
  -1.099497e+02   6.371709e+00
  -1.056718e+02  -8.292590e+01
  -5.695687e+00  -1.184586e+02
   5.204969e+01  -5.979157e+01
   4.476512e+01   1.187504e+01
  -3.162840e+00   4.171387e+01
  -2.034383e+01   2.532945e+01
   2.312484e+01   1.892431e+00
   6.388941e+01   3.659770e+00
   3.850914e+01   2.683031e+01
  -5.399587e+01   2.956015e+01
  -1.407569e+02   6.331561e+00
  -1.204094e+02  -4.180924e+01
   6.611528e+00  -7.580388e+01
   1.045028e+02  -6.781336e+01
   1.092132e+02  -2.070679e+01
   2.852292e+01   3.996409e+01
  -3.780578e+01   4.154703e+01
  -6.325724e+01  -6.455566e+00
  -1.953066e+01  -5.227463e+01
   3.398268e+01  -6.006959e+01
   5.332037e+01  -6.293867e+00
   5.331422e+01   3.218119e+01
   4.164343e+01   3.196056e+01
   4.683177e+01  -5.033586e+00
   4.436198e+01  -1.991265e-01
   4.485865e+01   4.679273e+01
  -1.755527e+01   1.122404e+02
  -1.054293e+02   1.076285e+02
  -1.539582e+02   2.791025e+01
  -1.109575e+02  -6.275366e+01
   6.398093e+00  -1.083171e+02
   7.291136e+01  -6.570506e+01
   5.243363e+01   3.233577e+00
  -4.311507e+01   2.031560e+01
  -1.087500e+02  -2.354718e+01
  -6.394938e+01  -8.462634e+01
   6.911775e+01  -8.121055e+01
   1.415065e+02  -4.205511e+01
   1.185797e+02   1.493830e+01
   2.651748e+01   6.006566e+01
  -3.931253e+01   5.374095e+01
  -3.786628e+01   1.725727e+00
   3.098732e+01  -2.756141e+01
   8.579399e+01   1.665512e+00
   3.999221e+01   6.650251e+01
  -6.489488e+01   1.297614e+02
  -1.047289e+02   5.349002e+01
  -1.055621e+02  -5.784935e+01
  -1.810988e+01  -1.451918e+02
   5.530855e+01  -9.797995e+01
   8.302545e+01  -2.845908e+00
   4.536219e+01   7.594429e+01
  -1.545008e+01   8.015756e+01
  -3.383000e+01   1.249401e+01
  -2.914226e+01  -1.946718e+01
  -1.564988e+01  -4.718502e+00
  -2.632206e+00   1.235267e+01
  -2.570380e+01  -1.910667e+01
  -5.095223e+01  -7.022431e+01
  -2.565950e+01  -6.236619e+01
   4.048746e+01  -3.692512e+01
   1.017360e+02   2.284282e+01
   1.053789e+02   3.134270e+01
   1.709183e+01   4.065909e+01
  -4.963217e+01   2.597440e+01
  -6.720319e+01   1.608929e+01
  -1.064969e+01  -8.015898e+00
   2.563643e+01  -2.402424e+01
   1.581080e+01  -1.131608e+01
  -1.253250e+01   7.736527e+00
   2.897044e+00   2.496795e+00
   3.994155e+01  -8.484990e+00
   7.111594e+01   7.613893e+00
   2.908993e+01   6.556406e+01
  -5.908543e+01   8.380748e+01
  -1.533305e+02   5.856054e+01
  -1.246609e+02  -2.756217e+01
  -4.387728e+01  -1.102306e+02
   3.591681e+01  -1.151985e+02
   8.650827e+01  -7.120476e+01
   5.762644e+01   1.555491e+01
   2.252284e+01   2.715689e+01
   2.238925e+00   1.011399e+01
   1.030323e+01   6.170770e+00
   2.661682e+01   3.260125e+01
   1.656902e+01   5.721164e+01
  -2.537590e+01   5.065298e+01
  -6.038469e+01  -5.477777e+00
  -5.994410e+01  -6.994709e+01
  -2.368492e+01  -9.794799e+01
   4.880409e+01  -3.219806e+01
   8.196006e+01   3.335963e+01
   3.856084e+01   6.563631e+01
  -4.257223e+01   5.392038e+01
  -7.011700e+01  -7.760013e+00
  -3.471722e+01  -4.067063e+01
   2.129895e+01  -4.898481e+01
   3.588565e+01  -2.575104e+01
  -1.949875e+01   1.210456e+01
  -5.504748e+01   1.989399e+01
  -1.555584e+01  -2.152753e+01
   5.949138e+01  -5.636500e+01
   8.078384e+01  -4.446744e+01
   5.673119e+01   8.189126e+00
  -3.321607e+00   6.811248e+01
  -4.135969e+01   6.462881e+01
  -3.279167e+01   9.864408e+00
  -1.262964e+01  -4.011256e+01
   1.432369e+01  -4.102725e+01
   2.901657e+01   6.356233e+00
   2.673151e+01   4.107432e+01
  -1.374967e+00   2.731356e+01
  -2.645762e+01  -4.293595e+00
  -3.734145e+01  -1.726093e+01
  -1.562657e+01  -4.256329e+00
   3.956009e+00   1.636574e+01
   1.279968e+00   3.844886e+00
  -1.227711e+01  -2.753673e+01
  -5.137116e+00  -4.477767e+01
   2.178281e+01  -1.811693e+01
   4.368247e+01   2.563034e+01
   8.943956e+00   4.453074e+01
  -2.630804e+01   2.055116e+01
  -5.218744e+01  -1.777874e+01
  -2.132974e+01  -4.694842e+01
   3.889028e+01  -3.061856e+01
   7.680500e+01   5.385283e+00
   4.156041e+01   3.101037e+01
  -1.955417e+01   3.896531e+01
  -5.226615e+01   3.703032e+01
  -1.951875e+01   6.213931e+00
   2.653162e+01  -7.394574e+00
   2.594992e+01  -5.124331e-02
  -2.029229e+01   1.456933e+01
  -5.408546e+01   1.714454e+01
