
 $NMID
 id='ANONYMOUS ', fmtdat='(2E16.6)'
 volume=1.0
 tramp=1.0
 $END
  -2.658239e+03   4.201628e+01
  -2.057353e+03  -1.095811e+03
  -5.692008e+02  -1.732104e+03
   1.162615e+03  -1.308954e+03
   7.972125e+02  -1.624042e+02
   1.195206e+02   2.450768e+02
  -3.162370e+02  -2.960713e+01
  -2.215717e+02  -4.815217e+02
   3.631651e+02  -3.869513e+02
   6.467471e+02  -1.128278e+02
   3.970807e+02   3.865443e+02
   3.288232e+01   5.982540e+02
  -3.017398e+02   2.734563e+02
  -3.259898e+02  -4.102554e+02
   4.358916e+01  -4.969669e+02
   3.662521e+02  -8.172158e+01
   2.444060e+02   3.930371e+02
  -1.268000e+00   4.652770e+02
  -4.252566e+02   3.517831e+02
  -3.554593e+02  -1.800425e+02
  -1.336330e+02  -2.982015e+02
   1.233400e+02  -2.046861e+02
   4.341601e+01  -7.185715e+01
  -1.583062e+02  -9.002876e+01
  -2.205768e+02  -2.219588e+02
  -3.156231e+01  -2.863554e+02
   3.901877e+02  -9.067130e+01
   5.039836e+02   7.447110e+01
   2.674331e+02   1.459463e+02
  -1.750204e+02   2.515524e+02
  -4.054467e+02  -8.610562e+01
  -2.862649e+02  -2.630514e+02
   2.154496e+02  -2.639320e+02
   3.889992e+02  -8.561809e+01
   2.724157e+02   8.011494e+01
   6.421466e+01   2.928059e+02
   4.195120e+01   1.789005e+02
  -1.755305e+01  -1.289837e+02
   1.375539e+02  -1.739206e+02
   1.826072e+02   8.692558e+01
   1.121724e+01   3.838770e+02
  -2.822931e+02   3.461551e+02
  -2.335751e+02   2.184173e+01
  -1.609812e+02  -2.483320e+02
   1.140603e+02  -1.152257e+02
   1.763829e+02   2.530220e+02
   5.523546e+00   3.951198e+02
  -3.681324e+02  -1.139286e+01
  -4.388908e+02  -2.616103e+02
  -1.371424e+02  -4.328514e+02
   3.468205e+02  -2.033715e+02
   4.601149e+02   3.480636e+01
   3.433077e+02   2.342118e+02
  -4.797009e+01   2.157149e+02
  -2.222563e+02   9.188797e+01
  -1.617500e+02   3.161328e+01
  -1.708191e+01  -4.038965e+01
   3.450871e+01   5.787903e+01
  -8.800407e+01   4.741545e+01
  -1.965612e+02  -2.503146e+01
  -1.121620e+02  -1.681231e+02
   1.283067e+02  -2.241210e+02
   2.887799e+02  -1.125197e+02
   2.151432e+02   5.995380e+01
   1.160392e+01   2.634026e+02
  -2.053245e+02   3.389853e+02
  -2.727827e+02   1.674329e+02
  -2.104225e+02  -1.066217e+02
  -4.497088e+01  -3.046837e+02
   6.329949e+00  -3.008020e+02
   8.135528e+00  -1.547117e+02
   2.611164e+01  -8.771313e+01
   1.147146e+02  -9.939738e+01
   1.801279e+02  -5.305714e+01
   1.516163e+02   6.597342e+01
   1.022479e+02   2.042121e+02
  -7.845907e+01   1.602303e+02
  -1.721771e+02  -1.939791e+01
  -1.514876e+02  -1.751679e+02
  -2.597136e+00  -2.400655e+02
   1.683245e+02  -6.932947e+01
   2.604598e+02   1.258479e+02
   1.140180e+02   2.332774e+02
  -3.939682e+01   2.455729e+02
  -1.520181e+02   1.370486e+02
  -8.178790e+01   7.880135e+01
  -1.164405e+02   7.689799e+01
  -2.019461e+02   4.057603e+01
  -3.081024e+02  -3.559286e+01
  -3.043030e+02  -2.728648e+02
   4.763974e+01  -4.024472e+02
   2.898423e+02  -3.736751e+02
   4.237720e+02  -1.346513e+02
   2.512261e+02   1.125960e+02
   4.535355e+01   2.017600e+02
  -6.883208e+01   1.894190e+02
  -1.186151e+01   1.926743e+01
   1.063530e+02  -6.217521e+01
   1.445110e+02   3.061365e+01
   4.064551e+01   1.276076e+02
  -1.229620e+02   9.555553e+01
  -7.570802e+01  -1.793250e+01
   2.065570e+01  -1.438308e+02
   1.372090e+02  -1.437851e+00
   1.303844e+02   1.925422e+02
   2.793261e+01   3.028960e+02
  -2.069754e+02   2.215270e+02
  -3.357009e+02  -2.301983e+01
  -2.196158e+02  -1.978360e+02
  -4.914532e+01  -2.304878e+02
   1.018442e+02  -1.276308e+02
   1.307205e+02  -2.057341e+00
   2.445281e+01   5.488110e+00
  -4.471689e+01  -4.061404e+01
  -1.480859e+01  -9.152723e+01
   9.591094e+01  -6.021049e+01
   1.309816e+02   2.614342e+01
   3.197593e+01   4.677765e+01
  -7.556490e+01  -9.308886e+00
  -3.669811e+01  -6.485788e+01
   1.469700e+02  -9.887409e+01
   2.951856e+02   1.957253e+01
   2.063854e+02   1.356880e+02
   2.950682e+01   2.005227e+02
  -1.624686e+02   2.044607e+02
  -2.143340e+02   9.703712e+01
  -1.257431e+02  -5.391707e+01
   2.188763e+01  -6.471487e+01
   4.696712e+01   1.137091e+00
  -4.135445e+01   8.310425e+01
  -1.505270e+02   4.570146e+01
  -1.747667e+02  -9.245764e+01
  -4.557646e+01  -1.608032e+02
   5.458849e+01  -1.135142e+02
   1.090244e+02  -2.247294e+01
   3.548521e+01   2.787814e+01
  -3.849670e+01  -1.291361e+01
  -3.539032e+01  -9.398670e+01
   8.486847e+01  -1.175552e+02
   1.839186e+02  -1.272393e+01
   1.484581e+02   1.102743e+02
   1.418910e+01   1.660297e+02
  -1.364733e+02   1.266887e+02
  -1.505089e+02   3.558553e+01
  -5.471306e+01  -7.329737e+01
   4.482037e+01  -9.412771e+01
   7.330038e+01  -2.394244e+01
   3.240807e+00   2.174420e+01
  -3.288765e+01   9.089211e+00
   1.154922e+01  -2.329272e+01
   7.541345e+01  -5.672649e+00
   8.370011e+01   7.305236e+01
   5.793553e+00   1.358185e+02
  -1.424018e+02   1.334298e+02
  -2.092194e+02   2.002440e+01
  -1.462433e+02  -1.196102e+02
  -4.408795e+01  -1.888947e+02
   8.820476e+01  -1.231481e+02
   1.073679e+02  -3.325213e+01
   7.028240e+01   3.323849e+01
   3.232444e+01   2.155484e+01
   5.014767e+01  -1.081418e+01
   7.366572e+01  -6.683174e+00
   4.888616e+01   4.221875e+01
  -3.177837e+01   8.821121e+01
  -9.670928e+01   6.392659e+01
  -8.867613e+01  -2.692750e+01
   5.600664e+00  -1.091628e+02
   1.362349e+02  -9.763756e+01
   1.932322e+02   4.507252e+01
   8.596982e+01   1.593094e+02
  -1.142274e+02   1.740961e+02
  -1.977647e+02   6.812597e+01
  -2.190544e+02  -7.130533e+01
  -7.435533e+01  -1.217437e+02
   3.029636e+01  -1.273055e+02
   6.062252e+01  -6.501876e+01
   5.282644e+01  -5.838966e+01
   3.772013e+01  -7.652550e+01
   5.908611e+01  -7.360966e+01
   1.148265e+02  -8.074459e+00
   9.900944e+01   1.198102e+02
   4.125917e+01   1.870345e+02
  -7.869273e+01   1.510341e+02
  -1.278543e+02   8.016938e+00
  -1.242561e+02  -1.073243e+02
  -1.708920e+01  -1.302115e+02
   5.523312e+01  -6.468246e+01
   5.431570e+01   1.360071e+01
  -1.317023e+00   4.664484e+01
  -1.998602e+01   2.730863e+01
   2.552709e+01   1.048960e+01
   7.595557e+01   7.554534e+00
   4.299476e+01   3.407689e+01
  -6.560917e+01   3.937819e+01
  -1.532765e+02  -7.078696e+00
  -1.247719e+02  -6.005005e+01
   7.538676e+00  -8.835506e+01
   1.061078e+02  -7.429774e+01
   1.138986e+02  -1.738863e+01
   4.440342e+01   3.664950e+01
  -4.503256e+01   3.990245e+01
  -6.807794e+01  -1.158327e+01
  -1.909078e+01  -6.416370e+01
   3.310701e+01  -5.892971e+01
   5.888302e+01  -4.320535e+00
   5.080757e+01   4.191043e+01
   5.036999e+01   3.507426e+01
   5.261408e+01  -5.695962e+00
   5.273187e+01  -1.116085e-01
   3.308242e+01   6.530622e+01
  -1.847709e+01   1.216076e+02
  -8.791485e+01   1.365300e+02
  -1.508928e+02   2.986109e+01
  -1.030533e+02  -7.225638e+01
  -1.262434e+01  -1.209947e+02
   7.502915e+01  -7.434915e+01
   5.350474e+01   5.189675e+00
  -4.238623e+01   1.859642e+01
  -1.045977e+02  -2.812719e+01
  -7.734514e+01  -9.269056e+01
   6.417765e+01  -1.045777e+02
   1.556236e+02  -3.879143e+01
   1.243143e+02   2.501185e+01
   2.681436e+01   8.330161e+01
  -5.073496e+01   6.586796e+01
  -3.782135e+01  -2.639289e+00
   3.303237e+01  -2.672589e+01
   8.581874e+01   6.564036e+00
   3.963326e+01   8.982820e+01
  -6.335245e+01   1.337656e+02
  -1.147680e+02   8.566206e+01
  -1.264097e+02  -6.722046e+01
  -2.092582e+01  -1.750693e+02
   6.120500e+01  -1.220487e+02
   8.516808e+01   9.229736e-01
   5.020617e+01   9.879042e+01
  -1.513431e+01   8.220394e+01
  -3.420999e+01   2.184874e+01
  -4.001012e+01  -2.371442e+01
  -1.349947e+01  -5.354780e+00
  -4.932582e+00   1.467234e+01
  -3.048972e+01  -1.991692e+01
  -5.928145e+01  -7.521679e+01
  -3.116588e+01  -9.206730e+01
   4.822657e+01  -3.839798e+01
   1.281090e+02   2.737642e+01
   1.159802e+02   6.340570e+01
   2.092908e+01   4.187006e+01
  -5.689568e+01   3.511716e+01
  -6.986132e+01   5.998415e+00
  -1.480207e+01  -8.535097e+00
   3.080138e+01  -2.114134e+01
   2.053012e+01  -1.063921e+01
  -1.253389e+01   5.446455e+00
   3.652581e+00   3.564979e+00
   4.478973e+01  -1.372587e+00
   8.437218e+01   4.817378e+00
   1.627280e+01   6.823003e+01
  -7.403384e+01   9.059332e+01
  -1.630373e+02   7.022856e+01
  -1.269250e+02  -4.201068e+01
  -2.974179e+01  -1.241717e+02
   6.191529e+01  -1.294489e+02
   8.953633e+01  -5.236741e+01
   5.668524e+01   1.900242e+01
   2.473265e+01   3.490886e+01
   2.542137e+00   1.086454e+01
   1.211353e+01   4.615082e+00
   3.083913e+01   4.113094e+01
   1.357203e+01   7.565008e+01
  -2.321465e+01   6.130826e+01
  -6.476688e+01  -1.040331e+01
  -7.544554e+01  -7.067526e+01
  -2.442146e+01  -9.591153e+01
   4.960582e+01  -3.292524e+01
   9.376066e+01   4.526787e+01
   4.345733e+01   7.355884e+01
  -4.167440e+01   6.258464e+01
  -7.888437e+01  -3.972612e+00
  -4.436765e+01  -4.988413e+01
   2.413610e+01  -5.357461e+01
   3.433311e+01  -2.395248e+01
  -2.415473e+01   8.045135e+00
  -6.225955e+01   8.816317e+00
  -2.155927e+01  -1.946787e+01
   6.887116e+01  -6.405338e+01
   8.559569e+01  -5.247062e+01
   6.224593e+01   1.114823e+01
   6.185208e+00   7.121289e+01
  -4.253242e+01   7.507901e+01
  -3.496307e+01   1.066074e+01
  -1.087367e+01  -4.696688e+01
   1.834431e+01  -4.414503e+01
   2.914781e+01   8.290059e+00
   2.963746e+01   4.147030e+01
   3.206996e+00   3.512996e+01
  -2.760155e+01  -2.087207e+00
  -3.729273e+01  -1.972722e+01
  -1.716127e+01  -1.532517e+00
   5.792010e+00   1.571701e+01
   3.560481e+00   9.750563e+00
  -3.114405e+00  -3.162551e+01
  -1.569947e+00  -4.430260e+01
   2.697449e+01  -2.218258e+01
   3.978898e+01   3.342674e+01
   1.453125e+01   5.053354e+01
  -3.134331e+01   2.581683e+01
  -5.583563e+01  -2.897204e+01
  -2.206785e+01  -5.814900e+01
   4.491050e+01  -3.393154e+01
   8.572670e+01  -2.658596e+00
   4.826821e+01   2.404656e+01
  -2.414533e+01   4.053618e+01
  -5.887196e+01   2.804579e+01
  -2.164300e+01   6.667054e+00
   2.675028e+01  -3.822081e+00
   2.659902e+01   4.847076e+00
  -1.799307e+01   2.119162e+01
  -5.938582e+01   1.952563e+01
