
 $NMID
 id='ANONYMOUS ', fmtdat='(2E16.6)'
 volume=1.0
 tramp=1.0
 $END
   2.797157e+03   2.174120e+02
   1.695522e+03   1.266770e+03
   6.938587e+02   1.695975e+03
  -1.123074e+03   8.770595e+02
  -7.950837e+02   3.341553e+02
  -3.743102e+02  -9.694744e+01
   8.590810e+01   7.964064e+01
  -4.868147e+01   4.712147e+02
  -2.966162e+02   3.109181e+02
  -5.350028e+02   4.462987e+01
  -4.286069e+02  -4.885077e+02
   7.548923e+00  -4.530104e+02
   2.400453e+02  -2.427909e+02
   7.085754e+01   3.955165e+02
  -8.003414e+01   4.880851e+02
  -2.637596e+02   5.915934e+01
  -2.357896e+02  -5.094342e+02
   3.752522e+01  -5.174326e+02
   4.915576e+02  -3.773602e+02
   3.770080e+02   1.187595e+02
   1.541260e+02   3.141113e+02
  -1.194774e+02   2.156934e+02
  -1.837848e+01   6.119180e+01
   1.949908e+02   1.732517e+02
   2.133195e+02   3.017666e+02
  -1.192937e+02   3.020925e+02
  -4.438486e+02   3.475451e+01
  -4.311646e+02  -1.700191e+02
  -1.816855e+02  -2.285994e+02
   2.317402e+02  -2.207488e+02
   4.557346e+02   1.783410e+02
   1.983553e+02   2.452661e+02
  -2.641197e+02   2.389204e+02
  -3.734925e+02   9.493923e+01
  -2.746317e+02  -8.835277e+01
  -8.371348e+01  -2.969614e+02
  -7.922436e+01  -1.870125e+02
  -9.915365e+01   6.210515e+01
  -2.713225e+02   7.899786e+01
  -1.281931e+02  -2.257446e+02
   6.597595e+01  -3.905448e+02
   3.470169e+02  -3.667289e+02
   2.939494e+02  -4.554715e+00
   1.401352e+02   2.918733e+02
  -6.582062e+01   5.062783e+01
  -6.466588e+01  -2.064278e+02
   9.947069e+01  -3.692473e+02
   3.611117e+02   4.796860e+01
   4.483936e+02   3.073521e+02
   7.466088e+01   4.549458e+02
  -3.023598e+02   1.474313e+02
  -4.737371e+02  -1.234596e+02
  -2.300632e+02  -2.385553e+02
   9.517724e+01  -1.764756e+02
   2.055175e+02  -4.191570e+01
   1.708719e+02  -3.394611e+01
   5.517330e+01   4.856622e+00
   4.173813e+00  -1.615141e+01
   9.655009e+01   2.397791e+01
   2.012098e+02   5.276641e+01
   8.505552e+01   1.853650e+02
  -1.239053e+02   2.343956e+02
  -2.897753e+02   1.191963e+02
  -2.479270e+02  -9.249162e+01
   1.841937e+01  -3.192935e+02
   2.707980e+02  -3.409962e+02
   3.584387e+02  -1.580366e+02
   1.888033e+02   1.508086e+02
   1.141496e+01   2.955459e+02
  -6.784478e+01   2.442180e+02
  -1.358718e+00   1.533081e+02
  -2.113774e+01   1.538078e+02
  -1.643539e+02   1.348986e+02
  -2.253538e+02   5.720293e+01
  -1.950210e+02  -1.045540e+02
  -7.326702e+01  -2.310594e+02
   1.180735e+02  -1.270846e+02
   1.718136e+02   4.958919e+01
   8.839688e+01   2.562488e+02
  -5.940869e+01   2.534682e+02
  -2.083160e+02   1.267853e+01
  -2.653458e+02  -1.771326e+02
  -8.464883e+01  -2.507314e+02
   6.235392e+01  -2.200919e+02
   1.895915e+02  -1.344478e+02
   1.186353e+02  -1.049013e+02
   1.591351e+02  -6.542427e+01
   2.594815e+02  -3.075699e+00
   3.497092e+02   1.084513e+02
   2.997308e+02   3.473390e+02
  -7.816935e+01   3.995895e+02
  -3.907722e+02   3.531195e+02
  -4.656756e+02   1.277828e+02
  -2.460184e+02  -1.349288e+02
  -2.646280e+00  -2.407367e+02
   7.269154e+01  -1.843181e+02
  -1.843069e+01  -1.447507e+01
  -1.244921e+02   1.988674e+01
  -1.096151e+02  -5.909533e+01
   1.215345e+01  -1.424521e+02
   1.440808e+02  -4.930475e+01
   6.947808e+01   4.470724e+01
  -6.909279e+01   1.217339e+02
  -1.500160e+02  -3.281454e+01
  -1.095016e+02  -2.426612e+02
   5.260244e+01  -2.988253e+02
   2.628886e+02  -1.803883e+02
   3.534219e+02   7.174597e+01
   2.450700e+02   2.377683e+02
   2.889107e+01   2.436628e+02
  -1.465728e+02   1.119151e+02
  -1.447310e+02   5.063632e-01
  -3.166494e+01  -9.220248e+00
   3.782613e+01   6.943187e+01
  -1.884525e+00   9.366745e+01
  -1.181585e+02   3.875856e+01
  -1.555748e+02  -4.840449e+01
  -2.801754e+00  -4.821632e+01
   7.712626e+01   3.511363e+01
   3.092080e+01   8.124288e+01
  -1.827858e+02   7.101039e+01
  -3.133383e+02  -6.736898e+01
  -2.075703e+02  -1.818919e+02
   5.029412e+00  -2.453185e+02
   2.185482e+02  -1.754227e+02
   2.383380e+02  -7.032991e+01
   1.180853e+02   5.898877e+01
  -2.827055e+01   6.453722e+01
  -5.133228e+01  -1.772453e+01
   7.488396e+01  -7.343232e+01
   1.605930e+02  -9.216948e+00
   1.686706e+02   9.422127e+01
   2.263445e+01   1.449271e+02
  -7.286651e+01   1.139145e+02
  -1.198199e+02  -6.776163e+00
  -3.372090e+01  -2.511201e+01
   5.319775e+01   3.031542e+01
   2.734390e+01   1.125337e+02
  -1.189051e+02   1.074885e+02
  -1.975879e+02   3.734571e-01
  -1.745582e+02  -1.317782e+02
  -4.684945e+00  -1.743854e+02
   1.589025e+02  -1.071082e+02
   1.491288e+02  -7.133362e+00
   4.619181e+01   8.095990e+01
  -6.426227e+01   8.357724e+01
  -7.507240e+01   8.817963e+00
   1.903660e+00  -2.359199e+01
   3.980743e+01   3.279514e-01
  -6.444126e+00   2.927948e+01
  -8.621430e+01   1.237083e+01
  -8.798471e+01  -8.777461e+01
  -2.362232e+00  -1.673007e+02
   1.524992e+02  -1.193297e+02
   2.261392e+02   2.937559e+00
   1.650315e+02   1.213741e+02
   8.769672e+00   2.086250e+02
  -7.348562e+01   1.197146e+02
  -1.092615e+02   3.676484e+01
  -7.542148e+01  -3.890848e+01
  -3.354314e+01  -2.367180e+01
  -5.405694e+01   7.434240e+00
  -8.741236e+01   1.127586e-01
  -5.512739e+01  -5.619851e+01
   3.217990e+01  -1.000840e+02
   1.142602e+02  -6.586539e+01
   1.032031e+02   4.482680e+01
  -2.882824e+01   1.221031e+02
  -1.756528e+02   8.443838e+01
  -1.952019e+02  -8.305184e+01
  -7.851915e+01  -2.101199e+02
   1.395047e+02  -1.767009e+02
   2.183263e+02  -4.870598e+01
   2.175124e+02   1.138787e+02
   7.937078e+01   1.352270e+02
  -4.424058e+01   1.341306e+02
  -7.207874e+01   6.917556e+01
  -6.678142e+01   5.425377e+01
  -5.697195e+01   9.352176e+01
  -8.599550e+01   8.231631e+01
  -1.288685e+02  -1.204301e+01
  -9.957466e+01  -1.350368e+02
  -1.604406e+01  -2.014660e+02
   1.104885e+02  -1.349942e+02
   1.222370e+02  -7.011569e+00
   1.150459e+02   1.363011e+02
  -1.416911e+00   1.364209e+02
  -7.237176e+01   6.882116e+01
  -5.336601e+01  -2.490782e+01
   1.265185e+01  -5.330985e+01
   3.189183e+01  -3.035009e+01
  -2.065670e+01  -1.408687e+01
  -8.869944e+01  -1.976834e+01
  -4.743139e+01  -4.194344e+01
   7.845386e+01  -3.492090e+01
   1.579594e+02   7.887719e+00
   1.267523e+02   7.966932e+01
  -3.296182e+00   9.177282e+01
  -1.434906e+02   6.909376e+01
  -1.336649e+02  -8.457313e+00
  -4.283824e+01  -5.049043e+01
   4.655196e+01  -4.231019e+01
   7.005443e+01   1.669502e+01
   2.167668e+01   7.119271e+01
  -4.523117e+01   4.777552e+01
  -6.052510e+01  -2.111887e-01
  -4.934188e+01  -5.566543e+01
  -4.475418e+01  -4.730413e+01
  -5.685408e+01   1.114747e+00
  -6.001984e+01  -4.913421e+00
  -3.658790e+01  -6.485600e+01
   2.389721e+01  -1.360531e+02
   1.168787e+02  -1.489798e+02
   1.759049e+02  -3.424263e+01
   1.094251e+02   1.053093e+02
  -1.505540e+01   1.468499e+02
  -1.009344e+02   6.695174e+01
  -6.035451e+01  -1.747279e+01
   5.172016e+01  -1.050445e+01
   1.221731e+02   5.074187e+01
   6.475283e+01   1.040097e+02
  -8.437120e+01   1.123911e+02
  -1.831300e+02   2.105577e+01
  -1.485040e+02  -5.043351e+01
  -2.096501e+01  -8.866030e+01
   7.730665e+01  -5.861249e+01
   4.316958e+01   6.069183e+00
  -3.915836e+01   3.098238e+01
  -8.879767e+01  -1.753151e+01
  -2.828751e+01  -1.030755e+02
   8.548854e+01  -1.254797e+02
   1.459633e+02  -5.274513e+01
   1.086627e+02   7.806883e+01
   2.204080e+01   1.782864e+02
  -7.186312e+01   1.291765e+02
  -9.411551e+01  -1.305769e+01
  -2.943588e+01  -9.567615e+01
   3.155634e+01  -9.523451e+01
   4.840322e+01  -1.500589e+01
   2.943228e+01   3.245874e+01
   1.011804e+01   8.171627e+00
   6.774199e+00  -1.514213e+01
   3.201450e+01   2.465377e+01
   6.007665e+01   9.909811e+01
   3.135136e+01   1.036382e+02
  -5.983852e+01   2.977173e+01
  -1.331813e+02  -4.285576e+01
  -9.860588e+01  -6.868835e+01
  -1.216565e+01  -5.575133e+01
   6.311773e+01  -2.265165e+01
   8.419344e+01  -6.790195e-01
   1.709769e+01   9.322586e+00
  -3.152367e+01   1.742293e+01
  -2.438930e+01   8.765771e+00
   1.379025e+01  -4.590681e+00
  -5.133470e-02  -4.624753e+00
  -4.899818e+01  -4.041247e-01
  -8.771272e+01  -1.887326e+01
  -1.661616e+01  -8.186153e+01
   9.492714e+01  -9.369949e+01
   1.764926e+02  -5.272378e+01
   1.374753e+02   7.155042e+01
   1.829408e+01   1.394388e+02
  -7.519352e+01   1.387185e+02
  -1.024819e+02   4.555363e+01
  -6.373842e+01  -1.783005e+01
  -2.293578e+01  -3.995804e+01
  -4.546006e+00  -1.221188e+01
  -1.473458e+01  -8.047045e+00
  -2.381662e+01  -5.269181e+01
  -7.294976e+00  -8.650442e+01
   2.879134e+01  -6.763811e+01
   6.555924e+01   1.117848e+01
   7.413600e+01   8.814123e+01
   1.502553e+01   1.099657e+02
  -6.227230e+01   3.301824e+01
  -9.314944e+01  -6.377232e+01
  -3.782260e+01  -7.569948e+01
   5.969111e+01  -6.003404e+01
   9.387058e+01   1.160027e+01
   4.547291e+01   6.405412e+01
  -3.082698e+01   6.301221e+01
  -4.656275e+01   2.826967e+01
   2.164913e+01  -2.912852e+00
   6.161706e+01   1.424911e+00
   2.177048e+01   2.599178e+01
  -8.823179e+01   5.701438e+01
  -1.139826e+02   4.470241e+01
  -6.699926e+01  -1.323368e+01
   1.764984e+01  -7.601804e+01
   5.570949e+01  -8.075056e+01
   4.055909e+01  -1.343334e+01
   8.711766e+00   4.966596e+01
  -2.799137e+01   5.013310e+01
  -3.224042e+01  -9.702532e+00
  -3.007055e+01  -5.417515e+01
   1.162107e+00  -4.170208e+01
   2.809381e+01   1.868641e+00
   3.803331e+01   3.110823e+01
   1.903215e+01   4.551622e+00
  -7.722052e+00  -1.885877e+01
  -3.957387e+00  -1.326617e+01
   2.055457e+00   2.716029e+01
   4.349727e+00   5.138263e+01
  -2.994449e+01   2.740778e+01
  -3.969030e+01  -3.422185e+01
  -1.897623e+01  -5.639506e+01
   3.334575e+01  -2.151931e+01
   5.195755e+01   4.069396e+01
   1.265219e+01   5.928899e+01
  -5.410574e+01   3.190968e+01
  -9.267335e+01  -1.520109e+01
  -4.561080e+01  -4.188329e+01
   2.656624e+01  -4.010508e+01
   6.925787e+01  -1.880276e+01
   2.472389e+01  -6.442428e+00
  -2.385052e+01   1.872756e+00
  -3.000830e+01  -3.212931e-01
   1.707828e+01  -1.697342e+01
   6.492976e+01  -1.079295e+01
