
 $NMID
 id='ANONYMOUS ', fmtdat='(2E16.6)'
 volume=1.0
 tramp=1.0
 $END
  -3.237478e+03  -3.046491e+02
  -1.642159e+03  -1.811110e+03
   2.242259e+02  -2.043714e+03
   1.380700e+03  -9.657908e+02
   1.097892e+03   9.691720e+01
  -5.647513e+01   9.093411e+01
  -3.299011e+02  -1.936867e+02
   1.413275e+02  -7.150154e+02
   4.180949e+02  -5.121198e+02
   6.048235e+02   1.200037e+01
   3.914728e+02   6.846590e+02
  -1.859548e+02   6.265525e+02
  -4.348084e+02   1.116171e+02
  -1.314010e+02  -4.420381e+02
   1.745552e+02  -5.506379e+02
   3.669232e+02  -3.026358e+01
   2.321086e+02   5.471651e+02
  -2.128108e+02   5.689794e+02
  -5.512547e+02   2.471603e+02
  -4.095996e+02  -1.703560e+02
  -1.197990e+02  -3.542605e+02
   1.893310e+02  -2.623777e+02
   9.230697e+01  -4.140286e+01
  -1.210989e+02  -7.521856e+01
  -2.696915e+02  -2.221682e+02
  -1.349872e+01  -3.487366e+02
   4.001104e+02  -1.579383e+02
   6.420709e+02   6.301877e+01
   2.399392e+02   4.431740e+02
  -3.007289e+02   3.300090e+02
  -4.892046e+02  -1.215945e+02
  -1.949292e+02  -3.302125e+02
   2.962582e+02  -3.511256e+02
   4.387128e+02  -1.514639e+02
   3.331111e+02   1.862454e+02
   7.769118e+01   3.650412e+02
  -8.669773e+01   1.688402e+02
   1.612107e+01  -6.077769e+01
   2.460787e+02  -1.764995e+02
   2.346853e+02   1.347216e+02
   1.028509e+02   5.103370e+02
  -2.589798e+02   3.798816e+02
  -4.475008e+02   1.021992e+01
  -1.682696e+02  -3.873585e+02
   1.449225e+02  -1.272725e+02
   1.314491e+02   1.692761e+02
  -1.257411e+02   4.057670e+02
  -4.141980e+02   2.394414e+01
  -4.629148e+02  -3.589895e+02
  -6.522895e+01  -4.806023e+02
   2.633055e+02  -1.867880e+02
   5.560919e+02   1.189677e+02
   2.115761e+02   3.138651e+02
  -1.117388e+02   2.164857e+02
  -3.115408e+02   4.316860e+01
  -2.182767e+02  -7.938081e+01
  -5.732292e+00  -5.404737e+01
   3.678291e+01   8.902182e+01
  -1.298227e+02   8.726660e+00
  -2.450013e+02  -1.018813e+02
  -8.976039e+01  -2.038413e+02
   1.409687e+02  -2.438263e+02
   3.146804e+02  -1.130992e+02
   2.577531e+02   1.149175e+02
  -6.030822e+01   2.838646e+02
  -3.003279e+02   3.642114e+02
  -3.534198e+02   1.721705e+02
  -2.137111e+02  -1.500178e+02
  -6.520184e+01  -3.706819e+02
   4.085087e+01  -3.347387e+02
   5.265760e+01  -1.434814e+02
   4.356114e+01  -9.222471e+01
   1.438174e+02  -7.876170e+01
   2.474060e+02  -8.212093e+01
   2.722280e+02   8.627289e+01
   6.949683e+01   2.484967e+02
  -8.068468e+01   1.773907e+02
  -1.996618e+02  -4.016843e+01
  -1.266336e+02  -2.641999e+02
   6.317366e+01  -2.686250e+02
   2.572289e+02  -5.951505e+01
   2.782876e+02   2.183711e+02
   1.588685e+02   2.864335e+02
  -9.318665e+01   2.200395e+02
  -2.171379e+02   1.250951e+02
  -1.419082e+02   6.113461e+01
  -1.643203e+02   3.483294e+01
  -2.791943e+02   1.073017e+01
  -3.952682e+02  -1.512804e+02
  -2.438040e+02  -2.979030e+02
   6.273359e+01  -3.661441e+02
   4.091732e+02  -3.158148e+02
   4.800184e+02  -1.336027e+02
   2.535296e+02   1.094734e+02
   1.108598e+01   2.895288e+02
  -1.143568e+02   1.865471e+02
  -2.409376e+01   3.345241e+01
   1.260945e+02  -4.067984e+01
   1.089072e+02   4.529988e+01
   5.454410e-01   1.656887e+02
  -1.324870e+02   6.738950e+01
  -1.074775e+02  -4.159700e+01
   2.846768e+01  -1.145045e+02
   1.513621e+02   2.403739e+01
   1.142868e+02   2.805814e+02
  -5.308796e+01   3.093129e+02
  -2.616750e+02   1.737741e+02
  -3.565943e+02  -1.074478e+02
  -2.686161e+02  -2.756573e+02
  -4.493335e+01  -2.701843e+02
   1.442353e+02  -1.141503e+02
   1.556790e+02  -1.644984e+01
   3.776797e+01   2.052897e+01
  -5.085824e+01  -6.823004e+01
   3.092230e+00  -1.084398e+02
   1.401607e+02  -5.109582e+01
   1.524468e+02   3.861416e+01
   2.555338e+01   4.827872e+01
  -6.842123e+01  -1.646021e+01
  -3.448207e+01  -8.250625e+01
   1.419305e+02  -6.262850e+01
   2.792703e+02   4.386305e+01
   2.516068e+02   1.706867e+02
   1.723035e+01   2.653386e+02
  -1.895018e+02   1.931450e+02
  -2.627099e+02   9.518107e+01
  -1.277183e+02  -3.527656e+01
   4.858934e+01  -7.573020e+01
   6.500078e+01   1.238684e+01
  -6.703102e+01   6.207552e+01
  -1.702835e+02   2.039542e+01
  -1.857859e+02  -9.041493e+01
  -3.183992e+01  -1.645332e+02
   9.276139e+01  -1.297195e+02
   1.248356e+02  -5.940576e+00
   5.353805e+01   3.716316e+01
  -4.438618e+01  -3.090649e+01
  -1.708451e+01  -1.059466e+02
   1.141331e+02  -9.794238e+01
   1.932041e+02   7.520623e+00
   1.761765e+02   1.294632e+02
   2.975809e+00   2.001312e+02
  -1.729298e+02   1.105523e+02
  -1.473563e+02  -3.592056e+00
  -6.577284e+01  -9.847693e+01
   7.779422e+01  -8.779359e+01
   6.721391e+01  -3.458262e+00
   8.525769e+00   1.803069e+01
  -3.752351e+01   5.376486e+00
   6.097311e+00  -2.543951e+01
   7.999009e+01  -4.250588e+00
   9.657890e+01   8.694269e+01
   8.744623e+00   1.726012e+02
  -1.333322e+02   1.191567e+02
  -2.439178e+02  -2.041488e+01
  -1.950220e+02  -1.163590e+02
  -8.373088e+00  -2.286283e+02
   8.191966e+01  -1.503770e+02
   1.219955e+02  -4.288480e+01
   7.053307e+01   4.806341e+01
   3.142813e+01   3.184990e+01
   4.934738e+01  -6.045883e+00
   7.956762e+01   3.717118e+00
   4.848662e+01   6.754852e+01
  -2.997601e+01   9.838534e+01
  -1.187163e+02   5.617654e+01
  -1.013410e+02  -4.450026e+01
   2.927396e+01  -1.238023e+02
   1.668160e+02  -7.129857e+01
   1.727276e+02   8.924537e+01
   7.653490e+01   2.052180e+02
  -1.226273e+02   2.050976e+02
  -2.537923e+02   6.603989e+01
  -2.356559e+02  -9.694997e+01
  -1.102430e+02  -1.456312e+02
   5.510520e+01  -1.362520e+02
   8.683419e+01  -6.789476e+01
   7.970257e+01  -5.967111e+01
   6.366135e+01  -9.094943e+01
   9.098837e+01  -8.053420e+01
   1.274059e+02   3.558222e+01
   1.091579e+02   1.475344e+02
  -3.070663e+01   2.183930e+02
  -1.072865e+02   1.397777e+02
  -1.504459e+02  -1.586467e+00
  -9.935686e+01  -1.379452e+02
  -2.327006e+00  -1.608947e+02
   7.194598e+01  -8.144547e+01
   5.241329e+01   1.456313e+01
  -1.298954e+01   4.880162e+01
  -2.536096e+01   3.456656e+01
   1.916680e+01   1.487317e+01
   8.520260e+01   3.137635e+01
   4.216320e+01   4.525676e+01
  -7.071520e+01   2.515102e+01
  -1.536723e+02  -2.896125e+01
  -1.140834e+02  -7.561254e+01
  -4.284239e+00  -8.203838e+01
   1.550457e+02  -6.230480e+01
   1.538395e+02   1.816486e+01
   4.140660e+01   5.033649e+01
  -5.409622e+01   4.021747e+01
  -7.737746e+01  -2.596825e+01
  -1.397935e+01  -7.350624e+01
   5.600729e+01  -5.209037e+01
   6.370225e+01  -3.762405e+00
   4.881626e+01   5.499926e+01
   3.952263e+01   5.074648e+01
   5.674897e+01   7.515810e+00
   6.223933e+01   6.849740e+00
   3.648341e+01   6.357914e+01
  -1.360328e+01   1.463518e+02
  -1.247195e+02   1.429041e+02
  -1.767334e+02   1.768253e+01
  -1.026543e+02  -1.135025e+02
   1.039621e+01  -1.431159e+02
   1.043346e+02  -6.603509e+01
   5.919286e+01   1.902518e+01
  -5.338194e+01   1.574162e+01
  -1.316521e+02  -4.642143e+01
  -5.647566e+01  -1.015623e+02
   9.083454e+01  -1.053973e+02
   1.910034e+02  -4.773184e+01
   1.455808e+02   6.820699e+01
   2.444439e+01   8.128601e+01
  -6.700223e+01   4.958139e+01
  -4.949944e+01  -3.484532e+00
   3.921748e+01  -2.672617e+01
   8.406581e+01   3.487489e+01
   1.258534e+01   1.123733e+02
  -8.483108e+01   1.353202e+02
  -1.659637e+02   3.909612e+01
  -1.084463e+02  -9.630921e+01
  -2.116483e+01  -1.677360e+02
   8.159258e+01  -1.256235e+02
   1.017143e+02   1.857026e+01
   3.831505e+01   9.950129e+01
  -2.651513e+01   9.391113e+01
  -5.251903e+01   1.168254e+01
  -3.920036e+01  -3.389970e+01
  -1.709672e+01  -9.589997e+00
  -4.916905e+00   1.717452e+01
  -2.695883e+01  -2.596099e+01
  -4.216039e+01  -9.680128e+01
  -3.139285e+01  -1.001412e+02
   5.656211e+01  -2.846417e+01
   1.235879e+02   3.834373e+01
   1.065075e+02   7.213594e+01
   9.280170e+00   5.622344e+01
  -7.586544e+01   2.653168e+01
  -8.553565e+01   2.841117e-01
  -1.457268e+01  -9.607443e+00
   3.504196e+01  -1.824310e+01
   2.087640e+01  -9.522827e+00
  -1.703745e+01   2.886199e+00
   2.096642e+00   4.831610e+00
   6.294260e+01   7.611807e+00
   9.065804e+01   2.860827e+01
   1.593078e+01   8.738527e+01
  -1.100962e+02   9.587321e+01
  -1.970798e+02   2.412273e+01
  -1.503240e+02  -6.358794e+01
  -2.440147e+01  -1.484222e+02
   8.906960e+01  -1.600271e+02
   1.182111e+02  -5.460870e+01
   7.531297e+01   9.866653e+00
   2.245346e+01   3.829687e+01
   2.890914e-02   1.373322e+01
   1.378359e+01   8.121540e+00
   2.287716e+01   5.542850e+01
   1.643127e+01   9.388896e+01
  -2.780718e+01   6.888381e+01
  -7.634798e+01  -1.413959e+01
  -7.785302e+01  -9.734146e+01
  -6.342526e+00  -1.121241e+02
   7.364828e+01  -2.639346e+01
   9.671369e+01   6.978423e+01
   2.572191e+01   9.310390e+01
  -7.633339e+01   5.460491e+01
  -9.582000e+01  -9.763692e+00
  -3.938853e+01  -6.321579e+01
   3.106730e+01  -5.884047e+01
   4.474655e+01  -2.616167e+01
  -2.738462e+01   2.044181e+00
  -6.486277e+01  -4.158724e+00
  -1.728056e+01  -3.078818e+01
   8.794778e+01  -5.048437e+01
   1.182940e+02  -3.963394e+01
   6.690095e+01   2.376314e+01
  -2.801543e+01   8.675246e+01
  -5.747373e+01   8.063908e+01
  -4.008325e+01   8.949444e+00
  -5.266997e+00  -4.911120e+01
   3.151285e+01  -4.508336e+01
   3.416649e+01   1.254585e+01
   2.455976e+01   5.927387e+01
  -4.110510e+00   3.816816e+01
  -3.064297e+01  -8.666445e+00
  -3.386296e+01  -3.348698e+01
  -2.153455e+01  -3.182346e+00
   6.620861e+00   1.918340e+01
   4.061128e+00   6.220134e+00
  -9.643828e-01  -2.779735e+01
  -9.196426e-01  -4.957234e+01
   3.099230e+01  -1.902438e+01
   3.371829e+01   3.938253e+01
   9.037767e+00   5.658878e+01
  -3.967945e+01   1.974996e+01
  -5.676807e+01  -3.929439e+01
  -1.747829e+01  -5.829610e+01
   6.023722e+01  -3.086518e+01
   9.125590e+01   1.910428e+01
   4.286185e+01   5.212726e+01
  -2.625620e+01   3.665081e+01
  -6.232336e+01   1.311557e+01
  -2.612252e+01   5.181718e+00
   2.976982e+01   2.150857e+00
   3.703733e+01   9.386020e-03
  -2.192757e+01   2.190176e+01
  -8.735223e+01   1.398868e+01
