
 $NMID
 id='ANONYMOUS ', fmtdat='(2E16.6)'
 volume=1.0
 tramp=1.0
 $END
  -2.749250e+03   6.229218e+02
  -2.176211e+03  -8.497009e+02
  -2.950550e+02  -2.115830e+03
   7.903785e+02  -1.441082e+03
   7.778047e+02  -3.828807e+02
   2.386532e+02   1.642584e+02
  -2.922162e+02   5.278005e+01
  -1.458099e+02  -2.942819e+02
   4.109884e+02  -5.493096e+02
   5.188416e+02  -6.490959e+01
   4.731299e+02   3.487929e+02
   1.943790e+02   5.117467e+02
  -1.489584e+02   1.970870e+02
  -2.210875e+02  -2.078350e+02
  -6.927124e+01  -4.796289e+02
   3.489468e+02  -2.043704e+02
   2.559854e+02   3.597863e+02
  -1.271431e+02   6.041375e+02
  -3.514306e+02   2.687503e+02
  -3.954069e+02  -1.053798e+02
  -1.717573e+02  -3.350713e+02
   6.864720e+01  -2.447007e+02
   3.948091e+00  -9.861222e+01
  -1.168450e+02  -8.696904e+01
  -2.501432e+02  -2.660502e+02
   5.937386e+01  -2.602013e+02
   3.676586e+02  -1.228553e+02
   3.885239e+02   1.878300e+02
   9.646918e+01   2.203383e+02
  -1.584786e+02   1.511580e+02
  -3.905709e+02  -1.465448e+02
  -1.744343e+02  -2.559297e+02
   1.227780e+02  -3.286813e+02
   3.752562e+02  -1.957996e+02
   2.951401e+02   1.264172e+02
   1.080345e+02   2.234850e+02
   2.541263e+01   1.520715e+02
   8.036435e+00   6.619756e+01
   2.274985e+02  -6.173289e+01
   9.594092e+01   1.209780e+02
   2.126279e+01   3.824262e+02
  -1.717548e+02   3.831582e+02
  -2.261210e+02   1.290006e+02
  -1.489405e+02  -2.532418e+02
   6.577700e+01  -1.644595e+02
   1.273295e+02   2.003208e+02
   3.444003e+01   2.842424e+02
  -3.220590e+02   8.999695e+01
  -4.004027e+02  -3.097804e+02
  -1.568342e+02  -3.896313e+02
   2.174241e+02  -2.093087e+02
   3.389649e+02   9.765560e+00
   2.950630e+02   1.616371e+02
   3.880007e+01   1.202574e+02
  -2.140430e+02   1.358798e+02
  -2.277785e+02  -2.863904e+01
  -1.212330e+01  -5.205346e+01
   3.528069e+00   2.377450e+01
  -3.510357e+01   6.217635e+01
  -1.215652e+02  -4.078735e+01
  -1.287909e+02  -1.475712e+02
   1.310947e+02  -1.804794e+02
   2.964506e+02  -9.657276e+01
   2.267897e+02   1.143511e+02
  -1.771597e+01   2.951068e+02
  -2.656739e+02   3.072007e+02
  -2.754681e+02   1.508247e+02
  -1.759930e+02  -1.304325e+02
  -7.993909e+01  -2.589969e+02
   5.215972e+01  -3.000491e+02
   3.191169e+00  -1.257151e+02
   5.886477e+01  -9.676440e+01
   1.011292e+02  -9.609879e+01
   2.350711e+02  -2.161066e+01
   1.852043e+02   1.464411e+02
   7.431467e+01   2.187217e+02
  -3.604056e+01   1.499105e+02
  -1.261618e+02  -2.588636e+01
  -8.364093e+01  -1.606770e+02
   2.799859e+01  -1.569255e+02
   1.976652e+02  -4.334939e+01
   2.239740e+02   9.849127e+01
   1.636499e+02   2.319614e+02
  -7.147866e+00   2.001446e+02
  -1.188401e+02   1.589578e+02
  -1.334185e+02   8.140690e+01
  -1.271670e+02   3.737477e+01
  -2.268059e+02  -5.174401e-01
  -3.365372e+02  -8.259784e+01
  -2.601442e+02  -2.188806e+02
   2.059226e+01  -3.428477e+02
   3.388781e+02  -3.011991e+02
   3.361773e+02  -1.620819e+02
   1.971247e+02   8.103294e+01
  -3.530074e+00   1.795313e+02
  -3.404190e+01   1.567393e+02
  -2.176189e+00   4.812159e+01
   7.716221e+01   2.114857e+00
   8.157162e+01   9.568950e-03
  -9.046606e+00   7.587755e+01
  -4.741404e+01   6.726962e+01
  -8.849456e+01  -4.873958e+01
   1.906717e+01  -8.234112e+01
   1.178971e+02  -4.466156e+00
   1.227584e+02   1.445823e+02
   8.619848e+00   2.399062e+02
  -1.922027e+02   1.492895e+02
  -2.826614e+02  -2.551395e+01
  -2.228199e+02  -2.330764e+02
  -3.640469e+01  -2.208098e+02
   7.008386e+01  -1.100047e+02
   1.075232e+02   2.168224e+00
   1.931112e+01   4.324997e+00
  -3.228586e+01  -5.463496e+01
  -3.936644e+00  -8.404559e+01
   1.000172e+02  -4.342457e+01
   9.664275e+01   3.039065e+01
   3.154356e+01   3.496706e+01
  -5.527233e+01  -1.291364e+01
  -2.480429e+01  -7.473410e+01
   1.147360e+02  -5.422984e+01
   2.120466e+02   1.624980e+01
   2.310753e+02   1.255957e+02
   4.097609e+01   1.913355e+02
  -1.756974e+02   2.125709e+02
  -2.231279e+02   8.889845e+01
  -1.026936e+02  -1.476314e+00
   2.469021e+01  -6.377372e+01
   5.087225e+01   5.157720e+00
  -3.865082e+01   5.731398e+01
  -1.519240e+02   5.926423e+01
  -1.612049e+02  -4.488315e+01
  -4.181970e+01  -1.545133e+02
   6.424309e+01  -1.130543e+02
   8.279837e+01  -2.842947e+01
   2.935817e+01   2.455355e+01
  -3.274102e+01  -2.168528e+01
  -8.075127e+00  -1.003593e+02
   8.891548e+01  -8.567365e+01
   1.692887e+02  -1.928948e+01
   1.604463e+02   1.419472e+02
   2.610944e+01   1.781386e+02
  -1.101607e+02   1.366711e+02
  -1.507570e+02   3.467555e+01
  -5.920017e+01  -6.824351e+01
   4.184120e+01  -7.337562e+01
   3.957267e+01  -1.741648e+01
  -4.838691e+00   1.457403e+01
  -3.092157e+01  -5.939862e-01
   1.018562e+01  -2.325112e+01
   8.925850e+01  -1.186885e+01
   9.259625e+01   8.278633e+01
   1.233542e+01   1.487313e+02
  -1.022414e+02   1.349853e+02
  -2.019338e+02  -3.553984e+01
  -1.619380e+02  -1.144917e+02
  -3.595329e+01  -1.736956e+02
   9.092425e+01  -1.437640e+02
   9.581218e+01  -4.036236e+01
   6.710555e+01   2.870041e+01
   2.964017e+01   2.143760e+01
   4.346175e+01  -9.351913e+00
   7.785881e+01  -1.023042e+01
   4.292308e+01   5.538806e+01
  -3.906074e+01   1.013235e+02
  -1.085178e+02   4.835730e+01
  -9.744182e+01  -3.651340e+01
   1.165416e+01  -1.246330e+02
   1.333162e+02  -5.849905e+01
   1.715261e+02   3.774291e+01
   9.077252e+01   1.699217e+02
  -1.152830e+02   1.717327e+02
  -2.434518e+02   6.637151e+01
  -1.935069e+02  -7.924319e+01
  -8.977538e+01  -1.370187e+02
   2.113558e+01  -1.015775e+02
   7.419182e+01  -6.892809e+01
   5.525642e+01  -6.466326e+01
   4.395875e+01  -8.411745e+01
   7.085758e+01  -7.184277e+01
   9.115054e+01   1.299427e+00
   1.086806e+02   1.048597e+02
   2.033765e+01   1.817021e+02
  -7.411232e+01   1.394868e+02
  -1.680548e+02   7.223964e+00
  -9.066469e+01  -1.067465e+02
  -5.720880e+00  -1.176186e+02
   6.418651e+01  -5.135154e+01
   4.377641e+01   8.071536e+00
  -2.772926e+00   4.220784e+01
  -2.758546e+01   2.984899e+01
   1.841809e+01   5.863285e+00
   6.840232e+01   1.491561e+01
   4.421985e+01   3.131131e+01
  -5.759424e+01   3.337326e+01
  -1.426101e+02   2.410732e+01
  -1.203827e+02  -4.057209e+01
   2.866095e+00  -8.326741e+01
   1.009568e+02  -4.498888e+01
   9.793397e+01  -6.454118e+00
   3.549995e+01   4.438652e+01
  -4.969767e+01   3.770078e+01
  -5.801089e+01  -8.407243e+00
  -1.380606e+01  -6.309589e+01
   3.525334e+01  -5.745427e+01
   6.358084e+01  -4.944673e+00
   4.511013e+01   4.515712e+01
   4.037190e+01   3.234061e+01
   3.727205e+01  -1.106922e+01
   5.153608e+01  -8.019038e+00
   3.664485e+01   6.350377e+01
  -2.855578e+01   1.207717e+02
  -8.766139e+01   1.311345e+02
  -1.532731e+02   3.777089e+01
  -1.100982e+02  -8.098765e+01
   3.109324e+00  -8.616642e+01
   7.841656e+01  -4.659073e+01
   4.882335e+01   8.511299e+00
  -4.824239e+01   2.110134e+01
  -1.230030e+02  -2.790329e+01
  -6.751998e+01  -7.028663e+01
   5.645778e+01  -7.407017e+01
   1.432263e+02  -3.115600e+01
   1.129932e+02   2.599389e+01
   2.496955e+01   6.158250e+01
  -4.449189e+01   4.758558e+01
  -4.041131e+01  -7.814139e-01
   3.160141e+01  -2.506294e+01
   6.702789e+01   1.739513e+01
   2.931913e+01   9.883536e+01
  -4.226027e+01   1.430572e+02
  -1.373131e+02   6.692941e+01
  -9.923355e+01  -6.989951e+01
  -1.493399e+01  -1.548781e+02
   7.117938e+01  -1.158652e+02
   7.934130e+01   1.044535e+01
   5.400348e+01   9.560827e+01
  -3.960410e+00   7.856145e+01
  -3.908249e+01   1.195398e+01
  -3.876815e+01  -1.946685e+01
  -1.126647e+01  -4.078205e+00
  -2.140934e+00   1.290160e+01
  -2.235358e+01  -1.992035e+01
  -3.911624e+01  -7.090315e+01
  -2.646281e+01  -7.297359e+01
   4.765687e+01  -3.621014e+01
   1.110133e+02   1.930221e+01
   1.066447e+02   4.547204e+01
   1.239791e+01   4.588232e+01
  -6.366739e+01   2.392148e+01
  -6.616311e+01  -2.511923e+00
  -1.970651e+01  -1.290871e+01
   2.204635e+01  -1.507255e+01
   1.604746e+01  -8.391835e+00
  -1.284476e+01   3.007309e+00
   3.648633e+00   4.079843e+00
   5.723320e+01  -4.481311e+00
   6.970646e+01   1.129305e+01
   3.244122e+01   6.994152e+01
  -9.435282e+01   1.134055e+02
  -1.562690e+02   7.471254e+01
  -1.414914e+02  -4.280689e+01
  -4.144888e+01  -1.267612e+02
   6.965881e+01  -1.395679e+02
   9.305565e+01  -5.537845e+01
   6.889556e+01   5.955931e+00
   2.088969e+01   3.129363e+01
   2.697329e+00   1.188565e+01
   1.177868e+01   8.319895e+00
   2.243363e+01   3.308797e+01
   4.440275e+00   7.734737e+01
  -1.685453e+01   5.685006e+01
  -6.582113e+01  -8.752017e+00
  -6.953023e+01  -7.674552e+01
  -2.711716e+01  -8.499313e+01
   6.981308e+01  -3.254445e+01
   8.921484e+01   5.167333e+01
   4.544972e+01   9.307244e+01
  -5.181624e+01   5.495909e+01
  -1.002199e+02  -3.870257e+00
  -3.728158e+01  -4.554336e+01
   3.281760e+01  -5.343730e+01
   3.784359e+01  -2.013780e+01
  -2.163733e+01   7.567587e+00
  -5.436565e+01   4.782622e+00
  -1.656571e+01  -2.136854e+01
   5.080454e+01  -5.084678e+01
   1.013261e+02  -4.391207e+01
   6.036249e+01   1.699849e+01
  -6.894998e+00   6.236228e+01
  -3.965066e+01   7.035559e+01
  -4.336722e+01   8.611942e+00
  -6.322932e+00  -3.989081e+01
   1.694257e+01  -4.060994e+01
   3.078339e+01   2.089171e+00
   2.640153e+01   3.954636e+01
   3.671258e-01   3.473010e+01
  -3.095735e+01  -2.335974e-01
  -3.331825e+01  -1.820331e+01
  -1.614444e+01  -2.130561e+00
   4.743226e+00   1.785183e+01
   5.113735e+00   5.528476e+00
  -1.176098e+01  -1.722647e+01
  -2.794174e+00  -4.470402e+01
   2.009121e+01  -2.550743e+01
   3.145160e+01   2.529090e+01
   1.923642e+01   4.886741e+01
  -2.921610e+01   2.627216e+01
  -5.037773e+01  -1.789324e+01
  -2.117576e+01  -4.583871e+01
   4.995527e+01  -2.422948e+01
   7.179467e+01   1.043861e+01
   4.501420e+01   2.986274e+01
  -2.865606e+01   4.161205e+01
  -5.423486e+01   2.488634e+01
  -2.616172e+01   5.512157e+00
   1.922672e+01  -5.274960e+00
   2.663800e+01   6.140102e+00
  -1.262502e+01   2.066154e+01
  -5.061241e+01   2.118208e+01
