
 $NMID
 id='ANONYMOUS ', fmtdat='(2E16.6)'
 volume=1.0
 tramp=1.0
 $END
  -1.707566e+03   1.131729e+01
  -1.393008e+03  -8.855254e+02
  -3.006856e+02  -9.246644e+02
   3.970881e+02  -1.302940e+03
   7.399914e+02  -2.767773e+02
   2.574176e+02  -2.656002e+01
  -1.653858e+02   7.166472e+01
   4.281469e+01  -1.854650e+02
   3.324051e+02  -3.075942e+02
   4.386499e+02  -2.659194e+02
   3.092279e+02   1.581063e+02
   1.861364e+02   3.024713e+02
  -2.287384e+02   3.088211e+02
  -2.814434e+02  -9.562066e+01
   1.782547e+01  -3.251208e+02
   2.720189e+02  -6.275437e+01
   1.696859e+02   2.234391e+02
   8.912486e+00   4.337945e+02
  -2.528535e+02   2.492518e+02
  -3.348721e+02  -5.003547e+01
  -7.137900e+01  -2.027092e+02
   4.037648e+01  -1.191588e+02
  -1.863982e+01  -5.963330e+01
  -1.064407e+02  -6.484358e+01
  -5.418243e+01  -1.408629e+02
   2.733571e+00  -2.190042e+02
   3.127325e+02  -1.532662e+02
   2.698316e+02   6.825006e+01
   1.128586e+02   1.065983e+02
  -1.357207e+02   8.560405e+00
  -1.996942e+02   4.899922e+01
  -1.139232e+02  -1.413981e+02
   1.947818e+02  -2.239876e+02
   2.804538e+02  -1.126713e+02
   1.302045e+02   6.104028e+01
   7.776874e+01   1.446952e+02
   6.172465e+01   7.725082e+01
   4.446388e+01  -2.589247e+01
   9.212183e+00  -2.043707e+01
  -3.342707e+01   7.906779e+01
  -5.267772e+01   2.281400e+02
  -2.008514e+01   3.304732e+02
  -1.684029e+02   3.433181e+01
  -6.230635e+01  -1.172630e+02
   7.259597e+01  -4.311063e+00
   1.252352e+02   1.069328e+02
   2.702172e+01   1.954128e+02
  -2.264885e+02   2.110932e+01
  -2.277165e+02  -1.827781e+02
  -1.175507e+02  -3.078240e+02
   1.341309e+02  -1.578902e+02
   2.892740e+02  -4.930610e+01
   2.739010e+02   6.294307e+01
   8.827529e+00   1.597840e+02
  -7.993723e+01   9.708375e+01
  -1.075120e+02   4.976730e+01
  -9.155687e-01   3.467675e+01
   1.869376e+01  -2.704316e+01
  -2.813164e+01   2.416699e+01
  -1.249033e+02   2.740306e+01
  -7.328883e+01  -8.979168e+01
   7.901525e+01  -1.357048e+02
   1.977894e+02  -1.678617e+02
   1.820147e+02   5.596624e+01
  -7.616356e+00   2.108629e+02
  -1.479814e+02   2.577067e+02
  -2.030040e+02   2.569153e+01
  -1.376674e+02  -8.358410e+01
  -2.747773e+01  -2.255063e+02
  -3.308153e+01  -1.615435e+02
  -1.153950e+01  -1.569790e+02
   2.351268e+01  -7.545709e+01
   9.179048e+01  -7.876773e+01
   1.537691e+02  -1.777124e+01
   1.202679e+02   8.531770e+01
   2.060060e+01   1.397729e+02
  -3.855352e+01   1.409460e+02
  -9.830697e+01  -4.183541e+01
  -1.292353e+02  -1.160799e+02
  -3.416182e+00  -1.382403e+02
   1.203160e+02  -4.855019e+01
   1.966398e+02   8.177851e+01
   1.266318e+02   1.632246e+02
  -9.273207e+00   1.828776e+02
  -1.105451e+02   1.097422e+02
  -6.916527e+01   8.351525e+01
  -8.268692e+01   6.745011e+01
  -1.610474e+02   2.818078e+01
  -2.505665e+02  -1.682563e+01
  -1.998729e+02  -1.514119e+02
  -6.375843e-01  -2.207492e+02
   2.092025e+02  -2.077212e+02
   2.658835e+02  -9.030872e+01
   1.680466e+02   3.942308e+01
   4.719767e+01   1.154900e+02
  -3.079978e+01   1.401818e+02
   2.646281e+01   1.390633e+01
   7.101832e+01  -7.911924e-01
   7.367292e+01   1.121520e+01
  -1.009019e+01   5.926296e+01
  -5.670118e+01   5.584935e+01
  -7.415462e+01  -4.167940e+01
  -2.108632e+01  -5.058090e+01
   7.102192e+01   1.516994e+01
   9.074818e+01   1.308475e+02
   1.958578e+01   2.242186e+02
  -1.258226e+02   1.541279e+02
  -2.271815e+02   6.722049e+00
  -1.588074e+02  -1.349979e+02
  -2.193587e+01  -1.721563e+02
   9.434888e+01  -1.005037e+02
   9.712315e+01   3.309540e-01
   1.103979e+01  -4.117308e+00
  -3.883340e+01  -3.432902e+01
  -8.110625e-01  -6.466978e+01
   6.921744e+01  -2.425787e+01
   6.404119e+01   2.273008e+01
   1.475058e+01   2.233085e+01
  -5.620634e+01  -1.092639e+01
  -1.907485e+01  -5.582224e+01
   8.104732e+01  -7.360761e+01
   1.933725e+02  -3.731457e+01
   1.838810e+02   1.059221e+02
   2.996613e+01   1.635071e+02
  -1.223380e+02   1.754779e+02
  -1.484605e+02   3.818531e+01
  -8.755729e+01  -2.617712e+01
   9.897763e+00  -3.921452e+01
   4.265110e+01   4.861981e+00
  -2.809643e+01   4.235791e+01
  -1.043612e+02   4.118175e+01
  -1.135255e+02  -5.666545e+01
  -4.299283e+01  -9.973084e+01
   4.586233e+01  -7.511710e+01
   6.965026e+01  -2.081402e+01
   2.333792e+01   2.393649e+01
  -2.939810e+01  -2.066148e+01
  -1.223324e+01  -6.258683e+01
   4.756079e+01  -8.213929e+01
   1.473666e+02  -5.258538e+00
   9.621340e+01   7.132994e+01
   6.183797e+00   1.141905e+02
  -7.862868e+01   1.146981e+02
  -9.721725e+01   1.730685e+01
  -1.911672e+01  -6.097381e+01
   1.904385e+01  -7.313184e+01
   3.692087e+01  -1.405242e+01
  -5.351882e-01   9.487781e+00
  -2.439461e+01   6.153098e+00
   5.808708e+00  -1.889310e+01
   6.299114e+01  -1.553245e+00
   7.158284e+01   5.584937e+01
   2.507188e+01   9.707145e+01
  -1.027974e+02   1.048926e+02
  -1.174935e+02   3.009987e+01
  -1.236696e+02  -1.008935e+02
  -4.583514e+01  -1.511265e+02
   4.913364e+01  -1.161058e+02
   8.619344e+01  -1.807663e+01
   5.343903e+01   1.369645e+01
   2.683739e+01   1.281247e+01
   3.591873e+01  -1.231392e+01
   5.375282e+01  -5.548166e+00
   3.896450e+01   3.547011e+01
  -2.514635e+01   7.575945e+01
  -8.972403e+01   4.500996e+01
  -7.020062e+01  -3.099841e+01
  -2.636613e+00  -8.579373e+01
   9.278536e+01  -6.829544e+01
   1.322423e+02   2.996814e+01
   6.118341e+01   1.199770e+02
  -6.354157e+01   1.331876e+02
  -1.737710e+02   4.566088e+01
  -1.229117e+02  -3.396454e+01
  -9.023802e+01  -1.083547e+02
   2.171370e+01  -7.614664e+01
   5.430820e+01  -5.278414e+01
   3.165005e+01  -4.709498e+01
   2.689870e+01  -6.035862e+01
   4.069098e+01  -4.811390e+01
   8.795393e+01  -9.845186e+00
   1.006829e+02   1.030980e+02
   2.280279e+01   1.481720e+02
  -4.784558e+01   9.988828e+01
  -1.001493e+02   5.832041e+00
  -9.353495e+01  -4.582849e+01
  -2.170548e+01  -8.459545e+01
   4.345119e+01  -3.899222e+01
   4.135892e+01   3.840912e+00
  -2.366948e+00   3.571165e+01
  -1.947843e+01   2.317379e+01
   1.317293e+01   5.192557e-01
   5.129616e+01   3.674802e+00
   3.563288e+01   2.676548e+01
  -4.572852e+01   3.714440e+01
  -1.086548e+02  -1.398477e+01
  -9.153980e+01  -6.083376e+01
   8.009076e+00  -5.615215e+01
   8.494473e+01  -4.418088e+01
   9.604054e+01  -1.445738e+01
   2.502970e+01   2.442377e+01
  -3.638284e+01   2.857441e+01
  -5.015259e+01  -1.438050e+01
  -1.701340e+01  -4.913008e+01
   2.076630e+01  -5.295509e+01
   4.483872e+01  -1.027410e+01
   4.233027e+01   3.030758e+01
   3.570141e+01   1.782211e+01
   2.943167e+01  -7.784830e+00
   3.889205e+01  -4.576202e+00
   3.381031e+01   5.086017e+01
  -4.105862e+00   1.106202e+02
  -7.431928e+01   9.264779e+01
  -1.243316e+02   1.634334e+01
  -8.007496e+01  -4.909052e+01
  -1.634150e+01  -8.583361e+01
   4.480466e+01  -5.504540e+01
   3.746447e+01   1.621616e+00
  -3.447253e+01   2.016613e+01
  -7.494412e+01  -2.353188e+01
  -5.031138e+01  -5.493561e+01
   3.941352e+01  -6.594482e+01
   1.145281e+02  -2.729168e+01
   1.000314e+02   9.782210e+00
   1.721706e+01   5.629772e+01
  -3.067354e+01   3.702211e+01
  -2.912114e+01  -3.428252e+00
   2.514439e+01  -2.044162e+01
   5.728641e+01  -4.237556e+00
   2.796670e+01   7.075050e+01
  -5.017779e+01   9.764070e+01
  -1.060752e+02   5.275034e+01
  -7.586325e+01  -3.841084e+01
  -1.550223e+01  -9.833292e+01
   4.954886e+01  -8.505025e+01
   5.636807e+01   2.611272e+00
   4.441220e+01   7.097687e+01
  -1.688099e+01   5.846374e+01
  -3.316759e+01   1.364377e+01
  -2.737683e+01  -2.257522e+01
  -5.238446e+00  -3.343468e+00
  -2.077321e+00   1.010371e+01
  -2.147018e+01  -1.529843e+01
  -4.037229e+01  -4.446727e+01
  -7.804054e+00  -6.303293e+01
   3.437912e+01  -2.320848e+01
   7.543823e+01   1.687659e+01
   8.732341e+01   2.033499e+01
   1.631763e+01   2.940388e+01
  -4.727950e+01   3.381687e+01
  -5.347927e+01   5.312949e+00
  -1.287754e+01  -7.887380e+00
   1.575273e+01  -1.772852e+01
   1.374848e+01  -8.724212e+00
  -5.297052e+00   7.143684e+00
   1.673613e+00   1.963777e+00
   3.896135e+01  -7.133067e+00
   6.546450e+01   8.310285e+00
   1.906735e+01   4.681468e+01
  -5.679681e+01   6.614469e+01
  -1.052159e+02   5.152556e+01
  -1.010785e+02  -3.447920e+01
  -3.713427e+01  -1.030075e+02
   4.967358e+01  -9.534920e+01
   7.475081e+01  -5.223990e+01
   5.270604e+01   1.488846e+01
   1.987222e+01   2.351472e+01
   5.305029e+00   1.051039e+01
   9.656138e+00   5.471292e+00
   2.344575e+01   2.514774e+01
   1.110844e+01   5.085099e+01
  -1.587610e+01   3.893161e+01
  -4.106861e+01  -2.654295e+00
  -5.179493e+01  -5.930013e+01
  -1.541350e+01  -7.312342e+01
   4.147640e+01  -3.047572e+01
   7.002962e+01   3.639301e+01
   2.979429e+01   6.343931e+01
  -2.419074e+01   4.797911e+01
  -5.949190e+01  -7.490244e-01
  -2.860671e+01  -3.815667e+01
   1.671342e+01  -4.394309e+01
   2.533728e+01  -1.930249e+01
  -1.352780e+01   1.036731e+01
  -4.278205e+01   1.318887e+01
  -1.442011e+01  -1.377132e+01
   4.612377e+01  -4.378089e+01
   7.251316e+01  -5.713769e+01
   3.647731e+01   1.116325e+01
   2.885706e+00   5.580966e+01
  -3.066593e+01   5.239788e+01
  -3.086193e+01   1.061915e+01
  -8.388271e+00  -2.558651e+01
   1.103368e+01  -2.844965e+01
   2.339549e+01   4.473066e+00
   1.681059e+01   3.619173e+01
  -9.338523e-01   2.449587e+01
  -2.123641e+01   7.413639e-01
  -2.817227e+01  -1.812597e+01
  -1.177350e+01  -1.315110e+00
   5.522037e+00   1.421842e+01
   3.090458e+00   8.954331e+00
  -9.477022e+00  -2.040003e+01
  -1.097467e+01  -2.906601e+01
   1.236650e+01  -1.356892e+01
   4.003357e+01   2.122168e+01
   1.479936e+01   3.125345e+01
  -2.577560e+01   2.386199e+01
  -4.253987e+01  -1.192890e+01
  -2.123270e+01  -3.405060e+01
   2.884335e+01  -2.237188e+01
   5.676261e+01  -1.421108e+00
   4.046871e+01   2.223043e+01
  -1.539063e+01   2.724580e+01
  -4.432869e+01   2.305144e+01
  -1.847693e+01   4.628015e+00
   1.507397e+01  -9.501603e+00
   2.478573e+01  -4.876398e+00
  -7.669123e+00   1.562822e+01
  -3.413662e+01   1.697214e+01
