
 $NMID
 id='ANONYMOUS ', fmtdat='(2E16.6)'
 volume=1.0
 tramp=1.0
 $END
   4.821325e+07  -2.435013e+05
   2.973518e+07   2.800402e+07
  -4.806432e+06   3.205575e+07
  -2.275411e+07   1.437603e+07
  -1.475281e+07  -4.013728e+06
   1.872087e+06  -8.082117e+06
   8.624243e+06  -2.792065e+05
   3.572276e+06   8.100583e+06
  -4.445082e+06   9.193048e+06
  -8.346530e+06   2.758265e+06
  -6.474268e+06  -5.458380e+06
  -8.728862e+05  -8.006209e+06
   3.708514e+06  -2.345482e+06
   2.717143e+06   5.487701e+06
  -3.004047e+06   6.620326e+06
  -7.025036e+06  -5.927703e+05
  -4.393943e+06  -8.850126e+06
   2.891093e+06  -1.055726e+07
   8.749959e+06  -5.282849e+06
   9.330695e+06   1.943874e+06
   5.329715e+06   6.508921e+06
   2.862344e+05   6.955445e+06
  -1.993661e+06   4.613344e+06
  -3.577113e+05   2.505902e+06
   1.878382e+06   2.941197e+06
   1.843194e+03   4.700919e+06
  -5.794504e+06   4.122216e+06
  -9.456158e+06   5.811457e+04
  -6.388198e+06  -4.094946e+06
   4.176643e+05  -4.637497e+06
   4.140719e+06  -1.962357e+06
   2.347009e+06   7.961708e+05
  -1.448102e+06   1.622799e+06
  -3.250786e+06   3.993623e+05
  -2.375781e+06  -2.190275e+06
  -1.495664e+05  -4.299525e+06
   1.955690e+06  -3.307509e+06
   2.469067e+06   6.772946e+05
   8.956254e+05   3.252983e+06
  -7.883707e+05   9.646156e+05
   4.776182e+03  -3.017035e+06
   2.409625e+06  -2.492650e+06
   2.415342e+06   2.635434e+06
  -1.503936e+06   5.351168e+06
  -5.383067e+06   1.093435e+06
  -4.340373e+06  -5.674466e+06
   1.310044e+06  -7.232518e+06
   6.431901e+06  -2.194545e+06
   6.683767e+06   3.845536e+06
   2.258257e+06   5.615230e+06
  -3.104536e+06   2.949900e+06
  -5.295603e+06  -9.501404e+05
  -2.796116e+06  -3.052677e+06
   1.878509e+06  -2.173434e+06
   4.109714e+06   5.333208e+05
   1.962765e+06   2.260934e+06
  -1.450294e+06   1.278061e+06
  -1.829855e+06  -8.479065e+05
   7.703898e+05  -1.129702e+06
   2.255889e+06   8.611044e+05
   1.327949e+05   2.543277e+06
  -3.411151e+06   1.846358e+06
  -4.596509e+06  -6.432084e+05
  -2.291623e+06  -3.251031e+06
   1.715418e+06  -4.892038e+06
   5.014465e+06  -4.582764e+06
   5.958959e+06  -1.486307e+06
   4.110473e+06   3.159258e+06
   8.048164e+05   5.899291e+06
  -1.439069e+06   4.697607e+06
  -1.363440e+06   1.661012e+06
  -4.020644e+05   3.580029e+05
  -6.948541e+05   1.209859e+06
  -2.227443e+06   1.510129e+06
  -3.051582e+06  -3.023150e+05
  -1.942811e+06  -2.476965e+06
   3.045950e+05  -2.489913e+06
   2.002683e+06  -1.772336e+05
   1.945881e+06   2.390085e+06
  -6.787835e+04   3.139883e+06
  -2.891109e+06   1.513433e+06
  -4.293030e+06  -1.399012e+06
  -2.865855e+06  -3.615831e+06
   1.281824e+05  -3.764605e+06
   1.976352e+06  -2.349686e+06
   1.847756e+06  -1.110644e+06
   1.640761e+06  -8.865232e+05
   2.947053e+06  -7.311281e+05
   4.481372e+06   5.566759e+05
   3.701104e+06   2.719132e+06
   2.679640e+05   4.315026e+06
  -3.333438e+06   4.166126e+06
  -4.464431e+06   2.178492e+06
  -2.770918e+06  -6.198692e+05
  -9.356558e+04  -2.443473e+06
   1.317938e+06  -1.964236e+06
   5.761435e+05   1.127685e+05
  -1.193438e+06   1.368025e+06
  -1.942344e+06   4.256870e+05
  -8.773808e+05  -1.218281e+06
   5.998503e+05  -1.201215e+06
   6.052487e+05   3.611927e+05
  -8.561253e+05   9.700111e+05
  -1.932802e+06  -7.816129e+05
  -1.190737e+06  -3.248288e+06
   9.492322e+05  -3.801723e+06
   3.000322e+06  -1.822867e+06
   3.772710e+06   1.054672e+06
   2.845858e+06   2.897732e+06
   6.704443e+05   2.922962e+06
  -1.348421e+06   1.610371e+06
  -1.721347e+06   2.292850e+05
  -5.248688e+05  -3.816137e+04
   4.032973e+05   7.830970e+05
  -3.557110e+05   1.366492e+06
  -1.896372e+06   6.412743e+05
  -2.114533e+06  -7.944562e+05
  -4.889952e+05  -1.407790e+06
   1.197547e+06  -6.649942e+05
   1.038988e+06   4.414808e+05
  -8.127573e+05   7.090882e+05
  -2.426650e+06  -9.951235e+04
  -2.103651e+06  -1.373146e+06
   9.068261e+04  -2.236107e+06
   2.424080e+06  -1.933003e+06
   2.962194e+06  -3.966098e+05
   1.307840e+06   1.264604e+06
  -9.089786e+05   1.530643e+06
  -1.556254e+06   2.092099e+05
  -1.821799e+05  -1.094594e+06
   1.574446e+06  -7.979529e+05
   1.849003e+06   7.406843e+05
   4.859246e+05   1.728747e+06
  -1.054766e+06   1.147652e+06
  -1.360840e+06  -1.892592e+05
  -3.579334e+05  -7.812127e+05
   7.908181e+05  -9.042963e+04
   7.839303e+05   1.088529e+06
  -6.027904e+05   1.513125e+06
  -2.132612e+06   5.931346e+05
  -2.173224e+06  -1.085918e+06
  -4.549220e+05  -2.181725e+06
   1.457834e+06  -1.776624e+06
   1.813040e+06  -2.987144e+05
   5.899657e+05   8.891506e+05
  -6.588180e+05   8.927467e+05
  -7.234380e+05   9.693428e+04
   6.559347e+04  -4.731478e+05
   5.816228e+05  -3.352358e+05
   2.819948e+05   7.722527e+04
  -3.905777e+05   4.974149e+04
  -6.021525e+05  -5.942631e+05
   1.179191e+05  -1.243069e+06
   1.419123e+06  -1.005208e+06
   2.223762e+06   3.748796e+05
   1.601654e+06   2.027724e+06
  -1.715389e+05   2.605426e+06
  -1.692935e+06   1.614525e+06
  -1.868457e+06  -3.367824e+04
  -1.045995e+06  -9.883530e+05
  -4.019162e+05  -8.400389e+05
  -4.421023e+05  -3.262994e+05
  -5.749562e+05  -2.915677e+05
  -9.570588e+04  -7.494316e+05
   8.780772e+05  -9.971569e+05
   1.550288e+06  -4.375947e+05
   1.211872e+06   7.547589e+05
  -1.746916e+05   1.640805e+06
  -1.813480e+06   1.247861e+06
  -2.442902e+06  -4.394741e+05
  -1.309083e+06  -2.191667e+06
   9.438107e+05  -2.536443e+06
   2.625118e+06  -1.212532e+06
   2.555227e+06   5.596508e+05
   1.166961e+06   1.390108e+06
  -1.252979e+05   1.105550e+06
  -4.627044e+05   6.505033e+05
  -1.913915e+05   8.067120e+05
  -1.476439e+05   1.325844e+06
  -6.682764e+05   1.331010e+06
  -1.335071e+06   3.485523e+05
  -1.436156e+06  -1.130813e+06
  -6.303535e+05  -2.015500e+06
   6.408390e+05  -1.550943e+06
   1.379520e+06  -4.561384e+04
   9.169656e+05   1.311467e+06
  -3.234949e+05   1.487941e+06
  -1.154800e+06   5.258835e+05
  -8.637454e+05  -6.157501e+05
   3.535731e+04  -1.082446e+06
   4.566258e+05  -8.520077e+05
   3.806334e+04  -4.812403e+05
  -4.549644e+05  -3.707794e+05
  -6.244924e+04  -4.176426e+05
   1.186649e+06  -2.614920e+05
   2.162098e+06   2.891326e+05
   1.747887e+06   1.034632e+06
   4.860104e+04   1.482793e+06
  -1.602001e+06   1.229996e+06
  -1.919847e+06   3.813748e+05
  -9.163536e+05  -4.272650e+05
   2.373506e+05  -5.744103e+05
   5.214804e+05  -7.830669e+04
   1.466969e+04   4.046860e+05
  -4.931378e+05   2.751512e+05
  -5.135220e+05  -3.562938e+05
  -2.329892e+05  -7.880951e+05
  -6.139109e+04  -5.187003e+05
  -1.470723e+05   1.440915e+05
  -3.300879e+05   3.717209e+05
  -3.101248e+05  -2.340876e+05
   1.529786e+05  -1.079423e+06
   9.333988e+05  -1.150214e+06
   1.389578e+06  -1.769374e+05
   8.679722e+05   9.653479e+05
  -4.214014e+05   1.176093e+06
  -1.304317e+06   3.342096e+05
  -7.915271e+05  -6.136177e+05
   7.200325e+05  -7.200709e+05
   1.722733e+06   3.130966e+04
   1.168206e+06   8.778554e+05
  -4.364824e+05   1.110121e+06
  -1.599973e+06   6.264839e+05
  -1.369940e+06  -1.298551e+05
  -1.853047e+05  -5.574859e+05
   6.803831e+05  -3.291222e+05
   4.001867e+05   2.908322e+05
  -6.411161e+05   5.513214e+05
  -1.269160e+06  -9.663306e+04
  -7.044057e+05  -1.274493e+06
   6.471632e+05  -1.827161e+06
   1.600365e+06  -9.552166e+05
   1.366791e+06   8.026066e+05
   2.551509e+05   1.933438e+06
  -7.634486e+05   1.436245e+06
  -1.005682e+06  -1.361255e+05
  -5.242937e+05  -1.264586e+06
   1.704436e+05  -1.066866e+06
   5.891447e+05  -1.199191e+05
   5.405489e+05   3.987394e+05
   2.123331e+05   1.508643e+05
   3.679312e+04  -1.123895e+05
   2.606401e+05   2.941548e+05
   5.542021e+05   1.020256e+06
   2.704884e+05   1.159443e+06
  -7.156571e+05   4.448613e+05
  -1.605959e+06  -4.650653e+05
  -1.434116e+06  -8.657307e+05
  -2.197857e+05  -7.396908e+05
   9.388965e+05  -4.724448e+05
   1.065230e+06  -2.331287e+05
   3.627221e+05   3.345797e+04
  -1.630701e+05   2.447632e+05
   2.879555e+03   2.348231e+05
   3.260276e+05   1.104351e+05
   4.405807e+04   1.460706e+05
  -7.465137e+05   2.610842e+05
  -1.123969e+06   1.219335e+03
  -4.302237e+05  -7.355991e+05
   9.138001e+05  -1.270985e+06
   1.791857e+06  -8.259211e+05
   1.489630e+06   4.558277e+05
   3.167121e+05   1.514805e+06
  -7.858963e+05   1.486486e+06
  -1.119439e+06   5.815882e+05
  -7.182973e+05  -2.522089e+05
  -1.384083e+05  -3.840060e+05
   1.047941e+05  -5.792049e+04
  -7.359710e+04   4.036364e+04
  -3.457257e+05  -3.770884e+05
  -2.979125e+05  -8.623697e+05
   1.841125e+05  -7.296994e+05
   7.452588e+05   1.335277e+05
   8.035541e+05   1.028909e+06
   1.166473e+05   1.109079e+06
  -8.260848e+05   2.600963e+05
  -1.126261e+06  -7.772859e+05
  -3.830490e+05  -1.165546e+06
   7.586865e+05  -7.268120e+05
   1.193315e+06   6.311907e+04
   5.684196e+05   6.296769e+05
  -2.942573e+05   7.115380e+05
  -3.776442e+05   3.959048e+05
   2.926200e+05   9.558762e+03
   7.053420e+05  -5.521274e+04
   1.561183e+05   3.245254e+05
  -8.715974e+05   7.542351e+05
  -1.318716e+06   6.272348e+05
  -7.975918e+05  -1.570288e+05
   8.614483e+04  -9.288103e+05
   5.538765e+05  -9.218792e+05
   4.330014e+05  -1.635955e+05
   5.860995e+04   5.263029e+05
  -2.532494e+05   4.624748e+05
  -3.873931e+05  -1.703978e+05
  -2.846980e+05  -6.165474e+05
   5.485812e+04  -4.430440e+05
   4.226129e+05   4.761759e+04
   5.092962e+05   2.769161e+05
   2.610932e+05   8.479003e+04
  -2.754014e+04  -1.461381e+05
  -8.431419e+04  -1.088058e+04
  -4.867175e+03   3.982716e+05
  -8.431347e+04   5.774963e+05
  -3.570490e+05   2.078974e+05
  -4.797000e+05  -4.256297e+05
  -1.494574e+05  -7.026279e+05
   4.435855e+05  -3.406701e+05
   7.111690e+05   2.997416e+05
   2.789035e+05   6.208967e+05
  -5.316271e+05   4.024041e+05
  -9.418917e+05  -6.994170e+04
  -5.195377e+05  -3.960021e+05
   3.087123e+05  -4.235255e+05
   6.801048e+05  -2.426483e+05
   2.542871e+05  -2.027941e+04
  -3.953299e+05   7.036660e+04
  -4.527719e+05  -7.858884e+04
   1.888201e+05  -3.339806e+05
   8.222557e+05  -3.155993e+05
