
 $NMID
 id='ANONYMOUS ', fmtdat='(2E16.6)'
 volume=1.0
 tramp=1.0
 $END
   5.866326e+07  -1.310967e+06
   3.600558e+07   3.622482e+07
  -7.342994e+06   4.020764e+07
  -2.882191e+07   1.531924e+07
  -1.724375e+07  -7.676618e+06
   3.576215e+06  -9.834575e+06
   1.028744e+07   1.534584e+06
   2.714206e+06   1.029024e+07
  -6.632260e+06   9.498639e+06
  -1.004441e+07   1.924995e+06
  -7.244193e+06  -6.260892e+06
  -9.535502e+05  -8.708173e+06
   3.976911e+06  -2.937801e+06
   2.641263e+06   5.323200e+06
  -3.915131e+06   6.549889e+06
  -8.165697e+06  -1.421749e+06
  -4.653345e+06  -1.051545e+07
   3.803149e+06  -1.223254e+07
   1.034915e+07  -6.313881e+06
   1.126245e+07   1.794025e+06
   7.208496e+06   7.560935e+06
   1.095956e+06   9.132852e+06
  -3.019201e+06   6.632690e+06
  -2.338661e+06   2.875585e+06
   7.756146e+05   1.879189e+06
   3.697065e+05   3.903149e+06
  -5.100869e+06   4.495448e+06
  -9.577393e+06   8.172872e+05
  -7.268862e+06  -3.932865e+06
  -6.088623e+05  -5.104267e+06
   3.430881e+06  -2.793911e+06
   2.431594e+06  -3.638438e+05
  -3.241887e+05   6.216367e+05
  -1.880217e+06   4.821433e+05
  -2.069758e+06  -1.114414e+06
  -9.212602e+05  -3.697441e+06
   1.622566e+06  -4.026913e+06
   3.434208e+06  -2.174535e+05
   2.076876e+06   3.645272e+06
  -6.594026e+05   2.266339e+06
  -4.624629e+05  -2.192591e+06
   2.430242e+06  -2.250552e+06
   2.522050e+06   3.323656e+06
  -2.586784e+06   6.456110e+06
  -7.431591e+06   1.197298e+06
  -5.541477e+06  -7.168896e+06
   1.885446e+06  -8.976406e+06
   7.652537e+06  -2.656032e+06
   7.082669e+06   4.500966e+06
   1.794308e+06   6.126104e+06
  -3.556403e+06   2.675736e+06
  -5.260596e+06  -1.650056e+06
  -2.349525e+06  -3.606958e+06
   2.553824e+06  -2.259902e+06
   4.675331e+06   9.586357e+05
   1.999836e+06   2.832735e+06
  -1.770161e+06   1.434775e+06
  -1.719554e+06  -1.065140e+06
   1.510793e+06  -8.982699e+05
   2.629467e+06   2.001374e+06
  -7.537257e+05   3.795358e+06
  -4.981224e+06   2.067598e+06
  -5.575702e+06  -1.463349e+06
  -2.418064e+06  -4.159874e+06
   1.712324e+06  -5.378129e+06
   4.867941e+06  -4.959593e+06
   6.172233e+06  -1.930135e+06
   4.751902e+06   3.023476e+06
   1.095253e+06   6.187583e+06
  -1.922595e+06   4.814122e+06
  -1.909893e+06   1.112386e+06
  -1.327606e+05  -4.835528e+05
   2.807673e+05   8.316374e+05
  -1.321872e+06   1.850327e+06
  -2.664572e+06   4.546163e+05
  -2.033591e+06  -1.688991e+06
  -1.483296e+05  -1.987250e+06
   1.382969e+06  -2.032298e+05
   1.583174e+06   1.952649e+06
   5.630414e+04   2.843816e+06
  -2.671598e+06   1.728006e+06
  -4.509516e+06  -1.027909e+06
  -3.395810e+06  -3.709854e+06
  -9.669289e+04  -4.359149e+06
   2.298836e+06  -2.890756e+06
   2.338729e+06  -1.205514e+06
   1.901571e+06  -6.494469e+05
   2.946034e+06  -4.282968e+05
   4.317958e+06   7.841545e+05
   3.443317e+06   2.748754e+06
   1.203164e+05   4.064890e+06
  -3.127071e+06   3.834869e+06
  -4.041345e+06   2.133705e+06
  -2.604480e+06  -3.192059e+05
  -3.583189e+05  -2.140248e+06
   9.953994e+05  -1.922689e+06
   5.540917e+05   1.457847e+02
  -1.037409e+06   1.297094e+06
  -1.895180e+06   4.132542e+05
  -9.568015e+05  -1.186674e+06
   4.798036e+05  -1.084840e+06
   3.700877e+05   4.113185e+05
  -1.164022e+06   6.274965e+05
  -1.892992e+06  -1.465958e+06
  -5.044407e+05  -3.623016e+06
   1.831082e+06  -3.342967e+06
   3.247350e+06  -8.926628e+05
   3.187061e+06   1.596624e+06
   2.080731e+06   2.733463e+06
   3.765066e+05   2.508096e+06
  -1.196112e+06   1.420042e+06
  -1.525583e+06   2.381736e+05
  -4.843033e+05  -4.540161e+04
   3.498198e+05   7.444405e+05
  -4.255095e+05   1.352445e+06
  -1.926417e+06   5.839949e+05
  -2.037757e+06  -9.153410e+05
  -3.636817e+05  -1.438235e+06
   1.173736e+06  -5.496129e+05
   8.399110e+05   4.681714e+05
  -8.838740e+05   4.567843e+05
  -2.117680e+06  -4.141489e+05
  -1.618662e+06  -1.371831e+06
   3.191044e+05  -1.890033e+06
   2.283273e+06  -1.567522e+06
   2.726366e+06  -2.422209e+05
   1.207486e+06   1.271673e+06
  -9.161395e+05   1.520312e+06
  -1.579344e+06   2.051960e+05
  -2.261397e+05  -1.083162e+06
   1.504669e+06  -7.345070e+05
   1.694682e+06   7.993186e+05
   2.875175e+05   1.647612e+06
  -1.126941e+06   9.269796e+05
  -1.240730e+06  -3.678220e+05
  -2.055008e+05  -8.001311e+05
   8.141714e+05  -5.015477e+04
   7.378059e+05   1.046158e+06
  -5.579816e+05   1.409794e+06
  -1.974450e+06   5.464418e+05
  -2.013230e+06  -1.030215e+06
  -3.765312e+05  -2.055713e+06
   1.442105e+06  -1.622611e+06
   1.715919e+06  -1.866205e+05
   4.769651e+05   8.735874e+05
  -6.661428e+05   7.813180e+05
  -5.997996e+05   6.879707e+04
   1.514852e+05  -3.167901e+05
   4.623438e+05  -1.482861e+05
   4.519373e+04   7.242487e+04
  -4.956218e+05  -1.299181e+05
  -4.996527e+05  -7.213161e+05
   2.424356e+05  -1.188383e+06
   1.382827e+06  -8.714598e+05
   2.053873e+06   4.221320e+05
   1.442425e+06   1.922933e+06
  -2.221282e+05   2.374669e+06
  -1.598097e+06   1.350503e+06
  -1.635847e+06  -1.653648e+05
  -7.811836e+05  -8.674450e+05
  -2.734074e+05  -5.694680e+05
  -4.969081e+05  -1.587833e+05
  -6.698949e+05  -3.156733e+05
  -1.025260e+05  -7.831628e+05
   8.845192e+05  -8.791138e+05
   1.424323e+06  -2.848019e+05
   9.912781e+05   7.155113e+05
  -2.867732e+05   1.400419e+06
  -1.702171e+06   1.017823e+06
  -2.196071e+06  -4.969628e+05
  -1.085853e+06  -2.086209e+06
   1.040261e+06  -2.338413e+06
   2.543079e+06  -9.859886e+05
   2.303048e+06   7.046530e+05
   8.779262e+05   1.338252e+06
  -2.508498e+05   8.882643e+05
  -3.613594e+05   4.457080e+05
  -1.327590e+04   7.304028e+05
  -6.316582e+04   1.317828e+06
  -6.665436e+05   1.299461e+06
  -1.292118e+06   3.257556e+05
  -1.322954e+06  -1.059282e+06
  -5.488331e+05  -1.861465e+06
   6.088305e+05  -1.411401e+06
   1.262853e+06   1.492178e+04
   7.891608e+05   1.287539e+06
  -4.189498e+05   1.383978e+06
  -1.191420e+06   3.673093e+05
  -8.152035e+05  -7.453321e+05
   1.562004e+05  -1.100604e+06
   5.827004e+05  -7.737919e+05
   1.107064e+05  -3.935293e+05
  -4.327886e+05  -3.172748e+05
  -6.360089e+04  -3.709750e+05
   1.150535e+06  -2.018522e+05
   2.057625e+06   3.359029e+05
   1.594165e+06   1.041509e+06
  -6.643817e+04   1.444275e+06
  -1.601677e+06   1.139493e+06
  -1.822548e+06   2.489626e+05
  -8.176853e+05  -5.343861e+05
   2.703973e+05  -5.839722e+05
   5.195584e+05  -1.712089e+04
   4.952054e+04   4.376208e+05
  -4.195709e+05   2.588890e+05
  -4.790640e+05  -3.342596e+05
  -2.810302e+05  -6.939150e+05
  -1.258391e+05  -4.619228e+05
  -1.366147e+05   6.881785e+04
  -2.553740e+05   2.523437e+05
  -2.650447e+05  -2.342110e+05
   1.249786e+05  -9.548230e+05
   8.850797e+05  -1.055700e+06
   1.375695e+06  -2.049403e+05
   8.796720e+05   8.888995e+05
  -4.004411e+05   1.154250e+06
  -1.253721e+06   3.726736e+05
  -7.255593e+05  -5.500984e+05
   7.018094e+05  -6.321228e+05
   1.549924e+06   1.197800e+05
   9.409743e+05   8.700443e+05
  -5.199606e+05   9.485565e+05
  -1.474741e+06   4.137394e+05
  -1.183314e+06  -2.242647e+05
  -1.097115e+05  -5.005188e+05
   6.471408e+05  -2.464266e+05
   3.928137e+05   2.990081e+05
  -5.523222e+05   5.304346e+05
  -1.162123e+06  -4.575871e+04
  -6.980536e+05  -1.136938e+06
   5.265359e+05  -1.684562e+06
   1.428788e+06  -9.015253e+05
   1.236749e+06   7.227301e+05
   2.098319e+05   1.748056e+06
  -7.263192e+05   1.250070e+06
  -9.052329e+05  -1.995617e+05
  -3.976307e+05  -1.177570e+06
   2.541283e+05  -9.364348e+05
   5.652540e+05  -6.945504e+04
   4.296487e+05   3.674849e+05
   1.285170e+05   1.295185e+05
   6.085036e+04  -8.591825e+04
   3.231553e+05   3.033820e+05
   5.211359e+05   9.533833e+05
   1.511906e+05   1.056467e+06
  -7.447340e+05   3.891252e+05
  -1.441956e+06  -4.512872e+05
  -1.222092e+06  -8.224683e+05
  -1.805182e+05  -6.933555e+05
   8.024023e+05  -4.141946e+05
   9.545250e+05  -1.684635e+05
   3.850482e+05   6.634222e+04
  -1.280838e+05   2.239718e+05
  -7.639066e+04   1.872255e+05
   2.148317e+05   7.381613e+04
   6.720767e+04   1.254367e+05
  -5.992244e+05   2.478405e+05
  -1.032306e+06   1.288352e+04
  -4.976158e+05  -6.746175e+05
   7.691833e+05  -1.187411e+06
   1.687983e+06  -7.986549e+05
   1.443895e+06   3.752481e+05
   3.035354e+05   1.368782e+06
  -7.480774e+05   1.377757e+06
  -1.022325e+06   5.727051e+05
  -6.373842e+05  -1.957747e+05
  -1.557562e+05  -3.489795e+05
   2.555532e+04  -8.814294e+04
  -9.827176e+04  -1.161260e+04
  -2.802158e+05  -3.745506e+05
  -2.344208e+05  -7.942850e+05
   1.565956e+05  -6.789868e+05
   6.584899e+05   7.893140e+04
   7.645898e+05   8.901305e+05
   1.816674e+05   1.011231e+06
  -7.028822e+05   2.970291e+05
  -1.039175e+06  -6.479322e+05
  -3.911106e+05  -1.064447e+06
   6.783973e+05  -7.113627e+05
   1.122435e+06   3.889654e+04
   5.628817e+05   6.220294e+05
  -2.693232e+05   7.141005e+05
  -4.039683e+05   3.824523e+05
   1.994353e+05  -6.428914e+03
   6.260866e+05  -5.491018e+04
   1.649106e+05   3.069559e+05
  -8.015821e+05   6.748328e+05
  -1.269905e+06   5.234978e+05
  -7.989295e+05  -1.906417e+05
   7.448686e+04  -8.730408e+05
   5.641729e+05  -8.730627e+05
   4.549973e+05  -2.026182e+05
   8.203049e+04   4.497319e+05
  -2.165222e+05   4.549554e+05
  -3.419010e+05  -9.991038e+04
  -2.664186e+05  -5.608691e+05
   2.921039e+04  -4.556462e+05
   3.850225e+05   1.915180e+04
   4.898535e+05   2.930093e+05
   2.435248e+05   1.149181e+05
  -6.006071e+04  -1.755336e+05
  -9.031174e+04  -1.049721e+05
   7.046631e+04   3.154756e+05
   4.485524e+04   5.764208e+05
  -2.757601e+05   2.908799e+05
  -5.056729e+05  -3.100876e+05
  -2.375325e+05  -6.192182e+05
   3.722781e+05  -3.352701e+05
   6.830644e+05   2.310977e+05
   2.804790e+05   5.399954e+05
  -5.030745e+05   3.774097e+05
  -8.917232e+05  -3.470375e+04
  -4.911432e+05  -3.589824e+05
   2.769451e+05  -4.305583e+05
   6.304353e+05  -2.768634e+05
   2.774207e+05  -3.367388e+04
  -2.899686e+05   1.027276e+05
  -3.791565e+05  -9.675694e+03
   1.250042e+05  -2.581791e+05
   6.637827e+05  -2.779444e+05
