
 $NMID
 id='ANONYMOUS ', fmtdat='(2E16.6)'
 volume=1.0
 tramp=1.0
 $END
   4.067428e+07  -3.051968e+06
   2.733259e+07   2.195592e+07
  -1.879745e+06   2.774689e+07
  -1.885316e+07   1.384271e+07
  -1.334086e+07  -2.590386e+06
   1.068403e+06  -7.232147e+06
   7.684869e+06  -7.634845e+05
   3.648153e+06   6.976844e+06
  -3.529238e+06   8.359401e+06
  -7.209049e+06   2.855737e+06
  -5.758787e+06  -4.383455e+06
  -1.011732e+06  -6.791375e+06
   3.004469e+06  -2.100814e+06
   2.377026e+06   4.665337e+06
  -2.451005e+06   5.889778e+06
  -6.147015e+06  -1.418984e+05
  -4.222399e+06  -7.393038e+06
   1.940487e+06  -9.202449e+06
   7.139706e+06  -4.944774e+06
   7.917478e+06   1.128191e+06
   4.815425e+06   5.067396e+06
   7.719354e+05   5.712613e+06
  -1.193023e+06   4.124145e+06
  -1.365273e+05   2.538302e+06
   1.465479e+06   2.736834e+06
  -9.720053e+04   3.963382e+06
  -4.829170e+06   3.460970e+06
  -7.920117e+06   2.012854e+05
  -5.464777e+06  -3.224010e+06
   2.173203e+05  -3.747599e+06
   3.357564e+06  -1.574959e+06
   1.780068e+06   6.582399e+05
  -1.446151e+06   1.209113e+06
  -2.792674e+06   1.114798e+05
  -1.854228e+06  -1.927127e+06
  -5.072983e+04  -3.532071e+06
   1.483252e+06  -2.768744e+06
   1.912027e+06   3.696032e+05
   8.627912e+05   2.514652e+06
  -3.978670e+05   7.737301e+05
   1.373366e+05  -2.505832e+06
   2.068323e+06  -2.177918e+06
   2.241656e+06   2.172873e+06
  -9.461672e+05   4.783685e+06
  -4.502831e+06   1.431113e+06
  -4.066160e+06  -4.493694e+06
   6.359264e+05  -6.266427e+06
   5.332206e+06  -2.209881e+06
   5.891516e+06   3.081217e+06
   2.133596e+06   4.841530e+06
  -2.648990e+06   2.668336e+06
  -4.682089e+06  -7.161799e+05
  -2.561996e+06  -2.639748e+06
   1.533973e+06  -2.021693e+06
   3.590070e+06   2.640910e+05
   1.827935e+06   1.877507e+06
  -1.177877e+06   1.175580e+06
  -1.624088e+06  -7.119408e+05
   6.662123e+05  -1.134313e+06
   2.161793e+06   5.921316e+05
   4.328078e+05   2.315291e+06
  -2.796000e+06   1.943071e+06
  -4.075886e+06  -2.560651e+05
  -2.189321e+06  -2.690521e+06
   1.291066e+06  -4.191647e+06
   4.140519e+06  -3.952645e+06
   4.971666e+06  -1.393220e+06
   3.515264e+06   2.508721e+06
   8.299191e+05   4.960530e+06
  -1.119081e+06   4.130928e+06
  -1.235442e+06   1.566786e+06
  -5.168534e+05   2.808060e+05
  -6.789629e+05   8.565365e+05
  -1.835302e+06   1.131310e+06
  -2.468646e+06  -3.102361e+05
  -1.536161e+06  -2.089231e+06
   3.356860e+05  -2.054251e+06
   1.720209e+06  -5.661331e+04
   1.621417e+06   2.097121e+06
  -7.225545e+04   2.666720e+06
  -2.408874e+06   1.287726e+06
  -3.608129e+06  -1.094687e+06
  -2.508944e+06  -2.934369e+06
  -6.337202e+04  -3.155962e+06
   1.533192e+06  -2.088330e+06
   1.528412e+06  -1.074377e+06
   1.428698e+06  -8.423384e+05
   2.567576e+06  -6.787265e+05
   3.887625e+06   4.325886e+05
   3.217369e+06   2.316770e+06
   2.496316e+05   3.719001e+06
  -2.855700e+06   3.578350e+06
  -3.800953e+06   1.846141e+06
  -2.320685e+06  -5.283575e+05
  -4.928400e+04  -2.040781e+06
   1.112731e+06  -1.634656e+06
   4.719493e+05   9.467959e+04
  -1.016707e+06   1.157787e+06
  -1.656534e+06   3.851549e+05
  -7.602147e+05  -1.011755e+06
   5.203994e+05  -1.014862e+06
   5.395500e+05   3.449786e+05
  -7.766904e+05   9.140870e+05
  -1.802990e+06  -6.261612e+05
  -1.163173e+06  -2.884972e+06
   8.197841e+05  -3.454441e+06
   2.716443e+06  -1.680320e+06
   3.365939e+06   9.458959e+05
   2.464659e+06   2.591117e+06
   5.424281e+05   2.557920e+06
  -1.169841e+06   1.371191e+06
  -1.470817e+06   1.827836e+05
  -4.516932e+05  -3.247003e+04
   3.504806e+05   6.745013e+05
  -2.832278e+05   1.187419e+06
  -1.620655e+06   5.853169e+05
  -1.845621e+06  -6.575441e+05
  -4.498122e+05  -1.219449e+06
   1.036354e+06  -5.854198e+05
   9.054131e+05   4.001450e+05
  -7.321908e+05   6.396437e+05
  -2.146783e+06  -1.010339e+05
  -1.831759e+06  -1.238521e+06
   1.063067e+05  -1.967624e+06
   2.118719e+06  -1.670868e+06
   2.562393e+06  -3.416164e+05
   1.141450e+06   1.080082e+06
  -7.544112e+05   1.323684e+06
  -1.326462e+06   2.080054e+05
  -1.693742e+05  -9.235941e+05
   1.347256e+06  -6.940035e+05
   1.607425e+06   6.333865e+05
   4.314367e+05   1.511768e+06
  -9.257056e+05   1.017925e+06
  -1.205130e+06  -1.594825e+05
  -3.263862e+05  -6.919751e+05
   6.812945e+05  -9.551336e+04
   6.791512e+05   9.279416e+05
  -5.135235e+05   1.295535e+06
  -1.826324e+06   5.090494e+05
  -1.866568e+06  -9.277773e+05
  -3.993375e+05  -1.876125e+06
   1.249343e+06  -1.541708e+06
   1.569801e+06  -2.670718e+05
   5.181802e+05   7.736924e+05
  -5.710486e+05   7.777029e+05
  -6.256837e+05   7.009324e+04
   7.773833e+04  -4.267898e+05
   5.326370e+05  -2.764658e+05
   2.476446e+05   1.095621e+05
  -3.663010e+05   7.468557e+04
  -5.521029e+05  -5.156047e+05
   8.913784e+04  -1.090447e+06
   1.224831e+06  -8.770603e+05
   1.919808e+06   3.188155e+05
   1.382980e+06   1.742538e+06
  -1.513458e+05   2.245245e+06
  -1.477314e+06   1.393946e+06
  -1.630071e+06  -4.308698e+04
  -8.920884e+05  -8.852652e+05
  -3.053178e+05  -7.452674e+05
  -3.472233e+05  -2.656725e+05
  -4.977389e+05  -2.203274e+05
  -9.981929e+04  -6.364203e+05
   7.585354e+05  -8.700077e+05
   1.352101e+06  -3.764615e+05
   1.045134e+06   6.719283e+05
  -1.694283e+05   1.433871e+06
  -1.579587e+06   1.077972e+06
  -2.112279e+06  -3.859160e+05
  -1.137301e+06  -1.900034e+06
   8.041386e+05  -2.206507e+06
   2.271824e+06  -1.066453e+06
   2.228085e+06   4.852344e+05
   1.016314e+06   1.229333e+06
  -1.302094e+05   9.779968e+05
  -4.295222e+05   5.482433e+05
  -1.715405e+05   6.582730e+05
  -1.096013e+05   1.118074e+06
  -5.566553e+05   1.147974e+06
  -1.140920e+06   3.104427e+05
  -1.233165e+06  -9.686528e+05
  -5.409569e+05  -1.732851e+06
   5.524730e+05  -1.332378e+06
   1.193299e+06  -3.856542e+04
   8.024808e+05   1.132573e+06
  -2.715228e+05   1.298359e+06
  -1.009289e+06   4.791114e+05
  -7.749420e+05  -5.186795e+05
   6.283445e+03  -9.490870e+05
   3.889969e+05  -7.625942e+05
   4.064674e+04  -4.289223e+05
  -3.841937e+05  -3.158033e+05
  -5.027380e+04  -3.569543e+05
   1.022758e+06  -2.360939e+05
   1.863844e+06   2.333779e+05
   1.514915e+06   8.876161e+05
   6.003948e+04   1.290168e+06
  -1.367693e+06   1.078021e+06
  -1.663656e+06   3.397340e+05
  -8.138971e+05  -3.675711e+05
   1.909973e+05  -5.007377e+05
   4.566733e+05  -7.631966e+04
   2.435198e+04   3.375401e+05
  -4.225358e+05   2.283094e+05
  -4.407720e+05  -3.040829e+05
  -1.907684e+05  -6.627400e+05
  -4.711985e+04  -4.308196e+05
  -1.389492e+05   1.254092e+05
  -3.024765e+05   3.109535e+05
  -2.697335e+05  -2.043294e+05
   1.401054e+05  -9.223676e+05
   8.000629e+05  -9.898333e+05
   1.178953e+06  -1.688893e+05
   7.405184e+05   8.111011e+05
  -3.468545e+05   1.007528e+06
  -1.102760e+06   2.942578e+05
  -6.747398e+05  -5.271525e+05
   6.222703e+05  -6.251333e+05
   1.495046e+06   3.245771e+04
   1.016531e+06   7.779806e+05
  -3.859282e+05   9.766207e+05
  -1.403687e+06   5.407944e+05
  -1.196742e+06  -1.246834e+05
  -1.576185e+05  -4.902740e+05
   5.937444e+05  -2.873801e+05
   3.481924e+05   2.434589e+05
  -5.459271e+05   4.635191e+05
  -1.078478e+06  -8.602418e+04
  -5.938307e+05  -1.083130e+06
   5.569252e+05  -1.550665e+06
   1.368227e+06  -8.076548e+05
   1.167672e+06   6.931116e+05
   2.117256e+05   1.662276e+06
  -6.686541e+05   1.236639e+06
  -8.769125e+05  -1.191746e+05
  -4.535245e+05  -1.100233e+06
   1.529701e+05  -9.346313e+05
   5.122470e+05  -1.081670e+05
   4.648282e+05   3.555335e+05
   1.818607e+05   1.430904e+05
   3.431872e+04  -1.022203e+05
   2.271955e+05   2.343653e+05
   4.766531e+05   8.715957e+05
   2.317193e+05   1.013326e+06
  -6.148401e+05   3.985592e+05
  -1.381081e+06  -4.059651e+05
  -1.235926e+06  -7.614357e+05
  -1.909438e+05  -6.377589e+05
   8.105225e+05  -3.922454e+05
   9.226439e+05  -1.951460e+05
   3.163319e+05   1.753293e+04
  -1.407394e+05   2.051811e+05
  -1.192165e+03   2.179521e+05
   2.760576e+05   1.127985e+05
   3.502032e+04   1.200064e+05
  -6.406565e+05   2.052094e+05
  -9.604210e+05  -4.456117e+02
  -3.645672e+05  -6.099341e+05
   7.820865e+05  -1.073108e+06
   1.526465e+06  -7.130145e+05
   1.264611e+06   3.780177e+05
   2.648370e+05   1.296059e+06
  -6.714572e+05   1.277455e+06
  -9.519165e+05   4.947150e+05
  -6.084433e+05  -2.223379e+05
  -1.165635e+05  -3.233973e+05
   8.485721e+04  -3.421742e+04
  -7.199610e+04   4.211059e+04
  -3.025409e+05  -3.300564e+05
  -2.559261e+05  -7.468295e+05
   1.570221e+05  -6.220932e+05
   6.301981e+05   1.216457e+05
   6.754598e+05   8.784381e+05
   9.512544e+04   9.353775e+05
  -6.978342e+05   2.090114e+05
  -9.505641e+05  -6.679729e+05
  -3.245594e+05  -9.910901e+05
   6.423698e+05  -6.168196e+05
   1.017521e+06   5.053415e+04
   4.938593e+05   5.304519e+05
  -2.406119e+05   6.072146e+05
  -3.183958e+05   3.496953e+05
   2.496578e+05   2.291638e+04
   6.040628e+05  -4.205400e+04
   1.345530e+05   2.735638e+05
  -7.509752e+05   6.459503e+05
  -1.139147e+06   5.493476e+05
  -6.904796e+05  -1.205842e+05
   7.084758e+04  -7.940381e+05
   4.684621e+05  -7.995399e+05
   3.588506e+05  -1.496928e+05
   4.205145e+04   4.462206e+05
  -2.118114e+05   3.917742e+05
  -3.206850e+05  -1.508410e+05
  -2.420117e+05  -5.276069e+05
   3.825252e+04  -3.737627e+05
   3.571119e+05   4.257225e+04
   4.431391e+05   2.321378e+05
   2.309313e+05   7.106146e+04
  -3.074175e+04  -1.169833e+05
  -9.097399e+04  -4.011241e+03
  -1.692159e+04   3.275473e+05
  -6.714624e+04   4.686168e+05
  -2.874756e+05   1.642706e+05
  -3.922861e+05  -3.543650e+05
  -1.190903e+05  -5.826120e+05
   3.768649e+05  -2.836294e+05
   5.991058e+05   2.527807e+05
   2.314550e+05   5.281507e+05
  -4.538051e+05   3.469091e+05
  -8.000334e+05  -5.638128e+04
  -4.432797e+05  -3.370766e+05
   2.566951e+05  -3.599372e+05
   5.717926e+05  -2.067499e+05
   2.135378e+05  -2.550941e+04
  -3.331913e+05   4.403112e+04
  -3.762700e+05  -7.700700e+04
   1.732903e+05  -2.775819e+05
   7.097809e+05  -2.514505e+05
