
 $NMID
 id='ANONYMOUS ', fmtdat='(2E16.6)'
 volume=1.0
 tramp=1.0
 $END
  -5.647204e+07   5.331954e+05
  -3.427989e+07  -3.464181e+07
   7.119353e+06  -3.826464e+07
   2.751907e+07  -1.492484e+07
   1.655806e+07   6.884655e+06
  -3.274192e+06   9.389102e+06
  -9.899936e+06  -1.142084e+06
  -2.880075e+06  -9.793926e+06
   6.149719e+06  -9.442311e+06
   9.670455e+06  -2.085908e+06
   7.054432e+06   6.176413e+06
   8.650981e+05   8.623072e+06
  -4.001256e+06   2.762027e+06
  -2.694573e+06  -5.467520e+06
   3.717586e+06  -6.619509e+06
   7.903543e+06   1.261417e+06
   4.549098e+06   1.017515e+07
  -3.664954e+06   1.183548e+07
  -1.004332e+07   5.997752e+06
  -1.082592e+07  -1.952414e+06
  -6.693225e+06  -7.429771e+06
  -7.692953e+05  -8.649484e+06
   2.863771e+06  -6.077568e+06
   1.823240e+06  -2.695562e+06
  -1.152971e+06  -2.140706e+06
  -3.111852e+05  -4.197414e+06
   5.385317e+06  -4.481602e+06
   9.708272e+06  -5.923289e+05
   7.110594e+06   4.097323e+06
   2.732276e+05   5.100360e+06
  -3.745875e+06   2.618019e+06
  -2.501459e+06   1.862442e+04
   6.082980e+05  -9.700918e+05
   2.294362e+06  -5.231422e+05
   2.209654e+06   1.415018e+06
   7.182976e+05   3.929005e+06
  -1.771872e+06   3.862779e+06
  -3.227222e+06  -9.434695e+04
  -1.735226e+06  -3.638363e+06
   7.654005e+05  -1.930322e+06
   3.715159e+05   2.475442e+06
  -2.438511e+06   2.342244e+06
  -2.482626e+06  -3.183198e+06
   2.368097e+06  -6.181924e+06
   6.951852e+06  -1.091310e+06
   5.209447e+06   6.894592e+06
  -1.816940e+06   8.575897e+06
  -7.422391e+06   2.508732e+06
  -7.033541e+06  -4.387386e+06
  -1.924083e+06  -6.035971e+06
   3.469879e+06  -2.762211e+06
   5.306338e+06   1.480368e+06
   2.461085e+06   3.483632e+06
  -2.425523e+06   2.229939e+06
  -4.562600e+06  -8.930686e+05
  -1.972287e+06  -2.725134e+06
   1.726080e+06  -1.395066e+06
   1.760021e+06   1.023742e+06
  -1.324338e+06   9.472436e+05
  -2.511501e+06  -1.730762e+06
   5.742018e+05  -3.463076e+06
   4.612106e+06  -1.964276e+06
   5.324787e+06   1.296823e+06
   2.366235e+06   3.956540e+06
  -1.749560e+06   5.293329e+06
  -4.971955e+06   4.907259e+06
  -6.195532e+06   1.814755e+06
  -4.625618e+06  -3.124330e+06
  -1.002602e+06  -6.187699e+06
   1.823994e+06  -4.805679e+06
   1.752272e+06  -1.239495e+06
   1.592110e+05   2.504493e+05
  -3.779159e+04  -9.961125e+05
   1.608922e+06  -1.828583e+06
   2.847745e+06  -2.669773e+05
   2.069667e+06   1.944445e+06
   3.556028e+04   2.181116e+06
  -1.586878e+06   2.219286e+05
  -1.725815e+06  -2.094526e+06
  -2.733920e+04  -2.972450e+06
   2.781655e+06  -1.693883e+06
   4.515807e+06   1.159957e+06
   3.273600e+06   3.749761e+06
   3.521503e+03   4.245567e+06
  -2.254438e+06   2.749892e+06
  -2.223566e+06   1.166832e+06
  -1.834465e+06   7.129637e+05
  -2.965612e+06   5.236246e+05
  -4.403142e+06  -7.155557e+05
  -3.554228e+06  -2.757711e+06
  -1.764017e+05  -4.178236e+06
   3.204633e+06  -3.985698e+06
   4.207199e+06  -2.188773e+06
   2.698212e+06   4.071834e+05
   2.985030e+05   2.267913e+06
  -1.105332e+06   1.968230e+06
  -5.767619e+05  -3.982560e+04
   1.097159e+06  -1.344202e+06
   1.940182e+06  -4.191348e+05
   9.457971e+05   1.221771e+06
  -5.271576e+05   1.138572e+06
  -4.486591e+05  -3.981711e+05
   1.078674e+06  -7.281452e+05
   1.905926e+06   1.282032e+06
   6.922401e+05   3.529454e+06
  -1.584855e+06   3.475877e+06
  -3.174983e+06   1.157273e+06
  -3.362077e+06  -1.436258e+06
  -2.324807e+06  -2.779263e+06
  -4.820106e+05  -2.641933e+06
   1.243521e+06  -1.494660e+06
   1.598350e+06  -2.427957e+05
   4.994456e+05   4.415019e+04
  -3.732122e+05  -7.649971e+05
   4.110149e+05  -1.375259e+06
   1.944528e+06  -6.076100e+05
   2.085052e+06   8.951050e+05
   4.013462e+05   1.452328e+06
  -1.198969e+06   5.968945e+05
  -9.163703e+05  -4.601441e+05
   8.582541e+05  -5.403372e+05
   2.219373e+06   3.076170e+05
   1.780850e+06   1.365210e+06
  -2.402887e+05   2.003743e+06
  -2.335376e+06   1.698166e+06
  -2.820322e+06   2.967422e+05
  -1.248123e+06  -1.285084e+06
   9.295576e+05  -1.542443e+06
   1.595374e+06  -2.038025e+05
   2.160025e+05   1.107042e+06
  -1.544374e+06   7.665804e+05
  -1.759772e+06  -7.886898e+05
  -3.490821e+05  -1.687258e+06
   1.117017e+06  -1.000149e+06
   1.288907e+06   3.202052e+05
   2.522935e+05   8.068511e+05
  -8.208517e+05   6.991042e+04
  -7.708885e+05  -1.066203e+06
   5.656409e+05  -1.462438e+06
   2.039284e+06  -5.795186e+05
   2.086998e+06   1.048579e+06
   4.094512e+05   2.113558e+06
  -1.459217e+06   1.686268e+06
  -1.761103e+06   2.201362e+05
  -5.136380e+05  -8.908532e+05
   6.730861e+05  -8.261286e+05
   6.477764e+05  -8.022563e+04
  -1.182672e+05   3.691937e+05
  -4.953110e+05   2.157149e+05
  -1.192159e+05  -6.274541e+04
   4.584322e+05   8.026663e+04
   5.291310e+05   6.825774e+05
  -2.024090e+05   1.209165e+06
  -1.398469e+06   9.230902e+05
  -2.123092e+06  -4.019300e+05
  -1.510410e+06  -1.964988e+06
   2.006200e+05  -2.464417e+06
   1.634239e+06  -1.444262e+06
   1.715130e+06   1.221540e+05
   8.661971e+05   9.032839e+05
   3.181949e+05   6.483923e+05
   4.894803e+05   2.077299e+05
   6.483811e+05   3.101908e+05
   1.029379e+05   7.762732e+05
  -8.818240e+05   9.199998e+05
  -1.463323e+06   3.402546e+05
  -1.064501e+06  -7.194648e+05
   2.443714e+05  -1.477056e+06
   1.738052e+06  -1.101999e+06
   2.287858e+06   4.715742e+05
   1.170379e+06   2.129823e+06
  -1.012201e+06   2.421218e+06
  -2.586191e+06   1.069444e+06
  -2.398234e+06  -6.605760e+05
  -9.741677e+05  -1.359751e+06
   2.102132e+05  -9.581619e+05
   3.881911e+05  -5.126447e+05
   6.198473e+04  -7.641829e+05
   8.674723e+04  -1.335432e+06
   6.716309e+05  -1.322734e+06
   1.316935e+06  -3.389442e+05
   1.373281e+06   1.085921e+06
   5.854987e+05   1.922982e+06
  -6.190916e+05   1.469169e+06
  -1.309928e+06   8.042657e+03
  -8.387470e+05  -1.303341e+06
   3.901254e+05  -1.427517e+06
   1.188972e+06  -4.198028e+05
   8.369487e+05   7.112326e+05
  -1.195722e+05   1.104091e+06
  -5.477933e+05   8.043214e+05
  -8.894296e+04   4.225543e+05
   4.434139e+05   3.330322e+05
   6.552647e+04   3.858529e+05
  -1.168247e+06   2.247788e+05
  -2.105809e+06  -3.162723e+05
  -1.657419e+06  -1.041696e+06
   2.722232e+04  -1.468905e+06
   1.612220e+06  -1.182348e+06
   1.866894e+06  -2.959866e+05
   8.552374e+05   5.050744e+05
  -2.613451e+05   5.864361e+05
  -5.232738e+05   3.678897e+04
  -3.969918e+04  -4.298557e+05
   4.434438e+05  -2.652681e+05
   4.927478e+05   3.423207e+05
   2.709084e+05   7.261729e+05
   1.091757e+05   4.828424e+05
   1.385937e+05  -9.145016e+04
   2.759149e+05  -2.927888e+05
   2.814109e+05   2.310172e+05
  -1.274537e+05   9.979930e+05
  -8.996672e+05   1.097252e+06
  -1.390114e+06   2.058122e+05
  -8.879086e+05  -9.150181e+05
   4.052376e+05  -1.172042e+06
   1.277610e+06  -3.688143e+05
   7.526001e+05   5.706340e+05
  -7.105661e+05   6.647931e+05
  -1.612706e+06  -8.937850e+04
  -1.017757e+06  -8.743859e+05
   4.953561e+05  -1.003862e+06
   1.520545e+06  -4.852093e+05
   1.248303e+06   1.927073e+05
   1.350477e+05   5.207758e+05
  -6.619005e+05   2.758407e+05
  -4.005228e+05  -2.980972e+05
   5.811590e+05  -5.446812e+05
   1.204951e+06   5.608859e+04
   7.107988e+05   1.185215e+06
  -5.608863e+05   1.743309e+06
  -1.488578e+06   9.296527e+05
  -1.287552e+06  -7.483497e+05
  -2.307553e+05  -1.816229e+06
   7.383792e+05  -1.317724e+06
   9.427075e+05   1.786639e+05
   4.433828e+05   1.211021e+06
  -2.268224e+05   9.841956e+05
  -5.765071e+05   8.822087e+04
  -4.682746e+05  -3.774914e+05
  -1.558116e+05  -1.363992e+05
  -5.435119e+04   9.458218e+04
  -3.086831e+05  -3.022411e+05
  -5.389289e+05  -9.798393e+05
  -1.915243e+05  -1.095751e+06
   7.411582e+05  -4.114879e+05
   1.504156e+06   4.541846e+05
   1.297842e+06   8.373934e+05
   1.962081e+05   7.114969e+05
  -8.476892e+05   4.375311e+05
  -9.943073e+05   1.926707e+05
  -3.814232e+05  -5.568286e+04
   1.393731e+05  -2.323816e+05
   5.318608e+04  -2.024544e+05
  -2.504478e+05  -8.347958e+04
  -6.239579e+04  -1.321364e+05
   6.465967e+05  -2.567458e+05
   1.068375e+06  -1.385522e+04
   4.843748e+05   6.967011e+05
  -8.144736e+05   1.225118e+06
  -1.729973e+06   8.192819e+05
  -1.470405e+06  -3.971463e+05
  -3.149557e+05  -1.421947e+06
   7.596564e+05  -1.423976e+06
   1.056919e+06  -5.845297e+05
   6.678854e+05   2.109240e+05
   1.540337e+05   3.616599e+05
  -4.885540e+04   8.046980e+04
   9.149750e+04  -4.116349e+03
   3.036992e+05   3.769913e+05
   2.589123e+05   8.205107e+05
  -1.635583e+05   7.011910e+05
  -6.909224e+05  -9.298344e+04
  -7.864040e+05  -9.365096e+05
  -1.672629e+05  -1.048607e+06
   7.447007e+05  -2.909513e+05
   1.075951e+06   6.882539e+05
   3.956262e+05   1.101727e+06
  -7.050629e+05   7.241181e+05
  -1.152689e+06  -4.197596e+04
  -5.718198e+05  -6.269260e+05
   2.756968e+05  -7.204365e+05
   3.979483e+05  -3.918185e+05
  -2.282946e+05   2.061409e+03
  -6.541583e+05   5.793977e+04
  -1.646349e+05  -3.138225e+05
   8.265669e+05  -7.068590e+05
   1.292942e+06  -5.632087e+05
   8.055789e+05   1.794816e+05
  -7.566396e+04   8.970747e+05
  -5.625387e+05   8.965587e+05
  -4.511528e+05   1.941925e+05
  -7.723745e+04  -4.757193e+05
   2.273801e+05  -4.614783e+05
   3.583882e+05   1.204594e+05
   2.760383e+05   5.809205e+05
  -3.544979e+04   4.556220e+05
  -3.995205e+05  -2.648708e+04
  -5.006880e+05  -2.889684e+05
  -2.509796e+05  -1.060504e+05
   5.161443e+04   1.680506e+05
   8.959778e+04   7.745846e+04
  -4.970905e+04  -3.425836e+05
  -8.616040e+03  -5.812806e+05
   3.012891e+05  -2.693182e+05
   5.030380e+05   3.453562e+05
   2.153505e+05   6.481672e+05
  -3.951988e+05   3.408812e+05
  -6.976769e+05  -2.507847e+05
  -2.843773e+05  -5.672582e+05
   5.140640e+05  -3.897698e+05
   9.140129e+05   4.212319e+04
   5.049434e+05   3.711823e+05
  -2.872840e+05   4.330269e+05
  -6.496015e+05   2.709765e+05
  -2.725174e+05   3.057983e+04
   3.238301e+05  -9.503573e+04
   4.044697e+05   2.924511e+04
  -1.442981e+05   2.836105e+05
  -7.156679e+05   2.938182e+05
