
 $NMID
 id='ANONYMOUS ', fmtdat='(2E16.6)'
 volume=1.0
 tramp=1.0
 $END
   3.508368e+07  -9.167757e+05
   2.289849e+07   1.861875e+07
  -1.718948e+06   2.317805e+07
  -1.601664e+07   1.240078e+07
  -1.169274e+07  -1.223779e+06
   4.882043e+05  -6.161513e+06
   6.696463e+06  -1.361860e+06
   3.731052e+06   5.860680e+06
  -2.643417e+06   7.895940e+06
  -6.311026e+06   2.953669e+06
  -5.143137e+06  -4.115601e+06
  -7.428499e+05  -6.379201e+06
   2.911706e+06  -1.686204e+06
   2.260317e+06   4.739805e+06
  -2.124781e+06   5.732726e+06
  -5.457628e+06   5.040413e+04
  -3.760315e+06  -6.594561e+06
   1.787878e+06  -8.154620e+06
   6.431144e+06  -4.103391e+06
   6.830845e+06   1.485496e+06
   3.639212e+06   4.691257e+06
   1.118388e+05   4.617095e+06
  -8.725652e+05   2.994765e+06
   7.544334e+05   2.229377e+06
   1.959284e+06   3.211267e+06
  -3.493024e+05   4.312474e+06
  -5.211509e+06   3.127054e+06
  -7.785580e+06  -3.953898e+05
  -4.872654e+06  -3.444252e+06
   8.410908e+05  -3.502966e+06
   3.737226e+06  -1.083221e+06
   1.745823e+06   1.271115e+06
  -1.966625e+06   1.694132e+06
  -3.433178e+06   5.391927e+04
  -1.973765e+06  -2.465078e+06
   3.980182e+05  -3.812963e+06
   1.732343e+06  -2.350241e+06
   1.439626e+06   8.982009e+05
   1.841802e+05   2.361025e+06
  -5.340446e+05   1.175045e+05
   3.967615e+05  -2.892148e+06
   2.077090e+06  -2.208789e+06
   2.067660e+06   1.868688e+06
  -5.790596e+05   4.098094e+06
  -3.474580e+06   1.146580e+06
  -3.228985e+06  -3.858150e+06
   5.915604e+05  -5.276526e+06
   4.736232e+06  -1.752373e+06
   5.498217e+06   2.892707e+06
   2.177006e+06   4.558486e+06
  -2.449029e+06   2.672862e+06
  -4.581636e+06  -4.873525e+05
  -2.648854e+06  -2.378813e+06
   1.238150e+06  -1.878284e+06
   3.234114e+06   1.735645e+05
   1.707249e+06   1.620180e+06
  -1.042291e+06   1.035221e+06
  -1.625949e+06  -6.339317e+05
   3.130487e+05  -1.180665e+06
   1.880368e+06   9.818689e+04
   7.440832e+05   1.638723e+06
  -2.046591e+06   1.660949e+06
  -3.492929e+06  -3.038514e+03
  -1.982669e+06  -2.270204e+06
   1.409387e+06  -3.858049e+06
   4.277381e+06  -3.605216e+06
   4.853249e+06  -1.010803e+06
   3.087618e+06   2.663336e+06
   5.280305e+05   4.783089e+06
  -9.823306e+05   3.962795e+06
  -9.671566e+05   1.756733e+06
  -6.123776e+05   6.888498e+05
  -1.155785e+06   1.055034e+06
  -2.300232e+06   9.377773e+05
  -2.648509e+06  -7.281227e+05
  -1.447410e+06  -2.492357e+06
   5.871197e+05  -2.282572e+06
   2.002671e+06  -2.356220e+04
   1.738665e+06   2.310004e+06
  -1.915862e+05   2.777397e+06
  -2.526591e+06   1.108016e+06
  -3.436674e+06  -1.368918e+06
  -2.128794e+06  -2.937608e+06
   1.599040e+05  -2.830216e+06
   1.433304e+06  -1.736752e+06
   1.298623e+06  -9.493627e+05
   1.292543e+06  -8.965839e+05
   2.536507e+06  -7.481352e+05
   3.890671e+06   4.130431e+05
   3.233906e+06   2.345115e+06
   2.286142e+05   3.789021e+06
  -2.998971e+06   3.621539e+06
  -4.002705e+06   1.757201e+06
  -2.368074e+06  -7.242206e+05
   1.236583e+05  -2.173553e+06
   1.297725e+06  -1.615626e+06
   4.781954e+05   1.604524e+05
  -1.107140e+06   1.155160e+06
  -1.665658e+06   3.427591e+05
  -6.840763e+05  -1.036787e+06
   5.941922e+05  -1.048448e+06
   6.355486e+05   3.197026e+05
  -6.240048e+05   1.034441e+06
  -1.749415e+06  -3.282516e+05
  -1.388915e+06  -2.660795e+06
   4.480804e+05  -3.569218e+06
   2.560684e+06  -2.028840e+06
   3.556133e+06   7.313996e+05
   2.742488e+06   2.667850e+06
   6.280323e+05   2.727019e+06
  -1.256800e+06   1.420169e+06
  -1.551318e+06   1.445947e+05
  -4.639695e+05  -3.885411e+04
   3.550386e+05   6.909904e+05
  -2.765820e+05   1.166421e+06
  -1.595966e+06   5.595996e+05
  -1.833502e+06  -6.354380e+05
  -4.703314e+05  -1.193478e+06
   1.043964e+06  -6.063596e+05
   9.780078e+05   3.972355e+05
  -6.932389e+05   7.313844e+05
  -2.251399e+06   1.020652e+04
  -2.010311e+06  -1.249906e+06
   3.075740e+04  -2.096601e+06
   2.186878e+06  -1.775230e+06
   2.644044e+06  -3.534573e+05
   1.144748e+06   1.087600e+06
  -7.755255e+05   1.288891e+06
  -1.301454e+06   1.699528e+05
  -1.206681e+05  -9.224106e+05
   1.378273e+06  -6.816152e+05
   1.640357e+06   6.323468e+05
   4.852503e+05   1.532830e+06
  -8.947901e+05   1.083333e+06
  -1.234498e+06  -9.689461e+04
  -3.768211e+05  -6.747530e+05
   6.609215e+05  -9.414011e+04
   6.686248e+05   9.521115e+05
  -5.590533e+05   1.315852e+06
  -1.889845e+06   4.819886e+05
  -1.895770e+06  -9.856111e+05
  -3.867251e+05  -1.918598e+06
   1.274230e+06  -1.562071e+06
   1.597259e+06  -2.800562e+05
   5.458917e+05   7.791791e+05
  -5.754341e+05   8.053285e+05
  -6.779871e+05   7.132265e+04
   3.929754e+04  -4.915488e+05
   5.829936e+05  -3.550402e+05
   3.576576e+05   1.067517e+05
  -3.036952e+05   1.473441e+05
  -5.750841e+05  -4.563674e+05
   5.390046e+04  -1.093956e+06
   1.243195e+06  -8.986425e+05
   1.965202e+06   3.357363e+05
   1.398793e+06   1.799740e+06
  -1.750759e+05   2.320235e+06
  -1.528940e+06   1.467843e+06
  -1.714073e+06  -1.168488e+04
  -9.908421e+05  -9.444337e+05
  -3.559498e+05  -8.700982e+05
  -3.156448e+05  -3.560481e+05
  -4.370315e+05  -2.231450e+05
  -7.632378e+04  -6.139227e+05
   7.630067e+05  -8.948554e+05
   1.398344e+06  -4.150773e+05
   1.122261e+06   7.003218e+05
  -1.402472e+05   1.522095e+06
  -1.630970e+06   1.137700e+06
  -2.190475e+06  -3.986605e+05
  -1.183757e+06  -1.945808e+06
   7.965474e+05  -2.246186e+06
   2.298678e+06  -1.104397e+06
   2.300533e+06   4.564435e+05
   1.112664e+06   1.252027e+06
  -8.361566e+04   1.061646e+06
  -4.789727e+05   6.338572e+05
  -2.710609e+05   6.896393e+05
  -1.795322e+05   1.106860e+06
  -5.793523e+05   1.132063e+06
  -1.153184e+06   2.881183e+05
  -1.248046e+06  -1.018470e+06
  -5.330268e+05  -1.794890e+06
   5.903328e+05  -1.368313e+06
   1.231931e+06  -4.046480e+04
   8.240682e+05   1.144344e+06
  -2.514625e+05   1.319293e+06
  -9.829166e+05   5.210672e+05
  -7.678882e+05  -4.666077e+05
  -2.651459e+04  -9.211339e+05
   3.388426e+05  -7.739454e+05
   1.214776e+04  -4.615137e+05
  -3.834814e+05  -3.470349e+05
  -4.141150e+04  -3.762508e+05
   1.029758e+06  -2.358656e+05
   1.880296e+06   2.531131e+05
   1.544426e+06   9.059816e+05
   8.224705e+04   1.287252e+06
  -1.373719e+06   1.069949e+06
  -1.691079e+06   3.590094e+05
  -8.359622e+05  -3.274960e+05
   1.861038e+05  -4.822834e+05
   4.504926e+05  -9.295096e+04
  -3.685780e+03   3.188364e+05
  -4.580866e+05   2.249186e+05
  -4.441810e+05  -3.209813e+05
  -1.507366e+05  -7.068878e+05
  -5.672320e+03  -4.567229e+05
  -1.421689e+05   1.572955e+05
  -3.380256e+05   3.602425e+05
  -2.825376e+05  -2.067657e+05
   1.713666e+05  -9.679717e+05
   8.351914e+05  -1.002623e+06
   1.174969e+06  -1.212964e+05
   7.056677e+05   8.578035e+05
  -3.786477e+05   9.954933e+05
  -1.121691e+06   2.435248e+05
  -6.860784e+05  -5.662209e+05
   6.354278e+05  -6.433491e+05
   1.553814e+06   2.145098e+04
   1.092857e+06   7.882411e+05
  -3.587909e+05   1.027861e+06
  -1.450426e+06   6.049920e+05
  -1.263748e+06  -1.007735e+05
  -1.816962e+05  -5.121775e+05
   6.057442e+05  -3.092071e+05
   3.398633e+05   2.451471e+05
  -5.934436e+05   4.563162e+05
  -1.115644e+06  -1.343122e+05
  -5.652404e+05  -1.151125e+06
   6.439620e+05  -1.588911e+06
   1.452542e+06  -7.930652e+05
   1.199673e+06   7.483626e+05
   1.941107e+05   1.733391e+06
  -7.026589e+05   1.293956e+06
  -9.076985e+05  -1.057021e+05
  -4.832263e+05  -1.134004e+06
   1.293419e+05  -9.774726e+05
   5.174138e+05  -1.185165e+05
   5.043763e+05   3.735177e+05
   2.174477e+05   1.527332e+05
   2.361326e+04  -1.117391e+05
   1.865217e+05   2.355026e+05
   4.654172e+05   9.035205e+05
   2.640214e+05   1.050420e+06
  -6.001994e+05   4.022332e+05
  -1.431546e+06  -4.371514e+05
  -1.303675e+06  -7.959582e+05
  -1.922549e+05  -6.548989e+05
   8.740457e+05  -3.993670e+05
   9.662931e+05  -2.039907e+05
   2.989603e+05   1.074995e+04
  -1.605370e+05   2.102085e+05
   3.393573e+04   2.346307e+05
   3.252719e+05   1.317071e+05
   2.081713e+04   1.304408e+05
  -7.088332e+05   1.979862e+05
  -9.922965e+05  -2.817181e+04
  -3.125010e+05  -6.441421e+05
   8.673641e+05  -1.084126e+06
   1.573955e+06  -6.794637e+05
   1.262485e+06   4.445029e+05
   2.388787e+05   1.355948e+06
  -7.103599e+05   1.296162e+06
  -9.991460e+05   4.705462e+05
  -6.360095e+05  -2.598048e+05
  -9.916898e+04  -3.399611e+05
   1.248171e+05  -2.015093e+04
  -5.769376e+04   6.394778e+04
  -3.215306e+05  -3.319268e+05
  -2.661771e+05  -7.737667e+05
   1.829473e+05  -6.351076e+05
   6.629661e+05   1.599631e+05
   6.673333e+05   9.506819e+05
   4.084719e+04   9.756133e+05
  -7.557092e+05   1.744906e+05
  -9.674618e+05  -7.438854e+05
  -2.936123e+05  -1.035829e+06
   6.887299e+05  -6.018130e+05
   1.037604e+06   8.618118e+04
   4.755088e+05   5.398849e+05
  -2.660723e+05   5.919470e+05
  -3.098947e+05   3.414950e+05
   2.919242e+05   3.302358e+04
   6.355256e+05  -2.874646e+04
   1.216956e+05   2.823636e+05
  -7.886793e+05   6.584789e+05
  -1.157239e+06   5.636776e+05
  -6.752649e+05  -1.212127e+05
   9.463863e+04  -8.087434e+05
   4.763201e+05  -7.989746e+05
   3.488057e+05  -1.177018e+05
   2.128099e+04   4.796541e+05
  -2.371377e+05   3.858145e+05
  -3.375237e+05  -1.899493e+05
  -2.357111e+05  -5.532068e+05
   6.101233e+04  -3.624037e+05
   3.706096e+05   6.395087e+04
   4.393691e+05   2.321286e+05
   2.329990e+05   6.076390e+04
  -9.855570e+03  -1.032053e+05
  -8.241694e+04   3.945176e+04
  -5.882044e+04   3.664342e+05
  -1.422314e+05   4.664756e+05
  -3.314554e+05   1.170808e+05
  -3.695456e+05  -4.178387e+05
  -6.211746e+04  -6.224604e+05
   4.139717e+05  -2.752221e+05
   6.006240e+05   2.978930e+05
   2.166809e+05   5.667214e+05
  -4.696987e+05   3.432075e+05
  -8.133658e+05  -9.236231e+04
  -4.434289e+05  -3.612369e+05
   2.787379e+05  -3.458370e+05
   5.952050e+05  -1.737295e+05
   2.004598e+05  -1.174765e+04
  -3.827895e+05   2.319614e+04
  -4.080358e+05  -1.166388e+05
   2.062822e+05  -3.089727e+05
   7.825978e+05  -2.541705e+05
