
 $NMID
 id='ANONYMOUS ', fmtdat='(2E16.6)'
 volume=1.0
 tramp=1.0
 $END
   3.928071e+07  -1.150351e+06
   2.539821e+07   2.140454e+07
  -2.416442e+06   2.612901e+07
  -1.812149e+07   1.323549e+07
  -1.276745e+07  -2.045782e+06
   8.809602e+05  -6.825895e+06
   7.355800e+06  -1.057798e+06
   3.738571e+06   6.594519e+06
  -3.198920e+06   8.357132e+06
  -6.973144e+06   2.941731e+06
  -5.601151e+06  -4.498760e+06
  -8.297784e+05  -6.881318e+06
   3.137050e+06  -1.919001e+06
   2.414280e+06   4.952593e+06
  -2.387725e+06   6.029561e+06
  -5.977987e+06  -1.123156e+05
  -4.027939e+06  -7.292548e+06
   2.065211e+06  -8.950623e+06
   7.126311e+06  -4.552983e+06
   7.636695e+06   1.541861e+06
   4.243516e+06   5.204676e+06
   2.575057e+05   5.358159e+06
  -1.175899e+06   3.561675e+06
   3.879270e+05   2.363349e+06
   1.898219e+06   3.118061e+06
  -2.312799e+05   4.402473e+06
  -5.345979e+06   3.445965e+06
  -8.276795e+06  -1.992976e+05
  -5.364307e+06  -3.593130e+06
   6.606389e+05  -3.837379e+06
   3.817073e+06  -1.370561e+06
   1.908751e+06   1.088414e+06
  -1.796438e+06   1.630669e+06
  -3.340636e+06   1.453493e+05
  -2.073850e+06  -2.351414e+06
   2.086361e+05  -3.927314e+06
   1.762739e+06  -2.657298e+06
   1.757788e+06   7.796305e+05
   4.489249e+05   2.611866e+06
  -5.770394e+05   4.059092e+05
   2.715072e+05  -2.899770e+06
   2.172461e+06  -2.298650e+06
   2.199579e+06   2.105093e+06
  -8.408783e+05   4.531941e+06
  -4.094772e+06   1.196954e+06
  -3.647912e+06  -4.401249e+06
   7.573724e+05  -5.927440e+06
   5.259814e+06  -1.948615e+06
   5.895060e+06   3.161060e+06
   2.223330e+06   4.890199e+06
  -2.651760e+06   2.771204e+06
  -4.814180e+06  -6.237832e+05
  -2.705228e+06  -2.593442e+06
   1.438185e+06  -1.990275e+06
   3.523057e+06   2.650027e+05
   1.805341e+06   1.819072e+06
  -1.165424e+06   1.124498e+06
  -1.692298e+06  -6.989556e+05
   4.700921e+05  -1.177664e+06
   2.029734e+06   3.402840e+05
   5.731339e+05   1.960629e+06
  -2.485413e+06   1.768464e+06
  -3.869346e+06  -1.777341e+05
  -2.110796e+06  -2.576541e+06
   1.471221e+06  -4.188733e+06
   4.468948e+06  -3.926869e+06
   5.176497e+06  -1.194129e+06
   3.422051e+06   2.779334e+06
   6.485875e+05   5.117274e+06
  -1.110552e+06   4.202536e+06
  -1.104306e+06   1.730496e+06
  -5.573600e+05   5.642127e+05
  -9.949720e+05   1.075570e+06
  -2.242822e+06   1.109794e+06
  -2.746480e+06  -5.763377e+05
  -1.592976e+06  -2.458551e+06
   4.911370e+05  -2.324581e+06
   1.986194e+06  -6.572469e+04
   1.792758e+06   2.323051e+06
  -1.447240e+05   2.877056e+06
  -2.620564e+06   1.242719e+06
  -3.698262e+06  -1.346829e+06
  -2.380784e+06  -3.121686e+06
   1.171223e+05  -3.122440e+06
   1.584119e+06  -1.949641e+06
   1.469644e+06  -1.018027e+06
   1.405129e+06  -8.998161e+05
   2.663519e+06  -7.476764e+05
   4.071730e+06   4.467986e+05
   3.380139e+06   2.448618e+06
   2.493789e+05   3.943389e+06
  -3.084365e+06   3.787064e+06
  -4.123355e+06   1.892695e+06
  -2.481717e+06  -6.775520e+05
   4.792731e+04  -2.241665e+06
   1.288761e+06  -1.718230e+06
   5.052891e+05   1.417103e+05
  -1.125407e+06   1.219271e+06
  -1.746605e+06   3.741046e+05
  -7.484703e+05  -1.085726e+06
   5.907884e+05  -1.091412e+06
   6.231912e+05   3.361957e+05
  -7.050186e+05   1.016492e+06
  -1.821325e+06  -4.749664e+05
  -1.333130e+06  -2.856557e+06
   6.151251e+05  -3.649854e+06
   2.711034e+06  -1.960917e+06
   3.622120e+06   8.388397e+05
   2.762941e+06   2.737009e+06
   6.369608e+05   2.779011e+06
  -1.277831e+06   1.475133e+06
  -1.596463e+06   1.732967e+05
  -4.815328e+05  -3.752758e+04
   3.706733e+05   7.173852e+05
  -2.970259e+05   1.229437e+06
  -1.686068e+06   5.910966e+05
  -1.922112e+06  -6.796472e+05
  -4.789608e+05  -1.259727e+06
   1.089747e+06  -6.255729e+05
   9.940482e+05   4.113850e+05
  -7.333886e+05   7.235356e+05
  -2.303662e+06  -2.693134e+04
  -2.032158e+06  -1.288420e+06
   5.245075e+04  -2.135240e+06
   2.254551e+06  -1.820775e+06
   2.735634e+06  -3.698149e+05
   1.196596e+06   1.137948e+06
  -8.100660e+05   1.365337e+06
  -1.378120e+06   1.883379e+05
  -1.444110e+05  -9.725493e+05
   1.433910e+06  -7.200939e+05
   1.703699e+06   6.622437e+05
   4.857520e+05   1.592091e+06
  -9.449067e+05   1.102956e+06
  -1.274157e+06  -1.263539e+05
  -3.707690e+05  -7.092908e+05
   7.014701e+05  -9.586664e+04
   7.061511e+05   9.900615e+05
  -5.669442e+05   1.374598e+06
  -1.957734e+06   5.200437e+05
  -1.978868e+06  -1.008820e+06
  -4.116816e+05  -1.994594e+06
   1.325152e+06  -1.628529e+06
   1.660942e+06  -2.881398e+05
   5.594792e+05   8.120278e+05
  -5.996507e+05   8.317520e+05
  -6.889302e+05   7.854361e+04
   5.069972e+04  -4.844408e+05
   5.822761e+05  -3.445158e+05
   3.293619e+05   1.015138e+05
  -3.359417e+05   1.174377e+05
  -5.858742e+05  -5.005615e+05
   7.212123e+04  -1.140608e+06
   1.293857e+06  -9.326712e+05
   2.041497e+06   3.429438e+05
   1.462258e+06   1.862507e+06
  -1.693052e+05   2.402168e+06
  -1.574853e+06   1.510405e+06
  -1.757606e+06  -1.877668e+04
  -1.002248e+06  -9.557891e+05
  -3.642878e+05  -8.551621e+05
  -3.529634e+05  -3.397777e+05
  -4.827756e+05  -2.398618e+05
  -8.631997e+04  -6.549546e+05
   7.959692e+05  -9.265437e+05
   1.442234e+06  -4.220640e+05
   1.146118e+06   7.150871e+05
  -1.514680e+05   1.554894e+06
  -1.682714e+06   1.170509e+06
  -2.263458e+06  -4.073015e+05
  -1.222929e+06  -2.016576e+06
   8.369751e+05  -2.334800e+06
   2.394822e+06  -1.140545e+06
   2.376395e+06   4.859365e+05
   1.126430e+06   1.293653e+06
  -9.935331e+04   1.072614e+06
  -4.731339e+05   6.335050e+05
  -2.408034e+05   7.200217e+05
  -1.624383e+05   1.171472e+06
  -6.012415e+05   1.193978e+06
  -1.205975e+06   3.104241e+05
  -1.305123e+06  -1.046955e+06
  -5.654620e+05  -1.856652e+06
   6.012775e+05  -1.421874e+06
   1.274647e+06  -4.375493e+04
   8.538721e+05   1.193052e+06
  -2.715792e+05   1.370936e+06
  -1.036881e+06   5.241642e+05
  -8.009605e+05  -5.122404e+05
  -9.771833e+03  -9.729835e+05
   3.756432e+05  -8.001780e+05
   2.169640e+04  -4.669665e+05
  -4.048641e+05  -3.513230e+05
  -4.858235e+04  -3.871985e+05
   1.076262e+06  -2.463591e+05
   1.964827e+06   2.581840e+05
   1.606429e+06   9.408648e+05
   7.464198e+04   1.347584e+06
  -1.439316e+06   1.122709e+06
  -1.758865e+06   3.683635e+05
  -8.618389e+05  -3.585926e+05
   1.997331e+05  -5.120139e+05
   4.728189e+05  -8.916960e+04
   5.186015e+03   3.446450e+05
  -4.658967e+05   2.400709e+05
  -4.651753e+05  -3.296073e+05
  -1.780246e+05  -7.268693e+05
  -2.504875e+04  -4.722753e+05
  -1.443592e+05   1.518107e+05
  -3.347447e+05   3.605242e+05
  -2.907910e+05  -2.145588e+05
   1.631143e+05  -9.984243e+05
   8.606758e+05  -1.047725e+06
   1.237963e+06  -1.444930e+05
   7.573668e+05   8.842988e+05
  -3.864452e+05   1.050725e+06
  -1.173154e+06   2.762951e+05
  -7.173799e+05  -5.769440e+05
   6.593030e+05  -6.668696e+05
   1.602346e+06   2.312514e+04
   1.113334e+06   8.150109e+05
  -3.831054e+05   1.052191e+06
  -1.494271e+06   6.101297e+05
  -1.293630e+06  -1.101790e+05
  -1.819863e+05  -5.252546e+05
   6.278401e+05  -3.152730e+05
   3.593047e+05   2.576166e+05
  -6.036804e+05   4.852395e+05
  -1.158520e+06  -1.186043e+05
  -6.094360e+05  -1.181960e+06
   6.372163e+05  -1.657178e+06
   1.489819e+06  -8.435838e+05
   1.248352e+06   7.597091e+05
   2.155004e+05   1.788834e+06
  -7.179953e+05   1.334519e+06
  -9.366467e+05  -1.143957e+05
  -4.958765e+05  -1.171699e+06
   1.421735e+05  -1.003704e+06
   5.390467e+05  -1.196777e+05
   5.134967e+05   3.804653e+05
   2.139630e+05   1.525925e+05
   2.831677e+04  -1.119365e+05
   2.119233e+05   2.509294e+05
   4.942040e+05   9.353815e+05
   2.655808e+05   1.082149e+06
  -6.350813e+05   4.173524e+05
  -1.481599e+06  -4.419908e+05
  -1.340313e+06  -8.144383e+05
  -2.017000e+05  -6.791832e+05
   8.893599e+05  -4.208914e+05
   9.937147e+05  -2.132325e+05
   3.196095e+05   1.637785e+04
  -1.598383e+05   2.199972e+05
   2.250389e+04   2.351897e+05
   3.223574e+05   1.254147e+05
   2.861467e+04   1.339390e+05
  -7.156093e+05   2.166210e+05
  -1.029400e+06  -1.623395e+04
  -3.514979e+05  -6.668256e+05
   8.740996e+05  -1.139011e+06
   1.634048e+06  -7.282590e+05
   1.329927e+06   4.404984e+05
   2.652487e+05   1.399024e+06
  -7.281887e+05   1.353282e+06
  -1.030630e+06   5.064537e+05
  -6.586044e+05  -2.547819e+05
  -1.123294e+05  -3.513825e+05
   1.158472e+05  -3.101354e+04
  -6.408948e+04   5.638124e+04
  -3.287240e+05  -3.454446e+05
  -2.763144e+05  -7.988924e+05
   1.806200e+05  -6.625270e+05
   6.849482e+05   1.493469e+05
   7.087231e+05   9.681743e+05
   6.790498e+04   1.011411e+06
  -7.718539e+05   2.020209e+05
  -1.013546e+06  -7.477728e+05
  -3.235127e+05  -1.070519e+06
   7.049894e+05  -6.405553e+05
   1.082459e+06   7.506665e+04
   5.059139e+05   5.644399e+05
  -2.708171e+05   6.287822e+05
  -3.296037e+05   3.597731e+05
   2.894191e+05   2.636032e+04
   6.543064e+05  -3.798911e+04
   1.332951e+05   2.937485e+05
  -8.104179e+05   6.874837e+05
  -1.204278e+06   5.847398e+05
  -7.135746e+05  -1.294251e+05
   8.905379e+04  -8.436103e+05
   4.970917e+05  -8.373612e+05
   3.731659e+05  -1.348724e+05
   3.368160e+04   4.909801e+05
  -2.392343e+05   4.089926e+05
  -3.505509e+05  -1.816051e+05
  -2.514119e+05  -5.700581e+05
   5.632635e+04  -3.866909e+05
   3.848952e+05   5.733294e+04
   4.614856e+05   2.442937e+05
   2.420427e+05   6.804441e+04
  -1.729493e+04  -1.160590e+05
  -8.527581e+04   2.237638e+04
  -4.077506e+04   3.722676e+05
  -1.190391e+05   4.973962e+05
  -3.343615e+05   1.462833e+05
  -4.026553e+05  -4.146103e+05
  -9.184033e+04  -6.418926e+05
   4.197333e+05  -2.951244e+05
   6.329798e+05   2.942712e+05
   2.363423e+05   5.797518e+05
  -4.864601e+05   3.620562e+05
  -8.503382e+05  -8.178529e+04
  -4.665144e+05  -3.691786e+05
   2.849988e+05  -3.700431e+05
   6.177281e+05  -1.971686e+05
   2.168760e+05  -1.625444e+04
  -3.828753e+05   3.758214e+04
  -4.184459e+05  -1.031246e+05
   1.996564e+05  -3.139701e+05
   7.899980e+05  -2.717164e+05
