
 $NMID
 id='ANONYMOUS ', fmtdat='(2E16.6)'
 volume=1.0
 tramp=1.0
 $END
   5.091728e+07  -2.342927e+06
   3.249401e+07   2.963061e+07
  -4.597051e+06   3.474981e+07
  -2.428862e+07   1.506825e+07
  -1.564546e+07  -5.091028e+06
   2.305195e+06  -8.719689e+06
   9.172555e+06   2.920912e+05
   3.337332e+06   8.782052e+06
  -5.092850e+06   9.200219e+06
  -8.803025e+06   2.532422e+06
  -6.711355e+06  -5.434143e+06
  -1.058666e+06  -7.975564e+06
   3.592201e+06  -2.601266e+06
   2.643918e+06   5.146782e+06
  -3.197413e+06   6.434870e+06
  -7.333672e+06  -7.439138e+05
  -4.607036e+06  -9.155794e+06
   2.885207e+06  -1.100801e+07
   8.952672e+06  -5.806260e+06
   9.848871e+06   1.488477e+06
   6.160337e+06   6.483831e+06
   9.341177e+05   7.595954e+06
  -2.144083e+06   5.464142e+06
  -1.182635e+06   2.738197e+06
   1.254457e+06   2.390776e+06
   1.809955e+05   4.109163e+06
  -5.138837e+06   4.158501e+06
  -9.056180e+06   5.653655e+05
  -6.579527e+06  -3.676660e+06
  -1.833101e+05  -4.582524e+06
   3.543683e+06  -2.271387e+06
   2.206856e+06   1.858823e+05
  -9.271329e+05   1.027428e+06
  -2.473157e+06   3.613395e+05
  -2.084048e+06  -1.592229e+06
  -5.173806e+05  -3.779393e+06
   1.610298e+06  -3.504602e+06
   2.747911e+06   1.204778e+05
   1.484761e+06   3.187709e+06
  -5.751931e+05   1.524435e+06
  -1.912108e+05  -2.475119e+06
   2.298801e+06  -2.317981e+06
   2.462032e+06   2.794719e+06
  -1.763345e+06   5.748165e+06
  -6.074086e+06   1.348151e+06
  -4.923624e+06  -5.957839e+06
   1.262524e+06  -7.800286e+06
   6.652449e+06  -2.517165e+06
   6.703754e+06   3.847420e+06
   2.082532e+06   5.618016e+06
  -3.158143e+06   2.787751e+06
  -5.131489e+06  -1.150271e+06
  -2.568687e+06  -3.172054e+06
   2.068769e+06  -2.207880e+06
   4.241802e+06   5.947575e+05
   1.980928e+06   2.395251e+06
  -1.503703e+06   1.346185e+06
  -1.734419e+06  -8.921440e+05
   1.079066e+06  -1.049031e+06
   2.440140e+06   1.282485e+06
  -1.373459e+05   3.082465e+06
  -3.942840e+06   2.053292e+06
  -4.932035e+06  -8.401384e+05
  -2.380185e+06  -3.486395e+06
   1.525144e+06  -4.939004e+06
   4.634998e+06  -4.633401e+06
   5.749403e+06  -1.740770e+06
   4.273567e+06   2.847852e+06
   1.022359e+06   5.750063e+06
  -1.516861e+06   4.618184e+06
  -1.575879e+06   1.406210e+06
  -3.244449e+05  -5.889010e+04
  -2.293348e+05   9.175963e+05
  -1.667129e+06   1.565554e+06
  -2.690279e+06   7.520434e+04
  -1.879328e+06  -1.973697e+06
   8.494052e+04  -2.123684e+06
   1.629910e+06  -1.635260e+05
   1.701135e+06   2.088203e+06
   1.811800e+04   2.864432e+06
  -2.628523e+06   1.577448e+06
  -4.206205e+06  -1.084286e+06
  -3.055473e+06  -3.419919e+06
  -8.880213e+04  -3.864944e+06
   1.960854e+06  -2.558218e+06
   1.971002e+06  -1.177386e+06
   1.697428e+06  -7.881534e+05
   2.836964e+06  -6.086299e+05
   4.247353e+06   5.797237e+05
   3.474666e+06   2.581542e+06
   2.376201e+05   4.028470e+06
  -3.060449e+06   3.877252e+06
  -4.053397e+06   2.104290e+06
  -2.564807e+06  -4.252677e+05
  -2.256847e+05  -2.179650e+06
   1.087047e+06  -1.858411e+06
   5.347748e+05   4.890179e+04
  -1.056040e+06   1.285005e+06
  -1.834168e+06   4.295515e+05
  -8.943337e+05  -1.132649e+06
   5.100165e+05  -1.097756e+06
   4.819733e+05   3.785515e+05
  -9.741831e+05   8.110956e+05
  -1.902197e+06  -1.035684e+06
  -9.083944e+05  -3.322041e+06
   1.291265e+06  -3.519827e+06
   3.035482e+06  -1.387907e+06
   3.407811e+06   1.247063e+06
   2.409132e+06   2.718575e+06
   5.205645e+05   2.624109e+06
  -1.212187e+06   1.465174e+06
  -1.555536e+06   2.354193e+05
  -4.856358e+05  -3.482306e+04
   3.713601e+05   7.306703e+05
  -3.522459e+05   1.314582e+06
  -1.825720e+06   6.210855e+05
  -2.013918e+06  -7.893454e+05
  -4.361644e+05  -1.365606e+06
   1.135512e+06  -6.016185e+05
   9.135986e+05   4.348745e+05
  -8.207331e+05   5.824549e+05
  -2.210964e+06  -2.261983e+05
  -1.815282e+06  -1.321222e+06
   1.841903e+05  -2.004204e+06
   2.257444e+06  -1.712088e+06
   2.736975e+06  -3.373897e+05
   1.228195e+06   1.202548e+06
  -8.508515e+05   1.477401e+06
  -1.499168e+06   2.254375e+05
  -2.113927e+05  -1.037355e+06
   1.469334e+06  -7.551550e+05
   1.717881e+06   7.197901e+05
   3.956768e+05   1.627982e+06
  -1.043628e+06   1.021362e+06
  -1.266659e+06  -2.513531e+05
  -2.871353e+05  -7.640623e+05
   7.704190e+05  -8.273191e+04
   7.440704e+05   1.014977e+06
  -5.413563e+05   1.408694e+06
  -1.965595e+06   5.682257e+05
  -2.022200e+06  -9.934699e+05
  -4.246269e+05  -2.032253e+06
   1.374138e+06  -1.654062e+06
   1.697435e+06  -2.559107e+05
   5.265429e+05   8.447992e+05
  -6.295458e+05   8.156194e+05
  -6.373343e+05   8.155017e+04
   1.074002e+05  -3.896609e+05
   5.124434e+05  -2.350503e+05
   1.623512e+05   8.650128e+04
  -4.363514e+05  -2.010458e+04
  -5.498119e+05  -6.266222e+05
   1.548190e+05  -1.178243e+06
   1.338263e+06  -9.216736e+05
   2.063092e+06   3.592950e+05
   1.485792e+06   1.882655e+06
  -1.647857e+05   2.397997e+06
  -1.574674e+06   1.445510e+06
  -1.695216e+06  -8.180602e+04
  -8.868946e+05  -8.965806e+05
  -3.176457e+05  -6.849362e+05
  -4.404777e+05  -2.243368e+05
  -6.012186e+05  -2.736401e+05
  -1.095130e+05  -7.316727e+05
   8.382248e+05  -9.159992e+05
   1.433402e+06  -3.637068e+05
   1.069015e+06   7.039545e+05
  -2.122524e+05   1.474077e+06
  -1.685725e+06   1.110220e+06
  -2.239654e+06  -4.286593e+05
  -1.178571e+06  -2.049326e+06
   9.244251e+05  -2.362929e+06
   2.477320e+06  -1.093344e+06
   2.353907e+06   5.826286e+05
   1.003731e+06   1.313331e+06
  -1.777137e+05   9.720157e+05
  -4.031806e+05   5.285929e+05
  -9.498703e+04   7.267342e+05
  -8.221870e+04   1.262538e+06
  -6.210144e+05   1.271708e+06
  -1.256123e+06   3.414127e+05
  -1.336707e+06  -1.037219e+06
  -5.863829e+05  -1.857528e+06
   5.860638e+05  -1.430020e+06
   1.272774e+06  -2.848461e+04
   8.391474e+05   1.241674e+06
  -3.385514e+05   1.391244e+06
  -1.128055e+06   4.526191e+05
  -8.258715e+05  -6.397815e+05
   7.061727e+04  -1.056127e+06
   4.882528e+05  -7.981783e+05
   6.925760e+04  -4.274716e+05
  -4.274293e+05  -3.253568e+05
  -6.324027e+04  -3.777665e+05
   1.121390e+06  -2.392221e+05
   2.032616e+06   2.725828e+05
   1.621686e+06   9.793464e+05
   1.431010e+04   1.411985e+06
  -1.522939e+06   1.162821e+06
  -1.800000e+06   3.274758e+05
  -8.484612e+05  -4.520414e+05
   2.327146e+05  -5.613724e+05
   5.026236e+05  -5.512118e+04
   3.916295e+04   3.999208e+05
  -4.358160e+05   2.581406e+05
  -4.802490e+05  -3.259824e+05
  -2.502692e+05  -7.044948e+05
  -9.208308e+04  -4.648693e+05
  -1.399690e+05   1.050388e+05
  -2.858123e+05   3.006604e+05
  -2.802484e+05  -2.231242e+05
   1.266817e+05  -9.774934e+05
   8.617204e+05  -1.069934e+06
   1.320299e+06  -2.034452e+05
   8.464206e+05   8.753216e+05
  -3.772773e+05   1.122163e+06
  -1.218402e+06   3.546464e+05
  -7.329630e+05  -5.516808e+05
   6.773803e+05  -6.597617e+05
   1.579452e+06   5.716443e+04
   1.028689e+06   8.375676e+05
  -4.520526e+05   1.003527e+06
  -1.483218e+06   5.181378e+05
  -1.237032e+06  -1.610759e+05
  -1.471740e+05  -5.113282e+05
   6.382801e+05  -2.856378e+05
   3.854575e+05   2.766958e+05
  -5.665955e+05   5.218228e+05
  -1.164659e+06  -5.770568e+04
  -6.813593e+05  -1.147637e+06
   5.473196e+05  -1.686263e+06
   1.444192e+06  -9.024512e+05
   1.256588e+06   7.213264e+05
   2.395307e+05   1.767559e+06
  -7.068563e+05   1.300228e+06
  -9.250647e+05  -1.516893e+05
  -4.574601e+05  -1.173960e+06
   1.953204e+05  -9.721265e+05
   5.558461e+05  -9.922453e+04
   4.709900e+05   3.681788e+05
   1.657122e+05   1.381960e+05
   4.665649e+04  -9.810731e+04
   2.839237e+05   2.769294e+05
   5.268227e+05   9.409751e+05
   2.146325e+05   1.069320e+06
  -6.966587e+05   4.145470e+05
  -1.470199e+06  -4.270925e+05
  -1.287460e+06  -8.041961e+05
  -2.006538e+05  -6.873407e+05
   8.344013e+05  -4.299633e+05
   9.716454e+05  -2.017613e+05
   3.610783e+05   3.956845e+04
  -1.380160e+05   2.248100e+05
  -3.373569e+04   2.095967e+05
   2.602241e+05   9.285072e+04
   5.350107e+04   1.279400e+05
  -6.447805e+05   2.441038e+05
  -1.034184e+06   1.700907e+04
  -4.500369e+05  -6.646966e+05
   7.959405e+05  -1.182613e+06
   1.658704e+06  -7.991974e+05
   1.407417e+06   3.798566e+05
   3.097984e+05   1.380809e+06
  -7.209734e+05   1.384216e+06
  -1.019757e+06   5.632866e+05
  -6.507281e+05  -2.109279e+05
  -1.438921e+05  -3.483412e+05
   6.069772e+04  -6.462626e+04
  -8.542797e+04   1.800436e+04
  -3.070851e+05  -3.600354e+05
  -2.646139e+05  -7.956469e+05
   1.562993e+05  -6.767787e+05
   6.721414e+05   9.806746e+04
   7.574054e+05   9.127718e+05
   1.513843e+05   1.010918e+06
  -7.280489e+05   2.694109e+05
  -1.041359e+06  -6.747024e+05
  -3.811984e+05  -1.063915e+06
   6.799541e+05  -6.950746e+05
   1.110193e+06   3.610462e+04
   5.516472e+05   5.913622e+05
  -2.590259e+05   6.857810e+05
  -3.687899e+05   3.814145e+05
   2.365477e+05   4.715861e+03
   6.387775e+05  -5.759270e+04
   1.574058e+05   2.997647e+05
  -7.976278e+05   6.946441e+05
  -1.239875e+06   5.706045e+05
  -7.702580e+05  -1.531016e+05
   6.692719e+04  -8.650145e+05
   5.248270e+05  -8.707948e+05
   4.193153e+05  -1.833796e+05
   6.910107e+04   4.664429e+05
  -2.191020e+05   4.408462e+05
  -3.474074e+05  -1.284785e+05
  -2.697813e+05  -5.622962e+05
   3.272491e+04  -4.291944e+05
   3.862372e+05   2.888421e+04
   4.849088e+05   2.662407e+05
   2.459648e+05   9.235208e+04
  -4.602949e+04  -1.504731e+05
  -9.135796e+04  -5.177549e+04
   2.954348e+04   3.376842e+05
  -1.241553e+04   5.438590e+05
  -2.948582e+05   2.364333e+05
  -4.690867e+05  -3.451555e+05
  -1.880955e+05  -6.256077e+05
   3.874213e+05  -3.253121e+05
   6.679043e+05   2.467184e+05
   2.713632e+05   5.533724e+05
  -4.920237e+05   3.803538e+05
  -8.779499e+05  -3.991637e+04
  -4.882092e+05  -3.565627e+05
   2.739729e+05  -4.114832e+05
   6.223842e+05  -2.550726e+05
   2.529200e+05  -3.150948e+04
  -3.267922e+05   8.005551e+04
  -3.958277e+05  -4.244380e+04
   1.524994e+05  -2.831434e+05
   7.133542e+05  -2.854573e+05
