
 $NMID
 id='ANONYMOUS ', fmtdat='(2E16.6)'
 volume=1.0
 tramp=1.0
 $END
  -3.147063e+07   8.987619e+05
  -2.115217e+07  -1.565619e+07
   5.444234e+05  -2.058576e+07
   1.404739e+07  -1.232741e+07
   1.110531e+07  -4.957824e+04
   1.413077e+05   5.688719e+06
  -6.283101e+06   2.012397e+06
  -4.107435e+06  -5.229186e+06
   1.980361e+06  -7.916812e+06
   5.833579e+06  -3.280116e+06
   4.889337e+06   3.848287e+06
   6.891515e+05   6.141286e+06
  -2.795171e+06   1.470534e+06
  -2.212584e+06  -4.823801e+06
   1.893273e+06  -5.792650e+06
   5.132135e+06  -3.460332e+05
   3.711870e+06   6.057213e+06
  -1.457275e+06   7.631130e+06
  -5.863570e+06   3.792720e+06
  -6.146753e+06  -1.476052e+06
  -3.024776e+06  -4.239185e+06
   5.528122e+04  -3.822343e+06
   4.133387e+05  -2.379716e+06
  -1.419285e+06  -2.261830e+06
  -2.207956e+06  -3.673256e+06
   5.869208e+05  -4.544793e+06
   5.451209e+06  -2.881105e+06
   7.675781e+06   7.385658e+05
   4.517297e+06   3.489993e+06
  -1.193234e+06   3.255061e+06
  -3.922731e+06   7.030810e+05
  -1.612698e+06  -1.674912e+06
   2.438818e+06  -1.920182e+06
   3.885604e+06   1.197448e+05
   1.964074e+06   2.872885e+06
  -7.496196e+05   3.950293e+06
  -1.818750e+06   2.060499e+06
  -1.036322e+06  -1.143634e+06
   2.128948e+05  -2.140809e+06
   4.808242e+05   3.366510e+05
  -6.516369e+05   3.126818e+06
  -2.114517e+06   2.263731e+06
  -2.058446e+06  -1.653423e+06
   1.829050e+05  -3.796502e+06
   2.789130e+06  -1.220348e+06
   2.885392e+06   3.302560e+06
  -3.335461e+05   4.720672e+06
  -4.309003e+06   1.627217e+06
  -5.371650e+06  -2.709092e+06
  -2.311999e+06  -4.444855e+06
   2.348769e+06  -2.765982e+06
   4.635685e+06   3.114584e+05
   2.809121e+06   2.256996e+06
  -1.026092e+06   1.882994e+06
  -3.070594e+06  -2.794540e+04
  -1.716549e+06  -1.444685e+06
   9.343971e+05  -9.926023e+05
   1.670129e+06   5.886159e+05
  -9.533430e+04   1.308927e+06
  -1.837126e+06   2.901602e+05
  -1.115115e+06  -1.291469e+06
   1.520931e+06  -1.676795e+06
   3.222222e+06  -3.021996e+05
   1.978051e+06   1.978250e+06
  -1.421783e+06   3.673665e+06
  -4.340790e+06   3.410835e+06
  -4.757274e+06   8.155270e+05
  -2.825814e+06  -2.697747e+06
  -3.915992e+05  -4.667256e+06
   8.598273e+05  -3.944598e+06
   8.460367e+05  -1.969094e+06
   7.747809e+05  -9.436425e+05
   1.524932e+06  -1.093381e+06
   2.588967e+06  -7.253080e+05
   2.710150e+06   1.044428e+06
   1.325241e+06   2.766265e+06
  -8.048756e+05   2.408127e+06
  -2.207308e+06  -5.654514e+04
  -1.797347e+06  -2.503723e+06
   2.899716e+05  -2.862731e+06
   2.595911e+06  -9.868679e+05
   3.316053e+06   1.519447e+06
   1.919104e+06   2.890753e+06
  -2.264451e+05   2.609337e+06
  -1.305271e+06   1.559653e+06
  -1.137642e+06   9.371161e+05
  -1.232984e+06   9.787016e+05
  -2.566804e+06   8.170883e+05
  -3.954120e+06  -3.977206e+05
  -3.290503e+06  -2.393354e+06
  -2.115431e+05  -3.883759e+06
   3.136317e+06  -3.676453e+06
   4.167045e+06  -1.688715e+06
   2.390358e+06   8.667146e+05
  -2.625078e+05   2.252118e+06
  -1.428235e+06   1.587948e+06
  -4.746616e+05  -2.054581e+05
   1.178212e+06  -1.152281e+06
   1.685011e+06  -3.224282e+05
   6.415071e+05   1.048878e+06
  -6.554359e+05   1.070260e+06
  -7.134973e+05  -3.278083e+05
   5.583657e+05  -1.163568e+06
   1.807954e+06   1.229837e+05
   1.612868e+06   2.601334e+06
  -2.303651e+05   3.780720e+06
  -2.570590e+06   2.326064e+06
  -3.781553e+06  -6.372331e+05
  -2.951695e+06  -2.812655e+06
  -6.609352e+05  -2.894121e+06
   1.339171e+06  -1.455808e+06
   1.617069e+06  -1.074384e+05
   4.773586e+05   4.520903e+04
  -3.610607e+05  -7.117202e+05
   2.685172e+05  -1.171663e+06
   1.595563e+06  -5.605272e+05
   1.858603e+06   6.227534e+05
   4.994744e+05   1.197092e+06
  -1.066887e+06   6.295422e+05
  -1.040693e+06  -4.148991e+05
   6.969029e+05  -8.117426e+05
   2.376822e+06  -6.419806e+04
   2.155581e+06   1.310914e+06
  -6.305588e+03   2.227721e+06
  -2.281996e+06   1.858435e+06
  -2.737051e+06   3.542209e+05
  -1.164465e+06  -1.106059e+06
   7.892481e+05  -1.282026e+06
   1.294904e+06  -1.566916e+05
   9.341025e+04   9.234733e+05
  -1.413670e+06   6.797446e+05
  -1.687151e+06  -6.441298e+05
  -5.262994e+05  -1.579551e+06
   8.996151e+05  -1.150706e+06
   1.285732e+06   6.107090e+04
   4.207029e+05   6.835803e+05
  -6.563838e+05   1.007436e+05
  -6.679962e+05  -9.773973e+05
   5.981764e+05  -1.338802e+06
   1.950949e+06  -4.613595e+05
   1.931241e+06   1.039433e+06
   3.791356e+05   1.970007e+06
  -1.309542e+06   1.595312e+06
  -1.640433e+06   2.903280e+05
  -5.725950e+05  -7.988064e+05
   5.906757e+05  -8.353084e+05
   7.217403e+05  -6.312163e+04
  -2.832982e+04   5.492725e+05
  -6.409033e+05   4.010560e+05
  -4.350121e+05  -1.304887e+05
   2.835696e+05  -2.114081e+05
   6.127315e+05   4.284360e+05
  -3.010541e+04   1.120115e+06
  -1.275847e+06   9.243325e+05
  -2.019944e+06  -3.572199e+05
  -1.420530e+06  -1.863096e+06
   2.044246e+05  -2.397484e+06
   1.597712e+06  -1.529073e+06
   1.800566e+06   6.310109e+03
   1.058304e+06   1.016524e+06
   3.679219e+05   9.744725e+05
   2.800894e+05   4.121183e+05
   4.037051e+05   2.135240e+05
   6.856903e+04   6.027449e+05
  -7.805703e+05   9.246815e+05
  -1.456397e+06   4.388428e+05
  -1.183751e+06  -7.438357e+05
   1.397825e+05  -1.608325e+06
   1.698752e+06  -1.185048e+06
   2.270890e+06   4.252428e+05
   1.225233e+06   2.011224e+06
  -8.066863e+05   2.307853e+06
  -2.355128e+06   1.144365e+06
  -2.388345e+06  -4.551297e+05
  -1.189223e+06  -1.303879e+06
   7.086570e+04  -1.142030e+06
   5.358531e+05  -6.886241e+05
   3.451172e+05  -6.981478e+05
   2.224076e+05  -1.100169e+06
   5.961513e+05  -1.134294e+06
   1.172028e+06  -2.777342e+05
   1.266863e+06   1.065900e+06
   5.258195e+05   1.857983e+06
  -6.282679e+05   1.404225e+06
  -1.275067e+06   3.651908e+04
  -8.500040e+05  -1.171345e+06
   2.436153e+05  -1.356996e+06
   9.881052e+05  -5.641192e+05
   7.871649e+05   4.360543e+05
   5.669302e+04   9.235207e+05
  -3.118108e+05   8.045315e+05
  -4.098199e+00   4.958057e+05
   3.823291e+05   3.713436e+05
   3.274343e+04   3.921723e+05
  -1.048568e+06   2.399176e+05
  -1.914202e+06  -2.689503e+05
  -1.583807e+06  -9.339779e+05
  -1.015537e+05  -1.308613e+06
   1.393038e+06  -1.081931e+06
   1.736713e+06  -3.745599e+05
   8.721221e+05   3.090942e+05
  -1.803263e+05   4.787549e+05
  -4.564902e+05   1.075419e+05
   1.705136e+04  -3.050247e+05
   4.865849e+05  -2.190794e+05
   4.497930e+05   3.363480e+05
   1.185968e+05   7.364886e+05
  -2.595566e+04   4.708359e+05
   1.531512e+05  -1.799054e+05
   3.762659e+05  -3.902296e+05
   2.947924e+05   2.136305e+05
  -2.022703e+05   1.004951e+06
  -8.706410e+05   1.019334e+06
  -1.178269e+06   9.562212e+04
  -6.846071e+05  -8.910749e+05
   3.997777e+05  -9.957030e+05
   1.138201e+06  -2.123629e+05
   6.958904e+05   6.007547e+05
  -6.557390e+05   6.630117e+05
  -1.616977e+06  -2.416960e+04
  -1.157798e+06  -8.208865e+05
   3.554328e+05  -1.082957e+06
   1.514742e+06  -6.483584e+05
   1.331136e+06   9.877581e+04
   1.962560e+05   5.387805e+05
  -6.264173e+05   3.265818e+05
  -3.395005e+05  -2.470767e+05
   6.302037e+05  -4.488748e+05
   1.145318e+06   1.734106e+05
   5.421783e+05   1.204182e+06
  -7.147391e+05   1.618630e+06
  -1.523198e+06   7.794639e+05
  -1.227131e+06  -7.994732e+05
  -1.735316e+05  -1.800230e+06
   7.447535e+05  -1.343891e+06
   9.440605e+05   1.032565e+05
   5.045557e+05   1.177828e+06
  -1.231626e+05   1.024983e+06
  -5.302424e+05   1.269748e+05
  -5.341806e+05  -3.982878e+05
  -2.419163e+05  -1.686629e+05
  -1.884836e+04   1.220095e+05
  -1.630126e+05  -2.300621e+05
  -4.597469e+05  -9.336708e+05
  -2.829937e+05  -1.096287e+06
   5.991750e+05  -4.150965e+05
   1.479014e+06   4.717109e+05
   1.360640e+06   8.420380e+05
   1.935417e+05   6.753325e+05
  -9.286470e+05   3.975391e+05
  -1.010114e+06   2.051372e+05
  -2.935013e+05  -1.905847e+03
   1.763582e+05  -2.124532e+05
  -5.409676e+04  -2.566825e+05
  -3.580247e+05  -1.561994e+05
  -9.805577e+03  -1.358611e+05
   7.613239e+05  -1.824714e+05
   1.021143e+06   5.146823e+04
   2.769248e+05   6.632626e+05
  -9.352843e+05   1.089783e+06
  -1.618394e+06   6.604133e+05
  -1.265388e+06  -4.907643e+05
  -2.151363e+05  -1.408062e+06
   7.470936e+05  -1.319893e+06
   1.037741e+06  -4.532851e+05
   6.552757e+05   2.926418e+05
   8.632743e+04   3.514848e+05
  -1.494210e+05   2.601093e+03
   5.396392e+04  -8.241905e+04
   3.388546e+05   3.414254e+05
   2.724287e+05   8.040818e+05
  -2.038759e+05   6.473010e+05
  -6.855824e+05  -1.930025e+05
  -6.576488e+05  -1.007979e+06
   6.337396e+02  -1.003560e+06
   7.960972e+05  -1.433212e+05
   9.770906e+05   8.055290e+05
   2.700694e+05   1.072229e+06
  -7.240540e+05   5.919041e+05
  -1.057801e+06  -1.127252e+05
  -4.695214e+05  -5.485672e+05
   2.816816e+05  -5.854089e+05
   3.061687e+05  -3.436727e+05
  -3.214674e+05  -4.887375e+04
  -6.621002e+05   1.490959e+04
  -1.137566e+05  -2.889945e+05
   8.258378e+05  -6.694870e+05
   1.187553e+06  -5.797502e+05
   6.752147e+05   1.183805e+05
  -1.128947e+05   8.248341e+05
  -4.863001e+05   8.094435e+05
  -3.398433e+05   1.016270e+05
  -1.686109e+03  -5.036167e+05
   2.548094e+05  -3.823565e+05
   3.450185e+05   2.211339e+05
   2.305451e+05   5.758680e+05
  -7.331856e+04   3.552607e+05
  -3.800811e+05  -8.094715e+04
  -4.437756e+05  -2.335886e+05
  -2.401491e+05  -5.485664e+04
  -2.733233e+02   9.101075e+04
   8.768160e+04  -7.042352e+04
   9.480363e+04  -3.877614e+05
   1.915883e+05  -4.552921e+05
   3.540038e+05  -7.896237e+04
   3.468043e+05   4.592104e+05
   1.843740e+04   6.444401e+05
  -4.415597e+05   2.663503e+05
  -6.008282e+05  -3.304939e+05
  -2.028437e+05  -5.961652e+05
   4.851742e+05  -3.432568e+05
   8.258859e+05   1.182137e+05
   4.453252e+05   3.811586e+05
  -2.931247e+05   3.373389e+05
  -6.111966e+05   1.508770e+05
  -1.917260e+05   6.360880e+03
   4.158458e+05   2.528408e+02
   4.259705e+05   1.502749e+05
  -2.370330e+05   3.269330e+05
  -8.412655e+05   2.451007e+05
