
 $NMID
 id='ANONYMOUS ', fmtdat='(2E16.6)'
 volume=1.0
 tramp=1.0
 $END
  -1.337373e+07   5.231019e+05
  -9.498197e+06  -5.707217e+06
  -6.339464e+05  -8.538894e+06
   5.636909e+06  -6.258136e+06
   5.185271e+06  -1.015249e+06
   5.410165e+05   2.542834e+06
  -2.888883e+06   1.539669e+06
  -2.397109e+06  -2.177338e+06
   4.776108e+05  -4.067072e+06
   2.604065e+06  -1.938554e+06
   2.319295e+06   1.761621e+06
   3.237512e+05   2.967635e+06
  -1.356497e+06   5.930413e+05
  -1.133158e+06  -2.535449e+06
   7.584623e+05  -3.019736e+06
   2.366872e+06  -4.198575e+05
   1.876430e+06   2.667282e+06
  -4.669545e+05   3.491319e+06
  -2.548550e+06   1.707289e+06
  -2.622839e+06  -7.387597e+05
  -1.084050e+06  -1.827469e+06
   1.645495e+05  -1.357608e+06
  -1.224153e+05  -7.330034e+05
  -1.239172e+06  -1.137716e+06
  -1.359314e+06  -2.195027e+06
   4.367026e+05  -2.512491e+06
   2.960539e+06  -1.337916e+06
   3.868811e+06   5.924843e+05
   2.070381e+06   1.816728e+06
  -8.739753e+05   1.513023e+06
  -2.172086e+06   1.089323e+05
  -7.586284e+05  -1.160710e+06
   1.583834e+06  -1.189650e+06
   2.334607e+06   1.512214e+05
   1.020410e+06   1.764353e+06
  -6.303047e+05   2.135341e+06
  -9.965000e+05   8.395131e+05
  -2.378774e+05  -7.877717e+05
   4.071124e+05  -9.499408e+05
   2.256204e+05   5.125429e+05
  -4.959625e+05   1.789986e+06
  -1.090422e+06   1.212266e+06
  -1.046399e+06  -6.756583e+05
  -2.179379e+05  -1.706991e+06
   9.017690e+05  -6.756750e+05
   1.224712e+06   1.265523e+06
   4.109675e+04   1.992448e+06
  -1.875034e+06   7.552527e+05
  -2.666824e+06  -1.213602e+06
  -1.309960e+06  -2.167384e+06
   1.109149e+06  -1.496905e+06
   2.410251e+06  -2.176836e+03
   1.560644e+06   1.045396e+06
  -3.661267e+05   9.690466e+05
  -1.449626e+06   1.032994e+05
  -8.836287e+05  -6.059594e+05
   3.998091e+05  -4.816251e+05
   8.906511e+05   2.601765e+05
   1.220417e+05   7.640722e+05
  -8.964325e+05   4.473604e+05
  -8.456305e+05  -3.870792e+05
   3.717390e+05  -8.642855e+05
   1.429491e+06  -3.940491e+05
   1.008581e+06   7.781517e+05
  -7.168188e+05   1.742644e+06
  -2.246408e+06   1.621274e+06
  -2.356763e+06   2.954256e+05
  -1.262766e+06  -1.395199e+06
  -1.188931e+05  -2.300041e+06
   3.279505e+05  -2.000455e+06
   3.225992e+05  -1.159639e+06
   4.982470e+05  -6.776148e+05
   1.042086e+06  -6.109415e+05
   1.541615e+06  -2.440993e+05
   1.453340e+06   7.486420e+05
   6.161170e+05   1.619506e+06
  -5.579614e+05   1.343838e+06
  -1.291699e+06  -6.746687e+04
  -9.892156e+05  -1.416813e+06
   2.029611e+05  -1.536997e+06
   1.380628e+06  -4.323425e+05
   1.619302e+06   8.749241e+05
   8.366031e+05   1.437530e+06
  -1.591626e+05   1.168445e+06
  -5.654034e+05   6.636868e+05
  -4.510059e+05   4.685036e+05
  -5.732980e+05   5.677554e+05
  -1.325262e+06   4.898623e+05
  -2.069215e+06  -1.601846e+05
  -1.741163e+06  -1.234041e+06
  -1.257470e+05  -2.056052e+06
   1.678117e+06  -1.947327e+06
   2.245342e+06  -8.446200e+05
   1.251678e+06   5.363535e+05
  -2.214692e+05   1.219755e+06
  -8.234729e+05   8.047651e+05
  -2.466640e+05  -1.393850e+05
   6.505760e+05  -6.005754e+05
   8.799278e+05  -1.608018e+05
   3.040511e+05   5.467938e+05
  -3.790859e+05   5.733683e+05
  -4.318090e+05  -1.678285e+05
   2.236119e+05  -6.989595e+05
   9.657791e+05  -1.104531e+05
   1.010824e+06   1.265620e+06
   7.862715e+04   2.087643e+06
  -1.295399e+06   1.431671e+06
  -2.101859e+06  -2.221751e+05
  -1.688528e+06  -1.520889e+06
  -3.876566e+05  -1.599748e+06
   7.353507e+05  -7.813263e+05
   8.768862e+05  -3.779068e+04
   2.541026e+05   2.549560e+04
  -1.962866e+05  -3.779640e+05
   1.225796e+05  -6.074165e+05
   8.142924e+05  -2.998491e+05
   9.770829e+05   2.974879e+05
   2.868793e+05   6.158536e+05
  -5.612145e+05   3.522297e+05
  -5.886079e+05  -2.157990e+05
   3.468695e+05  -4.844119e+05
   1.307378e+06  -9.860707e+04
   1.224849e+06   6.947964e+05
   3.658899e+04   1.238099e+06
  -1.223108e+06   1.032781e+06
  -1.468065e+06   2.023799e+05
  -6.181060e+05  -5.733817e+05
   4.076030e+05  -6.574908e+05
   6.589681e+05  -7.732057e+04
   3.395359e+04   4.761634e+05
  -7.468431e+05   3.587216e+05
  -9.048998e+05  -3.261571e+05
  -3.124082e+05  -8.408314e+05
   4.563211e+05  -6.477553e+05
   6.992428e+05  -5.503783e+03
   2.555192e+05   3.559561e+05
  -3.324588e+05   6.587726e+04
  -3.526720e+05  -5.116089e+05
   3.212773e+05  -7.082377e+05
   1.039340e+06  -2.384587e+05
   1.023477e+06   5.560975e+05
   2.036842e+05   1.044011e+06
  -6.852670e+05   8.510470e+05
  -8.706657e+05   1.667761e+05
  -3.192728e+05  -4.222605e+05
   3.090286e+05  -4.571668e+05
   4.056923e+05  -3.220622e+04
   2.612917e+03   3.275049e+05
  -3.667849e+05   2.499817e+05
  -2.852116e+05  -7.732451e+04
   1.227410e+05  -1.591706e+05
   3.425417e+05   1.891855e+05
   1.304353e+04   5.892716e+05
  -6.669142e+05   5.016960e+05
  -1.075760e+06  -1.813662e+05
  -7.573377e+05  -9.880002e+05
   1.082102e+05  -1.285528e+06
   8.573224e+05  -8.406986e+05
   9.858052e+05  -1.477366e+04
   5.994618e+05   5.667148e+05
   2.041705e+05   5.756230e+05
   1.181095e+05   2.517514e+05
   1.805723e+05   9.734928e+04
   3.307017e+04   2.957077e+05
  -4.024229e+05   4.987816e+05
  -7.806658e+05   2.545943e+05
  -6.557553e+05  -4.005025e+05
   5.608302e+04  -8.860672e+05
   9.067876e+05  -6.553977e+05
   1.223852e+06   2.175839e+05
   6.750923e+05   1.066600e+06
  -3.996886e+05   1.232945e+06
  -1.236619e+06   6.348646e+05
  -1.291498e+06  -2.119520e+05
  -6.776478e+05  -6.965011e+05
   1.634614e+04  -6.463384e+05
   3.118178e+05  -3.989549e+05
   2.286733e+05  -3.662974e+05
   1.391089e+05  -5.582495e+05
   3.089305e+05  -5.852588e+05
   6.108571e+05  -1.429135e+05
   6.701560e+05   5.709622e+05
   2.781112e+05   9.937351e+05
  -3.391083e+05   7.505233e+05
  -6.849289e+05   2.646961e+04
  -4.642617e+05  -6.117473e+05
   1.068006e+05  -7.240691e+05
   5.033501e+05  -3.301709e+05
   4.201421e+05   1.912520e+05
   6.066238e+04   4.721150e+05
  -1.304762e+05   4.374072e+05
   1.344890e+04   2.804347e+05
   1.960423e+05   2.050540e+05
   1.268457e+04   2.112910e+05
  -5.464027e+05   1.338669e+05
  -1.003722e+06  -1.331263e+05
  -8.465946e+05  -4.846590e+05
  -7.909091e+04  -6.836170e+05
   7.161629e+05  -5.732572e+05
   9.192767e+05  -2.177621e+05
   4.766477e+05   1.357970e+05
  -8.314309e+04   2.424234e+05
  -2.361822e+05   7.021984e+04
   1.758138e+04  -1.434256e+05
   2.690730e+05  -1.094508e+05
   2.355351e+05   1.804230e+05
   3.967778e+04   3.974281e+05
  -3.517859e+04   2.512794e+05
   8.492224e+04  -1.105621e+05
   2.182512e+05  -2.263796e+05
   1.612202e+05   1.099776e+05
  -1.186839e+05   5.415377e+05
  -4.616823e+05   5.399849e+05
  -6.007020e+05   3.927429e+04
  -3.391047e+05  -4.738537e+05
   2.116471e+05  -5.103371e+05
   5.904577e+05  -9.238919e+04
   3.667242e+05   3.280696e+05
  -3.450439e+05   3.584841e+05
  -8.742989e+05  -1.831935e+03
  -6.482376e+05  -4.349436e+05
   1.696384e+05  -5.983974e+05
   8.179186e+05  -3.773160e+05
   7.331056e+05   3.768937e+04
   1.161531e+05   2.943791e+05
  -3.333950e+05   1.859777e+05
  -1.753666e+05  -1.243873e+05
   3.464565e+05  -2.281485e+05
   6.086768e+05   1.099840e+05
   2.674506e+05   6.513606e+05
  -4.080042e+05   8.537621e+05
  -8.263339e+05   3.977795e+05
  -6.531343e+05  -4.387435e+05
  -8.590396e+04  -9.691198e+05
   4.024641e+05  -7.305525e+05
   5.110234e+05   4.272019e+04
   2.841825e+05   6.310040e+05
  -4.878612e+04   5.619330e+05
  -2.791769e+05   7.657329e+04
  -2.997152e+05  -2.183547e+05
  -1.448092e+05  -9.704383e+04
  -5.043352e+03   7.078687e+04
  -6.610179e+04  -1.108653e+05
  -2.373723e+05  -4.960894e+05
  -1.685039e+05  -5.937939e+05
   3.009281e+05  -2.272124e+05
   7.954153e+05   2.563150e+05
   7.457952e+05   4.552627e+05
   1.051246e+05   3.585058e+05
  -5.137646e+05   2.079460e+05
  -5.481212e+05   1.135693e+05
  -1.449311e+05   8.940763e+03
   1.012165e+05  -1.113377e+05
  -4.561455e+04  -1.483264e+05
  -2.101232e+05  -9.639803e+04
   2.431064e+03  -7.304214e+04
   4.283260e+05  -8.630304e+04
   5.436012e+05   3.637295e+04
   1.175574e+05   3.502638e+05
  -5.222569e+05   5.667046e+05
  -8.541608e+05   3.341398e+05
  -6.499525e+05  -2.766109e+05
  -1.016181e+05  -7.569558e+05
   3.987297e+05  -6.971591e+05
   5.551447e+05  -2.254388e+05
   3.514734e+05   1.698640e+05
   3.677794e+04   1.872150e+05
  -9.572326e+04  -1.195141e+04
   2.388081e+04  -5.759760e+04
   1.896706e+05   1.786599e+05
   1.508534e+05   4.318906e+05
  -1.152198e+05   3.414218e+05
  -3.690453e+05  -1.192655e+05
  -3.352314e+05  -5.542123e+05
   2.588896e+04  -5.333768e+05
   4.367644e+05  -5.381535e+04
   5.113955e+05   4.521985e+05
   1.269902e+05   5.728062e+05
  -3.920096e+05   2.989129e+05
  -5.554233e+05  -6.992641e+04
  -2.389805e+05  -2.818083e+05
   1.504896e+05  -2.949132e+05
   1.496174e+05  -1.798888e+05
  -1.878290e+05  -3.580448e+04
  -3.581972e+05   1.703476e+03
  -5.375460e+04  -1.512784e+05
   4.451176e+05  -3.565012e+05
   6.245296e+05  -3.183020e+05
   3.447326e+05   5.204713e+04
  -6.550491e+04   4.338065e+05
  -2.487453e+05   4.246757e+05
  -1.643412e+05   4.164755e+04
   1.123885e+04  -2.755697e+05
   1.406687e+05  -1.936205e+05
   1.830779e+05   1.352197e+05
   1.178064e+05   3.095143e+05
  -4.414241e+04   1.753780e+05
  -2.017205e+05  -5.195934e+04
  -2.315837e+05  -1.163034e+05
  -1.286233e+05  -2.112525e+04
  -7.349820e+03   3.616344e+04
   4.885397e+04  -6.192813e+04
   7.468850e+04  -2.151423e+05
   1.338468e+05  -2.234529e+05
   1.973984e+05  -1.160505e+04
   1.611952e+05   2.642835e+05
  -2.115882e+04   3.451034e+05
  -2.448075e+05   1.316868e+05
  -3.082684e+05  -1.895642e+05
  -9.671807e+04  -3.254356e+05
   2.564859e+05  -1.787844e+05
   4.312248e+05   7.418921e+04
   2.313043e+05   2.064378e+05
  -1.579344e+05   1.671573e+05
  -3.226378e+05   6.314187e+04
  -9.026892e+04   4.732959e+02
   2.385972e+05   1.614014e+04
   2.324571e+05   1.007282e+05
  -1.433368e+05   1.828834e+05
  -4.741362e+05   1.238052e+05
