
 $NMID
 id='ANONYMOUS ', fmtdat='(2E16.6)'
 volume=1.0
 tramp=1.0
 $END
   2.361088e+07  -3.941517e+05
   1.597278e+07   1.084819e+07
   2.263461e+05   1.497330e+07
  -1.004481e+07   1.011843e+07
  -8.581112e+06   1.149252e+06
  -6.232379e+05  -4.255460e+06
   4.770046e+06  -2.248028e+06
   3.718799e+06   3.730138e+06
  -9.786214e+05   6.579820e+06
  -4.396127e+06   3.027981e+06
  -3.925120e+06  -3.009270e+06
  -5.878427e+05  -4.996841e+06
   2.294860e+06  -1.084410e+06
   1.938314e+06   4.122291e+06
  -1.290852e+06   4.924268e+06
  -3.989781e+06   5.475268e+05
  -3.072354e+06  -4.623027e+06
   9.529415e+05  -5.962967e+06
   4.498384e+06  -2.912674e+06
   4.655522e+06   1.302476e+06
   2.010688e+06   3.311237e+06
  -3.176762e+05   2.616750e+06
  -8.122203e+04   1.393436e+06
   1.801613e+06   1.746032e+06
   2.257413e+06   3.387863e+06
  -5.532558e+05   4.107957e+06
  -4.820723e+06   2.391271e+06
  -6.501353e+06  -8.001182e+05
  -3.599248e+06  -2.999013e+06
   1.306797e+06  -2.657264e+06
   3.555657e+06  -3.953926e+05
   1.385477e+06   1.757054e+06
  -2.363142e+06   1.974889e+06
  -3.707979e+06  -6.096286e+04
  -1.808207e+06  -2.734697e+06
   8.194328e+05  -3.556841e+06
   1.645581e+06  -1.556845e+06
   6.239898e+05   1.254019e+06
  -5.271677e+05   1.732082e+06
  -4.836766e+05  -6.664221e+05
   6.471004e+05  -2.915743e+06
   1.764936e+06  -2.007972e+06
   1.708231e+06   1.185137e+06
   1.651754e+05   2.863886e+06
  -1.750196e+06   9.696050e+05
  -2.073914e+06  -2.368359e+06
   1.246159e+05  -3.472979e+06
   3.293253e+06  -1.241650e+06
   4.440889e+06   2.075194e+06
   2.118540e+06   3.589803e+06
  -1.830295e+06   2.433194e+06
  -3.926649e+06  -2.088030e+04
  -2.518190e+06  -1.716395e+06
   6.571564e+05  -1.560224e+06
   2.424654e+06  -1.103049e+05
   1.440317e+06   1.042797e+06
  -6.940576e+05   7.929914e+05
  -1.447938e+06  -4.191463e+05
  -1.555900e+05  -1.159542e+06
   1.414099e+06  -5.891906e+05
   1.185492e+06   6.902399e+05
  -8.166341e+05   1.325425e+06
  -2.418094e+06   4.981744e+05
  -1.630921e+06  -1.396664e+06
   1.193170e+06  -2.983321e+06
   3.711780e+06  -2.818308e+06
   3.979044e+06  -5.893390e+05
   2.230318e+06   2.325743e+06
   2.726742e+05   3.878876e+06
  -5.590985e+05   3.305436e+06
  -5.253412e+05   1.826160e+06
  -7.080231e+05   1.065039e+06
  -1.566774e+06   1.078093e+06
  -2.470668e+06   5.570148e+05
  -2.442638e+06  -1.081800e+06
  -1.138399e+06  -2.574364e+06
   7.867373e+05  -2.210404e+06
   2.058030e+06   2.325286e+04
   1.662590e+06   2.231478e+06
  -2.541216e+05   2.522122e+06
  -2.266148e+06   7.981686e+05
  -2.770089e+06  -1.381032e+06
  -1.489424e+06  -2.424642e+06
   2.555700e+05  -2.044664e+06
   1.014413e+06  -1.163510e+06
   8.148259e+05  -7.624639e+05
   9.551409e+05  -9.032234e+05
   2.164320e+06  -8.022213e+05
   3.400769e+06   2.364999e+05
   2.885602e+06   1.990946e+06
   2.584990e+05   3.364310e+06
  -2.686952e+06   3.246584e+06
  -3.648010e+06   1.488070e+06
  -2.091821e+06  -8.028694e+05
   2.770614e+05  -2.009962e+06
   1.294754e+06  -1.378575e+06
   4.133435e+05   2.037385e+05
  -1.035819e+06   1.011226e+06
  -1.440584e+06   2.906147e+05
  -5.288745e+05  -8.965058e+05
   5.806479e+05  -9.501778e+05
   6.759151e+05   2.518811e+05
  -3.646745e+05   1.084655e+06
  -1.528346e+06   1.131692e+05
  -1.581690e+06  -2.065538e+06
  -1.070617e+05  -3.322318e+06
   2.065599e+06  -2.262715e+06
   3.373195e+06   3.357280e+05
   2.757370e+06   2.393052e+06
   6.806591e+05   2.566396e+06
  -1.165779e+06   1.305927e+06
  -1.429654e+06   1.057723e+05
  -4.172136e+05  -3.149125e+04
   3.283263e+05   6.113184e+05
  -1.983109e+05   9.982024e+05
  -1.339109e+06   5.032136e+05
  -1.600703e+06  -4.768216e+05
  -4.686220e+05  -9.992699e+05
   9.046210e+05  -5.763641e+05
   9.441654e+05   3.314987e+05
  -5.579515e+05   7.669699e+05
  -2.100027e+06   1.734712e+05
  -1.982915e+06  -1.084159e+06
  -8.804446e+04  -1.987143e+06
   1.954800e+06  -1.706028e+06
   2.385669e+06  -3.728828e+05
   1.025670e+06   9.249413e+05
  -6.577874e+05   1.096188e+06
  -1.090298e+06   1.429514e+05
  -7.302155e+04  -7.872466e+05
   1.213523e+06  -6.075948e+05
   1.480358e+06   5.126452e+05
   5.191773e+05   1.354963e+06
  -7.273865e+05   1.046342e+06
  -1.121965e+06   1.380132e+04
  -4.064071e+05  -5.670116e+05
   5.483521e+05  -1.011749e+05
   5.886255e+05   8.362372e+05
  -5.087059e+05   1.172443e+06
  -1.698101e+06   4.237461e+05
  -1.695402e+06  -8.802578e+05
  -3.627575e+05  -1.704147e+06
   1.099933e+06  -1.409355e+06
   1.415405e+06  -2.943693e+05
   5.254928e+05   6.748986e+05
  -4.898905e+05   7.456798e+05
  -6.476615e+05   7.033373e+04
  -9.318950e+03  -5.104194e+05
   5.715969e+05  -4.035515e+05
   4.405695e+05   1.028945e+05
  -2.033082e+05   2.321958e+05
  -5.504005e+05  -3.186554e+05
  -2.117574e+04  -9.638601e+05
   1.083206e+06  -8.345641e+05
   1.766020e+06   2.697628e+05
   1.269250e+06   1.597479e+06
  -1.345780e+05   2.103094e+06
  -1.365483e+06   1.390194e+06
  -1.593426e+06   5.335241e+04
  -9.874961e+05  -8.833771e+05
  -3.649823e+05  -9.009345e+05
  -2.291083e+05  -3.988488e+05
  -3.154900e+05  -1.737201e+05
  -5.985406e+04  -5.013606e+05
   6.505161e+05  -8.255837e+05
   1.266245e+06  -4.320614e+05
   1.076884e+06   6.282930e+05
  -6.698324e+04   1.434449e+06
  -1.459899e+06   1.089570e+06
  -2.002080e+06  -3.205040e+05
  -1.123537e+06  -1.723111e+06
   6.337927e+05  -2.020525e+06
   2.008420e+06  -1.057755e+06
   2.100915e+06   3.188696e+05
   1.105829e+06   1.105254e+06
  -8.644525e+03   1.030676e+06
  -4.741824e+05   6.518132e+05
  -3.384858e+05   6.224618e+05
  -2.054586e+05   9.399010e+05
  -4.972028e+05   9.763381e+05
  -1.004676e+06   2.522065e+05
  -1.118398e+06  -9.133971e+05
  -4.881661e+05  -1.616319e+06
   5.285832e+05  -1.238455e+06
   1.114699e+06  -6.137821e+04
   7.684166e+05   9.914738e+05
  -1.657000e+05   1.181591e+06
  -8.192700e+05   5.319338e+05
  -6.821047e+05  -3.246186e+05
  -9.017019e+04  -7.746988e+05
   2.193077e+05  -7.047824e+05
  -2.753966e+04  -4.447134e+05
  -3.353339e+05  -3.275534e+05
  -3.168964e+04  -3.464957e+05
   8.972701e+05  -2.300465e+05
   1.656321e+06   1.974800e+05
   1.396354e+06   7.748431e+05
   1.307953e+05   1.118150e+06
  -1.171996e+06   9.552209e+05
  -1.496305e+06   3.724451e+05
  -7.686462e+05  -2.215480e+05
   1.400023e+05  -4.039406e+05
   3.855560e+05  -1.128090e+05
  -2.331739e+04   2.502480e+05
  -4.325767e+05   1.964426e+05
  -3.950570e+05  -2.876383e+05
  -9.454687e+04  -6.533390e+05
   3.603387e+04  -4.183261e+05
  -1.297025e+05   1.764307e+05
  -3.354067e+05   3.713317e+05
  -2.652527e+05  -1.779899e+05
   1.691154e+05  -8.922061e+05
   7.432758e+05  -9.009078e+05
   1.004360e+06  -8.190475e+04
   5.862937e+05   7.742289e+05
  -3.375958e+05   8.551105e+05
  -9.805044e+05   1.786884e+05
  -6.163237e+05  -5.216879e+05
   5.545984e+05  -5.940758e+05
   1.421213e+06  -2.235594e+04
   1.056143e+06   6.842430e+05
  -2.645395e+05   9.672759e+05
  -1.312028e+06   6.277978e+05
  -1.183103e+06  -4.101689e+04
  -1.944350e+05  -4.706015e+05
   5.368169e+05  -3.070976e+05
   2.918775e+05   2.046293e+05
  -5.572905e+05   3.942080e+05
  -1.006383e+06  -1.508862e+05
  -4.746772e+05  -1.058522e+06
   6.264034e+05  -1.424496e+06
   1.336232e+06  -6.933884e+05
   1.088027e+06   6.894774e+05
   1.790784e+05   1.580157e+06
  -6.280380e+05   1.202144e+06
  -8.299812e+05  -5.918713e+04
  -4.767184e+05  -1.018221e+06
   6.874357e+04  -9.071043e+05
   4.548334e+05  -1.272069e+05
   4.899270e+05   3.403401e+05
   2.318734e+05   1.453990e+05
   7.252258e+03  -1.108309e+05
   1.213354e+05   1.930759e+05
   4.086723e+05   8.079012e+05
   2.863015e+05   9.554917e+05
  -4.953767e+05   3.723743e+05
  -1.307589e+06  -3.890114e+05
  -1.224859e+06  -7.115922e+05
  -1.821414e+05  -5.843905e+05
   8.239531e+05  -3.652393e+05
   8.867491e+05  -2.037024e+05
   2.416503e+05  -9.648399e+03
  -1.578514e+05   1.887004e+05
   7.255073e+04   2.293326e+05
   3.388803e+05   1.377321e+05
   3.040247e+03   1.220186e+05
  -6.879874e+05   1.684509e+05
  -8.944823e+05  -3.710671e+04
  -2.217155e+05  -5.807754e+05
   8.261883e+05  -9.605011e+05
   1.398676e+06  -5.833797e+05
   1.093370e+06   4.297231e+05
   2.009074e+05   1.236282e+06
  -6.325684e+05   1.158963e+06
  -9.059284e+05   3.976860e+05
  -5.837922e+05  -2.580267e+05
  -7.168560e+04  -3.085456e+05
   1.510432e+05   3.433641e+03
  -3.649217e+04   8.502076e+04
  -3.095333e+05  -2.862650e+05
  -2.577325e+05  -6.988418e+05
   1.750364e+05  -5.666121e+05
   6.104265e+05   1.725318e+05
   5.809038e+05   8.905887e+05
  -9.648439e+03   8.824383e+05
  -7.120053e+05   1.199957e+05
  -8.645174e+05  -7.122717e+05
  -2.375479e+05  -9.381424e+05
   6.334624e+05  -5.145146e+05
   9.202695e+05   9.307921e+04
   4.044134e+05   4.642838e+05
  -2.422269e+05   4.989082e+05
  -2.492319e+05   2.971856e+05
   3.011480e+05   4.123369e+04
   5.852641e+05  -1.981937e+04
   9.658897e+04   2.498827e+05
  -7.144868e+05   5.996902e+05
  -1.015237e+06   5.327877e+05
  -5.726583e+05  -8.560743e+04
   9.163858e+04  -7.176985e+05
   4.024027e+05  -7.047507e+05
   2.822905e+05  -7.665993e+04
   3.533463e+02   4.506842e+05
  -2.240838e+05   3.296588e+05
  -3.098446e+05  -2.046864e+05
  -2.068607e+05  -5.030120e+05
   6.752150e+04  -2.990685e+05
   3.350697e+05   7.326839e+04
   3.836784e+05   1.897048e+05
   2.085955e+05   3.540891e+04
   9.970584e+03  -6.947509e+04
  -6.954562e+04   8.801791e+04
  -9.755979e+04   3.563197e+05
  -1.973332e+05   3.917191e+05
  -3.261445e+05   4.738747e+04
  -2.932616e+05  -4.220052e+05
   3.281574e+03  -5.738824e+05
   3.937136e+05  -2.328926e+05
   5.226006e+05   2.955633e+05
   1.783330e+05   5.284410e+05
  -4.170187e+05   3.030969e+05
  -7.176449e+05  -1.032647e+05
  -3.901881e+05  -3.303772e+05
   2.558736e+05  -2.872787e+05
   5.332385e+05  -1.238381e+05
   1.562184e+05  -2.241356e+03
  -3.849283e+05  -3.817157e+03
  -3.862586e+05  -1.427158e+05
   2.155259e+05  -3.033465e+05
   7.579527e+05  -2.297010e+05
