
 $NMID
 id='ANONYMOUS ', fmtdat='(2E16.6)'
 volume=1.0
 tramp=1.0
 $END
   1.903180e+07   1.553979e+06
   1.194147e+07   9.058924e+06
  -4.495279e+05   1.149786e+07
  -8.162802e+06   8.010836e+06
  -6.911092e+06   1.285608e+06
  -6.141583e+05  -3.325221e+06
   3.865973e+06  -2.076983e+06
   3.193952e+06   2.955141e+06
  -6.937361e+05   5.615481e+06
  -3.626760e+06   2.584404e+06
  -3.169247e+06  -2.730013e+06
  -2.626364e+05  -4.345442e+06
   2.080768e+06  -7.318291e+05
   1.601821e+06   3.793459e+06
  -1.146711e+06   4.302581e+06
  -3.287538e+06   4.272680e+05
  -2.395324e+06  -3.919559e+06
   1.006751e+06  -4.876602e+06
   3.869835e+06  -2.101199e+06
   3.718736e+06   1.513516e+06
   1.200254e+06   2.955849e+06
  -7.169842e+05   1.931080e+06
  -6.142190e+04   7.389052e+05
   1.937934e+06   1.398823e+06
   2.208887e+06   3.254885e+06
  -6.651903e+05   3.852467e+06
  -4.579718e+06   1.933522e+06
  -5.820106e+06  -1.131844e+06
  -2.930737e+06  -2.922578e+06
   1.526937e+06  -2.306594e+06
   3.412243e+06  -9.385769e+04
   1.243361e+06   1.878159e+06
  -2.350144e+06   1.974311e+06
  -3.609306e+06  -1.063853e+05
  -1.660370e+06  -2.713368e+06
   9.818408e+05  -3.331464e+06
   1.651760e+06  -1.202828e+06
   3.723895e+05   1.406245e+06
  -8.171161e+05   1.536417e+06
  -5.344124e+05  -8.782686e+05
   7.237544e+05  -2.793715e+06
   1.630697e+06  -1.780614e+06
   1.406971e+06   9.878623e+05
   1.813054e+05   2.254826e+06
  -1.181655e+06   6.236175e+05
  -1.401320e+06  -1.977464e+06
   2.544750e+05  -2.696247e+06
   2.774077e+06  -7.986942e+05
   3.764106e+06   1.917299e+06
   1.819913e+06   3.149396e+06
  -1.614001e+06   2.129985e+06
  -3.466020e+06  -1.781526e+04
  -2.236954e+06  -1.477943e+06
   5.143319e+05  -1.297024e+06
   2.021124e+06  -5.035295e+04
   1.193649e+06   8.694987e+05
  -5.980796e+05   6.236042e+05
  -1.284414e+06  -3.764142e+05
  -2.659785e+05  -1.033738e+06
   1.121263e+06  -6.825353e+05
   1.122181e+06   3.327783e+05
  -4.693801e+05   9.893197e+05
  -1.913592e+06   4.531298e+05
  -1.311415e+06  -1.128877e+06
   1.214110e+06  -2.523124e+06
   3.482848e+06  -2.316398e+06
   3.570152e+06  -2.708266e+05
   1.784385e+06   2.240294e+06
   1.594611e+04   3.440587e+06
  -5.304808e+05   2.872837e+06
  -3.788855e+05   1.686256e+06
  -6.622109e+05   1.124649e+06
  -1.617303e+06   1.062538e+06
  -2.449635e+06   4.052783e+05
  -2.285924e+06  -1.189503e+06
  -9.624283e+05  -2.519849e+06
   8.456877e+05  -2.088014e+06
   1.973421e+06   5.828982e+04
   1.512199e+06   2.124751e+06
  -3.269391e+05   2.318423e+06
  -2.120263e+06   5.998098e+05
  -2.409019e+06  -1.433734e+06
  -1.123282e+06  -2.244390e+06
   3.966794e+05  -1.711057e+06
   9.228676e+05  -8.652104e+05
   6.601651e+05  -5.955689e+05
   8.151454e+05  -8.034726e+05
   1.944456e+06  -7.016307e+05
   3.052266e+06   2.772951e+05
   2.560263e+06   1.862816e+06
   1.558181e+05   3.061964e+06
  -2.543791e+06   2.891058e+06
  -3.405132e+06   1.236847e+06
  -1.898919e+06  -8.481226e+05
   3.565281e+05  -1.872185e+06
   1.275052e+06  -1.216695e+06
   3.745582e+05   2.215789e+05
  -9.935883e+05   8.924810e+05
  -1.309328e+06   2.102747e+05
  -4.239564e+05  -8.354855e+05
   5.733921e+05  -8.602719e+05
   6.410233e+05   2.247243e+05
  -2.783045e+05   1.006099e+06
  -1.330401e+06   1.898275e+05
  -1.454285e+06  -1.777416e+06
  -1.909405e+05  -3.006215e+06
   1.810731e+06  -2.124219e+06
   3.087152e+06   2.673901e+05
   2.550483e+06   2.220026e+06
   6.064997e+05   2.386552e+06
  -1.108780e+06   1.176548e+06
  -1.324166e+06   5.398953e+04
  -3.795743e+05  -3.909401e+04
   2.849012e+05   5.641450e+05
  -2.001247e+05   8.840846e+05
  -1.207547e+06   4.092104e+05
  -1.421259e+06  -4.571973e+05
  -4.040204e+05  -8.970309e+05
   8.296413e+05  -5.072139e+05
   8.731508e+05   3.134399e+05
  -4.949512e+05   7.150401e+05
  -1.928492e+06   1.668510e+05
  -1.836807e+06  -1.008364e+06
  -7.855837e+04  -1.837622e+06
   1.815304e+06  -1.541145e+06
   2.186311e+06  -2.943658e+05
   9.028148e+05   8.571542e+05
  -6.281289e+05   9.573558e+05
  -9.756899e+05   8.516206e+04
  -2.650983e+04  -7.135145e+05
   1.119439e+06  -5.164857e+05
   1.333426e+06   4.910489e+05
   4.606011e+05   1.234285e+06
  -6.594013e+05   9.491634e+05
  -1.016382e+06   1.531940e+04
  -3.716977e+05  -5.085006e+05
   4.886932e+05  -7.687684e+04
   5.099693e+05   7.770170e+05
  -5.004817e+05   1.057071e+06
  -1.565976e+06   3.386378e+05
  -1.522820e+06  -8.505789e+05
  -2.869134e+05  -1.559291e+06
   1.028809e+06  -1.253264e+06
   1.288924e+06  -2.405290e+05
   4.684610e+05   6.188621e+05
  -4.576898e+05   6.713090e+05
  -6.063663e+05   5.250837e+04
  -1.823578e+04  -4.850071e+05
   5.388974e+05  -3.886252e+05
   4.414316e+05   9.242889e+04
  -1.551301e+05   2.314124e+05
  -4.936752e+05  -2.704795e+05
  -1.443935e+04  -8.658423e+05
   9.976338e+05  -7.383190e+05
   1.602956e+06   2.837752e+05
   1.118292e+06   1.486594e+06
  -1.705581e+05   1.921303e+06
  -1.273690e+06   1.255187e+06
  -1.466264e+06   3.330696e+04
  -9.143745e+05  -8.321825e+05
  -3.394697e+05  -8.658045e+05
  -1.912310e+05  -4.035328e+05
  -2.550576e+05  -1.683385e+05
  -3.236457e+04  -4.439553e+05
   6.014274e+05  -7.395219e+05
   1.163809e+06  -3.825604e+05
   9.901617e+05   5.927271e+05
  -7.076230e+04   1.323277e+06
  -1.352635e+06   9.784721e+05
  -1.827572e+06  -3.299490e+05
  -9.966048e+05  -1.589581e+06
   6.073410e+05  -1.819822e+06
   1.837424e+06  -9.258839e+05
   1.910428e+06   3.146540e+05
   1.012458e+06   1.019995e+06
  -4.129950e+03   9.581794e+05
  -4.545617e+05   6.156489e+05
  -3.571142e+05   5.731547e+05
  -2.352608e+05   8.411789e+05
  -4.789133e+05   8.620956e+05
  -9.157242e+05   1.966508e+05
  -9.960584e+05  -8.652793e+05
  -4.054645e+05  -1.490721e+06
   5.153818e+05  -1.120231e+06
   1.020037e+06  -3.469004e+04
   6.797245e+05   9.116788e+05
  -1.645285e+05   1.066356e+06
  -7.342074e+05   4.763625e+05
  -5.998184e+05  -2.852955e+05
  -7.619369e+04  -6.846239e+05
   1.906777e+05  -6.303701e+05
  -2.931144e+04  -4.119617e+05
  -2.965715e+05  -3.143679e+05
  -1.914300e+04  -3.206971e+05
   8.145085e+05  -1.884827e+05
   1.493741e+06   2.194530e+05
   1.253097e+06   7.321636e+05
   1.027703e+05   1.006020e+06
  -1.077730e+06   8.313064e+05
  -1.363779e+06   3.127125e+05
  -6.928579e+05  -1.976695e+05
   1.337068e+05  -3.522762e+05
   3.453112e+05  -9.983542e+04
  -3.901738e+04   2.183504e+05
  -4.077010e+05   1.683118e+05
  -3.514746e+05  -2.736054e+05
  -5.764482e+04  -6.103281e+05
   5.674926e+04  -3.889775e+05
  -1.192204e+05   1.695035e+05
  -3.208598e+05   3.502527e+05
  -2.409047e+05  -1.653326e+05
   1.800634e+05  -8.200485e+05
   7.010883e+05  -8.029083e+05
   9.070211e+05  -3.290508e+04
   4.999886e+05   7.304632e+05
  -3.356465e+05   7.592845e+05
  -8.968612e+05   1.203435e+05
  -5.505449e+05  -4.975065e+05
   5.154180e+05  -5.308399e+05
   1.301948e+06   1.346880e+03
   9.676283e+05   6.364893e+05
  -2.433934e+05   8.835041e+05
  -1.208046e+06   5.666777e+05
  -1.089315e+06  -4.736390e+04
  -1.763652e+05  -4.347959e+05
   4.929731e+05  -2.746163e+05
   2.549573e+05   1.917462e+05
  -5.298979e+05   3.432065e+05
  -9.208354e+05  -1.745266e+05
  -3.973194e+05  -9.922784e+05
   6.270156e+05  -1.289574e+06
   1.252225e+06  -5.948678e+05
   9.807296e+05   6.637720e+05
   1.250871e+05   1.455361e+06
  -6.004007e+05   1.093821e+06
  -7.570535e+05  -6.308982e+04
  -4.218654e+05  -9.378851e+05
   6.839488e+04  -8.307404e+05
   4.133942e+05  -1.095694e+05
   4.511552e+05   3.213086e+05
   2.208870e+05   1.374255e+05
   3.870123e+03  -1.026485e+05
   8.838308e+04   1.795019e+05
   3.478955e+05   7.493392e+05
   2.529226e+05   8.786502e+05
  -4.472225e+05   3.249097e+05
  -1.190675e+06  -3.871178e+05
  -1.116823e+06  -6.756218e+05
  -1.532400e+05  -5.363816e+05
   7.744281e+05  -3.182433e+05
   8.192674e+05  -1.710551e+05
   2.099157e+05  -5.262684e+03
  -1.538629e+05   1.696562e+05
   7.603061e+04   2.121815e+05
   3.236409e+05   1.355255e+05
  -4.830889e+03   1.151984e+05
  -6.509944e+05   1.386686e+05
  -8.188757e+05  -6.160459e+04
  -1.679664e+05  -5.446941e+05
   7.979266e+05  -8.566330e+05
   1.292186e+06  -4.844052e+05
   9.778355e+05   4.371496e+05
   1.478861e+05   1.142579e+06
  -6.081673e+05   1.039445e+06
  -8.443690e+05   3.319009e+05
  -5.336836e+05  -2.580036e+05
  -5.200348e+04  -2.871576e+05
   1.532273e+05   9.333566e+03
  -2.725253e+04   8.378468e+04
  -2.803940e+05  -2.635587e+05
  -2.230788e+05  -6.446187e+05
   1.794006e+05  -5.131511e+05
   5.616262e+05   1.818053e+05
   5.050920e+05   8.438228e+05
  -4.716873e+04   8.137293e+05
  -6.691284e+05   8.239817e+04
  -7.744648e+05  -6.891361e+05
  -1.840259e+05  -8.692896e+05
   6.007068e+05  -4.462883e+05
   8.364509e+05   1.164766e+05
   3.471193e+05   4.312871e+05
  -2.398946e+05   4.391679e+05
  -2.276251e+05   2.582049e+05
   2.879437e+05   4.479283e+04
   5.406578e+05  -2.141136e+03
   7.690715e+04   2.312269e+05
  -6.700437e+05   5.319179e+05
  -9.309442e+05   4.648130e+05
  -5.070000e+05  -9.039050e+04
   1.064794e+05  -6.511958e+05
   3.801059e+05  -6.256404e+05
   2.534661e+05  -4.917104e+04
  -1.554410e+04   4.204788e+05
  -2.192966e+05   2.910014e+05
  -2.838598e+05  -2.056156e+05
  -1.745350e+05  -4.677545e+05
   7.717403e+04  -2.643894e+05
   3.068011e+05   8.093050e+04
   3.395119e+05   1.790173e+05
   1.870123e+05   3.186648e+04
   1.994525e+04  -5.801661e+04
  -5.801245e+04   9.503194e+04
  -1.099941e+05   3.372263e+05
  -2.168689e+05   3.522163e+05
  -3.155708e+05   1.915719e+04
  -2.496425e+05  -4.134213e+05
   3.591972e+04  -5.362645e+05
   3.748644e+05  -2.001521e+05
   4.674224e+05   2.953361e+05
   1.457403e+05   4.959387e+05
  -3.882694e+05   2.633670e+05
  -6.511960e+05  -1.219818e+05
  -3.456279e+05  -3.153691e+05
   2.462706e+05  -2.486122e+05
   4.940679e+05  -8.798717e+04
   1.360064e+05   7.847298e+03
  -3.680186e+05  -1.694619e+04
  -3.600852e+05  -1.508420e+05
   2.118564e+05  -2.833996e+05
   7.164447e+05  -1.964572e+05
