
 $NMID
 id='ANONYMOUS ', fmtdat='(2E16.6)'
 volume=1.0
 tramp=1.0
 $END
  -4.750090e+07  -2.857778e+05
  -2.820802e+07  -2.985996e+07
   6.745140e+06  -3.214813e+07
   2.339840e+07  -1.187607e+07
   1.366395e+07   6.298656e+06
  -2.993307e+06   7.794032e+06
  -8.187222e+06  -1.292078e+06
  -2.083451e+06  -8.241512e+06
   5.361409e+06  -7.602937e+06
   8.083432e+06  -1.466456e+06
   5.795890e+06   5.210101e+06
   6.539432e+05   7.138657e+06
  -3.327387e+06   2.313504e+06
  -2.156780e+06  -4.433198e+06
   3.193461e+06  -5.320394e+06
   6.559259e+06   1.242975e+06
   3.608109e+06   8.578382e+06
  -3.275903e+06   9.838827e+06
  -8.517727e+06   4.907702e+06
  -9.105224e+06  -1.734362e+06
  -5.624084e+06  -6.338781e+06
  -5.868212e+05  -7.393080e+06
   2.593727e+06  -5.174663e+06
   1.781897e+06  -2.174588e+06
  -8.146293e+05  -1.587735e+06
  -2.926111e+05  -3.336822e+06
   4.351661e+06  -3.683718e+06
   7.964470e+06  -5.071398e+05
   5.895097e+06   3.392946e+06
   3.205756e+05   4.250354e+06
  -2.992239e+06   2.246118e+06
  -2.088235e+06   1.552103e+05
   3.152737e+05  -6.947608e+05
   1.703747e+06  -4.734158e+05
   1.810046e+06   1.026105e+06
   6.945076e+05   3.180632e+06
  -1.461490e+06   3.264458e+06
  -2.806148e+06  -1.116801e+04
  -1.535987e+06  -3.075933e+06
   6.719908e+05  -1.743767e+06
   3.756141e+05   1.933938e+06
  -2.007810e+06   1.862237e+06
  -1.994825e+06  -2.705770e+06
   2.162662e+06  -5.121837e+06
   5.950158e+06  -7.665919e+05
   4.287141e+06   5.906429e+06
  -1.702659e+06   7.182246e+06
  -6.255619e+06   1.993858e+06
  -5.726331e+06  -3.742134e+06
  -1.440686e+06  -4.992041e+06
   2.895902e+06  -2.175917e+06
   4.285946e+06   1.334672e+06
   1.915918e+06   2.911896e+06
  -2.067394e+06   1.787806e+06
  -3.766907e+06  -8.300088e+05
  -1.582950e+06  -2.302520e+06
   1.454012e+06  -1.131326e+06
   1.407358e+06   8.648485e+05
  -1.163978e+06   6.992960e+05
  -2.034991e+06  -1.587270e+06
   6.558366e+05  -2.938007e+06
   3.989991e+06  -1.529532e+06
   4.435658e+06   1.244378e+06
   1.883774e+06   3.374735e+06
  -1.496520e+06   4.380284e+06
  -4.107327e+06   4.029027e+06
  -5.127479e+06   1.481508e+06
  -3.845399e+06  -2.599539e+06
  -8.015702e+05  -5.114275e+06
   1.589137e+06  -3.914757e+06
   1.492178e+06  -9.190734e+05
   7.180179e+04   2.954065e+05
  -1.529552e+05  -7.991355e+05
   1.225293e+06  -1.548944e+06
   2.300371e+06  -3.038186e+05
   1.714057e+06   1.500200e+06
   9.578721e+04   1.727733e+06
  -1.209816e+06   1.984200e+05
  -1.360394e+06  -1.645567e+06
  -3.097620e+04  -2.389827e+06
   2.260560e+06  -1.399168e+06
   3.722624e+06   9.416022e+05
   2.713561e+06   3.123630e+06
  -2.348111e+04   3.558737e+06
  -1.930741e+06   2.290537e+06
  -1.899689e+06   9.308753e+05
  -1.533096e+06   5.257081e+05
  -2.416308e+06   3.597870e+05
  -3.561726e+06  -6.497613e+05
  -2.846152e+06  -2.279158e+06
  -9.794174e+04  -3.374991e+06
   2.613893e+06  -3.191160e+06
   3.397837e+06  -1.764000e+06
   2.188393e+06   3.046964e+05
   2.727942e+05   1.821927e+06
  -8.689790e+05   1.607984e+06
  -4.683526e+05  -1.483716e+04
   8.792170e+05  -1.081635e+06
   1.573671e+06  -3.299484e+05
   7.747120e+05   9.978932e+05
  -4.096978e+05   9.129908e+05
  -3.227615e+05  -3.209576e+05
   9.110486e+05  -5.212919e+05
   1.506286e+06   1.154854e+06
   4.287651e+05   2.910246e+06
  -1.418471e+06   2.729724e+06
  -2.598439e+06   7.869274e+05
  -2.640449e+06  -1.248826e+06
  -1.786074e+06  -2.237870e+06
  -3.498183e+05  -2.096845e+06
   1.002280e+06  -1.193730e+06
   1.283351e+06  -1.970541e+05
   4.034246e+05   3.799036e+04
  -2.910068e+05  -6.182762e+05
   3.550625e+05  -1.110422e+06
   1.589785e+06  -4.698165e+05
   1.675258e+06   7.559952e+05
   2.988049e+05   1.179542e+06
  -9.688059e+05   4.577194e+05
  -7.085688e+05  -3.769296e+05
   7.087114e+05  -3.906099e+05
   1.755196e+06   3.057202e+05
   1.375550e+06   1.112396e+06
  -2.313951e+05   1.577925e+06
  -1.888094e+06   1.323400e+06
  -2.267954e+06   2.097227e+05
  -9.966819e+05  -1.053240e+06
   7.686401e+05  -1.249073e+06
   1.304280e+06  -1.547661e+05
   1.739518e+05   9.014514e+05
  -1.252270e+06   6.056837e+05
  -1.405148e+06  -6.578714e+05
  -2.496337e+05  -1.357942e+06
   9.158886e+05  -7.737052e+05
   1.021531e+06   2.876699e+05
   1.771728e+05   6.500660e+05
  -6.680031e+05   3.698376e+04
  -6.086495e+05  -8.717934e+05
   4.701568e+05  -1.174113e+06
   1.649061e+06  -4.510129e+05
   1.675288e+06   8.625959e+05
   3.107482e+05   1.709199e+06
  -1.196038e+06   1.345430e+06
  -1.421385e+06   1.579991e+05
  -3.993247e+05  -7.194463e+05
   5.483909e+05  -6.508472e+05
   5.068891e+05  -6.353845e+04
  -1.077492e+05   2.702982e+05
  -3.819658e+05   1.463966e+05
  -6.130150e+04  -4.352821e+04
   3.846548e+05   1.008356e+05
   4.079858e+05   5.798791e+05
  -1.937660e+05   9.765005e+05
  -1.144133e+06   7.246511e+05
  -1.707574e+06  -3.491891e+05
  -1.199436e+06  -1.600499e+06
   1.819362e+05  -1.980341e+06
   1.322701e+06  -1.136187e+06
   1.364589e+06   1.203284e+05
   6.738935e+05   7.166478e+05
   2.537620e+05   4.912131e+05
   4.158024e+05   1.564975e+05
   5.394492e+05   2.709563e+05
   7.492510e+04   6.450563e+05
  -7.291692e+05   7.304854e+05
  -1.181164e+06   2.479633e+05
  -8.383997e+05  -5.876809e+05
   2.200213e+05  -1.171195e+06
   1.409941e+06  -8.581488e+05
   1.831547e+06   4.056135e+05
   9.099777e+05   1.727828e+06
  -8.553733e+05   1.936775e+06
  -2.101903e+06   8.221871e+05
  -1.912408e+06  -5.688855e+05
  -7.473363e+05  -1.097752e+06
   1.863200e+05  -7.449877e+05
   2.979273e+05  -3.934795e+05
   2.985282e+04  -6.241512e+05
   7.148253e+04  -1.095402e+06
   5.597870e+05  -1.071492e+06
   1.073278e+06  -2.636158e+05
   1.100954e+06   8.857408e+05
   4.571471e+05   1.552762e+06
  -5.083205e+05   1.177717e+06
  -1.050998e+06  -8.467129e+03
  -6.559556e+05  -1.063901e+06
   3.407299e+05  -1.143814e+06
   9.724703e+05  -3.069264e+05
   6.628917e+05   6.061127e+05
  -1.274240e+05   8.975742e+05
  -4.695816e+05   6.333467e+05
  -8.108487e+04   3.279596e+05
   3.610574e+05   2.697110e+05
   5.265832e+04   3.119273e+05
  -9.518282e+05   1.657097e+05
  -1.704749e+06  -2.827441e+05
  -1.323692e+06  -8.624091e+05
   5.265410e+04  -1.188557e+06
   1.326754e+06  -9.372730e+05
   1.508574e+06  -2.107631e+05
   6.734914e+05   4.304960e+05
  -2.257298e+05   4.769005e+05
  -4.252535e+05   1.611266e+04
  -3.125312e+04  -3.611853e+05
   3.552447e+05  -2.173141e+05
   3.981236e+05   2.800553e+05
   2.282132e+05   5.888846e+05
   9.757237e+04   3.932344e+05
   1.090928e+05  -6.414167e+04
   2.121647e+05  -2.239565e+05
   2.216278e+05   1.924884e+05
  -1.052273e+05   8.026827e+05
  -7.384477e+05   8.780097e+05
  -1.141988e+06   1.558229e+05
  -7.236942e+05  -7.506674e+05
   3.412786e+05  -9.541578e+05
   1.047123e+06  -2.970219e+05
   6.062033e+05   4.624668e+05
  -5.808277e+05   5.266713e+05
  -1.291007e+06  -9.065964e+04
  -7.939294e+05  -7.113461e+05
   4.175447e+05  -7.898709e+05
   1.219588e+06  -3.601113e+05
   9.881617e+05   1.722656e+05
   9.823543e+04   4.148961e+05
  -5.342935e+05   2.089787e+05
  -3.222336e+05  -2.490652e+05
   4.684824e+05  -4.421849e+05
   9.745468e+05   4.515835e+04
   5.777524e+05   9.590397e+05
  -4.514588e+05   1.410832e+06
  -1.201994e+06   7.506849e+05
  -1.034878e+06  -6.065211e+05
  -1.765293e+05  -1.461945e+06
   6.011771e+05  -1.048505e+06
   7.520182e+05   1.588752e+05
   3.377881e+05   9.762078e+05
  -1.999951e+05   7.789484e+05
  -4.664863e+05   5.947620e+04
  -3.655038e+05  -3.025082e+05
  -1.152059e+05  -1.042532e+05
  -4.665224e+04   7.144650e+04
  -2.574140e+05  -2.570193e+05
  -4.307374e+05  -7.967093e+05
  -1.355622e+05  -8.762104e+05
   6.117331e+05  -3.188134e+05
   1.205464e+06   3.747591e+05
   1.027652e+06   6.791552e+05
   1.506298e+05   5.763813e+05
  -6.763180e+05   3.512412e+05
  -7.968400e+05   1.456862e+05
  -3.129646e+05  -5.634809e+04
   1.098251e+05  -1.886359e+05
   5.319194e+04  -1.531974e+05
  -1.909016e+05  -5.853134e+04
  -5.360626e+04  -1.080026e+05
   5.113578e+05  -2.116956e+05
   8.633622e+05  -7.296688e+03
   4.029899e+05   5.727936e+05
  -6.544516e+05   9.936487e+05
  -1.410297e+06   6.558936e+05
  -1.200454e+06  -3.272923e+05
  -2.510706e+05  -1.147631e+06
   6.258977e+05  -1.145981e+06
   8.589392e+05  -4.724851e+05
   5.373784e+05   1.671142e+05
   1.265066e+05   2.945330e+05
  -3.213801e+04   7.525592e+04
   7.483572e+04   6.904115e+03
   2.352481e+05   3.074221e+05
   1.983633e+05   6.607265e+05
  -1.343279e+05   5.669231e+05
  -5.562815e+05  -7.013533e+04
  -6.382488e+05  -7.534272e+05
  -1.419402e+05  -8.518650e+05
   5.986025e+05  -2.445903e+05
   8.714390e+05   5.511832e+05
   3.206136e+05   8.938360e+05
  -5.737242e+05   5.894363e+05
  -9.361784e+05  -3.904138e+04
  -4.609707e+05  -5.191780e+05
   2.313520e+05  -5.893483e+05
   3.334127e+05  -3.120869e+05
  -1.755217e+05   8.704483e+03
  -5.259010e+05   4.580363e+04
  -1.340331e+05  -2.574809e+05
   6.695465e+05  -5.639921e+05
   1.051337e+06  -4.359091e+05
   6.560110e+05   1.609956e+05
  -6.614468e+04   7.273401e+05
  -4.690539e+05   7.208986e+05
  -3.782765e+05   1.579924e+05
  -6.709414e+04  -3.818404e+05
   1.859971e+05  -3.775274e+05
   2.914095e+05   8.938311e+04
   2.212699e+05   4.701049e+05
  -3.154050e+04   3.768377e+05
  -3.238937e+05  -1.929552e+04
  -4.031231e+05  -2.432486e+05
  -1.998781e+05  -9.268938e+04
   4.269797e+04   1.449083e+05
   6.633498e+04   7.833594e+04
  -5.382798e+04  -2.751838e+05
  -1.905032e+04  -4.861360e+05
   2.446366e+05  -2.354129e+05
   4.209088e+05   2.742145e+05
   1.880431e+05   5.285818e+05
  -3.173733e+05   2.795809e+05
  -5.703067e+05  -2.017555e+05
  -2.328601e+05  -4.569831e+05
   4.200346e+05  -3.122080e+05
   7.442457e+05   3.623682e+04
   4.083748e+05   3.025531e+05
  -2.362677e+05   3.550112e+05
  -5.308571e+05   2.235129e+05
  -2.281351e+05   2.242716e+04
   2.535878e+05  -8.672069e+04
   3.257253e+05   1.294876e+04
  -1.065423e+05   2.246310e+05
  -5.643487e+05   2.393140e+05
