
 $NMID
 id='ANONYMOUS ', fmtdat='(2E16.6)'
 volume=1.0
 tramp=1.0
 $END
   4.103401e+07   1.200035e+06
   2.481707e+07   2.408895e+07
  -4.456524e+06   2.699823e+07
  -1.958985e+07   1.227053e+07
  -1.279259e+07  -3.160872e+06
   1.485417e+06  -6.912324e+06
   7.505443e+06  -4.579293e+05
   3.254472e+06   6.975793e+06
  -3.814705e+06   8.188090e+06
  -7.282915e+06   2.478089e+06
  -5.512951e+06  -4.931532e+06
  -5.196996e+05  -7.091941e+06
   3.337664e+06  -1.860647e+06
   2.264706e+06   5.095158e+06
  -2.741113e+06   5.935532e+06
  -6.099632e+06  -5.319853e+05
  -3.678369e+06  -7.745362e+06
   2.686469e+06  -9.085898e+06
   7.660938e+06  -4.300290e+06
   7.894616e+06   2.021829e+06
   4.194779e+06   5.720808e+06
  -6.355946e+04   5.736347e+06
  -1.615981e+06   3.676423e+06
   7.125148e+04   2.271578e+06
   1.790482e+06   3.033010e+06
  -2.978274e+05   4.411741e+06
  -5.523047e+06   3.387674e+06
  -8.470565e+06  -4.597725e+05
  -5.405431e+06  -3.917411e+06
   7.589594e+05  -4.006711e+06
   3.930127e+06  -1.389152e+06
   2.007291e+06   1.070604e+06
  -1.684131e+06   1.586526e+06
  -3.266740e+06   1.492431e+05
  -2.079769e+06  -2.332718e+06
   2.335301e+05  -3.987428e+06
   1.924276e+06  -2.729647e+06
   1.930345e+06   8.576275e+05
   4.360247e+05   2.813167e+06
  -7.059027e+05   5.302342e+05
   2.676748e+05  -2.891968e+06
   2.274225e+06  -2.221768e+06
   2.098612e+06   2.299447e+06
  -1.236639e+06   4.577314e+06
  -4.413850e+06   8.804078e+05
  -3.514029e+06  -4.864187e+06
   1.213951e+06  -6.105438e+06
   5.575380e+06  -1.707666e+06
   5.838401e+06   3.538019e+06
   1.973184e+06   5.057251e+06
  -2.818451e+06   2.640705e+06
  -4.793786e+06  -8.865071e+05
  -2.550084e+06  -2.751570e+06
   1.610906e+06  -1.911519e+06
   3.582072e+06   4.987939e+05
   1.713669e+06   1.975903e+06
  -1.271683e+06   1.082468e+06
  -1.659529e+06  -7.864479e+05
   5.749535e+05  -1.086894e+06
   1.980349e+06   5.708129e+05
   3.045813e+05   2.055580e+06
  -2.766269e+06   1.577718e+06
  -3.942407e+06  -5.008409e+05
  -1.971906e+06  -2.798248e+06
   1.699933e+06  -4.241470e+06
   4.707441e+06  -3.860923e+06
   5.360390e+06  -1.034579e+06
   3.439908e+06   2.998016e+06
   4.616390e+05   5.272626e+06
  -1.349021e+06   4.189192e+06
  -1.192946e+06   1.609484e+06
  -4.853962e+05   4.916377e+05
  -9.208116e+05   1.102748e+06
  -2.259587e+06   1.153784e+06
  -2.793872e+06  -5.817711e+05
  -1.600668e+06  -2.486394e+06
   4.982710e+05  -2.330415e+06
   1.958471e+06  -4.805920e+04
   1.732088e+06   2.350493e+06
  -2.196485e+05   2.895360e+06
  -2.704852e+06   1.200086e+06
  -3.755061e+06  -1.493323e+06
  -2.338289e+06  -3.317533e+06
   2.718884e+05  -3.243160e+06
   1.764392e+06  -1.941174e+06
   1.588421e+06  -9.407434e+05
   1.465406e+06  -8.110719e+05
   2.704234e+06  -6.246968e+05
   4.077173e+06   6.200783e+05
   3.305940e+06   2.596039e+06
   1.072179e+05   3.972676e+06
  -3.226833e+06   3.707956e+06
  -4.211529e+06   1.793489e+06
  -2.502320e+06  -7.391420e+05
   8.222300e+04  -2.266356e+06
   1.338678e+06  -1.718382e+06
   5.151525e+05   1.500023e+05
  -1.167285e+06   1.200284e+06
  -1.780782e+06   3.148075e+05
  -7.280181e+05  -1.134626e+06
   6.191812e+05  -1.083794e+06
   5.911971e+05   3.488264e+05
  -7.543607e+05   9.419090e+05
  -1.763424e+06  -6.172328e+05
  -1.139282e+06  -2.925538e+06
   8.124023e+05  -3.554193e+06
   2.767700e+06  -1.769334e+06
   3.535579e+06   9.932976e+05
   2.635770e+06   2.799488e+06
   5.462592e+05   2.776869e+06
  -1.321840e+06   1.441849e+06
  -1.608081e+06   1.322587e+05
  -4.825253e+05  -5.387622e+04
   3.463091e+05   7.335566e+05
  -3.548400e+05   1.228029e+06
  -1.731418e+06   5.256915e+05
  -1.905169e+06  -7.693056e+05
  -4.218915e+05  -1.288270e+06
   1.116945e+06  -5.829245e+05
   9.701511e+05   4.405823e+05
  -7.565903e+05   6.737525e+05
  -2.277081e+06  -1.206368e+05
  -1.963521e+06  -1.342556e+06
   1.278915e+05  -2.109383e+06
   2.311514e+06  -1.735971e+06
   2.752780e+06  -2.746627e+05
   1.159298e+06   1.192802e+06
  -8.747694e+05   1.352131e+06
  -1.407532e+06   1.350677e+05
  -1.141286e+05  -9.951143e+05
   1.470163e+06  -6.747694e+05
   1.682185e+06   7.300894e+05
   4.185842e+05   1.608254e+06
  -9.887509e+05   1.053903e+06
  -1.259725e+06  -1.845243e+05
  -3.318138e+05  -7.219675e+05
   7.138787e+05  -6.367384e+04
   6.768621e+05   1.023635e+06
  -6.151718e+05   1.366188e+06
  -1.986708e+06   4.608027e+05
  -1.957588e+06  -1.080797e+06
  -3.435634e+05  -2.020235e+06
   1.392513e+06  -1.586905e+06
   1.676762e+06  -2.254277e+05
   5.263795e+05   8.338109e+05
  -6.312926e+05   8.088245e+05
  -6.871292e+05   6.139752e+04
   6.470669e+04  -4.660133e+05
   5.753525e+05  -3.189128e+05
   3.069759e+05   9.392796e+04
  -3.397130e+05   7.853602e+04
  -5.531950e+05  -5.342659e+05
   1.252488e+05  -1.137845e+06
   1.333600e+06  -8.857757e+05
   2.036874e+06   4.170301e+05
   1.404655e+06   1.922089e+06
  -2.496224e+05   2.403340e+06
  -1.623519e+06   1.453572e+06
  -1.747695e+06  -7.956871e+04
  -9.644831e+05  -9.729474e+05
  -3.481653e+05  -8.435159e+05
  -3.655443e+05  -3.469958e+05
  -4.876786e+05  -2.733562e+05
  -5.950698e+04  -6.720210e+05
   8.339364e+05  -8.967710e+05
   1.453654e+06  -3.680444e+05
   1.116669e+06   7.466323e+05
  -2.038591e+05   1.537826e+06
  -1.721299e+06   1.109143e+06
  -2.251036e+06  -4.850541e+05
  -1.149490e+06  -2.063141e+06
   9.320026e+05  -2.307866e+06
   2.445714e+06  -1.048720e+06
   2.354073e+06   5.772686e+05
   1.068520e+06   1.325148e+06
  -1.353672e+05   1.051493e+06
  -4.761510e+05   6.132378e+05
  -2.478637e+05   7.298294e+05
  -2.014576e+05   1.189227e+06
  -6.536382e+05   1.185060e+06
  -1.229450e+06   2.695270e+05
  -1.278653e+06  -1.095888e+06
  -5.071746e+05  -1.883258e+06
   6.497306e+05  -1.408308e+06
   1.277924e+06   7.588533e+02
   8.092655e+05   1.229869e+06
  -3.291100e+05   1.361415e+06
  -1.061722e+06   4.722686e+05
  -7.760397e+05  -5.594864e+05
   4.176193e+04  -9.784062e+05
   4.177811e+05  -7.779457e+05
   3.942649e+04  -4.576492e+05
  -3.997803e+05  -3.650483e+05
  -3.849930e+04  -3.903214e+05
   1.092726e+06  -2.052478e+05
   1.968966e+06   3.339767e+05
   1.577329e+06   1.004144e+06
   1.514312e+04   1.355891e+06
  -1.496024e+06   1.073931e+06
  -1.777318e+06   3.008009e+05
  -8.408863e+05  -3.991135e+05
   2.268527e+05  -5.096500e+05
   4.774823e+05  -6.608852e+04
  -7.793101e+03   3.564342e+05
  -4.734163e+05   2.305577e+05
  -4.577753e+05  -3.473307e+05
  -1.656007e+05  -7.396393e+05
  -1.853679e+04  -4.804855e+05
  -1.445390e+05   1.418929e+05
  -3.354624e+05   3.476727e+05
  -2.821281e+05  -2.250785e+05
   1.905081e+05  -9.969589e+05
   9.009400e+05  -1.024418e+06
   1.262979e+06  -1.021204e+05
   7.420104e+05   9.204572e+05
  -4.291905e+05   1.050781e+06
  -1.199743e+06   2.428771e+05
  -7.046533e+05  -6.011774e+05
   6.852387e+05  -6.438591e+05
   1.599814e+06   7.908738e+04
   1.076037e+06   8.489950e+05
  -4.233979e+05   1.029051e+06
  -1.508239e+06   5.510319e+05
  -1.281196e+06  -1.546821e+05
  -1.618412e+05  -5.275234e+05
   6.385017e+05  -2.901920e+05
   3.529924e+05   2.755690e+05
  -6.208233e+05   4.747795e+05
  -1.164936e+06  -1.508420e+05
  -5.841087e+05  -1.208965e+06
   6.864072e+05  -1.653545e+06
   1.522828e+06  -8.081207e+05
   1.231450e+06   7.998948e+05
   1.611892e+05   1.801076e+06
  -7.600342e+05   1.311019e+06
  -9.301719e+05  -1.498138e+05
  -4.527270e+05  -1.188091e+06
   1.798781e+05  -9.922631e+05
   5.446405e+05  -9.749907e+04
   4.980126e+05   3.928847e+05
   2.047777e+05   1.533858e+05
   3.305262e+04  -1.076537e+05
   2.105447e+05   2.695588e+05
   4.677210e+05   9.588004e+05
   2.247883e+05   1.087286e+06
  -6.585008e+05   3.904418e+05
  -1.471111e+06  -4.900520e+05
  -1.311123e+06  -8.551303e+05
  -1.784336e+05  -6.888856e+05
   9.000651e+05  -3.990373e+05
   9.997774e+05  -1.812253e+05
   3.228617e+05   3.444447e+04
  -1.654121e+05   2.181422e+05
   1.015692e+04   2.275592e+05
   3.145168e+05   1.260572e+05
   2.794546e+04   1.371025e+05
  -7.188164e+05   2.039837e+05
  -1.035874e+06  -4.720871e+04
  -3.428229e+05  -6.905363e+05
   9.095387e+05  -1.126542e+06
   1.673789e+06  -6.818371e+05
   1.335113e+06   4.868689e+05
   2.264786e+05   1.414319e+06
  -7.781644e+05   1.337366e+06
  -1.055183e+06   4.815589e+05
  -6.554594e+05  -2.713098e+05
  -1.051331e+05  -3.590595e+05
   1.136975e+05  -3.718984e+04
  -6.491100e+04   4.728547e+04
  -3.137657e+05  -3.571246e+05
  -2.490539e+05  -8.088581e+05
   2.018167e+05  -6.626749e+05
   6.855660e+05   1.649806e+05
   6.901187e+05   9.928114e+05
   4.474441e+04   1.025213e+06
  -7.822982e+05   1.897554e+05
  -1.002438e+06  -7.776349e+05
  -2.964436e+05  -1.089660e+06
   7.310726e+05  -6.282160e+05
   1.090638e+06   1.096539e+05
   4.913852e+05   5.912820e+05
  -2.971976e+05   6.299461e+05
  -3.498928e+05   3.483823e+05
   2.849082e+05   2.793080e+04
   6.575475e+05  -2.016998e+04
   1.262362e+05   3.023632e+05
  -8.350191e+05   6.644353e+05
  -1.230507e+06   5.404041e+05
  -7.160444e+05  -1.627129e+05
   1.171064e+05  -8.480775e+05
   5.337188e+05  -8.244328e+05
   3.897029e+05  -1.240820e+05
   2.430797e+04   4.940968e+05
  -2.544471e+05   4.082703e+05
  -3.505742e+05  -1.868472e+05
  -2.360937e+05  -5.810942e+05
   7.091600e+04  -3.937754e+05
   3.872024e+05   6.696995e+04
   4.553022e+05   2.657550e+05
   2.384338e+05   7.988948e+04
  -1.351918e+04  -1.243362e+05
  -7.935181e+04   9.503103e+03
  -4.088273e+04   3.748698e+05
  -1.273768e+05   5.118140e+05
  -3.445859e+05   1.510320e+05
  -4.055350e+05  -4.274208e+05
  -8.444108e+04  -6.547673e+05
   4.299096e+05  -2.890467e+05
   6.342901e+05   3.140110e+05
   2.247006e+05   5.896690e+05
  -5.026691e+05   3.484768e+05
  -8.579064e+05  -1.081877e+05
  -4.595077e+05  -3.865958e+05
   3.011732e+05  -3.679396e+05
   6.327534e+05  -1.838406e+05
   2.242301e+05  -7.208973e+03
  -3.825078e+05   3.603538e+04
  -4.196053e+05  -1.074256e+05
   2.015920e+05  -3.091265e+05
   7.930970e+05  -2.556217e+05
