
 $NMID
 id='ANONYMOUS ', fmtdat='(2E16.6)'
 volume=1.0
 tramp=1.0
 $END
  -4.804338e+07   9.953654e+05
  -2.997785e+07  -2.829049e+07
   4.870805e+06  -3.244515e+07
   2.299726e+07  -1.397518e+07
   1.468113e+07   4.713924e+06
  -2.169696e+06   8.142117e+06
  -8.628879e+06  -1.968769e+05
  -3.184010e+06  -8.250822e+06
   4.784415e+06  -8.777648e+06
   8.335256e+06  -2.407236e+06
   6.307184e+06   5.302373e+06
   8.661302e+05   7.681623e+06
  -3.516645e+06   2.374397e+06
  -2.503995e+06  -5.083967e+06
   3.081315e+06  -6.204732e+06
   6.934977e+06   7.477390e+05
   4.252235e+06   8.745934e+06
  -2.897003e+06   1.039324e+07
  -8.597449e+06   5.305149e+06
  -9.272782e+06  -1.688455e+06
  -5.572646e+06  -6.303495e+06
  -6.016571e+05  -7.096006e+06
   2.070134e+06  -4.947187e+06
   8.978364e+05  -2.543164e+06
  -1.379239e+06  -2.491375e+06
  -6.723478e+04  -4.140765e+06
   5.196012e+06  -3.922017e+06
   8.833066e+06  -2.741195e+05
   6.214195e+06   3.741292e+06
  -7.139172e+04   4.419504e+06
  -3.622480e+06   2.039279e+06
  -2.161396e+06  -4.024247e+05
   1.073179e+06  -1.168682e+06
   2.632707e+06  -3.293424e+05
   2.077156e+06   1.748494e+06
   3.330643e+05   3.804422e+06
  -1.698400e+06   3.282864e+06
  -2.545828e+06  -3.273545e+05
  -1.198002e+06  -3.098151e+06
   6.376851e+05  -1.274778e+06
   9.032942e+04   2.555275e+06
  -2.270781e+06   2.256748e+06
  -2.318204e+06  -2.660055e+06
   1.673293e+06  -5.372018e+06
   5.623355e+06  -1.144649e+06
   4.471875e+06   5.684159e+06
  -1.315254e+06   7.292177e+06
  -6.345146e+06   2.237439e+06
  -6.388193e+06  -3.770679e+06
  -1.993522e+06  -5.418925e+06
   3.047714e+06  -2.694567e+06
   4.969323e+06   1.098202e+06
   2.505612e+06   3.037400e+06
  -1.949647e+06   2.086414e+06
  -4.024305e+06  -5.988386e+05
  -1.870008e+06  -2.279048e+06
   1.441721e+06  -1.253833e+06
   1.686905e+06   8.622606e+05
  -9.477997e+05   1.022310e+06
  -2.270071e+06  -1.121640e+06
   7.746360e+04  -2.783917e+06
   3.636441e+06  -1.861205e+06
   4.618670e+06   7.979236e+05
   2.218209e+06   3.298673e+06
  -1.582866e+06   4.710591e+06
  -4.627871e+06   4.380031e+06
  -5.609407e+06   1.523172e+06
  -4.018293e+06  -2.884764e+06
  -8.454563e+05  -5.582300e+06
   1.484124e+06  -4.444452e+06
   1.461070e+06  -1.416368e+06
   3.374857e+05  -7.537476e+04
   3.831488e+05  -9.725528e+05
   1.801211e+06  -1.465035e+06
   2.701248e+06   8.221045e+04
   1.801915e+06   2.080883e+06
  -1.780467e+05   2.157310e+06
  -1.688575e+06   1.421198e+05
  -1.689026e+06  -2.123702e+06
   4.375223e+04  -2.840732e+06
   2.627719e+06  -1.463712e+06
   4.054971e+06   1.191832e+06
   2.833569e+06   3.382675e+06
  -2.899983e+04   3.679906e+06
  -1.916934e+06   2.366856e+06
  -1.866210e+06   1.087012e+06
  -1.621090e+06   7.698323e+05
  -2.767807e+06   5.918500e+05
  -4.148978e+06  -5.982350e+05
  -3.381231e+06  -2.564323e+06
  -1.915618e+05  -3.965147e+06
   3.073082e+06  -3.782382e+06
   4.050965e+06  -1.998092e+06
   2.525100e+06   5.013975e+05
   1.483353e+05   2.181490e+06
  -1.140517e+06   1.806460e+06
  -5.263393e+05  -7.382639e+04
   1.073719e+06  -1.248807e+06
   1.801595e+06  -3.902626e+05
   8.403816e+05   1.125742e+06
  -5.316699e+05   1.081996e+06
  -4.986920e+05  -3.636060e+05
   9.067561e+05  -8.198740e+05
   1.825653e+06   9.337156e+05
   9.267695e+05   3.177627e+06
  -1.169507e+06   3.458531e+06
  -2.920818e+06   1.440189e+06
  -3.378165e+06  -1.174764e+06
  -2.424709e+06  -2.697855e+06
  -5.181834e+05  -2.623898e+06
   1.225635e+06  -1.440382e+06
   1.550667e+06  -2.060503e+05
   4.788190e+05   4.013421e+04
  -3.586101e+05  -7.230887e+05
   3.544809e+05  -1.275394e+06
   1.783520e+06  -5.821559e+05
   1.957957e+06   7.828260e+05
   4.205283e+05   1.330275e+06
  -1.117647e+06   5.853370e+05
  -9.131965e+05  -4.304533e+05
   7.926310e+05  -5.912027e+05
   2.191403e+06   2.017729e+05
   1.822131e+06   1.307227e+06
  -1.698491e+05   1.998512e+06
  -2.242386e+06   1.690172e+06
  -2.705993e+06   3.116739e+05
  -1.191745e+06  -1.189288e+06
   8.529767e+05  -1.426464e+06
   1.460927e+06  -1.941099e+05
   1.816115e+05   1.017211e+06
  -1.454051e+06   7.222333e+05
  -1.684338e+06  -7.179228e+05
  -3.906845e+05  -1.601045e+06
   1.017805e+06  -1.010172e+06
   1.244439e+06   2.357576e+05
   2.901070e+05   7.427455e+05
  -7.474459e+05   7.307285e+04
  -7.157680e+05  -1.007321e+06
   5.562844e+05  -1.380572e+06
   1.948721e+06  -5.310077e+05
   1.979803e+06   1.007656e+06
   3.942068e+05   2.005401e+06
  -1.366106e+06   1.612700e+06
  -1.670925e+06   2.401974e+05
  -5.166906e+05  -8.318805e+05
   6.235508e+05  -8.012021e+05
   6.410461e+05  -7.592563e+04
  -9.419781e+04   4.002051e+05
  -5.175728e+05   2.522886e+05
  -1.938461e+05  -8.220618e+04
   4.041802e+05   1.485771e+03
   5.380370e+05   5.977557e+05
  -1.503086e+05   1.151089e+06
  -1.322385e+06   8.969502e+05
  -2.029654e+06  -3.740674e+05
  -1.442937e+06  -1.872620e+06
   1.882509e+05  -2.368787e+06
   1.567720e+06  -1.425170e+06
   1.683755e+06   8.258246e+04
   8.932456e+05   9.014562e+05
   3.244173e+05   7.121723e+05
   4.208192e+05   2.537199e+05
   5.657198e+05   2.754983e+05
   9.226937e+04   7.097874e+05
  -8.287357e+05   8.965638e+05
  -1.419139e+06   3.567225e+05
  -1.065113e+06  -7.052383e+05
   2.088565e+05  -1.467749e+06
   1.673655e+06  -1.091580e+06
   2.212324e+06   4.412490e+05
   1.150731e+06   2.028320e+06
  -9.215014e+05   2.315327e+06
  -2.440148e+06   1.060312e+06
  -2.319726e+06  -5.793570e+05
  -1.002035e+06  -1.298144e+06
   1.649762e+05  -9.751163e+05
   4.128986e+05  -5.426570e+05
   1.310796e+05  -7.227504e+05
   1.148012e+05  -1.232140e+06
   6.264636e+05  -1.233529e+06
   1.236044e+06  -3.157340e+05
   1.304175e+06   1.042117e+06
   5.559782e+05   1.842252e+06
  -5.972710e+05   1.406011e+06
  -1.257517e+06   1.819198e+04
  -8.169563e+05  -1.225005e+06
   3.363327e+05  -1.363845e+06
   1.097438e+06  -4.456228e+05
   7.982567e+05   6.161613e+05
  -6.846924e+04   1.022171e+06
  -4.678617e+05   7.785923e+05
  -6.133161e+04   4.273313e+05
   4.156984e+05   3.322379e+05
   5.608205e+04   3.765547e+05
  -1.101080e+06   2.240603e+05
  -1.991238e+06  -2.906993e+05
  -1.587317e+06  -9.773895e+05
  -8.618914e+03  -1.379386e+06
   1.501854e+06  -1.121116e+06
   1.771645e+06  -3.112810e+05
   8.318658e+05   4.359016e+05
  -2.314699e+05   5.407422e+05
  -4.895593e+05   5.470372e+04
  -2.505294e+04  -3.860889e+05
   4.402438e+05  -2.484146e+05
   4.683286e+05   3.285141e+05
   2.265506e+05   7.067106e+05
   7.304164e+04   4.650206e+05
   1.380293e+05  -1.119913e+05
   2.924991e+05  -3.085413e+05
   2.763051e+05   2.211720e+05
  -1.416350e+05   9.705491e+05
  -8.633930e+05   1.043743e+06
  -1.292925e+06   1.714909e+05
  -8.097740e+05  -8.797610e+05
   3.896764e+05  -1.090941e+06
   1.202228e+06  -3.198649e+05
   7.166347e+05   5.585230e+05
  -6.721316e+05   6.454901e+05
  -1.563039e+06  -6.479465e+04
  -1.023788e+06  -8.295709e+05
   4.407692e+05  -9.934083e+05
   1.468687e+06  -5.157568e+05
   1.229589e+06   1.589207e+05
   1.478404e+05   5.078784e+05
  -6.300719e+05   2.811186e+05
  -3.718001e+05  -2.747863e+05
   5.744768e+05  -5.041663e+05
   1.151890e+06   8.161220e+04
   6.485634e+05   1.151394e+06
  -5.777201e+05   1.659027e+06
  -1.448351e+06   8.671629e+05
  -1.234396e+06  -7.338277e+05
  -2.146455e+05  -1.754442e+06
   7.124334e+05  -1.284914e+06
   9.130134e+05   1.513467e+05
   4.475329e+05   1.162381e+06
  -1.907824e+05   9.623121e+05
  -5.458676e+05   9.560388e+04
  -4.707376e+05  -3.690711e+05
  -1.727297e+05  -1.388171e+05
  -4.273768e+04   9.835940e+04
  -2.619033e+05  -2.748059e+05
  -5.039963e+05  -9.356460e+05
  -2.119503e+05  -1.058904e+06
   6.800792e+05  -4.000056e+05
   1.451307e+06   4.396117e+05
   1.274990e+06   8.073973e+05
   1.909888e+05   6.795363e+05
  -8.404244e+05   4.170794e+05
  -9.660502e+05   1.927203e+05
  -3.468876e+05  -4.015910e+04
   1.433156e+05  -2.208015e+05
   2.291053e+04  -2.091942e+05
  -2.702650e+05  -9.798996e+04
  -4.680311e+04  -1.293843e+05
   6.552360e+05  -2.324328e+05
   1.022683e+06   7.986322e+02
   4.180551e+05   6.666285e+05
  -8.165253e+05   1.155319e+06
  -1.645659e+06   7.570777e+05
  -1.374061e+06  -4.058329e+05
  -2.837701e+05  -1.373397e+06
   7.296268e+05  -1.354407e+06
   1.018375e+06  -5.351187e+05
   6.445093e+05   2.235957e+05
   1.323582e+05   3.478183e+05
  -7.339257e+04   5.912309e+04
   7.843460e+04  -2.360999e+04
   3.033640e+05   3.549250e+05
   2.557653e+05   7.889781e+05
  -1.670086e+05   6.654001e+05
  -6.681819e+05  -1.135502e+05
  -7.318384e+05  -9.232334e+05
  -1.223548e+05  -1.004582e+06
   7.342526e+05  -2.472363e+05
   1.019939e+06   6.934832e+05
   3.543789e+05   1.059307e+06
  -6.867199e+05   6.700082e+05
  -1.092898e+06  -5.632975e+04
  -5.284439e+05  -5.868027e+05
   2.681639e+05  -6.640158e+05
   3.614784e+05  -3.667929e+05
  -2.454003e+05  -8.893285e+03
  -6.358506e+05   4.711670e+04
  -1.472872e+05  -2.977788e+05
   7.982164e+05  -6.773235e+05
   1.223128e+06  -5.521463e+05
   7.469301e+05   1.571965e+05
  -8.054623e+04   8.507807e+05
  -5.235870e+05   8.469269e+05
  -4.092658e+05   1.648519e+05
  -5.751888e+04  -4.682693e+05
   2.266468e+05  -4.278931e+05
   3.451601e+05   1.410904e+05
   2.574429e+05   5.608394e+05
  -4.358262e+04   4.163223e+05
  -3.824485e+05  -3.832224e+04
  -4.706007e+05  -2.647800e+05
  -2.401148e+05  -8.907784e+04
   3.646442e+04   1.436105e+05
   8.491082e+04   3.744594e+04
  -1.321158e+04  -3.443513e+05
   4.162556e+04  -5.330619e+05
   3.061241e+05  -2.143216e+05
   4.499205e+05   3.631081e+05
   1.607891e+05   6.280532e+05
  -3.941436e+05   3.129251e+05
  -6.526734e+05  -2.619527e+05
  -2.566421e+05  -5.566006e+05
   4.898551e+05  -3.667898e+05
   8.635469e+05   5.827770e+04
   4.749556e+05   3.609462e+05
  -2.791848e+05   3.959372e+05
  -6.194712e+05   2.337202e+05
  -2.437092e+05   2.370537e+04
   3.370880e+05  -6.989215e+04
   3.981792e+05   5.715102e+04
  -1.616104e+05   2.866997e+05
  -7.239176e+05   2.756527e+05
