
 $NMID
 id='ANONYMOUS ', fmtdat='(2E16.6)'
 volume=1.0
 tramp=1.0
 $END
   5.255826e+07  -7.469090e+05
   3.253892e+07   3.140999e+07
  -5.745029e+06   3.556641e+07
  -2.539993e+07   1.489552e+07
  -1.597433e+07  -5.542690e+06
   2.563363e+06  -8.897193e+06
   9.433753e+06   4.612003e+05
   3.267044e+06   9.105492e+06
  -5.434212e+06   9.418627e+06
  -9.140741e+06   2.430209e+06
  -6.792667e+06  -5.828737e+06
  -8.604105e+05  -8.320358e+06
   3.821025e+06  -2.568846e+06
   2.624997e+06   5.469485e+06
  -3.460512e+06   6.628450e+06
  -7.550701e+06  -9.453008e+05
  -4.509423e+06  -9.587933e+06
   3.292271e+06  -1.129026e+07
   9.426592e+06  -5.713123e+06
   1.011573e+07   1.880660e+06
   6.100511e+06   6.908584e+06
   6.651127e+05   7.821850e+06
  -2.354822e+06   5.487550e+06
  -1.175354e+06   2.771440e+06
   1.340531e+06   2.597168e+06
   5.634800e+04   4.366532e+06
  -5.550101e+06   4.184042e+06
  -9.489247e+06   2.729361e+05
  -6.712234e+06  -4.059739e+06
   2.311632e+04  -4.779041e+06
   3.836456e+06  -2.223080e+06
   2.314185e+06   3.447049e+05
  -1.066510e+06   1.138806e+06
  -2.698764e+06   3.215947e+05
  -2.172202e+06  -1.799538e+06
  -3.842975e+05  -4.023029e+06
   1.820419e+06  -3.570245e+06
   2.812553e+06   2.860318e+05
   1.367790e+06   3.365467e+06
  -6.747982e+05   1.483678e+06
  -1.069963e+05  -2.661617e+06
   2.465224e+06  -2.375228e+06
   2.475708e+06   2.944357e+06
  -1.946421e+06   5.862321e+06
  -6.241196e+06   1.196110e+06
  -4.866100e+06  -6.280047e+06
   1.528685e+06  -7.983250e+06
   6.945960e+06  -2.388301e+06
   6.860112e+06   4.173766e+06
   2.042483e+06   5.889885e+06
  -3.345300e+06   2.837615e+06
  -5.324856e+06  -1.298418e+06
  -2.619056e+06  -3.343464e+06
   2.178782e+06  -2.232728e+06
   4.370612e+06   7.214260e+05
   1.990990e+06   2.520481e+06
  -1.590202e+06   1.348168e+06
  -1.792871e+06  -9.652744e+05
   1.100635e+06  -1.071824e+06
   2.469956e+06   1.333107e+06
  -1.861262e+05   3.113838e+06
  -4.069843e+06   1.993490e+06
  -5.048525e+06  -9.750389e+05
  -2.365377e+06  -3.649149e+06
   1.744530e+06  -5.084856e+06
   4.996480e+06  -4.686062e+06
   6.053127e+06  -1.618908e+06
   4.341654e+06   3.120705e+06
   8.777331e+05   6.025402e+06
  -1.685363e+06   4.769495e+06
  -1.639776e+06   1.456929e+06
  -3.444076e+05  -5.066940e+03
  -3.320460e+05   9.956850e+05
  -1.860127e+06   1.578126e+06
  -2.855536e+06  -4.842361e+04
  -1.913913e+06  -2.177431e+06
   1.756111e+05  -2.262395e+06
   1.755296e+06  -1.317282e+05
   1.752321e+06   2.259328e+06
  -6.810171e+04   3.019661e+06
  -2.813549e+06   1.561489e+06
  -4.356943e+06  -1.285515e+06
  -3.056137e+06  -3.665271e+06
   4.405829e+04  -4.003673e+06
   2.108538e+06  -2.573788e+06
   2.060124e+06  -1.159875e+06
   1.774731e+06  -7.887817e+05
   2.979456e+06  -5.772196e+05
   4.433212e+06   7.090233e+05
   3.577662e+06   2.793236e+06
   1.473667e+05   4.235517e+06
  -3.321834e+06   3.993955e+06
  -4.329588e+06   2.093626e+06
  -2.686701e+06  -5.381180e+05
  -1.584608e+05  -2.312193e+06
   1.213414e+06  -1.920074e+06
   5.612804e+05   7.455700e+04
  -1.151700e+06   1.321071e+06
  -1.933771e+06   3.980765e+05
  -8.973021e+05  -1.213787e+06
   5.721033e+05  -1.143781e+06
   5.098422e+05   4.024342e+05
  -1.014068e+06   8.408082e+05
  -1.951864e+06  -1.086546e+06
  -8.992283e+05  -3.461805e+06
   1.379519e+06  -3.663839e+06
   3.181633e+06  -1.428776e+06
   3.562415e+06   1.353189e+06
   2.499832e+06   2.912484e+06
   4.968785e+05   2.785021e+06
  -1.318005e+06   1.513556e+06
  -1.647945e+06   2.037183e+05
  -5.096892e+05  -4.926593e+04
   3.719014e+05   7.767866e+05
  -4.007559e+05   1.364566e+06
  -1.923978e+06   6.007890e+05
  -2.087175e+06  -8.732857e+05
  -4.256544e+05  -1.436540e+06
   1.204762e+06  -6.054809e+05
   9.572628e+05   4.759580e+05
  -8.657420e+05   6.030587e+05
  -2.323390e+06  -2.720674e+05
  -1.896028e+06  -1.426393e+06
   2.280568e+05  -2.112493e+06
   2.414591e+06  -1.754509e+06
   2.886770e+06  -2.890577e+05
   1.257020e+06   1.290830e+06
  -9.315836e+05   1.521141e+06
  -1.572467e+06   1.925429e+05
  -1.881876e+05  -1.092431e+06
   1.562399e+06  -7.532121e+05
   1.786214e+06   7.954128e+05
   3.828142e+05   1.716770e+06
  -1.112060e+06   1.053251e+06
  -1.323543e+06  -2.842727e+05
  -2.893139e+05  -8.036147e+05
   8.056722e+05  -6.712610e+04
   7.530374e+05   1.085061e+06
  -6.081854e+05   1.465797e+06
  -2.082609e+06   5.436027e+05
  -2.098669e+06  -1.098613e+06
  -3.933082e+05  -2.145406e+06
   1.483316e+06  -1.701720e+06
   1.787849e+06  -2.284842e+05
   5.348976e+05   8.980694e+05
  -6.795697e+05   8.429774e+05
  -6.775912e+05   7.092609e+04
   1.146814e+05  -4.146611e+05
   5.485108e+05  -2.467654e+05
   1.848703e+05   9.178501e+04
  -4.451120e+05  -2.191819e+04
  -5.624689e+05  -6.600406e+05
   1.857183e+05  -1.229660e+06
   1.426452e+06  -9.356937e+05
   2.158760e+06   4.289050e+05
   1.512859e+06   2.016621e+06
  -2.340294e+05   2.519020e+06
  -1.691164e+06   1.487165e+06
  -1.785445e+06  -1.210661e+05
  -9.229454e+05  -9.679720e+05
  -3.259844e+05  -7.433891e+05
  -4.525880e+05  -2.604282e+05
  -6.133889e+05  -3.030294e+05
  -9.244369e+04  -7.657564e+05
   9.005151e+05  -9.422589e+05
   1.516171e+06  -3.522818e+05
   1.114380e+06   7.663089e+05
  -2.523783e+05   1.551241e+06
  -1.799251e+06   1.131103e+06
  -2.346900e+06  -5.045901e+05
  -1.191586e+06  -2.181153e+06
   1.024391e+06  -2.457425e+06
   2.624486e+06  -1.090052e+06
   2.461088e+06   6.623736e+05
   1.033954e+06   1.401631e+06
  -2.012080e+05   1.025453e+06
  -4.411755e+05   5.577934e+05
  -1.322264e+05   7.655038e+05
  -1.283990e+05   1.319679e+06
  -6.855837e+05   1.314272e+06
  -1.326116e+06   3.232276e+05
  -1.377367e+06  -1.126569e+06
  -5.681197e+05  -1.969343e+06
   6.541842e+05  -1.489272e+06
   1.339427e+06   5.455867e+02
   8.515962e+05   1.322310e+06
  -3.853609e+05   1.451278e+06
  -1.187460e+06   4.520502e+05
  -8.468235e+05  -6.823886e+05
   9.551586e+04  -1.099138e+06
   5.229592e+05  -8.244820e+05
   7.802064e+04  -4.504054e+05
  -4.399949e+05  -3.561067e+05
  -5.586831e+04  -4.002647e+05
   1.181187e+06  -2.228528e+05
   2.124529e+06   3.383906e+05
   1.678822e+06   1.067809e+06
  -1.648651e+04   1.477965e+06
  -1.624506e+06   1.178843e+06
  -1.896792e+06   3.019566e+05
  -8.799105e+05  -4.876464e+05
   2.571588e+05  -5.790902e+05
   5.263586e+05  -4.774782e+04
   2.635638e+04   4.173487e+05
  -4.683358e+05   2.596547e+05
  -4.956496e+05  -3.557925e+05
  -2.392591e+05  -7.515136e+05
  -7.898671e+04  -4.938940e+05
  -1.490117e+05   1.115224e+05
  -3.112111e+05   3.161305e+05
  -2.899324e+05  -2.406201e+05
   1.607468e+05  -1.028041e+06
   9.338940e+05  -1.101701e+06
   1.387784e+06  -1.729520e+05
   8.601512e+05   9.453883e+05
  -4.279468e+05   1.164436e+06
  -1.288482e+06   3.337094e+05
  -7.563676e+05  -6.016388e+05
   7.272886e+05  -6.771687e+05
   1.661340e+06   9.605034e+04
   1.068484e+06   9.025307e+05
  -4.929277e+05   1.047026e+06
  -1.571874e+06   5.167713e+05
  -1.301254e+06  -1.941912e+05
  -1.456462e+05  -5.419804e+05
   6.768446e+05  -2.869645e+05
   3.955346e+05   2.996724e+05
  -6.136945e+05   5.322287e+05
  -1.224825e+06  -9.596826e+04
  -6.819865e+05  -1.229669e+06
   6.275704e+05  -1.759822e+06
   1.547932e+06  -9.086361e+05
   1.303999e+06   7.943417e+05
   2.057643e+05   1.868139e+06
  -7.764520e+05   1.353574e+06
  -9.694027e+05  -1.789915e+05
  -4.552840e+05  -1.245217e+06
   2.240023e+05  -1.019290e+06
   5.850633e+05  -9.189210e+04
   4.905898e+05   3.991661e+05
   1.758457e+05   1.495975e+05
   4.943405e+04  -1.028514e+05
   2.841489e+05   2.979580e+05
   5.272659e+05   1.003508e+06
   2.040751e+05   1.130142e+06
  -7.373668e+05   4.171456e+05
  -1.537357e+06  -4.874132e+05
  -1.339440e+06  -8.779373e+05
  -1.936520e+05  -7.273023e+05
   8.940737e+05  -4.319344e+05
   1.029010e+06  -1.894820e+05
   3.742614e+05   4.963951e+04
  -1.530676e+05   2.331617e+05
  -3.472161e+04   2.205393e+05
   2.782168e+05   1.056166e+05
   5.086596e+04   1.371749e+05
  -6.919227e+05   2.398802e+05
  -1.088816e+06  -1.142682e+04
  -4.473721e+05  -7.134647e+05
   8.757155e+05  -1.222029e+06
   1.764624e+06  -7.915506e+05
   1.465276e+06   4.429231e+05
   2.873915e+05   1.463321e+06
  -7.948134e+05   1.435254e+06
  -1.089511e+06   5.617810e+05
  -6.811854e+05  -2.422183e+05
  -1.396896e+05  -3.712113e+05
   7.164348e+04  -6.476483e+04
  -8.723810e+04   1.986104e+04
  -3.156473e+05  -3.844909e+05
  -2.595546e+05  -8.436494e+05
   1.841562e+05  -7.073383e+05
   7.072347e+05   1.246062e+05
   7.706828e+05   9.858867e+05
   1.258685e+05   1.069606e+06
  -7.786896e+05   2.598650e+05
  -1.077846e+06  -7.437079e+05
  -3.689116e+05  -1.131011e+06
   7.366630e+05  -7.095710e+05
   1.165403e+06   7.039291e+04
   5.603437e+05   6.346590e+05
  -2.924195e+05   7.097941e+05
  -3.944089e+05   3.888335e+05
   2.543480e+05   1.154420e+04
   6.754347e+05  -4.306136e+04
   1.555762e+05   3.193897e+05
  -8.579858e+05   7.103365e+05
  -1.314906e+06   5.694255e+05
  -8.003920e+05  -1.797437e+05
   9.487577e+04  -9.068565e+05
   5.722973e+05  -8.988987e+05
   4.426500e+05  -1.764715e+05
   5.824292e+04   4.957285e+05
  -2.443736e+05   4.557542e+05
  -3.639759e+05  -1.488785e+05
  -2.681088e+05  -5.995521e+05
   4.863897e+04  -4.472718e+05
   4.062352e+05   4.285550e+04
   5.005808e+05   2.908355e+05
   2.553854e+05   1.011373e+05
  -4.095960e+04  -1.569580e+05
  -9.219968e+04  -4.986821e+04
   1.682368e+04   3.611944e+05
  -3.817958e+04   5.702985e+05
  -3.223617e+05   2.337873e+05
  -4.803449e+05  -3.833359e+05
  -1.733955e+05  -6.670365e+05
   4.196475e+05  -3.304712e+05
   6.943749e+05   2.818372e+05
   2.689205e+05   5.924299e+05
  -5.271374e+05   3.858403e+05
  -9.210871e+05  -6.883254e+04
  -5.028864e+05  -3.891787e+05
   3.007540e+05  -4.223286e+05
   6.622952e+05  -2.470184e+05
   2.638425e+05  -2.433748e+04
  -3.523000e+05   7.347887e+04
  -4.191492e+05  -5.977988e+04
   1.712047e+05  -2.982499e+05
   7.652971e+05  -2.831211e+05
