
 $NMID
 id='ANONYMOUS ', fmtdat='(2E16.6)'
 volume=1.0
 tramp=1.0
 $END
   4.717772e+07  -3.618800e+05
   2.882592e+07   2.848692e+07
  -5.537794e+06   3.182660e+07
  -2.280892e+07   1.300254e+07
  -1.409119e+07  -5.182889e+06
   2.420549e+06  -7.880932e+06
   8.330314e+06   5.670537e+05
   2.752692e+06   8.111584e+06
  -4.903600e+06   8.241835e+06
  -8.120911e+06   2.046217e+06
  -6.037736e+06  -5.209822e+06
  -7.724486e+05  -7.399326e+06
   3.412410e+06  -2.314154e+06
   2.352946e+06   4.804971e+06
  -3.077240e+06   5.819681e+06
  -6.703083e+06  -9.155412e+05
  -3.955470e+06  -8.575541e+06
   3.009505e+06  -1.005547e+07
   8.470609e+06  -5.073583e+06
   9.087736e+06   1.716787e+06
   5.484850e+06   6.256669e+06
   5.484064e+05   7.096042e+06
  -2.235106e+06   4.927924e+06
  -1.164358e+06   2.365346e+06
   1.195983e+06   2.165214e+06
   1.393016e+05   3.837050e+06
  -4.869740e+06   3.790577e+06
  -8.442811e+06   3.271074e+05
  -6.018702e+06  -3.596032e+06
  -3.999928e+04  -4.311242e+06
   3.384157e+06  -2.075664e+06
   2.119783e+06   2.276838e+05
  -8.109185e+05   1.018454e+06
  -2.309434e+06   3.848141e+05
  -1.980286e+06  -1.498436e+06
  -4.467224e+05  -3.569053e+06
   1.613808e+06  -3.234166e+06
   2.601734e+06   2.393604e+05
   1.275436e+06   3.062191e+06
  -6.590532e+05   1.400889e+06
  -1.846256e+05  -2.332705e+06
   2.156787e+06  -2.098771e+06
   2.170900e+06   2.637826e+06
  -1.823065e+06   5.195164e+06
  -5.642975e+06   9.723169e+05
  -4.316256e+06  -5.691952e+06
   1.453482e+06  -7.138603e+06
   6.233780e+06  -2.100486e+06
   6.073176e+06   3.722493e+06
   1.777818e+06   5.203490e+06
  -2.954254e+06   2.483426e+06
  -4.672267e+06  -1.160762e+06
  -2.276386e+06  -2.948469e+06
   1.956950e+06  -1.949220e+06
   3.875553e+06   6.735360e+05
   1.743260e+06   2.252041e+06
  -1.425664e+06   1.189138e+06
  -1.570823e+06  -8.493384e+05
   9.965451e+05  -8.936254e+05
   2.143951e+06   1.255992e+06
  -2.768835e+05   2.774179e+06
  -3.696939e+06   1.702007e+06
  -4.481158e+06  -9.440096e+05
  -2.064884e+06  -3.278518e+06
   1.547479e+06  -4.538973e+06
   4.412753e+06  -4.204611e+06
   5.388235e+06  -1.477015e+06
   3.904340e+06   2.769788e+06
   8.084410e+05   5.361273e+06
  -1.500840e+06   4.207431e+06
  -1.442368e+06   1.234936e+06
  -2.400893e+05  -3.375361e+04
  -2.108940e+05   9.185497e+05
  -1.605437e+06   1.477524e+06
  -2.547727e+06   3.793462e+04
  -1.755370e+06  -1.874447e+06
   8.645633e+04  -1.997660e+06
   1.514894e+06  -1.635085e+05
   1.564868e+06   1.940974e+06
  -1.949419e+04   2.660302e+06
  -2.479998e+06   1.421349e+06
  -3.896257e+06  -1.105764e+06
  -2.749417e+06  -3.264687e+06
   4.014526e+04  -3.592231e+06
   1.904584e+06  -2.302191e+06
   1.852999e+06  -1.014072e+06
   1.568683e+06  -6.773033e+05
   2.615920e+06  -5.067723e+05
   3.903448e+06   6.102695e+05
   3.162604e+06   2.440755e+06
   1.569386e+05   3.723056e+06
  -2.888189e+06   3.542492e+06
  -3.792446e+06   1.896494e+06
  -2.386894e+06  -4.341759e+05
  -1.854744e+05  -2.041738e+06
   1.040753e+06  -1.721474e+06
   5.008656e+05   5.404763e+04
  -9.982477e+05   1.178282e+06
  -1.703413e+06   3.638313e+05
  -8.060443e+05  -1.070804e+06
   4.844592e+05  -1.013603e+06
   4.338818e+05   3.421260e+05
  -8.911857e+05   7.081992e+05
  -1.687891e+06  -9.918487e+05
  -7.487039e+05  -3.040182e+06
   1.227518e+06  -3.167959e+06
   2.767300e+06  -1.209377e+06
   3.092189e+06   1.176727e+06
   2.191081e+06   2.508728e+06
   4.606795e+05   2.419477e+06
  -1.138329e+06   1.343996e+06
  -1.445809e+06   2.013842e+05
  -4.485055e+05  -3.860678e+04
   3.313305e+05   6.796032e+05
  -3.515021e+05   1.203218e+06
  -1.696757e+06   5.350105e+05
  -1.837519e+06  -7.644152e+05
  -3.736635e+05  -1.261261e+06
   1.053534e+06  -5.342214e+05
   8.336861e+05   4.065113e+05
  -7.537919e+05   5.172249e+05
  -2.019998e+06  -2.313402e+05
  -1.654944e+06  -1.224458e+06
   1.850690e+05  -1.835587e+06
   2.097525e+06  -1.550343e+06
   2.528998e+06  -2.751079e+05
   1.112067e+06   1.129396e+06
  -8.158283e+05   1.348755e+06
  -1.390473e+06   1.768341e+05
  -1.748678e+05  -9.664950e+05
   1.370065e+06  -6.737037e+05
   1.570693e+06   6.889993e+05
   3.399915e+05   1.499264e+06
  -9.689069e+05   9.188814e+05
  -1.153060e+06  -2.483696e+05
  -2.486554e+05  -7.001682e+05
   7.112307e+05  -5.761727e+04
   6.699273e+05   9.521876e+05
  -5.236663e+05   1.296142e+06
  -1.828490e+06   4.968409e+05
  -1.855873e+06  -9.494694e+05
  -3.611587e+05  -1.883932e+06
   1.293523e+06  -1.504494e+06
   1.567497e+06  -2.107010e+05
   4.715912e+05   7.828694e+05
  -5.901997e+05   7.409021e+05
  -5.886850e+05   7.172789e+04
   9.649464e+04  -3.518878e+05
   4.660726e+05  -2.155716e+05
   1.492437e+05   6.660955e+04
  -3.907755e+05  -3.461711e+04
  -4.877110e+05  -5.838599e+05
   1.630849e+05  -1.079171e+06
   1.248384e+06  -8.291634e+05
   1.899725e+06   3.622241e+05
   1.345275e+06   1.761769e+06
  -1.837585e+05   2.213399e+06
  -1.467163e+06   1.314111e+06
  -1.558455e+06  -9.188204e+04
  -8.133678e+05  -8.280364e+05
  -3.016539e+05  -6.316260e+05
  -4.160916e+05  -2.215854e+05
  -5.491778e+05  -2.732304e+05
  -8.402004e+04  -6.808849e+05
   7.863285e+05  -8.316330e+05
   1.324556e+06  -3.175145e+05
   9.798757e+05   6.578553e+05
  -2.083706e+05   1.353543e+06
  -1.567168e+06   1.002633e+06
  -2.061429e+06  -4.242091e+05
  -1.057430e+06  -1.904871e+06
   8.892194e+05  -2.161524e+06
   2.298682e+06  -9.680747e+05
   2.156621e+06   5.678146e+05
   9.070110e+05   1.214206e+06
  -1.674889e+05   8.871546e+05
  -3.687858e+05   4.894664e+05
  -9.748717e+04   6.846779e+05
  -1.014401e+05   1.173570e+06
  -5.983957e+05   1.164772e+06
  -1.168175e+06   2.936579e+05
  -1.221913e+06  -9.791482e+05
  -5.166623e+05  -1.725727e+06
   5.612480e+05  -1.314459e+06
   1.174303e+06  -9.171008e+03
   7.533124e+05   1.157049e+06
  -3.338344e+05   1.273899e+06
  -1.041368e+06   3.932658e+05
  -7.415872e+05  -6.054421e+05
   8.833941e+04  -9.670580e+05
   4.623183e+05  -7.192460e+05
   6.588135e+04  -3.887573e+05
  -3.936306e+05  -3.085432e+05
  -5.456021e+04  -3.516014e+05
   1.039051e+06  -2.014923e+05
   1.873473e+06   2.862332e+05
   1.481130e+06   9.284480e+05
  -1.300232e+04   1.298739e+06
  -1.427189e+06   1.045325e+06
  -1.663057e+06   2.739253e+05
  -7.679197e+05  -4.281485e+05
   2.277768e+05  -5.125298e+05
   4.619165e+05  -4.096847e+04
   2.571386e+04   3.741367e+05
  -4.076116e+05   2.363382e+05
  -4.400696e+05  -3.088948e+05
  -2.249189e+05  -6.615268e+05
  -8.021896e+04  -4.374836e+05
  -1.260578e+05   9.548548e+04
  -2.619738e+05   2.784006e+05
  -2.552376e+05  -2.095081e+05
   1.279672e+05  -9.055494e+05
   8.133126e+05  -9.769919e+05
   1.229539e+06  -1.618733e+05
   7.718360e+05   8.293521e+05
  -3.709939e+05   1.033214e+06
  -1.138908e+06   3.073618e+05
  -6.726430e+05  -5.208363e+05
   6.339358e+05  -5.987224e+05
   1.454863e+06   7.158446e+04
   9.364367e+05   7.790190e+05
  -4.264705e+05   9.138587e+05
  -1.367741e+06   4.594439e+05
  -1.135076e+06  -1.599536e+05
  -1.302881e+05  -4.706583e+05
   5.904273e+05  -2.539033e+05
   3.504132e+05   2.636644e+05
  -5.340299e+05   4.784453e+05
  -1.081433e+06  -6.919541e+04
  -6.181591e+05  -1.076479e+06
   5.303583e+05  -1.560023e+06
   1.351872e+06  -8.197651e+05
   1.155390e+06   6.835468e+05
   2.002720e+05   1.638467e+06
  -6.667049e+05   1.192732e+06
  -8.486945e+05  -1.516244e+05
  -4.063265e+05  -1.086791e+06
   1.907972e+05  -8.896592e+05
   5.129621e+05  -8.214648e+04
   4.310265e+05   3.420493e+05
   1.521841e+05   1.247881e+05
   4.304635e+04  -8.796354e+04
   2.564487e+05   2.673437e+05
   4.737605e+05   8.796877e+05
   1.848966e+05   9.851925e+05
  -6.493072e+05   3.672148e+05
  -1.353940e+06  -4.127956e+05
  -1.179321e+06  -7.545267e+05
  -1.753823e+05  -6.377317e+05
   7.770741e+05  -3.919660e+05
   8.989944e+05  -1.756315e+05
   3.310588e+05   4.588151e+04
  -1.306990e+05   2.081288e+05
  -3.167215e+04   1.871756e+05
   2.419963e+05   8.268601e+04
   4.840806e+04   1.215620e+05
  -6.012824e+05   2.244471e+05
  -9.591186e+05   1.588094e+03
  -4.079252e+05  -6.303103e+05
   7.549164e+05  -1.090374e+06
   1.550595e+06  -7.142596e+05
   1.302193e+06   3.772058e+05
   2.700921e+05   1.284307e+06
  -6.878049e+05   1.270257e+06
  -9.555734e+05   5.083269e+05
  -6.028320e+05  -2.025165e+05
  -1.287384e+05  -3.270596e+05
   6.001212e+04  -6.487549e+04
  -7.539409e+04   1.294378e+04
  -2.771438e+05  -3.346632e+05
  -2.339215e+05  -7.373237e+05
   1.547695e+05  -6.256446e+05
   6.247446e+05   9.791112e+04
   6.935832e+05   8.578870e+05
   1.271503e+05   9.445121e+05
  -6.827369e+05   2.443218e+05
  -9.608767e+05  -6.394004e+05
  -3.391995e+05  -9.939184e+05
   6.429176e+05  -6.361862e+05
   1.029505e+06   5.076143e+04
   4.992956e+05   5.587854e+05
  -2.544111e+05   6.318252e+05
  -3.484651e+05   3.434277e+05
   2.203005e+05   1.708250e+03
   5.928783e+05  -4.647240e+04
   1.410429e+05   2.816345e+05
  -7.467598e+05   6.324859e+05
  -1.151877e+06   5.067613e+05
  -7.075937e+05  -1.577980e+05
   7.536400e+04  -8.007040e+05
   5.001893e+05  -7.949013e+05
   3.953301e+05  -1.594761e+05
   6.052264e+04   4.353280e+05
  -2.114516e+05   4.067750e+05
  -3.247760e+05  -1.225096e+05
  -2.427168e+05  -5.249289e+05
   4.016965e+04  -3.989210e+05
   3.593862e+05   3.171258e+04
   4.423326e+05   2.550466e+05
   2.235224e+05   8.920587e+04
  -3.716303e+04  -1.429293e+05
  -7.603953e+04  -5.035193e+04
   2.702273e+04   3.193517e+05
  -2.257562e+04   5.137840e+05
  -2.845606e+05   2.194453e+05
  -4.366004e+05  -3.313875e+05
  -1.680108e+05  -5.903553e+05
   3.651236e+05  -2.990252e+05
   6.190454e+05   2.400657e+05
   2.463691e+05   5.182985e+05
  -4.616183e+05   3.444145e+05
  -8.151701e+05  -5.111014e+04
  -4.477644e+05  -3.380627e+05
   2.627894e+05  -3.779844e+05
   5.844015e+05  -2.273952e+05
   2.359868e+05  -2.218690e+04
  -3.068152e+05   7.578245e+04
  -3.711658e+05  -4.155116e+04
   1.410101e+05  -2.641166e+05
   6.635193e+05  -2.622910e+05
