
 $NMID
 id='ANONYMOUS ', fmtdat='(2E16.6)'
 volume=1.0
 tramp=1.0
 $END
  -2.866455e+07   1.649006e+06
  -1.898720e+07  -1.468552e+07
   9.596308e+05  -1.889701e+07
   1.265064e+07  -1.037078e+07
   9.367007e+06   7.523137e+05
  -2.694438e+05   4.957867e+06
  -5.282618e+06   1.242598e+06
  -3.111930e+06  -4.579611e+06
   1.870113e+06  -6.365516e+06
   4.968869e+06  -2.534159e+06
   4.315794e+06   3.167376e+06
   8.475696e+05   5.150097e+06
  -2.318501e+06   1.504239e+06
  -2.041113e+06  -3.705189e+06
   1.489239e+06  -4.656323e+06
   4.389882e+06  -1.781840e+05
   3.223903e+06   5.235898e+06
  -1.234349e+06   6.664427e+06
  -5.143065e+06   3.525376e+06
  -5.658116e+06  -1.023588e+06
  -3.139449e+06  -3.784111e+06
  -1.851405e+05  -3.846564e+06
   7.313133e+05  -2.466833e+06
  -6.103825e+05  -1.670032e+06
  -1.735401e+06  -2.410082e+06
   4.189716e+04  -3.484792e+06
   4.065043e+06  -2.794360e+06
   6.341647e+06  -3.612141e+04
   4.122239e+06   2.607858e+06
  -5.075973e+05   2.935818e+06
  -2.981829e+06   1.110760e+06
  -1.531874e+06  -9.087289e+05
   1.414367e+06  -1.481037e+06
   2.726827e+06  -2.724473e+05
   1.755463e+06   1.857386e+06
  -9.515054e+04   3.129429e+06
  -1.333807e+06   2.021554e+06
  -1.293331e+06  -6.877594e+05
  -2.711898e+05  -1.979498e+06
   4.969941e+05  -1.688398e+05
  -1.332915e+05   2.348895e+06
  -1.570895e+06   1.859745e+06
  -1.714806e+06  -1.447441e+06
   3.903089e+05  -3.300370e+06
   2.825260e+06  -9.550363e+05
   2.717271e+06   3.090441e+06
  -3.764072e+05   4.298514e+06
  -3.811007e+06   1.554461e+06
  -4.527659e+06  -2.144713e+06
  -1.902755e+06  -3.573748e+06
   1.857966e+06  -2.226817e+06
   3.674115e+06   2.164350e+05
   2.198364e+06   1.799402e+06
  -9.367423e+05   1.537588e+06
  -2.609592e+06  -4.195983e+04
  -1.422867e+06  -1.252458e+06
   8.095306e+05  -8.687280e+05
   1.325078e+06   4.392571e+05
  -2.064496e+05   9.155354e+05
  -1.465797e+06  -5.369018e+04
  -5.722801e+05  -1.274830e+06
   1.642331e+06  -1.340123e+06
   2.803750e+06  -6.053644e+04
   1.646553e+06   1.786583e+06
  -1.007781e+06   3.190219e+06
  -3.322836e+06   3.110245e+06
  -3.909446e+06   1.020534e+06
  -2.633854e+06  -2.054065e+06
  -6.226082e+05  -3.866554e+06
   6.471859e+05  -3.219462e+06
   6.962998e+05  -1.413380e+06
   4.142768e+05  -5.704747e+05
   8.372078e+05  -9.400445e+05
   1.803138e+06  -9.131593e+05
   2.194615e+06   4.275650e+05
   1.322749e+06   1.924908e+06
  -3.277673e+05   1.874908e+06
  -1.592117e+06   1.447212e+05
  -1.515261e+06  -1.749582e+06
   1.192128e+04  -2.245430e+06
   1.994984e+06  -1.022958e+06
   2.860676e+06   9.586796e+05
   1.855442e+06   2.316559e+06
  -3.762513e+04   2.326046e+06
  -1.129074e+06   1.461802e+06
  -1.033409e+06   7.942198e+05
  -1.001365e+06   7.529344e+05
  -1.996258e+06   6.979547e+05
  -3.135985e+06  -1.702340e+05
  -2.696439e+06  -1.743026e+06
  -3.532063e+05  -3.028745e+06
   2.240807e+06  -3.046727e+06
   3.138243e+06  -1.609852e+06
   1.953339e+06   4.617511e+05
   2.042188e+04   1.762760e+06
  -9.631292e+05   1.378662e+06
  -3.985810e+05  -9.982286e+04
   8.315127e+05  -9.848700e+05
   1.324155e+06  -3.529182e+05
   6.023326e+05   8.081728e+05
  -4.188477e+05   8.758994e+05
  -5.131459e+05  -2.140994e+05
   4.462044e+05  -8.280817e+05
   1.378097e+06   2.114021e+05
   1.185775e+06   2.058551e+06
  -2.119524e+05   2.829917e+06
  -1.932719e+06   1.698212e+06
  -2.849379e+06  -4.246693e+05
  -2.310522e+06  -1.986539e+06
  -6.361984e+05  -2.142277e+06
   9.388926e+05  -1.201776e+06
   1.240664e+06  -1.951259e+05
   3.752357e+05   9.297888e+03
  -3.157767e+05  -5.362061e+05
   1.738014e+05  -9.458080e+05
   1.258514e+06  -5.156063e+05
   1.494858e+06   4.308103e+05
   4.265238e+05   9.323763e+05
  -8.036064e+05   5.301728e+05
  -7.937517e+05  -2.646724e+05
   5.153253e+05  -6.016817e+05
   1.783486e+06  -1.082279e+05
   1.655531e+06   8.942172e+05
   7.610978e+04   1.665495e+06
  -1.661874e+06   1.519502e+06
  -2.100753e+06   4.064860e+05
  -9.671171e+05  -8.219804e+05
   5.686699e+05  -1.072043e+06
   1.042487e+06  -1.927508e+05
   1.399529e+05   7.391232e+05
  -1.074543e+06   6.100444e+05
  -1.340391e+06  -4.316775e+05
  -4.560939e+05  -1.199642e+06
   6.621853e+05  -9.003773e+05
   9.833774e+05   2.183258e+04
   3.275670e+05   5.159886e+05
  -5.234051e+05   9.895865e+04
  -5.762246e+05  -7.343715e+05
   3.895549e+05  -1.080649e+06
   1.495025e+06  -4.733436e+05
   1.567130e+06   7.043832e+05
   3.975176e+05   1.521775e+06
  -9.514950e+05   1.309864e+06
  -1.266913e+06   2.974348e+05
  -4.726398e+05  -5.958535e+05
   4.206077e+05  -6.694182e+05
   5.360653e+05  -9.515304e+04
  -4.130905e+03   3.838991e+05
  -4.377994e+05   3.094042e+05
  -2.827377e+05  -5.597834e+04
   2.324709e+05  -1.163328e+05
   4.704969e+05   3.445673e+05
  -1.083513e+03   8.754668e+05
  -9.573207e+05   7.729509e+05
  -1.590207e+06  -1.815450e+05
  -1.203632e+06  -1.380899e+06
   3.184408e+04  -1.868833e+06
   1.152219e+06  -1.246037e+06
   1.368149e+06  -7.295429e+04
   8.397460e+05   7.003353e+05
   3.383194e+05   6.713973e+05
   2.826035e+05   2.738789e+05
   3.626226e+05   1.708593e+05
   8.300566e+04   4.954857e+05
  -5.739534e+05   7.491523e+05
  -1.099013e+06   3.931943e+05
  -9.293258e+05  -5.061698e+05
   4.059778e+04  -1.219360e+06
   1.252004e+06  -9.831237e+05
   1.771628e+06   2.186284e+05
   1.033797e+06   1.502482e+06
  -5.403352e+05   1.830709e+06
  -1.790637e+06   9.832568e+05
  -1.856679e+06  -2.606713e+05
  -9.438468e+05  -9.424244e+05
   1.270418e+04  -8.442768e+05
   3.432901e+05  -5.316110e+05
   1.796760e+05  -5.776556e+05
   9.619977e+04  -9.063928e+05
   4.187363e+05  -9.365008e+05
   9.156339e+05  -2.819251e+05
   1.049908e+06   7.604854e+05
   5.116053e+05   1.415519e+06
  -4.091954e+05   1.125744e+06
  -9.836407e+05   8.944505e+04
  -7.087266e+05  -8.795032e+05
   1.447062e+05  -1.064364e+06
   7.612618e+05  -4.525643e+05
   6.272161e+05   3.460632e+05
   5.336252e+04   7.337610e+05
  -2.401738e+05   6.260191e+05
   1.355984e+04   3.648427e+05
   3.270172e+05   2.622550e+05
   5.158954e+04   3.014415e+05
  -8.167791e+05   2.321245e+05
  -1.521080e+06  -1.234740e+05
  -1.277080e+06  -6.579361e+05
  -1.171871e+05  -1.024743e+06
   1.058479e+06  -9.153355e+05
   1.336895e+06  -3.614580e+05
   6.764543e+05   2.259617e+05
  -1.328022e+05   3.945172e+05
  -3.553873e+05   9.116824e+04
  -8.088139e+03  -2.622093e+05
   3.581449e+05  -2.059316e+05
   3.728153e+05   2.383137e+05
   1.588783e+05   5.662805e+05
   2.937513e+04   3.719576e+05
   1.029700e+05  -1.311352e+05
   2.472572e+05  -3.055036e+05
   2.339896e+05   1.536063e+05
  -9.083707e+04   7.869151e+05
  -6.262919e+05   8.422335e+05
  -9.451139e+05   1.451759e+05
  -6.094764e+05  -6.633788e+05
   2.641103e+05  -8.193651e+05
   8.976405e+05  -2.460866e+05
   5.796696e+05   4.229472e+05
  -4.800903e+05   5.438102e+05
  -1.243649e+06   5.553996e+04
  -9.076502e+05  -5.751779e+05
   2.388841e+05  -8.330989e+05
   1.126655e+06  -5.495843e+05
   1.011098e+06   1.937924e+04
   1.692815e+05   3.985023e+05
  -4.686987e+05   2.738120e+05
  -2.827817e+05  -1.836434e+05
   4.564588e+05  -3.978352e+05
   9.063185e+05   5.416831e+04
   5.126373e+05   9.020245e+05
  -4.416668e+05   1.313758e+06
  -1.131890e+06   7.103728e+05
  -1.001159e+06  -5.437265e+05
  -2.392134e+05  -1.382881e+06
   4.999895e+05  -1.070111e+06
   7.288758e+05   4.329768e+04
   4.380194e+05   8.834772e+05
  -5.778177e+04   7.830818e+05
  -4.079564e+05   1.161227e+05
  -4.208235e+05  -2.716400e+05
  -1.805919e+05  -1.069870e+05
  -1.300328e+04   8.853931e+04
  -1.607999e+05  -1.880010e+05
  -4.159825e+05  -7.060505e+05
  -2.598759e+05  -8.245335e+05
   4.647328e+05  -3.444829e+05
   1.169367e+06   2.823358e+05
   1.081331e+06   5.724777e+05
   1.835703e+05   5.167436e+05
  -6.812938e+05   3.665123e+05
  -7.635576e+05   2.099599e+05
  -2.398042e+05   2.194129e+02
   1.183520e+05  -1.785008e+05
  -3.831221e+04  -1.805100e+05
  -2.671779e+05  -8.350754e+04
  -2.386376e+04  -1.056389e+05
   5.590689e+05  -1.992056e+05
   8.001828e+05  -2.418099e+04
   2.845849e+05   5.113451e+05
  -6.461753e+05   9.188762e+05
  -1.238502e+06   6.184635e+05
  -1.042145e+06  -3.029788e+05
  -2.579098e+05  -1.080011e+06
   5.125605e+05  -1.074195e+06
   7.845185e+05  -4.265946e+05
   5.256080e+05   1.765604e+05
   9.650896e+04   2.707574e+05
  -1.001443e+05   2.839410e+04
   4.055276e+04  -5.029450e+04
   2.707575e+05   2.498206e+05
   2.489707e+05   6.065968e+05
  -1.174359e+05   5.203388e+05
  -5.430583e+05  -9.418383e+04
  -5.864229e+05  -7.335218e+05
  -8.164211e+04  -7.883354e+05
   6.025236e+05  -1.820614e+05
   8.185953e+05   5.513089e+05
   2.864981e+05   8.224266e+05
  -5.287648e+05   5.191737e+05
  -8.409419e+05  -2.227155e+04
  -4.053455e+05  -4.164526e+05
   1.911302e+05  -4.902126e+05
   2.361949e+05  -2.850002e+05
  -2.358808e+05  -6.928631e+03
  -5.097043e+05   5.463872e+04
  -1.110596e+05  -2.234951e+05
   6.020932e+05  -5.661924e+05
   9.019464e+05  -5.017407e+05
   5.472383e+05   7.227520e+04
  -3.944797e+04   6.559997e+05
  -3.493111e+05   6.615654e+05
  -2.809325e+05   1.080368e+05
  -4.311507e+04  -3.862016e+05
   1.746655e+05  -3.236620e+05
   2.845709e+05   1.342858e+05
   2.161576e+05   4.342261e+05
  -3.529234e+04   2.974850e+05
  -3.029641e+05  -3.301898e+04
  -3.619721e+05  -1.688676e+05
  -1.875572e+05  -3.929899e+04
   1.048999e+04   8.642071e+04
   5.735066e+04  -3.187370e+04
   2.395425e+04  -3.019532e+05
   9.253970e+04  -3.929114e+05
   2.675063e+05  -1.168245e+05
   3.252163e+05   3.215400e+05
   8.416731e+04   5.050059e+05
  -3.209018e+05   2.442522e+05
  -5.015089e+05  -2.125939e+05
  -2.039165e+05  -4.468028e+05
   3.628310e+05  -2.971551e+05
   6.617012e+05   3.738137e+04
   3.744448e+05   2.706896e+05
  -2.109704e+05   2.930265e+05
  -4.750096e+05   1.689564e+05
  -1.632835e+05   1.595932e+04
   3.075492e+05  -4.358227e+04
   3.375675e+05   6.979082e+04
  -1.460685e+05   2.606009e+05
  -6.139459e+05   2.481679e+05
