
 $NMID
 id='ANONYMOUS ', fmtdat='(2E16.6)'
 volume=1.0
 tramp=1.0
 $END
   4.240697e+07   6.792294e+05
   2.579368e+07   2.482128e+07
  -4.505262e+06   2.800106e+07
  -2.013975e+07   1.261170e+07
  -1.307401e+07  -3.400464e+06
   1.595856e+06  -7.111474e+06
   7.658873e+06  -3.625150e+05
   3.247890e+06   7.157703e+06
  -3.922390e+06   8.273822e+06
  -7.432074e+06   2.489058e+06
  -5.691541e+06  -4.968865e+06
  -6.379946e+05  -7.202559e+06
   3.371216e+06  -1.986049e+06
   2.368995e+06   5.066620e+06
  -2.741727e+06   5.987067e+06
  -6.238362e+06  -5.450202e+05
  -3.815656e+06  -7.905748e+06
   2.685596e+06  -9.333856e+06
   7.827407e+06  -4.520081e+06
   8.182005e+06   1.937600e+06
   4.482783e+06   5.846377e+06
   5.506612e+04   6.020193e+06
  -1.726366e+06   3.903668e+06
  -1.017908e+05   2.262745e+06
   1.774609e+06   2.878082e+06
  -1.591134e+05   4.373716e+06
  -5.436606e+06   3.566636e+06
  -8.566708e+06  -2.363652e+05
  -5.605137e+06  -3.854501e+06
   5.997545e+05  -4.124656e+06
   3.881809e+06  -1.576039e+06
   2.083025e+06   9.246466e+05
  -1.520904e+06   1.558478e+06
  -3.147191e+06   2.584014e+05
  -2.135837e+06  -2.192118e+06
   6.726241e+04  -3.979652e+06
   1.876221e+06  -2.864962e+06
   2.084178e+06   7.666947e+05
   5.982527e+05   2.898926e+06
  -7.268681e+05   6.828641e+05
   1.450029e+05  -2.844689e+06
   2.243591e+06  -2.250697e+06
   2.143454e+06   2.349714e+06
  -1.305527e+06   4.707779e+06
  -4.637115e+06   9.138111e+05
  -3.700256e+06  -5.019357e+06
   1.223167e+06  -6.324658e+06
   5.717253e+06  -1.828081e+06
   5.958399e+06   3.533944e+06
   2.013155e+06   5.091254e+06
  -2.826343e+06   2.666423e+06
  -4.814964e+06  -8.761503e+05
  -2.553684e+06  -2.766673e+06
   1.657615e+06  -1.942007e+06
   3.658585e+06   4.973537e+05
   1.747356e+06   2.017223e+06
  -1.297028e+06   1.119065e+06
  -1.666680e+06  -7.802655e+05
   6.269283e+05  -1.058586e+06
   2.006855e+06   6.658170e+05
   2.160161e+05   2.163647e+06
  -2.921488e+06   1.612255e+06
  -4.051055e+06  -5.467000e+05
  -2.019580e+06  -2.876979e+06
   1.649687e+06  -4.347653e+06
   4.664798e+06  -4.011365e+06
   5.410521e+06  -1.175148e+06
   3.584255e+06   2.961002e+06
   5.796001e+05   5.335731e+06
  -1.335621e+06   4.237211e+06
  -1.211558e+06   1.568656e+06
  -4.276313e+05   4.252782e+05
  -7.960390e+05   1.116185e+06
  -2.170311e+06   1.263014e+06
  -2.804557e+06  -4.463030e+05
  -1.688376e+06  -2.395285e+06
   3.978008e+05  -2.316419e+06
   1.907296e+06  -1.053313e+05
   1.761535e+06   2.278212e+06
  -1.472373e+05   2.891007e+06
  -2.684264e+06   1.284733e+06
  -3.838519e+06  -1.404181e+06
  -2.463312e+06  -3.322267e+06
   2.109063e+05  -3.335799e+06
   1.790285e+06  -2.030047e+06
   1.634719e+06  -9.694759e+05
   1.479493e+06  -8.099642e+05
   2.700364e+06  -6.458354e+05
   4.089664e+06   5.695580e+05
   3.345433e+06   2.548412e+06
   1.713697e+05   3.965254e+06
  -3.149445e+06   3.760781e+06
  -4.161123e+06   1.888072e+06
  -2.523372e+06  -6.630760e+05
   5.815422e+03  -2.258945e+06
   1.282099e+06  -1.758924e+06
   5.224948e+05   1.291484e+05
  -1.134636e+06   1.226252e+06
  -1.780993e+06   3.493095e+05
  -7.622870e+05  -1.127681e+06
   5.874843e+05  -1.093896e+06
   5.757137e+05   3.377955e+05
  -7.626681e+05   9.169470e+05
  -1.760132e+06  -6.577316e+05
  -1.117250e+06  -2.940521e+06
   8.297646e+05  -3.517343e+06
   2.750190e+06  -1.727446e+06
   3.499235e+06   9.740334e+05
   2.629204e+06   2.730058e+06
   5.818174e+05   2.733152e+06
  -1.283153e+06   1.459570e+06
  -1.596215e+06   1.686638e+05
  -4.822579e+05  -4.514265e+04
   3.573759e+05   7.261602e+05
  -3.414705e+05   1.238330e+06
  -1.733828e+06   5.534024e+05
  -1.919386e+06  -7.495425e+05
  -4.343977e+05  -1.287802e+06
   1.106959e+06  -5.957668e+05
   9.628132e+05   4.220591e+05
  -7.484756e+05   6.631213e+05
  -2.251826e+06  -1.034728e+05
  -1.950048e+06  -1.300754e+06
   1.037089e+05  -2.082335e+06
   2.269251e+06  -1.755020e+06
   2.736276e+06  -3.170705e+05
   1.177608e+06   1.177132e+06
  -8.562491e+05   1.375062e+06
  -1.416154e+06   1.602296e+05
  -1.377466e+05  -9.993006e+05
   1.457942e+06  -7.010394e+05
   1.688207e+06   7.055947e+05
   4.324651e+05   1.596403e+06
  -9.764263e+05   1.053693e+06
  -1.253205e+06  -1.772764e+05
  -3.310754e+05  -7.175183e+05
   7.177616e+05  -7.208614e+04
   6.955906e+05   1.011743e+06
  -5.868024e+05   1.375992e+06
  -1.972938e+06   4.989589e+05
  -1.974201e+06  -1.041944e+06
  -3.776453e+05  -2.011311e+06
   1.366453e+06  -1.606486e+06
   1.669997e+06  -2.485074e+05
   5.338922e+05   8.244769e+05
  -6.177769e+05   8.137291e+05
  -6.768123e+05   7.533326e+04
   6.049089e+04  -4.511551e+05
   5.549976e+05  -3.156478e+05
   2.863581e+05   8.110781e+04
  -3.455612e+05   6.323613e+04
  -5.515392e+05  -5.376775e+05
   1.170079e+05  -1.137596e+06
   1.318300e+06  -9.022502e+05
   2.037985e+06   3.830517e+05
   1.434423e+06   1.893400e+06
  -2.064780e+05   2.397662e+06
  -1.589959e+06   1.467647e+06
  -1.732359e+06  -5.518381e+04
  -9.647441e+05  -9.415695e+05
  -3.606751e+05  -8.113649e+05
  -3.846233e+05  -3.275133e+05
  -5.042297e+05  -2.718759e+05
  -7.115770e+04  -6.787773e+05
   8.204271e+05  -9.047449e+05
   1.438601e+06  -3.841174e+05
   1.115385e+06   7.208991e+05
  -1.820329e+05   1.522990e+06
  -1.693853e+06   1.126346e+06
  -2.246558e+06  -4.464066e+05
  -1.173753e+06  -2.037702e+06
   9.003100e+05  -2.315400e+06
   2.426697e+06  -1.078190e+06
   2.348783e+06   5.457990e+05
   1.071059e+06   1.300067e+06
  -1.234472e+05   1.034478e+06
  -4.516016e+05   6.078881e+05
  -2.160841e+05   7.365407e+05
  -1.728198e+05   1.201962e+06
  -6.354737e+05   1.200829e+06
  -1.227155e+06   2.920293e+05
  -1.296714e+06  -1.069161e+06
  -5.402670e+05  -1.867676e+06
   6.210997e+05  -1.415372e+06
   1.272038e+06  -1.949074e+04
   8.238441e+05   1.216578e+06
  -3.133604e+05   1.362082e+06
  -1.058530e+06   4.768243e+05
  -7.816793e+05  -5.607066e+05
   3.746774e+04  -9.831286e+05
   4.167708e+05  -7.782028e+05
   3.608155e+04  -4.500575e+05
  -4.080911e+05  -3.542433e+05
  -4.711243e+04  -3.874144e+05
   1.090307e+06  -2.208336e+05
   1.974841e+06   3.027840e+05
   1.588951e+06   9.782463e+05
   2.885934e+04   1.356280e+06
  -1.483232e+06   1.097777e+06
  -1.768877e+06   3.238610e+05
  -8.397741e+05  -3.942829e+05
   2.228928e+05  -5.166710e+05
   4.771132e+05  -6.879172e+04
   8.080786e+02   3.632534e+05
  -4.644864e+05   2.410458e+05
  -4.639936e+05  -3.381606e+05
  -1.874317e+05  -7.334085e+05
  -3.539906e+04  -4.794805e+05
  -1.395402e+05   1.380326e+05
  -3.200521e+05   3.459796e+05
  -2.830905e+05  -2.201441e+05
   1.675194e+05  -9.947049e+05
   8.805393e+05  -1.038403e+06
   1.268261e+06  -1.281132e+05
   7.662664e+05   9.057083e+05
  -4.105305e+05   1.063173e+06
  -1.198959e+06   2.709063e+05
  -7.149600e+05  -5.840118e+05
   6.735014e+05  -6.516395e+05
   1.590889e+06   5.480048e+04
   1.075007e+06   8.272706e+05
  -4.111568e+05   1.023947e+06
  -1.488439e+06   5.635818e+05
  -1.269996e+06  -1.366017e+05
  -1.663571e+05  -5.197644e+05
   6.312691e+05  -2.960005e+05
   3.589800e+05   2.715501e+05
  -6.066338e+05   4.893046e+05
  -1.165542e+06  -1.227152e+05
  -6.127090e+05  -1.192045e+06
   6.448445e+05  -1.665305e+06
   1.499033e+06  -8.399846e+05
   1.242614e+06   7.709735e+05
   1.952517e+05   1.789262e+06
  -7.319512e+05   1.314941e+06
  -9.263781e+05  -1.375156e+05
  -4.664655e+05  -1.174576e+06
   1.676995e+05  -9.856725e+05
   5.421770e+05  -1.033551e+05
   4.978203e+05   3.798063e+05
   2.010118e+05   1.458482e+05
   3.290868e+04  -1.054964e+05
   2.225161e+05   2.704085e+05
   4.862926e+05   9.486419e+05
   2.366942e+05   1.075819e+06
  -6.567508e+05   3.979058e+05
  -1.472749e+06  -4.605160e+05
  -1.314334e+06  -8.261611e+05
  -1.891615e+05  -6.840605e+05
   8.830391e+05  -4.158463e+05
   9.895336e+05  -1.969824e+05
   3.266091e+05   3.300344e+04
  -1.584095e+05   2.214593e+05
   7.804962e+03   2.214945e+05
   3.086532e+05   1.140554e+05
   3.346726e+04   1.360818e+05
  -7.044362e+05   2.212382e+05
  -1.034185e+06  -2.516827e+04
  -3.657440e+05  -6.847717e+05
   8.781131e+05  -1.145693e+06
   1.660737e+06  -7.160315e+05
   1.349826e+06   4.568573e+05
   2.560773e+05   1.403936e+06
  -7.521394e+05   1.349495e+06
  -1.043126e+06   5.052250e+05
  -6.578918e+05  -2.531937e+05
  -1.149221e+05  -3.564121e+05
   1.067721e+05  -4.496621e+04
  -6.527158e+04   4.271289e+04
  -3.154621e+05  -3.514105e+05
  -2.606313e+05  -8.005082e+05
   1.869687e+05  -6.660484e+05
   6.856829e+05   1.456513e+05
   7.123531e+05   9.715552e+05
   7.271629e+04   1.022979e+06
  -7.725969e+05   2.123404e+05
  -1.017683e+06  -7.490148e+05
  -3.214558e+05  -1.081248e+06
   7.159720e+05  -6.459202e+05
   1.092884e+06   8.646847e+04
   5.044272e+05   5.852893e+05
  -2.855279e+05   6.400209e+05
  -3.480597e+05   3.544359e+05
   2.783678e+05   1.851020e+04
   6.532643e+05  -3.434415e+04
   1.337509e+05   3.005242e+05
  -8.188706e+05   6.774765e+05
  -1.220279e+06   5.565261e+05
  -7.223229e+05  -1.545255e+05
   9.994731e+04  -8.501107e+05
   5.219449e+05  -8.336220e+05
   3.933595e+05  -1.348632e+05
   3.793868e+04   4.897905e+05
  -2.449244e+05   4.156524e+05
  -3.537206e+05  -1.733267e+05
  -2.477027e+05  -5.743338e+05
   6.227630e+04  -3.995053e+05
   3.878994e+05   5.651160e+04
   4.602878e+05   2.603501e+05
   2.385685e+05   7.863731e+04
  -1.808812e+04  -1.288329e+05
  -7.723440e+04   1.359265e+03
  -2.434265e+04   3.720239e+05
  -1.062143e+05   5.212322e+05
  -3.385897e+05   1.689266e+05
  -4.218421e+05  -4.121929e+05
  -1.079460e+05  -6.517807e+05
   4.201551e+05  -3.001129e+05
   6.430663e+05   2.970242e+05
   2.391800e+05   5.812751e+05
  -4.959506e+05   3.578399e+05
  -8.611450e+05  -8.863923e+04
  -4.674530e+05  -3.762574e+05
   2.935867e+05  -3.772042e+05
   6.295195e+05  -2.011133e+05
   2.282328e+05  -1.178641e+04
  -3.747049e+05   4.962728e+04
  -4.189231e+05  -9.142844e+04
   1.885490e+05  -3.090366e+05
   7.763790e+05  -2.724723e+05
