
 $NMID
 id='ANONYMOUS ', fmtdat='(2E16.6)'
 volume=1.0
 tramp=1.0
 $END
   4.484763e+07  -6.285078e+05
   2.824301e+07   2.510231e+07
  -3.569161e+06   2.967847e+07
  -2.080287e+07   1.434393e+07
  -1.412903e+07  -2.826017e+06
   1.287716e+06  -7.621908e+06
   8.183854e+06  -8.686983e+05
   3.898181e+06   7.466347e+06
  -3.775380e+06   9.139410e+06
  -7.840904e+06   3.060546e+06
  -6.254017e+06  -5.130060e+06
  -8.969985e+05  -7.726512e+06
   3.561598e+06  -2.184080e+06
   2.713971e+06   5.471548e+06
  -2.715330e+06   6.624098e+06
  -6.689511e+06  -2.871782e+05
  -4.386931e+06  -8.284326e+06
   2.500932e+06  -1.004941e+07
   8.159292e+06  -5.055316e+06
   8.709586e+06   1.837929e+06
   4.841307e+06   6.045160e+06
   1.981890e+05   6.255294e+06
  -1.581357e+06   4.082178e+06
   2.007755e+05   2.483026e+06
   2.105437e+06   3.244565e+06
  -1.250098e+05   4.844234e+06
  -5.887223e+06   3.957916e+06
  -9.283103e+06  -1.143816e+05
  -6.086624e+06  -4.033097e+06
   6.523578e+05  -4.412007e+06
   4.239275e+06  -1.693119e+06
   2.241682e+06   1.087615e+06
  -1.780778e+06   1.818341e+06
  -3.576202e+06   3.099905e+05
  -2.380245e+06  -2.463352e+06
   7.957719e+04  -4.372180e+06
   1.977529e+06  -3.066056e+06
   2.139037e+06   8.531980e+05
   5.988592e+05   3.049727e+06
  -7.440366e+05   6.020588e+05
   1.644424e+05  -3.180351e+06
   2.383798e+06  -2.537662e+06
   2.403219e+06   2.411916e+06
  -1.127072e+06   5.059584e+06
  -4.770114e+06   1.175242e+06
  -4.066593e+06  -5.140489e+06
   1.031475e+06  -6.723056e+06
   6.006774e+06  -2.128944e+06
   6.550104e+06   3.590280e+06
   2.399398e+06   5.436471e+06
  -2.957526e+06   3.022996e+06
  -5.287149e+06  -7.413200e+05
  -2.921098e+06  -2.888360e+06
   1.669494e+06  -2.167185e+06
   3.938757e+06   3.746259e+05
   1.966667e+06   2.078023e+06
  -1.338830e+06   1.243240e+06
  -1.853123e+06  -7.824307e+05
   5.744220e+05  -1.220464e+06
   2.194134e+06   5.225685e+05
   4.398457e+05   2.228549e+06
  -2.939012e+06   1.858728e+06
  -4.329726e+06  -3.542510e+05
  -2.288920e+06  -2.960489e+06
   1.658972e+06  -4.713039e+06
   4.966759e+06  -4.437580e+06
   5.809892e+06  -1.378541e+06
   3.895682e+06   3.116824e+06
   7.486676e+05   5.741033e+06
  -1.276539e+06   4.644151e+06
  -1.227043e+06   1.820552e+06
  -5.117331e+05   5.649805e+05
  -9.634167e+05   1.248892e+06
  -2.423244e+06   1.362507e+06
  -3.083759e+06  -5.128289e+05
  -1.863327e+06  -2.651158e+06
   4.422981e+05  -2.574968e+06
   2.145405e+06  -1.412290e+05
   2.005454e+06   2.495466e+06
  -1.078060e+05   3.179116e+06
  -2.903688e+06   1.435882e+06
  -4.173092e+06  -1.460546e+06
  -2.707418e+06  -3.516325e+06
   1.460742e+05  -3.553368e+06
   1.834145e+06  -2.201410e+06
   1.688282e+06  -1.103525e+06
   1.563043e+06  -9.582113e+05
   2.929137e+06  -8.121841e+05
   4.489729e+06   4.860694e+05
   3.738610e+06   2.685143e+06
   3.031016e+05   4.342198e+06
  -3.358409e+06   4.207818e+06
  -4.525662e+06   2.156660e+06
  -2.771580e+06  -6.951188e+05
  -1.245234e+04  -2.484281e+06
   1.387312e+06  -1.940640e+06
   5.706154e+05   1.417677e+05
  -1.222623e+06   1.367587e+06
  -1.934127e+06   4.269093e+05
  -8.482851e+05  -1.207633e+06
   6.291015e+05  -1.214911e+06
   6.657695e+05   3.549171e+05
  -7.800824e+05   1.070004e+06
  -1.960925e+06  -5.869094e+05
  -1.389610e+06  -3.145726e+06
   7.174195e+05  -3.931844e+06
   2.945610e+06  -2.072537e+06
   3.919090e+06   9.190885e+05
   3.018262e+06   2.942666e+06
   7.278049e+05   3.015656e+06
  -1.380058e+06   1.639239e+06
  -1.753887e+06   2.185274e+05
  -5.304051e+05  -3.667744e+04
   4.134749e+05   7.868544e+05
  -3.303192e+05   1.360460e+06
  -1.869529e+06   6.564435e+05
  -2.121102e+06  -7.523235e+05
  -5.225551e+05  -1.390420e+06
   1.195786e+06  -6.911098e+05
   1.084249e+06   4.372900e+05
  -7.958640e+05   7.752824e+05
  -2.499729e+06  -2.347089e+04
  -2.214358e+06  -1.378176e+06
   4.059772e+04  -2.316702e+06
   2.449443e+06  -2.008988e+06
   3.000264e+06  -4.290081e+05
   1.324167e+06   1.251113e+06
  -8.940064e+05   1.519799e+06
  -1.533212e+06   2.131596e+05
  -1.707927e+05  -1.083426e+06
   1.577540e+06  -8.070273e+05
   1.875542e+06   7.203200e+05
   5.339733e+05   1.741179e+06
  -1.032975e+06   1.200994e+06
  -1.388537e+06  -1.423682e+05
  -3.980437e+05  -7.753144e+05
   7.781854e+05  -1.041596e+05
   7.890738e+05   1.088162e+06
  -6.090809e+05   1.523886e+06
  -2.152503e+06   5.970515e+05
  -2.192569e+06  -1.091403e+06
  -4.702492e+05  -2.194737e+06
   1.449716e+06  -1.801644e+06
   1.824611e+06  -3.249006e+05
   6.152718e+05   8.885204e+05
  -6.535336e+05   9.153220e+05
  -7.503262e+05   9.874981e+04
   4.853579e+04  -5.149462e+05
   6.161149e+05  -3.773625e+05
   3.425240e+05   8.913468e+04
  -3.671618e+05   1.039833e+05
  -6.311884e+05  -5.572089e+05
   8.260969e+04  -1.250791e+06
   1.417414e+06  -1.032034e+06
   2.248444e+06   3.608533e+05
   1.626860e+06   2.037578e+06
  -1.612875e+05   2.641874e+06
  -1.709558e+06   1.667079e+06
  -1.917335e+06  -5.456160e+03
  -1.101445e+06  -1.021206e+06
  -4.195696e+05  -9.089620e+05
  -4.144576e+05  -3.633092e+05
  -5.452829e+05  -2.750643e+05
  -9.673574e+04  -7.312372e+05
   8.699748e+05  -1.020357e+06
   1.573493e+06  -4.713934e+05
   1.257414e+06   7.649822e+05
  -1.508321e+05   1.693337e+06
  -1.831875e+06   1.294925e+06
  -2.486436e+06  -4.254642e+05
  -1.355132e+06  -2.204179e+06
   9.110975e+05  -2.569639e+06
   2.627179e+06  -1.262912e+06
   2.604188e+06   5.211763e+05
   1.232668e+06   1.401122e+06
  -9.888137e+04   1.158734e+06
  -4.939058e+05   6.940663e+05
  -2.388325e+05   8.093060e+05
  -1.654559e+05   1.309368e+06
  -6.594840e+05   1.326653e+06
  -1.332249e+06   3.522528e+05
  -1.450101e+06  -1.139680e+06
  -6.426711e+05  -2.037368e+06
   6.456002e+05  -1.571486e+06
   1.398902e+06  -5.895363e+04
   9.436279e+05   1.307835e+06
  -2.958009e+05   1.505571e+06
  -1.139426e+06   5.678627e+05
  -8.760157e+05  -5.744198e+05
  -1.472377e+03  -1.072321e+06
   4.196212e+05  -8.717768e+05
   2.161691e+04  -5.035396e+05
  -4.539427e+05  -3.808774e+05
  -6.009011e+04  -4.251815e+05
   1.185630e+06  -2.759867e+05
   2.169545e+06   2.728379e+05
   1.773210e+06   1.024725e+06
   8.113623e+04   1.482990e+06
  -1.585877e+06   1.245343e+06
  -1.931015e+06   4.128206e+05
  -9.398245e+05  -3.966466e+05
   2.237096e+05  -5.679638e+05
   5.193062e+05  -9.522396e+04
   8.028991e+03   3.893132e+05
  -5.075159e+05   2.736899e+05
  -5.167900e+05  -3.587300e+05
  -2.145373e+05  -8.013075e+05
  -4.175975e+04  -5.245136e+05
  -1.518651e+05   1.624868e+05
  -3.518081e+05   3.965940e+05
  -3.194416e+05  -2.327842e+05
   1.623571e+05  -1.099651e+06
   9.377082e+05  -1.162959e+06
   1.375821e+06  -1.708672e+05
   8.538605e+05   9.719747e+05
  -4.201348e+05   1.169010e+06
  -1.300361e+06   3.211483e+05
  -7.987015e+05  -6.252226e+05
   7.197274e+05  -7.367022e+05
   1.754916e+06   1.182276e+04
   1.218263e+06   8.793011e+05
  -4.149244e+05   1.146913e+06
  -1.625684e+06   6.743256e+05
  -1.410390e+06  -1.093534e+05
  -2.020214e+05  -5.702189e+05
   6.854146e+05  -3.478445e+05
   3.991078e+05   2.846903e+05
  -6.573951e+05   5.478810e+05
  -1.281392e+06  -1.113961e+05
  -6.944644e+05  -1.295660e+06
   6.749971e+05  -1.840464e+06
   1.628940e+06  -9.541755e+05
   1.384438e+06   8.184312e+05
   2.597962e+05   1.963536e+06
  -7.710717e+05   1.470439e+06
  -1.025371e+06  -1.202043e+05
  -5.513763e+05  -1.279376e+06
   1.501291e+05  -1.095200e+06
   5.914492e+05  -1.325965e+05
   5.638126e+05   4.072220e+05
   2.318001e+05   1.589285e+05
   3.109427e+04  -1.196817e+05
   2.423508e+05   2.842312e+05
   5.562153e+05   1.027178e+06
   2.971787e+05   1.180093e+06
  -7.017398e+05   4.585668e+05
  -1.632790e+06  -4.680534e+05
  -1.475252e+06  -8.753085e+05
  -2.274686e+05  -7.454282e+05
   9.669772e+05  -4.780059e+05
   1.086030e+06  -2.448799e+05
   3.545954e+05   2.197869e+04
  -1.711429e+05   2.461742e+05
   2.215063e+04   2.493254e+05
   3.505985e+05   1.241691e+05
   3.670485e+04   1.485655e+05
  -7.777378e+05   2.558189e+05
  -1.135506e+06  -3.700297e+03
  -4.061379e+05  -7.388761e+05
   9.434721e+05  -1.274025e+06
   1.799033e+06  -8.235226e+05
   1.482259e+06   4.706495e+05
   3.130536e+05   1.537024e+06
  -7.890054e+05   1.499382e+06
  -1.131883e+06   5.754479e+05
  -7.297063e+05  -2.668977e+05
  -1.314501e+05  -3.877915e+05
   1.230614e+05  -4.512323e+04
  -6.889000e+04   5.544663e+04
  -3.604553e+05  -3.761842e+05
  -3.104478e+05  -8.737591e+05
   1.901450e+05  -7.343110e+05
   7.577331e+05   1.493116e+05
   8.004769e+05   1.054641e+06
   9.568525e+04   1.119186e+06
  -8.472605e+05   2.428794e+05
  -1.132275e+06  -8.049874e+05
  -3.744133e+05  -1.178227e+06
   7.705851e+05  -7.206567e+05
   1.197960e+06   6.936945e+04
   5.650296e+05   6.233883e+05
  -2.954524e+05   7.024532e+05
  -3.659785e+05   3.977242e+05
   3.135184e+05   1.807469e+04
   7.186379e+05  -5.235419e+04
   1.519843e+05   3.246951e+05
  -8.829523e+05   7.658509e+05
  -1.321131e+06   6.492522e+05
  -7.906945e+05  -1.439000e+05
   8.873615e+04  -9.331054e+05
   5.450096e+05  -9.269275e+05
   4.196532e+05  -1.537577e+05
   4.895377e+04   5.395616e+05
  -2.593757e+05   4.580579e+05
  -3.919047e+05  -1.888332e+05
  -2.851554e+05  -6.248471e+05
   5.916557e+04  -4.334870e+05
   4.265984e+05   5.559572e+04
   5.105621e+05   2.691384e+05
   2.648146e+05   7.598035e+04
  -2.055358e+04  -1.347528e+05
  -8.699143e+04   1.508440e+04
  -2.846723e+04   4.119588e+05
  -1.164761e+05   5.645012e+05
  -3.697529e+05   1.798379e+05
  -4.622514e+05  -4.491370e+05
  -1.215622e+05  -7.119454e+05
   4.571270e+05  -3.356832e+05
   7.079004e+05   3.143446e+05
   2.727226e+05   6.348365e+05
  -5.336064e+05   4.046149e+05
  -9.431807e+05  -7.867328e+04
  -5.205086e+05  -4.016258e+05
   3.122240e+05  -4.160859e+05
   6.833365e+05  -2.299779e+05
   2.444517e+05  -1.844181e+04
  -4.172875e+05   5.622853e+04
  -4.639676e+05  -9.900260e+04
   2.070978e+05  -3.476805e+05
   8.568904e+05  -3.158414e+05
