
 $NMID
 id='ANONYMOUS ', fmtdat='(2E16.6)'
 volume=1.0
 tramp=1.0
 $END
  -2.720482e+07   3.730732e+04
  -1.783480e+07  -1.284494e+07
   2.566842e+05  -1.704480e+07
   1.150748e+07  -1.113962e+07
   9.469802e+06  -1.091135e+06
   5.407646e+05   4.707666e+06
  -5.280655e+06   2.377719e+06
  -4.029891e+06  -4.187613e+06
   1.138909e+06  -7.274700e+06
   4.921757e+06  -3.305251e+06
   4.428428e+06   3.429184e+06
   6.761402e+05   5.649271e+06
  -2.623152e+06   1.240858e+06
  -2.241851e+06  -4.624153e+06
   1.425853e+06  -5.507935e+06
   4.481912e+06  -5.575152e+05
   3.429841e+06   5.258668e+06
  -1.132316e+06   6.748812e+06
  -5.162232e+06   3.290573e+06
  -5.363466e+06  -1.524847e+06
  -2.321965e+06  -3.885860e+06
   4.490180e+05  -3.106630e+06
   2.619641e+05  -1.571265e+06
  -1.966314e+06  -1.799124e+06
  -2.654096e+06  -3.665179e+06
   4.832320e+05  -4.654247e+06
   5.420026e+06  -2.847090e+06
   7.424608e+06   7.924081e+05
   4.146497e+06   3.402860e+06
  -1.451231e+06   3.112078e+06
  -4.056627e+06   5.703191e+05
  -1.681952e+06  -1.935742e+06
   2.521580e+06  -2.314715e+06
   4.140851e+06  -1.005609e+05
   2.156081e+06   2.980320e+06
  -7.854234e+05   4.050275e+06
  -1.863818e+06   1.833787e+06
  -8.202627e+05  -1.441656e+06
   5.584419e+05  -2.068872e+06
   6.546333e+05   6.831732e+05
  -6.024721e+05   3.309202e+06
  -1.942185e+06   2.288933e+06
  -1.892553e+06  -1.347377e+06
  -9.260559e+04  -3.195895e+06
   2.060195e+06  -9.650875e+05
   2.313904e+06   2.809484e+06
  -2.506445e+05   3.965012e+06
  -3.796099e+06   1.381113e+06
  -5.023018e+06  -2.339013e+06
  -2.392737e+06  -4.010748e+06
   2.029516e+06  -2.726063e+06
   4.379025e+06  -7.169444e+03
   2.800834e+06   1.880288e+06
  -7.603697e+05   1.706926e+06
  -2.722223e+06   8.955704e+04
  -1.585722e+06  -1.178827e+06
   8.044797e+05  -8.784153e+05
   1.614094e+06   4.538825e+05
   1.730836e+05   1.233087e+06
  -1.511119e+06   6.036691e+05
  -1.204161e+06  -7.458281e+05
   9.902270e+05  -1.396395e+06
   2.699486e+06  -4.924085e+05
   1.800673e+06   1.597880e+06
  -1.329624e+06   3.413454e+06
  -4.163645e+06   3.278389e+06
  -4.528214e+06   7.379698e+05
  -2.596235e+06  -2.632591e+06
  -3.607012e+05  -4.408023e+06
   6.041530e+05  -3.703858e+06
   5.335017e+05  -2.003181e+06
   6.949119e+05  -1.206541e+06
   1.682094e+06  -1.313965e+06
   2.780634e+06  -7.585859e+05
   2.827150e+06   1.125590e+06
   1.389603e+06   2.870412e+06
  -8.031541e+05   2.523010e+06
  -2.304145e+06   4.826073e+04
  -1.928351e+06  -2.453979e+06
   2.240432e+05  -2.849908e+06
   2.556565e+06  -9.600071e+05
   3.188513e+06   1.517844e+06
   1.736576e+06   2.756990e+06
  -2.894412e+05   2.353790e+06
  -1.177601e+06   1.330235e+06
  -9.318125e+05   8.449867e+05
  -1.056441e+06   1.009928e+06
  -2.412748e+06   9.322541e+05
  -3.827786e+06  -2.058187e+05
  -3.283790e+06  -2.183361e+06
  -3.600652e+05  -3.779167e+06
   2.951517e+06  -3.719364e+06
   4.078269e+06  -1.772145e+06
   2.391221e+06   8.517294e+05
  -2.496752e+05   2.284748e+06
  -1.425302e+06   1.596550e+06
  -4.744147e+05  -2.229828e+05
   1.147668e+06  -1.166702e+06
   1.621241e+06  -3.474964e+05
   6.125224e+05   1.011766e+06
  -6.326074e+05   1.080833e+06
  -7.533406e+05  -2.659537e+05
   3.883987e+05  -1.194928e+06
   1.678004e+06  -1.226368e+05
   1.765064e+06   2.274941e+06
   1.711401e+05   3.666304e+06
  -2.238100e+06   2.533749e+06
  -3.751158e+06  -2.993817e+05
  -3.135119e+06  -2.592037e+06
  -8.311229e+05  -2.849924e+06
   1.273454e+06  -1.499368e+06
   1.604080e+06  -1.577691e+05
   4.681228e+05   2.550180e+04
  -3.806303e+05  -6.825908e+05
   2.139021e+05  -1.127142e+06
   1.505874e+06  -5.824919e+05
   1.802925e+06   5.186218e+05
   5.310461e+05   1.116774e+06
  -1.010991e+06   6.593506e+05
  -1.064160e+06  -3.532230e+05
   6.066192e+05  -8.661508e+05
   2.340617e+06  -2.416655e+05
   2.242126e+06   1.158960e+06
   1.476496e+05   2.215752e+06
  -2.150153e+06   1.956071e+06
  -2.668375e+06   4.702748e+05
  -1.166348e+06  -1.022026e+06
   7.279777e+05  -1.246390e+06
   1.229873e+06  -1.735901e+05
   9.409159e+04   8.931304e+05
  -1.357372e+06   7.070188e+05
  -1.670155e+06  -5.496190e+05
  -6.026664e+05  -1.505577e+06
   7.953523e+05  -1.176446e+06
   1.249211e+06  -2.970613e+04
   4.554919e+05   6.276498e+05
  -6.235003e+05   1.190362e+05
  -6.848359e+05  -9.358707e+05
   5.470479e+05  -1.338985e+06
   1.906502e+06  -5.197834e+05
   1.931103e+06   9.535797e+05
   4.437034e+05   1.910389e+06
  -1.208996e+06   1.604631e+06
  -1.580496e+06   3.556911e+05
  -5.962665e+05  -7.463917e+05
   5.380831e+05  -8.432857e+05
   7.241419e+05  -9.306203e+04
   2.329550e+04   5.686112e+05
  -6.255397e+05   4.679635e+05
  -4.929960e+05  -9.411457e+04
   2.181034e+05  -2.550295e+05
   6.176599e+05   3.467914e+05
   4.226239e+04   1.079815e+06
  -1.198892e+06   9.621912e+05
  -1.992742e+06  -2.631072e+05
  -1.464965e+06  -1.768565e+06
   1.014156e+05  -2.365739e+06
   1.496720e+06  -1.588585e+06
   1.779166e+06  -9.803481e+04
   1.125741e+06   9.551406e+05
   4.399963e+05   9.873796e+05
   2.810286e+05   4.402536e+05
   3.654206e+05   1.967089e+05
   7.869318e+04   5.674056e+05
  -7.096489e+05   9.416248e+05
  -1.407495e+06   5.177200e+05
  -1.224443e+06  -6.705879e+05
   3.551489e+04  -1.605371e+06
   1.610008e+06  -1.258797e+06
   2.256142e+06   3.108884e+05
   1.298956e+06   1.910343e+06
  -6.732889e+05   2.282772e+06
  -2.235142e+06   1.226764e+06
  -2.359766e+06  -3.147700e+05
  -1.258238e+06  -1.209346e+06
  -1.588013e+04  -1.146633e+06
   5.057571e+05  -7.418015e+05
   3.568421e+05  -7.176220e+05
   2.100753e+05  -1.071527e+06
   5.425028e+05  -1.111673e+06
   1.128411e+06  -3.051966e+05
   1.280723e+06   1.002081e+06
   5.871506e+05   1.806789e+06
  -5.654912e+05   1.405412e+06
  -1.250823e+06   9.313808e+04
  -8.826770e+05  -1.099364e+06
   1.646976e+05  -1.328863e+06
   9.102847e+05  -6.061766e+05
   7.682599e+05   3.590142e+05
   1.089741e+05   8.693748e+05
  -2.380182e+05   7.905146e+05
   3.993127e+04   4.930040e+05
   3.881060e+05   3.582608e+05
   4.672556e+04   3.881635e+05
  -1.004866e+06   2.778229e+05
  -1.870457e+06  -1.861358e+05
  -1.586908e+06  -8.414707e+05
  -1.648477e+05  -1.255762e+06
   1.303588e+06  -1.099305e+06
   1.673189e+06  -4.473947e+05
   8.622438e+05   2.375688e+05
  -1.526780e+05   4.588683e+05
  -4.305022e+05   1.321821e+05
   1.981698e+04  -2.864244e+05
   4.782814e+05  -2.335335e+05
   4.511629e+05   3.132867e+05
   1.286466e+05   7.329188e+05
  -2.534566e+04   4.735771e+05
   1.377505e+05  -1.987708e+05
   3.615074e+05  -4.251237e+05
   3.035424e+05   1.925328e+05
  -1.624665e+05   1.007929e+06
  -8.148347e+05   1.033951e+06
  -1.137373e+06   1.174359e+05
  -6.854099e+05  -8.601115e+05
   3.618319e+05  -9.752572e+05
   1.104682e+06  -2.280817e+05
   7.072147e+05   5.697923e+05
  -6.092433e+05   6.787792e+05
  -1.591669e+06   5.814132e+04
  -1.195375e+06  -7.397231e+05
   2.756785e+05  -1.085275e+06
   1.452692e+06  -7.306635e+05
   1.323381e+06   1.837202e+04
   2.277672e+05   5.212135e+05
  -5.955957e+05   3.546755e+05
  -3.339613e+05  -2.266952e+05
   6.165570e+05  -4.614344e+05
   1.138631e+06   1.416119e+05
   5.657202e+05   1.179486e+06
  -6.646410e+05   1.621872e+06
  -1.483750e+06   8.172387e+05
  -1.240702e+06  -7.458283e+05
  -2.417418e+05  -1.769819e+06
   6.739698e+05  -1.363243e+06
   9.311256e+05   4.877448e+04
   5.570658e+05   1.131024e+06
  -5.833501e+04   1.016355e+06
  -5.089410e+05   1.517214e+05
  -5.563624e+05  -3.679346e+05
  -2.610726e+05  -1.548478e+05
  -6.370341e+03   1.223339e+05
  -1.453064e+05  -2.199586e+05
  -4.802482e+05  -9.002975e+05
  -3.404098e+05  -1.063118e+06
   5.525230e+05  -4.265516e+05
   1.477759e+06   4.043533e+05
   1.389203e+06   7.666894e+05
   2.184151e+05   6.525940e+05
  -9.127099e+05   4.334091e+05
  -9.889902e+05   2.502848e+05
  -2.733255e+05   1.292985e+04
   1.714969e+05  -2.167462e+05
  -8.402902e+04  -2.506116e+05
  -3.814107e+05  -1.410518e+05
  -9.062720e+03  -1.383539e+05
   7.649137e+05  -2.117304e+05
   1.008247e+06   1.812710e+04
   2.707778e+05   6.520865e+05
  -9.015458e+05   1.105847e+06
  -1.562844e+06   6.928432e+05
  -1.247501e+06  -4.556199e+05
  -2.597179e+05  -1.384711e+06
   6.837690e+05  -1.320273e+06
   1.010521e+06  -4.739305e+05
   6.642086e+05   2.721682e+05
   9.081585e+04   3.467827e+05
  -1.672636e+05   5.367896e+03
   3.872858e+04  -9.244238e+04
   3.524066e+05   3.144688e+05
   3.053670e+05   7.787469e+05
  -1.825737e+05   6.433418e+05
  -6.918990e+05  -1.750852e+05
  -6.801585e+05  -9.853091e+05
  -1.630487e+04  -9.956620e+05
   7.969154e+05  -1.588817e+05
   9.936896e+05   7.752854e+05
   2.940516e+05   1.050446e+06
  -6.999583e+05   5.986933e+05
  -1.040350e+06  -8.077112e+04
  -4.680713e+05  -5.165210e+05
   2.621081e+05  -5.718577e+05
   2.775932e+05  -3.398868e+05
  -3.357217e+05  -3.468427e+04
  -6.567378e+05   3.880918e+04
  -1.162040e+05  -2.799259e+05
   7.877606e+05  -6.917911e+05
   1.130025e+06  -6.197014e+05
   6.485630e+05   8.720050e+04
  -8.530813e+04   8.110675e+05
  -4.390610e+05   8.025216e+05
  -3.212039e+05   9.458367e+04
  -1.518731e+04  -5.059219e+05
   2.436664e+05  -3.792366e+05
   3.552121e+05   2.180623e+05
   2.462375e+05   5.603930e+05
  -6.888993e+04   3.420809e+05
  -3.796129e+05  -7.224830e+04
  -4.362359e+05  -2.069455e+05
  -2.342208e+05  -3.686678e+04
  -8.933484e+03   8.252092e+04
   7.292132e+04  -9.434352e+04
   9.394933e+04  -4.032750e+05
   2.062091e+05  -4.534893e+05
   3.663939e+05  -6.994262e+04
   3.479912e+05   4.647668e+05
   1.841080e+04   6.480486e+05
  -4.355711e+05   2.750113e+05
  -5.992551e+05  -3.173902e+05
  -2.171250e+05  -5.890316e+05
   4.625623e+05  -3.517412e+05
   8.129601e+05   9.692186e+04
   4.485118e+05   3.619759e+05
  -2.818586e+05   3.325429e+05
  -5.992131e+05   1.559375e+05
  -1.787718e+05   5.667870e+03
   4.302920e+05  -1.066197e+04
   4.383141e+05   1.454947e+05
  -2.299178e+05   3.456811e+05
  -8.406654e+05   2.806554e+05
