
 $NMID
 id='ANONYMOUS ', fmtdat='(2E16.6)'
 volume=1.0
 tramp=1.0
 $END
  -2.957685e+07   6.209742e+05
  -1.988468e+07  -1.344837e+07
  -2.951995e+05  -1.860969e+07
   1.234831e+07  -1.263844e+07
   1.053717e+07  -1.545453e+06
   8.094962e+05   5.227082e+06
  -5.824686e+06   2.857167e+06
  -4.646214e+06  -4.530639e+06
   1.069300e+06  -8.154230e+06
   5.382488e+06  -3.822543e+06
   4.950133e+06   3.697408e+06
   8.324624e+05   6.237663e+06
  -2.868152e+06   1.402959e+06
  -2.536689e+06  -5.102535e+06
   1.485540e+06  -6.150727e+06
   4.939226e+06  -7.351878e+05
   3.886682e+06   5.716427e+06
  -1.114634e+06   7.443571e+06
  -5.599585e+06   3.688065e+06
  -5.865231e+06  -1.596672e+06
  -2.553549e+06  -4.176161e+06
   4.288441e+05  -3.318944e+06
   1.574607e+05  -1.698790e+06
  -2.282376e+06  -2.047983e+06
  -2.959784e+06  -4.130366e+06
   5.504798e+05  -5.170147e+06
   5.986447e+06  -3.146448e+06
   8.187558e+06   8.398657e+05
   4.585925e+06   3.698745e+06
  -1.587953e+06   3.402938e+06
  -4.474809e+06   6.170799e+05
  -1.830353e+06  -2.166341e+06
   2.859775e+06  -2.582045e+06
   4.643740e+06  -8.173129e+04
   2.382150e+06   3.359741e+06
  -9.047503e+05   4.505352e+06
  -2.050396e+06   2.005712e+06
  -8.535067e+05  -1.595658e+06
   6.327474e+05  -2.233680e+06
   6.816435e+05   8.152913e+05
  -6.969463e+05   3.685390e+06
  -2.145325e+06   2.556595e+06
  -2.135752e+06  -1.443149e+06
  -2.291335e+05  -3.528600e+06
   2.169638e+06  -1.163875e+06
   2.586501e+06   2.965026e+06
  -1.473374e+05   4.321947e+06
  -4.109599e+06   1.581793e+06
  -5.578770e+06  -2.500859e+06
  -2.718943e+06  -4.415338e+06
   2.214396e+06  -3.069802e+06
   4.880245e+06  -7.622272e+04
   3.168910e+06   2.061175e+06
  -7.853180e+05   1.936619e+06
  -3.010015e+06   1.742563e+05
  -1.802016e+06  -1.268213e+06
   8.547720e+05  -9.943804e+05
   1.811681e+06   4.817973e+05
   2.349946e+05   1.411841e+06
  -1.701117e+06   7.560431e+05
  -1.442747e+06  -7.920232e+05
   9.980863e+05  -1.606896e+06
   2.974843e+06  -6.406172e+05
   2.034777e+06   1.711184e+06
  -1.437960e+06   3.763622e+06
  -4.588179e+06   3.628688e+06
  -4.983195e+06   8.302828e+05
  -2.856517e+06  -2.881344e+06
  -4.280672e+05  -4.858552e+06
   6.192366e+05  -4.127248e+06
   5.845826e+05  -2.273430e+06
   8.196786e+05  -1.363644e+06
   1.915404e+06  -1.434008e+06
   3.092509e+06  -8.014814e+05
   3.118108e+06   1.273254e+06
   1.525901e+06   3.195262e+06
  -9.045112e+05   2.805502e+06
  -2.575851e+06   5.172338e+04
  -2.156640e+06  -2.732054e+06
   2.396349e+05  -3.166895e+06
   2.823951e+06  -1.066596e+06
   3.517764e+06   1.666165e+06
   1.921629e+06   3.018962e+06
  -2.939588e+05   2.574885e+06
  -1.263771e+06   1.467376e+06
  -1.004242e+06   9.528145e+05
  -1.161064e+06   1.142730e+06
  -2.673420e+06   1.059144e+06
  -4.250414e+06  -2.011710e+05
  -3.659887e+06  -2.404861e+06
  -4.211085e+05  -4.195446e+06
   3.263068e+06  -4.140013e+06
   4.523322e+06  -1.974674e+06
   2.650906e+06   9.429605e+05
  -2.812152e+05   2.533442e+06
  -1.582030e+06   1.772321e+06
  -5.269619e+05  -2.432332e+05
   1.266641e+06  -1.298380e+06
   1.793707e+06  -4.023890e+05
   6.857622e+05   1.111323e+06
  -6.964470e+05   1.208426e+06
  -8.491615e+05  -2.872811e+05
   4.131234e+05  -1.351735e+06
   1.877787e+06  -1.819181e+05
   2.014373e+06   2.512284e+06
   2.399943e+05   4.112943e+06
  -2.483563e+06   2.872196e+06
  -4.203758e+06  -3.064913e+05
  -3.518421e+06  -2.887690e+06
  -9.363739e+05  -3.179590e+06
   1.416050e+06  -1.670751e+06
   1.786013e+06  -1.781578e+05
   5.223645e+05   2.669583e+04
  -4.279954e+05  -7.539165e+05
   2.220783e+05  -1.250483e+06
   1.659644e+06  -6.621986e+05
   2.008745e+06   5.520656e+05
   6.100075e+05   1.232030e+06
  -1.111692e+06   7.447208e+05
  -1.188008e+06  -3.818071e+05
   6.673549e+05  -9.704842e+05
   2.608584e+06  -2.846550e+05
   2.508409e+06   1.283497e+06
   1.767384e+05   2.473207e+06
  -2.385013e+06   2.190723e+06
  -2.967683e+06   5.384908e+05
  -1.306372e+06  -1.125994e+06
   7.942291e+05  -1.387652e+06
   1.359859e+06  -2.056925e+05
   1.118558e+05   9.848107e+05
  -1.499607e+06   7.941745e+05
  -1.862162e+06  -5.963619e+05
  -6.877387e+05  -1.672440e+06
   8.729829e+05  -1.323940e+06
   1.394690e+06  -5.129849e+04
   5.216106e+05   6.917932e+05
  -6.818275e+05   1.391058e+05
  -7.596535e+05  -1.029404e+06
   6.019518e+05  -1.482048e+06
   2.111637e+06  -5.808455e+05
   2.146169e+06   1.050517e+06
   5.032530e+05   2.118999e+06
  -1.332748e+06   1.791958e+06
  -1.757723e+06   4.090443e+05
  -6.751240e+05  -8.253803e+05
   5.886622e+05  -9.446994e+05
   8.068114e+05  -1.100211e+05
   3.143442e+04   6.343073e+05
  -6.964265e+05   5.246690e+05
  -5.538803e+05  -1.068915e+05
   2.405444e+05  -2.909750e+05
   6.912146e+05   3.800286e+05
   5.373352e+04   1.199880e+06
  -1.327771e+06   1.073693e+06
  -2.214288e+06  -2.844250e+05
  -1.633768e+06  -1.958723e+06
   1.037293e+05  -2.632134e+06
   1.660346e+06  -1.778452e+06
   1.985862e+06  -1.183458e+05
   1.263520e+06   1.067340e+06
   4.922071e+05   1.111439e+06
   3.047991e+05   4.953926e+05
   3.984021e+05   2.136762e+05
   8.645873e+04   6.262920e+05
  -7.872460e+05   1.049556e+06
  -1.566309e+06   5.789921e+05
  -1.365427e+06  -7.482797e+05
   3.593470e+04  -1.791304e+06
   1.788077e+06  -1.405815e+06
   2.510423e+06   3.382966e+05
   1.454551e+06   2.116765e+06
  -7.322240e+05   2.539657e+06
  -2.475224e+06   1.378466e+06
  -2.629730e+06  -3.335940e+05
  -1.413898e+06  -1.341048e+06
  -2.545297e+04  -1.283673e+06
   5.669713e+05  -8.320926e+05
   4.037033e+05  -7.955846e+05
   2.323495e+05  -1.185115e+06
   5.954949e+05  -1.234379e+06
   1.249432e+06  -3.433260e+05
   1.425915e+06   1.108771e+06
   6.592622e+05   2.005783e+06
  -6.230776e+05   1.564335e+06
  -1.390138e+06   1.106343e+05
  -9.877854e+05  -1.214923e+06
   1.723588e+05  -1.478114e+06
   1.004219e+06  -6.846292e+05
   8.558076e+05   3.866862e+05
   1.316700e+05   9.615324e+05
  -2.529947e+05   8.815442e+05
   4.978095e+04   5.521650e+05
   4.305444e+05   4.000523e+05
   5.081872e+04   4.327485e+05
  -1.114045e+06   3.125815e+05
  -2.075362e+06  -1.997272e+05
  -1.766548e+06  -9.265969e+05
  -1.938556e+05  -1.390419e+06
   1.437810e+06  -1.225207e+06
   1.856347e+06  -5.086790e+05
   9.622855e+05   2.531683e+05
  -1.652899e+05   5.075827e+05
  -4.767434e+05   1.510625e+05
   2.403285e+04  -3.154402e+05
   5.351839e+05  -2.603961e+05
   5.027103e+05   3.480084e+05
   1.396958e+05   8.170321e+05
  -3.150539e+04   5.271773e+05
   1.542669e+05  -2.244778e+05
   4.045617e+05  -4.764677e+05
   3.365599e+05   2.139168e+05
  -1.827732e+05   1.121952e+06
  -9.025306e+05   1.148577e+06
  -1.256095e+06   1.290708e+05
  -7.572063e+05  -9.541080e+05
   3.993674e+05  -1.079687e+06
   1.223991e+06  -2.513534e+05
   7.874501e+05   6.336740e+05
  -6.745297e+05   7.583108e+05
  -1.773288e+06   7.240103e+04
  -1.339031e+06  -8.184798e+05
   2.988226e+05  -1.212972e+06
   1.615474e+06  -8.246427e+05
   1.476690e+06   1.249765e+04
   2.578451e+05   5.802356e+05
  -6.599331e+05   3.993731e+05
  -3.700734e+05  -2.482721e+05
   6.860500e+05  -5.116687e+05
   1.265274e+06   1.578486e+05
   6.275699e+05   1.311671e+06
  -7.401940e+05   1.803819e+06
  -1.651202e+06   9.098867e+05
  -1.382579e+06  -8.284502e+05
  -2.732849e+05  -1.970062e+06
   7.461952e+05  -1.521683e+06
   1.036933e+06   4.822110e+04
   6.264329e+05   1.255812e+06
  -5.693378e+04   1.132669e+06
  -5.635443e+05   1.718337e+05
  -6.229598e+05  -4.081021e+05
  -2.946072e+05  -1.720766e+05
  -5.056412e+03   1.376663e+05
  -1.565698e+05  -2.414054e+05
  -5.351810e+05  -9.987096e+05
  -3.872562e+05  -1.182447e+06
   6.078134e+05  -4.772219e+05
   1.646419e+06   4.454671e+05
   1.552448e+06   8.489653e+05
   2.450380e+05   7.246574e+05
  -1.018533e+06   4.844327e+05
  -1.101086e+06   2.826853e+05
  -3.007151e+05   1.718612e+04
   1.915752e+05  -2.417259e+05
  -9.868580e+04  -2.813025e+05
  -4.289853e+05  -1.584214e+05
  -7.960223e+03  -1.536688e+05
   8.555522e+05  -2.352880e+05
   1.120556e+06   1.913724e+04
   2.954401e+05   7.239734e+05
  -1.004797e+06   1.229638e+06
  -1.733633e+06   7.707978e+05
  -1.382878e+06  -5.071694e+05
  -2.899993e+05  -1.540815e+06
   7.565787e+05  -1.468052e+06
   1.122736e+06  -5.254754e+05
   7.395724e+05   3.039693e+05
   9.931258e+04   3.849888e+05
  -1.902661e+05   3.344149e+03
   4.116376e+04  -1.060415e+05
   3.946402e+05   3.472415e+05
   3.434429e+05   8.647542e+05
  -2.020452e+05   7.146449e+05
  -7.705606e+05  -1.960391e+05
  -7.561279e+05  -1.097262e+06
  -1.537978e+04  -1.107174e+06
   8.891869e+05  -1.743012e+05
   1.105880e+06   8.645912e+05
   3.261516e+05   1.167891e+06
  -7.784644e+05   6.638548e+05
  -1.154920e+06  -8.940221e+04
  -5.183926e+05  -5.703189e+05
   2.903202e+05  -6.317532e+05
   3.037237e+05  -3.770486e+05
  -3.783456e+05  -3.945375e+04
  -7.316300e+05   4.356157e+04
  -1.281679e+05  -3.105586e+05
   8.747433e+05  -7.718382e+05
   1.251770e+06  -6.948180e+05
   7.172742e+05   9.251794e+04
  -9.355279e+04   9.008243e+05
  -4.831597e+05   8.916649e+05
  -3.531491e+05   1.023388e+05
  -1.568172e+04  -5.648011e+05
   2.714432e+05  -4.199919e+05
   3.961213e+05   2.458164e+05
   2.743489e+05   6.231061e+05
  -7.727574e+04   3.772159e+05
  -4.223741e+05  -8.122263e+04
  -4.842111e+05  -2.266509e+05
  -2.605031e+05  -3.820912e+04
  -1.194025e+04   8.879513e+04
   8.044311e+04  -1.113579e+05
   1.088402e+05  -4.516078e+05
   2.363636e+05  -5.012204e+05
   4.104583e+05  -7.172672e+04
   3.832726e+05   5.213398e+05
   1.483065e+04   7.220177e+05
  -4.862009e+05   3.048693e+05
  -6.646816e+05  -3.548647e+05
  -2.405322e+05  -6.565055e+05
   5.127967e+05  -3.912915e+05
   9.021819e+05   1.082906e+05
   4.984078e+05   4.019386e+05
  -3.130065e+05   3.675727e+05
  -6.654921e+05   1.711167e+05
  -1.961104e+05   5.827512e+03
   4.829321e+05  -1.008779e+04
   4.899543e+05   1.650178e+05
  -2.581904e+05   3.878403e+05
  -9.403098e+05   3.141612e+05
