
 $NMID
 id='ANONYMOUS ', fmtdat='(2E16.6)'
 volume=1.0
 tramp=1.0
 $END
   4.032025e+07  -1.560087e+06
   2.634840e+07   2.188313e+07
  -2.286770e+06   2.697824e+07
  -1.863748e+07   1.369814e+07
  -1.320510e+07  -2.144073e+06
   9.039363e+05  -7.069319e+06
   7.606214e+06  -1.060507e+06
   3.841452e+06   6.820835e+06
  -3.328555e+06   8.583502e+06
  -7.186054e+06   3.015414e+06
  -5.754064e+06  -4.580915e+06
  -8.711821e+05  -7.023639e+06
   3.181311e+06  -1.985389e+06
   2.447570e+06   5.030957e+06
  -2.465920e+06   6.158282e+06
  -6.151500e+06  -1.094711e+05
  -4.160812e+06  -7.473324e+06
   2.082073e+06  -9.198224e+06
   7.277013e+06  -4.722934e+06
   7.837567e+06   1.498782e+06
   4.424557e+06   5.272425e+06
   3.663413e+05   5.508611e+06
  -1.169860e+06   3.736901e+06
   3.265159e+05   2.484396e+06
   1.849442e+06   3.164643e+06
  -2.473006e+05   4.431518e+06
  -5.394851e+06   3.495243e+06
  -8.394880e+06  -1.677365e+05
  -5.485009e+06  -3.617053e+06
   6.136559e+05  -3.886719e+06
   3.824233e+06  -1.404424e+06
   1.905663e+06   1.056579e+06
  -1.814634e+06   1.580357e+06
  -3.339061e+06   1.051205e+05
  -2.060481e+06  -2.359024e+06
   2.019044e+05  -3.944495e+06
   1.755980e+06  -2.719932e+06
   1.796934e+06   7.249930e+05
   5.172563e+05   2.632227e+06
  -5.379991e+05   4.605398e+05
   2.849902e+05  -2.899657e+06
   2.218075e+06  -2.327832e+06
   2.264102e+06   2.164530e+06
  -8.610114e+05   4.688107e+06
  -4.241552e+06   1.289563e+06
  -3.806758e+06  -4.494103e+06
   7.348131e+05  -6.114896e+06
   5.380921e+06  -2.040068e+06
   6.031071e+06   3.226816e+06
   2.258783e+06   5.008002e+06
  -2.723379e+06   2.822047e+06
  -4.916966e+06  -6.632688e+05
  -2.751827e+06  -2.674616e+06
   1.485910e+06  -2.050766e+06
   3.619306e+06   2.668987e+05
   1.857163e+06   1.871460e+06
  -1.192032e+06   1.160924e+06
  -1.723966e+06  -7.229105e+05
   5.147507e+05  -1.213345e+06
   2.117014e+06   3.786237e+05
   5.898459e+05   2.073021e+06
  -2.582115e+06   1.859314e+06
  -4.000853e+06  -1.810959e+05
  -2.181373e+06  -2.652092e+06
   1.480383e+06  -4.278013e+06
   4.526281e+06  -4.002111e+06
   5.257199e+06  -1.238251e+06
   3.500252e+06   2.799563e+06
   6.803446e+05   5.205282e+06
  -1.145105e+06   4.294245e+06
  -1.163836e+06   1.756028e+06
  -5.848891e+05   5.306372e+05
  -9.854555e+05   1.045113e+06
  -2.232319e+06   1.111242e+06
  -2.751243e+06  -5.685842e+05
  -1.597041e+06  -2.464947e+06
   4.976659e+05  -2.328391e+06
   1.993691e+06  -4.758151e+04
   1.793896e+06   2.356330e+06
  -1.518615e+05   2.909377e+06
  -2.648538e+06   1.264927e+06
  -3.756544e+06  -1.347543e+06
  -2.444837e+06  -3.160502e+06
   9.066690e+04  -3.191243e+06
   1.606003e+06  -2.014511e+06
   1.511125e+06  -1.054882e+06
   1.447146e+06  -9.137603e+05
   2.718046e+06  -7.476470e+05
   4.140634e+06   4.693596e+05
   3.427042e+06   2.499766e+06
   2.390010e+05   4.004189e+06
  -3.139010e+06   3.829838e+06
  -4.177105e+06   1.908167e+06
  -2.506698e+06  -6.823540e+05
   4.817739e+04  -2.258188e+06
   1.298879e+06  -1.734889e+06
   5.093528e+05   1.399370e+05
  -1.140095e+06   1.231700e+06
  -1.774345e+06   3.786905e+05
  -7.634260e+05  -1.099877e+06
   5.994250e+05  -1.101457e+06
   6.259211e+05   3.511401e+05
  -7.401226e+05   1.029942e+06
  -1.872538e+06  -5.114409e+05
  -1.340207e+06  -2.942141e+06
   6.760863e+05  -3.721995e+06
   2.797376e+06  -1.964562e+06
   3.677437e+06   8.945467e+05
   2.773020e+06   2.802149e+06
   6.218046e+05   2.818801e+06
  -1.299736e+06   1.487017e+06
  -1.615269e+06   1.699465e+05
  -4.883338e+05  -3.986325e+04
   3.734721e+05   7.294728e+05
  -3.050662e+05   1.251643e+06
  -1.717194e+06   5.998035e+05
  -1.955299e+06  -6.981029e+05
  -4.833917e+05  -1.286002e+06
   1.110387e+06  -6.308039e+05
   1.003434e+06   4.254961e+05
  -7.566583e+05   7.274357e+05
  -2.339897e+06  -5.051376e+04
  -2.046413e+06  -1.326057e+06
   7.408250e+04  -2.164549e+06
   2.298832e+06  -1.831754e+06
   2.777209e+06  -3.618846e+05
   1.212998e+06   1.160666e+06
  -8.241612e+05   1.388119e+06
  -1.402313e+06   1.922633e+05
  -1.484038e+05  -9.867997e+05
   1.457057e+06  -7.273239e+05
   1.727985e+06   6.806933e+05
   4.834147e+05   1.622066e+06
  -9.707556e+05   1.115156e+06
  -1.296616e+06  -1.392964e+05
  -3.718155e+05  -7.267193e+05
   7.149772e+05  -9.661866e+04
   7.143085e+05   1.006163e+06
  -5.781481e+05   1.391501e+06
  -1.985504e+06   5.212430e+05
  -2.003472e+06  -1.028920e+06
  -4.111172e+05  -2.025503e+06
   1.351886e+06  -1.649086e+06
   1.688752e+06  -2.853238e+05
   5.641049e+05   8.286970e+05
  -6.134246e+05   8.415706e+05
  -6.964126e+05   7.492740e+04
   5.997026e+04  -4.888037e+05
   5.931454e+05  -3.386922e+05
   3.250325e+05   1.107149e+05
  -3.516752e+05   1.153564e+05
  -5.954839e+05  -5.176270e+05
   8.047773e+04  -1.161500e+06
   1.318619e+06  -9.413513e+05
   2.070240e+06   3.565412e+05
   1.476538e+06   1.894919e+06
  -1.820973e+05   2.434846e+06
  -1.606333e+06   1.521945e+06
  -1.782207e+06  -3.220051e+04
  -1.004557e+06  -9.759862e+05
  -3.563590e+05  -8.632360e+05
  -3.554370e+05  -3.372533e+05
  -4.951784e+05  -2.419209e+05
  -8.875227e+04  -6.670816e+05
   8.138071e+05  -9.372736e+05
   1.466470e+06  -4.183330e+05
   1.154915e+06   7.331841e+05
  -1.668355e+05   1.574945e+06
  -1.714217e+06   1.176757e+06
  -2.293196e+06  -4.249842e+05
  -1.230653e+06  -2.053491e+06
   8.615695e+05  -2.368826e+06
   2.439073e+06  -1.147545e+06
   2.410787e+06   5.083328e+05
   1.132012e+06   1.322789e+06
  -1.131832e+05   1.086041e+06
  -4.838497e+05   6.326417e+05
  -2.404691e+05   7.232139e+05
  -1.623250e+05   1.187970e+06
  -6.124623e+05   1.212526e+06
  -1.225206e+06   3.130864e+05
  -1.319921e+06  -1.065533e+06
  -5.663491e+05  -1.884310e+06
   6.148100e+05  -1.438966e+06
   1.293248e+06  -3.813391e+04
   8.620620e+05   1.216262e+06
  -2.834752e+05   1.392736e+06
  -1.060788e+06   5.276614e+05
  -8.164317e+05  -5.275835e+05
  -5.563061e+03  -9.937745e+05
   3.894879e+05  -8.143890e+05
   2.777451e+04  -4.736905e+05
  -4.089150e+05  -3.560181e+05
  -4.774610e+04  -3.918635e+05
   1.094820e+06  -2.466098e+05
   1.994889e+06   2.683001e+05
   1.627136e+06   9.621558e+05
   6.984737e+04   1.372139e+06
  -1.466422e+06   1.137467e+06
  -1.788716e+06   3.658458e+05
  -8.757092e+05  -3.720481e+05
   2.042023e+05  -5.219095e+05
   4.826161e+05  -8.805656e+04
   7.493913e+03   3.506419e+05
  -4.715346e+05   2.409982e+05
  -4.708541e+05  -3.355566e+05
  -1.796097e+05  -7.339556e+05
  -2.601720e+04  -4.759403e+05
  -1.488616e+05   1.510123e+05
  -3.413168e+05   3.593262e+05
  -2.936587e+05  -2.197505e+05
   1.691937e+05  -1.009242e+06
   8.764916e+05  -1.059554e+06
   1.257101e+06  -1.470323e+05
   7.676482e+05   8.959489e+05
  -3.931222e+05   1.066551e+06
  -1.189633e+06   2.803635e+05
  -7.246021e+05  -5.864667e+05
   6.726288e+05  -6.738262e+05
   1.625241e+06   3.294217e+04
   1.122610e+06   8.359138e+05
  -3.982332e+05   1.066043e+06
  -1.521317e+06   6.076197e+05
  -1.310930e+06  -1.220041e+05
  -1.801320e+05  -5.342589e+05
   6.396948e+05  -3.161048e+05
   3.651628e+05   2.625088e+05
  -6.110876e+05   4.894698e+05
  -1.171996e+06  -1.223642e+05
  -6.146044e+05  -1.196725e+06
   6.482315e+05  -1.675290e+06
   1.510042e+06  -8.496849e+05
   1.261415e+06   7.738350e+05
   2.108993e+05   1.813054e+06
  -7.348728e+05   1.348189e+06
  -9.503429e+05  -1.222391e+05
  -4.961041e+05  -1.192014e+06
   1.521957e+05  -1.017943e+06
   5.486871e+05  -1.187652e+05
   5.166370e+05   3.892478e+05
   2.135728e+05   1.569883e+05
   3.057331e+04  -1.135566e+05
   2.180470e+05   2.535449e+05
   4.987607e+05   9.495769e+05
   2.618565e+05   1.100058e+06
  -6.486540e+05   4.228785e+05
  -1.499414e+06  -4.544808e+05
  -1.352866e+06  -8.334844e+05
  -2.018341e+05  -6.900332e+05
   9.009396e+05  -4.210614e+05
   1.008127e+06  -2.104666e+05
   3.268174e+05   1.733462e+04
  -1.618783e+05   2.217384e+05
   1.824807e+04   2.398177e+05
   3.222185e+05   1.297094e+05
   2.924665e+04   1.346205e+05
  -7.223554e+05   2.148063e+05
  -1.042619e+06  -1.929246e+04
  -3.577799e+05  -6.735789e+05
   8.861175e+05  -1.149928e+06
   1.658383e+06  -7.355151e+05
   1.347637e+06   4.466576e+05
   2.640675e+05   1.417237e+06
  -7.427717e+05   1.370173e+06
  -1.044504e+06   5.110893e+05
  -6.645575e+05  -2.596350e+05
  -1.136173e+05  -3.553468e+05
   1.137885e+05  -3.013702e+04
  -6.775832e+04   5.607259e+04
  -3.314660e+05  -3.532626e+05
  -2.760633e+05  -8.116327e+05
   1.843553e+05  -6.706615e+05
   6.912209e+05   1.526784e+05
   7.143395e+05   9.804055e+05
   6.812875e+04   1.022477e+06
  -7.788900e+05   2.026793e+05
  -1.022773e+06  -7.583519e+05
  -3.256560e+05  -1.084337e+06
   7.143701e+05  -6.478518e+05
   1.096964e+06   7.800878e+04
   5.136564e+05   5.738826e+05
  -2.745124e+05   6.384320e+05
  -3.366127e+05   3.659358e+05
   2.901889e+05   2.922711e+04
   6.621882e+05  -3.586845e+04
   1.351865e+05   2.977473e+05
  -8.239616e+05   6.934097e+05
  -1.225917e+06   5.885538e+05
  -7.265242e+05  -1.330745e+05
   9.212828e+04  -8.551311e+05
   5.075932e+05  -8.495847e+05
   3.790507e+05  -1.391606e+05
   3.255681e+04   4.955088e+05
  -2.422040e+05   4.142716e+05
  -3.523727e+05  -1.834921e+05
  -2.529444e+05  -5.780825e+05
   5.602601e+04  -3.927865e+05
   3.889516e+05   5.850685e+04
   4.688488e+05   2.497442e+05
   2.463277e+05   7.097203e+04
  -1.970884e+04  -1.180937e+05
  -8.988670e+04   1.930615e+04
  -4.129542e+04   3.729157e+05
  -1.162822e+05   5.015460e+05
  -3.342696e+05   1.492332e+05
  -4.065880e+05  -4.164195e+05
  -9.389387e+04  -6.466600e+05
   4.242711e+05  -2.974400e+05
   6.401783e+05   2.976581e+05
   2.375809e+05   5.863394e+05
  -4.943808e+05   3.660484e+05
  -8.614326e+05  -8.367616e+04
  -4.719017e+05  -3.749593e+05
   2.884294e+05  -3.753805e+05
   6.251089e+05  -1.999992e+05
   2.209757e+05  -1.769012e+04
  -3.842010e+05   3.602341e+04
  -4.204036e+05  -1.046435e+05
   2.030106e+05  -3.142249e+05
   7.983561e+05  -2.695593e+05
