
 $NMID
 id='ANONYMOUS ', fmtdat='(2E16.6)'
 volume=1.0
 tramp=1.0
 $END
  -1.028541e+07  -1.396499e+06
  -5.207476e+06  -6.603399e+06
   2.091841e+06  -6.391898e+06
   5.040208e+06  -2.352042e+06
   2.754758e+06   1.194139e+06
  -7.063928e+05   1.769178e+06
  -1.882366e+06   7.328626e+04
  -7.284742e+05  -1.754126e+06
   9.822687e+05  -2.031526e+06
   1.838338e+06  -4.903714e+05
   1.345199e+06   1.506293e+06
  -7.099604e+04   1.986954e+06
  -1.139547e+06   4.288314e+05
  -7.711013e+05  -1.434301e+06
   6.151893e+05  -1.509175e+06
   1.413601e+06   2.373069e+05
   6.744906e+05   1.918694e+06
  -9.194883e+05   2.001138e+06
  -2.000614e+06   6.731251e+05
  -1.860378e+06  -8.742080e+05
  -7.736287e+05  -1.683025e+06
   3.907225e+05  -1.488236e+06
   7.259225e+05  -7.073977e+05
   5.949332e+04  -2.075956e+05
  -6.216459e+05  -5.331304e+05
  -1.059635e+05  -1.169446e+06
   1.428175e+06  -1.049315e+06
   2.348176e+06   6.478285e+04
   1.510871e+06   1.201585e+06
  -2.800925e+05   1.360772e+06
  -1.272906e+06   5.902640e+05
  -7.940293e+05  -3.066456e+05
   2.984657e+05  -6.473801e+05
   8.722558e+05  -2.335116e+05
   5.909767e+05   6.258634e+05
  -1.389991e+05   1.142855e+06
  -6.825952e+05   6.388767e+05
  -6.011188e+05  -4.922707e+05
  -2.274575e+04  -9.426309e+05
   3.641561e+05  -1.343702e+05
   6.080333e+04   8.218842e+05
  -5.112258e+05   5.458524e+05
  -4.565424e+05  -6.317616e+05
   3.752434e+05  -1.052823e+06
   1.076857e+06  -1.386115e+04
   7.634503e+05   1.303487e+06
  -3.905692e+05   1.429365e+06
  -1.390128e+06   3.377835e+05
  -1.423363e+06  -8.321274e+05
  -4.864847e+05  -1.177884e+06
   6.918043e+05  -6.670431e+05
   1.174317e+06   1.816239e+05
   5.679746e+05   7.164080e+05
  -5.085616e+05   5.171130e+05
  -9.511962e+05  -1.864100e+05
  -3.871386e+05  -6.160860e+05
   3.885740e+05  -3.241312e+05
   4.432559e+05   2.204050e+05
  -1.217944e+05   2.775948e+05
  -4.196571e+05  -1.601660e+05
   2.463563e+03  -4.563302e+05
   6.669603e+05  -2.481377e+05
   8.558881e+05   2.356387e+05
   3.658845e+05   6.872366e+05
  -4.815944e+05   9.836805e+05
  -1.195233e+06   9.060978e+05
  -1.354129e+06   2.033016e+05
  -8.406592e+05  -8.320135e+05
  -4.457837e+04  -1.367718e+06
   3.978770e+05  -9.860352e+05
   2.686525e+05  -2.760862e+05
   6.305400e+03  -7.492170e+04
   1.245256e+05  -3.797826e+05
   5.674918e+05  -4.662707e+05
   8.276359e+05   3.827518e+04
   5.682855e+05   6.633843e+05
  -5.248501e+04   7.301447e+05
  -5.712431e+05   1.418689e+05
  -5.747938e+05  -5.737547e+05
   2.962750e+03  -8.049300e+05
   7.427604e+05  -3.579234e+05
   1.002520e+06   4.140039e+05
   5.409801e+05   9.080551e+05
  -1.767796e+05   8.121391e+05
  -5.026326e+05   3.867385e+05
  -3.720939e+05   1.239057e+05
  -2.960644e+05   1.626585e+05
  -5.984685e+05   1.940380e+05
  -9.564635e+05  -7.816241e+04
  -8.224043e+05  -5.764785e+05
  -1.063411e+05  -9.710116e+05
   7.115946e+05  -9.799924e+05
   1.048416e+06  -5.299486e+05
   7.122160e+05   1.671853e+05
   4.026913e+04   6.395513e+05
  -3.747608e+05   5.072241e+05
  -2.049618e+05  -4.823626e+04
   2.816056e+05  -3.792892e+05
   5.019885e+05  -1.235769e+05
   2.253785e+05   3.295359e+05
  -1.755514e+05   3.627995e+05
  -2.209569e+05  -3.261683e+04
   9.469863e+04  -2.653072e+05
   3.679097e+05   4.718000e+04
   2.938771e+05   5.987059e+05
  -8.556644e+04   8.071576e+05
  -5.386512e+05   4.642935e+05
  -8.142398e+05  -1.475340e+05
  -7.063976e+05  -6.033899e+05
  -2.170618e+05  -6.610830e+05
   3.037882e+05  -3.761710e+05
   4.209691e+05  -4.765976e+04
   1.226663e+05   2.066993e+04
  -1.228416e+05  -1.762168e+05
   5.162895e+04  -3.279500e+05
   4.364505e+05  -1.781603e+05
   5.241484e+05   1.595882e+05
   1.622351e+05   3.501665e+05
  -2.673479e+05   2.336003e+05
  -3.070727e+05  -3.534391e+04
   8.291456e+04  -1.909536e+05
   5.083601e+05  -8.776318e+04
   5.288006e+05   2.218118e+05
   6.342736e+04   5.083585e+05
  -5.124790e+05   4.951517e+05
  -6.877640e+05   1.226749e+05
  -3.139843e+05  -3.023271e+05
   2.198097e+05  -3.717135e+05
   3.826103e+05  -4.340769e+04
   5.924546e+04   2.812807e+05
  -3.642695e+05   2.223740e+05
  -4.524017e+05  -1.426761e+05
  -1.533391e+05  -4.051327e+05
   2.223280e+05  -3.103433e+05
   3.432570e+05  -2.118454e+03
   1.410081e+05   1.861469e+05
  -1.539031e+05   8.081296e+04
  -2.121012e+05  -1.922881e+05
   7.931176e+04  -3.411942e+05
   4.549094e+05  -1.731576e+05
   5.049314e+05   2.139084e+05
   1.287356e+05   4.955235e+05
  -3.236556e+05   4.235613e+05
  -4.345888e+05   7.593564e+04
  -1.699111e+05  -2.277991e+05
   1.415284e+05  -2.539660e+05
   2.129018e+05  -5.818561e+04
   6.354763e+04   1.267636e+05
  -9.398572e+04   1.452448e+05
  -1.042998e+05   4.428558e+04
   1.212019e+04  -1.002012e+04
   9.795400e+04   8.232539e+04
  -4.469582e+03   2.318638e+05
  -2.787205e+05   2.239415e+05
  -4.845003e+05  -5.126916e+04
  -3.725649e+05  -4.300443e+05
   1.991539e+04  -5.955519e+05
   3.745086e+05  -3.987639e+05
   4.352594e+05  -1.767532e+04
   2.659757e+05   2.366402e+05
   1.099005e+05   2.343030e+05
   7.970383e+04   1.076471e+05
   8.125291e+04   5.530294e+04
  -5.077240e+03   1.258384e+05
  -1.712475e+05   1.932619e+05
  -2.993115e+05   1.067575e+05
  -2.572853e+05  -1.369214e+05
   3.318639e+03  -3.481380e+05
   3.597296e+05  -2.938456e+05
   5.383946e+05   5.907021e+04
   3.333626e+05   4.562896e+05
  -1.520331e+05   5.686890e+05
  -5.537652e+05   3.130601e+05
  -5.896312e+05  -7.371143e+04
  -3.156099e+05  -2.926903e+05
  -1.581294e+04  -2.737623e+05
   1.055457e+05  -1.855033e+05
   7.722834e+04  -1.978173e+05
   5.750746e+04  -2.887014e+05
   1.464999e+05  -2.876685e+05
   2.907429e+05  -7.952478e+04
   3.317710e+05   2.476308e+05
   1.621413e+05   4.548955e+05
  -1.333818e+05   3.649527e+05
  -3.169177e+05   3.837267e+04
  -2.276779e+05  -2.675745e+05
   3.701269e+04  -3.299676e+05
   2.198348e+05  -1.495997e+05
   1.801909e+05   8.736150e+04
   2.376736e+04   2.081697e+05
  -5.103634e+04   1.904322e+05
   1.415581e+04   1.248457e+05
   8.700913e+04   9.158867e+04
   3.744051e+03   8.928652e+04
  -2.395057e+05   5.871911e+04
  -4.477978e+05  -4.547424e+04
  -3.931592e+05  -1.976844e+05
  -5.439106e+04  -3.042921e+05
   3.161913e+05  -2.764866e+05
   4.193298e+05  -1.196848e+05
   2.162587e+05   5.146889e+04
  -4.019243e+04   1.076439e+05
  -9.977332e+04   2.953166e+04
   2.415634e+04  -6.661970e+04
   1.315925e+05  -4.673948e+04
   1.063427e+05   8.875384e+04
   1.959584e+04   1.901959e+05
  -1.196575e+04   1.260030e+05
   2.809502e+04  -4.350669e+04
   7.249287e+04  -1.113874e+05
   5.733508e+04   2.928245e+04
  -3.925794e+04   2.309633e+05
  -1.819451e+05   2.471270e+05
  -2.619549e+05   2.827236e+04
  -1.622236e+05  -2.098044e+05
   8.941962e+04  -2.333392e+05
   2.722390e+05  -4.512065e+04
   1.728220e+05   1.466989e+05
  -1.533516e+05   1.645378e+05
  -3.935147e+05   1.177920e+04
  -2.944906e+05  -1.766395e+05
   6.451482e+04  -2.615443e+05
   3.525329e+05  -1.852493e+05
   3.261221e+05  -6.083412e+03
   6.156243e+04   1.276189e+05
  -1.449602e+05   9.676328e+04
  -8.642212e+04  -5.100833e+04
   1.511282e+05  -1.186781e+05
   2.867790e+05   3.224500e+04
   1.412728e+05   2.988079e+05
  -1.752166e+05   4.091008e+05
  -3.808544e+05   1.995703e+05
  -3.102559e+05  -1.945308e+05
  -5.530430e+04  -4.454646e+05
   1.672357e+05  -3.414673e+05
   2.279346e+05   6.300172e+03
   1.447148e+05   2.738421e+05
   1.771711e+03   2.515552e+05
  -1.171066e+05   4.407790e+04
  -1.452356e+05  -8.390099e+04
  -7.565634e+04  -3.374834e+04
  -8.584372e+02   3.317979e+04
  -2.842847e+04  -5.385797e+04
  -1.201726e+05  -2.260494e+05
  -9.542704e+04  -2.671679e+05
   1.307033e+05  -1.059381e+05
   3.724842e+05   1.018162e+05
   3.524385e+05   1.885994e+05
   5.200066e+04   1.583678e+05
  -2.345670e+05   1.075270e+05
  -2.465264e+05   6.513931e+04
  -5.971226e+04   3.136285e+03
   4.864493e+04  -5.733244e+04
  -2.486425e+04  -6.217951e+04
  -1.023488e+05  -2.943526e+04
  -2.696615e+03  -3.050033e+04
   1.958106e+05  -5.436188e+04
   2.510263e+05   3.623579e+03
   5.726682e+04   1.665987e+05
  -2.354405e+05   2.771670e+05
  -3.898588e+05   1.641172e+05
  -3.030491e+05  -1.254309e+05
  -5.977129e+04  -3.474764e+05
   1.683331e+05  -3.218024e+05
   2.492051e+05  -1.126866e+05
   1.666946e+05   6.635125e+04
   2.248466e+04   8.383381e+04
  -4.771425e+04   8.668009e+02
   3.655506e+03  -2.602002e+04
   9.020013e+04   7.179280e+04
   8.368472e+04   1.910907e+05
  -4.378175e+04   1.636379e+05
  -1.785646e+05  -4.281961e+04
  -1.725144e+05  -2.533784e+05
   3.801232e+03  -2.557396e+05
   2.098389e+05  -3.553160e+04
   2.497609e+05   2.043228e+05
   6.608539e+04   2.652887e+05
  -1.793730e+05   1.424492e+05
  -2.549805e+05  -2.456122e+04
  -1.095886e+05  -1.227899e+05
   6.481122e+04  -1.336839e+05
   6.034091e+04  -8.294728e+04
  -9.179289e+04  -1.248932e+04
  -1.638242e+05   7.470638e+03
  -2.396734e+04  -6.935620e+04
   1.977620e+05  -1.731469e+05
   2.755444e+05  -1.561133e+05
   1.529876e+05   2.188181e+04
  -2.516299e+04   2.017043e+05
  -1.070692e+05   1.937133e+05
  -7.529189e+04   1.335764e+04
   5.752543e+02  -1.309258e+05
   6.471058e+04  -8.961536e+04
   9.086774e+04   6.193728e+04
   5.918360e+04   1.408264e+05
  -2.252425e+04   8.030274e+04
  -9.672669e+04  -2.143290e+04
  -1.052670e+05  -4.971400e+04
  -5.617661e+04  -6.759907e+03
  -7.020222e+03   1.693752e+04
   1.330153e+04  -3.340591e+04
   3.040753e+04  -1.095411e+05
   6.865508e+04  -1.131356e+05
   1.025917e+05  -7.107435e+03
   8.172300e+04   1.295080e+05
  -7.936773e+03   1.686796e+05
  -1.138971e+05   6.555370e+04
  -1.457879e+05  -8.662607e+04
  -5.083913e+04  -1.503371e+05
   1.138037e+05  -8.436611e+04
   2.001282e+05   2.987808e+04
   1.101490e+05   9.231526e+04
  -7.383419e+04   7.910744e+04
  -1.533707e+05   3.157765e+04
  -4.148525e+04  -4.518129e+03
   1.187547e+05  -2.664813e+03
   1.181717e+05   4.309059e+04
  -6.125574e+04   9.518315e+04
  -2.215430e+05   7.419600e+04
