
 $NMID
 id='ANONYMOUS ', fmtdat='(2E16.6)'
 volume=1.0
 tramp=1.0
 $END
  -5.357586e+07  -1.743474e+06
  -3.122765e+07  -3.391016e+07
   8.015674e+06  -3.589852e+07
   2.653011e+07  -1.337964e+07
   1.554433e+07   6.823085e+06
  -3.272690e+06   8.776878e+06
  -9.338556e+06  -1.230831e+06
  -2.548737e+06  -9.322572e+06
   6.024641e+06  -8.898398e+06
   9.247684e+06  -1.785644e+06
   6.545063e+06   6.144251e+06
   5.400656e+05   8.323603e+06
  -3.939521e+06   2.484168e+06
  -2.426508e+06  -5.408463e+06
   3.737836e+06  -6.293830e+06
   7.491849e+06   1.416562e+06
   4.012261e+06   9.859996e+06
  -3.899232e+06   1.117820e+07
  -9.809116e+06   5.340536e+06
  -1.023038e+07  -2.323101e+06
  -6.003745e+06  -7.349875e+06
  -3.278553e+05  -8.170759e+06
   2.876361e+06  -5.558274e+06
   1.623174e+06  -2.525356e+06
  -1.169508e+06  -2.272795e+06
  -8.862573e+04  -4.188763e+06
   5.486030e+06  -4.095895e+06
   9.430478e+06  -1.197144e+05
   6.647018e+06   4.248048e+06
  -3.245986e+04   4.890710e+06
  -3.800762e+06   2.300314e+06
  -2.409337e+06  -2.101625e+05
   7.675196e+05  -1.039041e+06
   2.425013e+06  -4.095981e+05
   2.147244e+06   1.601699e+06
   4.665727e+05   3.938131e+06
  -1.909756e+06   3.615211e+06
  -3.022503e+06  -3.128975e+05
  -1.410366e+06  -3.545538e+06
   8.292367e+05  -1.681805e+06
   2.061380e+05   2.522929e+06
  -2.462014e+06   2.216637e+06
  -2.286806e+06  -3.094112e+06
   2.392827e+06  -5.772545e+06
   6.533839e+06  -7.845596e+05
   4.643117e+06   6.702080e+06
  -2.023711e+06   8.036863e+06
  -7.153046e+06   2.092660e+06
  -6.612971e+06  -4.450543e+06
  -1.699199e+06  -5.876155e+06
   3.413084e+06  -2.590874e+06
   5.104552e+06   1.544961e+06
   2.332617e+06   3.403328e+06
  -2.333514e+06   2.068101e+06
  -4.322029e+06  -9.724270e+05
  -1.822943e+06  -2.636870e+06
   1.675053e+06  -1.269823e+06
   1.688038e+06   1.025025e+06
  -1.216813e+06   8.965687e+05
  -2.324088e+06  -1.623141e+06
   5.698686e+05  -3.173420e+06
   4.353829e+06  -1.703683e+06
   5.007208e+06   1.355271e+06
   2.137861e+06   3.822784e+06
  -1.908849e+06   5.026774e+06
  -5.050926e+06   4.541075e+06
  -6.073444e+06   1.472901e+06
  -4.301549e+06  -3.233306e+06
  -7.096927e+05  -6.021667e+06
   1.887788e+06  -4.598153e+06
   1.684260e+06  -1.223060e+06
   1.930966e+05   1.338527e+05
   1.371908e+05  -1.012419e+06
   1.748795e+06  -1.660836e+06
   2.819763e+06  -5.018142e+04
   1.922833e+06   2.062933e+06
  -1.000144e+05   2.178840e+06
  -1.621101e+06   1.541985e+05
  -1.641903e+06  -2.149579e+06
   9.713392e+04  -2.924093e+06
   2.791560e+06  -1.515798e+06
   4.320118e+06   1.343649e+06
   2.978628e+06   3.759718e+06
  -1.837726e+05   4.057996e+06
  -2.259516e+06   2.525141e+06
  -2.151088e+06   1.041264e+06
  -1.782644e+06   6.529712e+05
  -2.905819e+06   4.299633e+05
  -4.276398e+06  -8.413823e+05
  -3.383910e+06  -2.817587e+06
  -2.808289e+04  -4.100420e+06
   3.298199e+06  -3.791859e+06
   4.228393e+06  -1.973070e+06
   2.626666e+06   5.324174e+05
   1.713483e+05   2.250754e+06
  -1.184111e+06   1.879125e+06
  -5.580576e+05  -6.762349e+04
   1.132690e+06  -1.269825e+06
   1.900421e+06  -3.388245e+05
   8.639038e+05   1.220888e+06
  -5.607365e+05   1.099639e+06
  -4.428494e+05  -3.924225e+05
   1.035026e+06  -7.023730e+05
   1.801749e+06   1.237197e+06
   6.220180e+05   3.411446e+06
  -1.561010e+06   3.376432e+06
  -3.101113e+06   1.120723e+06
  -3.292981e+06  -1.457523e+06
  -2.254612e+06  -2.813029e+06
  -4.044636e+05  -2.640732e+06
   1.287420e+06  -1.431837e+06
   1.589364e+06  -1.769359e+05
   4.906424e+05   5.955598e+04
  -3.383357e+05  -7.603578e+05
   4.426181e+05  -1.318293e+06
   1.904793e+06  -5.221678e+05
   1.997364e+06   9.292753e+05
   3.515261e+05   1.414324e+06
  -1.183397e+06   5.433518e+05
  -8.891888e+05  -4.767056e+05
   8.502525e+05  -5.161190e+05
   2.182955e+06   3.519543e+05
   1.735959e+06   1.397937e+06
  -2.840851e+05   1.980354e+06
  -2.353057e+06   1.605800e+06
  -2.782411e+06   2.017356e+05
  -1.178654e+06  -1.292628e+06
   9.577646e+05  -1.464240e+06
   1.552768e+06  -1.409508e+05
   1.628681e+05   1.081100e+06
  -1.535706e+06   6.922379e+05
  -1.697254e+06  -8.241836e+05
  -3.013400e+05  -1.659547e+06
   1.109631e+06  -9.555296e+05
   1.250342e+06   3.347041e+05
   2.323602e+05   7.840154e+05
  -7.929692e+05   3.437705e+04
  -7.063616e+05  -1.073318e+06
   6.177627e+05  -1.409043e+06
   2.026047e+06  -4.854430e+05
   2.007269e+06   1.109008e+06
   3.262326e+05   2.085732e+06
  -1.483696e+06   1.603071e+06
  -1.731470e+06   1.646466e+05
  -4.812343e+05  -8.817260e+05
   6.800940e+05  -7.881336e+05
   6.427520e+05  -5.917314e+04
  -1.213795e+05   3.673852e+05
  -5.033739e+05   2.080794e+05
  -1.382978e+05  -6.753654e+04
   4.339294e+05   7.701666e+04
   5.011307e+05   6.736901e+05
  -2.319842e+05   1.177616e+06
  -1.404208e+06   8.590657e+05
  -2.071307e+06  -4.702021e+05
  -1.412119e+06  -1.984860e+06
   2.832714e+05  -2.419113e+06
   1.655153e+06  -1.376036e+06
   1.692891e+06   1.661590e+05
   8.450013e+05   9.248565e+05
   3.062359e+05   6.764241e+05
   4.650265e+05   2.445277e+05
   6.075065e+05   3.289037e+05
   6.701604e+04   7.601727e+05
  -8.973315e+05   8.777274e+05
  -1.457706e+06   2.909264e+05
  -1.037481e+06  -7.507749e+05
   2.834022e+05  -1.459957e+06
   1.751369e+06  -1.031906e+06
   2.239025e+06   5.428758e+05
   1.081192e+06   2.130247e+06
  -1.068634e+06   2.337659e+06
  -2.566381e+06   9.658503e+05
  -2.336237e+06  -7.163199e+05
  -9.303572e+05  -1.363251e+06
   2.240829e+05  -9.485392e+05
   4.078685e+05  -5.102264e+05
   1.112540e+05  -7.538030e+05
   1.471114e+05  -1.299355e+06
   7.056984e+05  -1.265199e+06
   1.300298e+06  -2.809617e+05
   1.308271e+06   1.118795e+06
   5.053629e+05   1.912322e+06
  -6.624601e+05   1.422295e+06
  -1.287344e+06  -3.557747e+04
  -7.791499e+05  -1.303023e+06
   4.238739e+05  -1.384640e+06
   1.166845e+06  -3.786770e+05
   7.892339e+05   7.105508e+05
  -1.474867e+05   1.065805e+06
  -5.496373e+05   7.669953e+05
  -9.232764e+04   4.164238e+05
   4.236719e+05   3.496059e+05
   4.906694e+04   3.859826e+05
  -1.152074e+06   1.793871e+05
  -2.051601e+06  -3.875248e+05
  -1.589978e+06  -1.078631e+06
   7.305344e+04  -1.430579e+06
   1.616785e+06  -1.095913e+06
   1.838108e+06  -2.309410e+05
   8.208796e+05   5.110585e+05
  -2.752112e+05   5.591112e+05
  -5.106824e+05   2.171753e+04
  -1.676172e+04  -4.195645e+05
   4.518986e+05  -2.466619e+05
   4.725870e+05   3.552130e+05
   2.325099e+05   7.325162e+05
   8.126041e+04   4.838053e+05
   1.390875e+05  -9.314675e+04
   2.877869e+05  -2.889185e+05
   2.699460e+05   2.387855e+05
  -1.673391e+05   9.851438e+05
  -9.276960e+05   1.043949e+06
  -1.366973e+06   1.380534e+05
  -8.282566e+05  -9.390854e+05
   4.459519e+05  -1.129115e+06
   1.268637e+06  -3.040261e+05
   7.206762e+05   5.928749e+05
  -7.195545e+05   6.306745e+05
  -1.587229e+06  -1.370815e+05
  -9.841464e+05  -8.889275e+05
   5.096913e+05  -9.760015e+05
   1.511312e+06  -4.396895e+05
   1.228268e+06   2.228108e+05
   1.208069e+05   5.175766e+05
  -6.573049e+05   2.519468e+05
  -3.777427e+05  -3.056647e+05
   5.989762e+05  -5.113272e+05
   1.185905e+06   1.074331e+05
   6.489624e+05   1.200538e+06
  -6.278220e+05   1.697292e+06
  -1.507921e+06   8.577366e+05
  -1.243132e+06  -7.873620e+05
  -1.622327e+05  -1.801044e+06
   7.725454e+05  -1.277812e+06
   9.216223e+05   2.026596e+05
   3.994903e+05   1.205292e+06
  -2.484596e+05   9.619901e+05
  -5.669178e+05   6.783572e+04
  -4.542911e+05  -3.876701e+05
  -1.560657e+05  -1.388537e+05
  -5.276623e+04   9.227661e+04
  -2.805809e+05  -3.085868e+05
  -4.910060e+05  -9.839016e+05
  -1.591078e+05  -1.083558e+06
   7.341185e+05  -3.759557e+05
   1.467542e+06   5.006243e+05
   1.257291e+06   8.678830e+05
   1.680140e+05   7.064789e+05
  -8.588257e+05   4.035376e+05
  -9.883672e+05   1.580721e+05
  -3.661624e+05  -6.721811e+04
   1.483041e+05  -2.246322e+05
   4.899029e+04  -1.984181e+05
  -2.545370e+05  -9.277792e+04
  -5.253274e+04  -1.348563e+05
   6.581505e+05  -2.298842e+05
   1.053162e+06   2.930153e+04
   4.376614e+05   7.089436e+05
  -8.585717e+05   1.175715e+06
  -1.732020e+06   7.342495e+05
  -1.426007e+06  -4.559651e+05
  -2.549803e+05  -1.416529e+06
   8.010088e+05  -1.371186e+06
   1.066399e+06  -5.300875e+05
   6.535810e+05   2.377327e+05
   1.337238e+05   3.637946e+05
  -6.140842e+04   7.547590e+04
   8.484034e+04  -5.289596e+03
   2.878774e+05   3.784123e+05
   2.276188e+05   8.161433e+05
  -1.899344e+05   6.830721e+05
  -6.812023e+05  -1.228137e+05
  -7.370905e+05  -9.600705e+05
  -1.158789e+05  -1.042788e+06
   7.535652e+05  -2.532023e+05
   1.035601e+06   7.273719e+05
   3.430034e+05   1.102954e+06
  -7.265700e+05   6.817597e+05
  -1.131613e+06  -8.931986e+04
  -5.321425e+05  -6.361823e+05
   3.023377e+05  -6.915021e+05
   4.008848e+05  -3.654862e+05
  -2.345212e+05  -5.533315e+03
  -6.498765e+05   3.211193e+04
  -1.472461e+05  -3.154887e+05
   8.405627e+05  -6.668221e+05
   1.286066e+06  -5.093835e+05
   7.769092e+05   2.045314e+05
  -1.101097e+05   8.785791e+05
  -5.828719e+05   8.564132e+05
  -4.472091e+05   1.653872e+05
  -5.580663e+04  -4.770330e+05
   2.450649e+05  -4.430189e+05
   3.525777e+05   1.388329e+05
   2.492749e+05   5.838764e+05
  -5.693164e+04   4.424540e+05
  -3.938587e+05  -4.423008e+04
  -4.779435e+05  -2.999222e+05
  -2.414158e+05  -1.096847e+05
   3.840503e+04   1.638050e+05
   7.998669e+04   6.864507e+04
  -2.867876e+04  -3.484345e+05
   3.043599e+04  -5.722123e+05
   3.174143e+05  -2.437812e+05
   4.776870e+05   3.718923e+05
   1.761431e+05   6.540699e+05
  -4.077330e+05   3.193722e+05
  -6.759305e+05  -2.805929e+05
  -2.564936e+05  -5.746149e+05
   5.201103e+05  -3.626882e+05
   8.967840e+05   8.136781e+04
   4.816498e+05   3.861670e+05
  -3.019450e+05   4.107106e+05
  -6.516060e+05   2.353917e+05
  -2.650183e+05   1.640676e+04
   3.327190e+05  -7.939943e+04
   4.041087e+05   5.023398e+04
  -1.568604e+05   2.814859e+05
  -7.268109e+05   2.670978e+05
