
 $NMID
 id='ANONYMOUS ', fmtdat='(2E16.6)'
 volume=1.0
 tramp=1.0
 $END
   2.708596e+07   5.921933e+05
   1.805747e+07   1.250362e+07
   1.227188e+05   1.695301e+07
  -1.167212e+07   1.180183e+07
  -1.012561e+07   1.650569e+06
  -8.661868e+05  -4.944388e+06
   5.654890e+06  -2.847577e+06
   4.533136e+06   4.354933e+06
  -1.111313e+06   7.947176e+06
  -5.216311e+06   3.654115e+06
  -4.538990e+06  -3.698173e+06
  -4.972946e+05  -6.001843e+06
   2.798231e+06  -1.130966e+06
   2.204559e+06   5.134156e+06
  -1.629775e+06   5.966645e+06
  -4.705190e+06   6.442154e+05
  -3.520571e+06  -5.487705e+06
   1.249275e+06  -6.957504e+06
   5.333702e+06  -3.202640e+06
   5.301366e+06   1.792409e+06
   2.013351e+06   3.933950e+06
  -6.127251e+05   2.816148e+06
   2.192028e+04   1.373527e+06
   2.444491e+06   2.153623e+06
   2.781308e+06   4.398362e+06
  -9.077432e+05   5.108550e+06
  -6.081936e+06   2.650616e+06
  -7.865485e+06  -1.365317e+06
  -4.119635e+06  -3.825943e+06
   1.866437e+06  -3.105309e+06
   4.461590e+06  -1.974060e+05
   1.596175e+06   2.385932e+06
  -3.149860e+06   2.463821e+06
  -4.736354e+06  -2.508320e+05
  -2.129357e+06  -3.583702e+06
   1.278216e+06  -4.391057e+06
   2.119931e+06  -1.707523e+06
   5.454479e+05   1.694550e+06
  -9.031356e+05   2.018401e+06
  -5.736485e+05  -1.043274e+06
   9.901639e+05  -3.655972e+06
   2.231193e+06  -2.412206e+06
   2.019725e+06   1.403924e+06
   2.662745e+05   3.326566e+06
  -1.840621e+06   1.107685e+06
  -2.247053e+06  -2.720728e+06
   1.877116e+05  -3.948725e+06
   3.862354e+06  -1.311961e+06
   5.265894e+06   2.601781e+06
   2.511876e+06   4.381733e+06
  -2.260548e+06   2.937026e+06
  -4.794969e+06  -7.521437e+04
  -3.072118e+06  -2.111045e+06
   7.584779e+05  -1.866516e+06
   2.872614e+06  -1.060409e+05
   1.709525e+06   1.240353e+06
  -8.273318e+05   9.160285e+05
  -1.766913e+06  -5.375383e+05
  -2.585725e+05  -1.463755e+06
   1.696605e+06  -8.459940e+05
   1.568891e+06   6.959410e+05
  -7.941364e+05   1.557634e+06
  -2.813847e+06   6.462444e+05
  -1.914845e+06  -1.620955e+06
   1.573885e+06  -3.504865e+06
   4.658724e+06  -3.216101e+06
   4.833334e+06  -4.824330e+05
   2.515394e+06   2.943076e+06
   1.256606e+05   4.688313e+06
  -7.404043e+05   3.988042e+06
  -6.320252e+05   2.293840e+06
  -9.554846e+05   1.400240e+06
  -2.112140e+06   1.302426e+06
  -3.176150e+06   5.164326e+05
  -2.989016e+06  -1.542972e+06
  -1.261207e+06  -3.310950e+06
   1.127036e+06  -2.740108e+06
   2.608009e+06   1.215518e+05
   1.990039e+06   2.861753e+06
  -4.363516e+05   3.110433e+06
  -2.828770e+06   8.426607e+05
  -3.280147e+06  -1.856067e+06
  -1.628347e+06  -2.996792e+06
   4.288306e+05  -2.382057e+06
   1.227779e+06  -1.289144e+06
   9.433528e+05  -8.823620e+05
   1.159753e+06  -1.100882e+06
   2.671615e+06  -9.374130e+05
   4.160719e+06   3.922278e+05
   3.474818e+06   2.541340e+06
   1.984867e+05   4.150882e+06
  -3.442669e+06   3.896568e+06
  -4.574673e+06   1.666380e+06
  -2.540839e+06  -1.114875e+06
   4.654704e+05  -2.485182e+06
   1.688030e+06  -1.630741e+06
   4.991467e+05   2.842975e+05
  -1.329795e+06   1.200611e+06
  -1.776227e+06   2.964996e+05
  -5.947504e+05  -1.119638e+06
   7.681556e+05  -1.152882e+06
   8.531417e+05   3.283451e+05
  -4.412671e+05   1.365452e+06
  -1.878697e+06   1.867427e+05
  -1.956054e+06  -2.525649e+06
  -1.327823e+05  -4.133070e+06
   2.576498e+06  -2.824035e+06
   4.193904e+06   4.650334e+05
   3.382771e+06   3.061764e+06
   7.678466e+05   3.223994e+06
  -1.500222e+06   1.572164e+06
  -1.777923e+06   6.642716e+04
  -5.135602e+05  -5.507207e+04
   3.836683e+05   7.651313e+05
  -2.712261e+05   1.211434e+06
  -1.648312e+06   5.679931e+05
  -1.945022e+06  -6.281599e+05
  -5.509692e+05  -1.234055e+06
   1.131131e+06  -6.849146e+05
   1.170530e+06   4.393914e+05
  -7.003963e+05   9.535059e+05
  -2.617586e+06   1.746326e+05
  -2.450057e+06  -1.405721e+06
  -6.031626e+04  -2.482428e+06
   2.477315e+06  -2.056307e+06
   2.961497e+06  -3.789800e+05
   1.227857e+06   1.169425e+06
  -8.459755e+05   1.310609e+06
  -1.331241e+06   1.298452e+05
  -4.962695e+04  -9.643726e+05
   1.515629e+06  -7.005646e+05
   1.808462e+06   6.773314e+05
   6.084102e+05   1.687531e+06
  -9.198204e+05   1.281852e+06
  -1.389332e+06  -1.316312e+03
  -4.974959e+05  -7.065093e+05
   6.686827e+05  -1.087544e+05
   6.906763e+05   1.049268e+06
  -6.749531e+05   1.423783e+06
  -2.111561e+06   4.532301e+05
  -2.054714e+06  -1.152076e+06
  -3.835867e+05  -2.112165e+06
   1.402105e+06  -1.696632e+06
   1.753675e+06  -3.173076e+05
   6.309226e+05   8.482286e+05
  -6.275776e+05   9.072944e+05
  -8.131953e+05   6.284225e+04
  -4.127600e+03  -6.488153e+05
   7.333474e+05  -4.984742e+05
   5.714125e+05   1.453902e+05
  -2.405630e+05   3.045102e+05
  -6.744169e+05  -3.902980e+05
  -6.148705e+03  -1.184110e+06
   1.360203e+06  -9.932574e+05
   2.167773e+06   3.946820e+05
   1.505296e+06   2.016195e+06
  -2.443663e+05   2.594201e+06
  -1.738500e+06   1.679394e+06
  -1.982235e+06   1.860459e+04
  -1.208313e+06  -1.139147e+06
  -4.256366e+05  -1.158065e+06
  -2.517562e+05  -5.221690e+05
  -3.613103e+05  -2.194182e+05
  -5.114657e+04  -6.067581e+05
   8.258863e+05  -9.973401e+05
   1.580947e+06  -4.978111e+05
   1.320699e+06   8.173579e+05
  -1.242230e+05   1.783925e+06
  -1.842412e+06   1.303419e+06
  -2.465767e+06  -4.652006e+05
  -1.333427e+06  -2.163871e+06
   8.405705e+05  -2.468235e+06
   2.505058e+06  -1.242313e+06
   2.588557e+06   4.532550e+05
   1.348523e+06   1.402932e+06
  -3.422023e+04   1.291906e+06
  -6.228778e+05   8.070849e+05
  -4.679567e+05   7.550430e+05
  -3.030462e+05   1.136751e+06
  -6.463909e+05   1.173760e+06
  -1.241239e+06   2.691731e+05
  -1.342496e+06  -1.171232e+06
  -5.401080e+05  -2.014724e+06
   7.012649e+05  -1.509367e+06
   1.380018e+06  -3.797224e+04
   9.160636e+05   1.244104e+06
  -2.355198e+05   1.450259e+06
  -1.014991e+06   6.408114e+05
  -8.265599e+05  -4.022034e+05
  -9.824637e+04  -9.451776e+05
   2.757353e+05  -8.635052e+05
  -2.638137e+04  -5.580743e+05
  -3.976902e+05  -4.217040e+05
  -2.350732e+04  -4.307085e+05
   1.108339e+06  -2.526050e+05
   2.026107e+06   3.017299e+05
   1.693996e+06   1.001110e+06
   1.323518e+05   1.374447e+06
  -1.467135e+06   1.130107e+06
  -1.854951e+06   4.130874e+05
  -9.445071e+05  -2.845236e+05
   1.814460e+05  -4.847410e+05
   4.749360e+05  -1.316357e+05
  -4.442618e+04   2.976585e+05
  -5.473451e+05   2.229580e+05
  -4.744824e+05  -3.706797e+05
  -7.893868e+04  -8.145132e+05
   7.255280e+04  -5.166623e+05
  -1.676146e+05   2.217653e+05
  -4.370688e+05   4.575026e+05
  -3.228619e+05  -2.276040e+05
   2.484737e+05  -1.099309e+06
   9.505669e+05  -1.081450e+06
   1.227763e+06  -5.383231e+04
   6.791134e+05   9.791276e+05
  -4.497827e+05   1.030499e+06
  -1.208981e+06   1.701504e+05
  -7.391217e+05  -6.718683e+05
   7.037017e+05  -7.148551e+05
   1.760984e+06   1.847561e+04
   1.295442e+06   8.802331e+05
  -3.496945e+05   1.194502e+06
  -1.646348e+06   7.445098e+05
  -1.470891e+06  -8.476251e+04
  -2.294188e+05  -5.912898e+05
   6.726786e+05  -3.654208e+05
   3.484135e+05   2.597572e+05
  -7.096537e+05   4.596363e+05
  -1.236401e+06  -2.346410e+05
  -5.339583e+05  -1.331299e+06
   8.430380e+05  -1.731031e+06
   1.684712e+06  -7.961876e+05
   1.317084e+06   8.990906e+05
   1.584353e+05   1.962663e+06
  -8.223412e+05   1.468432e+06
  -1.025498e+06  -9.662292e+04
  -5.588348e+05  -1.275110e+06
   1.082089e+05  -1.124332e+06
   5.634022e+05  -1.445074e+05
   6.007760e+05   4.408494e+05
   2.902626e+05   1.910318e+05
   9.699157e+03  -1.393837e+05
   1.294015e+05   2.377299e+05
   4.691560e+05   1.011968e+06
   3.281898e+05   1.193728e+06
  -6.141220e+05   4.427000e+05
  -1.603266e+06  -5.315482e+05
  -1.496983e+06  -9.263182e+05
  -2.037434e+05  -7.270581e+05
   1.041683e+06  -4.189160e+05
   1.107186e+06  -2.211331e+05
   2.911330e+05  -7.599947e+03
  -2.061282e+05   2.263570e+05
   9.159861e+04   2.910525e+05
   4.251614e+05   1.889031e+05
  -5.351941e+03   1.517587e+05
  -8.692914e+05   1.773504e+05
  -1.102650e+06  -8.485969e+04
  -2.340050e+05  -7.255822e+05
   1.070552e+06  -1.147734e+06
   1.744440e+06  -6.560658e+05
   1.320048e+06   5.821747e+05
   1.942633e+05   1.537911e+06
  -8.252063e+05   1.402637e+06
  -1.135477e+06   4.472909e+05
  -7.130199e+05  -3.483996e+05
  -7.135178e+04  -3.841682e+05
   1.966751e+05   1.636632e+04
  -4.433083e+04   1.110310e+05
  -3.760647e+05  -3.623147e+05
  -2.950546e+05  -8.734900e+05
   2.415030e+05  -6.908862e+05
   7.500505e+05   2.452013e+05
   6.756195e+05   1.131848e+06
  -6.008460e+04   1.089624e+06
  -8.920586e+05   1.091761e+05
  -1.036309e+06  -9.254332e+05
  -2.480579e+05  -1.168714e+06
   8.059584e+05  -6.019296e+05
   1.128042e+06   1.559960e+05
   4.740800e+05   5.830582e+05
  -3.194356e+05   5.966263e+05
  -3.112452e+05   3.541833e+05
   3.803964e+05   6.643566e+04
   7.265589e+05   8.035911e+02
   1.055883e+05   3.109875e+05
  -9.071260e+05   7.132207e+05
  -1.267189e+06   6.237752e+05
  -6.937411e+05  -1.220843e+05
   1.436836e+05  -8.791811e+05
   5.176461e+05  -8.496886e+05
   3.425897e+05  -7.536225e+04
  -2.296072e+04   5.612601e+05
  -2.925966e+05   3.928848e+05
  -3.755859e+05  -2.743305e+05
  -2.335625e+05  -6.304051e+05
   9.866800e+04  -3.588446e+05
   4.108944e+05   1.082011e+05
   4.627333e+05   2.442191e+05
   2.557670e+05   4.681574e+04
   2.011576e+04  -7.882039e+04
  -8.835693e+04   1.202283e+05
  -1.470699e+05   4.428411e+05
  -2.781339e+05   4.674166e+05
  -4.117330e+05   2.931934e+04
  -3.339095e+05  -5.449697e+05
   4.342742e+04  -7.114892e+05
   5.009160e+05  -2.673800e+05
   6.279217e+05   3.931602e+05
   1.941581e+05   6.641893e+05
  -5.251663e+05   3.556904e+05
  -8.773779e+05  -1.617078e+05
  -4.657637e+05  -4.247742e+05
   3.285694e+05  -3.376516e+05
   6.622196e+05  -1.224773e+05
   1.862084e+05   5.734272e+03
  -4.858610e+05  -2.710943e+04
  -4.759949e+05  -2.021022e+05
   2.864746e+05  -3.724973e+05
   9.592963e+05  -2.529912e+05
