
 $NMID
 id='ANONYMOUS ', fmtdat='(2E16.6)'
 volume=1.0
 tramp=1.0
 $END
   2.797363e+07   2.372098e+05
   1.717307e+07   1.625637e+07
  -2.819894e+06   1.852077e+07
  -1.325841e+07   8.433782e+06
  -8.680034e+06  -2.192417e+06
   1.021799e+06  -4.717153e+06
   5.078805e+06  -2.700012e+05
   2.181468e+06   4.731470e+06
  -2.574090e+06   5.493756e+06
  -4.911960e+06   1.674820e+06
  -3.772601e+06  -3.259568e+06
  -4.403898e+05  -4.748885e+06
   2.213072e+06  -1.317858e+06
   1.567541e+06   3.340779e+06
  -1.801638e+06   3.966510e+06
  -4.128506e+06  -3.348295e+05
  -2.552877e+06  -5.206622e+06
   1.733450e+06  -6.174940e+06
   5.142075e+06  -3.017215e+06
   5.399373e+06   1.237732e+06
   2.982458e+06   3.824155e+06
   7.630161e+04   3.961818e+06
  -1.106031e+06   2.592918e+06
  -5.957917e+04   1.518946e+06
   1.161091e+06   1.909297e+06
  -1.079006e+05   2.880438e+06
  -3.575673e+06   2.353146e+06
  -5.642209e+06  -1.403467e+05
  -3.701758e+06  -2.522757e+06
   3.835536e+05  -2.708639e+06
   2.547761e+06  -1.036087e+06
   1.360249e+06   6.054434e+05
  -1.013645e+06   1.014779e+06
  -2.073335e+06   1.573694e+05
  -1.397339e+06  -1.444844e+06
   4.534589e+04  -2.613149e+06
   1.222333e+06  -1.888354e+06
   1.363952e+06   4.887490e+05
   4.050678e+05   1.895845e+06
  -4.609389e+05   4.511043e+05
   1.016051e+05  -1.869967e+06
   1.479354e+06  -1.488687e+06
   1.426670e+06   1.545897e+06
  -8.402364e+05   3.123759e+06
  -3.058544e+06   6.380325e+05
  -2.470819e+06  -3.291172e+06
   7.736136e+05  -4.184667e+06
   3.764061e+06  -1.232608e+06
   3.946364e+06   2.316976e+06
   1.343032e+06   3.362219e+06
  -1.864591e+06   1.769151e+06
  -3.187196e+06  -5.716256e+05
  -1.695265e+06  -1.827267e+06
   1.090903e+06  -1.292034e+06
   2.420553e+06   3.159038e+05
   1.162573e+06   1.328174e+06
  -8.528339e+05   7.443390e+05
  -1.103177e+06  -5.141019e+05
   4.164776e+05  -7.088473e+05
   1.340645e+06   4.326956e+05
   1.612549e+05   1.440594e+06
  -1.923607e+06   1.089821e+06
  -2.685121e+06  -3.415594e+05
  -1.349384e+06  -1.893573e+06
   1.073848e+06  -2.871164e+06
   3.064608e+06  -2.652594e+06
   3.561193e+06  -7.878747e+05
   2.368161e+06   1.938316e+06
   3.952366e+05   3.514928e+06
  -8.729357e+05   2.803404e+06
  -8.038855e+05   1.043047e+06
  -2.914541e+05   2.768696e+05
  -5.270143e+05   7.248851e+05
  -1.424656e+06   8.255952e+05
  -1.840938e+06  -2.942902e+05
  -1.107232e+06  -1.575836e+06
   2.654776e+05  -1.522331e+06
   1.257486e+06  -6.387330e+04
   1.159439e+06   1.504982e+06
  -9.662602e+04   1.905523e+06
  -1.765760e+06   8.489685e+05
  -2.529663e+06  -9.167623e+05
  -1.632158e+06  -2.180255e+06
   1.252518e+05  -2.198160e+06
   1.170257e+06  -1.346961e+06
   1.075525e+06  -6.491216e+05
   9.779029e+05  -5.403150e+05
   1.784519e+06  -4.305884e+05
   2.702014e+06   3.709196e+05
   2.211564e+06   1.678865e+06
   1.162920e+05   2.617507e+06
  -2.075600e+06   2.483503e+06
  -2.742131e+06   1.246822e+06
  -1.661518e+06  -4.354865e+05
   4.111577e+03  -1.486544e+06
   8.433551e+05  -1.157750e+06
   3.432862e+05   8.504600e+04
  -7.477088e+05   8.087117e+05
  -1.174738e+06   2.322750e+05
  -5.041012e+05  -7.418868e+05
   3.878072e+05  -7.205975e+05
   3.810131e+05   2.257025e+05
  -5.069716e+05   6.103262e+05
  -1.172058e+06  -4.322262e+05
  -7.465812e+05  -1.947752e+06
   5.486555e+05  -2.333294e+06
   1.824235e+06  -1.146753e+06
   2.316677e+06   6.449140e+05
   1.735987e+06   1.806629e+06
   3.825836e+05   1.805647e+06
  -8.463066e+05   9.627750e+05
  -1.052263e+06   1.112002e+05
  -3.181438e+05  -2.954493e+04
   2.364146e+05   4.793558e+05
  -2.236801e+05   8.186699e+05
  -1.144033e+06   3.682226e+05
  -1.269130e+06  -4.929050e+05
  -2.886216e+05  -8.510128e+05
   7.314560e+05  -3.944382e+05
   6.364466e+05   2.800245e+05
  -4.962606e+05   4.400311e+05
  -1.490105e+06  -6.865382e+04
  -1.288495e+06  -8.614733e+05
   6.978082e+04  -1.376902e+06
   1.499019e+06  -1.159461e+06
   1.806471e+06  -2.103158e+05
   7.786361e+05   7.760843e+05
  -5.629736e+05   9.085753e+05
  -9.341031e+05   1.080977e+05
  -9.220976e+04  -6.586407e+05
   9.617224e+05  -4.638792e+05
   1.115622e+06   4.650496e+05
   2.864465e+05   1.055229e+06
  -6.458142e+05   6.974295e+05
  -8.295210e+05  -1.170417e+05
  -2.194979e+05  -4.753317e+05
   4.744961e+05  -4.922592e+04
   4.604653e+05   6.670992e+05
  -3.860117e+05   9.085005e+05
  -1.301385e+06   3.306472e+05
  -1.303453e+06  -6.861206e+05
  -2.507519e+05  -1.327272e+06
   9.009223e+05  -1.061700e+06
   1.102656e+06  -1.650722e+05
   3.529630e+05   5.447839e+05
  -4.080945e+05   5.378396e+05
  -4.468398e+05   4.878841e+04
   4.145222e+04  -2.992166e+05
   3.683483e+05  -2.076395e+05
   1.890722e+05   5.635678e+04
  -2.303265e+05   4.393495e+04
  -3.666178e+05  -3.550039e+05
   7.579287e+04  -7.523543e+05
   8.697947e+05  -5.970948e+05
   1.345718e+06   2.513731e+05
   9.481175e+05   1.248628e+06
  -1.352835e+05   1.582514e+06
  -1.049949e+06   9.692705e+05
  -1.144420e+06  -3.682952e+04
  -6.358728e+05  -6.229537e+05
  -2.352255e+05  -5.359472e+05
  -2.519758e+05  -2.142223e+05
  -3.336891e+05  -1.769283e+05
  -4.889958e+04  -4.474221e+05
   5.409653e+05  -5.983352e+05
   9.501818e+05  -2.543706e+05
   7.364072e+05   4.762916e+05
  -1.206059e+05   1.006317e+06
  -1.118383e+06   7.444968e+05
  -1.483460e+06  -2.938550e+05
  -7.763535e+05  -1.345312e+06
   5.927283e+05  -1.530427e+06
   1.602212e+06  -7.142553e+05
   1.552294e+06   3.597279e+05
   7.077605e+05   8.599208e+05
  -8.291703e+04   6.842409e+05
  -2.996522e+05   4.001042e+05
  -1.420773e+05   4.835733e+05
  -1.118401e+05   7.919628e+05
  -4.175097e+05   7.932474e+05
  -8.093138e+05   1.942280e+05
  -8.562185e+05  -7.045407e+05
  -3.574599e+05  -1.232163e+06
   4.092165e+05  -9.342316e+05
   8.399587e+05  -1.335493e+04
   5.452610e+05   8.029823e+05
  -2.058945e+05   9.004590e+05
  -6.998960e+05   3.168730e+05
  -5.186428e+05  -3.693346e+05
   2.274970e+04  -6.505075e+05
   2.748640e+05  -5.160110e+05
   2.444483e+04  -2.979319e+05
  -2.690259e+05  -2.330582e+05
  -3.118162e+04  -2.553080e+05
   7.196133e+05  -1.471941e+05
   1.303922e+06   1.974965e+05
   1.050024e+06   6.446532e+05
   2.088302e+04   8.964934e+05
  -9.778168e+05   7.269502e+05
  -1.168224e+06   2.152683e+05
  -5.562542e+05  -2.602484e+05
   1.459279e+05  -3.417901e+05
   3.155241e+05  -4.620022e+04
   1.839717e+03   2.390214e+05
  -3.059630e+05   1.586529e+05
  -3.062537e+05  -2.226293e+05
  -1.236668e+05  -4.824519e+05
  -2.348072e+04  -3.151120e+05
  -9.285757e+04   9.106191e+04
  -2.121734e+05   2.276291e+05
  -1.872462e+05  -1.452111e+05
   1.102621e+05  -6.558654e+05
   5.801563e+05  -6.859939e+05
   8.359926e+05  -8.698688e+04
   5.061665e+05   5.956336e+05
  -2.690024e+05   7.018299e+05
  -7.896718e+05   1.803614e+05
  -4.716500e+05  -3.847523e+05
   4.443325e+05  -4.307131e+05
   1.050599e+06   3.588993e+04
   7.102509e+05   5.471083e+05
  -2.718406e+05   6.772614e+05
  -9.838613e+05   3.723858e+05
  -8.392301e+05  -9.068493e+04
  -1.097398e+05  -3.436472e+05
   4.171516e+05  -1.958383e+05
   2.375059e+05   1.786174e+05
  -3.994309e+05   3.226022e+05
  -7.681996e+05  -8.026273e+04
  -4.043642e+05  -7.850530e+05
   4.241761e+05  -1.097663e+06
   9.877533e+05  -5.542184e+05
   8.196956e+05   5.080610e+05
   1.292932e+05   1.180294e+06
  -4.831249e+05   8.679449e+05
  -6.122136e+05  -9.057069e+04
  -3.084682e+05  -7.757865e+05
   1.108863e+05  -6.517232e+05
   3.582559e+05  -6.883979e+04
   3.285088e+05   2.512828e+05
   1.324322e+05   9.714971e+04
   2.198534e+04  -6.997609e+04
   1.475998e+05   1.769745e+05
   3.215383e+05   6.252745e+05
   1.563786e+05   7.109713e+05
  -4.334171e+05   2.641479e+05
  -9.719227e+05  -3.034862e+05
  -8.675922e+05  -5.456961e+05
  -1.253546e+05  -4.514033e+05
   5.823528e+05  -2.737800e+05
   6.532089e+05  -1.300327e+05
   2.160799e+05   2.080756e+04
  -1.043526e+05   1.457804e+05
   4.683525e+03   1.472429e+05
   2.031011e+05   7.632156e+04
   2.211246e+04   8.931993e+04
  -4.642084e+05   1.450012e+05
  -6.819607e+05  -1.598436e+04
  -2.417871e+05  -4.498209e+05
   5.780900e+05  -7.550616e+05
   1.094376e+06  -4.739282e+05
   8.899671e+05   2.992687e+05
   1.693672e+05   9.255651e+05
  -4.951240e+05   8.909469e+05
  -6.870868e+05   3.338398e+05
  -4.334969e+05  -1.668918e+05
  -7.602953e+04  -2.345739e+05
   6.972195e+04  -2.868232e+04
  -4.384511e+04   2.861799e+04
  -2.086695e+05  -2.322370e+05
  -1.723378e+05  -5.284977e+05
   1.228096e+05  -4.392577e+05
   4.516362e+05   9.602612e+04
   4.695654e+05   6.399149e+05
   4.852260e+04   6.734841e+05
  -5.084374e+05   1.396812e+05
  -6.705828e+05  -4.932566e+05
  -2.125976e+05  -7.123100e+05
   4.711115e+05  -4.262080e+05
   7.206106e+05   5.593741e+04
   3.338277e+05   3.851695e+05
  -1.869746e+05   4.224162e+05
  -2.291889e+05   2.349442e+05
   1.832065e+05   1.312763e+04
   4.307241e+05  -2.270562e+04
   8.856985e+04   1.977929e+05
  -5.399919e+05   4.472729e+05
  -8.054646e+05   3.685817e+05
  -4.773410e+05  -1.005386e+05
   6.512672e+04  -5.607012e+05
   3.434513e+05  -5.510321e+05
   2.586180e+05  -9.018311e+04
   2.481461e+04   3.224979e+05
  -1.607798e+05   2.740776e+05
  -2.324589e+05  -1.142296e+05
  -1.636223e+05  -3.785668e+05
   4.003185e+04  -2.632747e+05
   2.554740e+05   3.706645e+04
   3.043802e+05   1.711775e+05
   1.579798e+05   5.173407e+04
  -1.272635e+04  -8.448830e+04
  -5.247468e+04   9.764234e+02
  -1.651857e+04   2.441014e+05
  -6.881570e+04   3.419648e+05
  -2.215327e+05   1.109415e+05
  -2.772756e+05  -2.704428e+05
  -7.132488e+04  -4.281682e+05
   2.765156e+05  -1.976580e+05
   4.236499e+05   1.949712e+05
   1.576530e+05   3.827980e+05
  -3.267945e+05   2.365519e+05
  -5.675976e+05  -5.749188e+04
  -3.084711e+05  -2.476683e+05
   1.927574e+05  -2.489161e+05
   4.142376e+05  -1.331704e+05
   1.503437e+05  -8.617683e+03
  -2.463923e+05   3.183167e+04
  -2.752892e+05  -6.056102e+04
   1.248889e+05  -2.030777e+05
   5.119437e+05  -1.786579e+05
