
 $NMID
 id='ANONYMOUS ', fmtdat='(2E16.6)'
 volume=1.0
 tramp=1.0
 $END
  -4.810004e+07   1.208841e+06
  -3.025144e+07  -2.799655e+07
   4.551251e+06  -3.245907e+07
   2.290700e+07  -1.431383e+07
   1.482969e+07   4.439799e+06
  -2.044722e+06   8.188322e+06
  -8.707162e+06  -1.978566e+04
  -3.364648e+06  -8.255168e+06
   4.694195e+06  -8.973993e+06
   8.375571e+06  -2.559707e+06
   6.378797e+06   5.321429e+06
   8.867944e+05   7.765188e+06
  -3.551216e+06   2.368158e+06
  -2.555844e+06  -5.205938e+06
   3.065082e+06  -6.356795e+06
   6.993474e+06   6.614268e+05
   4.359324e+06   8.762884e+06
  -2.822020e+06   1.047174e+07
  -8.591011e+06   5.364763e+06
  -9.282432e+06  -1.676580e+06
  -5.552195e+06  -6.286027e+06
  -6.002802e+05  -7.031401e+06
   1.977073e+06  -4.894436e+06
   7.372676e+05  -2.596312e+06
  -1.484782e+06  -2.644396e+06
  -3.034311e+04  -4.282506e+06
   5.345090e+06  -3.963534e+06
   8.983213e+06  -2.267809e+05
   6.259746e+06   3.809983e+06
  -1.548206e+05   4.449028e+06
  -3.742974e+06   1.994636e+06
  -2.175547e+06  -5.085777e+05
   1.208444e+06  -1.254531e+06
   2.794248e+06  -3.049245e+05
   2.117935e+06   1.869294e+06
   2.654813e+05   3.902241e+06
  -1.736141e+06   3.275119e+06
  -2.490425e+06  -3.873955e+05
  -1.131006e+06  -3.100758e+06
   6.334335e+05  -1.190303e+06
   4.062580e+04   2.664093e+06
  -2.312504e+06   2.324739e+06
  -2.368481e+06  -2.651223e+06
   1.589564e+06  -5.412840e+06
   5.562883e+06  -1.208559e+06
   4.501651e+06   5.644872e+06
  -1.245628e+06   7.309898e+06
  -6.357538e+06   2.280262e+06
  -6.502650e+06  -3.772814e+06
  -2.089851e+06  -5.489252e+06
   3.074325e+06  -2.781220e+06
   5.084992e+06   1.058495e+06
   2.599595e+06   3.056413e+06
  -1.936375e+06   2.131476e+06
  -4.066596e+06  -5.652662e+05
  -1.910414e+06  -2.276523e+06
   1.444925e+06  -1.271941e+06
   1.732181e+06   8.645777e+05
  -9.146298e+05   1.077366e+06
  -2.309214e+06  -1.043493e+06
  -1.906458e+04  -2.757890e+06
   3.573378e+06  -1.917940e+06
   4.644113e+06   7.192176e+05
   2.273828e+06   3.280671e+06
  -1.592152e+06   4.762078e+06
  -4.708861e+06   4.437545e+06
  -5.685748e+06   1.530806e+06
  -4.043888e+06  -2.930314e+06
  -8.505959e+05  -5.656633e+06
   1.464953e+06  -4.528261e+06
   1.449985e+06  -1.496937e+06
   3.763891e+05  -1.395557e+05
   4.730019e+05  -1.007139e+06
   1.903404e+06  -1.454695e+06
   2.774128e+06   1.492354e+05
   1.816732e+06   2.184661e+06
  -2.295723e+05   2.233163e+06
  -1.774883e+06   1.299430e+05
  -1.745391e+06  -2.209649e+06
   5.949662e+04  -2.918695e+06
   2.691839e+06  -1.472301e+06
   4.109009e+06   1.235589e+06
   2.850210e+06   3.423456e+06
  -2.996363e+04   3.695027e+06
  -1.909856e+06   2.376362e+06
  -1.854799e+06   1.113415e+06
  -1.632880e+06   8.134209e+05
  -2.826906e+06   6.350147e+05
  -4.249187e+06  -5.847412e+05
  -3.473450e+06  -2.609618e+06
  -2.097157e+05  -4.066253e+06
   3.149367e+06  -3.885863e+06
   4.161923e+06  -2.038532e+06
   2.582529e+06   5.375642e+05
   1.253909e+05   2.244533e+06
  -1.189472e+06   1.837907e+06
  -5.365012e+05  -8.794352e+04
   1.109784e+06  -1.278262e+06
   1.842794e+06  -3.978263e+05
   8.496721e+05   1.149992e+06
  -5.573202e+05   1.109923e+06
  -5.317606e+05  -3.744130e+05
   9.073811e+05  -8.747961e+05
   1.884331e+06   8.927851e+05
   1.015877e+06   3.221721e+06
  -1.124181e+06   3.584144e+06
  -2.974175e+06   1.555402e+06
  -3.503616e+06  -1.158376e+06
  -2.534549e+06  -2.774814e+06
  -5.484443e+05  -2.714026e+06
   1.262434e+06  -1.482380e+06
   1.595329e+06  -2.067063e+05
   4.907447e+05   4.074296e+04
  -3.707820e+05  -7.423232e+05
   3.549868e+05  -1.305358e+06
   1.818461e+06  -6.015049e+05
   2.007522e+06   7.897007e+05
   4.398338e+05   1.359304e+06
  -1.147270e+06   6.085552e+05
  -9.521614e+05  -4.419591e+05
   8.062796e+05  -6.305474e+05
   2.268773e+06   1.797591e+05
   1.902046e+06   1.339813e+06
  -1.575903e+05   2.072500e+06
  -2.303023e+06   1.754802e+06
  -2.780899e+06   3.291911e+05
  -1.224015e+06  -1.213230e+06
   8.687542e+05  -1.456422e+06
   1.487992e+06  -1.991820e+05
   1.817892e+05   1.038666e+06
  -1.490264e+06   7.426253e+05
  -1.733106e+06  -7.291125e+05
  -4.142059e+05  -1.644081e+06
   1.037335e+06  -1.051115e+06
   1.284544e+06   2.285246e+05
   3.091442e+05   7.618647e+05
  -7.641328e+05   8.176489e+04
  -7.380694e+05  -1.030874e+06
   5.688162e+05  -1.418838e+06
   2.000334e+06  -5.478057e+05
   2.033323e+06   1.031155e+06
   4.092837e+05   2.056308e+06
  -1.395204e+06   1.658491e+06
  -1.713359e+06   2.529856e+05
  -5.353581e+05  -8.531239e+05
   6.388081e+05  -8.277248e+05
   6.661708e+05  -7.615179e+04
  -9.148361e+04   4.262684e+05
  -5.427682e+05   2.733417e+05
  -2.195682e+05  -8.921911e+04
   4.060109e+05  -1.873790e+04
   5.617530e+05   5.977504e+05
  -1.397338e+05   1.180525e+06
  -1.350813e+06   9.284711e+05
  -2.085101e+06  -3.757042e+05
  -1.486233e+06  -1.917477e+06
   1.882307e+05  -2.434690e+06
   1.609478e+06  -1.474696e+06
   1.738075e+06   7.598712e+04
   9.294367e+05   9.331150e+05
   3.344485e+05   7.496750e+05
   4.201748e+05   2.687613e+05
   5.704620e+05   2.734070e+05
   9.748738e+04   7.185495e+05
  -8.426077e+05   9.253923e+05
  -1.457801e+06   3.784023e+05
  -1.104460e+06  -7.223390e+05
   2.043395e+05  -1.518261e+06
   1.716575e+06  -1.134066e+06
   2.277790e+06   4.446074e+05
   1.194399e+06   2.079301e+06
  -9.305601e+05   2.382156e+06
  -2.497787e+06   1.103614e+06
  -2.390679e+06  -5.802234e+05
  -1.046516e+06  -1.333438e+06
   1.616960e+05  -1.015769e+06
   4.333944e+05  -5.679665e+05
   1.483903e+05  -7.379360e+05
   1.210915e+05  -1.253995e+06
   6.364551e+05  -1.261125e+06
   1.263158e+06  -3.256460e+05
   1.339242e+06   1.067845e+06
   5.737639e+05   1.891362e+06
  -6.120137e+05   1.445284e+06
  -1.293569e+06   2.333993e+04
  -8.461701e+05  -1.252313e+06
   3.343396e+05  -1.402528e+06
   1.119348e+06  -4.715710e+05
   8.236135e+05   6.163440e+05
  -5.609450e+04   1.044333e+06
  -4.667050e+05   8.056923e+05
  -5.852681e+04   4.451914e+05
   4.243651e+05   3.415614e+05
   5.704547e+04   3.865413e+05
  -1.125437e+06   2.358079e+05
  -2.039733e+06  -2.885567e+05
  -1.633689e+06  -9.952326e+05
  -2.158861e+04  -1.413296e+06
   1.530063e+06  -1.155054e+06
   1.817067e+06  -3.299589e+05
   8.609184e+05   4.365823e+05
  -2.309152e+05   5.520133e+05
  -5.006475e+05   6.238120e+04
  -2.518996e+04  -3.884891e+05
   4.535975e+05  -2.524662e+05
   4.795568e+05   3.359494e+05
   2.257010e+05   7.245259e+05
   6.854188e+04   4.756933e+05
   1.431789e+05  -1.202875e+05
   3.068722e+05  -3.232125e+05
   2.865990e+05   2.246058e+05
  -1.462803e+05   9.979870e+05
  -8.824327e+05   1.073313e+06
  -1.316869e+06   1.776730e+05
  -8.248554e+05  -8.988687e+05
   3.953247e+05  -1.114004e+06
   1.226086e+06  -3.252777e+05
   7.348073e+05   5.738575e+05
  -6.870168e+05   6.660498e+05
  -1.609267e+06  -5.978770e+04
  -1.063734e+06  -8.500353e+05
   4.443899e+05  -1.029222e+06
   1.511968e+06  -5.432100e+05
   1.271775e+06   1.565637e+05
   1.564474e+05   5.243001e+05
  -6.470114e+05   2.941592e+05
  -3.810584e+05  -2.785559e+05
   5.915388e+05  -5.145561e+05
   1.180998e+06   8.702943e+04
   6.603639e+05   1.182229e+06
  -5.978695e+05   1.699158e+06
  -1.488215e+06   8.861765e+05
  -1.267286e+06  -7.545712e+05
  -2.214200e+05  -1.802934e+06
   7.310878e+05  -1.325021e+06
   9.411509e+05   1.494186e+05
   4.673089e+05   1.194368e+06
  -1.888671e+05   9.951705e+05
  -5.597664e+05   1.029862e+05
  -4.890186e+05  -3.809957e+05
  -1.826837e+05  -1.459196e+05
  -4.242678e+04   1.033171e+05
  -2.632676e+05  -2.759285e+05
  -5.169350e+05  -9.582474e+05
  -2.252337e+05  -1.091111e+06
   6.913177e+05  -4.155793e+05
   1.492731e+06   4.501249e+05
   1.317177e+06   8.294849e+05
   1.985523e+05   6.966077e+05
  -8.677088e+05   4.272894e+05
  -9.947915e+05   2.008728e+05
  -3.529197e+05  -3.601709e+04
   1.490235e+05  -2.256324e+05
   1.809702e+04  -2.198315e+05
  -2.835402e+05  -1.058705e+05
  -4.589979e+04  -1.324767e+05
   6.789790e+05  -2.348248e+05
   1.049001e+06   1.405390e+03
   4.206240e+05   6.799226e+05
  -8.425880e+05   1.181104e+06
  -1.683138e+06   7.754374e+05
  -1.401717e+06  -4.165676e+05
  -2.895968e+05  -1.410215e+06
   7.452747e+05  -1.389864e+06
   1.043543e+06  -5.462094e+05
   6.620301e+05   2.328674e+05
   1.336819e+05   3.561098e+05
  -7.974658e+04   5.514669e+04
   7.979189e+04  -2.954756e+04
   3.157249e+05   3.631670e+05
   2.661529e+05   8.110395e+05
  -1.720143e+05   6.818416e+05
  -6.863521e+05  -1.209958e+05
  -7.468197e+05  -9.508207e+05
  -1.191317e+05  -1.028441e+06
   7.556931e+05  -2.466736e+05
   1.043493e+06   7.166144e+05
   3.603057e+05   1.085589e+06
  -7.040610e+05   6.831950e+05
  -1.118342e+06  -5.788614e+04
  -5.409110e+05  -5.965792e+05
   2.724225e+05  -6.764819e+05
   3.653873e+05  -3.774320e+05
  -2.566618e+05  -1.316916e+04
  -6.538613e+05   4.741882e+04
  -1.497642e+05  -3.037576e+05
   8.194224e+05  -6.966063e+05
   1.252016e+06  -5.734664e+05
   7.626499e+05   1.546239e+05
  -8.211075e+04   8.710184e+05
  -5.312907e+05   8.690224e+05
  -4.128876e+05   1.672126e+05
  -5.542402e+04  -4.819776e+05
   2.324392e+05  -4.358686e+05
   3.529546e+05   1.498737e+05
   2.636473e+05   5.755338e+05
  -4.439341e+04   4.222206e+05
  -3.916724e+05  -4.143604e+04
  -4.825853e+05  -2.674976e+05
  -2.474834e+05  -8.810535e+04
   3.626263e+04   1.425492e+05
   8.987366e+04   3.000370e+04
  -5.371238e+03  -3.544737e+05
   5.092573e+04  -5.381388e+05
   3.143198e+05  -2.094880e+05
   4.529659e+05   3.765282e+05
   1.557299e+05   6.423922e+05
  -4.062471e+05   3.178701e+05
  -6.653962e+05  -2.709668e+05
  -2.602851e+05  -5.724600e+05
   5.008613e+05  -3.764254e+05
   8.825903e+05   6.090341e+04
   4.860349e+05   3.700484e+05
  -2.852806e+05   4.025646e+05
  -6.328868e+05   2.355770e+05
  -2.456761e+05   2.479185e+04
   3.505215e+05  -6.562630e+04
   4.090847e+05   6.535447e+04
  -1.718233e+05   2.963211e+05
  -7.507911e+05   2.802337e+05
