
 $NMID
 id='ANONYMOUS ', fmtdat='(2E16.6)'
 volume=1.0
 tramp=1.0
 $END
   6.900248e+06  -1.882038e+06
   4.643604e+06   4.615472e+06
  -1.094652e+06   5.421591e+06
  -3.725761e+06   1.144571e+06
  -1.690218e+06  -2.230896e+06
   1.070671e+06  -1.601447e+06
   1.350958e+06   6.562827e+05
  -6.166268e+04   1.446869e+06
  -1.086026e+06   6.907644e+05
  -1.197676e+06  -1.863613e+05
  -8.295148e+05  -6.678145e+05
  -1.443057e+05  -8.533287e+05
   5.344963e+05  -5.665026e+05
   4.959935e+05   6.088142e+04
  -2.633531e+05   2.466425e+05
  -7.347482e+05  -3.310061e+05
  -2.987447e+05  -9.512753e+05
   4.954013e+05  -9.544419e+05
   9.866598e+05  -5.399057e+05
   1.208207e+06  -1.153913e+04
   1.164538e+06   7.416678e+05
   4.364016e+05   1.447957e+06
  -7.857951e+05   1.229921e+06
  -1.314150e+06  -1.081217e+04
  -5.161356e+05  -9.355909e+05
   5.584791e+05  -4.562048e+05
   5.478744e+05   6.679676e+05
  -3.809441e+05   9.176938e+05
  -1.006358e+06   8.485865e+04
  -7.978533e+05  -7.843519e+05
  -1.933903e+05  -1.022774e+06
   4.038650e+05  -8.119414e+05
   8.502686e+05  -3.532905e+05
   8.057985e+05   2.821272e+05
   1.339570e+05   6.166092e+05
  -4.256377e+05   1.918102e+05
  -5.465549e+04  -4.633117e+05
   7.710628e+05  -3.443893e+05
   8.159476e+05   4.726919e+05
  -7.912553e+03   8.636308e+05
  -4.896177e+05   4.292886e+05
  -9.905737e+04   8.798114e+04
   1.710251e+05   4.609120e+05
  -4.785694e+05   7.859341e+05
  -1.254260e+06   1.940159e+05
  -9.921587e+05  -8.151713e+05
   5.439515e+04  -1.103111e+06
   6.730097e+05  -5.236027e+05
   4.252596e+05   9.146569e+04
  -6.016910e+04   2.123239e+05
  -2.245725e+05   2.148277e+04
  -9.597139e+04  -2.201809e+05
   1.803402e+05  -4.078534e+05
   5.022366e+05  -3.215268e+05
   5.601392e+05   1.358199e+05
   1.616413e+05   5.081921e+05
  -2.389874e+05   3.039905e+05
  -5.704840e+04  -1.281303e+05
   4.169661e+05  -2.796029e+03
   3.206847e+05   6.263924e+05
  -4.198994e+05   8.361326e+05
  -8.944822e+05   2.377307e+05
  -5.924853e+05  -4.386284e+05
  -1.156453e+05  -5.070639e+05
  -9.248696e+04  -2.742096e+05
  -1.983061e+05  -2.995492e+05
   1.010078e+05  -4.048770e+05
   4.875074e+05  -1.391600e+05
   3.030456e+05   2.515544e+05
  -2.624147e+05   1.389226e+05
  -3.651484e+05  -4.123045e+05
   2.165405e+05  -6.498591e+05
   7.707478e+05  -2.106023e+05
   6.822150e+05   4.371404e+05
   1.425060e+05   7.054998e+05
  -3.110050e+05   5.188987e+05
  -4.366793e+05   1.303760e+05
  -2.810100e+05  -2.213046e+05
   2.505209e+04  -3.213499e+05
   2.352472e+05  -5.980957e+04
   1.013994e+05   3.097936e+05
  -2.641663e+05   3.309782e+05
  -4.186170e+05  -5.877112e+04
  -1.612099e+05  -3.944179e+05
   1.897495e+05  -3.121418e+05
   2.586528e+05  -5.697925e+03
   7.752979e+04   1.370879e+05
  -9.463824e+04   5.412878e+04
  -1.436567e+05  -7.223861e+04
  -7.447681e+04  -1.516976e+05
   1.260247e+05  -1.691590e+05
   3.483946e+05  -4.746416e+04
   3.175677e+05   1.895568e+05
  -2.666023e+04   2.928061e+05
  -3.112596e+05   1.106545e+05
  -1.994670e+05  -1.185709e+05
   1.037593e+05  -8.883397e+04
   1.589126e+05   1.037911e+05
  -5.113290e+04   1.375590e+05
  -1.709694e+05  -1.122817e+04
  -8.363753e+04  -9.303915e+04
  -1.962725e+04  -6.225622e+04
  -5.293171e+04  -1.117493e+05
   3.827984e+04  -2.187054e+05
   2.828864e+05  -9.852991e+04
   3.314261e+05   2.617676e+05
  -8.247369e+02   4.384444e+05
  -3.616459e+05   1.691270e+05
  -3.357440e+05  -2.224718e+05
  -2.796684e+04  -2.870966e+05
   1.511355e+05  -6.946286e+04
   8.894326e+04   5.934084e+04
   1.307944e+04  -5.868930e+03
   4.438141e+04  -4.547002e+04
   6.078455e+04   4.380096e+04
  -1.131364e+04   1.077081e+05
  -7.658247e+04   4.165224e+04
  -7.494892e+04  -5.908277e+04
  -5.661147e+04  -1.050811e+05
  -1.627056e+04  -1.240713e+05
   1.138840e+05  -1.110877e+05
   2.571872e+05   6.299500e+03
   2.138389e+05   1.784944e+05
  -2.462586e+04   2.190774e+05
  -1.976368e+05   7.855420e+04
  -1.294529e+05  -5.021302e+04
   2.764214e+04  -1.245781e+04
   4.284083e+04   8.746079e+04
  -6.561206e+04   7.466352e+04
  -1.191500e+05  -3.121890e+04
  -6.852348e+04  -8.960169e+04
  -1.120103e+04  -6.656969e+04
   2.620965e+03  -3.313037e+04
   5.989838e+03  -1.577457e+04
   1.086814e+03   5.950380e+02
  -3.190697e+04  -1.904519e+04
  -3.776624e+04  -1.001715e+05
   5.249018e+04  -1.513338e+05
   1.731149e+05  -6.530896e+04
   1.780134e+05   9.640247e+04
   5.061574e+04   1.635610e+05
  -6.853468e+04   9.244329e+04
  -7.805830e+04   4.128039e+03
  -2.005879e+04  -1.078365e+04
   2.813386e+04   1.459792e+04
   4.433003e+04   3.781359e+04
   1.613349e+04   6.948100e+04
  -7.052353e+04   8.602302e+04
  -1.522600e+05   2.156930e+04
  -1.173852e+05  -9.404829e+04
   2.289615e+04  -1.203304e+05
   1.029603e+05  -8.617063e+03
   2.078791e+04   9.605768e+04
  -1.114918e+05   5.050122e+04
  -1.262301e+05  -8.782212e+04
  -2.179413e+04  -1.622162e+05
   7.901822e+04  -1.312857e+05
   1.170864e+05  -6.502475e+04
   1.222399e+05   1.691424e+03
   1.034080e+05   7.722952e+04
   4.542855e+04   1.206976e+05
  -9.192763e+03   8.307962e+04
  -3.995236e+03   2.252809e+04
   1.358470e+04   3.979436e+04
  -5.247543e+04   9.923607e+04
  -1.642210e+05   5.862872e+04
  -1.597810e+05  -9.537446e+04
   9.631085e+03  -1.863949e+05
   1.774478e+05  -8.888476e+04
   1.702721e+05   9.132047e+04
   2.103147e+04   1.657422e+05
  -1.097443e+05   9.928074e+04
  -1.437734e+05  -1.247321e+03
  -1.177790e+05  -6.187934e+04
  -6.720990e+04  -9.193382e+04
   7.718913e+03  -1.000966e+05
   7.956870e+04  -7.307729e+04
   9.982665e+04  -3.150338e+04
   7.442998e+04  -1.526083e+04
   5.615768e+04  -9.387633e+03
   5.454921e+04   3.652830e+04
   2.422552e+04   1.082101e+05
  -4.455718e+04   1.232508e+05
  -9.184946e+04   4.787109e+04
  -7.009879e+04  -4.915909e+04
  -7.228262e+03  -8.653414e+04
   3.884524e+04  -6.019575e+04
   4.585808e+04  -1.622124e+04
   2.503863e+04   1.618796e+04
  -5.105485e+03   3.237231e+04
  -1.929155e+04   3.292616e+04
   6.912371e+02   2.882890e+04
   2.782641e+04   3.547571e+04
   5.423119e+03   3.888026e+04
  -6.935971e+04   3.010392e+03
  -1.166518e+05  -6.600123e+04
  -6.805969e+04  -1.040142e+05
   3.985428e+04  -6.978387e+04
   1.084188e+05  -4.052841e+03
   9.215431e+04   2.932225e+04
   3.061863e+04   2.492328e+04
  -1.722769e+04   1.544075e+04
  -2.665708e+04   6.517055e+03
  -4.889785e+03  -1.191651e+04
   2.208151e+04  -1.732600e+04
   2.231471e+04   1.544473e+04
  -6.959872e+03   5.006655e+04
  -2.174847e+04   2.729308e+04
   1.406392e+04  -3.137468e+04
   6.271995e+04  -3.508848e+04
   4.814766e+04   4.019216e+04
  -3.741497e+04   9.971613e+04
  -1.102253e+05   5.690292e+04
  -9.586246e+04  -4.482758e+04
  -1.336057e+04  -9.258558e+04
   6.114843e+04  -4.865510e+04
   7.691615e+04   2.313006e+04
   3.199430e+04   5.290302e+04
  -4.473849e+04   2.940627e+04
  -9.925280e+04  -2.111512e+04
  -7.475189e+04  -6.573655e+04
   2.385857e+04  -7.116646e+04
   1.069769e+05  -2.636398e+04
   9.074022e+04   2.947679e+04
   3.540262e+03   3.870776e+04
  -4.453834e+04  -2.011944e+03
  -4.822634e+02  -3.220181e+04
   6.934615e+04  -4.068624e+03
   6.958743e+04   5.975491e+04
  -1.015344e+04   9.863972e+04
  -9.505347e+04   7.783294e+04
  -1.124600e+05   7.171912e+03
  -5.489535e+04  -7.410845e+04
   2.754854e+04  -1.123861e+05
   7.389023e+04  -7.061470e+04
   5.789634e+04   2.469981e+04
   4.647547e+03   8.849925e+04
  -3.736822e+04   6.359083e+04
  -4.362282e+04  -1.002265e+04
  -2.726537e+04  -4.577983e+04
  -9.947605e+03  -2.118858e+04
   1.398082e+03   2.874957e+03
   6.433764e+03  -2.342527e+04
   5.352004e+03  -6.820942e+04
   1.095191e+04  -6.497544e+04
   3.992729e+04  -2.441057e+03
   7.535446e+04   6.393122e+04
   6.724823e+04   8.043817e+04
  -5.163553e+02   4.844327e+04
  -6.879932e+04   8.402152e+03
  -6.900201e+04  -8.917476e+03
  -1.577135e+04  -6.183120e+03
   1.346387e+04  -4.299399e+03
  -1.026497e+04  -1.424658e+04
  -2.959754e+04  -2.577466e+04
   7.513004e+03  -2.093293e+04
   6.499742e+04   5.039877e+03
   6.492281e+04   3.785092e+04
  -9.023121e+03   5.522281e+04
  -9.255286e+04   4.036001e+04
  -1.152539e+05  -8.126938e+03
  -6.395479e+04  -6.761028e+04
   2.116469e+04  -9.632160e+04
   8.416035e+04  -6.624984e+04
   8.820939e+04   7.246901e+02
   4.070988e+04   4.530099e+04
  -9.758486e+03   3.360272e+04
  -1.962622e+04  -2.772616e+03
   2.942861e+03  -6.507756e+03
   1.303075e+04   3.161275e+04
  -1.036894e+04   5.966396e+04
  -3.988111e+04   2.962371e+04
  -3.936112e+04  -4.144240e+04
  -6.024369e+03  -8.688408e+04
   3.462706e+04  -6.072263e+04
   5.527287e+04   1.614226e+04
   3.888968e+04   7.757043e+04
  -1.229843e+04   7.470424e+04
  -6.361505e+04   1.808165e+04
  -6.576292e+04  -3.841759e+04
  -1.113587e+04  -5.257114e+04
   4.237841e+04  -2.983285e+04
   3.374401e+04  -5.647932e+03
  -2.152113e+04  -2.381661e+03
  -4.640185e+04  -1.336651e+04
  -7.198003e+02  -2.196677e+04
   6.723208e+04  -1.926328e+04
   8.241440e+04  -2.621452e+03
   3.202389e+04   2.456834e+04
  -2.936844e+04   4.442829e+04
  -4.885242e+04   3.354573e+04
  -2.433311e+04  -5.354951e+03
   1.071618e+04  -3.384407e+04
   2.743800e+04  -1.890676e+04
   2.004450e+04   2.287831e+04
   1.569795e+01   4.249497e+04
  -1.669720e+04   1.914653e+04
  -2.121069e+04  -1.643512e+04
  -1.676633e+04  -2.493635e+04
  -1.163735e+04  -6.597686e+03
  -7.263694e+03   6.271082e+03
   2.125214e+03  -5.706526e+03
   1.784924e+04  -2.631309e+04
   3.063033e+04  -2.519997e+04
   2.880983e+04   6.269829e+03
   9.640157e+03   4.234205e+04
  -1.787666e+04   4.569313e+04
  -3.699461e+04   6.887492e+03
  -3.123372e+04  -3.942069e+04
   1.886754e+03  -4.684188e+04
   4.021494e+04  -8.899355e+03
   4.917894e+04   3.247444e+04
   1.621179e+04   3.651086e+04
  -2.902234e+04   9.479269e+03
  -4.080695e+04  -1.070287e+04
  -8.269820e+03  -4.389463e+03
   2.859908e+04   1.361607e+04
   2.260989e+04   2.199106e+04
  -2.442301e+04   1.496992e+04
  -5.995290e+04  -4.743958e+03
