
 $NMID
 id='ANONYMOUS ', fmtdat='(2E16.6)'
 volume=1.0
 tramp=1.0
 $END
   5.322598e+07  -2.131598e+06
   3.354843e+07   3.139572e+07
  -5.290105e+06   3.627557e+07
  -2.547081e+07   1.526022e+07
  -1.607254e+07  -5.674819e+06
   2.602727e+06  -9.012275e+06
   9.450668e+06   5.523379e+05
   3.228807e+06   9.148663e+06
  -5.420131e+06   9.330773e+06
  -9.121540e+06   2.438018e+06
  -6.919885e+06  -5.654494e+06
  -1.086114e+06  -8.225820e+06
   3.721261e+06  -2.723088e+06
   2.724286e+06   5.225147e+06
  -3.335209e+06   6.529601e+06
  -7.574884e+06  -8.840468e+05
  -4.681475e+06  -9.533508e+06
   3.095466e+06  -1.139398e+07
   9.357628e+06  -5.995149e+06
   1.029175e+07   1.571729e+06
   6.469197e+06   6.821617e+06
   9.517099e+05   8.042483e+06
  -2.394102e+06   5.754968e+06
  -1.432746e+06   2.731038e+06
   1.233463e+06   2.260079e+06
   2.880146e+05   4.133273e+06
  -5.180047e+06   4.351994e+06
  -9.308932e+06   6.922802e+05
  -6.844317e+06  -3.761036e+06
  -2.921863e+05  -4.790420e+06
   3.581065e+06  -2.466613e+06
   2.330855e+06   5.907341e+04
  -7.636030e+05   1.009014e+06
  -2.381638e+06   4.675352e+05
  -2.165906e+06  -1.483121e+06
  -6.648809e+05  -3.838827e+06
   1.634630e+06  -3.686722e+06
   2.965001e+06   6.809068e+04
   1.637415e+06   3.361094e+06
  -6.417012e+05   1.709398e+06
  -3.040761e+05  -2.465795e+06
   2.327879e+06  -2.351699e+06
   2.500412e+06   2.926057e+06
  -1.958689e+06   5.940052e+06
  -6.430792e+06   1.297729e+06
  -5.102265e+06  -6.299361e+06
   1.419865e+06  -8.134298e+06
   6.947596e+06  -2.581282e+06
   6.873666e+06   3.997814e+06
   2.072824e+06   5.761811e+06
  -3.248742e+06   2.806748e+06
  -5.205119e+06  -1.227509e+06
  -2.558793e+06  -3.264600e+06
   2.182305e+06  -2.235150e+06
   4.374004e+06   6.681078e+05
   2.005940e+06   2.502662e+06
  -1.574324e+06   1.380296e+06
  -1.751619e+06  -9.212096e+05
   1.165377e+06  -1.008437e+06
   2.474110e+06   1.445619e+06
  -2.956903e+05   3.235685e+06
  -4.204387e+06   2.049304e+06
  -5.103865e+06  -9.824375e+05
  -2.409559e+06  -3.658980e+06
   1.564716e+06  -5.108080e+06
   4.722778e+06  -4.805719e+06
   5.917426e+06  -1.840462e+06
   4.457914e+06   2.913953e+06
   1.085280e+06   5.920139e+06
  -1.588924e+06   4.711450e+06
  -1.631962e+06   1.353585e+06
  -2.543391e+05  -1.340374e+05
  -1.031845e+05   9.539161e+05
  -1.618564e+06   1.695754e+06
  -2.750398e+06   1.925351e+05
  -1.983867e+06  -1.928408e+06
  -3.770168e+02  -2.141531e+06
   1.598702e+06  -2.121766e+05
   1.732742e+06   2.058256e+06
   6.135573e+04   2.901924e+06
  -2.667721e+06   1.659324e+06
  -4.348281e+06  -1.061821e+06
  -3.190145e+06  -3.522427e+06
  -9.823932e+04  -4.027380e+06
   2.058968e+06  -2.663875e+06
   2.068314e+06  -1.194488e+06
   1.746422e+06  -7.723074e+05
   2.879662e+06  -6.013304e+05
   4.312979e+06   5.896934e+05
   3.532839e+06   2.611983e+06
   2.583975e+05   4.080614e+06
  -3.069963e+06   3.951740e+06
  -4.085004e+06   2.187557e+06
  -2.621963e+06  -3.812286e+05
  -2.861294e+05  -2.208648e+06
   1.065123e+06  -1.917783e+06
   5.503330e+05   3.407317e+04
  -1.052722e+06   1.318706e+06
  -1.866422e+06   4.480416e+05
  -9.290897e+05  -1.154556e+06
   4.965005e+05  -1.117786e+06
   4.652083e+05   3.769806e+05
  -1.006331e+06   7.778372e+05
  -1.904992e+06  -1.123051e+06
  -8.464703e+05  -3.392981e+06
   1.374268e+06  -3.502396e+06
   3.070065e+06  -1.316158e+06
   3.393676e+06   1.285108e+06
   2.400219e+06   2.706216e+06
   5.351611e+05   2.617718e+06
  -1.205050e+06   1.490856e+06
  -1.567884e+06   2.596749e+05
  -4.916369e+05  -3.182886e+04
   3.788942e+05   7.379013e+05
  -3.613368e+05   1.339336e+06
  -1.863150e+06   6.343919e+05
  -2.045973e+06  -8.068791e+05
  -4.358746e+05  -1.389585e+06
   1.148723e+06  -6.079887e+05
   9.119606e+05   4.323769e+05
  -8.301327e+05   5.671848e+05
  -2.209277e+06  -2.385803e+05
  -1.808189e+06  -1.314872e+06
   1.848576e+05  -1.998430e+06
   2.263618e+06  -1.727731e+06
   2.761198e+06  -3.533463e+05
   1.248998e+06   1.218565e+06
  -8.633272e+05   1.511859e+06
  -1.533247e+06   2.350767e+05
  -2.257627e+05  -1.060369e+06
   1.487178e+06  -7.749655e+05
   1.738450e+06   7.258401e+05
   3.942944e+05   1.641723e+06
  -1.057342e+06   1.019870e+06
  -1.271986e+06  -2.641492e+05
  -2.786616e+05  -7.727836e+05
   7.874529e+05  -8.167287e+04
   7.620541e+05   1.027327e+06
  -5.368238e+05   1.433532e+06
  -1.986877e+06   5.930559e+05
  -2.056872e+06  -9.915876e+05
  -4.413658e+05  -2.057005e+06
   1.386695e+06  -1.680493e+06
   1.716505e+06  -2.622925e+05
   5.301468e+05   8.526876e+05
  -6.343016e+05   8.233981e+05
  -6.356356e+05   8.992703e+04
   1.089135e+05  -3.766720e+05
   4.992666e+05  -2.286209e+05
   1.406716e+05   7.390817e+04
  -4.475568e+05  -4.417891e+04
  -5.464608e+05  -6.462359e+05
   1.636040e+05  -1.192105e+06
   1.352409e+06  -9.354271e+05
   2.089128e+06   3.538209e+05
   1.515431e+06   1.897376e+06
  -1.502967e+05   2.423591e+06
  -1.577601e+06   1.460823e+06
  -1.699993e+06  -7.722653e+04
  -8.884436e+05  -8.839233e+05
  -3.292777e+05  -6.615576e+05
  -4.669841e+05  -2.121775e+05
  -6.249051e+05  -2.852876e+05
  -1.140795e+05  -7.517073e+05
   8.467792e+05  -9.269122e+05
   1.441309e+06  -3.686560e+05
   1.074171e+06   6.980338e+05
  -2.089905e+05   1.475136e+06
  -1.693064e+06   1.123460e+06
  -2.260928e+06  -4.206351e+05
  -1.195060e+06  -2.065338e+06
   9.340297e+05  -2.391994e+06
   2.505474e+06  -1.108058e+06
   2.372478e+06   5.867772e+05
   1.002839e+06   1.315705e+06
  -1.787408e+05   9.632066e+05
  -3.869083e+05   5.254148e+05
  -6.997846e+04   7.451395e+05
  -6.880234e+04   1.294843e+06
  -6.272404e+05   1.299194e+06
  -1.276450e+06   3.543678e+05
  -1.362486e+06  -1.040066e+06
  -6.072828e+05  -1.874542e+06
   5.813411e+05  -1.450709e+06
   1.284523e+06  -3.460086e+04
   8.503914e+05   1.255637e+06
  -3.445905e+05   1.406615e+06
  -1.146035e+06   4.479239e+05
  -8.341632e+05  -6.619300e+05
   8.200416e+04  -1.074935e+06
   5.050823e+05  -8.020999e+05
   7.188606e+04  -4.233493e+05
  -4.390879e+05  -3.235385e+05
  -6.918727e+04  -3.808732e+05
   1.137921e+06  -2.449817e+05
   2.064889e+06   2.689675e+05
   1.644631e+06   9.860367e+05
   1.015720e+04   1.432438e+06
  -1.546562e+06   1.185251e+06
  -1.820150e+06   3.335077e+05
  -8.521326e+05  -4.645639e+05
   2.396600e+05  -5.740361e+05
   5.098404e+05  -5.190224e+04
   4.382889e+04   4.143439e+05
  -4.352338e+05   2.683425e+05
  -4.898618e+05  -3.266394e+05
  -2.697555e+05  -7.114403e+05
  -1.065930e+05  -4.722470e+05
  -1.371308e+05   1.003359e+05
  -2.758110e+05   2.997348e+05
  -2.826143e+05  -2.244061e+05
   1.149387e+05  -9.878323e+05
   8.656045e+05  -1.089923e+06
   1.349062e+06  -2.175601e+05
   8.748307e+05   8.834354e+05
  -3.772600e+05   1.147634e+06
  -1.240660e+06   3.750612e+05
  -7.480940e+05  -5.499053e+05
   6.824523e+05  -6.687478e+05
   1.590628e+06   5.129316e+04
   1.030595e+06   8.377086e+05
  -4.575981e+05   1.005172e+06
  -1.487826e+06   5.198638e+05
  -1.239178e+06  -1.589424e+05
  -1.475965e+05  -5.113928e+05
   6.427855e+05  -2.874896e+05
   3.939060e+05   2.817087e+05
  -5.659634e+05   5.387151e+05
  -1.181952e+06  -4.214953e+04
  -7.087709e+05  -1.154653e+06
   5.305423e+05  -1.717391e+06
   1.450287e+06  -9.328526e+05
   1.277945e+06   7.154991e+05
   2.583170e+05   1.782714e+06
  -7.020324e+05   1.313806e+06
  -9.315450e+05  -1.522640e+05
  -4.637474e+05  -1.181180e+06
   1.972302e+05  -9.753376e+05
   5.622812e+05  -9.960379e+04
   4.725922e+05   3.644870e+05
   1.619118e+05   1.333533e+05
   4.838717e+04  -9.614520e+04
   2.978467e+05   2.865391e+05
   5.428368e+05   9.503199e+05
   2.167720e+05   1.073846e+06
  -7.103794e+05   4.189232e+05
  -1.487416e+06  -4.191721e+05
  -1.298645e+06  -7.994223e+05
  -2.064662e+05  -6.943959e+05
   8.326008e+05  -4.446572e+05
   9.764051e+05  -2.097339e+05
   3.698885e+05   4.382210e+04
  -1.350014e+05   2.301238e+05
  -3.957991e+04   2.045308e+05
   2.562293e+05   8.331648e+04
   5.899629e+04   1.296629e+05
  -6.410142e+05   2.594266e+05
  -1.047686e+06   2.846281e+04
  -4.739747e+05  -6.747171e+05
   7.876467e+05  -1.211544e+06
   1.679105e+06  -8.272263e+05
   1.440069e+06   3.706009e+05
   3.297330e+05   1.393293e+06
  -7.205542e+05   1.408376e+06
  -1.028805e+06   5.849311e+05
  -6.604693e+05  -2.018873e+05
  -1.525495e+05  -3.526402e+05
   5.474713e+04  -7.428406e+04
  -8.698671e+04   1.157826e+04
  -3.083696e+05  -3.626722e+05
  -2.708322e+05  -8.010169e+05
   1.508863e+05  -6.884902e+05
   6.810808e+05   8.628219e+04
   7.819507e+05   9.121759e+05
   1.720386e+05   1.025691e+06
  -7.315606e+05   2.898249e+05
  -1.065345e+06  -6.657952e+05
  -4.010961e+05  -1.075229e+06
   6.822905e+05  -7.164909e+05
   1.128669e+06   2.528966e+04
   5.663522e+05   6.010208e+05
  -2.592392e+05   7.039549e+05
  -3.775398e+05   3.884798e+05
   2.324194e+05  -3.425968e+03
   6.439764e+05  -6.622975e+04
   1.642302e+05   3.043319e+05
  -8.000139e+05   7.088458e+05
  -1.253608e+06   5.800227e+05
  -7.863013e+05  -1.569760e+05
   6.012496e+04  -8.790725e+05
   5.310584e+05  -8.864841e+05
   4.325902e+05  -1.923632e+05
   7.972821e+04   4.694022e+05
  -2.175570e+05   4.529446e+05
  -3.547620e+05  -1.193541e+05
  -2.794495e+05  -5.664247e+05
   2.947030e+04  -4.418047e+05
   3.924492e+05   2.250634e+04
   4.937825e+05   2.707309e+05
   2.481545e+05   9.566428e+04
  -4.961021e+04  -1.587889e+05
  -8.882420e+04  -6.333783e+04
   4.484514e+04   3.402591e+05
   4.091417e+03   5.634215e+05
  -2.961848e+05   2.569334e+05
  -4.906463e+05  -3.394784e+05
  -2.096469e+05  -6.345934e+05
   3.864164e+05  -3.378010e+05
   6.847520e+05   2.400624e+05
   2.846979e+05   5.556537e+05
  -4.967341e+05   3.898651e+05
  -8.941891e+05  -3.016904e+04
  -4.996415e+05  -3.566367e+05
   2.751744e+05  -4.244710e+05
   6.316144e+05  -2.701500e+05
   2.617648e+05  -3.347276e+04
  -3.238938e+05   9.295515e+04
  -4.006438e+05  -2.973837e+04
   1.431835e+05  -2.853882e+05
   7.082235e+05  -2.999316e+05
