
 $NMID
 id='ANONYMOUS ', fmtdat='(2E16.6)'
 volume=1.0
 tramp=1.0
 $END
   4.669388e+07   5.177392e+05
   2.824314e+07   2.818578e+07
  -5.596762e+06   3.123864e+07
  -2.261033e+07   1.302827e+07
  -1.410949e+07  -4.789404e+06
   2.251102e+06  -7.814570e+06
   8.348715e+06   3.037461e+05
   2.959167e+06   8.039178e+06
  -4.779284e+06   8.479616e+06
  -8.142097e+06   2.198971e+06
  -6.021562e+06  -5.347973e+06
  -6.441680e+05  -7.556317e+06
   3.524691e+06  -2.206530e+06
   2.357772e+06   5.094792e+06
  -3.124140e+06   6.038118e+06
  -6.724600e+06  -8.706099e+05
  -3.927395e+06  -8.620207e+06
   3.084171e+06  -1.004423e+07
   8.521821e+06  -4.912634e+06
   8.971174e+06   1.951133e+06
   5.179764e+06   6.324205e+06
   3.076622e+05   6.873207e+06
  -2.132474e+06   4.655723e+06
  -8.038128e+05   2.416467e+06
   1.410867e+06   2.552468e+06
  -4.600659e+04   4.162223e+06
  -5.291492e+06   3.732994e+06
  -8.739778e+06  -8.397691e+03
  -5.981410e+06  -3.881166e+06
   2.698118e+05  -4.350725e+06
   3.702554e+06  -1.876514e+06
   2.144741e+06   5.428733e+05
  -1.153616e+06   1.231183e+06
  -2.717011e+06   2.850521e+05
  -2.056750e+06  -1.854818e+06
  -1.889901e+05  -3.830177e+06
   1.800473e+06  -3.152495e+06
   2.451761e+06   4.773321e+05
   1.006421e+06   3.085992e+06
  -7.006889e+05   1.145304e+06
  -8.664264e+03  -2.600920e+06
   2.291482e+06  -2.191688e+06
   2.200553e+06   2.633591e+06
  -1.725940e+06   5.155043e+06
  -5.426140e+06   9.380031e+05
  -4.150437e+06  -5.635919e+06
   1.473276e+06  -7.022466e+06
   6.238396e+06  -1.990658e+06
   6.171741e+06   3.839943e+06
   1.860385e+06   5.351688e+06
  -3.035572e+06   2.597741e+06
  -4.868564e+06  -1.151967e+06
  -2.422337e+06  -3.008817e+06
   1.926838e+06  -1.990891e+06
   3.906908e+06   6.704163e+05
   1.775157e+06   2.253704e+06
  -1.433782e+06   1.183602e+06
  -1.648709e+06  -8.739399e+05
   8.987602e+05  -9.877507e+05
   2.160007e+06   1.083752e+06
  -1.045120e+05   2.630830e+06
  -3.520931e+06   1.696406e+06
  -4.448052e+06  -8.602120e+05
  -2.079630e+06  -3.245211e+06
   1.690561e+06  -4.576428e+06
   4.698910e+06  -4.186749e+06
   5.571800e+06  -1.327319e+06
   3.851489e+06   2.973393e+06
   6.686977e+05   5.519058e+06
  -1.540429e+06   4.333623e+06
  -1.423166e+06   1.393323e+06
  -3.370095e+05   1.375975e+05
  -4.695875e+05   1.002746e+06
  -1.893350e+06   1.396937e+06
  -2.713480e+06  -1.977344e+05
  -1.739450e+06  -2.163140e+06
   2.528693e+05  -2.175887e+06
   1.720243e+06  -1.107449e+05
   1.654185e+06   2.165205e+06
  -1.161353e+05   2.830792e+06
  -2.653580e+06   1.369442e+06
  -3.967687e+06  -1.310777e+06
  -2.672436e+06  -3.415716e+06
   1.500581e+05  -3.593111e+06
   1.938866e+06  -2.241474e+06
   1.834108e+06  -1.009393e+06
   1.594601e+06  -7.331127e+05
   2.741837e+06  -5.401242e+05
   4.091200e+06   6.715909e+05
   3.296248e+06   2.608056e+06
   1.088045e+05   3.937581e+06
  -3.137169e+06   3.691045e+06
  -4.082529e+06   1.887072e+06
  -2.501653e+06  -5.770459e+05
  -7.910182e+04  -2.188066e+06
   1.195195e+06  -1.766808e+06
   5.223472e+05   9.419972e+04
  -1.101916e+06   1.216187e+06
  -1.792632e+06   3.431404e+05
  -7.969313e+05  -1.136973e+06
   5.585878e+05  -1.067423e+06
   5.008302e+05   3.623173e+05
  -8.842713e+05   8.072670e+05
  -1.768132e+06  -9.131760e+05
  -8.821704e+05  -3.117062e+06
   1.161477e+06  -3.403292e+06
   2.880422e+06  -1.417456e+06
   3.341272e+06   1.188190e+06
   2.391865e+06   2.720054e+06
   4.795083e+05   2.630212e+06
  -1.253625e+06   1.410865e+06
  -1.552194e+06   1.690957e+05
  -4.749563e+05  -4.995034e+04
   3.414737e+05   7.249116e+05
  -3.758209e+05   1.250658e+06
  -1.772495e+06   5.349320e+05
  -1.918054e+06  -8.103839e+05
  -3.916657e+05  -1.319258e+06
   1.117742e+06  -5.602018e+05
   9.063830e+05   4.411638e+05
  -7.862946e+05   5.825650e+05
  -2.176652e+06  -2.217622e+05
  -1.805484e+06  -1.325266e+06
   1.913821e+05  -1.991704e+06
   2.259305e+06  -1.645961e+06
   2.695471e+06  -2.585967e+05
   1.155549e+06   1.201298e+06
  -8.769062e+05   1.388700e+06
  -1.445997e+06   1.555510e+05
  -1.511841e+05  -1.011178e+06
   1.458101e+06  -6.841463e+05
   1.656795e+06   7.425950e+05
   3.637397e+05   1.592970e+06
  -1.019701e+06   9.883069e+05
  -1.228780e+06  -2.469669e+05
  -2.796817e+05  -7.359737e+05
   7.374699e+05  -5.642631e+04
   6.868602e+05   1.014912e+06
  -5.845827e+05   1.359137e+06
  -1.949254e+06   4.838310e+05
  -1.944563e+06  -1.044771e+06
  -3.489958e+05  -1.998655e+06
   1.386867e+06  -1.571722e+06
   1.661450e+06  -2.070222e+05
   4.990075e+05   8.331363e+05
  -6.326224e+05   7.845763e+05
  -6.440918e+05   6.415776e+04
   9.270355e+04  -4.032782e+05
   5.225533e+05  -2.537301e+05
   2.080066e+05   8.101747e+04
  -3.869837e+05   2.289487e+02
  -5.218909e+05  -5.914716e+05
   1.658373e+05  -1.134783e+06
   1.328089e+06  -8.647158e+05
   2.007825e+06   4.118947e+05
   1.394017e+06   1.889794e+06
  -2.350829e+05   2.352020e+06
  -1.585062e+06   1.391846e+06
  -1.676261e+06  -1.075288e+05
  -8.834279e+05  -9.158428e+05
  -3.189816e+05  -7.295581e+05
  -4.089456e+05  -2.751862e+05
  -5.441383e+05  -2.862759e+05
  -7.243743e+04  -7.008971e+05
   8.374629e+05  -8.742698e+05
   1.416904e+06  -3.322204e+05
   1.052797e+06   7.208548e+05
  -2.282469e+05   1.460839e+06
  -1.683511e+06   1.057506e+06
  -2.192355e+06  -4.802177e+05
  -1.106541e+06  -2.035037e+06
   9.552373e+05  -2.277647e+06
   2.437728e+06  -1.006820e+06
   2.293500e+06   6.124065e+05
   9.814904e+05   1.304486e+06
  -1.723170e+05   9.732174e+05
  -4.244735e+05   5.440563e+05
  -1.593641e+05   7.206204e+05
  -1.500705e+05   1.216786e+06
  -6.485688e+05   1.205555e+06
  -1.231543e+06   2.842277e+05
  -1.273032e+06  -1.064474e+06
  -5.136873e+05  -1.843570e+06
   6.239080e+05  -1.385722e+06
   1.250329e+06   5.631303e+03
   7.873404e+05   1.229135e+06
  -3.560117e+05   1.344869e+06
  -1.088609e+06   4.247060e+05
  -7.742459e+05  -6.171090e+05
   8.377412e+04  -1.003901e+06
   4.697502e+05  -7.608523e+05
   6.349278e+04  -4.257923e+05
  -4.053725e+05  -3.420383e+05
  -4.710682e+04  -3.769705e+05
   1.094601e+06  -1.997153e+05
   1.966848e+06   3.300931e+05
   1.555710e+06   1.000489e+06
  -1.558505e+04   1.363195e+06
  -1.509075e+06   1.077569e+06
  -1.762267e+06   2.763916e+05
  -8.162704e+05  -4.405113e+05
   2.395742e+05  -5.269726e+05
   4.837057e+05  -4.680338e+04
   1.182664e+04   3.801936e+05
  -4.463028e+05   2.374540e+05
  -4.576917e+05  -3.369442e+05
  -2.047903e+05  -7.120129e+05
  -5.698588e+04  -4.669757e+05
  -1.382177e+05   1.133097e+05
  -2.996406e+05   3.085355e+05
  -2.710114e+05  -2.242205e+05
   1.631157e+05  -9.655090e+05
   8.801197e+05  -1.018223e+06
   1.283057e+06  -1.357960e+05
   7.790806e+05   8.950973e+05
  -4.128498e+05   1.070214e+06
  -1.200182e+06   2.845730e+05
  -7.006933e+05  -5.727617e+05
   6.792310e+05  -6.283219e+05
   1.553790e+06   9.168408e+04
   1.008713e+06   8.401253e+05
  -4.497050e+05   9.811208e+05
  -1.468394e+06   4.926813e+05
  -1.223051e+06  -1.756972e+05
  -1.406946e+05  -5.080462e+05
   6.300290e+05  -2.693666e+05
   3.609071e+05   2.797720e+05
  -5.862747e+05   4.875048e+05
  -1.145266e+06  -1.104744e+05
  -6.159180e+05  -1.163801e+06
   6.176053e+05  -1.638325e+06
   1.464080e+06  -8.289758e+05
   1.213157e+06   7.584909e+05
   1.765688e+05   1.751659e+06
  -7.340304e+05   1.266993e+06
  -9.045298e+05  -1.647640e+05
  -4.252866e+05  -1.163113e+06
   2.026915e+05  -9.541430e+05
   5.422859e+05  -8.548421e+04
   4.652314e+05   3.760856e+05
   1.741935e+05   1.411618e+05
   4.217934e+04  -9.762524e+04
   2.469021e+05   2.785583e+05
   4.789124e+05   9.410569e+05
   1.948953e+05   1.056521e+06
  -6.781062e+05   3.820949e+05
  -1.435817e+06  -4.673145e+05
  -1.257002e+06  -8.274948e+05
  -1.760463e+05  -6.786473e+05
   8.496970e+05  -3.988968e+05
   9.661374e+05  -1.741197e+05
   3.392006e+05   4.613075e+04
  -1.492444e+05   2.169724e+05
  -2.056058e+04   2.080027e+05
   2.740062e+05   1.037978e+05
   4.172383e+04   1.310720e+05
  -6.640765e+05   2.178080e+05
  -1.017551e+06  -2.477220e+04
  -3.927049e+05  -6.749856e+05
   8.442948e+05  -1.130855e+06
   1.651610e+06  -7.118376e+05
   1.352650e+06   4.398580e+05
   2.508430e+05   1.374629e+06
  -7.544937e+05   1.329227e+06
  -1.026418e+06   5.064273e+05
  -6.386856e+05  -2.392716e+05
  -1.216375e+05  -3.499280e+05
   8.076843e+04  -5.601760e+04
  -7.498615e+04   2.488113e+04
  -2.960854e+05  -3.567822e+05
  -2.397071e+05  -7.895024e+05
   1.823233e+05  -6.577249e+05
   6.651859e+05   1.308834e+05
   7.063351e+05   9.398409e+05
   9.331365e+04   1.004358e+06
  -7.417397e+05   2.260530e+05
  -1.000081e+06  -7.181669e+05
  -3.256553e+05  -1.063096e+06
   7.006730e+05  -6.479431e+05
   1.084206e+06   8.278446e+04
   5.081835e+05   5.930845e+05
  -2.831853e+05   6.496808e+05
  -3.637338e+05   3.539004e+05
   2.497653e+05   1.398257e+04
   6.353836e+05  -3.271240e+04
   1.378840e+05   2.993159e+05
  -8.087720e+05   6.571639e+05
  -1.223234e+06   5.244970e+05
  -7.330961e+05  -1.710429e+05
   1.001246e+05  -8.429979e+05
   5.361088e+05  -8.272833e+05
   4.074745e+05  -1.492720e+05
   4.519980e+04   4.704228e+05
  -2.370681e+05   4.185002e+05
  -3.425738e+05  -1.523017e+05
  -2.431807e+05  -5.642260e+05
   5.554432e+04  -4.097592e+05
   3.803858e+05   4.862151e+04
   4.595015e+05   2.714245e+05
   2.356875e+05   9.115884e+04
  -2.931666e+04  -1.411947e+05
  -8.039910e+04  -3.190666e+04
   5.864880e+02   3.485682e+05
  -6.420790e+04   5.284811e+05
  -3.157989e+05   1.995514e+05
  -4.360580e+05  -3.792652e+05
  -1.384198e+05  -6.327588e+05
   4.024268e+05  -3.014266e+05
   6.419746e+05   2.794826e+05
   2.415148e+05   5.624174e+05
  -4.945398e+05   3.528548e+05
  -8.562455e+05  -8.039264e+04
  -4.633164e+05  -3.704448e+05
   2.881215e+05  -3.844050e+05
   6.222603e+05  -2.140985e+05
   2.398153e+05  -1.587593e+04
  -3.435846e+05   6.058754e+04
  -3.991553e+05  -6.994700e+04
   1.699482e+05  -2.865290e+05
   7.333078e+05  -2.609475e+05
