
 $NMID
 id='ANONYMOUS ', fmtdat='(2E16.6)'
 volume=1.0
 tramp=1.0
 $END
  -2.053954e+07   1.142216e+06
  -1.159807e+07  -1.476877e+07
   4.868408e+06  -1.488796e+07
   1.132039e+07  -2.821823e+06
   4.936860e+06   5.972829e+06
  -3.002535e+06   4.299896e+06
  -3.924569e+06  -1.680447e+06
   3.738186e+04  -4.186051e+06
   3.202348e+06  -2.446193e+06
   3.682177e+06   4.423470e+05
   2.311092e+06   2.548988e+06
  -5.812619e+04   2.997488e+06
  -1.899215e+06   1.291468e+06
  -1.298963e+06  -1.082619e+06
   1.156048e+06  -1.283944e+06
   2.332843e+06   1.112697e+06
   6.628517e+05   3.285873e+06
  -1.999507e+06   3.044443e+06
  -3.453290e+06   1.164568e+06
  -3.548746e+06  -8.761845e+05
  -2.626525e+06  -2.776713e+06
  -3.794332e+05  -3.931519e+06
   2.285610e+06  -2.892175e+06
   2.885180e+06  -3.948858e+04
   7.964442e+05   1.601895e+06
  -1.078986e+06   2.557259e+05
  -1.439132e+05  -1.823718e+06
   2.206609e+06  -1.533401e+06
   2.853906e+06   7.914034e+05
   1.318716e+06   2.459620e+06
  -4.463215e+05   2.354548e+06
  -1.314271e+06   1.426782e+06
  -1.563102e+06   3.832671e+05
  -1.154415e+06  -6.375669e+05
   4.917744e+03  -8.394869e+05
   6.559422e+05   2.917099e+05
  -4.270470e+05   1.275209e+06
  -1.959010e+06   3.131957e+05
  -1.590488e+06  -1.605806e+06
   2.944139e+05  -1.860053e+06
   9.675936e+05  -4.027474e+05
  -1.788545e+05   4.879448e+04
  -5.157402e+05  -1.430572e+06
   1.440479e+06  -2.191836e+06
   3.302476e+06  -1.772708e+05
   2.292508e+06   2.658134e+06
  -6.394336e+05   3.093845e+06
  -2.317168e+06   1.038109e+06
  -1.578651e+06  -9.319857e+05
   5.296188e+04  -1.211856e+06
   9.828568e+05  -3.168762e+05
   8.469898e+05   7.616563e+05
  -1.686555e+05   1.373170e+06
  -1.440036e+06   8.980997e+05
  -1.709890e+06  -5.590818e+05
  -4.701589e+05  -1.505856e+06
   7.840374e+05  -7.705238e+05
   3.465105e+05   4.660231e+05
  -9.841635e+05   1.298980e+05
  -8.670352e+05  -1.496885e+06
   9.979558e+05  -2.010273e+06
   2.337170e+06  -4.894996e+05
   1.703223e+06   1.245251e+06
   3.194860e+05   1.551820e+06
  -2.777645e+05   1.087448e+06
  -4.618797e+05   9.772434e+05
  -1.070549e+06   7.440548e+05
  -1.401238e+06  -3.622845e+05
  -4.363665e+05  -1.367862e+06
   9.607997e+05  -8.077542e+05
   9.727648e+05   7.656402e+05
  -4.564881e+05   1.329168e+06
  -1.507020e+06   2.218229e+05
  -1.031885e+06  -1.130963e+06
   1.968074e+05  -1.352542e+06
   9.138748e+05  -6.194795e+05
   8.007578e+05   1.596791e+05
   2.400873e+05   4.868262e+05
  -3.155823e+05   2.675043e+05
  -3.808407e+05  -3.523455e+05
   2.877910e+05  -7.583912e+05
   1.100582e+06  -2.860011e+05
   1.058842e+06   7.740762e+05
   8.192106e+04   1.302305e+06
  -7.893140e+05   7.997179e+05
  -8.007305e+05   5.519459e+03
  -3.623796e+05  -2.562594e+05
  -1.740747e+05  -1.045708e+05
  -2.373162e+05  -5.256863e+04
  -2.290584e+05  -1.506796e+05
  -1.755701e+05  -2.255967e+05
  -1.659849e+05  -3.623745e+05
   3.247232e+04  -5.552944e+05
   4.610300e+05  -4.150470e+05
   5.921599e+05   1.563526e+05
   1.227319e+05   5.060168e+05
  -3.386636e+05   1.348181e+05
  -1.167365e+05  -4.029110e+05
   4.217042e+05  -2.908579e+05
   4.476042e+05   2.540596e+05
   2.662582e+04   3.916119e+05
  -7.890807e+04   9.304910e+04
   1.944570e+05   1.112787e+05
   9.663753e+04   5.516297e+05
  -5.426639e+05   5.876924e+05
  -8.724122e+05  -1.231031e+05
  -3.627626e+05  -7.566013e+05
   3.270048e+05  -5.660846e+05
   3.886031e+05   2.122322e+04
   2.815755e+04   1.923610e+05
  -8.254853e+04  -2.975481e+04
   7.092694e+04  -9.235195e+04
   4.316519e+04   4.350699e+04
  -1.387687e+05  -2.302493e+04
  -4.785163e+04  -2.725732e+05
   3.048513e+05  -2.622374e+05
   4.408217e+05   8.330560e+04
   2.018489e+05   3.487457e+05
  -6.311300e+04   3.179042e+05
  -1.342874e+05   2.055799e+05
  -1.714181e+05   1.482503e+05
  -2.483165e+05   1.370875e+04
  -1.836620e+05  -1.774208e+05
   1.614349e+04  -1.656595e+05
   4.840704e+04   4.357349e+04
  -1.468884e+05   7.422036e+04
  -1.970017e+05  -1.992883e+05
   9.670313e+04  -3.700868e+05
   3.720817e+05  -1.241094e+05
   2.451064e+05   2.405880e+05
  -1.003739e+05   2.641698e+05
  -2.168918e+05  -9.349598e+03
  -3.509988e+04  -1.851710e+05
   1.574294e+05  -1.119986e+05
   1.923278e+05   4.469299e+04
   1.229086e+05   1.620521e+05
  -1.482042e+04   2.313278e+05
  -1.988423e+05   1.774579e+05
  -2.652510e+05  -4.426567e+04
  -8.463045e+04  -2.314334e+05
   1.540283e+05  -1.414251e+05
   1.430782e+05   1.140861e+05
  -8.960410e+04   1.889288e+05
  -2.241465e+05   2.407520e+03
  -1.275116e+05  -1.864343e+05
   2.216103e+04  -2.068608e+05
   9.725884e+04  -1.559373e+05
   1.731748e+05  -1.072709e+05
   2.550101e+05   2.442250e+04
   1.849728e+05   2.186577e+05
  -4.487805e+04   2.612287e+05
  -1.825193e+05   8.421924e+04
  -8.888272e+04  -7.263417e+04
   3.687478e+04  -2.434198e+04
  -6.291552e+03   7.745231e+04
  -1.026955e+05   3.199638e+04
  -6.346521e+04  -6.897653e+04
   2.987042e+04  -3.960002e+04
  -2.655095e+03   4.976909e+04
  -9.379881e+04   1.199500e+04
  -5.701116e+04  -1.011228e+05
   5.592859e+04  -9.332538e+04
   4.394633e+04   6.486769e+03
  -5.932603e+04  -7.826638e+03
  -2.343534e+04  -1.271113e+05
   1.566792e+05  -1.131295e+05
   2.105492e+05   8.077509e+04
   3.570066e+04   1.945199e+05
  -1.204157e+05   7.614486e+04
  -5.670009e+04  -7.368253e+04
   7.630770e+04  -3.545216e+04
   5.364900e+04   9.199792e+04
  -6.464805e+04   9.489030e+04
  -7.897242e+04  -1.128140e+03
   2.821566e+03  -1.764295e+04
   1.021431e+04   5.380829e+04
  -8.381122e+04   5.802753e+04
  -1.345665e+05  -4.636015e+04
  -7.355860e+04  -1.334204e+05
   1.613718e+04  -1.252371e+05
   6.893383e+04  -7.585000e+04
   1.051383e+05  -3.079808e+04
   1.188914e+05   3.148793e+04
   6.002027e+04   9.257946e+04
  -4.113339e+04   7.827579e+04
  -7.291565e+04  -6.910924e+03
  -8.473965e+03  -5.532324e+04
   4.920539e+04  -1.323266e+04
   2.963651e+04   4.625882e+04
  -1.329150e+04   5.095978e+04
  -1.765844e+04   2.541708e+04
  -8.832702e+03   1.145439e+04
  -2.045166e+04  -4.415766e+03
  -2.383011e+04  -2.714973e+04
  -3.125198e+03  -1.376735e+04
  -6.840170e+03   3.624583e+04
  -5.178496e+04   4.189739e+04
  -6.438482e+04  -3.272293e+04
   6.474943e+02  -9.705948e+04
   6.571420e+04  -6.509495e+04
   4.709795e+04   8.582265e+03
  -7.730086e+03   2.140924e+04
  -4.334516e+03  -1.449901e+04
   4.017772e+04  -1.393288e+04
   4.125083e+04   2.657452e+04
   2.671119e+03   3.810025e+04
  -2.330182e+03   1.593546e+04
   1.962751e+04   2.001664e+04
  -8.954137e+03   4.497983e+04
  -7.694452e+04   1.782339e+04
  -7.571311e+04  -5.772777e+04
   1.838362e+04  -7.890488e+04
   8.511642e+04  -6.737388e+03
   4.185035e+04   6.120963e+04
  -3.280595e+04   3.990946e+04
  -3.407651e+04  -1.949164e+04
   1.042822e+04  -2.798464e+04
   1.300412e+04   3.271802e+03
  -2.098899e+04   9.529465e+03
  -2.145437e+04  -8.159094e+03
   1.383346e+04  -4.833645e+03
   2.484856e+04   1.153696e+04
   3.105615e+03   8.291063e+02
  -3.312546e+03  -1.943422e+04
   1.007436e+04  -7.414553e+01
  -2.786795e+03   3.792994e+04
  -3.942608e+04   2.361382e+04
  -3.669702e+04  -3.925114e+04
   2.008170e+04  -6.166827e+04
   5.965131e+04  -5.420734e+03
   3.120918e+04   5.541838e+04
  -2.257446e+04   4.614957e+04
  -3.943740e+04  -7.195188e+03
  -2.276375e+04  -3.537537e+04
  -7.109364e+03  -2.644491e+04
   7.325594e+03  -1.392875e+04
   3.200688e+04  -7.206871e+03
   4.386275e+04   8.391638e+03
   1.916895e+04   2.687206e+04
  -1.524395e+04   2.851540e+04
  -1.947816e+04   1.765408e+04
  -7.046859e+03   1.218599e+04
  -1.871196e+04   7.951013e+03
  -4.594113e+04  -9.458519e+03
  -3.965996e+04  -2.987408e+04
   7.652778e+03  -3.159717e+04
   4.500667e+04  -1.828038e+04
   3.676391e+04  -8.571371e+03
   5.811061e+03  -1.246525e+03
  -1.078843e+04   1.331334e+04
  -8.313605e+03   2.040334e+04
   1.640764e+02   2.063838e+03
   9.421272e+03  -1.920965e+04
   1.410881e+04  -6.322354e+03
   4.399427e+03   2.599330e+04
  -1.224118e+04   2.422445e+04
  -1.100102e+04  -1.714820e+04
   1.173500e+04  -3.784725e+04
   2.563635e+04  -1.790148e+03
   9.888619e+03   4.679700e+04
  -1.651587e+04   4.982599e+04
  -2.752199e+04   1.449534e+04
  -2.639519e+04  -1.381270e+04
  -2.572251e+04  -2.233032e+04
  -1.779700e+04  -2.826961e+04
   4.483980e+03  -3.079926e+04
   2.014149e+04  -1.608560e+04
   9.977016e+03   2.933355e+03
  -3.467458e+03   5.990154e+02
   1.279496e+04  -1.271277e+04
   4.142318e+04  -2.573770e+03
   3.212810e+04   2.795307e+04
  -1.873324e+04   3.543744e+04
  -5.312426e+04   3.934498e+03
  -3.058478e+04  -2.811585e+04
   1.798116e+04  -2.552693e+04
   3.861487e+04  -2.001003e+03
   2.327597e+04   1.323978e+04
   1.823495e+03   1.881746e+04
  -9.636469e+03   2.386843e+04
  -1.823539e+04   1.841113e+04
  -2.545895e+04  -5.042044e+03
  -2.200807e+04  -2.319751e+04
  -9.413623e+03  -1.237916e+04
  -1.170678e+03   7.825928e+03
  -8.040837e+02  -2.175356e+02
   1.675667e+03  -3.108019e+04
   1.013306e+04  -4.020653e+04
   1.609024e+04  -1.060917e+04
   1.388822e+04   2.228883e+04
   7.555574e+03   2.332104e+04
   1.334629e+03   2.708610e+03
  -3.544508e+03  -8.717015e+03
  -2.824517e+03  -3.866300e+03
   6.026223e+03   2.655557e+03
   1.310824e+04   3.796378e+03
   5.531667e+03   4.710604e+03
  -1.103019e+04   6.723992e+03
  -1.645705e+04   5.427241e+03
  -5.265041e+03   1.095823e+03
   5.231738e+03  -2.435522e+03
   2.017926e+03  -5.801243e+03
  -5.052095e+03  -1.038348e+04
  -1.606538e+03  -1.122003e+04
   8.771518e+03  -3.939389e+03
   1.275965e+04   5.837751e+03
   7.085850e+03   9.807773e+03
  -1.973471e+03   8.533683e+03
  -9.684116e+03   5.978963e+03
  -1.203999e+04  -5.092137e+02
  -3.449437e+03  -1.207310e+04
   1.203901e+04  -1.690590e+04
   1.678139e+04  -3.841749e+03
   2.083913e+03   1.538991e+04
  -1.363328e+04   1.638157e+04
  -7.342250e+03  -3.052712e+03
   1.371903e+04  -1.643830e+04
   2.042582e+04  -4.329504e+03
   3.228203e+03   1.908348e+04
  -1.680112e+04   2.566794e+04
