
 $NMID
 id='ANONYMOUS ', fmtdat='(2E16.6)'
 volume=1.0
 tramp=1.0
 $END
  -4.611899e+07  -4.742193e+05
  -2.849779e+07  -2.654138e+07
   4.351604e+06  -3.047292e+07
   2.178386e+07  -1.425306e+07
   1.451697e+07   3.244587e+06
  -1.505165e+06   7.750373e+06
  -8.437101e+06   6.079454e+05
  -3.765385e+06  -7.803483e+06
   4.186457e+06  -9.257577e+06
   8.146648e+06  -2.910423e+06
   6.248106e+06   5.394465e+06
   7.136566e+05   7.886418e+06
  -3.638775e+06   2.115362e+06
  -2.539112e+06  -5.675468e+06
   3.030062e+06  -6.711144e+06
   6.893506e+06   4.789925e+05
   4.316587e+06   8.647455e+06
  -2.799070e+06   1.031410e+07
  -8.495178e+06   5.054572e+06
  -8.910530e+06  -2.044317e+06
  -4.860702e+06  -6.281064e+06
  -1.124390e+05  -6.411963e+06
   1.662018e+06  -4.193333e+06
  -1.596847e+05  -2.643291e+06
  -2.028195e+06  -3.456697e+06
   3.253630e+05  -4.962045e+06
   6.168250e+06  -3.830333e+06
   9.475062e+06   4.325503e+05
   6.068813e+06   4.285798e+06
  -8.080180e+05   4.409610e+06
  -4.343076e+06   1.521638e+06
  -2.188260e+06  -1.190152e+06
   1.923481e+06  -1.745265e+06
   3.666222e+06  -1.566401e+05
   2.346141e+06   2.577346e+06
  -1.911741e+05   4.430135e+06
  -2.059718e+06   3.091423e+06
  -2.125476e+06  -8.662176e+05
  -5.351350e+05  -3.085061e+06
   7.355804e+05  -5.955710e+05
  -3.012774e+05   3.236620e+06
  -2.539729e+06   2.538302e+06
  -2.403341e+06  -2.537874e+06
   1.309346e+06  -5.190132e+06
   4.953172e+06  -1.109958e+06
   4.050202e+06   5.398844e+06
  -1.251789e+06   6.915482e+06
  -6.248413e+06   2.026904e+06
  -6.634652e+06  -3.913011e+06
  -2.297679e+06  -5.685731e+06
   3.139679e+06  -3.004696e+06
   5.412090e+06   9.438217e+05
   2.916006e+06   3.044334e+06
  -1.766417e+06   2.145685e+06
  -4.015290e+06  -5.057642e+05
  -1.949176e+06  -2.162985e+06
   1.405212e+06  -1.211234e+06
   1.863942e+06   8.594103e+05
  -6.452657e+05   1.226474e+06
  -2.254306e+06  -6.121606e+05
  -3.881081e+05  -2.323603e+06
   3.093245e+06  -1.855836e+06
   4.470290e+06   4.700652e+05
   2.293583e+06   3.115005e+06
  -1.825732e+06   4.813089e+06
  -5.224037e+06   4.427684e+06
  -6.004632e+06   1.258231e+06
  -3.912745e+06  -3.296005e+06
  -6.105651e+05  -5.902238e+06
   1.436910e+06  -4.738618e+06
   1.314048e+06  -1.858963e+06
   5.594706e+05  -5.804438e+05
   1.051611e+06  -1.236473e+06
   2.538130e+06  -1.285199e+06
   3.125212e+06   6.522842e+05
   1.785348e+06   2.774660e+06
  -5.603769e+05   2.590699e+06
  -2.188483e+06   3.647944e+04
  -1.939931e+06  -2.634718e+06
   2.287234e+05  -3.239411e+06
   3.010958e+06  -1.365788e+06
   4.223413e+06   1.618663e+06
   2.684173e+06   3.671069e+06
  -2.277638e+05   3.642817e+06
  -1.930635e+06   2.232767e+06
  -1.770557e+06   1.115073e+06
  -1.652868e+06   9.502804e+05
  -3.057774e+06   7.372977e+05
  -4.618720e+06  -6.543354e+05
  -3.762150e+06  -2.891148e+06
  -1.569086e+05  -4.478826e+06
   3.605830e+06  -4.209850e+06
   4.716858e+06  -2.055086e+06
   2.800816e+06   8.078579e+05
  -8.312462e+04   2.534122e+06
  -1.475655e+06   1.924351e+06
  -5.582624e+05  -1.669983e+05
   1.306725e+06  -1.344703e+06
   1.986850e+06  -3.591199e+05
   8.172838e+05   1.257826e+06
  -6.851774e+05   1.197515e+06
  -6.532613e+05  -4.088279e+05
   8.677301e+05  -1.068976e+06
   2.023921e+06   6.970733e+05
   1.329130e+06   3.313990e+06
  -8.934343e+05   4.038714e+06
  -3.132871e+06   2.032066e+06
  -4.014559e+06  -1.089694e+06
  -2.995071e+06  -3.139357e+06
  -6.335387e+05  -3.128985e+06
   1.472950e+06  -1.637579e+06
   1.800552e+06  -1.658320e+05
   5.412940e+05   5.180584e+04
  -3.900033e+05  -8.260766e+05
   3.954774e+05  -1.384364e+06
   1.944503e+06  -6.012963e+05
   2.142505e+06   8.544511e+05
   4.713609e+05   1.441820e+06
  -1.261904e+06   6.466557e+05
  -1.086286e+06  -5.110706e+05
   8.743560e+05  -7.730340e+05
   2.590625e+06   1.310758e+05
   2.225886e+06   1.517330e+06
  -1.396809e+05   2.387064e+06
  -2.598137e+06   1.972631e+06
  -3.095349e+06   3.319880e+05
  -1.311974e+06  -1.326272e+06
   9.683590e+05  -1.522886e+06
   1.573348e+06  -1.650830e+05
   1.299982e+05   1.112019e+06
  -1.650394e+06   7.643615e+05
  -1.896118e+06  -8.125201e+05
  -4.774437e+05  -1.806269e+06
   1.109980e+06  -1.186351e+06
   1.415393e+06   2.085389e+05
   3.643129e+05   8.127680e+05
  -8.175137e+05   6.598110e+04
  -7.715142e+05  -1.164520e+06
   6.925260e+05  -1.553914e+06
   2.244925e+06  -5.355657e+05
   2.217983e+06   1.204161e+06
   4.038193e+05   2.273308e+06
  -1.552801e+06   1.798141e+06
  -1.878787e+06   2.689529e+05
  -5.890635e+05  -9.289431e+05
   7.094409e+05  -9.045494e+05
   7.641552e+05  -6.126779e+04
  -9.067957e+04   5.305325e+05
  -6.633627e+05   3.530302e+05
  -3.450215e+05  -1.234183e+05
   4.009514e+05  -1.032672e+05
   6.464529e+05   6.031375e+05
  -1.263924e+05   1.298746e+06
  -1.501880e+06   1.020252e+06
  -2.308244e+06  -4.515183e+05
  -1.606077e+06  -2.156579e+06
   2.574407e+05  -2.710241e+06
   1.816314e+06  -1.649073e+06
   1.968638e+06   7.559508e+04
   1.089637e+06   1.083071e+06
   3.934105e+05   9.363400e+05
   4.177203e+05   3.757169e+05
   5.665830e+05   2.992783e+05
   8.781822e+04   7.645593e+05
  -9.310099e+05   1.032736e+06
  -1.647564e+06   4.376982e+05
  -1.276825e+06  -8.336276e+05
   2.163949e+05  -1.745699e+06
   1.939864e+06  -1.274240e+06
   2.550255e+06   5.274646e+05
   1.314657e+06   2.324453e+06
  -1.037286e+06   2.618849e+06
  -2.756417e+06   1.205082e+06
  -2.660890e+06  -6.364035e+05
  -1.208643e+06  -1.490556e+06
   1.534296e+05  -1.184858e+06
   5.329005e+05  -6.869938e+05
   2.636760e+05  -8.174851e+05
   2.053145e+05  -1.341719e+06
   7.215046e+05  -1.346169e+06
   1.384298e+06  -3.192986e+05
   1.452407e+06   1.221816e+06
   5.888686e+05   2.117466e+06
  -7.195390e+05   1.591504e+06
  -1.441221e+06   6.499135e+03
  -9.242502e+05  -1.385303e+06
   3.627945e+05  -1.542955e+06
   1.204091e+06  -5.413807e+05
   8.905249e+05   6.323960e+05
  -3.927365e+04   1.115441e+06
  -4.744561e+05   8.876448e+05
  -4.652876e+04   5.141165e+05
   4.583308e+05   4.022379e+05
   5.184119e+04   4.393950e+05
  -1.235701e+06   2.482594e+05
  -2.235082e+06  -3.524212e+05
  -1.793589e+06  -1.121076e+06
  -2.544796e+04  -1.540127e+06
   1.683975e+06  -1.233325e+06
   2.005574e+06  -3.531492e+05
   9.544172e+05   4.521663e+05
  -2.502573e+05   5.841295e+05
  -5.430239e+05   7.936504e+04
  -5.966511e+03  -4.048433e+05
   5.228806e+05  -2.674538e+05
   5.214453e+05   3.819741e+05
   2.031914e+05   8.239641e+05
   3.260592e+04   5.356785e+05
   1.634773e+05  -1.595871e+05
   3.774746e+05  -3.891643e+05
   3.273087e+05   2.548485e+05
  -1.991422e+05   1.128743e+06
  -1.008644e+06   1.172177e+06
  -1.434288e+06   1.396416e+05
  -8.572360e+05  -1.026209e+06
   4.684139e+05  -1.198221e+06
   1.350893e+06  -2.990239e+05
   8.018288e+05   6.654979e+05
  -7.663387e+05   7.342111e+05
  -1.803732e+06  -7.454659e+04
  -1.216986e+06  -9.518671e+05
   4.740681e+05  -1.165297e+06
   1.699129e+06  -6.289293e+05
   1.444644e+06   1.695389e+05
   1.834176e+05   5.939440e+05
  -7.205120e+05   3.296520e+05
  -4.036297e+05  -3.097207e+05
   6.913389e+05  -5.433427e+05
   1.312966e+06   1.529472e+05
   6.762983e+05   1.349753e+06
  -7.446421e+05   1.868610e+06
  -1.698179e+06   9.311318e+05
  -1.394940e+06  -8.822662e+05
  -2.035338e+05  -2.023920e+06
   8.430525e+05  -1.482131e+06
   1.052131e+06   1.637714e+05
   5.190154e+05   1.338786e+06
  -2.023444e+05   1.121728e+06
  -6.186119e+05   1.138476e+05
  -5.604300e+05  -4.407356e+05
  -2.251995e+05  -1.735697e+05
  -3.874609e+04   1.203311e+05
  -2.499777e+05  -3.010365e+05
  -5.403824e+05  -1.074821e+06
  -2.567559e+05  -1.224280e+06
   7.457421e+05  -4.498467e+05
   1.660728e+06   5.357419e+05
   1.480534e+06   9.519614e+05
   2.099503e+05   7.763018e+05
  -1.002872e+06   4.578988e+05
  -1.123685e+06   2.125384e+05
  -3.712144e+05  -3.511088e+04
   1.806822e+05  -2.457630e+05
  -6.878390e+03  -2.563692e+05
  -3.478231e+05  -1.401881e+05
  -3.544084e+04  -1.541155e+05
   7.994531e+05  -2.369110e+05
   1.167763e+06   3.907367e+04
   4.052511e+05   7.690056e+05
  -1.001720e+06   1.279462e+06
  -1.878272e+06   7.962961e+05
  -1.516205e+06  -5.220854e+05
  -2.751833e+05  -1.587471e+06
   8.608138e+05  -1.520841e+06
   1.181557e+06  -5.609514e+05
   7.395501e+05   2.955540e+05
   1.255408e+05   4.030724e+05
  -1.198920e+05   4.389966e+04
   7.788533e+04  -5.104473e+04
   3.561494e+05   4.033558e+05
   2.865002e+05   9.109408e+05
  -2.185785e+05   7.489814e+05
  -7.701562e+05  -1.752736e+05
  -7.895375e+05  -1.103238e+06
  -7.042369e+04  -1.149382e+06
   8.699680e+05  -2.269114e+05
   1.136660e+06   8.552961e+05
   3.526108e+05   1.220808e+06
  -8.110775e+05   7.215595e+05
  -1.232586e+06  -1.056133e+05
  -5.680571e+05  -6.630718e+05
   3.244152e+05  -7.207362e+05
   3.958723e+05  -4.012768e+05
  -3.131489e+05  -2.797972e+04
  -7.386414e+05   3.175276e+04
  -1.494289e+05  -3.387687e+05
   9.323761e+05  -7.578465e+05
   1.386869e+06  -6.225208e+05
   8.172723e+05   1.749813e+05
  -1.189992e+05   9.581489e+05
  -5.941196e+05   9.410893e+05
  -4.407542e+05   1.534521e+05
  -3.585606e+04  -5.514285e+05
   2.778380e+05  -4.661532e+05
   3.936451e+05   2.001947e+05
   2.743196e+05   6.505934e+05
  -7.006743e+04   4.485457e+05
  -4.353965e+05  -6.795227e+04
  -5.201367e+05  -2.960389e+05
  -2.716722e+05  -9.000475e+04
   2.209738e+04   1.427085e+05
   9.482158e+04  -2.749905e+03
   3.580200e+04  -4.142085e+05
   1.219455e+05  -5.770719e+05
   3.758818e+05  -1.825376e+05
   4.653965e+05   4.644797e+05
   1.132388e+05   7.290797e+05
  -4.756965e+05   3.324085e+05
  -7.201792e+05  -3.390917e+05
  -2.625323e+05  -6.573487e+05
   5.628164e+05  -4.012068e+05
   9.694472e+05   1.060661e+05
   5.239380e+05   4.281929e+05
  -3.317333e+05   4.220814e+05
  -7.078457e+05   2.210794e+05
  -2.556453e+05   1.513437e+04
   4.210455e+05  -4.546127e+04
   4.667963e+05   1.108732e+05
  -2.205374e+05   3.432752e+05
  -8.808927e+05   2.928713e+05
