
 $NMID
 id='ANONYMOUS ', fmtdat='(2E16.6)'
 volume=1.0
 tramp=1.0
 $END
  -1.179076e+07   2.481619e+05
  -8.427676e+06  -4.717224e+06
  -8.041217e+05  -7.365761e+06
   4.834133e+06  -5.889063e+06
   4.744540e+06  -1.342206e+06
   7.031644e+05   2.255513e+06
  -2.598060e+06   1.658006e+06
  -2.381415e+06  -1.868163e+06
   2.466461e+05  -3.872504e+06
   2.334353e+06  -1.940138e+06
   2.144590e+06   1.620295e+06
   2.947682e+05   2.785008e+06
  -1.272090e+06   5.063920e+05
  -1.077776e+06  -2.458855e+06
   6.563052e+05  -2.907055e+06
   2.164181e+06  -4.727114e+05
   1.761937e+06   2.416320e+06
  -3.856535e+05   3.198313e+06
  -2.314552e+06   1.526642e+06
  -2.332305e+06  -7.508027e+05
  -8.369058e+05  -1.667391e+06
   2.565492e+05  -1.081714e+06
  -2.225261e+05  -4.957825e+05
  -1.401782e+06  -1.074620e+06
  -1.412183e+06  -2.250502e+06
   4.854351e+05  -2.507913e+06
   2.943659e+06  -1.222284e+06
   3.710843e+06   6.854769e+05
   1.885769e+06   1.778528e+06
  -9.584086e+05   1.391929e+06
  -2.160525e+06  -4.662330e+03
  -7.078826e+05  -1.246919e+06
   1.656735e+06  -1.240910e+06
   2.400750e+06   1.714375e+05
   1.014621e+06   1.827147e+06
  -6.970052e+05   2.128291e+06
  -1.003042e+06   7.354953e+05
  -1.254072e+05  -8.516168e+05
   5.244521e+05  -8.692841e+05
   2.290228e+05   6.369791e+05
  -5.432647e+05   1.813042e+06
  -1.062921e+06   1.188766e+06
  -9.936808e+05  -5.828414e+05
  -3.102572e+05  -1.523579e+06
   6.544186e+05  -6.264091e+05
   1.033045e+06   1.073222e+06
   7.415462e+04   1.731551e+06
  -1.687470e+06   6.561833e+05
  -2.516268e+06  -1.128323e+06
  -1.293714e+06  -2.048375e+06
   1.030273e+06  -1.463677e+06
   2.326559e+06  -5.939798e+04
   1.551072e+06   9.559549e+05
  -2.769715e+05   9.185181e+05
  -1.331873e+06   1.373624e+05
  -8.467084e+05  -5.213684e+05
   3.486156e+05  -4.404138e+05
   8.681341e+05   2.300255e+05
   1.972242e+05   7.571689e+05
  -8.217628e+05   5.496022e+05
  -9.057030e+05  -2.363229e+05
   1.968583e+05  -8.003774e+05
   1.277954e+06  -4.555130e+05
   9.531661e+05   6.635575e+05
  -7.109580e+05   1.630511e+06
  -2.205419e+06   1.512300e+06
  -2.261409e+06   2.184051e+05
  -1.142138e+06  -1.375511e+06
  -6.734715e+04  -2.193343e+06
   2.772504e+05  -1.919114e+06
   2.601319e+05  -1.182506e+06
   5.187137e+05  -7.482139e+05
   1.122355e+06  -6.239559e+05
   1.591353e+06  -1.821971e+05
   1.437533e+06   8.195969e+05
   5.704898e+05   1.651474e+06
  -5.956424e+05   1.343471e+06
  -1.308240e+06  -7.779590e+04
  -9.804489e+05  -1.418848e+06
   2.199112e+05  -1.511390e+06
   1.358234e+06  -3.833293e+05
   1.534416e+06   8.976836e+05
   7.418037e+05   1.386958e+06
  -1.872977e+05   1.066639e+06
  -5.200514e+05   5.810818e+05
  -3.905858e+05   4.400033e+05
  -5.327616e+05   5.685493e+05
  -1.285550e+06   4.919060e+05
  -2.016158e+06  -1.512499e+05
  -1.699537e+06  -1.205546e+06
  -1.183516e+05  -2.013554e+06
   1.661823e+06  -1.901302e+06
   2.221654e+06  -8.021723e+05
   1.220935e+06   5.587340e+05
  -2.521131e+05   1.207054e+06
  -8.329063e+05   7.755368e+05
  -2.362447e+05  -1.456402e+05
   6.482370e+05  -5.792241e+05
   8.514402e+05  -1.494875e+05
   2.796509e+05   5.305414e+05
  -3.785359e+05   5.602398e+05
  -4.352980e+05  -1.584297e+05
   1.883338e+05  -7.040926e+05
   9.327703e+05  -1.674375e+05
   1.035600e+06   1.190236e+06
   1.534060e+05   2.062654e+06
  -1.235347e+06   1.469485e+06
  -2.091689e+06  -1.732839e+05
  -1.701712e+06  -1.499009e+06
  -3.929078e+05  -1.592619e+06
   7.335193e+05  -7.704046e+05
   8.683342e+05  -3.025020e+04
   2.500655e+05   2.487147e+04
  -1.904828e+05  -3.698095e+05
   1.168800e+05  -5.841670e+05
   7.833537e+05  -2.865721e+05
   9.450527e+05   2.811001e+05
   2.836199e+05   5.887244e+05
  -5.441896e+05   3.430172e+05
  -5.823875e+05  -2.107413e+05
   3.347082e+05  -4.878638e+05
   1.295921e+06  -1.136130e+05
   1.226601e+06   6.826940e+05
   4.788582e+04   1.231617e+06
  -1.204714e+06   1.024865e+06
  -1.443721e+06   2.002411e+05
  -6.027289e+05  -5.560608e+05
   3.968749e+05  -6.311107e+05
   6.324002e+05  -7.025670e+04
   2.333899e+04   4.588631e+05
  -7.301268e+05   3.449749e+05
  -8.853041e+05  -3.156356e+05
  -3.155186e+05  -8.203139e+05
   4.356190e+05  -6.427370e+05
   6.840019e+05  -1.915225e+04
   2.576312e+05   3.397825e+05
  -3.179343e+05   6.011160e+04
  -3.371640e+05  -5.042248e+05
   3.251831e+05  -6.913249e+05
   1.024495e+06  -2.236379e+05
   1.000324e+06   5.534870e+05
   1.955214e+05   1.023185e+06
  -6.699112e+05   8.320342e+05
  -8.509609e+05   1.672814e+05
  -3.164164e+05  -4.085279e+05
   2.994619e+05  -4.479192e+05
   4.017568e+05  -3.105263e+04
   6.329767e+03   3.297548e+05
  -3.690103e+05   2.548767e+05
  -2.976067e+05  -7.865531e+04
   1.113717e+05  -1.701222e+05
   3.406917e+05   1.750420e+05
   1.884390e+04   5.770876e+05
  -6.548900e+05   4.929094e+05
  -1.056743e+06  -1.812362e+05
  -7.399122e+05  -9.737794e+05
   1.097688e+05  -1.266058e+06
   8.441598e+05  -8.331426e+05
   9.767116e+05  -2.118667e+04
   6.042990e+05   5.630894e+05
   2.094456e+05   5.850257e+05
   1.091583e+05   2.629126e+05
   1.649148e+05   9.614403e+04
   2.822199e+04   2.858611e+05
  -3.946492e+05   4.928770e+05
  -7.730441e+05   2.550719e+05
  -6.556483e+05  -3.987076e+05
   5.065453e+04  -8.827626e+05
   8.960457e+05  -6.497133e+05
   1.207863e+06   2.160852e+05
   6.651064e+05   1.048192e+06
  -3.888449e+05   1.207472e+06
  -1.209183e+06   6.247659e+05
  -1.271002e+06  -2.007518e+05
  -6.781035e+05  -6.822763e+05
   7.372908e+03  -6.453961e+05
   3.136972e+05  -4.047583e+05
   2.418224e+05  -3.622174e+05
   1.482638e+05  -5.410285e+05
   3.045582e+05  -5.667195e+05
   5.968175e+05  -1.348499e+05
   6.549367e+05   5.654485e+05
   2.687433e+05   9.790570e+05
  -3.373969e+05   7.368997e+05
  -6.735483e+05   2.552551e+04
  -4.554080e+05  -5.980660e+05
   1.004851e+05  -7.087910e+05
   4.851857e+05  -3.289434e+05
   4.076882e+05   1.769744e+05
   6.477978e+04   4.546216e+05
  -1.181640e+05   4.275833e+05
   1.870978e+04   2.787855e+05
   1.917741e+05   2.060771e+05
   1.099084e+04   2.104092e+05
  -5.346268e+05   1.304078e+05
  -9.819512e+05  -1.345029e+05
  -8.298303e+05  -4.764217e+05
  -7.978761e+04  -6.649436e+05
   6.993899e+05  -5.559128e+05
   8.999086e+05  -2.152799e+05
   4.675040e+05   1.248456e+05
  -8.047150e+04   2.329059e+05
  -2.292413e+05   7.135702e+04
   2.180252e+04  -1.374251e+05
   2.686653e+05  -1.074620e+05
   2.309615e+05   1.785898e+05
   3.231910e+04   3.960968e+05
  -4.143167e+04   2.499212e+05
   8.362334e+04  -1.140096e+05
   2.198704e+05  -2.293207e+05
   1.599208e+05   1.094129e+05
  -1.222075e+05   5.377997e+05
  -4.582806e+05   5.283985e+05
  -5.862169e+05   2.790088e+04
  -3.241801e+05  -4.717212e+05
   2.130854e+05  -4.955168e+05
   5.799805e+05  -8.071243e+04
   3.600509e+05   3.269221e+05
  -3.385815e+05   3.529931e+05
  -8.629837e+05   7.278032e+02
  -6.459314e+05  -4.255363e+05
   1.601857e+05  -5.926811e+05
   8.054489e+05  -3.795278e+05
   7.264303e+05   3.240557e+04
   1.175221e+05   2.906408e+05
  -3.267068e+05   1.846628e+05
  -1.686956e+05  -1.218680e+05
   3.468231e+05  -2.208553e+05
   6.001738e+05   1.163884e+05
   2.555912e+05   6.476491e+05
  -4.133350e+05   8.397542e+05
  -8.208651e+05   3.858722e+05
  -6.429824e+05  -4.372869e+05
  -8.114948e+04  -9.577057e+05
   3.981380e+05  -7.226389e+05
   5.034695e+05   3.937912e+04
   2.819385e+05   6.210888e+05
  -4.377337e+04   5.546988e+05
  -2.731599e+05   7.572842e+04
  -2.989362e+05  -2.160297e+05
  -1.471282e+05  -9.590686e+04
  -2.689004e+03   7.044590e+04
  -5.689620e+04  -1.090731e+05
  -2.291670e+05  -4.894102e+05
  -1.699489e+05  -5.845673e+05
   2.907231e+05  -2.214081e+05
   7.844112e+05   2.551723e+05
   7.391321e+05   4.494707e+05
   1.026621e+05   3.528454e+05
  -5.122119e+05   2.047313e+05
  -5.420725e+05   1.124188e+05
  -1.382269e+05   9.424598e+03
   1.018884e+05  -1.096081e+05
  -5.111669e+04  -1.471378e+05
  -2.136717e+05  -9.712744e+04
   5.217061e+03  -7.356879e+04
   4.300797e+05  -8.337384e+04
   5.358533e+05   4.073314e+04
   1.054389e+05   3.485549e+05
  -5.245071e+05   5.551165e+05
  -8.418767e+05   3.196245e+05
  -6.341655e+05  -2.821392e+05
  -9.471201e+04  -7.491597e+05
   3.963456e+05  -6.832069e+05
   5.505548e+05  -2.154076e+05
   3.478670e+05   1.725673e+05
   3.245952e+04   1.859304e+05
  -1.007739e+05  -1.366202e+04
   2.050777e+04  -5.971934e+04
   1.879217e+05   1.745298e+05
   1.484170e+05   4.256488e+05
  -1.172170e+05   3.349865e+05
  -3.657263e+05  -1.231677e+05
  -3.256076e+05  -5.533551e+05
   3.470305e+04  -5.276830e+05
   4.364418e+05  -4.690636e+04
   5.022953e+05   4.543239e+05
   1.185375e+05   5.669790e+05
  -3.910088e+05   2.891817e+05
  -5.456255e+05  -7.490847e+04
  -2.293654e+05  -2.772492e+05
   1.521915e+05  -2.850129e+05
   1.448679e+05  -1.731788e+05
  -1.908511e+05  -3.583371e+04
  -3.551639e+05  -5.572426e+02
  -5.019391e+04  -1.494266e+05
   4.406671e+05  -3.498600e+05
   6.119780e+05  -3.123376e+05
   3.332926e+05   5.147490e+04
  -6.819274e+04   4.257368e+05
  -2.443514e+05   4.137362e+05
  -1.591987e+05   3.461876e+04
   1.422630e+04  -2.749501e+05
   1.419975e+05  -1.881065e+05
   1.821127e+05   1.385703e+05
   1.138539e+05   3.065182e+05
  -4.747264e+04   1.693622e+05
  -1.992910e+05  -5.437419e+04
  -2.248807e+05  -1.136602e+05
  -1.255670e+05  -1.884669e+04
  -1.123131e+04   3.321194e+04
   4.533856e+04  -6.779353e+04
   7.969076e+04  -2.172256e+05
   1.439344e+05  -2.187024e+05
   2.010247e+05  -3.686790e+03
   1.540644e+05   2.693518e+05
  -3.025452e+04   3.445128e+05
  -2.455356e+05   1.273458e+05
  -3.014739e+05  -1.931355e+05
  -9.198562e+04  -3.245253e+05
   2.532037e+05  -1.736135e+05
   4.233045e+05   7.899583e+04
   2.256607e+05   2.057534e+05
  -1.582414e+05   1.606185e+05
  -3.191869e+05   5.583937e+04
  -8.596036e+04  -2.149143e+03
   2.414831e+05   1.882033e+04
   2.326636e+05   1.047167e+05
  -1.450831e+05   1.840974e+05
  -4.749390e+05   1.219566e+05
