
 $NMID
 id='ANONYMOUS ', fmtdat='(2E16.6)'
 volume=1.0
 tramp=1.0
 $END
   3.029231e+07  -4.825206e+06
   2.258559e+07   1.394569e+07
   1.254575e+06   2.090239e+07
  -1.320881e+07   1.268423e+07
  -1.093955e+07  -1.746960e+05
  -1.501385e+05  -5.701696e+06
   6.094347e+06  -1.679168e+06
   3.831421e+06   5.119038e+06
  -1.952749e+06   7.283400e+06
  -5.493713e+06   3.107275e+06
  -4.781928e+06  -3.104495e+06
  -1.115869e+06  -5.375011e+06
   2.245088e+06  -1.669056e+06
   2.082448e+06   3.894615e+06
  -1.610345e+06   5.142503e+06
  -4.891578e+06   4.947525e+05
  -3.904993e+06  -5.479060e+06
   8.033848e+05  -7.348754e+06
   5.145983e+06  -4.254786e+06
   5.995927e+06   4.689138e+05
   3.707779e+06   3.466075e+06
   8.680226e+05   3.903068e+06
  -2.215004e+05   2.961404e+06
   6.950150e+05   2.317080e+06
   1.515733e+06   2.796614e+06
  -2.335451e+05   3.540560e+06
  -4.138618e+06   2.780012e+06
  -6.456895e+06   1.243504e+05
  -4.313855e+06  -2.466642e+06
   3.670927e+05  -2.795735e+06
   2.866632e+06  -9.876468e+05
   1.282432e+06   8.890962e+05
  -1.717469e+06   1.207985e+06
  -2.786302e+06  -7.142242e+04
  -1.554167e+06  -1.962913e+06
   1.950969e+05  -3.033108e+06
   1.153464e+06  -2.071847e+06
   1.140143e+06   3.953756e+05
   4.475996e+05   1.756852e+06
  -1.567834e+05   1.962757e+05
   3.365838e+05  -2.309248e+06
   1.707473e+06  -1.968081e+06
   1.998577e+06   1.503506e+06
  -1.416904e+05   3.814954e+06
  -3.027330e+06   1.585991e+06
  -3.333320e+06  -2.977869e+06
  -7.479648e+04  -4.767579e+06
   3.934079e+06  -2.013221e+06
   4.978230e+06   2.157208e+06
   2.145022e+06   3.900963e+06
  -2.034123e+06   2.457428e+06
  -4.050753e+06  -2.489050e+05
  -2.449205e+06  -2.007859e+06
   9.784175e+05  -1.783871e+06
   2.869465e+06  -9.902566e+04
   1.645252e+06   1.306690e+06
  -8.189097e+05   9.946124e+05
  -1.439939e+06  -4.920235e+05
   3.129620e+05  -1.143110e+06
   1.861759e+06   1.425738e+02
   9.011436e+05   1.629125e+06
  -1.731266e+06   1.857757e+06
  -3.215083e+06   3.211248e+05
  -2.002887e+06  -1.869801e+06
   8.945340e+05  -3.391781e+06
   3.357228e+06  -3.284886e+06
   3.993392e+06  -1.187257e+06
   2.778387e+06   1.955581e+06
   7.771915e+05   3.988043e+06
  -6.371796e+05   3.521758e+06
  -8.803898e+05   1.622138e+06
  -6.416526e+05   5.087444e+05
  -9.437010e+05   7.237099e+05
  -1.774141e+06   7.369232e+05
  -2.092322e+06  -5.205614e+05
  -1.181872e+06  -1.962880e+06
   4.615512e+05  -1.820244e+06
   1.637691e+06   1.967827e+04
   1.458231e+06   1.916230e+06
  -8.095274e+04   2.309209e+06
  -2.021597e+06   1.030913e+06
  -2.919362e+06  -9.131874e+05
  -2.018161e+06  -2.276134e+06
  -1.566346e+05  -2.408152e+06
   1.035539e+06  -1.663498e+06
   1.073226e+06  -9.915791e+05
   1.126729e+06  -8.670083e+05
   2.186329e+06  -7.367402e+05
   3.366182e+06   2.120480e+05
   2.851858e+06   1.889307e+06
   3.146071e+05   3.219224e+06
  -2.425943e+06   3.154801e+06
  -3.287061e+06   1.596012e+06
  -1.962511e+06  -5.096619e+05
   4.506408e+04  -1.767131e+06
   9.994773e+05  -1.357472e+06
   3.785596e+05   1.090820e+05
  -8.874368e+05   9.890537e+05
  -1.388313e+06   3.558279e+05
  -6.246415e+05  -8.223797e+05
   4.652121e+05  -8.727185e+05
   5.381479e+05   3.000161e+05
  -5.832097e+05   9.416595e+05
  -1.646178e+06  -2.646169e+05
  -1.335973e+06  -2.370422e+06
   3.723554e+05  -3.203286e+06
   2.293930e+06  -1.828825e+06
   3.128047e+06   6.091722e+05
   2.366825e+06   2.276899e+06
   5.566189e+05   2.314863e+06
  -1.024136e+06   1.222874e+06
  -1.289674e+06   1.608854e+05
  -3.932433e+05  -1.697363e+04
   3.194336e+05   5.783513e+05
  -1.903567e+05   1.014718e+06
  -1.340971e+06   5.497902e+05
  -1.599695e+06  -4.778823e+05
  -4.458199e+05  -1.014002e+06
   8.813043e+05  -5.411003e+05
   8.331352e+05   3.422404e+05
  -6.225363e+05   6.508273e+05
  -1.960670e+06   2.289982e+04
  -1.729793e+06  -1.071425e+06
   1.856995e+04  -1.804536e+06
   1.838012e+06  -1.554541e+06
   2.239447e+06  -3.677001e+05
   1.016055e+06   8.854714e+05
  -5.967733e+05   1.128456e+06
  -1.094244e+06   2.114227e+05
  -1.443402e+05  -7.637190e+05
   1.144687e+06  -6.217361e+05
   1.420103e+06   4.954924e+05
   4.504954e+05   1.309897e+06
  -7.587487e+05   9.552084e+05
  -1.075499e+06  -6.560556e+04
  -3.366469e+05  -5.862893e+05
   5.722068e+05  -1.061339e+05
   6.000921e+05   7.909814e+05
  -4.353335e+05   1.131285e+06
  -1.584508e+06   4.634493e+05
  -1.635202e+06  -7.761004e+05
  -3.886155e+05  -1.616992e+06
   1.035682e+06  -1.371800e+06
   1.353834e+06  -2.871323e+05
   4.841433e+05   6.530790e+05
  -4.744358e+05   6.981258e+05
  -5.631691e+05   6.045706e+04
   5.786029e+04  -4.253553e+05
   5.138147e+05  -2.853089e+05
   2.881057e+05   1.292870e+05
  -3.037670e+05   1.511566e+05
  -5.358149e+05  -3.939211e+05
   1.254356e+04  -9.597864e+05
   1.040737e+06  -8.098141e+05
   1.686249e+06   2.289551e+05
   1.244079e+06   1.487428e+06
  -8.604501e+04   1.971882e+06
  -1.273056e+06   1.279705e+06
  -1.464095e+06   1.573226e+04
  -8.407319e+05  -7.951606e+05
  -2.789673e+05  -7.213696e+05
  -2.584968e+05  -2.586618e+05
  -4.009079e+05  -1.508803e+05
  -1.076969e+05  -5.237919e+05
   6.297561e+05  -7.960280e+05
   1.195369e+06  -3.870267e+05
   9.680486e+05   5.835874e+05
  -1.029949e+05   1.308840e+06
  -1.373406e+06   1.008719e+06
  -1.876833e+06  -2.880718e+05
  -1.060559e+06  -1.637025e+06
   6.199800e+05  -1.954098e+06
   1.942909e+06  -1.014543e+06
   1.986303e+06   3.418661e+05
   9.690509e+05   1.065943e+06
  -7.717865e+04   9.128122e+05
  -4.094926e+05   5.220369e+05
  -1.942502e+05   5.553629e+05
  -8.979657e+04   9.322422e+05
  -4.424647e+05   9.890934e+05
  -9.679772e+05   2.915993e+05
  -1.087063e+06  -8.218307e+05
  -5.022070e+05  -1.503624e+06
   4.611261e+05  -1.173051e+06
   1.047888e+06  -6.362242e+04
   7.403764e+05   9.592709e+05
  -1.806231e+05   1.146015e+06
  -8.494938e+05   4.837488e+05
  -7.008350e+05  -3.839420e+05
  -5.957902e+04  -8.120594e+05
   2.812610e+05  -6.950789e+05
   1.374496e+04  -3.988923e+05
  -3.327160e+05  -2.745332e+05
  -4.643810e+04  -3.142235e+05
   8.758899e+05  -2.408756e+05
   1.617369e+06   1.473307e+05
   1.348021e+06   7.288706e+05
   1.123494e+05   1.114758e+06
  -1.137993e+06   9.715045e+05
  -1.440445e+06   3.553194e+05
  -7.401172e+05  -2.706523e+05
   1.358649e+05  -4.294706e+05
   3.927524e+05  -9.537514e+04
   2.641628e+04   2.689326e+05
  -3.722301e+05   1.994920e+05
  -3.872538e+05  -2.542070e+05
  -1.521809e+05  -5.736916e+05
  -2.419499e+04  -3.686687e+05
  -1.280001e+05   1.318388e+05
  -2.886132e+05   2.957122e+05
  -2.497936e+05  -1.733295e+05
   1.188529e+05  -8.178110e+05
   6.785146e+05  -8.793834e+05
   9.924278e+05  -1.638266e+05
   6.326045e+05   6.858608e+05
  -2.748900e+05   8.632054e+05
  -9.314385e+05   2.601216e+05
  -5.939133e+05  -4.539247e+05
   5.250894e+05  -5.678109e+05
   1.325394e+06  -1.546407e+04
   9.454960e+05   6.634446e+05
  -2.967256e+05   8.949217e+05
  -1.237234e+06   5.396318e+05
  -1.082094e+06  -7.215567e+04
  -1.601102e+05  -4.371315e+05
   5.150102e+05  -2.770785e+05
   3.028466e+05   1.954737e+05
  -4.781136e+05   3.985205e+05
  -9.360272e+05  -7.489975e+04
  -5.115150e+05  -9.388426e+05
   4.834710e+05  -1.346621e+06
   1.189151e+06  -7.092343e+05
   1.029922e+06   5.941680e+05
   2.108129e+05   1.456538e+06
  -5.679521e+05   1.110551e+06
  -7.819768e+05  -7.270385e+04
  -4.368360e+05  -9.603180e+05
   9.931469e+04  -8.434203e+05
   4.446390e+05  -1.160266e+05
   4.295973e+05   3.135093e+05
   1.780469e+05   1.349293e+05
   2.279646e+04  -9.798051e+04
   1.810965e+05   1.799434e+05
   4.251517e+05   7.464269e+05
   2.421383e+05   8.953843e+05
  -5.074546e+05   3.731549e+05
  -1.221402e+06  -3.325418e+05
  -1.118767e+06  -6.519959e+05
  -1.836744e+05  -5.523148e+05
   7.208980e+05  -3.504252e+05
   8.147888e+05  -1.925842e+05
   2.659954e+05  -6.909866e+03
  -1.259012e+05   1.773242e+05
   2.161803e+04   2.091883e+05
   2.633458e+05   1.153322e+05
   2.289079e+04   1.038776e+05
  -5.801419e+05   1.730203e+05
  -8.354516e+05   8.557488e+03
  -2.957240e+05  -5.125246e+05
   6.845519e+05  -9.294341e+05
   1.302233e+06  -6.360401e+05
   1.078889e+06   3.139313e+05
   2.417033e+05   1.130546e+06
  -5.586511e+05   1.122843e+06
  -8.198829e+05   4.320469e+05
  -5.351166e+05  -1.998648e+05
  -9.674279e+04  -2.780302e+05
   8.953490e+04  -1.083123e+04
  -6.024173e+04   5.630476e+04
  -2.829712e+05  -2.810066e+05
  -2.440812e+05  -6.526312e+05
   1.316782e+05  -5.394127e+05
   5.520583e+05   1.148018e+05
   5.841109e+05   7.687585e+05
   7.240613e+04   8.048558e+05
  -6.128816e+05   1.664390e+05
  -8.262606e+05  -5.874480e+05
  -2.840533e+05  -8.552377e+05
   5.504885e+05  -5.310085e+05
   8.772465e+05   3.213387e+04
   4.319336e+05   4.376601e+05
  -1.937264e+05   5.150545e+05
  -2.542149e+05   3.112944e+05
   2.356204e+05   3.016012e+04
   5.317954e+05  -4.079847e+04
   1.162285e+05   2.309372e+05
  -6.477291e+05   5.782101e+05
  -9.753973e+05   5.174520e+05
  -5.904269e+05  -7.274411e+04
   4.945758e+04  -6.860747e+05
   3.774154e+05  -7.031818e+05
   2.866954e+05  -1.284561e+05
   2.997307e+04   3.939420e+05
  -1.795538e+05   3.334482e+05
  -2.775903e+05  -1.452474e+05
  -2.159122e+05  -4.573062e+05
   2.746348e+04  -3.090974e+05
   3.090216e+05   3.986507e+04
   3.881489e+05   1.818965e+05
   2.063260e+05   4.737479e+04
  -2.401885e+04  -8.472996e+04
  -8.899764e+04   2.705729e+04
  -3.918864e+04   2.895163e+05
  -8.098791e+04   3.784519e+05
  -2.490235e+05   1.107215e+05
  -3.162627e+05  -3.174690e+05
  -7.905669e+04  -4.993442e+05
   3.315156e+05  -2.409240e+05
   5.107165e+05   2.206576e+05
   1.976154e+05   4.625568e+05
  -3.854281e+05   3.083923e+05
  -6.860421e+05  -4.313474e+04
  -3.859998e+05  -2.871135e+05
   2.148044e+05  -3.039188e+05
   4.857864e+05  -1.729304e+05
   1.706167e+05  -2.722902e+04
  -3.053247e+05   2.108617e+04
  -3.302650e+05  -8.534616e+04
   1.682490e+05  -2.511054e+05
   6.429892e+05  -2.189855e+05
