
 $NMID
 id='ANONYMOUS ', fmtdat='(2E16.6)'
 volume=1.0
 tramp=1.0
 $END
  -1.422902e+07   1.391186e+06
  -1.053354e+07  -5.359765e+06
  -1.328708e+06  -9.021488e+06
   5.548676e+06  -7.168858e+06
   5.519579e+06  -1.571766e+06
   8.292130e+05   2.670316e+06
  -2.978332e+06   1.922940e+06
  -2.776886e+06  -2.136360e+06
   1.791631e+05  -4.442704e+06
   2.651030e+06  -2.310944e+06
   2.622733e+06   1.730602e+06
   5.591909e+05   3.184333e+06
  -1.415755e+06   7.244941e+05
  -1.395259e+06  -2.680570e+06
   6.030610e+05  -3.335948e+06
   2.519831e+06  -6.360561e+05
   2.215232e+06   2.741505e+06
  -2.553803e+05   3.801612e+06
  -2.629520e+06   2.010810e+06
  -2.863176e+06  -6.347540e+05
  -1.253600e+06  -1.892945e+06
   1.098758e+05  -1.428976e+06
  -2.182380e+05  -7.367404e+05
  -1.489144e+06  -1.161133e+06
  -1.654629e+06  -2.348650e+06
   3.320323e+05  -2.792212e+06
   3.163384e+06  -1.630850e+06
   4.244737e+06   4.210389e+05
   2.342488e+06   1.840405e+06
  -8.785072e+05   1.675899e+06
  -2.366851e+06   2.267690e+05
  -8.893954e+05  -1.248128e+06
   1.685084e+06  -1.424317e+06
   2.598265e+06   1.804092e+04
   1.244841e+06   1.890974e+06
  -5.615823e+05   2.392285e+06
  -1.038061e+06   9.678764e+05
  -2.837326e+05  -8.604272e+05
   4.147237e+05  -1.044061e+06
   2.811936e+05   5.850619e+05
  -4.417614e+05   2.008481e+06
  -1.113741e+06   1.401442e+06
  -1.183313e+06  -6.436225e+05
  -3.802446e+05  -1.808779e+06
   8.758592e+05  -7.891246e+05
   1.373748e+06   1.255425e+06
   1.829484e+05   2.114095e+06
  -1.960819e+06   9.250285e+05
  -2.970553e+06  -1.136990e+06
  -1.580423e+06  -2.265385e+06
   1.095745e+06  -1.711052e+06
   2.626703e+06  -1.804298e+05
   1.789173e+06   1.016229e+06
  -3.035889e+05   1.073149e+06
  -1.549303e+06   2.238461e+05
  -1.004857e+06  -5.758082e+05
   3.877241e+05  -5.414694e+05
   9.899262e+05   2.146641e+05
   2.103098e+05   8.269886e+05
  -9.323782e+05   5.835590e+05
  -9.736829e+05  -3.213923e+05
   3.013259e+05  -9.560955e+05
   1.505776e+06  -5.481168e+05
   1.148146e+06   7.573907e+05
  -6.723800e+05   1.938896e+06
  -2.356668e+06   1.908030e+06
  -2.550627e+06   4.617315e+05
  -1.450932e+06  -1.446286e+06
  -2.726936e+05  -2.493863e+06
   2.093102e+05  -2.203364e+06
   2.589118e+05  -1.310747e+06
   5.129660e+05  -8.048347e+05
   1.134917e+06  -7.452076e+05
   1.696920e+06  -3.482853e+05
   1.642274e+06   7.512120e+05
   7.696246e+05   1.748717e+06
  -5.347028e+05   1.511748e+06
  -1.426667e+06   7.331166e+03
  -1.177411e+06  -1.491661e+06
   1.251867e+05  -1.694974e+06
   1.482037e+06  -5.533094e+05
   1.816271e+06   8.604520e+05
   9.922238e+05   1.511843e+06
  -1.031598e+05   1.269749e+06
  -5.659002e+05   7.481942e+05
  -4.506416e+05   5.405419e+05
  -5.842420e+05   6.639613e+05
  -1.417065e+06   6.260973e+05
  -2.275441e+06  -3.918416e+04
  -1.987679e+06  -1.236790e+06
  -2.711431e+05  -2.243223e+06
   1.715978e+06  -2.241109e+06
   2.409121e+06  -1.066387e+06
   1.402647e+06   5.123860e+05
  -1.719642e+05   1.351655e+06
  -8.525555e+05   9.316472e+05
  -2.746381e+05  -1.366804e+05
   6.744789e+05  -6.953095e+05
   9.459198e+05  -2.319014e+05
   3.629619e+05   5.740914e+05
  -3.753445e+05   6.494717e+05
  -4.829496e+05  -1.530292e+05
   1.907620e+05  -7.818341e+05
   1.044533e+06  -1.977711e+05
   1.201993e+06   1.306335e+06
   2.454677e+05   2.285178e+06
  -1.315257e+06   1.671690e+06
  -2.327466e+06  -9.161750e+04
  -1.964266e+06  -1.556048e+06
  -5.338596e+05  -1.733672e+06
   7.575786e+05  -9.067441e+05
   9.601147e+05  -9.895592e+04
   2.805602e+05   1.013996e+04
  -2.380276e+05  -4.001553e+05
   9.393294e+04  -6.680692e+05
   8.660545e+05  -3.784414e+05
   1.082887e+06   2.572699e+05
   3.539909e+05   6.474335e+05
  -5.876144e+05   4.181560e+05
  -6.560826e+05  -1.982598e+05
   3.498494e+05  -5.545114e+05
   1.430000e+06  -1.953923e+05
   1.393059e+06   6.823935e+05
   1.235386e+05   1.358064e+06
  -1.273221e+06   1.214328e+06
  -1.595000e+06   3.195502e+05
  -7.137985e+05  -5.836469e+05
   4.008082e+05  -7.419384e+05
   7.108167e+05  -1.273372e+05
   6.515678e+04   5.148832e+05
  -7.924902e+05   4.386775e+05
  -1.010301e+06  -2.959293e+05
  -3.998340e+05  -8.970127e+05
   4.519386e+05  -7.396816e+05
   7.619960e+05  -5.614180e+04
   3.031510e+05   3.675946e+05
  -3.571194e+05   8.890342e+04
  -4.147242e+05  -5.402177e+05
   3.113166e+05  -7.956113e+05
   1.125764e+06  -3.248413e+05
   1.156531e+06   5.452196e+05
   2.903198e+05   1.129716e+06
  -6.931662e+05   9.763147e+05
  -9.404082e+05   2.424178e+05
  -3.778833e+05  -4.370857e+05
   3.059863e+05  -5.185788e+05
   4.404579e+05  -6.167272e+04
   2.282072e+04   3.588023e+05
  -3.885119e+05   2.978037e+05
  -3.206291e+05  -6.828508e+04
   1.241739e+05  -1.855924e+05
   3.901553e+05   1.841142e+05
   5.356455e+04   6.464612e+05
  -6.998249e+05   5.940112e+05
  -1.191996e+06  -1.300271e+05
  -8.941095e+05  -1.035106e+06
   3.445692e+04  -1.417328e+06
   8.838274e+05  -9.799813e+05
   1.081413e+06  -8.387639e+04
   6.997234e+05   5.816078e+05
   2.662815e+05   6.213626e+05
   1.463139e+05   2.725891e+05
   2.024130e+05   9.692637e+04
   5.478278e+04   3.234143e+05
  -4.096624e+05   5.759113e+05
  -8.434148e+05   3.318415e+05
  -7.501790e+05  -3.988188e+05
   2.542627e+03  -9.798791e+05
   9.543706e+05  -7.798898e+05
   1.358389e+06   1.596204e+05
   8.095673e+05   1.125547e+06
  -3.577196e+05   1.376107e+06
  -1.312565e+06   7.762645e+05
  -1.429064e+06  -1.456165e+05
  -7.908560e+05  -7.171319e+05
  -2.707172e+04  -7.109570e+05
   3.164104e+05  -4.611674e+05
   2.300672e+05  -4.183842e+05
   1.184832e+05  -6.203738e+05
   3.007348e+05  -6.601636e+05
   6.598321e+05  -1.952777e+05
   7.714984e+05   5.831390e+05
   3.690293e+05   1.071754e+06
  -3.233308e+05   8.446865e+05
  -7.486157e+05   7.344072e+04
  -5.480060e+05  -6.397086e+05
   6.912995e+04  -7.995713e+05
   5.277978e+05  -3.945293e+05
   4.709376e+05   1.809128e+05
   9.718244e+04   5.113615e+05
  -1.130490e+05   4.861880e+05
   3.478391e+04   3.062211e+05
   2.295722e+05   2.133401e+05
   2.806007e+04   2.323927e+05
  -5.909486e+05   1.822918e+05
  -1.109867e+06  -8.215165e+04
  -9.594077e+05  -4.768008e+05
  -1.300852e+05  -7.424863e+05
   7.480707e+05  -6.728976e+05
   9.922383e+05  -2.986785e+05
   5.296873e+05   1.160940e+05
  -7.588759e+04   2.703384e+05
  -2.538756e+05   9.253506e+04
   1.054211e+04  -1.592973e+05
   2.885625e+05  -1.394340e+05
   2.709489e+05   1.823484e+05
   6.996669e+04   4.355022e+05
  -2.252025e+04   2.793540e+05
   8.561122e+04  -1.281490e+05
   2.253176e+05  -2.640208e+05
   1.848514e+05   1.117394e+05
  -9.570048e+04   6.047801e+05
  -4.736039e+05   6.224623e+05
  -6.580048e+05   7.881163e+04
  -4.022008e+05  -5.005893e+05
   2.009575e+05  -5.734425e+05
   6.434492e+05  -1.383705e+05
   4.246869e+05   3.365357e+05
  -3.546131e+05   4.161751e+05
  -9.595236e+05   5.672170e+04
  -7.410314e+05  -4.329915e+05
   1.449947e+05  -6.676694e+05
   8.714344e+05  -4.692644e+05
   8.067692e+05  -8.183999e+03
   1.473637e+05   3.148687e+05
  -3.527003e+05   2.255726e+05
  -1.992219e+05  -1.255038e+05
   3.668222e+05  -2.729002e+05
   6.761125e+05   8.214935e+04
   3.358279e+05   6.991580e+05
  -3.931607e+05   9.651729e+05
  -8.822105e+05   4.914099e+05
  -7.465040e+05  -4.387928e+05
  -1.584955e+05  -1.058637e+06
   3.930577e+05  -8.288873e+05
   5.630389e+05   1.289198e+04
   3.532763e+05   6.732158e+05
  -1.612950e+04   6.187725e+05
  -3.010262e+05   1.015622e+05
  -3.435807e+05  -2.195221e+05
  -1.655900e+05  -9.612276e+04
  -1.627121e+02   7.762638e+04
  -7.836214e+04  -1.188259e+05
  -2.923332e+05  -5.292890e+05
  -2.245007e+05  -6.390507e+05
   3.145639e+05  -2.675087e+05
   8.899792e+05   2.288011e+05
   8.490245e+05   4.495165e+05
   1.387750e+05   3.867225e+05
  -5.508836e+05   2.633339e+05
  -5.940799e+05   1.611698e+05
  -1.577390e+05   1.853118e+04
   1.037299e+05  -1.292014e+05
  -6.118810e+04  -1.588457e+05
  -2.381278e+05  -9.133986e+04
  -1.608740e+03  -8.128896e+04
   4.659264e+05  -1.240182e+05
   5.995728e+05   5.032057e+03
   1.510536e+05   3.790213e+05
  -5.375349e+05   6.574148e+05
  -9.167976e+05   4.214894e+05
  -7.323058e+05  -2.632025e+05
  -1.612559e+05  -8.253542e+05
   3.930105e+05  -7.912564e+05
   5.962957e+05  -2.833155e+05
   3.978793e+05   1.640494e+05
   5.203144e+04   2.040137e+05
  -1.072474e+05  -5.952626e+03
   2.145817e+04  -6.459017e+04
   2.195442e+05   1.832118e+05
   1.935442e+05   4.637668e+05
  -1.048183e+05   3.822045e+05
  -4.137564e+05  -1.071734e+05
  -4.046682e+05  -5.876523e+05
  -5.880582e+03  -5.886564e+05
   4.774664e+05  -8.815869e+04
   5.922804e+05   4.637797e+05
   1.766810e+05   6.216849e+05
  -4.121552e+05   3.539677e+05
  -6.149294e+05  -4.146405e+04
  -2.795613e+05  -2.947717e+05
   1.476679e+05  -3.333147e+05
   1.528249e+05  -2.057157e+05
  -2.095290e+05  -2.556644e+04
  -3.937800e+05   2.555247e+04
  -6.867712e+04  -1.631237e+05
   4.653060e+05  -4.206054e+05
   6.637853e+05  -3.894314e+05
   3.807099e+05   3.561241e+04
  -4.402858e+04   4.806075e+05
  -2.456914e+05   4.814531e+05
  -1.785487e+05   5.507916e+04
  -6.151050e+03  -3.042274e+05
   1.426485e+05  -2.220664e+05
   2.111737e+05   1.366650e+05
   1.496383e+05   3.324724e+05
  -3.813760e+04   1.956312e+05
  -2.253684e+05  -4.401679e+04
  -2.609961e+05  -1.127863e+05
  -1.419705e+05  -1.460743e+04
  -6.818146e+03   4.060447e+04
   4.771474e+04  -7.155711e+04
   6.754654e+04  -2.428708e+05
   1.340538e+05  -2.561732e+05
   2.182363e+05  -2.603855e+04
   1.954298e+05   2.814683e+05
  -8.489660e+02   3.825479e+05
  -2.610230e+05   1.611662e+05
  -3.516897e+05  -1.890636e+05
  -1.278160e+05  -3.519395e+05
   2.702512e+05  -2.127493e+05
   4.789001e+05   5.419423e+04
   2.674517e+05   2.119856e+05
  -1.633670e+05   1.936646e+05
  -3.511062e+05   8.994036e+04
  -9.911767e+04   5.652538e+03
   2.640996e+05   1.151817e+03
   2.631270e+05   9.508824e+04
  -1.448599e+05   2.112636e+05
  -5.129177e+05   1.686309e+05
