
 $NMID
 id='ANONYMOUS ', fmtdat='(2E16.6)'
 volume=1.0
 tramp=1.0
 $END
   5.328593e+07  -2.723244e+05
   3.237160e+07   3.252068e+07
  -6.573508e+06   3.601496e+07
  -2.591714e+07   1.434303e+07
  -1.579015e+07  -6.195961e+06
   2.908990e+06  -8.881866e+06
   9.377083e+06   8.631493e+05
   2.907160e+06   9.208647e+06
  -5.688167e+06   9.114071e+06
  -9.162514e+06   2.130427e+06
  -6.732063e+06  -5.878279e+06
  -8.258772e+05  -8.262481e+06
   3.821329e+06  -2.605025e+06
   2.582826e+06   5.308012e+06
  -3.517007e+06   6.411709e+06
  -7.521274e+06  -1.132303e+06
  -4.356307e+06  -9.671108e+06
   3.471779e+06  -1.127119e+07
   9.556987e+06  -5.671020e+06
   1.024340e+07   1.931143e+06
   6.230437e+06   7.063524e+06
   6.470260e+05   8.085229e+06
  -2.617821e+06   5.643872e+06
  -1.511151e+06   2.626628e+06
   1.209621e+06   2.268962e+06
   1.922094e+05   4.161081e+06
  -5.324976e+06   4.225801e+06
  -9.359135e+06   4.163075e+05
  -6.741010e+06  -3.990451e+06
  -1.325020e+05  -4.833166e+06
   3.687106e+06  -2.382962e+06
   2.367531e+06   1.369751e+05
  -7.697652e+05   1.030053e+06
  -2.408594e+06   4.411439e+05
  -2.158820e+06  -1.544815e+06
  -5.663611e+05  -3.888417e+06
   1.767409e+06  -3.646403e+06
   2.986095e+06   1.909698e+05
   1.521269e+06   3.445329e+06
  -7.326266e+05   1.687361e+06
  -2.558344e+05  -2.496375e+06
   2.389211e+06  -2.286997e+06
   2.395884e+06   2.999373e+06
  -2.157473e+06   5.847488e+06
  -6.461903e+06   1.050002e+06
  -4.871056e+06  -6.477230e+06
   1.703723e+06  -8.069495e+06
   7.032172e+06  -2.342905e+06
   6.740742e+06   4.205434e+06
   1.896030e+06   5.807383e+06
  -3.320693e+06   2.703430e+06
  -5.152488e+06  -1.372410e+06
  -2.451962e+06  -3.324051e+06
   2.247748e+06  -2.153553e+06
   4.342043e+06   8.093895e+05
   1.917351e+06   2.560940e+06
  -1.618638e+06   1.325917e+06
  -1.720772e+06  -9.680107e+05
   1.183524e+06  -9.552762e+05
   2.397267e+06   1.521793e+06
  -4.212279e+05   3.194555e+06
  -4.262303e+06   1.880249e+06
  -5.046888e+06  -1.154887e+06
  -2.276680e+06  -3.728440e+06
   1.727759e+06  -5.062306e+06
   4.876386e+06  -4.673904e+06
   5.986017e+06  -1.661387e+06
   4.376393e+06   3.064912e+06
   9.041533e+05   5.962375e+06
  -1.726730e+06   4.652895e+06
  -1.651911e+06   1.293352e+06
  -2.261552e+05  -1.286465e+05
  -1.246602e+05   9.839818e+05
  -1.684456e+06   1.676746e+06
  -2.784050e+06   1.210642e+05
  -1.954026e+06  -1.995174e+06
   4.881531e+04  -2.161191e+06
   1.611639e+06  -1.856523e+05
   1.691313e+06   2.101660e+06
  -1.385336e+04   2.912067e+06
  -2.725792e+06   1.589164e+06
  -4.330674e+06  -1.197079e+06
  -3.083945e+06  -3.632439e+06
   3.791391e+04  -4.035503e+06
   2.151488e+06  -2.592125e+06
   2.103298e+06  -1.119367e+06
   1.760311e+06  -7.159355e+05
   2.889097e+06  -5.212134e+05
   4.292467e+06   7.071469e+05
   3.460625e+06   2.706852e+06
   1.501909e+05   4.087761e+06
  -3.176347e+06   3.874691e+06
  -4.152064e+06   2.084887e+06
  -2.623556e+06  -4.539690e+05
  -2.304967e+05  -2.228927e+06
   1.122465e+06  -1.898875e+06
   5.540144e+05   5.027014e+04
  -1.090308e+06   1.295171e+06
  -1.881190e+06   3.964181e+05
  -8.972617e+05  -1.185210e+06
   5.267641e+05  -1.109470e+06
   4.555777e+05   3.829004e+05
  -1.016366e+06   7.429257e+05
  -1.853313e+06  -1.171862e+06
  -7.428221e+05  -3.395504e+06
   1.455597e+06  -3.441217e+06
   3.079328e+06  -1.227575e+06
   3.345886e+06   1.361849e+06
   2.334069e+06   2.754611e+06
   4.750768e+05   2.628510e+06
  -1.243857e+06   1.462967e+06
  -1.578092e+06   2.204872e+05
  -4.910830e+05  -4.486820e+04
   3.597717e+05   7.479413e+05
  -3.989268e+05   1.328120e+06
  -1.880874e+06   5.811079e+05
  -2.021559e+06  -8.630550e+05
  -3.965972e+05  -1.399586e+06
   1.163752e+06  -5.777286e+05
   9.014180e+05   4.521643e+05
  -8.379550e+05   5.435531e+05
  -2.195986e+06  -2.898851e+05
  -1.775147e+06  -1.352320e+06
   2.298342e+05  -1.989765e+06
   2.304337e+06  -1.670834e+06
   2.770161e+06  -2.825129e+05
   1.215363e+06   1.252435e+06
  -9.071746e+05   1.488182e+06
  -1.541110e+06   1.904401e+05
  -1.957064e+05  -1.069346e+06
   1.509087e+06  -7.356725e+05
   1.718316e+06   7.710984e+05
   3.514101e+05   1.648927e+06
  -1.080267e+06   9.898867e+05
  -1.261096e+06  -2.958247e+05
  -2.576238e+05  -7.768776e+05
   7.888095e+05  -5.939164e+04
   7.350753e+05   1.048190e+06
  -5.748572e+05   1.421063e+06
  -2.004465e+06   5.418577e+05
  -2.032518e+06  -1.046517e+06
  -3.870690e+05  -2.069481e+06
   1.431345e+06  -1.643374e+06
   1.722680e+06  -2.167412e+05
   5.074805e+05   8.655779e+05
  -6.550186e+05   8.067498e+05
  -6.391289e+05   7.589814e+04
   1.138003e+05  -3.724836e+05
   5.009591e+05  -2.198977e+05
   1.406883e+05   7.034092e+04
  -4.397703e+05  -5.905616e+04
  -5.247104e+05  -6.579250e+05
   1.952766e+05  -1.184266e+06
   1.375893e+06  -8.990717e+05
   2.079737e+06   4.083086e+05
   1.466122e+06   1.937683e+06
  -2.126411e+05   2.420766e+06
  -1.613235e+06   1.421184e+06
  -1.696475e+06  -1.181738e+05
  -8.690374e+05  -9.030280e+05
  -3.193980e+05  -6.696891e+05
  -4.655760e+05  -2.286474e+05
  -6.153318e+05  -3.058959e+05
  -9.129706e+04  -7.549386e+05
   8.700346e+05  -9.033506e+05
   1.448427e+06  -3.322914e+05
   1.057099e+06   7.225797e+05
  -2.432555e+05   1.467918e+06
  -1.719661e+06   1.080403e+06
  -2.249919e+06  -4.776850e+05
  -1.141427e+06  -2.094582e+06
   9.961865e+05  -2.365044e+06
   2.532277e+06  -1.041070e+06
   2.354524e+06   6.463935e+05
   9.695139e+05   1.336910e+06
  -1.988887e+05   9.565460e+05
  -3.968094e+05   5.192507e+05
  -9.056937e+04   7.494590e+05
  -1.065226e+05   1.296105e+06
  -6.639551e+05   1.282121e+06
  -1.286902e+06   3.193804e+05
  -1.336373e+06  -1.076829e+06
  -5.591180e+05  -1.891679e+06
   6.193048e+05  -1.436889e+06
   1.285324e+06  -1.860708e+03
   8.166093e+05   1.276919e+06
  -3.811549e+05   1.395381e+06
  -1.154312e+06   4.155382e+05
  -8.120434e+05  -6.835240e+05
   1.123556e+05  -1.069228e+06
   5.248091e+05  -7.848830e+05
   8.084221e+04  -4.201219e+05
  -4.316028e+05  -3.360612e+05
  -5.956544e+04  -3.833273e+05
   1.143800e+06  -2.139211e+05
   2.057279e+06   3.247671e+05
   1.618097e+06   1.028881e+06
  -2.862198e+04   1.430188e+06
  -1.578391e+06   1.142202e+06
  -1.827423e+06   2.855079e+05
  -8.369080e+05  -4.853010e+05
   2.562047e+05  -5.662633e+05
   5.096698e+05  -3.786496e+04
   3.051228e+04   4.163892e+05
  -4.433590e+05   2.580830e+05
  -4.815244e+05  -3.400976e+05
  -2.516295e+05  -7.216887e+05
  -9.411462e+04  -4.779063e+05
  -1.378833e+05   9.733146e+04
  -2.814930e+05   2.952207e+05
  -2.764988e+05  -2.310312e+05
   1.398637e+05  -9.865501e+05
   8.945717e+05  -1.067651e+06
   1.356481e+06  -1.791793e+05
   8.518666e+05   9.097534e+05
  -4.098041e+05   1.137935e+06
  -1.253355e+06   3.406593e+05
  -7.349670e+05  -5.702246e+05
   6.994865e+05  -6.506616e+05
   1.588619e+06   9.116028e+04
   1.009112e+06   8.609454e+05
  -4.811177e+05   9.912992e+05
  -1.498082e+06   4.829158e+05
  -1.233920e+06  -1.881744e+05
  -1.353497e+05  -5.140930e+05
   6.491295e+05  -2.709466e+05
   3.858540e+05   2.927621e+05
  -5.817414e+05   5.254937e+05
  -1.183610e+06  -7.334017e+04
  -6.799779e+05  -1.176437e+06
   5.769703e+05  -1.707571e+06
   1.477583e+06  -8.969969e+05
   1.261332e+06   7.494017e+05
   2.130166e+05   1.791087e+06
  -7.348627e+05   1.296860e+06
  -9.265126e+05  -1.754909e+05
  -4.337544e+05  -1.191903e+06
   2.205740e+05  -9.687505e+05
   5.639891e+05  -8.474123e+04
   4.642639e+05   3.751450e+05
   1.596133e+05   1.357641e+05
   5.018622e+04  -9.435552e+04
   2.888605e+05   2.968854e+05
   5.180270e+05   9.658614e+05
   1.901947e+05   1.077927e+06
  -7.207067e+05   3.983659e+05
  -1.477800e+06  -4.573403e+05
  -1.279355e+06  -8.311476e+05
  -1.883018e+05  -6.997749e+05
   8.452086e+05  -4.253921e+05
   9.818555e+05  -1.856199e+05
   3.675323e+05   5.478795e+04
  -1.414160e+05   2.275568e+05
  -4.335724e+04   2.015879e+05
   2.560392e+05   8.773195e+04
   5.571617e+04   1.322032e+05
  -6.496200e+05   2.455395e+05
  -1.050009e+06   1.016782e+03
  -4.558839e+05  -6.910467e+05
   8.215951e+05  -1.194320e+06
   1.703517e+06  -7.825604e+05
   1.432595e+06   4.114862e+05
   2.942090e+05   1.404139e+06
  -7.583159e+05   1.390195e+06
  -1.046479e+06   5.584991e+05
  -6.572694e+05  -2.190119e+05
  -1.433713e+05  -3.579137e+05
   5.851368e+04  -7.476210e+04
  -8.557365e+04   8.864351e+03
  -2.987638e+05  -3.696985e+05
  -2.505841e+05  -8.077990e+05
   1.694247e+05  -6.856927e+05
   6.812532e+05   1.037869e+05
   7.604713e+05   9.350718e+05
   1.448851e+05   1.033789e+06
  -7.423764e+05   2.721530e+05
  -1.051151e+06  -6.952822e+05
  -3.732037e+05  -1.088242e+06
   7.033549e+05  -6.995755e+05
   1.129612e+06   5.583744e+04
   5.495409e+05   6.172965e+05
  -2.797706e+05   6.973890e+05
  -3.880945e+05   3.771564e+05
   2.339453e+05   7.314732e+02
   6.467775e+05  -5.007283e+04
   1.559484e+05   3.095407e+05
  -8.189394e+05   6.888939e+05
  -1.268042e+06   5.466441e+05
  -7.810126e+05  -1.793028e+05
   8.386579e+04  -8.784766e+05
   5.551182e+05  -8.716473e+05
   4.391310e+05  -1.789630e+05
   6.826490e+04   4.732381e+05
  -2.307478e+05   4.479426e+05
  -3.539134e+05  -1.289388e+05
  -2.650629e+05  -5.745972e+05
   4.277560e+04  -4.416927e+05
   3.931119e+05   3.295798e+04
   4.858726e+05   2.842531e+05
   2.447628e+05   1.020135e+05
  -4.390329e+04  -1.609097e+05
  -8.423171e+04  -6.515643e+04
   3.676908e+04   3.446458e+05
  -1.331797e+04   5.674637e+05
  -3.068600e+05   2.500480e+05
  -4.841403e+05  -3.555462e+05
  -1.930480e+05  -6.441538e+05
   3.967459e+05  -3.289195e+05
   6.802989e+05   2.596231e+05
   2.711659e+05   5.647870e+05
  -5.075869e+05   3.767812e+05
  -8.950653e+05  -5.471140e+04
  -4.908988e+05  -3.706008e+05
   2.879477e+05  -4.175535e+05
   6.410357e+05  -2.532069e+05
   2.629652e+05  -2.513905e+04
  -3.286436e+05   8.645997e+04
  -4.026509e+05  -3.978165e+04
   1.498271e+05  -2.839795e+05
   7.174871e+05  -2.846816e+05
