
 $NMID
 id='ANONYMOUS ', fmtdat='(2E16.6)'
 volume=1.0
 tramp=1.0
 $END
   3.402730e+07  -1.984996e+06
   2.307139e+07   1.688029e+07
  -4.971740e+05   2.244531e+07
  -1.501190e+07   1.309064e+07
  -1.167146e+07  -2.853333e+05
   1.115348e+04  -6.069709e+06
   6.584776e+06  -1.903789e+06
   4.161282e+06   5.556992e+06
  -2.134293e+06   8.139042e+06
  -6.114337e+06   3.359576e+06
  -5.250117e+06  -3.912837e+06
  -9.279351e+05  -6.370537e+06
   2.864329e+06  -1.707015e+06
   2.431357e+06   4.803543e+06
  -1.877477e+06   5.938511e+06
  -5.406142e+06   3.586284e+05
  -4.010976e+06  -6.352607e+06
   1.418140e+06  -8.118323e+06
   6.163762e+06  -4.230016e+06
   6.685888e+06   1.305211e+06
   3.559845e+06   4.461556e+06
   1.704996e+05   4.328256e+06
  -5.843538e+05   2.784436e+06
   1.154129e+06   2.259294e+06
   2.219360e+06   3.430629e+06
  -3.329634e+05   4.520391e+06
  -5.332665e+06   3.235904e+06
  -7.902200e+06  -3.249332e+05
  -4.907962e+06  -3.385708e+06
   9.177908e+05  -3.484394e+06
   3.868930e+06  -1.042755e+06
   1.760540e+06   1.434646e+06
  -2.174974e+06   1.900400e+06
  -3.715698e+06   8.294611e+04
  -2.087788e+06  -2.646939e+06
   4.542180e+05  -3.969346e+06
   1.737906e+06  -2.313173e+06
   1.306751e+06   9.920250e+05
   7.059930e+04   2.301012e+06
  -5.195618e+05  -7.990828e+04
   4.338056e+05  -3.075146e+06
   2.066689e+06  -2.342965e+06
   2.160387e+06   1.739269e+06
  -2.770488e+05   4.050047e+06
  -3.180619e+06   1.306393e+06
  -3.244414e+06  -3.572145e+06
   3.209557e+05  -5.131788e+06
   4.572535e+06  -1.870821e+06
   5.634329e+06   2.692217e+06
   2.424631e+06   4.525211e+06
  -2.365801e+06   2.845247e+06
  -4.711354e+06  -2.704021e+05
  -2.850217e+06  -2.284696e+06
   1.103496e+06  -1.955105e+06
   3.224752e+06   8.397876e+03
   1.794631e+06   1.516136e+06
  -9.797066e+05   1.067433e+06
  -1.698653e+06  -5.740790e+05
   1.777408e+05  -1.273303e+06
   1.896892e+06  -1.428049e+05
   9.836109e+05   1.479774e+06
  -1.784937e+06   1.760352e+06
  -3.430385e+06   2.480220e+05
  -2.087306e+06  -2.114573e+06
   1.325154e+06  -3.889736e+06
   4.281637e+06  -3.716449e+06
   4.873308e+06  -1.087295e+06
   3.106648e+06   2.638669e+06
   6.208121e+05   4.807118e+06
  -8.209400e+05   4.061743e+06
  -8.727914e+05   1.921067e+06
  -6.783828e+05   8.433879e+05
  -1.320711e+06   1.132628e+06
  -2.454982e+06   9.291687e+05
  -2.755106e+06  -8.097200e+05
  -1.497861e+06  -2.627636e+06
   6.299773e+05  -2.407623e+06
   2.139504e+06  -5.030277e+04
   1.874581e+06   2.392992e+06
  -1.549714e+05   2.879663e+06
  -2.576007e+06   1.151467e+06
  -3.490818e+06  -1.361840e+06
  -2.161614e+06  -2.909052e+06
   1.090150e+05  -2.786427e+06
   1.348443e+06  -1.729821e+06
   1.218313e+06  -1.000773e+06
   1.261004e+06  -9.926664e+05
   2.576715e+06  -8.745991e+05
   4.009704e+06   2.925375e+05
   3.397433e+06   2.313232e+06
   3.435250e+05   3.901483e+06
  -3.010134e+06   3.813006e+06
  -4.105571e+06   1.884877e+06
  -2.449178e+06  -7.324224e+05
   1.237708e+05  -2.258785e+06
   1.335527e+06  -1.675948e+06
   4.916464e+05   1.700515e+05
  -1.126693e+06   1.211755e+06
  -1.697342e+06   3.920652e+05
  -7.098908e+05  -1.042125e+06
   6.022122e+05  -1.098908e+06
   6.954105e+05   3.090797e+05
  -5.714304e+05   1.135154e+06
  -1.819850e+06  -1.818362e+05
  -1.604840e+06  -2.639530e+06
   2.405649e+05  -3.752017e+06
   2.550028e+06  -2.289675e+06
   3.755055e+06   5.887513e+05
   2.979969e+06   2.702299e+06
   7.421466e+05   2.840281e+06
  -1.276346e+06   1.504689e+06
  -1.609052e+06   1.784455e+05
  -4.807810e+05  -2.819331e+04
   3.866502e+05   7.032686e+05
  -2.416881e+05   1.200408e+06
  -1.609700e+06   6.208437e+05
  -1.901363e+06  -5.845046e+05
  -5.309502e+05  -1.203870e+06
   1.056122e+06  -6.623265e+05
   1.039691e+06   3.821003e+05
  -6.847773e+05   8.054000e+05
  -2.354165e+06   1.072636e+05
  -2.158197e+06  -1.239545e+06
  -4.666927e+04  -2.200801e+06
   2.219129e+06  -1.918479e+06
   2.729331e+06  -4.437370e+05
   1.210719e+06   1.082113e+06
  -7.572878e+05   1.335346e+06
  -1.318912e+06   2.074756e+05
  -1.389490e+05  -9.375901e+05
   1.400966e+06  -7.374263e+05
   1.714720e+06   5.988894e+05
   5.625323e+05   1.569823e+06
  -8.803558e+05   1.164765e+06
  -1.285998e+06  -4.271457e+04
  -4.264936e+05  -6.800932e+05
   6.684566e+05  -1.198729e+05
   7.112113e+05   9.617050e+05
  -5.473559e+05   1.370069e+06
  -1.940983e+06   5.408538e+05
  -1.980867e+06  -9.712870e+05
  -4.507949e+05  -1.968768e+06
   1.267259e+06  -1.648532e+06
   1.640571e+06  -3.404838e+05
   5.939608e+05   7.867377e+05
  -5.685818e+05   8.536640e+05
  -7.101174e+05   9.051667e+04
   1.874893e+04  -5.296826e+05
   6.102833e+05  -4.026275e+05
   4.049753e+05   1.081083e+05
  -2.947320e+05   1.897846e+05
  -6.179538e+05  -4.338141e+05
   9.536895e+03  -1.129131e+06
   1.254911e+06  -9.672177e+05
   2.040277e+06   2.910595e+05
   1.492926e+06   1.821527e+06
  -1.198025e+05   2.408245e+06
  -1.545616e+06   1.573946e+06
  -1.789282e+06   4.460896e+04
  -1.072438e+06  -9.661019e+05
  -3.965767e+05  -9.259376e+05
  -3.163443e+05  -3.804003e+05
  -4.363492e+05  -2.096912e+05
  -9.285182e+04  -6.182221e+05
   7.583633e+05  -9.502146e+05
   1.440158e+06  -4.782232e+05
   1.195435e+06   6.994540e+05
  -9.485705e+04   1.597203e+06
  -1.659385e+06   1.233601e+06
  -2.284190e+06  -3.504430e+05
  -1.287711e+06  -1.977861e+06
   7.465695e+05  -2.344310e+06
   2.335873e+06  -1.216989e+06
   2.401652e+06   3.924607e+05
   1.210417e+06   1.266012e+06
  -4.540081e+04   1.123292e+06
  -4.953174e+05   6.878321e+05
  -2.902906e+05   7.163280e+05
  -1.692847e+05   1.131316e+06
  -5.635777e+05   1.173417e+06
  -1.175892e+06   3.247575e+05
  -1.313503e+06  -1.022124e+06
  -5.963398e+05  -1.843646e+06
   5.771590e+05  -1.430938e+06
   1.275398e+06  -7.808940e+04
   8.883567e+05   1.153725e+06
  -2.112832e+05   1.370805e+06
  -9.879498e+05   5.824056e+05
  -8.062277e+05  -4.370463e+05
  -7.007940e+04  -9.390846e+05
   3.081405e+05  -8.139049e+05
  -8.118343e+03  -4.872268e+05
  -4.013535e+05  -3.536216e+05
  -4.981590e+04  -3.900085e+05
   1.051470e+06  -2.744458e+05
   1.941109e+06   2.070376e+05
   1.621744e+06   8.887214e+05
   1.333045e+05   1.319761e+06
  -1.376388e+06   1.139339e+06
  -1.734630e+06   4.264249e+05
  -8.795784e+05  -2.987153e+05
   1.720569e+05  -4.956775e+05
   4.590985e+05  -1.157595e+05
  -5.269949e+02   3.186964e+05
  -4.738713e+05   2.409617e+05
  -4.656374e+05  -3.208519e+05
  -1.604172e+05  -7.305763e+05
  -4.901008e+03  -4.725785e+05
  -1.451047e+05   1.756773e+05
  -3.513985e+05   3.924760e+05
  -3.002478e+05  -2.051702e+05
   1.592176e+05  -1.010081e+06
   8.371364e+05  -1.056303e+06
   1.195812e+06  -1.477476e+05
   7.361756e+05   8.687939e+05
  -3.653042e+05   1.026883e+06
  -1.144229e+06   2.681993e+05
  -7.220481e+05  -5.724851e+05
   6.374326e+05  -6.852123e+05
   1.615092e+06  -2.561214e+04
   1.170048e+06   7.847171e+05
  -3.317621e+05   1.085378e+06
  -1.490318e+06   6.831962e+05
  -1.323773e+06  -6.188450e+04
  -2.083873e+05  -5.291241e+05
   6.176652e+05  -3.425958e+05
   3.539338e+05   2.402672e+05
  -6.085376e+05   4.804053e+05
  -1.156166e+06  -1.207748e+05
  -6.014179e+05  -1.181725e+06
   6.409354e+05  -1.654840e+06
   1.490352e+06  -8.477399e+05
   1.259964e+06   7.500358e+05
   2.424192e+05   1.793458e+06
  -6.959246e+05   1.365344e+06
  -9.460547e+05  -7.806131e+04
  -5.384859e+05  -1.161878e+06
   9.803640e+04  -1.023216e+06
   5.298235e+05  -1.410630e+05
   5.403432e+05   3.766916e+05
   2.383597e+05   1.563176e+05
   1.820880e+04  -1.195461e+05
   1.860815e+05   2.319331e+05
   5.000909e+05   9.212155e+05
   3.113634e+05   1.084509e+06
  -5.987622e+05   4.348345e+05
  -1.496140e+06  -4.173818e+05
  -1.381578e+06  -7.925628e+05
  -2.171055e+05  -6.714751e+05
   9.049502e+05  -4.339274e+05
   9.998060e+05  -2.389273e+05
   3.023703e+05  -2.483622e+03
  -1.647358e+05   2.205490e+05
   5.178403e+04   2.485310e+05
   3.516696e+05   1.355753e+05
   2.002384e+04   1.350197e+05
  -7.418668e+05   2.169104e+05
  -1.026566e+06  -8.837805e+03
  -3.216377e+05  -6.565639e+05
   8.832259e+05  -1.135561e+06
   1.605078e+06  -7.327707e+05
   1.302701e+06   4.362573e+05
   2.746828e+05   1.400223e+06
  -7.014031e+05   1.355150e+06
  -1.022705e+06   5.027567e+05
  -6.660217e+05  -2.607020e+05
  -1.055842e+05  -3.491470e+05
   1.386339e+05  -1.624055e+04
  -5.482742e+04   7.581217e+04
  -3.464914e+05  -3.327706e+05
  -2.986896e+05  -7.950352e+05
   1.767163e+05  -6.592199e+05
   6.920437e+05   1.581313e+05
   7.057662e+05   9.761243e+05
   5.224983e+04   1.007226e+06
  -7.847727e+05   1.867727e+05
  -1.014644e+06  -7.579111e+05
  -3.204890e+05  -1.064637e+06
   7.005731e+05  -6.304656e+05
   1.070431e+06   6.825330e+04
   4.986759e+05   5.398645e+05
  -2.604695e+05   6.086956e+05
  -3.034854e+05   3.587358e+05
   3.130241e+05   3.193253e+04
   6.599112e+05  -4.262365e+04
   1.290519e+05   2.873609e+05
  -8.013516e+05   7.014238e+05
  -1.176657e+06   6.185591e+05
  -6.920859e+05  -1.012905e+05
   8.002127e+04  -8.353433e+05
   4.655081e+05  -8.343996e+05
   3.478064e+05  -1.229474e+05
   2.739134e+04   5.000667e+05
  -2.383392e+05   3.991833e+05
  -3.539229e+05  -1.981089e+05
  -2.551953e+05  -5.676112e+05
   5.697520e+04  -3.680357e+05
   3.845438e+05   6.177782e+04
   4.572367e+05   2.236781e+05
   2.427812e+05   5.180880e+04
  -8.235278e+03  -9.914801e+04
  -8.497561e+04   5.773210e+04
  -6.567632e+04   3.860466e+05
  -1.544182e+05   4.751308e+05
  -3.455573e+05   1.115428e+05
  -3.792020e+05  -4.346761e+05
  -6.183810e+04  -6.437023e+05
   4.268623e+05  -2.894325e+05
   6.219804e+05   3.007593e+05
   2.321168e+05   5.853336e+05
  -4.756315e+05   3.646160e+05
  -8.383378e+05  -8.125362e+04
  -4.643735e+05  -3.640771e+05
   2.804549e+05  -3.572717e+05
   6.093475e+05  -1.847384e+05
   1.998620e+05  -1.548728e+04
  -4.056780e+05   2.461848e+04
  -4.286009e+05  -1.222348e+05
   2.152978e+05  -3.303657e+05
   8.182568e+05  -2.796673e+05
