
 $NMID
 id='ANONYMOUS ', fmtdat='(2E16.6)'
 volume=1.0
 tramp=1.0
 $END
   4.932926e+07   8.626557e+05
   2.923329e+07   3.023488e+07
  -6.526256e+06   3.285761e+07
  -2.385493e+07   1.310927e+07
  -1.441787e+07  -5.459586e+06
   2.613654e+06  -8.067352e+06
   8.557224e+06   6.164021e+05
   2.783964e+06   8.371626e+06
  -5.083166e+06   8.537120e+06
  -8.426012e+06   2.069598e+06
  -6.258175e+06  -5.573790e+06
  -7.105250e+05  -7.826294e+06
   3.677282e+06  -2.363645e+06
   2.505514e+06   5.144023e+06
  -3.212664e+06   6.112621e+06
  -6.951243e+06  -1.028004e+06
  -3.997631e+06  -9.012538e+06
   3.313419e+06  -1.044702e+07
   8.978389e+06  -5.116267e+06
   9.491030e+06   2.058853e+06
   5.532784e+06   6.752096e+06
   2.779326e+05   7.418479e+06
  -2.484132e+06   4.949710e+06
  -1.093727e+06   2.300457e+06
   1.463462e+06   2.314851e+06
   1.655628e+05   4.196573e+06
  -5.304953e+06   4.039758e+06
  -9.050773e+06   2.225152e+05
  -6.322641e+06  -3.956660e+06
   1.220859e+05  -4.641598e+06
   3.761523e+06  -2.177303e+06
   2.352978e+06   3.742208e+05
  -8.899690e+05   1.277542e+06
  -2.600989e+06   5.103770e+05
  -2.221952e+06  -1.682941e+06
  -4.319310e+05  -3.927073e+06
   1.831329e+06  -3.392263e+06
   2.753222e+06   4.423376e+05
   1.193059e+06   3.334840e+06
  -8.356638e+05   1.374309e+06
  -2.124888e+05  -2.606033e+06
   2.283093e+06  -2.245474e+06
   2.227689e+06   2.764454e+06
  -1.959117e+06   5.324010e+06
  -5.826060e+06   8.193383e+05
  -4.324056e+06  -6.043892e+06
   1.677502e+06  -7.377495e+06
   6.571033e+06  -2.056576e+06
   6.354874e+06   3.964326e+06
   1.868388e+06   5.460007e+06
  -3.092231e+06   2.617520e+06
  -4.913299e+06  -1.189249e+06
  -2.402165e+06  -3.060915e+06
   2.040519e+06  -2.000200e+06
   4.034789e+06   7.466593e+05
   1.790503e+06   2.358644e+06
  -1.509653e+06   1.217749e+06
  -1.660812e+06  -8.834879e+05
   9.758891e+05  -9.062620e+05
   2.142988e+06   1.271806e+06
  -3.322577e+05   2.757358e+06
  -3.813369e+06   1.636934e+06
  -4.600595e+06  -1.034284e+06
  -2.090486e+06  -3.424465e+06
   1.712317e+06  -4.777085e+06
   4.765084e+06  -4.430012e+06
   5.761799e+06  -1.484272e+06
   4.092919e+06   3.037654e+06
   7.797566e+05   5.710446e+06
  -1.584304e+06   4.418363e+06
  -1.441882e+06   1.310351e+06
  -2.062028e+05   6.504834e+04
  -2.877042e+05   1.099011e+06
  -1.833209e+06   1.614167e+06
  -2.818040e+06  -9.895402e+03
  -1.921456e+06  -2.089815e+06
   1.023568e+05  -2.216956e+06
   1.678200e+06  -2.186454e+05
   1.731421e+06   2.086647e+06
  -2.053055e+04   2.873699e+06
  -2.689070e+06   1.499951e+06
  -4.155220e+06  -1.252058e+06
  -2.851200e+06  -3.527367e+06
   1.349587e+05  -3.786418e+06
   2.055166e+06  -2.360300e+06
   1.937850e+06  -1.017555e+06
   1.626828e+06  -7.134938e+05
   2.760985e+06  -5.570534e+05
   4.148863e+06   6.314020e+05
   3.377870e+06   2.588309e+06
   1.857663e+05   3.976622e+06
  -3.082812e+06   3.808728e+06
  -4.084687e+06   2.042422e+06
  -2.582882e+06  -4.892204e+05
  -1.885331e+05  -2.228527e+06
   1.145734e+06  -1.860406e+06
   5.464593e+05   7.007425e+04
  -1.078312e+06   1.271642e+06
  -1.821056e+06   3.844244e+05
  -8.486114e+05  -1.155663e+06
   5.241509e+05  -1.100038e+06
   4.807861e+05   3.414485e+05
  -8.925572e+05   7.578623e+05
  -1.737778e+06  -9.930926e+05
  -8.168867e+05  -3.144422e+06
   1.197139e+06  -3.335245e+06
   2.847244e+06  -1.343116e+06
   3.295534e+06   1.164548e+06
   2.408819e+06   2.631294e+06
   5.435727e+05   2.592992e+06
  -1.216623e+06   1.456885e+06
  -1.560357e+06   2.229877e+05
  -4.805382e+05  -3.946849e+04
   3.587142e+05   7.247133e+05
  -3.718766e+05   1.275871e+06
  -1.802423e+06   5.651750e+05
  -1.951431e+06  -8.050898e+05
  -4.018709e+05  -1.332885e+06
   1.117820e+06  -5.788448e+05
   9.047933e+05   4.166287e+05
  -7.747876e+05   5.666659e+05
  -2.152208e+06  -1.969376e+05
  -1.804251e+06  -1.268849e+06
   1.528550e+05  -1.967642e+06
   2.222730e+06  -1.688983e+06
   2.704104e+06  -3.160714e+05
   1.187872e+06   1.199445e+06
  -8.743833e+05   1.433275e+06
  -1.479864e+06   1.795885e+05
  -1.785439e+05  -1.036023e+06
   1.464048e+06  -7.237687e+05
   1.679925e+06   7.223704e+05
   3.812354e+05   1.589721e+06
  -1.010851e+06   9.897713e+05
  -1.224122e+06  -2.424287e+05
  -2.754315e+05  -7.330413e+05
   7.522157e+05  -6.159916e+04
   7.184092e+05   1.016255e+06
  -5.576700e+05   1.391963e+06
  -1.960080e+06   5.396381e+05
  -1.992250e+06  -1.010795e+06
  -3.943456e+05  -2.013370e+06
   1.373090e+06  -1.612318e+06
   1.670455e+06  -2.355356e+05
   5.109060e+05   8.288912e+05
  -6.223207e+05   7.973668e+05
  -6.380738e+05   8.707515e+04
   8.130398e+04  -3.829762e+05
   4.923669e+05  -2.572070e+05
   1.828694e+05   5.074760e+04
  -3.888627e+05  -3.007712e+04
  -5.149287e+05  -6.016787e+05
   1.613558e+05  -1.141904e+06
   1.324182e+06  -8.930485e+05
   2.033050e+06   3.747550e+05
   1.448636e+06   1.878075e+06
  -1.813752e+05   2.373759e+06
  -1.555119e+06   1.426069e+06
  -1.670200e+06  -7.264172e+04
  -8.977697e+05  -8.749584e+05
  -3.532438e+05  -6.895932e+05
  -4.503426e+05  -2.588136e+05
  -5.715358e+05  -2.985676e+05
  -8.258908e+04  -7.214731e+05
   8.295190e+05  -8.918208e+05
   1.409469e+06  -3.576648e+05
   1.064219e+06   6.889066e+05
  -1.961261e+05   1.453046e+06
  -1.663198e+06   1.092122e+06
  -2.211428e+06  -4.338779e+05
  -1.148257e+06  -2.023751e+06
   9.296952e+05  -2.308453e+06
   2.440258e+06  -1.049573e+06
   2.305954e+06   5.786917e+05
   9.930223e+05   1.277555e+06
  -1.514979e+05   9.545812e+05
  -3.874652e+05   5.481672e+05
  -1.181625e+05   7.509640e+05
  -1.212538e+05   1.256668e+06
  -6.399679e+05   1.240351e+06
  -1.247187e+06   3.131206e+05
  -1.313517e+06  -1.045382e+06
  -5.632680e+05  -1.847805e+06
   5.948664e+05  -1.413357e+06
   1.256746e+06  -2.044369e+04
   8.115375e+05   1.226566e+06
  -3.427964e+05   1.356814e+06
  -1.093218e+06   4.267636e+05
  -7.805571e+05  -6.305621e+05
   8.771718e+04  -1.016869e+06
   4.759824e+05  -7.608406e+05
   5.737689e+04  -4.163240e+05
  -4.238496e+05  -3.335163e+05
  -6.011550e+04  -3.788555e+05
   1.104978e+06  -2.186219e+05
   1.998656e+06   2.994051e+05
   1.586990e+06   9.810269e+05
  -4.525950e+03   1.376503e+06
  -1.515912e+06   1.115395e+06
  -1.770105e+06   3.054748e+05
  -8.165590e+05  -4.401645e+05
   2.421203e+05  -5.406094e+05
   4.867312e+05  -4.781687e+04
   1.915949e+04   3.974773e+05
  -4.409620e+05   2.568892e+05
  -4.719005e+05  -3.302294e+05
  -2.389632e+05  -7.182910e+05
  -8.143879e+04  -4.769518e+05
  -1.292335e+05   1.093198e+05
  -2.773286e+05   3.134469e+05
  -2.749660e+05  -2.196782e+05
   1.324717e+05  -9.773078e+05
   8.662507e+05  -1.049516e+06
   1.312332e+06  -1.654950e+05
   8.226939e+05   8.943190e+05
  -3.995048e+05   1.101595e+06
  -1.221334e+06   3.221642e+05
  -7.251409e+05  -5.582362e+05
   6.718924e+05  -6.444752e+05
   1.557814e+06   5.971682e+04
   1.016371e+06   8.151661e+05
  -4.361859e+05   9.797415e+05
  -1.452487e+06   5.144871e+05
  -1.218152e+06  -1.502989e+05
  -1.488911e+05  -5.009556e+05
   6.260444e+05  -2.787969e+05
   3.719836e+05   2.806293e+05
  -5.775236e+05   5.162760e+05
  -1.165480e+06  -7.466545e+04
  -6.649344e+05  -1.161593e+06
   5.719138e+05  -1.681884e+06
   1.455172e+06  -8.855601e+05
   1.245934e+06   7.300727e+05
   2.253822e+05   1.759332e+06
  -7.032651e+05   1.287975e+06
  -9.073113e+05  -1.503960e+05
  -4.475805e+05  -1.156561e+06
   1.875785e+05  -9.522595e+05
   5.443648e+05  -9.241758e+04
   4.710362e+05   3.598587e+05
   1.718019e+05   1.287733e+05
   4.166879e+04  -9.416698e+04
   2.646091e+05   2.896953e+05
   5.090576e+05   9.422579e+05
   2.129250e+05   1.049971e+06
  -6.850122e+05   3.911974e+05
  -1.456585e+06  -4.333231e+05
  -1.276519e+06  -7.951858e+05
  -1.915218e+05  -6.807187e+05
   8.376724e+05  -4.305394e+05
   9.632586e+05  -1.984842e+05
   3.470117e+05   4.872794e+04
  -1.419763e+05   2.258449e+05
  -2.267700e+04   1.973626e+05
   2.714588e+05   8.357677e+04
   5.043463e+04   1.334238e+05
  -6.545758e+05   2.495243e+05
  -1.030785e+06   3.827539e+03
  -4.293365e+05  -6.840995e+05
   8.160154e+05  -1.177083e+06
   1.661305e+06  -7.642936e+05
   1.394934e+06   4.116063e+05
   2.948677e+05   1.381394e+06
  -7.322914e+05   1.362551e+06
  -1.027955e+06   5.454873e+05
  -6.533459e+05  -2.171477e+05
  -1.367394e+05  -3.534554e+05
   7.462478e+04  -7.215047e+04
  -7.349481e+04   1.674518e+04
  -3.003331e+05  -3.521499e+05
  -2.577971e+05  -7.873139e+05
   1.660505e+05  -6.725353e+05
   6.776724e+05   1.053429e+05
   7.495267e+05   9.268638e+05
   1.324028e+05   1.020837e+06
  -7.431285e+05   2.631509e+05
  -1.038887e+06  -6.907266e+05
  -3.638447e+05  -1.069929e+06
   6.937448e+05  -6.820748e+05
   1.104251e+06   5.521440e+04
   5.299905e+05   5.969304e+05
  -2.760757e+05   6.728566e+05
  -3.683986e+05   3.632207e+05
   2.451471e+05  -3.023478e+03
   6.389781e+05  -5.329347e+04
   1.493072e+05   3.027265e+05
  -7.980179e+05   6.834251e+05
  -1.224339e+06   5.486575e+05
  -7.492578e+05  -1.676991e+05
   8.041789e+04  -8.582260e+05
   5.306574e+05  -8.476429e+05
   4.221657e+05  -1.621258e+05
   6.624694e+04   4.731273e+05
  -2.298836e+05   4.355403e+05
  -3.553200e+05  -1.353101e+05
  -2.622888e+05  -5.637450e+05
   4.814105e+04  -4.250131e+05
   3.883905e+05   3.519956e+04
   4.701806e+05   2.700932e+05
   2.367517e+05   9.140310e+04
  -3.322655e+04  -1.518528e+05
  -7.244356e+04  -4.475752e+04
   2.633772e+04   3.544769e+05
  -3.944564e+04   5.570996e+05
  -3.187812e+05   2.302767e+05
  -4.697273e+05  -3.684495e+05
  -1.738643e+05  -6.444849e+05
   3.966179e+05  -3.228354e+05
   6.659518e+05   2.628622e+05
   2.662326e+05   5.608722e+05
  -4.934931e+05   3.692579e+05
  -8.750191e+05  -5.748459e+04
  -4.808101e+05  -3.631300e+05
   2.850928e+05  -4.028604e+05
   6.306596e+05  -2.398560e+05
   2.498821e+05  -1.925263e+04
  -3.402398e+05   8.453206e+04
  -4.078833e+05  -4.697438e+04
   1.515970e+05  -2.933641e+05
   7.203035e+05  -2.928353e+05
