
 $NMID
 id='ANONYMOUS ', fmtdat='(2E16.6)'
 volume=1.0
 tramp=1.0
 $END
  -6.550943e+06   8.513565e+05
  -5.444048e+06  -1.719274e+06
  -1.407096e+06  -4.117802e+06
   2.398093e+06  -4.211390e+06
   3.070697e+06  -1.487919e+06
   7.835970e+05   1.395191e+06
  -1.625669e+06   1.419730e+06
  -1.817877e+06  -1.020388e+06
  -1.357037e+05  -2.653854e+06
   1.382895e+06  -1.499068e+06
   1.395845e+06   9.042141e+05
   2.616905e+05   1.745221e+06
  -7.623433e+05   3.009383e+05
  -7.324285e+05  -1.624813e+06
   3.056659e+05  -1.982453e+06
   1.347256e+06  -4.967310e+05
   1.263413e+06   1.372470e+06
  -1.246769e+04   1.984511e+06
  -1.265944e+06   1.021113e+06
  -1.323840e+06  -3.589695e+05
  -4.346654e+05  -8.521854e+05
   1.029127e+05  -4.277540e+05
  -3.919316e+05  -1.729998e+05
  -1.168821e+06  -7.789155e+05
  -1.001834e+06  -1.647925e+06
   3.823825e+05  -1.714243e+06
   1.970113e+06  -7.500820e+05
   2.382402e+06   4.829286e+05
   1.153112e+06   1.107377e+06
  -6.935985e+05   8.079367e+05
  -1.440797e+06  -1.142873e+05
  -3.944360e+05  -9.298303e+05
   1.259477e+06  -8.679548e+05
   1.720355e+06   1.834555e+05
   6.503474e+05   1.324134e+06
  -5.555366e+05   1.420700e+06
  -6.400073e+05   3.959291e+05
   6.919447e+04  -5.913294e+05
   4.360686e+05  -4.582772e+05
   8.727325e+04   5.638108e+05
  -4.401937e+05   1.255012e+06
  -6.985787e+05   8.197682e+05
  -6.920927e+05  -2.909790e+05
  -4.079709e+05  -9.482629e+05
   1.963410e+05  -5.394030e+05
   6.574576e+05   4.556509e+05
   2.415921e+05   9.861744e+05
  -9.403686e+05   4.784329e+05
  -1.664238e+06  -6.175138e+05
  -9.548011e+05  -1.306223e+06
   6.295783e+05  -1.031176e+06
   1.576141e+06  -1.375364e+05
   1.113210e+06   5.799286e+05
  -9.318219e+04   6.405496e+05
  -8.397088e+05   1.872664e+05
  -5.950036e+05  -2.689771e+05
   1.793154e+05  -2.968031e+05
   5.985450e+05   1.250945e+05
   2.026863e+05   5.675195e+05
  -5.669154e+05   5.166205e+05
  -7.733475e+05  -6.771065e+04
  -6.229155e+04  -6.051419e+05
   7.822282e+05  -4.643448e+05
   6.783824e+05   3.197600e+05
  -4.182318e+05   1.026602e+06
  -1.423646e+06   9.678043e+05
  -1.431615e+06   1.344093e+05
  -6.878066e+05  -8.641981e+05
  -5.590367e+04  -1.390280e+06
   1.014631e+05  -1.282382e+06
   1.346386e+05  -8.739595e+05
   4.159098e+05  -5.703049e+05
   8.596568e+05  -3.997322e+05
   1.118440e+06  -4.196038e+04
   9.456924e+05   6.288094e+05
   3.321895e+05   1.156924e+06
  -4.572946e+05   9.134492e+05
  -9.246415e+05  -7.941866e+04
  -6.701499e+05  -9.912004e+05
   1.601237e+05  -1.018695e+06
   8.974457e+05  -2.295449e+05
   9.705294e+05   5.985379e+05
   4.517858e+05   8.586047e+05
  -9.705426e+04   6.244932e+05
  -2.658415e+05   3.502543e+05
  -1.931157e+05   3.148288e+05
  -3.311072e+05   4.214849e+05
  -8.586293e+05   3.694702e+05
  -1.358093e+06  -6.353897e+04
  -1.159038e+06  -7.867058e+05
  -9.945176e+04  -1.357516e+06
   1.114218e+06  -1.289134e+06
   1.498649e+06  -5.287593e+05
   8.064346e+05   3.964410e+05
  -2.002597e+05   8.109016e+05
  -5.756314e+05   5.022225e+05
  -1.517437e+05  -1.063778e+05
   4.405839e+05  -3.849634e+05
   5.632131e+05  -1.058882e+05
   1.789395e+05   3.434703e+05
  -2.625725e+05   3.767760e+05
  -3.158556e+05  -1.089265e+05
   1.049668e+05  -5.208511e+05
   6.589505e+05  -1.908827e+05
   7.908681e+05   7.744224e+05
   1.884197e+05   1.459019e+06
  -8.287046e+05   1.094329e+06
  -1.473542e+06  -7.050215e+04
  -1.205672e+06  -1.032801e+06
  -2.803067e+05  -1.105165e+06
   5.019671e+05  -5.246950e+05
   5.904306e+05  -1.590744e+04
   1.693685e+05   1.538566e+04
  -1.323419e+05  -2.483259e+05
   6.377852e+04  -3.908220e+05
   5.116880e+05  -2.048213e+05
   6.396384e+05   1.661188e+05
   2.081288e+05   3.881139e+05
  -3.634401e+05   2.419151e+05
  -4.076255e+05  -1.419527e+05
   2.232424e+05  -3.555161e+05
   9.032620e+05  -1.024479e+05
   8.649080e+05   4.663968e+05
   4.707468e+04   8.601564e+05
  -8.186511e+05   7.163870e+05
  -9.812329e+05   1.487414e+05
  -4.132073e+05  -3.642138e+05
   2.535406e+05  -4.203794e+05
   4.122697e+05  -5.506791e+04
   1.491048e+04   2.993806e+05
  -4.872282e+05   2.368182e+05
  -6.051521e+05  -2.011984e+05
  -2.322933e+05  -5.566691e+05
   2.853955e+05  -4.551575e+05
   4.732507e+05  -3.156145e+04
   1.904398e+05   2.279260e+05
  -2.081358e+05   4.857647e+04
  -2.289708e+05  -3.350629e+05
   2.176431e+05  -4.657152e+05
   6.904440e+05  -1.527712e+05
   6.765907e+05   3.689210e+05
   1.398887e+05   6.884186e+05
  -4.424403e+05   5.693063e+05
  -5.746530e+05   1.250553e+05
  -2.234376e+05  -2.736295e+05
   1.980418e+05  -3.097845e+05
   2.784396e+05  -1.990020e+04
   6.809572e+03   2.386352e+05
  -2.643773e+05   1.836364e+05
  -2.212790e+05  -6.421431e+04
   7.172142e+04  -1.388873e+05
   2.448653e+05   1.043664e+05
   2.841172e+04   3.927900e+05
  -4.373605e+05   3.428805e+05
  -7.173433e+05  -1.134416e+05
  -5.069331e+05  -6.530493e+05
   6.766671e+04  -8.607838e+05
   5.724526e+05  -5.786770e+05
   6.746999e+05  -2.380131e+04
   4.237795e+05   3.931724e+05
   1.404738e+05   4.192133e+05
   5.802378e+04   1.859800e+05
   1.007788e+05   5.278856e+04
   2.305556e+04   1.835463e+05
  -2.608580e+05   3.411839e+05
  -5.284526e+05   1.842003e+05
  -4.561935e+05  -2.732441e+05
   2.714511e+04  -6.134275e+05
   6.082958e+05  -4.539996e+05
   8.259021e+05   1.385290e+05
   4.653754e+05   7.068879e+05
  -2.446890e+05   8.246998e+05
  -8.107489e+05   4.425002e+05
  -8.733067e+05  -1.186415e+05
  -4.804604e+05  -4.647911e+05
  -1.722346e+03  -4.552883e+05
   2.256008e+05  -2.847298e+05
   1.788454e+05  -2.373569e+05
   1.010470e+05  -3.524759e+05
   1.960890e+05  -3.788508e+05
   3.966238e+05  -9.475838e+04
   4.438951e+05   3.792054e+05
   1.860398e+05   6.618832e+05
  -2.259541e+05   5.005859e+05
  -4.584771e+05   2.309287e+04
  -3.177544e+05  -3.986377e+05
   5.475023e+04  -4.838880e+05
   3.213409e+05  -2.406147e+05
   2.831704e+05   1.010990e+05
   6.153819e+04   3.037051e+05
  -6.451112e+04   2.985326e+05
   1.750939e+04   1.969233e+05
   1.272180e+05   1.404643e+05
   6.408353e+03   1.430695e+05
  -3.575102e+05   9.553102e+04
  -6.607219e+05  -7.943289e+04
  -5.671511e+05  -3.130723e+05
  -6.940708e+04  -4.473677e+05
   4.592428e+05  -3.823819e+05
   6.076426e+05  -1.591254e+05
   3.257988e+05   7.177419e+04
  -4.621855e+04   1.549656e+05
  -1.539397e+05   5.576870e+04
   1.444634e+04  -8.483954e+04
   1.842417e+05  -7.063144e+04
   1.559882e+05   1.193623e+05
   1.443966e+04   2.669106e+05
  -3.498783e+04   1.666147e+05
   5.962976e+04  -8.319496e+04
   1.575674e+05  -1.610047e+05
   1.110706e+05   7.309296e+04
  -8.543566e+04   3.662307e+05
  -3.066076e+05   3.590933e+05
  -3.845714e+05   2.072043e+04
  -2.119620e+05  -3.138689e+05
   1.382935e+05  -3.288513e+05
   3.831529e+05  -5.197412e+04
   2.431119e+05   2.218625e+05
  -2.261529e+05   2.438221e+05
  -5.910418e+05   8.301573e+03
  -4.527476e+05  -2.878541e+05
   1.001777e+05  -4.136842e+05
   5.519463e+05  -2.728186e+05
   5.035159e+05   1.521395e+04
   8.480287e+04   2.005499e+05
  -2.214221e+05   1.315513e+05
  -1.134213e+05  -7.783678e+04
   2.362855e+05  -1.454176e+05
   4.037473e+05   8.221973e+04
   1.668614e+05   4.378217e+05
  -2.843951e+05   5.637510e+05
  -5.568475e+05   2.572547e+05
  -4.359911e+05  -2.971050e+05
  -5.676224e+04  -6.509963e+05
   2.695323e+05  -4.965929e+05
   3.459432e+05   2.004094e+04
   1.999230e+05   4.223255e+05
  -2.212882e+04   3.841058e+05
  -1.843970e+05   5.654222e+04
  -2.085666e+05  -1.490738e+05
  -1.052690e+05  -6.900258e+04
  -1.039649e+02   5.065828e+04
  -3.246202e+04  -6.611000e+04
  -1.551295e+05  -3.282880e+05
  -1.241735e+05  -4.007448e+05
   1.890360e+05  -1.563806e+05
   5.347354e+05   1.710299e+05
   5.103444e+05   3.053651e+05
   7.250984e+04   2.381562e+05
  -3.525714e+05   1.376213e+05
  -3.708385e+05   7.959614e+04
  -9.042026e+04   1.259781e+04
   7.079203e+04  -7.311858e+04
  -4.062649e+04  -1.062219e+05
  -1.509661e+05  -7.246914e+04
   6.432460e+03  -4.913645e+04
   2.982269e+05  -5.149773e+04
   3.615314e+05   2.804279e+04
   6.197966e+04   2.301111e+05
  -3.593294e+05   3.701333e+05
  -5.624792e+05   2.154085e+05
  -4.194846e+05  -1.900230e+05
  -6.247096e+04  -5.076023e+05
   2.639698e+05  -4.623525e+05
   3.703354e+05  -1.422469e+05
   2.354645e+05   1.207867e+05
   1.924424e+04   1.244507e+05
  -7.290288e+04  -1.613199e+04
   1.348945e+04  -4.655968e+04
   1.321648e+05   1.170633e+05
   1.045452e+05   2.893250e+05
  -7.954782e+04   2.249995e+05
  -2.473964e+05  -8.830181e+04
  -2.152553e+05  -3.773062e+05
   3.023210e+04  -3.533804e+05
   2.970378e+05  -2.379468e+04
   3.360198e+05   3.123798e+05
   7.674063e+04   3.815109e+05
  -2.633277e+05   1.907834e+05
  -3.653222e+05  -5.041178e+04
  -1.537787e+05  -1.808628e+05
   9.943630e+04  -1.870412e+05
   9.136153e+04  -1.184204e+05
  -1.347158e+05  -2.907141e+04
  -2.418350e+05  -1.522036e+03
  -3.254205e+04  -9.895917e+04
   2.982400e+05  -2.386516e+05
   4.104735e+05  -2.197786e+05
   2.215161e+05   2.655795e+04
  -4.498104e+04   2.856587e+05
  -1.580740e+05   2.803220e+05
  -9.941790e+04   2.168972e+04
   1.371924e+04  -1.874894e+05
   9.566522e+04  -1.236038e+05
   1.215453e+05   9.947331e+04
   7.653593e+04   2.072566e+05
  -3.130546e+04   1.088221e+05
  -1.337303e+05  -3.898763e+04
  -1.520635e+05  -7.176426e+04
  -8.648310e+04  -8.926298e+03
  -8.635237e+03   1.675101e+04
   3.436415e+04  -5.544216e+04
   6.328339e+04  -1.476453e+05
   1.060503e+05  -1.371937e+05
   1.354594e+05   9.394020e+03
   9.405563e+04   1.859862e+05
  -3.082799e+04   2.300076e+05
  -1.678979e+05   8.238403e+04
  -1.988160e+05  -1.327468e+05
  -5.864773e+04  -2.207605e+05
   1.691190e+05  -1.176539e+05
   2.820923e+05   5.427456e+04
   1.511655e+05   1.384947e+05
  -1.051770e+05   1.044737e+05
  -2.122385e+05   3.334169e+04
  -5.318993e+04  -4.445065e+02
   1.680407e+05   1.987515e+04
   1.574808e+05   7.828818e+04
  -1.049299e+05   1.265612e+05
  -3.300010e+05   7.924363e+04
