
 $NMID
 id='ANONYMOUS ', fmtdat='(2E16.6)'
 volume=1.0
 tramp=1.0
 $END
  -3.031945e+03   2.014333e+02
  -2.295263e+03  -1.326972e+03
  -5.159585e+02  -1.901710e+03
   9.261515e+02  -1.423435e+03
   9.686402e+02  -4.188860e+02
   2.061766e+02   1.146730e+02
  -2.373004e+02   3.342055e-01
  -6.891382e+01  -4.478962e+02
   3.352014e+02  -5.551729e+02
   5.663298e+02  -1.655541e+02
   4.911765e+02   4.234590e+02
   1.274904e+02   5.925649e+02
  -1.864329e+02   2.375064e+02
  -2.306432e+02  -3.003154e+02
   9.028453e+01  -4.312532e+02
   3.481601e+02  -1.169386e+02
   3.272725e+02   4.311240e+02
  -6.264252e+01   6.191899e+02
  -4.371774e+02   3.344988e+02
  -4.749802e+02  -1.198805e+02
  -1.867770e+02  -3.341800e+02
   8.843603e+01  -2.589406e+02
   4.995790e+01  -9.566200e+01
  -1.842995e+02  -1.130096e+02
  -2.666687e+02  -2.805744e+02
   3.041552e+01  -3.438853e+02
   4.487453e+02  -1.390091e+02
   5.357499e+02   1.798675e+02
   1.868547e+02   3.181430e+02
  -2.924726e+02   1.566121e+02
  -4.346626e+02  -1.337748e+02
  -1.595103e+02  -3.252857e+02
   2.491851e+02  -3.300618e+02
   4.157759e+02  -1.302901e+02
   3.024885e+02   1.295286e+02
   9.519627e+01   2.806133e+02
   1.430015e+01   1.800510e+02
   8.213341e+01  -4.683517e+01
   1.586606e+02  -9.408588e+01
   1.494015e+02   1.404150e+02
  -3.736653e+00   4.116073e+02
  -2.071693e+02   3.922785e+02
  -2.636623e+02   2.686942e+01
  -1.030307e+02  -2.472393e+02
   9.841879e+01  -1.021266e+02
   1.182589e+02   2.626618e+02
  -9.970312e+01   3.456531e+02
  -4.043911e+02   4.591443e+01
  -4.751828e+02  -3.385712e+02
  -1.714393e+02  -4.575284e+02
   2.613613e+02  -2.673871e+02
   4.771289e+02   2.843477e+01
   3.466536e+02   2.063483e+02
   2.458632e+00   2.200121e+02
  -2.486336e+02   9.919185e+01
  -2.253940e+02   3.231535e+00
  -3.549338e+01  -1.666532e+01
   4.434687e+01   1.357676e+01
  -7.606679e+01   3.684250e+01
  -2.082281e+02  -1.749911e+01
  -1.334740e+02  -1.633504e+02
   1.346326e+02  -2.508217e+02
   3.487844e+02  -1.493141e+02
   3.005315e+02   1.040456e+02
  -7.673782e+00   3.410353e+02
  -3.195064e+02   3.832892e+02
  -3.865644e+02   1.566926e+02
  -2.254883e+02  -1.675240e+02
  -3.904943e+01  -3.407769e+02
   1.090789e+01  -3.002797e+02
  -2.547290e+00  -1.807309e+02
   3.394539e+01  -1.290375e+02
   1.544602e+02  -1.231560e+02
   2.524444e+02  -4.158659e+01
   2.277994e+02   1.289462e+02
   7.299101e+01   2.493126e+02
  -1.012117e+02   1.770875e+02
  -1.838664e+02  -4.636363e+01
  -1.260622e+02  -2.506998e+02
   5.206774e+01  -2.439728e+02
   2.390118e+02  -5.909227e+01
   2.928447e+02   1.616299e+02
   1.631805e+02   2.693385e+02
  -2.671568e+01   2.414028e+02
  -1.333399e+02   1.578168e+02
  -1.386985e+02   1.007921e+02
  -1.706926e+02   7.389969e+01
  -2.787028e+02   1.475318e+01
  -3.812077e+02  -1.162362e+02
  -2.795397e+02  -2.887781e+02
   3.508629e+01  -4.035097e+02
   3.610512e+02  -3.695475e+02
   4.382609e+02  -1.705376e+02
   2.649941e+02   7.986952e+01
   2.358136e+01   2.302915e+02
  -7.053065e+01   1.774393e+02
   1.096297e-01   4.280543e+01
   1.037304e+02  -2.340754e+01
   1.060181e+02   3.152503e+01
   1.708146e+00   1.127810e+02
  -1.130381e+02   7.068348e+01
  -8.631567e+01  -3.921556e+01
   3.476648e+01  -1.147259e+02
   1.482636e+02   8.774905e+00
   1.440689e+02   2.285689e+02
  -7.475642e+00   3.353760e+02
  -2.291630e+02   2.196097e+02
  -3.549608e+02  -4.623592e+01
  -2.883087e+02  -2.544923e+02
  -6.691378e+01  -2.746097e+02
   1.227317e+02  -1.385552e+02
   1.475039e+02  -7.476526e+00
   3.338044e+01   9.038247e+00
  -4.900196e+01  -6.505672e+01
   5.558987e+00  -1.113253e+02
   1.175466e+02  -6.170443e+01
   1.410824e+02   2.613219e+01
   2.046729e+01   4.670830e+01
  -8.603427e+01  -1.903425e+01
  -3.201118e+01  -9.632686e+01
   1.577212e+02  -8.917844e+01
   3.131416e+02   2.253898e+01
   2.556848e+02   1.763288e+02
   2.155907e+01   2.685888e+02
  -2.113879e+02   2.327811e+02
  -2.704693e+02   9.002193e+01
  -1.362533e+02  -4.775874e+01
   2.798750e+01  -7.617002e+01
   5.962512e+01   6.778273e+00
  -5.377386e+01   7.673694e+01
  -1.831565e+02   3.053244e+01
  -1.828823e+02  -9.752940e+01
  -5.208346e+01  -1.802615e+02
   8.681254e+01  -1.303255e+02
   1.194269e+02  -1.821760e+01
   3.951715e+01   3.464094e+01
  -4.774913e+01  -2.832255e+01
  -2.410177e+01  -1.168879e+02
   1.058246e+02  -1.228169e+02
   2.164178e+02  -1.021828e+01
   1.789927e+02   1.360677e+02
   8.699489e+00   2.036113e+02
  -1.496127e+02   1.477549e+02
  -1.645693e+02   1.618728e+01
  -5.244747e+01  -8.607493e+01
   5.773961e+01  -8.662699e+01
   6.542859e+01  -1.904886e+01
  -5.297529e+00   2.621087e+01
  -4.258223e+01   5.287731e+00
   8.092949e+00  -2.972122e+01
   8.966934e+01  -3.547297e+00
   1.080391e+02   9.399752e+01
   1.033357e+01   1.795920e+02
  -1.439650e+02   1.532210e+02
  -2.376226e+02   7.751541e+00
  -1.894462e+02  -1.542323e+02
  -3.851531e+01  -2.158867e+02
   9.406232e+01  -1.521019e+02
   1.216785e+02  -3.311745e+01
   7.209615e+01   3.868538e+01
   3.496323e+01   2.711597e+01
   5.378545e+01  -9.436353e+00
   8.711618e+01  -1.065802e+01
   6.350786e+01   5.642410e+01
  -3.579915e+01   1.175824e+02
  -1.304446e+02   7.539632e+01
  -1.172913e+02  -4.286419e+01
   1.644707e+01  -1.356204e+02
   1.674725e+02  -9.509833e+01
   2.094431e+02   6.674550e+01
   8.635563e+01   2.173204e+02
  -1.301143e+02   2.215151e+02
  -2.748380e+02   5.757748e+01
  -2.370323e+02  -8.942279e+01
  -9.369046e+01  -1.670376e+02
   3.418631e+01  -1.345128e+02
   7.884418e+01  -7.625508e+01
   6.275030e+01  -7.098372e+01
   5.288742e+01  -9.607394e+01
   8.422258e+01  -8.151635e+01
   1.295208e+02   1.402220e+01
   1.223841e+02   1.426856e+02
   3.433694e+01   2.131986e+02
  -9.060289e+01   1.620406e+02
  -1.610570e+02   1.237242e+01
  -1.226776e+02  -1.231280e+02
  -8.248063e+00  -1.525094e+02
   8.093653e+01  -7.684432e+01
   6.961812e+01   1.903320e+01
  -4.328011e+00   5.850415e+01
  -3.288786e+01   4.020242e+01
   2.313384e+01   1.235100e+01
   8.395210e+01   1.827037e+01
   5.029670e+01   4.212081e+01
  -7.496010e+01   4.141230e+01
  -1.753012e+02  -2.730753e+00
  -1.435747e+02  -6.935428e+01
   2.234940e+00  -1.024638e+02
   1.366767e+02  -7.653140e+01
   1.449496e+02  -4.341776e+00
   4.755110e+01   5.340449e+01
  -5.557790e+01   4.993359e+01
  -7.478428e+01  -1.757308e+01
  -2.535337e+01  -7.473329e+01
   4.115924e+01  -6.930761e+01
   6.845885e+01  -7.313028e+00
   6.215971e+01   4.576186e+01
   5.112871e+01   4.122836e+01
   5.666742e+01   1.305742e+00
   6.596238e+01   4.709623e+00
   4.946926e+01   7.619604e+01
  -1.679942e+01   1.574783e+02
  -1.207713e+02   1.534584e+02
  -1.797699e+02   4.217938e+01
  -1.365971e+02  -9.050818e+01
  -8.977197e+00  -1.344109e+02
   8.864303e+01  -7.523902e+01
   6.279430e+01   7.596164e+00
  -5.558245e+01   2.178043e+01
  -1.313408e+02  -3.791500e+01
  -7.104431e+01  -1.077011e+02
   8.277947e+01  -1.167370e+02
   1.900704e+02  -5.229505e+01
   1.584839e+02   3.630074e+01
   3.221174e+01   8.477695e+01
  -6.359666e+01   5.948148e+01
  -4.845985e+01  -2.995585e-01
   3.996523e+01  -3.397996e+01
   9.472778e+01   1.128661e+01
   4.784953e+01   1.085822e+02
  -6.603105e+01   1.596075e+02
  -1.508696e+02   8.184084e+01
  -1.270706e+02  -8.123805e+01
  -2.008732e+01  -1.903087e+02
   8.362811e+01  -1.430904e+02
   1.055120e+02   1.103366e+01
   5.508053e+01   1.203933e+02
  -1.847210e+01   1.056922e+02
  -5.316221e+01   1.550791e+01
  -4.849927e+01  -3.232742e+01
  -1.945695e+01  -1.037147e+01
  -9.102787e+00   1.307931e+01
  -3.164711e+01  -2.290241e+01
  -5.497148e+01  -8.568983e+01
  -2.670774e+01  -9.921767e+01
   5.757662e+01  -4.342960e+01
   1.319229e+02   3.039784e+01
   1.199006e+02   6.711372e+01
   1.816660e+01   5.607204e+01
  -7.431704e+01   2.933441e+01
  -8.315400e+01   4.710676e+00
  -2.060585e+01  -1.490290e+01
   3.151965e+01  -2.190061e+01
   2.072063e+01  -1.321758e+01
  -1.085469e+01   2.277507e+00
   1.226785e+00   2.974875e+00
   6.327771e+01  -2.947855e+00
   9.304567e+01   2.106586e+01
   3.073332e+01   7.792942e+01
  -9.736436e+01   1.183102e+02
  -1.835141e+02   6.856696e+01
  -1.533317e+02  -5.445086e+01
  -3.244166e+01  -1.552742e+02
   7.852246e+01  -1.550445e+02
   1.122560e+02  -6.774741e+01
   7.708029e+01   1.774345e+01
   2.838815e+01   3.602258e+01
   6.507411e+00   1.463721e+01
   1.712658e+01   9.255942e+00
   3.103807e+01   4.641770e+01
   2.002486e+01   9.091736e+01
  -2.538914e+01   7.273140e+01
  -7.597769e+01  -7.567010e+00
  -8.033840e+01  -9.024547e+01
  -2.255942e+01  -1.072775e+02
   6.957979e+01  -3.770112e+01
   1.080444e+02   5.530564e+01
   4.829272e+01   1.006497e+02
  -5.888257e+01   7.008722e+01
  -1.078445e+02   3.744888e-01
  -5.214849e+01  -5.526912e+01
   2.958007e+01  -6.496200e+01
   4.132092e+01  -2.981381e+01
  -2.257101e+01   8.761151e+00
  -6.789007e+01   1.111308e+01
  -2.073836e+01  -2.806524e+01
   7.535462e+01  -6.761410e+01
   1.221522e+02  -5.337693e+01
   7.313547e+01   1.953617e+01
  -1.197233e+01   8.827599e+01
  -6.087996e+01   8.801692e+01
  -5.024164e+01   1.612681e+01
  -1.193538e+01  -5.141804e+01
   2.330765e+01  -5.233338e+01
   3.820983e+01   6.532615e+00
   2.985639e+01   5.352938e+01
   1.015818e-01   4.521691e+01
  -3.512481e+01  -2.587073e+00
  -4.483409e+01  -2.626070e+01
  -2.164435e+01  -8.496590e+00
   5.764196e+00   1.956885e+01
   7.977351e+00   1.242374e+01
  -8.968548e+00  -2.745903e+01
  -8.496472e+00  -5.391341e+01
   2.253815e+01  -2.967384e+01
   4.536087e+01   2.589468e+01
   2.172040e+01   5.772780e+01
  -3.508597e+01   3.049803e+01
  -6.455730e+01  -2.434554e+01
  -2.467087e+01  -5.659686e+01
   5.319290e+01  -3.993728e+01
   9.194287e+01   4.490106e+00
   5.421115e+01   3.897408e+01
  -2.293643e+01   4.776538e+01
  -6.059285e+01   3.274924e+01
  -3.087291e+01   9.529230e+00
   2.123076e+01  -5.100383e+00
   3.024119e+01   2.264193e+00
  -1.758445e+01   2.288666e+01
  -6.807558e+01   2.501065e+01
