
 $NMID
 id='ANONYMOUS ', fmtdat='(2E16.6)'
 volume=1.0
 tramp=1.0
 $END
   2.837269e+03  -3.556272e+02
   2.313940e+03   1.141846e+03
   2.864019e+02   2.006564e+03
  -9.992747e+02   1.549020e+03
  -1.043427e+03   4.740242e+02
  -2.561307e+02  -1.401722e+02
   2.922523e+02  -5.396253e+01
   1.556296e+02   3.878109e+02
  -2.766444e+02   5.704299e+02
  -5.794802e+02   2.003158e+02
  -5.381691e+02  -3.705960e+02
  -1.348592e+02  -6.218839e+02
   2.120478e+02  -2.734433e+02
   2.590252e+02   3.174960e+02
  -7.417132e+01   4.798674e+02
  -3.509567e+02   1.637723e+02
  -3.412773e+02  -3.994648e+02
   1.419244e+01  -6.412302e+02
   4.194758e+02  -3.617050e+02
   4.644801e+02   1.185696e+02
   1.717641e+02   3.522443e+02
  -8.369331e+01   2.569002e+02
  -5.639168e+01   8.292315e+01
   1.797996e+02   1.289147e+02
   2.512651e+02   2.972885e+02
  -1.924876e+01   3.445607e+02
  -4.420934e+02   1.480949e+02
  -5.694874e+02  -1.307078e+02
  -2.264523e+02  -3.085721e+02
   2.634456e+02  -1.641031e+02
   4.433569e+02   1.111186e+02
   1.910414e+02   3.145991e+02
  -2.192935e+02   3.196631e+02
  -4.143215e+02   1.451983e+02
  -3.147482e+02  -1.232062e+02
  -1.028565e+02  -2.720895e+02
  -7.840410e-01  -1.791892e+02
  -4.911368e+01   5.288821e+01
  -1.654811e+02   1.210191e+02
  -1.704440e+02  -1.278905e+02
  -1.972940e+01  -4.153120e+02
   2.271187e+02  -3.927791e+02
   2.791170e+02  -4.108389e+01
   1.071851e+02   2.398451e+02
  -1.136345e+02   1.166695e+02
  -1.527361e+02  -2.213081e+02
   8.043829e+01  -3.512043e+02
   3.885428e+02  -1.003323e+02
   4.638882e+02   3.124356e+02
   1.978698e+02   4.453540e+02
  -2.488417e+02   2.850200e+02
  -4.850454e+02  -8.841065e+00
  -3.516775e+02  -2.050270e+02
  -1.379106e+01  -2.192709e+02
   2.409169e+02  -1.223317e+02
   2.253281e+02  -1.519069e+01
   5.318911e+01   1.138275e+01
  -3.655335e+01  -1.313200e+01
   6.060089e+01  -3.561097e+01
   1.948558e+02   1.168418e+01
   1.334155e+02   1.482986e+02
  -1.135468e+02   2.495519e+02
  -3.252471e+02   1.666090e+02
  -2.760050e+02  -9.146333e+01
  -4.112236e+00  -3.432161e+02
   2.974447e+02  -3.704986e+02
   3.834280e+02  -1.496234e+02
   2.239960e+02   1.574562e+02
   4.145820e+01   3.213533e+02
  -1.028692e+01   2.736055e+02
  -1.780654e+00   1.734486e+02
  -3.068719e+01   1.429575e+02
  -1.524013e+02   1.353840e+02
  -2.519341e+02   4.453114e+01
  -2.321059e+02  -1.314708e+02
  -8.355204e+01  -2.473399e+02
   8.851845e+01  -1.790556e+02
   1.781318e+02   3.440158e+01
   1.308220e+02   2.261331e+02
  -3.763655e+01   2.408378e+02
  -2.329110e+02   6.850864e+01
  -3.089498e+02  -1.465154e+02
  -1.843211e+02  -2.712826e+02
   1.375161e+01  -2.601140e+02
   1.396089e+02  -1.783504e+02
   1.396583e+02  -1.144674e+02
   1.547895e+02  -8.215694e+01
   2.838604e+02  -4.108889e+01
   4.018903e+02   8.818968e+01
   3.247767e+02   2.738620e+02
   7.109826e-01   4.152945e+02
  -3.310315e+02   3.917907e+02
  -4.384825e+02   1.993704e+02
  -2.760824e+02  -7.010311e+01
  -3.303579e+01  -2.219753e+02
   6.152771e+01  -1.765516e+02
  -1.005904e+01  -4.212783e+01
  -1.134323e+02   1.908933e+01
  -1.086944e+02  -4.791366e+01
  -2.441164e+00  -1.239568e+02
   1.111227e+02  -6.537771e+01
   8.970686e+01   4.563861e+01
  -1.197528e+01   1.186450e+02
  -1.483400e+02   2.913877e+00
  -1.553500e+02  -2.160803e+02
  -4.508777e+00  -3.328227e+02
   2.249092e+02  -2.326123e+02
   3.660199e+02   2.553152e+01
   3.000998e+02   2.480714e+02
   6.847510e+01   2.761399e+02
  -1.260076e+02   1.435067e+02
  -1.460688e+02   2.394048e+00
  -2.715122e+01  -1.548376e+01
   4.765596e+01   6.408535e+01
  -6.823791e+00   1.117145e+02
  -1.184213e+02   6.325182e+01
  -1.399618e+02  -2.934546e+01
  -2.851095e+01  -5.390400e+01
   8.106736e+01   7.929146e+00
   4.229103e+01   9.139628e+01
  -1.388175e+02   9.077864e+01
  -2.930711e+02  -1.274385e+01
  -2.568483e+02  -1.644144e+02
  -2.851392e+01  -2.591579e+02
   2.041616e+02  -2.261676e+02
   2.586106e+02  -8.860196e+01
   1.275019e+02   4.549710e+01
  -2.895805e+01   7.175073e+01
  -5.864142e+01  -5.789045e+00
   5.006770e+01  -7.880685e+01
   1.763969e+02  -3.254884e+01
   1.859644e+02   9.286683e+01
   6.426509e+01   1.805469e+02
  -7.621489e+01   1.347056e+02
  -1.153385e+02   2.206542e+01
  -3.989512e+01  -3.349189e+01
   4.774916e+01   2.286927e+01
   2.933598e+01   1.163545e+02
  -9.921983e+01   1.268995e+02
  -2.106390e+02   1.771066e+01
  -1.818115e+02  -1.290373e+02
  -1.705632e+01  -2.026553e+02
   1.460334e+02  -1.474223e+02
   1.672559e+02  -2.019380e+01
   5.731007e+01   8.595317e+01
  -5.314895e+01   9.098379e+01
  -6.516664e+01   2.520413e+01
   9.546738e-01  -2.354330e+01
   3.819338e+01  -6.732260e+00
  -7.139885e+00   2.828758e+01
  -8.902916e+01   7.015087e+00
  -1.115221e+02  -8.977842e+01
  -1.681491e+01  -1.779309e+02
   1.380219e+02  -1.601630e+02
   2.329075e+02  -1.750917e+01
   1.908564e+02   1.477389e+02
   5.077193e+01   2.154356e+02
  -8.590705e+01   1.582859e+02
  -1.207433e+02   4.018693e+01
  -7.553190e+01  -3.406383e+01
  -3.746620e+01  -2.685893e+01
  -5.439853e+01   8.553596e+00
  -8.936968e+01   9.007208e+00
  -6.342160e+01  -5.750847e+01
   2.892631e+01  -1.150279e+02
   1.275914e+02  -7.514292e+01
   1.206374e+02   4.488772e+01
  -9.069764e+00   1.397014e+02
  -1.669543e+02   1.075053e+02
  -2.178998e+02  -5.167672e+01
  -1.014275e+02  -2.122827e+02
   1.080700e+02  -2.294043e+02
   2.593112e+02  -7.279467e+01
   2.409416e+02   7.211638e+01
   1.031283e+02   1.517858e+02
  -3.204153e+01   1.351981e+02
  -7.828484e+01   8.112150e+01
  -6.267673e+01   7.024646e+01
  -4.905431e+01   9.238103e+01
  -8.207735e+01   8.327442e+01
  -1.298592e+02  -4.915970e+00
  -1.284859e+02  -1.362246e+02
  -4.262989e+01  -2.123289e+02
   8.816147e+01  -1.695789e+02
   1.628626e+02  -2.366045e+01
   1.265399e+02   1.168138e+02
   1.178938e+01   1.489682e+02
  -7.493011e+01   7.766676e+01
  -6.447793e+01  -1.646166e+01
   3.780268e+00  -5.766963e+01
   3.224884e+01  -3.720828e+01
  -1.884487e+01  -8.089726e+00
  -8.275354e+01  -1.509765e+01
  -5.181766e+01  -4.257987e+01
   7.372502e+01  -4.608763e+01
   1.759246e+02  -1.679320e-01
   1.477913e+02   6.559207e+01
  -4.559067e-01   1.036175e+02
  -1.324412e+02   8.104757e+01
  -1.452704e+02   9.929525e+00
  -4.701034e+01  -5.443781e+01
   5.535863e+01  -4.882727e+01
   7.445949e+01   2.168602e+01
   2.827675e+01   7.492489e+01
  -4.033940e+01   7.151250e+01
  -6.985975e+01   7.089782e+00
  -6.450115e+01  -4.912797e+01
  -4.711287e+01  -4.836871e+01
  -4.503564e+01  -5.232241e+00
  -5.730146e+01   3.980951e-01
  -4.886165e+01  -6.619556e+01
   1.332733e+01  -1.513275e+02
   1.194227e+02  -1.517001e+02
   1.837860e+02  -4.601115e+01
   1.379398e+02   9.029848e+01
   8.271300e+00   1.379557e+02
  -8.995589e+01   7.657870e+01
  -6.544659e+01  -8.239561e+00
   5.248782e+01  -2.415275e+01
   1.300741e+02   3.701003e+01
   7.342662e+01   1.035555e+02
  -7.919203e+01   1.094126e+02
  -1.840600e+02   4.839484e+01
  -1.513035e+02  -3.688106e+01
  -3.051433e+01  -7.939419e+01
   6.005905e+01  -5.703941e+01
   4.758283e+01   5.658981e+00
  -3.866832e+01   3.468440e+01
  -9.690728e+01  -1.306222e+01
  -5.351087e+01  -1.096484e+02
   6.156759e+01  -1.583725e+02
   1.511508e+02  -8.441146e+01
   1.327986e+02   7.420413e+01
   2.810060e+01   1.818988e+02
  -7.421107e+01   1.363755e+02
  -1.032274e+02  -1.001929e+01
  -5.365999e+01  -1.156704e+02
   1.686776e+01  -9.834458e+01
   5.366082e+01  -1.272532e+01
   4.188244e+01   3.343849e+01
   1.047441e+01   8.648157e+00
   2.587327e+00  -1.584018e+01
   3.401336e+01   1.786704e+01
   6.486871e+01   8.395512e+01
   3.834183e+01   1.023038e+02
  -5.328272e+01   4.975063e+01
  -1.352953e+02  -2.571670e+01
  -1.232038e+02  -6.248634e+01
  -2.485955e+01  -5.860076e+01
   7.183876e+01  -3.280845e+01
   8.133522e+01  -8.347544e+00
   2.019100e+01   1.251960e+01
  -3.089088e+01   1.999365e+01
  -2.074106e+01   9.423023e+00
   1.249248e+01  -7.410971e+00
   2.468886e+00  -4.277497e+00
  -5.618515e+01   6.118243e+00
  -9.028144e+01  -1.458260e+01
  -3.565163e+01  -7.826171e+01
   8.943659e+01  -1.211779e+02
   1.795235e+02  -7.866876e+01
   1.593988e+02   4.354786e+01
   4.465668e+01   1.524332e+02
  -7.146265e+01   1.581504e+02
  -1.143189e+02   7.319051e+01
  -8.274878e+01  -1.449362e+01
  -3.120009e+01  -3.791222e+01
  -3.959782e+00  -1.443121e+01
  -1.158605e+01  -8.305400e+00
  -2.556512e+01  -4.686422e+01
  -1.815632e+01  -8.866969e+01
   2.351657e+01  -7.381785e+01
   7.811434e+01   5.762310e+00
   8.696388e+01   9.077550e+01
   2.304157e+01   1.080982e+02
  -7.099371e+01   4.128247e+01
  -1.131399e+02  -5.362578e+01
  -5.034370e+01  -1.015064e+02
   5.845007e+01  -7.425174e+01
   1.061477e+02  -2.131327e+00
   5.345542e+01   5.769536e+01
  -2.843499e+01   6.844641e+01
  -4.193328e+01   3.312822e+01
   1.945911e+01  -1.048677e+01
   6.650235e+01  -1.308987e+01
   2.329111e+01   2.596929e+01
  -7.473059e+01   6.701986e+01
  -1.234689e+02   5.101402e+01
  -7.233357e+01  -1.621489e+01
   1.093902e+01  -8.506908e+01
   5.824523e+01  -8.500275e+01
   4.767689e+01  -1.669723e+01
   1.311689e+01   5.063636e+01
  -2.029926e+01   5.167094e+01
  -3.724700e+01  -3.458339e+00
  -3.241502e+01  -5.063932e+01
  -2.152879e+00  -4.316542e+01
   3.249665e+01   1.458014e+00
   4.289370e+01   2.582036e+01
   2.005418e+01   5.725714e+00
  -6.589499e+00  -2.195021e+01
  -6.199958e+00  -1.323842e+01
   1.267392e+01   2.848079e+01
   1.054659e+01   5.562605e+01
  -2.399424e+01   3.104118e+01
  -5.042717e+01  -2.623193e+01
  -2.387996e+01  -5.837354e+01
   3.665895e+01  -3.236029e+01
   6.876664e+01   2.644110e+01
   2.862766e+01   5.858810e+01
  -5.381775e+01   4.286236e+01
  -9.387240e+01  -3.047521e+00
  -5.493535e+01  -4.018469e+01
   2.223626e+01  -4.948954e+01
   6.126612e+01  -3.438939e+01
   2.962924e+01  -8.116357e+00
  -2.247563e+01   6.548456e+00
  -3.217511e+01  -2.479252e+00
   1.549358e+01  -2.660431e+01
   7.051550e+01  -2.793199e+01
