
 $NMID
 id='ANONYMOUS ', fmtdat='(2E16.6)'
 volume=1.0
 tramp=1.0
 $END
   6.682526e+02  -6.070702e+02
   4.618164e+02   1.723690e+01
   2.141108e+02   1.506614e+02
   5.105080e+01   2.621851e+02
  -7.914929e+01   1.983600e+02
   6.592411e+00  -5.400552e+00
   3.730857e+01  -5.200309e+01
   7.244749e+01  -1.475180e+01
   7.349933e+01   1.003900e+02
  -2.001382e+01   1.206925e+02
  -6.489082e+01   4.818049e+01
  -1.029252e+02  -5.917802e+01
  -1.512814e+01  -7.347200e+01
   9.451979e+01  -2.750839e+00
   4.948891e+01   4.077373e+01
  -1.628449e+01   8.612659e+01
  -1.056425e+02   2.574894e+01
  -1.074508e+02  -5.528946e+01
  -9.360038e+00  -9.033251e+01
   6.914267e+01  -5.441448e+01
   6.571737e+01  -1.824678e+01
   2.727276e+01   5.556140e+01
   1.028499e+00   4.864241e+01
  -3.869358e+00   4.518022e+00
   3.962639e+01  -3.453456e+01
   5.541403e+01   1.361219e+00
   1.235875e+01   6.557148e+01
  -5.990188e+01   1.141808e+02
  -9.564346e+01   3.800256e+01
  -4.502261e+01  -5.951372e+01
   3.150379e+01  -9.416248e+01
   6.440866e+01  -4.594381e+01
   6.412446e+01   4.373038e+01
   2.542005e+01   8.698810e+01
  -4.251270e+01   7.689426e+01
  -7.320036e+01   5.394811e+00
  -4.568261e+01  -4.421887e+01
   6.615976e+00  -3.773711e+01
   2.952896e+01   2.493550e+01
  -1.483717e+01   5.287202e+01
  -8.171367e+01   9.972076e+00
  -7.824458e+01  -6.844077e+01
   7.602879e+00  -8.044413e+01
   7.726730e+01  -8.716557e+00
   3.703740e+01   4.309110e+01
  -4.691568e+01   2.723826e+01
  -7.082525e+01  -4.048532e+01
  -8.760059e+00  -8.633094e+01
   6.438414e+01  -5.585848e+01
   8.777157e+01   5.185928e+00
   4.494488e+01   4.698964e+01
  -1.726075e+01   5.462590e+01
  -5.547973e+01   3.961636e+01
  -3.134833e+01  -1.275816e+01
   5.919171e+00  -4.876918e+01
   2.902679e+01  -2.785694e+01
   1.268977e+01   9.944065e+00
  -1.765128e+01   1.687894e+01
  -1.137596e+01  -3.310331e+01
   3.005540e+01  -6.111068e+01
   6.278077e+01  -2.036994e+01
   3.114328e+01   3.544492e+01
  -5.447785e+00   7.165763e+01
  -2.343246e+01   4.054412e+01
  -2.370007e+01  -1.247645e+01
  -1.833419e+01  -5.364529e+01
  -4.357646e+00  -5.782657e+01
   2.127783e+01  -2.267117e+01
   4.628204e+01   2.012038e+01
   4.398039e+01   4.731661e+01
   2.314519e+01   2.430196e+01
   1.091438e+01   3.160884e+00
   1.250675e+01   1.461297e+01
   4.193095e+00   4.540378e+01
  -2.538544e+01   4.403334e+01
  -5.143399e+01   1.201952e+01
  -4.379082e+01  -1.910337e+01
   5.489759e+00  -2.933556e+01
   4.065262e+01  -1.983507e+01
   3.714761e+01   1.121054e+01
   5.323712e+00   3.787897e+01
  -3.981438e+01   3.434926e+01
  -5.095434e+01  -3.036203e+00
  -2.861067e+01  -2.750443e+01
   1.650551e-01  -3.525357e+01
   9.578267e+00  -2.126973e+01
  -3.539897e+00  -1.315278e+01
   4.621873e+00  -2.209667e+01
   3.116030e+01  -4.273086e+01
   5.576931e+01  -3.116510e+01
   4.541681e+01   1.296277e+01
   2.908631e+01   6.927727e+01
   1.893641e+00   8.498045e+01
  -2.200023e+01   5.221204e+01
  -4.061510e+01  -4.017663e+00
  -3.298715e+01  -3.391423e+01
  -1.050518e+01  -2.302237e+01
  -5.092432e+00   1.483083e+01
  -1.483735e+01   2.557660e+01
  -2.620529e+01  -2.749226e+00
  -6.027876e+00  -1.534067e+01
   1.900518e+01  -2.210921e+01
   1.912237e+01  -6.343693e-02
  -7.102799e+00   2.309295e+01
  -5.290832e+01   8.919193e+00
  -6.089908e+01  -2.171829e+01
  -2.061186e+01  -4.762711e+01
   2.388513e+01  -5.181729e+01
   4.897461e+01  -2.618241e+01
   5.150180e+01  -4.748464e+00
   2.457708e+01   2.742657e+01
  -7.073924e+00   3.166554e+01
  -1.000097e+01   1.279414e+01
   5.608515e+00  -6.656081e+00
   1.691523e+01  -6.322747e-01
   7.445762e+00   1.847143e+01
  -7.603848e+00   2.440280e+01
  -1.490241e+01   1.115803e+01
  -2.455249e+00  -5.260791e+00
   1.107456e+01  -7.406232e+00
   1.124313e+01   1.072531e+01
  -1.144302e+01   3.895978e+01
  -3.444885e+01   4.039751e+01
  -4.542702e+01   3.034700e+00
  -3.002929e+01  -4.154009e+01
  -4.594246e-01  -5.194530e+01
   1.579212e+01  -2.946217e+01
   1.334101e+01   4.164381e+00
  -1.487349e+00   1.398627e+01
  -1.065136e+01  -8.410221e+00
   4.874527e+00  -2.736007e+01
   2.852270e+01  -1.924741e+01
   3.546148e+01   2.857266e+00
   1.602906e+01   2.113399e+01
  -2.984974e+00   2.228387e+01
  -1.117128e+01   1.083390e+01
  -1.393935e+00  -9.740975e-01
   1.348648e+01  -2.059615e+00
   1.582163e+01   1.113923e+01
   1.038351e+00   2.881198e+01
  -2.574868e+01   2.787282e+01
  -3.703318e+01   2.157497e+00
  -2.207986e+01  -2.865640e+01
   3.948442e+00  -3.149473e+01
   1.520325e+01  -9.059259e+00
   8.419051e+00   1.224817e+01
  -9.009124e-01   1.244398e+01
   2.275537e-01  -1.587751e+00
   5.267703e-01  -6.122293e+00
   4.371989e+00  -1.339529e+00
  -8.263392e-01   7.677440e+00
  -1.339484e+01   1.054062e+01
  -2.342550e+01   2.231230e+00
  -1.952345e+01  -1.971231e+01
   1.532003e+00  -3.373748e+01
   2.349112e+01  -3.089033e+01
   3.465136e+01  -1.574635e+00
   2.503720e+01   2.001583e+01
   6.411347e-01   2.246330e+01
  -8.925661e+00   9.786439e+00
  -4.638245e+00   3.117933e+00
  -6.889798e-01   3.784758e+00
  -3.168602e+00   1.364039e+01
  -7.636111e+00   7.496129e+00
  -5.500970e+00  -5.461153e-01
  -3.010769e+00  -1.522664e+01
   5.935359e+00  -9.035404e+00
   1.028029e+01   5.546103e+00
   1.650264e+00   2.059373e+01
  -1.756615e+01   2.093151e+01
  -3.185776e+01   2.542400e+00
  -2.029572e+01  -2.994619e+01
   9.275298e+00  -2.095625e+01
   3.008757e+01  -3.007859e+01
   3.424219e+01  -7.010342e+00
   2.054492e+01   1.117561e+01
   9.316463e+00   2.018262e+01
   5.062572e+00   2.084628e+01
   7.815687e+00   1.928794e+01
   7.243117e+00   1.829256e+01
  -7.039720e+00   1.797188e+01
  -2.265756e+01   1.043760e+01
  -3.455117e+01  -3.570370e+00
  -2.501965e+01  -2.179761e+01
   3.398892e+00  -2.802966e+01
   2.547554e+01  -1.717210e+01
   2.680774e+01   2.200038e+00
   1.588924e+01   1.230375e+01
   2.815761e+00   9.823628e+00
  -6.569599e+00   1.402574e-01
  -7.744692e+00  -2.859267e+00
  -6.793041e+00   4.054310e+00
  -1.099553e+01   9.332170e+00
  -9.096514e+00   6.249281e+00
   9.443692e-01  -6.639027e+00
   1.044397e+01  -2.404843e+01
   1.684914e+01  -2.621053e+01
   1.445896e+01  -5.387239e+00
   5.456072e+00   2.111490e+01
  -3.042698e+00   2.905818e+01
  -8.193279e+00   1.176390e+01
  -5.322919e+00  -8.017189e+00
  -2.920036e+00  -7.006946e+00
   9.987815e+00  -1.791441e+00
   6.996924e+00   7.803496e+00
  -7.296687e-01   1.010723e+01
  -1.200048e+01   8.474353e+00
  -1.437229e+01   5.270199e+00
  -7.177615e+00   5.500791e+00
  -1.341293e+00   4.542610e+00
  -7.388577e+00  -2.960825e-01
  -1.700464e+01  -1.138312e+01
  -1.038370e+01  -1.592785e+01
   2.239182e+00  -2.030176e+01
   1.542783e+01  -1.277512e+01
   1.281842e+01   2.899217e+00
   3.324390e+00   1.414570e+01
  -2.311567e+00   9.064675e+00
   4.168773e+00  -7.718267e+00
   1.440634e+01  -1.583309e+01
   1.687082e+01  -5.335823e+00
   6.870259e+00   1.619923e+01
  -6.527479e+00   2.778308e+01
  -1.334743e+01   2.040622e+01
  -1.116607e+01   1.377501e-01
  -4.153609e+00  -1.296471e+01
   2.597524e+00  -6.893284e+00
   2.470622e+00   8.477530e+00
  -8.523639e+00   1.393352e+01
  -2.094910e+01  -5.819349e-02
  -2.042142e+01  -1.951524e+01
   2.433294e+00  -2.373605e+01
   1.858710e+01  -1.383719e+01
   2.614335e+01   9.805091e+00
   1.305799e+01   2.133345e+01
  -5.334473e+00   1.368619e+01
  -1.689247e+01   1.395029e+00
  -1.193049e+01  -6.918673e+00
  -1.011243e+00  -5.065763e+00
   6.346006e+00  -3.626948e+00
  -1.563531e+00  -1.590091e+00
  -4.792806e+00  -7.696332e-01
   3.922307e+00  -4.073029e-01
   1.684820e+01  -3.393956e+00
   1.472025e+01  -1.471794e+00
   4.722062e-01   3.185731e+00
  -1.449123e+01   1.671358e+01
  -1.453603e+01   1.752684e+01
  -3.343079e+00   4.410861e+00
   2.323442e+00  -1.083810e+01
   4.534983e+00  -1.070987e+01
  -9.402796e-01  -6.362097e-01
  -1.539747e+00   7.748593e+00
   8.585209e-01   2.622434e+00
   1.898060e+00  -4.484624e+00
  -1.779230e+00   5.504931e-01
  -7.382905e+00   1.107767e+01
  -1.144603e+01   1.142320e+01
  -1.165195e+01  -2.234897e+00
  -5.923792e+00  -1.986582e+01
   6.841721e+00  -2.266527e+01
   1.572470e+01  -1.251097e+01
   1.571177e+01   7.622053e+00
   6.047937e+00   1.890783e+01
  -2.029367e+00   1.702288e+01
  -5.070507e+00   9.094988e+00
  -3.454947e+00   8.514532e-01
   5.258695e-01  -1.377612e+00
  -1.657988e+00  -1.560991e+00
  -1.173669e+01   1.896435e+00
  -1.439108e+01  -4.225286e+00
  -8.283089e+00  -6.680087e+00
   7.347985e+00  -8.614572e+00
   1.900605e+01  -2.569845e+00
   1.673073e+01   2.949139e+00
   2.823659e+00   9.713541e+00
  -1.488012e+01   7.614352e+00
  -1.898151e+01   1.260288e+00
  -6.532521e+00  -1.082312e+01
   5.099603e+00  -1.241397e+01
   8.822317e+00  -4.105984e+00
   5.463670e+00   7.621407e+00
   2.476828e+00   6.830676e+00
   5.036931e+00  -5.347322e+00
   4.737353e+00  -1.150625e+01
   4.961185e+00  -2.757870e+00
  -5.488240e-01   1.585935e+01
  -5.447607e+00   2.070315e+01
  -4.711313e+00   1.014678e+01
  -6.842021e+00  -6.869777e+00
  -5.635258e+00  -1.156699e+01
  -8.071361e-01  -7.332305e+00
   6.305788e+00   7.738492e-01
   5.943292e+00   7.306561e+00
  -2.803643e+00   6.295812e+00
  -1.026412e+01   2.943718e+00
  -8.217139e+00  -1.121773e+00
  -1.353895e-01  -4.802063e+00
   4.552206e+00  -6.580890e+00
   3.641497e+00  -6.176940e+00
  -3.428795e-01  -1.876496e+00
  -7.712857e-01   3.242316e+00
   3.344325e+00   5.900671e+00
   3.336363e+00   4.145015e+00
  -1.824171e+00   1.508599e+00
  -7.079369e+00  -1.083202e+00
  -6.588188e+00  -3.109547e+00
  -2.467691e-01  -5.365707e+00
   6.607444e+00  -3.606541e+00
   8.166104e+00  -1.329673e+00
   1.714962e+00   5.590664e+00
  -5.497100e+00   8.354099e+00
  -5.744501e+00   4.411454e+00
  -1.336785e+00  -4.092494e+00
   2.109234e+00  -7.731055e+00
   8.888021e-01  -2.886158e+00
  -2.327612e+00   6.317154e+00
  -3.945058e+00   7.457965e+00
  -4.043673e+00  -2.613688e+00
  -1.872358e+00  -1.273793e+01
