
 $NMID
 id='ANONYMOUS ', fmtdat='(2E16.6)'
 volume=1.0
 tramp=1.0
 $END
   3.228849e+03   2.474473e+02
   1.834978e+03   1.914256e+03
  -2.753947e+02   2.039828e+03
  -1.351553e+03   1.015465e+03
  -8.424355e+02   6.138416e+01
   6.050064e+01  -1.579656e+02
   3.634070e+02   1.595077e+02
  -4.480616e+01   5.553119e+02
  -5.038594e+02   5.355563e+02
  -6.384147e+02   4.721664e+01
  -4.487009e+02  -5.253950e+02
   2.848475e+01  -6.620724e+02
   3.173644e+02  -1.554405e+02
   2.306195e+02   4.345510e+02
  -1.929447e+02   5.645808e+02
  -3.898160e+02   4.261993e+01
  -2.599767e+02  -4.914080e+02
   1.530321e+02  -5.809915e+02
   4.553889e+02  -2.336411e+02
   4.154951e+02   1.798596e+02
   1.153927e+02   3.344294e+02
  -1.383016e+02   2.398176e+02
  -9.919098e+01   7.843313e+01
   1.553672e+02   7.192604e+01
   2.654622e+02   2.620771e+02
  -1.010720e+01   3.607307e+02
  -4.649991e+02   1.706337e+02
  -6.150743e+02  -2.154000e+02
  -2.178703e+02  -3.963861e+02
   3.426514e+02  -2.240463e+02
   5.200587e+02   1.308578e+02
   1.864770e+02   3.606167e+02
  -2.644782e+02   3.502245e+02
  -4.379591e+02   1.325125e+02
  -3.167171e+02  -1.587380e+02
  -8.640661e+01  -3.095673e+02
   4.917333e+01  -1.784390e+02
  -3.560248e+01   9.612543e+01
  -1.734898e+02   1.686751e+02
  -2.074117e+02  -1.316412e+02
  -1.959534e+01  -4.878653e+02
   2.558372e+02  -4.349794e+02
   3.183649e+02   2.163815e+01
   1.027921e+02   3.208478e+02
  -1.578927e+02   1.298685e+02
  -1.539706e+02  -2.863205e+02
   1.291458e+02  -3.876156e+02
   4.464431e+02  -3.530867e+01
   4.426983e+02   3.736627e+02
   1.251687e+02   4.680948e+02
  -2.892650e+02   2.480487e+02
  -4.725723e+02  -7.461842e+01
  -3.070878e+02  -2.492553e+02
   4.618032e+01  -2.224257e+02
   2.859759e+02  -6.148987e+01
   2.126558e+02   4.758600e+01
   2.624483e+00   2.844963e+01
  -4.101481e+01  -5.746619e+01
   1.100208e+02  -6.816624e+01
   2.304780e+02   6.839582e+01
   1.161100e+02   2.188289e+02
  -1.629081e+02   2.369891e+02
  -3.318101e+02   1.089194e+02
  -2.422072e+02  -9.983474e+01
   3.601595e+01  -2.895136e+02
   2.757579e+02  -3.246296e+02
   3.449351e+02  -1.442681e+02
   2.212688e+02   1.550995e+02
   4.435350e+01   3.380205e+02
  -4.385367e+01   2.986966e+02
  -2.151907e+01   1.625257e+02
  -2.242056e+01   1.053707e+02
  -1.296318e+02   1.172460e+02
  -2.498951e+02   5.126199e+01
  -2.435142e+02  -1.249049e+02
  -8.021146e+01  -2.611159e+02
   1.035098e+02  -1.852893e+02
   1.908128e+02   5.022032e+01
   1.304607e+02   2.453645e+02
  -5.413199e+01   2.374701e+02
  -2.443830e+02   5.192372e+01
  -2.941157e+02  -1.682394e+02
  -1.536747e+02  -2.816676e+02
   4.968466e+01  -2.499986e+02
   1.504120e+02  -1.421176e+02
   1.299524e+02  -7.607267e+01
   1.419410e+02  -6.847981e+01
   2.667782e+02  -3.898895e+01
   3.970275e+02   9.025999e+01
   3.047222e+02   2.740341e+02
  -2.487533e+01   4.058427e+02
  -3.646938e+02   3.759308e+02
  -4.582741e+02   1.709292e+02
  -2.693884e+02  -9.950979e+01
  -1.248058e+01  -2.456045e+02
   9.408168e+01  -1.843472e+02
   5.577671e+00  -2.572329e+01
  -1.209122e+02   4.702353e+01
  -1.326074e+02  -3.914817e+01
  -1.481428e-01  -1.402711e+02
   1.350407e+02  -9.944578e+01
   1.030829e+02   5.492164e+01
  -2.917045e+01   1.292472e+02
  -1.578736e+02  -1.381444e+01
  -1.401757e+02  -2.401501e+02
   2.986707e+01  -3.329298e+02
   2.382960e+02  -1.903234e+02
   3.457822e+02   7.257884e+01
   2.617238e+02   2.721040e+02
   5.203494e+01   2.739365e+02
  -1.305915e+02   1.331753e+02
  -1.482260e+02  -2.514707e-01
  -3.468442e+01  -1.244953e+01
   4.605781e+01   6.229769e+01
  -1.131447e+01   1.078594e+02
  -1.270390e+02   5.518775e+01
  -1.399757e+02  -3.507929e+01
  -2.008676e+01  -5.310709e+01
   8.018918e+01   1.821684e+01
   2.872435e+01   9.415894e+01
  -1.502361e+02   8.157723e+01
  -2.934467e+02  -3.402949e+01
  -2.437422e+02  -1.798759e+02
  -2.109756e+01  -2.653010e+02
   2.047572e+02  -2.268285e+02
   2.664711e+02  -7.910538e+01
   1.381055e+02   5.665210e+01
  -2.645535e+01   7.709458e+01
  -5.874066e+01  -6.398712e+00
   5.559650e+01  -7.289281e+01
   1.759377e+02  -1.957023e+01
   1.671255e+02   1.107931e+02
   3.930339e+01   1.836356e+02
  -9.579837e+01   1.226618e+02
  -1.206041e+02   6.986498e+00
  -3.915719e+01  -3.941972e+01
   4.366335e+01   2.259226e+01
   2.284486e+01   1.078359e+02
  -1.017748e+02   1.128954e+02
  -2.096158e+02   3.965103e+00
  -1.727531e+02  -1.406118e+02
  -2.682182e+00  -2.056923e+02
   1.572470e+02  -1.431525e+02
   1.707521e+02  -5.860725e+00
   5.157513e+01   9.011628e+01
  -6.117723e+01   8.283834e+01
  -6.535544e+01   1.768081e+01
   3.364518e+00  -2.510676e+01
   3.835241e+01  -2.546046e+00
  -7.827944e+00   2.840130e+01
  -8.464491e+01   1.565697e+00
  -9.915833e+01  -9.030251e+01
  -7.144440e+00  -1.699242e+02
   1.403807e+02  -1.441649e+02
   2.281145e+02  -2.287909e+00
   1.792847e+02   1.591046e+02
   2.577423e+01   2.182194e+02
  -1.017777e+02   1.471965e+02
  -1.219312e+02   2.327211e+01
  -6.662449e+01  -4.391227e+01
  -3.061110e+01  -2.370130e+01
  -5.572983e+01   1.660606e+01
  -8.803070e+01   6.430279e+00
  -5.733491e+01  -5.679117e+01
   3.496300e+01  -1.028572e+02
   1.208886e+02  -6.105820e+01
   1.022333e+02   4.583146e+01
  -2.318019e+01   1.260593e+02
  -1.610731e+02   8.141254e+01
  -1.952000e+02  -7.045402e+01
  -7.164433e+01  -2.056441e+02
   1.250569e+02  -1.997599e+02
   2.725513e+02  -6.107260e+01
   2.282879e+02   8.534582e+01
   9.025633e+01   1.576170e+02
  -3.739402e+01   1.308183e+02
  -8.567758e+01   7.987571e+01
  -7.354799e+01   7.043027e+01
  -6.155207e+01   8.668440e+01
  -8.753514e+01   6.926861e+01
  -1.221662e+02  -2.255599e+01
  -1.039002e+02  -1.474838e+02
  -1.725986e+01  -2.124606e+02
   9.590169e+01  -1.558446e+02
   1.594673e+02  -5.683628e+00
   1.183629e+02   1.217534e+02
   7.037813e+00   1.494874e+02
  -7.159805e+01   7.770978e+01
  -5.932429e+01  -1.485806e+01
   4.158407e+00  -5.319385e+01
   2.403497e+01  -3.505655e+01
  -2.603237e+01  -1.345198e+01
  -7.682878e+01  -2.020048e+01
  -4.237799e+01  -4.206711e+01
   7.295678e+01  -3.867034e+01
   1.664192e+02   9.383518e+00
   1.368467e+02   7.286279e+01
  -4.578596e+00   9.901407e+01
  -1.349696e+02   6.692703e+01
  -1.426434e+02  -2.858389e+00
  -4.098481e+01  -5.294628e+01
   5.759026e+01  -4.065336e+01
   7.724993e+01   2.378586e+01
   1.544528e+01   6.888372e+01
  -4.646844e+01   5.928168e+01
  -6.713066e+01  -3.389303e-01
  -5.397801e+01  -4.983231e+01
  -4.243287e+01  -4.236922e+01
  -5.231239e+01  -3.950212e+00
  -6.064676e+01  -6.651802e+00
  -3.545027e+01  -7.433919e+01
   3.528446e+01  -1.473156e+02
   1.272571e+02  -1.340100e+02
   1.696488e+02  -2.439588e+01
   1.201384e+02   9.747011e+01
  -2.207184e+00   1.306326e+02
  -9.244003e+01   6.627518e+01
  -6.169298e+01  -1.243978e+01
   5.353618e+01  -2.137215e+01
   1.247247e+02   4.184935e+01
   6.457667e+01   1.050328e+02
  -8.358055e+01   1.021954e+02
  -1.852483e+02   3.333167e+01
  -1.500479e+02  -4.339612e+01
  -2.640088e+01  -8.217948e+01
   6.238869e+01  -5.501022e+01
   4.499548e+01   1.895924e+00
  -4.065300e+01   2.684041e+01
  -8.741429e+01  -2.223678e+01
  -3.326506e+01  -1.125831e+02
   8.187179e+01  -1.488944e+02
   1.534719e+02  -5.981117e+01
   1.191245e+02   9.312752e+01
   1.241592e+01   1.857231e+02
  -8.248430e+01   1.328333e+02
  -9.856961e+01  -1.197615e+01
  -5.194217e+01  -1.175556e+02
   1.239154e+01  -9.629582e+01
   4.724427e+01  -1.445416e+01
   4.330135e+01   3.021370e+01
   1.713469e+01   6.642006e+00
   8.042480e+00  -1.598656e+01
   3.137073e+01   2.246533e+01
   5.554650e+01   8.712810e+01
   2.335199e+01   1.032716e+02
  -5.842253e+01   3.892284e+01
  -1.288523e+02  -4.186353e+01
  -1.103526e+02  -7.207174e+01
  -1.443656e+01  -5.026692e+01
   7.387933e+01  -2.015323e+01
   7.692948e+01   1.001978e+00
   1.439121e+01   1.151790e+01
  -3.272255e+01   1.689202e+01
  -1.766329e+01   1.119349e+01
   1.531401e+01  -2.577452e+00
  -1.787812e+00  -2.629579e+00
  -6.250740e+01   8.928529e-01
  -8.651388e+01  -2.394471e+01
  -1.970146e+01  -7.762281e+01
   1.039418e+02  -1.040618e+02
   1.766570e+02  -4.880962e+01
   1.377617e+02   6.228881e+01
   2.033381e+01   1.470057e+02
  -8.210622e+01   1.384950e+02
  -1.096694e+02   5.524947e+01
  -7.372894e+01  -2.132995e+01
  -2.487915e+01  -3.625273e+01
  -4.282590e+00  -1.185816e+01
  -1.408028e+01  -8.454416e+00
  -2.675238e+01  -4.726049e+01
  -1.599047e+01  -8.678841e+01
   2.962395e+01  -6.637243e+01
   7.410056e+01   1.504976e+01
   6.964019e+01   9.595838e+01
   8.427124e+00   1.037960e+02
  -7.085797e+01   2.929799e+01
  -9.793423e+01  -6.024365e+01
  -3.855674e+01  -9.784808e+01
   6.007114e+01  -6.083141e+01
   9.797399e+01   8.809172e+00
   4.271937e+01   5.504363e+01
  -3.382548e+01   5.731154e+01
  -4.049312e+01   2.353429e+01
   2.547060e+01  -7.605764e+00
   6.536613e+01  -8.064180e+00
   1.731297e+01   2.692668e+01
  -7.630883e+01   6.024668e+01
  -1.130258e+02   4.720818e+01
  -6.452328e+01  -1.886545e+01
   1.547245e+01  -7.917535e+01
   5.631319e+01  -7.487901e+01
   4.237352e+01  -1.061402e+01
   7.732474e+00   4.974889e+01
  -2.238575e+01   4.617977e+01
  -3.472344e+01  -8.500489e+00
  -2.868496e+01  -5.056996e+01
  -6.742548e-01  -3.916667e+01
   3.125847e+01   3.675046e+00
   3.904096e+01   2.372581e+01
   1.930480e+01   4.683822e+00
  -3.764124e+00  -1.912173e+01
  -6.410322e+00  -8.762166e+00
   2.406273e+00   2.932194e+01
   2.383377e-01   4.878151e+01
  -2.458409e+01   2.038896e+01
  -3.707846e+01  -3.238640e+01
  -9.886787e+00  -5.574996e+01
   3.828502e+01  -2.317125e+01
   5.825484e+01   3.090402e+01
   1.597508e+01   5.686666e+01
  -5.497386e+01   3.161351e+01
  -8.590393e+01  -1.363046e+01
  -4.552941e+01  -4.196408e+01
   2.911885e+01  -4.194150e+01
   6.112873e+01  -2.252602e+01
   2.596983e+01  -6.920616e+00
  -2.629674e+01   1.635393e+00
  -2.998847e+01  -7.062155e+00
   2.192003e+01  -2.163903e+01
   7.117514e+01  -1.672146e+01
