
 $NMID
 id='ANONYMOUS ', fmtdat='(2E16.6)'
 volume=1.0
 tramp=1.0
 $END
   2.194434e+03   3.971765e+01
   1.762991e+03   9.324943e+02
   4.163741e+02   1.468944e+03
  -7.248009e+02   1.174603e+03
  -7.739823e+02   4.137474e+02
  -2.298581e+02  -3.020316e+01
   1.217881e+02  -1.763088e+01
   7.628690e+01   2.793720e+02
  -2.720281e+02   3.827830e+02
  -4.331012e+02   1.063394e+02
  -3.004669e+02  -2.698534e+02
  -7.115681e+01  -4.390903e+02
   1.583774e+02  -1.787099e+02
   1.519711e+02   2.319019e+02
  -1.250384e+02   3.853182e+02
  -2.656539e+02   7.863809e+01
  -2.262427e+02  -3.238783e+02
   5.918227e+01  -4.775619e+02
   3.274072e+02  -2.559672e+02
   3.353893e+02   9.248212e+01
   1.345203e+02   2.676290e+02
  -7.137644e+01   1.787784e+02
  -2.087878e+01   6.039371e+01
   1.540279e+02   1.194174e+02
   1.701681e+02   2.743426e+02
  -7.458875e+01   2.625336e+02
  -3.755485e+02   4.609102e+01
  -3.995895e+02  -1.948257e+02
  -9.357486e+01  -2.288684e+02
   2.456954e+02  -7.357329e+01
   3.267692e+02   1.549792e+02
   8.592836e+01   2.571895e+02
  -2.232231e+02   2.101109e+02
  -3.386986e+02   5.081579e+01
  -2.114478e+02  -1.336142e+02
  -2.533946e+01  -2.150176e+02
   1.212458e+01  -1.077316e+02
  -9.175691e+01   7.756417e+01
  -1.704295e+02   7.807516e+01
  -1.063219e+02  -1.551250e+02
   6.010890e+01  -3.509299e+02
   2.003468e+02  -2.616307e+02
   1.800030e+02   2.010219e+01
   3.401308e+01   1.859328e+02
  -8.830194e+01   4.293804e+01
  -4.767487e+01  -2.062095e+02
   1.179692e+02  -2.536984e+02
   3.155276e+02   2.705133e+00
   3.200326e+02   2.914246e+02
   1.120656e+02   3.547496e+02
  -2.184944e+02   1.835159e+02
  -3.703290e+02  -5.135461e+01
  -2.514452e+02  -1.744971e+02
  -3.899429e+00  -1.420753e+02
   1.653574e+02  -5.595268e+01
   1.481164e+02  -3.319406e+01
   4.502191e+01  -2.463577e+01
  -3.133594e+00  -1.769979e+01
   5.934490e+01   1.060507e+01
   1.355302e+02   4.263915e+01
   8.551548e+01   1.094576e+02
  -1.074459e+02   1.794993e+02
  -2.640970e+02   1.200346e+02
  -2.311820e+02  -8.674834e+01
   6.371131e+00  -2.945600e+02
   2.505543e+02  -3.000578e+02
   3.030955e+02  -9.828550e+01
   1.630786e+02   1.423394e+02
   1.168999e+01   2.441505e+02
  -3.510286e+00   1.986474e+02
   8.754020e+00   1.243534e+02
  -2.494684e+01   1.181805e+02
  -1.287096e+02   1.053777e+02
  -2.072098e+02   1.815250e+01
  -1.685329e+02  -1.236693e+02
  -3.450668e+01  -1.986174e+02
   9.184985e+01  -1.216240e+02
   1.373769e+02   5.337425e+01
   7.529322e+01   1.958905e+02
  -6.029560e+01   1.856125e+02
  -1.951603e+02   3.218764e+01
  -2.296081e+02  -1.485497e+02
  -1.270929e+02  -2.211528e+02
   2.956915e+01  -1.962486e+02
   1.141089e+02  -1.273966e+02
   1.096667e+02  -8.570232e+01
   1.273167e+02  -6.178280e+01
   2.244118e+02  -1.564056e+01
   3.110378e+02   1.046090e+02
   2.282061e+02   2.567271e+02
  -3.965145e+01   3.365068e+02
  -3.165131e+02   2.790364e+02
  -3.792824e+02   1.081616e+02
  -2.083637e+02  -9.012077e+01
   1.701808e+00  -1.842007e+02
   6.463776e+01  -1.391440e+02
  -1.188183e+01  -2.648237e+01
  -9.355184e+01   1.260691e+01
  -7.508485e+01  -3.825208e+01
   9.216815e+00  -8.439631e+01
   9.506334e+01  -4.934738e+01
   5.797985e+01   4.364505e+01
  -3.469651e+01   7.333638e+01
  -1.171000e+02  -6.090762e+00
  -1.123310e+02  -1.724745e+02
   1.469404e+01  -2.623403e+02
   1.931072e+02  -1.720759e+02
   2.877863e+02   4.470139e+01
   2.185606e+02   2.211682e+02
   3.382618e+01   2.331091e+02
  -1.131516e+02   1.061698e+02
  -1.152367e+02  -9.642406e+00
  -1.962277e+01  -1.484050e+01
   3.373834e+01   5.882381e+01
  -1.742996e+01   8.947902e+01
  -1.014431e+02   3.778279e+01
  -1.023839e+02  -3.755906e+01
  -1.161775e+01  -4.003002e+01
   6.889435e+01   2.188381e+01
   2.136582e+01   7.829665e+01
  -1.278063e+02   5.889184e+01
  -2.430701e+02  -3.338590e+01
  -1.910997e+02  -1.512862e+02
   7.493791e-01  -2.138678e+02
   1.834373e+02  -1.740926e+02
   2.142817e+02  -4.574873e+01
   9.452340e+01   5.103183e+01
  -2.919379e+01   5.502432e+01
  -4.137379e+01  -1.146533e+01
   4.797442e+01  -5.411900e+01
   1.267297e+02  -9.509512e+00
   1.196219e+02   8.202102e+01
   2.773575e+01   1.334212e+02
  -6.433982e+01   8.792538e+01
  -8.401909e+01   3.631893e+00
  -2.326935e+01  -2.884724e+01
   3.912903e+01   2.668120e+01
   1.655574e+01   9.781070e+01
  -8.863507e+01   9.697448e+01
  -1.731322e+02  -2.350474e+00
  -1.356770e+02  -1.193594e+02
   5.916148e+00  -1.648236e+02
   1.270018e+02  -1.068033e+02
   1.324481e+02  -2.172698e+00
   3.745113e+01   7.009598e+01
  -4.906460e+01   6.372825e+01
  -5.120942e+01   1.167050e+01
   3.912756e+00  -2.188876e+01
   3.606156e+01  -1.287441e+00
  -4.226681e+00   2.568408e+01
  -7.399971e+01   4.879067e+00
  -8.836901e+01  -7.483987e+01
  -3.560062e+00  -1.451991e+02
   1.248663e+02  -1.216024e+02
   1.929637e+02   3.387346e+00
   1.471727e+02   1.404740e+02
   2.483764e+01   1.828624e+02
  -8.142881e+01   1.209952e+02
  -9.933583e+01   2.414033e+01
  -5.926970e+01  -3.167225e+01
  -3.127167e+01  -2.112933e+01
  -5.481489e+01   8.623425e+00
  -7.456459e+01   4.373384e+00
  -5.038569e+01  -4.975437e+01
   2.908917e+01  -8.717041e+01
   1.036397e+02  -5.754233e+01
   9.532455e+01   3.688539e+01
  -1.209441e+01   1.078319e+02
  -1.372315e+02   6.986027e+01
  -1.693630e+02  -5.690201e+01
  -6.294854e+01  -1.739321e+02
   1.072699e+02  -1.753815e+02
   2.390552e+02  -5.011700e+01
   1.964987e+02   7.890912e+01
   7.029750e+01   1.350871e+02
  -3.812823e+01   1.034905e+02
  -7.442619e+01   5.851532e+01
  -5.274781e+01   4.854296e+01
  -4.524068e+01   7.126060e+01
  -7.057809e+01   6.555895e+01
  -1.050259e+02  -1.151096e+01
  -9.333172e+01  -1.225681e+02
  -1.686759e+01  -1.842626e+02
   8.384892e+01  -1.330312e+02
   1.336798e+02  -5.338516e+00
   9.456965e+01   1.058553e+02
   3.737475e-01   1.253916e+02
  -6.739923e+01   6.031861e+01
  -5.276229e+01  -2.026126e+01
   7.283265e+00  -4.809162e+01
   3.137720e+01  -2.806994e+01
  -1.396670e+01  -7.431507e+00
  -6.423891e+01  -1.499016e+01
  -3.976665e+01  -3.558066e+01
   6.031124e+01  -2.937166e+01
   1.375181e+02   1.718136e+01
   1.106951e+02   7.121402e+01
  -8.619414e+00   8.649080e+01
  -1.207076e+02   5.317238e+01
  -1.234975e+02  -7.484684e+00
  -3.475290e+01  -5.056379e+01
   4.730444e+01  -3.809771e+01
   6.663030e+01   1.419750e+01
   1.815203e+01   6.002762e+01
  -3.330629e+01   5.279384e+01
  -5.647142e+01   1.825291e+00
  -4.949565e+01  -3.994170e+01
  -3.717830e+01  -3.799034e+01
  -3.921019e+01  -5.505334e+00
  -4.806001e+01  -5.754220e+00
  -3.581562e+01  -5.979261e+01
   2.620082e+01  -1.220569e+02
   1.049953e+02  -1.114201e+02
   1.498034e+02  -2.422576e+01
   1.078824e+02   7.879674e+01
   1.774864e+00   1.107814e+02
  -7.637476e+01   5.854432e+01
  -5.103813e+01  -6.265487e+00
   4.382343e+01  -1.495982e+01
   9.838522e+01   3.702669e+01
   4.554861e+01   8.492373e+01
  -7.141998e+01   7.933354e+01
  -1.437302e+02   1.873838e+01
  -1.108069e+02  -4.204358e+01
  -1.661851e+01  -6.789788e+01
   5.354197e+01  -3.906473e+01
   3.809303e+01   7.557422e+00
  -3.183971e+01   2.658381e+01
  -7.311018e+01  -1.535338e+01
  -3.350256e+01  -9.021364e+01
   5.653588e+01  -1.203539e+02
   1.187853e+02  -5.519372e+01
   9.736808e+01   6.847991e+01
   1.485693e+01   1.429790e+02
  -6.571279e+01   9.918568e+01
  -8.292182e+01  -1.611424e+01
  -3.771093e+01  -9.629638e+01
   2.184848e+01  -7.615947e+01
   4.642905e+01  -6.956814e+00
   3.376011e+01   2.692161e+01
   8.374028e+00   7.236126e+00
   4.860385e+00  -1.190896e+01
   2.424604e+01   1.823229e+01
   4.564221e+01   7.316139e+01
   2.042231e+01   8.308711e+01
  -4.466343e+01   3.543827e+01
  -1.043993e+02  -2.723423e+01
  -9.455806e+01  -5.580967e+01
  -1.712122e+01  -4.388557e+01
   5.568023e+01  -2.139463e+01
   6.691096e+01  -4.651818e+00
   1.865975e+01   1.123743e+01
  -2.356179e+01   1.324065e+01
  -1.917868e+01   8.506849e+00
   7.889226e+00  -3.837660e+00
   1.542924e+00  -7.111003e-01
  -4.466900e+01   1.324994e+00
  -7.160328e+01  -1.625753e+01
  -2.389929e+01  -6.353159e+01
   7.712789e+01  -8.954537e+01
   1.413624e+02  -5.593780e+01
   1.168174e+02   4.221108e+01
   2.715269e+01   1.174227e+02
  -5.911727e+01   1.181936e+02
  -8.685921e+01   5.250999e+01
  -6.175289e+01  -1.554372e+01
  -2.449211e+01  -3.187062e+01
  -4.964851e+00  -1.080574e+01
  -1.271155e+01  -5.809423e+00
  -2.242202e+01  -3.669057e+01
  -1.093159e+01  -7.178157e+01
   2.374967e+01  -5.945864e+01
   6.182817e+01   9.557045e+00
   6.158783e+01   7.560194e+01
   1.273694e+01   8.536534e+01
  -5.557011e+01   2.709956e+01
  -8.265541e+01  -4.609557e+01
  -3.457481e+01  -7.872009e+01
   4.863194e+01  -5.238633e+01
   8.429417e+01   5.194389e+00
   3.728919e+01   4.875592e+01
  -2.791610e+01   5.247934e+01
  -3.619220e+01   2.106789e+01
   1.653669e+01  -9.489391e+00
   5.665674e+01  -6.364237e+00
   2.076778e+01   2.315209e+01
  -5.824878e+01   4.710831e+01
  -9.371830e+01   3.343666e+01
  -5.856811e+01  -1.397843e+01
   1.157810e+01  -6.008717e+01
   4.986856e+01  -5.928977e+01
   3.824263e+01  -1.167967e+01
   7.411719e+00   3.854436e+01
  -2.100740e+01   3.932424e+01
  -3.075658e+01  -4.482065e+00
  -2.304389e+01  -4.373284e+01
   2.484291e+00  -3.773270e+01
   2.858140e+01   1.305143e+00
   3.563200e+01   2.544673e+01
   1.579237e+01   1.030432e+01
  -4.602212e+00  -1.846650e+01
  -6.344344e+00  -1.480111e+01
   7.393911e+00   2.028583e+01
   6.131636e+00   4.475839e+01
  -1.745702e+01   2.448393e+01
  -3.425874e+01  -2.159261e+01
  -1.608324e+01  -4.711201e+01
   2.863668e+01  -2.419859e+01
   5.183918e+01   2.032167e+01
   1.979519e+01   4.669772e+01
  -4.302955e+01   3.106267e+01
  -7.282205e+01  -5.013257e+00
  -4.163372e+01  -3.191542e+01
   1.794800e+01  -3.798219e+01
   4.777454e+01  -2.469821e+01
   2.504662e+01  -8.063335e+00
  -1.456266e+01   3.385808e+00
  -2.186437e+01  -2.079406e+00
   1.363292e+01  -1.630483e+01
   5.380667e+01  -1.355754e+01
