
 $NMID
 id='ANONYMOUS ', fmtdat='(2E16.6)'
 volume=1.0
 tramp=1.0
 $END
  -1.662350e+03   1.904535e+02
  -1.329290e+03  -5.326269e+02
  -3.486956e+02  -1.014542e+03
   4.790462e+02  -9.159460e+02
   6.507606e+02  -3.153244e+02
   2.697374e+02   1.332220e+02
  -8.208264e+01   1.874955e+02
  -1.859730e+02  -9.863333e+01
   2.140181e+01  -3.092098e+02
   2.502785e+02  -1.858972e+02
   2.661467e+02   1.018605e+02
   1.684325e+02   3.025598e+02
  -6.658506e+01   2.005576e+02
  -1.777100e+02  -9.026421e+01
   1.996411e-01  -2.744287e+02
   1.601252e+02  -1.265591e+02
   2.219393e+02   1.660481e+02
   2.760152e+01   3.476458e+02
  -2.147319e+02   2.299529e+02
  -2.631010e+02  -3.649025e+01
  -1.216724e+02  -1.731719e+02
   2.774791e+01  -1.466799e+02
   1.984526e+01  -6.951782e+01
  -6.684762e+01  -8.580219e+01
  -9.009122e+01  -1.408077e+02
   2.686653e+01  -1.155667e+02
   1.815198e+02  -3.506242e+01
   2.219546e+02   4.051044e+01
   9.334789e+01   8.254570e+01
  -8.282590e+01   5.241609e+01
  -1.704962e+02  -3.678079e+01
  -8.549318e+01  -1.183845e+02
   8.408788e+01  -1.420410e+02
   1.794816e+02  -7.251537e+01
   1.478698e+02   4.315101e+01
   6.656527e+01   1.155110e+02
   3.375265e+01   8.894117e+01
   4.217526e+01   7.330274e-01
   4.200951e+01  -3.769053e+01
   3.606360e+01   5.380782e+01
   3.257921e+01   1.723604e+02
  -2.473687e+01   1.909567e+02
  -9.550839e+01   7.491811e+01
  -9.173864e+01  -5.826191e+01
  -1.210600e+01  -5.374146e+01
   3.417964e+01   6.696888e+01
  -2.361478e+01   1.370813e+02
  -1.661898e+02   4.022652e+01
  -2.247005e+02  -1.369235e+02
  -1.303943e+02  -1.981675e+02
   9.541840e+01  -1.428803e+02
   2.277832e+02  -2.147789e+01
   1.912757e+02   6.113308e+01
   5.413784e+01   8.288127e+01
  -8.074337e+01   7.548359e+01
  -1.171370e+02   5.124392e+01
  -5.591340e+01  -1.304331e+00
   2.065420e+01  -1.420538e+01
  -5.679154e+00   2.015590e+00
  -8.766074e+01   1.449375e+01
  -8.711271e+01  -4.220870e+01
   4.090032e+01  -1.333119e+02
   1.683165e+02  -1.091847e+02
   1.539100e+02   4.098703e+01
  -7.264398e+00   1.975053e+02
  -1.578534e+02   1.998562e+02
  -1.866402e+02   8.881023e+01
  -1.122361e+02  -6.358476e+01
  -4.825345e+01  -1.538584e+02
  -4.831404e+01  -1.633170e+02
  -2.522664e+01  -1.145579e+02
   2.913076e+01  -8.121018e+01
   9.158424e+01  -5.238198e+01
   1.181554e+02  -7.258586e+00
   9.444226e+01   5.777119e+01
   3.225597e+01   9.655366e+01
  -3.193443e+01   6.221504e+01
  -7.228680e+01  -2.217212e+01
  -5.606113e+01  -9.720576e+01
   1.195684e+01  -1.026950e+02
   9.582700e+01  -3.539173e+01
   1.422727e+02   4.972543e+01
   1.086065e+02   1.062699e+02
   1.538207e+01   1.302432e+02
  -6.195297e+01   1.085425e+02
  -7.833343e+01   6.914370e+01
  -8.358343e+01   2.732442e+01
  -1.299583e+02   8.715482e+00
  -1.856990e+02  -4.495970e+01
  -1.441548e+02  -1.280847e+02
   9.984832e+00  -1.968139e+02
   1.801536e+02  -1.772345e+02
   2.253326e+02  -9.864693e+01
   1.264187e+02   2.895891e+01
   1.421095e+01   1.000803e+02
  -1.442911e+01   1.008607e+02
   1.422860e+01   3.228041e+01
   4.242031e+01  -1.095560e+01
   3.700143e+01   5.912554e+00
   1.151601e+01   3.796478e+01
  -4.141938e+01   4.106500e+01
  -3.195934e+01  -7.882501e+00
   4.473810e+00  -3.614102e+01
   5.889144e+01  -6.464482e+00
   8.048652e+01   1.002873e+02
   1.411637e+01   1.655120e+02
  -1.060815e+02   1.180172e+02
  -1.754058e+02  -7.577679e+00
  -1.473636e+02  -1.124403e+02
  -3.491217e+01  -1.283820e+02
   5.572597e+01  -6.981448e+01
   6.723682e+01  -7.732051e+00
   1.898193e+01   3.606271e+00
  -1.763074e+01  -2.690375e+01
  -7.276974e-01  -4.769844e+01
   4.711996e+01  -3.062888e+01
   5.826883e+01   5.712423e+00
   1.312736e+01   1.269187e+01
  -3.680857e+01  -1.349805e+01
  -1.411326e+01  -4.298695e+01
   7.156476e+01  -3.467609e+01
   1.440065e+02   1.189716e+01
   1.189672e+02   7.658875e+01
   9.789165e+00   1.136331e+02
  -9.445606e+01   1.041739e+02
  -1.129085e+02   3.869768e+01
  -5.470131e+01  -1.343940e+01
   1.032794e+01  -2.945973e+01
   2.094494e+01  -1.780446e+00
  -1.962351e+01   3.050464e+01
  -6.561472e+01   1.937026e+01
  -8.086731e+01  -3.052696e+01
  -3.762233e+01  -7.111930e+01
   2.186837e+01  -5.933601e+01
   4.790804e+01  -1.611838e+01
   1.839734e+01   5.300817e+00
  -1.939208e+01  -1.937127e+01
  -1.163259e+01  -5.638943e+01
   4.792860e+01  -5.852326e+01
   1.006206e+02  -9.057834e+00
   8.972228e+01   5.653223e+01
   1.282411e+01   9.346034e+01
  -6.264217e+01   7.565045e+01
  -7.991557e+01   2.126394e+01
  -3.420399e+01  -3.135299e+01
   1.757047e+01  -4.511867e+01
   2.631078e+01  -1.855425e+01
   1.089676e+00   9.560377e+00
  -1.729832e+01   1.578484e+00
   2.918950e+00  -1.274708e+01
   4.407061e+01  -4.682374e+00
   5.718122e+01   4.207481e+01
   1.274461e+01   8.710529e+01
  -6.567750e+01   8.345107e+01
  -1.148108e+02   1.503313e+01
  -1.000403e+02  -7.099016e+01
  -3.309910e+01  -1.090561e+02
   3.689485e+01  -8.449117e+01
   6.121455e+01  -2.600638e+01
   4.237294e+01   1.433864e+01
   2.129704e+01   1.265630e+01
   3.332609e+01  -7.065449e+00
   4.764189e+01  -8.769289e+00
   3.574578e+01   2.927962e+01
  -1.552790e+01   5.700633e+01
  -6.315981e+01   4.201303e+01
  -6.292631e+01  -1.867738e+01
   2.160074e+00  -6.755615e+01
   8.117839e+01  -4.911773e+01
   1.048816e+02   2.457982e+01
   4.614952e+01   1.017100e+02
  -5.224462e+01   1.118630e+02
  -1.479604e+02   3.920369e+01
  -1.242482e+02  -4.132882e+01
  -5.126496e+01  -7.811931e+01
   1.884894e+01  -6.314475e+01
   4.069870e+01  -3.657364e+01
   2.394531e+01  -3.119390e+01
   1.852551e+01  -4.910628e+01
   3.878264e+01  -4.867788e+01
   6.565813e+01  -1.444614e+00
   6.732134e+01   6.891228e+01
   2.586622e+01   1.109795e+02
  -3.797649e+01   8.727365e+01
  -7.839885e+01   1.581769e+01
  -6.251237e+01  -5.418045e+01
  -1.218068e+01  -7.307438e+01
   3.293349e+01  -4.234221e+01
   2.993339e+01   6.395397e+00
  -3.542537e+00   2.587256e+01
  -1.656602e+01   1.699890e+01
   1.308002e+01   3.745906e+00
   4.518725e+01   5.538355e+00
   2.965147e+01   1.729842e+01
  -3.344106e+01   1.971346e+01
  -8.177915e+01   1.460407e+00
  -6.634343e+01  -2.470716e+01
  -4.122812e-01  -4.165977e+01
   6.199374e+01  -3.575890e+01
   6.658348e+01  -1.088947e+01
   2.212059e+01   1.938109e+01
  -2.446871e+01   2.629037e+01
  -3.695811e+01  -3.137513e+00
  -1.436830e+01  -3.433096e+01
   1.693497e+01  -3.681152e+01
   3.547878e+01  -5.798099e+00
   3.696898e+01   2.404846e+01
   2.716111e+01   2.404908e+01
   2.441829e+01   1.997950e-01
   2.758707e+01   7.637475e-01
   2.432259e+01   3.510910e+01
  -7.252768e+00   7.630652e+01
  -5.437582e+01   7.302082e+01
  -9.067830e+01   2.527115e+01
  -7.134069e+01  -3.684246e+01
  -7.807196e+00  -6.282967e+01
   4.326573e+01  -4.109228e+01
   3.015212e+01  -2.056700e+00
  -2.777845e+01   8.654023e+00
  -6.004674e+01  -1.462405e+01
  -3.310437e+01  -4.597865e+01
   3.567793e+01  -5.179589e+01
   8.621857e+01  -2.525688e+01
   7.208235e+01   1.369718e+01
   1.723239e+01   3.905510e+01
  -2.900784e+01   2.828326e+01
  -2.482274e+01  -2.034772e+00
   1.781474e+01  -2.049947e+01
   4.881062e+01   2.579889e+00
   3.330922e+01   5.486778e+01
  -2.159873e+01   8.697822e+01
  -7.035673e+01   5.019398e+01
  -6.918890e+01  -3.189837e+01
  -2.341013e+01  -8.696790e+01
   3.055394e+01  -6.421675e+01
   5.026108e+01   6.366191e+00
   2.953431e+01   5.776822e+01
  -7.273495e+00   4.579096e+01
  -2.804597e+01   5.473657e+00
  -2.322789e+01  -1.221897e+01
  -5.291347e+00  -1.742284e+00
  -9.457546e-01   6.335994e+00
  -1.578183e+01  -1.329447e+01
  -3.530194e+01  -4.384008e+01
  -2.176447e+01  -4.872564e+01
   2.345230e+01  -2.263494e+01
   6.827192e+01   9.858960e+00
   6.532246e+01   2.678400e+01
   1.650052e+01   2.302958e+01
  -3.110362e+01   1.826335e+01
  -4.076451e+01   1.033553e+01
  -1.327494e+01  -4.117417e+00
   1.286984e+01  -1.052484e+01
   1.027910e+01  -7.543607e+00
  -5.529273e+00   1.739793e+00
   3.353329e-01  -8.724281e-01
   2.950877e+01  -4.957366e+00
   4.827621e+01   6.999226e+00
   2.118687e+01   4.035140e+01
  -4.468348e+01   6.400114e+01
  -9.041708e+01   4.690005e+01
  -7.804071e+01  -1.818845e+01
  -2.400899e+01  -6.995666e+01
   2.979800e+01  -7.444053e+01
   5.058078e+01  -3.762453e+01
   3.793625e+01   3.976837e+00
   1.711230e+01   1.616342e+01
   3.015310e+00   6.794577e+00
   6.799150e+00   4.698382e+00
   1.390293e+01   2.035589e+01
   1.145726e+01   4.077928e+01
  -8.685728e+00   3.713855e+01
  -3.822430e+01  -1.101215e+00
  -4.730794e+01  -4.046639e+01
  -1.781232e+01  -5.245752e+01
   3.026058e+01  -2.499875e+01
   5.849765e+01   1.819292e+01
   3.186408e+01   4.657879e+01
  -2.533092e+01   3.916591e+01
  -5.365820e+01   5.476566e+00
  -2.650578e+01  -2.815069e+01
   1.465646e+01  -3.713523e+01
   1.989955e+01  -1.645094e+01
  -1.214068e+01   8.286526e+00
  -3.516542e+01   9.203779e+00
  -1.594331e+01  -1.197925e+01
   3.196571e+01  -3.490023e+01
   5.311269e+01  -2.881147e+01
   3.834886e+01   2.905974e+00
   1.613896e+00   3.647356e+01
  -2.448187e+01   3.896483e+01
  -2.329050e+01   1.205617e+01
  -9.289322e+00  -2.241977e+01
   9.702663e+00  -2.463542e+01
   1.968270e+01  -2.711233e-01
   1.784157e+01   2.388601e+01
  -3.854957e-01   2.313977e+01
  -1.761888e+01   1.227006e+00
  -2.353233e+01  -1.316001e+01
  -1.056848e+01  -4.170865e+00
   1.360050e+00   1.275731e+01
   1.353207e+00   7.312480e+00
  -6.087518e+00  -1.660702e+01
  -2.581005e+00  -3.218793e+01
   1.257328e+01  -1.809621e+01
   2.447499e+01   1.186647e+01
   1.338490e+01   3.118868e+01
  -1.636099e+01   1.768247e+01
  -3.308111e+01  -8.376855e+00
  -1.672441e+01  -2.795719e+01
   2.458214e+01  -2.291421e+01
   4.663814e+01  -1.830890e+00
   2.851852e+01   1.787781e+01
  -9.626563e+00   2.544342e+01
  -2.952085e+01   1.893969e+01
  -1.433652e+01   5.716360e+00
   1.145237e+01  -5.305520e+00
   1.696428e+01  -6.469323e-01
  -6.085495e+00   1.137186e+01
  -3.281944e+01   1.264800e+01
