
 $NMID
 id='ANONYMOUS ', fmtdat='(2E16.6)'
 volume=1.0
 tramp=1.0
 $END
   1.957030e+03  -3.249220e+02
   1.604762e+03   8.413205e+02
   4.694462e+02   1.360972e+03
  -5.723609e+02   1.111006e+03
  -7.605269e+02   4.138094e+02
  -2.946337e+02  -1.020044e+02
   1.455108e+02  -1.374754e+02
   1.513252e+02   2.302175e+02
  -1.247449e+02   4.503374e+02
  -3.954892e+02   2.208458e+02
  -3.735284e+02  -2.464748e+02
  -1.286118e+02  -4.215551e+02
   1.434079e+02  -2.250243e+02
   1.932338e+02   2.000837e+02
  -5.177841e+01   4.182849e+02
  -2.619585e+02   1.340607e+02
  -3.179853e+02  -2.771279e+02
  -5.378343e+01  -4.825149e+02
   2.872682e+02  -3.169677e+02
   3.885965e+02   1.558488e+01
   1.838539e+02   2.245181e+02
  -2.129554e+01   1.837384e+02
  -1.565596e+01   7.260309e+01
   1.429964e+02   8.991761e+01
   1.883080e+02   2.092988e+02
  -1.490227e+01   2.380264e+02
  -2.894074e+02   1.015653e+02
  -3.782178e+02  -9.956189e+01
  -1.468873e+02  -1.850574e+02
   1.793585e+02  -1.251599e+02
   3.167303e+02   3.905986e+01
   1.557681e+02   2.106330e+02
  -1.308407e+02   2.504003e+02
  -2.797432e+02   1.555316e+02
  -2.422084e+02  -4.227951e+01
  -1.109261e+02  -1.631205e+02
  -4.582569e+01  -1.315810e+02
  -7.607201e+01   1.358213e+01
  -1.171266e+02   6.325783e+01
  -1.116591e+02  -1.045315e+02
  -3.645306e+01  -3.183906e+02
   1.080123e+02  -2.933661e+02
   1.866325e+02  -5.218886e+01
   1.085119e+02   1.427471e+02
  -4.176251e+01   8.794870e+01
  -9.585473e+01  -1.407488e+02
   4.030783e+01  -2.620952e+02
   2.904442e+02  -9.855411e+01
   3.813310e+02   1.922504e+02
   1.881806e+02   3.478151e+02
  -1.673462e+02   2.328997e+02
  -3.564474e+02   2.999803e+01
  -2.582129e+02  -1.095073e+02
  -1.237086e+01  -1.492574e+02
   1.452349e+02  -9.245397e+01
   1.295372e+02  -2.792068e+01
   2.397340e+01   5.633174e+00
  -3.374251e+01  -5.473575e+00
   2.674221e+01  -4.225208e+01
   1.362915e+02  -1.633869e+01
   1.142822e+02   9.286024e+01
  -6.744146e+01   1.986478e+02
  -2.411798e+02   1.590111e+02
  -2.316181e+02  -4.776268e+01
  -3.372638e+01  -2.780799e+02
   1.935965e+02  -3.153564e+02
   2.730655e+02  -1.428109e+02
   1.935867e+02   9.538583e+01
   7.304294e+01   2.410804e+02
   2.207176e+01   2.363639e+02
   2.174835e+01   1.546095e+02
  -2.591893e+01   1.187743e+02
  -1.226279e+02   1.128692e+02
  -2.003838e+02   5.609553e+01
  -1.843214e+02  -8.174561e+01
  -8.167420e+01  -1.797772e+02
   5.037707e+01  -1.401804e+02
   1.381551e+02   2.092032e+01
   1.123559e+02   1.631996e+02
  -1.726107e+01   1.797445e+02
  -1.756538e+02   6.499047e+01
  -2.407311e+02  -9.210597e+01
  -1.592451e+02  -1.945769e+02
  -4.769396e+00  -1.977432e+02
   9.766270e+01  -1.497984e+02
   1.045863e+02  -1.083875e+02
   1.176167e+02  -7.923990e+01
   2.146482e+02  -3.906743e+01
   3.098456e+02   4.338558e+01
   2.556131e+02   1.893237e+02
   2.403755e+01   3.276423e+02
  -2.392206e+02   3.272739e+02
  -3.345387e+02   1.707490e+02
  -2.155156e+02  -5.234486e+01
  -3.696891e+01  -1.734341e+02
   3.769504e+01  -1.438006e+02
  -1.174377e+01  -3.002834e+01
  -7.967265e+01   2.751808e+01
  -8.328268e+01  -1.933928e+01
  -1.477195e+01  -9.673937e+01
   8.077446e+01  -7.618744e+01
   6.973847e+01   2.328066e+01
  -2.187933e+01   8.727134e+01
  -1.189063e+02   7.611288e+00
  -1.386526e+02  -1.556506e+02
  -2.111559e+01  -2.623877e+02
   1.720896e+02  -1.954029e+02
   2.907340e+02   7.129104e+00
   2.404406e+02   1.880825e+02
   5.965310e+01   2.085269e+02
  -8.913472e+01   1.142568e+02
  -1.025312e+02   8.080688e+00
  -1.859096e+01  -2.620463e+00
   4.069351e+01   5.110397e+01
  -1.558223e+00   8.675954e+01
  -8.766538e+01   5.578939e+01
  -9.971433e+01  -1.474046e+01
  -2.138984e+01  -3.993482e+01
   6.601443e+01   7.600258e+00
   3.935915e+01   7.468365e+01
  -1.011053e+02   9.264851e+01
  -2.284864e+02   1.950857e+01
  -2.109115e+02  -1.085558e+02
  -4.516236e+01  -2.056084e+02
   1.318864e+02  -1.969751e+02
   1.872117e+02  -8.733575e+01
   9.847957e+01   2.440235e+01
  -1.762923e+01   5.009835e+01
  -4.211227e+01  -8.339698e+00
   4.484164e+01  -6.612751e+01
   1.456681e+02  -3.231062e+01
   1.540344e+02   7.468132e+01
   5.463578e+01   1.409137e+02
  -5.984775e+01   1.071342e+02
  -9.081157e+01   1.650656e+01
  -2.606429e+01  -2.646611e+01
   4.358938e+01   2.343578e+01
   2.916495e+01   9.954027e+01
  -7.539493e+01   1.088133e+02
  -1.719264e+02   2.281616e+01
  -1.513804e+02  -9.471114e+01
  -2.536648e+01  -1.579789e+02
   1.018246e+02  -1.232890e+02
   1.269300e+02  -2.291074e+01
   4.862910e+01   6.028518e+01
  -3.735128e+01   7.253069e+01
  -4.711233e+01   2.366639e+01
   2.551860e-01  -2.395760e+01
   3.349559e+01  -7.742886e+00
   1.668097e+00   3.009988e+01
  -7.103328e+01   2.136645e+01
  -9.815048e+01  -5.779765e+01
  -3.043140e+01  -1.420195e+02
   9.800972e+01  -1.379410e+02
   1.834189e+02  -3.123703e+01
   1.599790e+02   1.045154e+02
   5.155521e+01   1.723578e+02
  -5.807538e+01   1.298771e+02
  -9.515492e+01   3.772782e+01
  -6.256424e+01  -2.387644e+01
  -2.503581e+01  -1.655820e+01
  -4.025186e+01   1.490281e+01
  -7.144438e+01   1.575648e+01
  -5.714330e+01  -3.875487e+01
   2.342209e+01  -9.444341e+01
   9.744055e+01  -7.089905e+01
   1.018469e+02   3.074560e+01
  -1.198116e-01   1.165741e+02
  -1.276945e+02   9.036263e+01
  -1.696487e+02  -3.708908e+01
  -7.684635e+01  -1.608566e+02
   8.501591e+01  -1.795829e+02
   2.123277e+02  -7.195661e+01
   1.844133e+02   5.508732e+01
   8.445569e+01   1.193467e+02
  -1.582704e+01   1.013370e+02
  -5.198207e+01   6.269943e+01
  -3.560710e+01   5.561297e+01
  -2.904994e+01   8.250567e+01
  -6.431334e+01   7.905063e+01
  -1.118992e+02   6.035766e+00
  -1.127342e+02  -1.079148e+02
  -4.088891e+01  -1.735173e+02
   6.401175e+01  -1.372813e+02
   1.319064e+02  -2.302870e+01
   1.061559e+02   8.684206e+01
   1.699659e+01   1.185563e+02
  -5.647481e+01   6.287506e+01
  -5.368888e+01  -1.479201e+01
   7.364754e-02  -4.846383e+01
   2.414766e+01  -2.938462e+01
  -1.734718e+01  -4.960732e-01
  -6.752365e+01  -2.945240e+00
  -4.283473e+01  -3.420659e+01
   5.588104e+01  -4.803843e+01
   1.391797e+02  -1.448455e+01
   1.179783e+02   4.622543e+01
   5.098007e+00   8.567329e+01
  -9.662695e+01   7.134527e+01
  -1.100889e+02   1.459583e+01
  -4.049756e+01  -4.062302e+01
   3.953174e+01  -4.446940e+01
   7.143861e+01   1.482233e+01
   2.744387e+01   5.762530e+01
  -2.849794e+01   5.745524e+01
  -5.881433e+01   8.989453e+00
  -5.397697e+01  -3.686124e+01
  -3.241291e+01  -3.240420e+01
  -3.367017e+01   4.169845e+00
  -4.935767e+01   8.028320e+00
  -4.666052e+01  -5.265052e+01
   1.527785e+00  -1.278804e+02
   8.761588e+01  -1.315458e+02
   1.465803e+02  -4.725809e+01
   1.172546e+02   6.409121e+01
   1.797329e+01   1.098803e+02
  -6.493562e+01   6.834771e+01
  -5.370153e+01  -1.550229e+00
   3.527697e+01  -2.718566e+01
   1.047731e+02   1.351886e+01
   6.927195e+01   7.436050e+01
  -4.752602e+01   9.211642e+01
  -1.395947e+02   5.284369e+01
  -1.250707e+02  -1.728500e+01
  -2.997205e+01  -6.156369e+01
   4.556191e+01  -4.883136e+01
   3.636703e+01   3.127608e+00
  -2.987685e+01   3.116305e+01
  -7.686111e+01  -5.595927e+00
  -4.853351e+01  -8.658999e+01
   4.103054e+01  -1.302937e+02
   1.169596e+02  -7.293179e+01
   1.129495e+02   5.179906e+01
   3.495605e+01   1.437349e+02
  -5.195929e+01   1.160518e+02
  -8.508154e+01  -6.614233e-01
  -5.337590e+01  -8.817225e+01
   1.135202e+01  -7.921826e+01
   4.287806e+01  -1.280647e+01
   3.175824e+01   2.389858e+01
   4.510986e+00   6.232157e+00
   2.544580e+00  -1.494203e+01
   3.287267e+01   1.049606e+01
   5.650597e+01   5.962510e+01
   3.136831e+01   7.801150e+01
  -4.312372e+01   4.162877e+01
  -1.080667e+02  -8.866275e+00
  -9.927430e+01  -4.047238e+01
  -2.081327e+01  -4.643533e+01
   5.309401e+01  -3.427351e+01
   6.537213e+01  -1.100223e+01
   1.823871e+01   1.332571e+01
  -2.153867e+01   2.085400e+01
  -1.634469e+01   6.529951e+00
   7.300547e+00  -8.208734e+00
  -6.315098e-01  -1.016243e+00
  -4.108120e+01   1.067321e+01
  -6.928549e+01  -6.418214e+00
  -3.276074e+01  -6.165062e+01
   6.082148e+01  -1.010048e+02
   1.382312e+02  -7.025784e+01
   1.314281e+02   2.827225e+01
   4.883914e+01   1.185290e+02
  -4.597743e+01   1.288219e+02
  -8.965826e+01   6.555986e+01
  -6.945684e+01  -5.905257e+00
  -2.645206e+01  -2.957752e+01
  -3.502210e+00  -1.064756e+01
  -1.315563e+01  -5.504705e+00
  -2.918691e+01  -3.760233e+01
  -2.270005e+01  -6.994863e+01
   1.702958e+01  -6.021318e+01
   6.502444e+01   4.455809e-01
   7.463285e+01   6.799916e+01
   2.415731e+01   8.585038e+01
  -5.444233e+01   3.969609e+01
  -9.247852e+01  -3.531477e+01
  -4.733514e+01  -7.926709e+01
   4.186789e+01  -6.523017e+01
   8.598973e+01  -7.834526e+00
   4.556729e+01   4.376288e+01
  -1.993391e+01   5.372163e+01
  -3.077021e+01   2.482228e+01
   1.498379e+01  -9.655558e+00
   4.736460e+01  -1.181418e+01
   1.971256e+01   2.350622e+01
  -4.780467e+01   5.773726e+01
  -8.459118e+01   5.010968e+01
  -6.062840e+01  -9.441687e+00
  -2.490484e+00  -6.952596e+01
   3.841074e+01  -7.321902e+01
   3.893593e+01  -1.664720e+01
   1.422472e+01   4.088074e+01
  -1.309425e+01   4.102541e+01
  -3.083055e+01  -3.236770e+00
  -2.834308e+01  -4.134506e+01
  -6.538757e-01  -3.463415e+01
   2.905159e+01  -4.719793e-02
   3.531431e+01   1.863932e+01
   1.313950e+01   3.983910e+00
  -8.590625e+00  -1.733981e+01
  -4.754951e+00  -1.222165e+01
   1.478777e+01   1.962490e+01
   1.490349e+01   4.221369e+01
  -1.465480e+01   2.705646e+01
  -4.198910e+01  -1.609802e+01
  -2.377271e+01  -4.362355e+01
   2.675541e+01  -2.759202e+01
   5.748695e+01   1.527009e+01
   2.511015e+01   4.572117e+01
  -4.215593e+01   3.964840e+01
  -7.619617e+01   4.933590e+00
  -4.542703e+01  -2.989831e+01
   1.334108e+01  -4.416542e+01
   4.343474e+01  -3.422235e+01
   2.464897e+01  -8.579471e+00
  -1.272696e+01   1.061331e+01
  -2.101762e+01   4.912598e+00
   9.976752e+00  -1.972838e+01
   4.744676e+01  -2.687771e+01
