
 $NMID
 id='ANONYMOUS ', fmtdat='(2E16.6)'
 volume=1.0
 tramp=1.0
 $END
  -3.102701e+03   4.731240e+02
  -2.209772e+03  -1.523772e+03
  -1.446695e+02  -2.070807e+03
   1.280966e+03  -1.220019e+03
   9.979090e+02   1.785742e+01
  -5.857156e+01   4.527867e+02
  -5.441611e+02  -1.470525e+01
  -1.745780e+02  -6.269559e+02
   4.141414e+02  -6.988151e+02
   7.255333e+02  -1.573477e+02
   5.315863e+02   5.691520e+02
   8.192222e+00   7.353671e+02
  -4.060440e+02   2.769577e+02
  -3.542894e+02  -4.188148e+02
   1.330495e+02  -6.488412e+02
   4.571308e+02  -1.235323e+02
   3.790372e+02   4.849580e+02
  -9.273728e+01   6.326641e+02
  -4.706326e+02   2.667156e+02
  -4.554509e+02  -1.717729e+02
  -1.419705e+02  -3.666470e+02
   1.390191e+02  -2.527464e+02
   1.472569e+02  -5.850632e+01
  -1.033875e+02  -5.682798e+00
  -3.025744e+02  -1.359977e+02
  -1.211879e+02  -3.085996e+02
   3.414572e+02  -2.713763e+02
   6.201699e+02   5.104771e+01
   3.311220e+02   3.407609e+02
  -2.553715e+02   3.291566e+02
  -5.308955e+02   1.899982e+01
  -2.799259e+02  -3.215625e+02
   1.600173e+02  -4.021278e+02
   4.119243e+02  -2.171495e+02
   3.539355e+02   1.138301e+02
   1.212564e+02   3.227923e+02
  -6.756419e+01   2.336765e+02
  -6.478538e+01  -9.073471e+01
   1.068237e+02  -2.538249e+02
   2.632613e+02   1.652781e+01
   1.694929e+02   4.654132e+02
  -1.706750e+02   5.186153e+02
  -3.910915e+02   8.489313e+01
  -2.271539e+02  -3.325476e+02
   1.341246e+02  -2.463243e+02
   2.540581e+02   1.750070e+02
  -7.777176e+00   4.114793e+02
  -4.174727e+02   1.723065e+02
  -5.197917e+02  -2.624350e+02
  -2.243457e+02  -4.888207e+02
   2.593808e+02  -3.371404e+02
   5.286835e+02  -1.822445e+01
   3.720327e+02   2.366146e+02
  -2.472996e+01   2.835505e+02
  -3.072492e+02   1.141297e+02
  -2.208006e+02  -6.164618e+01
   3.135611e+01  -7.702088e+01
   1.199578e+02   5.762824e+01
  -6.058737e+01   1.388658e+02
  -2.548872e+02   1.712549e+01
  -1.797406e+02  -1.760047e+02
   1.095260e+02  -2.643876e+02
   3.118624e+02  -1.608850e+02
   2.430824e+02   6.658830e+01
   1.001127e+01   2.887995e+02
  -2.078762e+02   3.531452e+02
  -2.973541e+02   1.864525e+02
  -2.513567e+02  -1.088028e+02
  -1.131056e+02  -3.432852e+02
   1.874399e+01  -3.411091e+02
   6.815501e+01  -1.660269e+02
   6.146383e+01  -6.115309e+01
   9.416142e+01  -9.114181e+01
   1.872979e+02  -9.430736e+01
   2.324905e+02   6.113761e+01
   1.457331e+02   2.221674e+02
  -3.899072e+01   2.162883e+02
  -1.859229e+02   1.485255e+01
  -1.722003e+02  -1.872138e+02
  -3.039551e+00  -2.404015e+02
   2.215466e+02  -1.108712e+02
   3.182188e+02   1.098574e+02
   2.085824e+02   2.731864e+02
  -2.266192e+01   2.787935e+02
  -1.669565e+02   1.687488e+02
  -1.496955e+02   6.991734e+01
  -1.162799e+02   5.311137e+01
  -2.157168e+02   5.215342e+01
  -3.567942e+02  -2.903169e+01
  -3.161893e+02  -2.158928e+02
  -3.993096e+01  -3.926309e+02
   2.875929e+02  -3.969597e+02
   4.197870e+02  -2.092433e+02
   2.904226e+02   6.230791e+01
   6.451493e+01   2.401296e+02
  -7.267794e+01   2.234648e+02
  -4.126183e+01   4.781124e+01
   7.601985e+01  -7.413524e+01
   1.335432e+02  -6.492908e+00
   4.579372e+01   1.400695e+02
  -1.139696e+02   1.376587e+02
  -1.295403e+02  -3.049242e+01
   1.191116e+01  -1.546699e+02
   1.599055e+02  -3.390998e+01
   1.817547e+02   1.989055e+02
   1.841312e+01   3.277662e+02
  -2.091634e+02   2.168312e+02
  -3.301860e+02  -2.934231e+01
  -2.731196e+02  -2.220729e+02
  -8.331765e+01  -2.397236e+02
   1.013714e+02  -1.396574e+02
   1.426859e+02  -1.714583e+01
   3.984420e+01   1.546774e+01
  -5.552809e+01  -4.379247e+01
  -1.722027e+01  -1.058036e+02
   1.024346e+02  -8.524252e+01
   1.378502e+02   4.311202e+00
   4.488500e+01   5.381866e+01
  -7.063032e+01   7.114567e+00
  -5.041216e+01  -7.409063e+01
   1.096012e+02  -9.760554e+01
   2.618153e+02  -2.585948e+01
   2.498788e+02   1.141031e+02
   6.635418e+01   2.321144e+02
  -1.517141e+02   2.430536e+02
  -2.382887e+02   1.229004e+02
  -1.428082e+02  -3.037135e+01
   1.114938e+01  -8.321852e+01
   6.457115e+01  -7.202410e+00
  -3.438496e+01   8.434652e+01
  -1.654283e+02   5.240348e+01
  -1.891699e+02  -8.689437e+01
  -7.131672e+01  -1.804045e+02
   7.247331e+01  -1.411115e+02
   1.187300e+02  -2.447822e+01
   5.165483e+01   3.501576e+01
  -3.474057e+01  -1.251387e+01
  -3.365810e+01  -9.584525e+01
   7.323426e+01  -1.190269e+02
   1.891321e+02  -3.559423e+01
   1.849097e+02   1.046731e+02
   3.862816e+01   1.971621e+02
  -1.268326e+02   1.605003e+02
  -1.683418e+02   2.591209e+01
  -6.971383e+01  -8.799101e+01
   4.825611e+01  -9.892314e+01
   7.031383e+01  -3.183093e+01
   1.247192e+01   2.689350e+01
  -3.070106e+01   1.337143e+01
   1.318362e+00  -2.289028e+01
   7.525617e+01  -9.880288e+00
   1.022871e+02   7.127320e+01
   2.827652e+01   1.562746e+02
  -1.134624e+02   1.550824e+02
  -2.166827e+02   4.096179e+01
  -1.961150e+02  -1.228239e+02
  -6.057426e+01  -2.170115e+02
   7.797316e+01  -1.679710e+02
   1.220515e+02  -4.118050e+01
   7.591088e+01   4.165993e+01
   2.938727e+01   2.868911e+01
   4.761523e+01  -1.481159e+01
   7.671500e+01  -1.458542e+01
   5.241547e+01   4.679177e+01
  -3.268473e+01   9.943274e+01
  -1.037997e+02   6.612455e+01
  -1.009846e+02  -3.731424e+01
   2.464017e+00  -1.229590e+02
   1.391919e+02  -9.954781e+01
   1.998062e+02   3.307190e+01
   1.083161e+02   1.815518e+02
  -8.569528e+01   2.228930e+02
  -2.514785e+02   1.055636e+02
  -2.309145e+02  -5.901395e+01
  -1.069922e+02  -1.505132e+02
   2.160598e+01  -1.288893e+02
   6.882151e+01  -7.626569e+01
   5.095101e+01  -6.867153e+01
   4.605394e+01  -9.401797e+01
   8.485947e+01  -8.350617e+01
   1.281711e+02   2.735812e+00
   1.225123e+02   1.311418e+02
   4.533417e+01   2.072154e+02
  -7.723021e+01   1.685687e+02
  -1.620927e+02   3.046173e+01
  -1.329769e+02  -1.040324e+02
  -2.714305e+01  -1.433193e+02
   6.025905e+01  -7.950648e+01
   5.772250e+01   8.950934e+00
   2.406299e+00   4.769153e+01
  -2.001392e+01   3.019051e+01
   2.651035e+01   5.373694e+00
   7.658219e+01   1.161739e+01
   4.720112e+01   3.972435e+01
  -6.243438e+01   4.750976e+01
  -1.533553e+02   8.391793e+00
  -1.357477e+02  -5.157397e+01
  -1.099418e+01  -9.215588e+01
   1.131691e+02  -8.047977e+01
   1.338057e+02  -1.856625e+01
   4.747670e+01   4.500746e+01
  -5.121954e+01   4.841586e+01
  -8.370923e+01  -1.553745e+01
  -2.309886e+01  -6.880322e+01
   4.080858e+01  -6.495149e+01
   6.547613e+01  -6.229470e+00
   5.473833e+01   4.633012e+01
   3.778127e+01   3.843981e+01
   4.342874e+01  -4.415017e+00
   5.898634e+01  -7.142040e+00
   4.815714e+01   6.135132e+01
  -1.161895e+01   1.434510e+02
  -1.027535e+02   1.446128e+02
  -1.647393e+02   4.407619e+01
  -1.287556e+02  -7.758405e+01
  -1.609380e+01  -1.260273e+02
   7.873014e+01  -7.390521e+01
   6.287890e+01   8.511171e+00
  -4.594999e+01   3.525481e+01
  -1.286825e+02  -1.793630e+01
  -8.228612e+01  -9.071708e+01
   5.846682e+01  -1.084103e+02
   1.666540e+02  -5.884336e+01
   1.465587e+02   2.090123e+01
   3.607074e+01   7.507679e+01
  -5.293734e+01   6.073887e+01
  -4.117032e+01   4.680187e-01
   3.662268e+01  -3.308848e+01
   9.032352e+01   1.244868e+01
   4.947770e+01   1.094826e+02
  -6.436126e+01   1.545595e+02
  -1.502566e+02   7.458648e+01
  -1.312542e+02  -7.672068e+01
  -3.015552e+01  -1.759715e+02
   6.936717e+01  -1.342497e+02
   9.864730e+01   1.476506e+00
   6.461696e+01   1.019456e+02
  -2.564330e+00   9.230000e+01
  -4.360405e+01   1.722966e+01
  -4.219649e+01  -2.435285e+01
  -1.229559e+01  -2.762714e+00
  -1.543896e+00   2.095837e+01
  -3.142668e+01  -1.170980e+01
  -6.638665e+01  -7.449418e+01
  -4.130732e+01  -9.776130e+01
   4.904011e+01  -4.958954e+01
   1.324450e+02   1.762456e+01
   1.180226e+02   5.064182e+01
   1.634884e+01   5.002718e+01
  -7.412801e+01   3.389547e+01
  -7.899441e+01   1.058623e+01
  -1.535222e+01  -1.440127e+01
   2.947763e+01  -2.617538e+01
   1.729494e+01  -1.311711e+01
  -1.089766e+01   6.355787e+00
   4.460054e+00   3.876194e+00
   5.798742e+01  -7.301314e+00
   8.147357e+01   1.278938e+01
   2.466087e+01   7.636826e+01
  -8.681073e+01   1.176641e+02
  -1.670467e+02   7.639384e+01
  -1.465062e+02  -4.452747e+01
  -4.727803e+01  -1.452707e+02
   5.855568e+01  -1.486231e+02
   1.057154e+02  -6.825009e+01
   7.879641e+01   1.331675e+01
   2.832478e+01   3.481484e+01
   1.438842e-01   1.089890e+01
   1.133689e+01   4.187902e+00
   3.426421e+01   4.165871e+01
   2.693461e+01   8.038185e+01
  -2.117479e+01   7.023850e+01
  -7.737637e+01  -5.740805e+00
  -8.591324e+01  -9.000009e+01
  -2.024826e+01  -1.057074e+02
   7.325915e+01  -3.914159e+01
   1.071138e+02   5.425924e+01
   4.561244e+01   9.612842e+01
  -5.626581e+01   6.784790e+01
  -9.710855e+01   4.309521e-01
  -4.484432e+01  -5.066963e+01
   2.692705e+01  -5.642460e+01
   3.246475e+01  -2.534407e+01
  -2.344666e+01   1.011929e+01
  -5.752294e+01   1.398380e+01
  -1.992661e+01  -2.582872e+01
   5.949022e+01  -6.685288e+01
   9.647554e+01  -5.849998e+01
   6.274711e+01   9.838184e+00
  -4.672742e+00   7.919355e+01
  -4.655323e+01   7.985972e+01
  -4.330185e+01   1.264584e+01
  -1.183754e+01  -5.227162e+01
   2.047746e+01  -4.648865e+01
   3.823336e+01   8.424197e+00
   3.067384e+01   4.879479e+01
  -1.348779e+00   3.622013e+01
  -3.267844e+01  -3.350907e+00
  -3.798397e+01  -2.158171e+01
  -1.541906e+01  -3.781373e+00
   5.960267e+00   1.778656e+01
   5.513931e+00   8.202746e+00
  -7.755642e+00  -2.947040e+01
  -1.535129e+00  -4.756323e+01
   2.478011e+01  -2.046032e+01
   4.116245e+01   3.197685e+01
   1.493306e+01   5.616378e+01
  -3.684285e+01   2.782068e+01
  -6.287113e+01  -2.593205e+01
  -2.512129e+01  -5.792484e+01
   4.975527e+01  -4.107636e+01
   8.737566e+01   2.785835e+00
   5.108092e+01   3.808371e+01
  -2.123974e+01   4.657926e+01
  -5.611799e+01   3.060744e+01
  -2.541395e+01   5.765673e+00
   2.713008e+01  -8.854519e+00
   3.472342e+01   3.217062e+00
  -1.745765e+01   3.218338e+01
  -7.273831e+01   3.467786e+01
