
 $NMID
 id='ANONYMOUS ', fmtdat='(2E16.6)'
 volume=1.0
 tramp=1.0
 $END
  -2.939600e+03  -7.385901e+01
  -1.904613e+03  -1.333874e+03
  -1.114489e+02  -1.743587e+03
   9.665843e+02  -1.110791e+03
   7.024369e+02  -3.298430e+02
   1.774592e+01   2.941013e+01
  -2.880911e+02  -1.963479e+02
   3.404884e+01  -5.060308e+02
   4.649495e+02  -5.004627e+02
   5.702730e+02  -6.435489e+01
   3.194055e+02   4.642910e+02
   3.356607e+00   5.654359e+02
  -2.463048e+02   1.417544e+02
  -1.764187e+02  -3.736815e+02
   1.300243e+02  -5.471318e+02
   3.522549e+02  -5.539744e+01
   2.618372e+02   4.426301e+02
  -1.027915e+02   5.588433e+02
  -4.172356e+02   2.740195e+02
  -4.213124e+02  -1.400023e+02
  -1.504349e+02  -3.191277e+02
   9.784840e+01  -2.274270e+02
   3.554979e+01  -8.090318e+01
  -1.950832e+02  -1.201192e+02
  -2.503893e+02  -2.974933e+02
   4.792897e+01  -3.666942e+02
   4.873974e+02  -1.353720e+02
   5.740221e+02   2.155843e+02
   1.659621e+02   3.442830e+02
  -3.293810e+02   1.448881e+02
  -4.621332e+02  -1.672314e+02
  -1.427861e+02  -3.486309e+02
   2.737229e+02  -3.157629e+02
   4.369486e+02  -1.109711e+02
   2.966552e+02   1.541252e+02
   7.079582e+01   2.817114e+02
  -1.404162e+01   1.586402e+02
   6.877714e+01  -6.765729e+01
   1.901852e+02  -1.094430e+02
   1.780708e+02   1.723864e+02
  -5.296717e+01   4.870451e+02
  -2.869577e+02   3.691814e+02
  -3.043496e+02  -3.685976e+01
  -6.920827e+01  -3.044464e+02
   1.581812e+02  -1.114494e+02
   1.545110e+02   2.716700e+02
  -1.309721e+02   3.635779e+02
  -4.297458e+02   9.845777e+00
  -4.454363e+02  -3.776457e+02
  -1.140568e+02  -4.697572e+02
   2.969546e+02  -2.260691e+02
   4.660153e+02   8.508582e+01
   3.046562e+02   2.310680e+02
  -4.848843e+01   2.020168e+02
  -2.595354e+02   7.767315e+01
  -1.979172e+02  -7.769164e-01
  -1.592886e+01   1.335544e+00
   3.430024e+01   3.690757e+01
  -1.087111e+02   3.235961e+01
  -2.185000e+02  -6.126978e+01
  -1.104563e+02  -1.876295e+02
   1.572964e+02  -2.287595e+02
   3.296006e+02  -1.316546e+02
   2.479899e+02   8.451828e+01
  -3.416131e+01   3.057328e+02
  -3.017065e+02   3.601420e+02
  -3.547237e+02   1.491583e+02
  -2.083290e+02  -1.732786e+02
  -3.037393e+01  -3.545273e+02
   3.295580e+01  -3.009830e+02
   1.750016e+01  -1.622365e+02
   3.660875e+01  -1.063854e+02
   1.463782e+02  -1.120657e+02
   2.519736e+02  -4.451949e+01
   2.193056e+02   1.217880e+02
   6.545141e+01   2.532323e+02
  -1.061288e+02   1.782140e+02
  -1.822713e+02  -5.833603e+01
  -1.114947e+02  -2.561835e+02
   6.498274e+01  -2.358428e+02
   2.434058e+02  -3.348175e+01
   2.795877e+02   1.871074e+02
   1.422195e+02   2.739812e+02
  -5.717456e+01   2.255543e+02
  -1.537186e+02   1.283671e+02
  -1.378728e+02   7.345796e+01
  -1.478496e+02   7.471911e+01
  -2.625695e+02   3.240798e+01
  -3.819326e+02  -1.033158e+02
  -2.943003e+02  -2.980221e+02
   3.232963e+01  -4.219495e+02
   3.815369e+02  -3.738341e+02
   4.717266e+02  -1.437516e+02
   2.622454e+02   1.146430e+02
  -7.582804e+00   2.362682e+02
  -9.515327e+01   1.620816e+02
   6.043826e+00   2.417721e+01
   1.256284e+02  -1.802779e+01
   1.170482e+02   5.611261e+01
  -1.020315e+01   1.269623e+02
  -1.218290e+02   1.059324e+02
  -9.822584e+01  -5.484028e+01
   3.796822e+01  -1.019190e+02
   1.470580e+02   1.387025e+01
   1.302181e+02   2.287164e+02
  -2.599719e+01   3.182594e+02
  -2.323208e+02   1.882500e+02
  -3.350252e+02  -6.810210e+01
  -2.485943e+02  -2.595149e+02
  -4.513003e+01  -2.659694e+02
   1.311621e+02  -1.225201e+02
   1.389223e+02   7.610939e+00
   3.108107e+01   1.694861e+01
  -4.666080e+01  -6.698876e+01
   1.275418e+01  -1.094563e+02
   1.207756e+02  -5.222609e+01
   1.335292e+02   3.301110e+01
   1.718211e+01   5.181461e+01
  -8.444232e+01  -1.932200e+01
  -3.352340e+01  -9.483172e+01
   1.497123e+02  -8.630940e+01
   2.989533e+02   3.138926e+01
   2.534187e+02   1.728968e+02
   1.742411e+01   2.597548e+02
  -2.160791e+02   2.189004e+02
  -2.633452e+02   7.936828e+01
  -1.229919e+02  -4.751056e+01
   3.221108e+01  -6.917837e+01
   5.646806e+01   9.275915e+00
  -5.989828e+01   7.191363e+01
  -1.773124e+02   2.046233e+01
  -1.691631e+02  -1.086056e+02
  -4.294734e+01  -1.769700e+02
   8.892756e+01  -1.236148e+02
   1.158842e+02  -1.260775e+01
   3.834159e+01   3.465263e+01
  -4.320017e+01  -2.448352e+01
  -2.065358e+01  -1.112873e+02
   1.047663e+02  -1.156017e+02
   2.102221e+02  -5.180333e+00
   1.673071e+02   1.386153e+02
  -1.655645e-01   2.016171e+02
  -1.504544e+02   1.371131e+02
  -1.589661e+02   3.310166e+00
  -4.356775e+01  -8.821128e+01
   5.903594e+01  -8.156839e+01
   6.186551e+01  -1.654159e+01
  -3.610756e+00   2.343212e+01
  -3.945443e+01   3.237611e+00
   8.176632e+00  -3.280498e+01
   8.919915e+01  -5.719218e+00
   1.055124e+02   9.035843e+01
   7.779617e+00   1.748673e+02
  -1.451113e+02   1.456509e+02
  -2.323101e+02  -1.453086e+00
  -1.771532e+02  -1.632353e+02
  -2.058241e+01  -2.158577e+02
   1.024693e+02  -1.425842e+02
   1.187040e+02  -2.308223e+01
   6.754968e+01   4.209256e+01
   3.154941e+01   2.527807e+01
   5.310440e+01  -1.719180e+01
   8.117237e+01  -4.060360e+00
   5.808479e+01   5.632752e+01
  -3.836854e+01   9.674174e+01
  -1.205142e+02   6.257630e+01
  -1.075632e+02  -4.735443e+01
   2.168296e+01  -1.290494e+02
   1.665545e+02  -8.124512e+01
   2.012445e+02   7.472523e+01
   7.586608e+01   2.086848e+02
  -1.277002e+02   2.077527e+02
  -2.744477e+02   8.812694e+01
  -2.327811e+02  -9.328914e+01
  -8.968874e+01  -1.713331e+02
   4.200551e+01  -1.363380e+02
   9.181424e+01  -6.963647e+01
   7.559872e+01  -5.940010e+01
   6.577285e+01  -8.762683e+01
   9.054934e+01  -7.088131e+01
   1.265302e+02   2.482584e+01
   1.054149e+02   1.511653e+02
   1.194998e+01   2.170042e+02
  -1.025660e+02   1.499831e+02
  -1.606134e+02  -2.672538e+00
  -1.127906e+02  -1.314358e+02
   3.457124e+00  -1.505712e+02
   8.046862e+01  -7.134946e+01
   6.252054e+01   2.122909e+01
  -5.818664e+00   5.545780e+01
  -2.820521e+01   3.820450e+01
   2.425179e+01   1.426746e+01
   7.862212e+01   2.117783e+01
   4.454285e+01   4.042897e+01
  -7.505595e+01   3.544807e+01
  -1.684570e+02  -7.865529e+00
  -1.347453e+02  -6.720115e+01
   6.477891e+00  -9.508721e+01
   1.328988e+02  -7.018357e+01
   1.366068e+02  -2.597009e+00
   3.877005e+01   4.893070e+01
  -5.737150e+01   4.351533e+01
  -8.088143e+01  -1.521335e+01
  -1.722011e+01  -7.396419e+01
   4.365369e+01  -6.368118e+01
   6.661926e+01  -9.054127e-01
   5.516326e+01   4.935650e+01
   4.575265e+01   4.056117e+01
   5.752050e+01   3.918164e+00
   6.649855e+01   4.387938e+00
   4.296172e+01   7.429776e+01
  -3.401192e+01   1.497176e+02
  -1.280183e+02   1.338910e+02
  -1.718623e+02   2.234364e+01
  -1.231769e+02  -9.796195e+01
   2.261970e+00  -1.280180e+02
   8.964988e+01  -6.245598e+01
   5.765113e+01   1.114116e+01
  -5.606955e+01   1.147465e+01
  -1.217262e+02  -5.175627e+01
  -5.958401e+01  -1.056275e+02
   8.967943e+01  -9.802539e+01
   1.883141e+02  -3.031944e+01
   1.512088e+02   5.103835e+01
   2.719452e+01   8.533918e+01
  -6.598630e+01   5.743881e+01
  -4.743014e+01  -3.772200e-01
   3.785297e+01  -2.848561e+01
   8.553830e+01   1.985580e+01
   3.511810e+01   1.089966e+02
  -7.579139e+01   1.478054e+02
  -1.433031e+02   6.570535e+01
  -1.179025e+02  -8.852133e+01
  -1.248681e+01  -1.812245e+02
   8.056008e+01  -1.301798e+02
   9.818667e+01   1.455287e+01
   4.934704e+01   1.168754e+02
  -1.380923e+01   9.634428e+01
  -4.778012e+01   1.375377e+01
  -4.122808e+01  -2.964491e+01
  -1.729349e+01  -3.944060e+00
  -1.098494e+01   1.708058e+01
  -3.116933e+01  -2.425910e+01
  -5.058689e+01  -8.963719e+01
  -2.062725e+01  -9.797138e+01
   5.609526e+01  -3.464107e+01
   1.249556e+02   4.359623e+01
   1.129588e+02   7.140205e+01
   1.566075e+01   5.023116e+01
  -7.721824e+01   2.083362e+01
  -7.995388e+01  -7.370636e-01
  -1.561595e+01  -1.223903e+01
   3.273843e+01  -1.601913e+01
   1.652347e+01  -1.028459e+01
  -1.605471e+01   2.451426e+00
   3.760648e+00   2.146608e+00
   6.454366e+01  -9.486565e-01
   8.927098e+01   2.062179e+01
   1.932555e+01   7.555388e+01
  -1.003701e+02   1.109139e+02
  -1.739905e+02   6.582366e+01
  -1.435579e+02  -5.409351e+01
  -3.079550e+01  -1.499689e+02
   7.488093e+01  -1.449686e+02
   1.057534e+02  -6.078682e+01
   7.186056e+01   1.790397e+01
   2.374496e+01   3.472686e+01
   4.538820e+00   1.101905e+01
   1.606499e+01   7.801625e+00
   3.073376e+01   5.091919e+01
   1.442690e+01   9.049275e+01
  -2.970586e+01   6.890382e+01
  -7.390809e+01  -1.643689e+01
  -7.401895e+01  -9.571163e+01
  -1.423071e+01  -1.013976e+02
   6.934486e+01  -2.716455e+01
   9.442008e+01   6.298641e+01
   3.568819e+01   9.692176e+01
  -6.124436e+01   5.771622e+01
  -9.839087e+01  -9.530483e+00
  -4.309672e+01  -5.708660e+01
   3.269853e+01  -6.030572e+01
   3.673446e+01  -2.738394e+01
  -2.432659e+01   5.869161e+00
  -6.212029e+01   8.882475e+00
  -1.424195e+01  -2.661907e+01
   7.689595e+01  -6.058915e+01
   1.165618e+02  -4.516996e+01
   6.736139e+01   2.016940e+01
  -1.403355e+01   7.953322e+01
  -5.627202e+01   7.768799e+01
  -4.236335e+01   1.438627e+01
  -6.399092e+00  -4.854750e+01
   2.185169e+01  -4.656789e+01
   3.402566e+01   9.326846e+00
   2.687723e+01   5.139420e+01
   3.528564e-01   3.840956e+01
  -3.066623e+01  -4.449865e+00
  -4.010118e+01  -2.609372e+01
  -2.137829e+01  -5.213066e+00
   3.763306e+00   1.969234e+01
   8.213159e+00   1.013826e+01
  -2.969915e+00  -2.928466e+01
  -9.944777e-01  -4.976975e+01
   2.191866e+01  -2.205284e+01
   3.674317e+01   3.196075e+01
   1.279891e+01   5.535793e+01
  -3.764817e+01   2.312314e+01
  -5.942920e+01  -3.149678e+01
  -1.849410e+01  -5.575070e+01
   5.378805e+01  -3.269771e+01
   8.577405e+01   9.220726e+00
   4.636286e+01   3.737154e+01
  -2.792653e+01   4.064394e+01
  -6.022269e+01   2.858722e+01
  -2.868135e+01   8.658273e+00
   2.554934e+01  -4.111064e+00
   3.032378e+01   2.986526e+00
  -1.984021e+01   2.075782e+01
  -7.081344e+01   2.016814e+01
