
 $NMID
 id='ANONYMOUS ', fmtdat='(2E16.6)'
 volume=1.0
 tramp=1.0
 $END
   4.037348e+03   1.987948e+02
   2.180414e+03   2.620794e+03
  -8.765797e+02   2.623334e+03
  -2.097625e+03   7.785610e+02
  -9.154126e+02  -7.099859e+02
   6.806604e+02  -5.577727e+02
   8.500964e+02   4.761862e+02
  -7.048684e+01   1.041867e+03
  -8.625259e+02   6.632671e+02
  -9.263146e+02  -2.066081e+02
  -3.848431e+02  -8.795199e+02
   3.514893e+02  -8.361246e+02
   6.842033e+02  -4.924161e+01
   3.360034e+02   7.324207e+02
  -3.389773e+02   7.784493e+02
  -6.268571e+02  -6.299046e+01
  -2.350212e+02  -7.134934e+02
   3.575715e+02  -6.138128e+02
   5.943004e+02  -3.424738e+01
   3.521944e+02   4.018371e+02
  -2.470278e+01   4.169301e+02
  -2.537949e+02   2.033855e+02
  -1.798145e+02  -4.349410e+01
   1.425519e+02  -8.692842e+01
   3.866293e+02   1.593810e+02
   1.636104e+02   4.454851e+02
  -4.744458e+02   3.778862e+02
  -8.271319e+02  -1.102295e+02
  -3.707158e+02  -5.606401e+02
   4.282942e+02  -4.517522e+02
   7.293617e+02   8.747743e+01
   2.961243e+02   5.146378e+02
  -3.198417e+02   5.035247e+02
  -5.800875e+02   1.502039e+02
  -3.801445e+02  -2.763835e+02
  -1.307373e+01  -4.683178e+02
   2.255874e+02  -2.164674e+02
   1.451036e+02   2.566253e+02
  -2.362245e+02   4.144750e+02
  -4.569209e+02  -7.479246e+01
  -1.821377e+02  -7.120679e+02
   3.812484e+02  -6.652730e+02
   6.162438e+02   4.561599e+01
   2.200438e+02   5.657263e+02
  -3.243695e+02   3.039590e+02
  -3.648752e+02  -3.300418e+02
   1.017174e+02  -5.390311e+02
   5.554132e+02  -1.147005e+02
   5.554096e+02   4.325581e+02
   1.068741e+02   6.084214e+02
  -4.266378e+02   3.169994e+02
  -6.264483e+02  -1.331074e+02
  -3.353667e+02  -4.189108e+02
   1.991445e+02  -3.550006e+02
   4.372239e+02  -2.294620e+01
   2.171049e+02   2.103349e+02
  -1.292893e+02   1.037356e+02
  -1.431629e+02  -1.673037e+02
   1.657022e+02  -1.808002e+02
   3.428878e+02   9.170698e+01
   1.341422e+02   2.949629e+02
  -2.180671e+02   2.368921e+02
  -3.377341e+02   5.080212e+01
  -1.868504e+02  -1.073279e+02
   4.753198e+01  -2.291400e+02
   2.534191e+02  -3.055553e+02
   3.617451e+02  -1.745032e+02
   2.886189e+02   1.835324e+02
   3.995826e+01   4.629658e+02
  -1.547875e+02   3.872873e+02
  -1.402735e+02   9.423233e+01
  -3.390549e+01  -2.947438e+01
  -5.064862e+01   7.661368e+01
  -2.018016e+02   1.177330e+02
  -2.693976e+02  -6.821864e+01
  -1.378485e+02  -2.809305e+02
   9.081573e+01  -2.500494e+02
   2.371016e+02   2.958906e+00
   1.849690e+02   2.462658e+02
  -3.410543e+01   2.914052e+02
  -2.760140e+02   9.819867e+01
  -3.415888e+02  -1.876012e+02
  -1.567158e+02  -3.588629e+02
   1.309346e+02  -3.008914e+02
   2.410735e+02  -1.052059e+02
   1.507573e+02   1.011344e+01
   9.144710e+01  -1.649748e+01
   2.225081e+02  -4.516399e+01
   3.825637e+02   6.184578e+01
   3.089784e+02   2.829255e+02
  -2.264419e+01   4.370423e+02
  -3.754202e+02   3.951041e+02
  -4.914350e+02   1.679257e+02
  -3.199188e+02  -1.243324e+02
  -2.835218e+01  -3.054098e+02
   1.530556e+02  -2.526308e+02
   9.012488e+01  -2.309085e+01
  -1.112858e+02   1.042173e+02
  -1.922344e+02  -2.126392e+01
  -3.419256e+01  -2.021987e+02
   1.782221e+02  -1.767196e+02
   1.762273e+02   8.092698e+01
  -2.403420e+01   1.980978e+02
  -2.001886e+02   2.569350e+01
  -1.571853e+02  -2.565372e+02
   5.736521e+01  -3.503612e+02
   2.541374e+02  -1.800175e+02
   3.223071e+02   8.670959e+01
   2.534521e+02   2.670208e+02
   6.318194e+01   2.725154e+02
  -1.318517e+02   1.443602e+02
  -1.724387e+02  -1.597583e+00
  -5.209435e+01  -3.978446e+01
   6.438830e+01   4.487905e+01
   1.631080e+01   1.286394e+02
  -1.346658e+02   9.052824e+01
  -1.757913e+02  -2.877619e+01
  -5.239089e+01  -8.141997e+01
   8.366181e+01  -1.201120e+01
   5.524253e+01   7.744299e+01
  -1.185139e+02   8.036031e+01
  -2.700925e+02  -1.614488e+01
  -2.446536e+02  -1.543116e+02
  -3.863838e+01  -2.531091e+02
   2.006996e+02  -2.380141e+02
   2.810208e+02  -9.271128e+01
   1.547519e+02   6.700169e+01
  -3.874075e+01   1.081053e+02
  -9.392573e+01  -2.706115e+00
   4.255187e+01  -1.065489e+02
   2.008225e+02  -4.903294e+01
   2.022525e+02   1.161378e+02
   5.173289e+01   2.139703e+02
  -1.070673e+02   1.523649e+02
  -1.457442e+02   1.639268e+01
  -6.429201e+01  -5.003566e+01
   3.100396e+01  -4.576113e+00
   3.194724e+01   8.651244e+01
  -7.958859e+01   1.092755e+02
  -1.931107e+02   1.790978e+01
  -1.776609e+02  -1.324507e+02
  -3.215517e+00  -2.169637e+02
   1.716816e+02  -1.508902e+02
   1.919673e+02   1.304781e+01
   5.550471e+01   1.248842e+02
  -7.569792e+01   1.104801e+02
  -8.992281e+01   2.167851e+01
  -2.332639e+01  -3.524848e+01
   2.166833e+01  -2.169269e+01
  -3.621076e+00   7.349478e+00
  -6.311310e+01  -9.491015e+00
  -7.910740e+01  -8.101918e+01
  -4.333539e+00  -1.513293e+02
   1.360307e+02  -1.375261e+02
   2.302087e+02  -8.361945e+00
   1.846831e+02   1.628170e+02
   2.287928e+01   2.410559e+02
  -1.213488e+02   1.620680e+02
  -1.382355e+02   1.714932e+01
  -6.600588e+01  -6.269347e+01
  -2.221423e+01  -3.923336e+01
  -4.969435e+01   1.118261e+01
  -7.788889e+01   4.964775e+00
  -3.848788e+01  -4.845221e+01
   3.981493e+01  -8.707570e+01
   9.948547e+01  -4.799835e+01
   7.967069e+01   4.342093e+01
  -1.871311e+01   1.115643e+02
  -1.463247e+02   7.776625e+01
  -1.996006e+02  -6.228074e+01
  -9.114856e+01  -2.099057e+02
   1.156829e+02  -2.256613e+02
   2.758691e+02  -1.010559e+02
   2.471133e+02   9.582546e+01
   9.683508e+01   1.782074e+02
  -4.762624e+01   1.381734e+02
  -9.385932e+01   7.231635e+01
  -7.165046e+01   5.862292e+01
  -6.293415e+01   8.322735e+01
  -9.671385e+01   6.837342e+01
  -1.298071e+02  -2.795852e+01
  -1.090396e+02  -1.574209e+02
  -1.306156e+01  -2.207731e+02
   1.117224e+02  -1.574284e+02
   1.767141e+02  -5.804850e+00
   1.237150e+02   1.286013e+02
   6.567716e+00   1.557209e+02
  -7.136216e+01   8.276218e+01
  -5.879234e+01  -8.504021e+00
  -2.358308e+00  -4.428344e+01
   1.282373e+01  -2.920857e+01
  -3.180397e+01  -1.461489e+01
  -7.149236e+01  -2.524842e+01
  -3.830191e+01  -4.111287e+01
   6.705605e+01  -3.622904e+01
   1.504148e+02   4.481888e+00
   1.306229e+02   6.237272e+01
   7.490751e+00   9.318326e+01
  -1.227096e+02   6.680645e+01
  -1.398564e+02   3.997491e+00
  -4.494635e+01  -4.471480e+01
   6.076377e+01  -3.451409e+01
   7.561124e+01   2.156038e+01
   1.907555e+00   6.871120e+01
  -6.119008e+01   4.982159e+01
  -6.343823e+01  -9.763746e+00
  -3.892912e+01  -5.395281e+01
  -3.336815e+01  -4.230352e+01
  -5.370762e+01  -7.618482e+00
  -6.181734e+01  -5.847081e+00
  -3.130814e+01  -6.829317e+01
   4.218998e+01  -1.399566e+02
   1.246756e+02  -1.292292e+02
   1.656701e+02  -2.029990e+01
   1.149497e+02   1.001981e+02
  -1.296512e+00   1.285227e+02
  -8.612838e+01   5.758929e+01
  -5.773761e+01  -1.845210e+01
   5.262687e+01  -1.697314e+01
   1.222579e+02   4.683149e+01
   6.540512e+01   1.059422e+02
  -7.917604e+01   1.006453e+02
  -1.837674e+02   3.601417e+01
  -1.528835e+02  -4.699677e+01
  -2.807280e+01  -8.558346e+01
   6.365368e+01  -5.965310e+01
   4.531331e+01   3.129740e-01
  -4.270004e+01   2.536686e+01
  -8.928540e+01  -3.005360e+01
  -2.429504e+01  -1.206214e+02
   9.905471e+01  -1.429542e+02
   1.663091e+02  -4.524045e+01
   1.133599e+02   1.083632e+02
  -7.994054e+00   1.859867e+02
  -9.228862e+01   1.197915e+02
  -9.832477e+01  -2.156745e+01
  -5.097228e+01  -1.182406e+02
   9.069906e+00  -9.692812e+01
   4.728219e+01  -1.450786e+01
   4.551448e+01   3.225355e+01
   2.010800e+01   7.004629e+00
   6.106427e+00  -2.385611e+01
   2.775826e+01   1.293738e+01
   5.607777e+01   8.841882e+01
   3.345566e+01   1.116786e+02
  -5.448879e+01   4.408108e+01
  -1.342133e+02  -4.469266e+01
  -1.161046e+02  -7.812537e+01
  -4.721628e+00  -5.018718e+01
   8.828214e+01  -1.764126e+01
   8.232979e+01   1.969873e+00
   6.828780e+00   1.072171e+01
  -3.733736e+01   2.033626e+01
  -1.704100e+01   1.523784e+01
   1.844243e+01  -1.077035e+00
  -6.397266e+00  -7.082779e+00
  -6.916560e+01  -4.912362e+00
  -8.401117e+01  -2.753741e+01
  -1.173851e+00  -8.159268e+01
   1.188267e+02  -1.076771e+02
   1.807361e+02  -4.728900e+01
   1.301565e+02   7.493814e+01
   1.744209e+01   1.597790e+02
  -8.203340e+01   1.393273e+02
  -1.119134e+02   4.831487e+01
  -7.622428e+01  -2.706549e+01
  -2.143731e+01  -3.836910e+01
   3.661068e+00  -7.205099e+00
  -1.095454e+01  -3.079849e+00
  -3.018405e+01  -4.291708e+01
  -1.266350e+01  -8.746990e+01
   3.646996e+01  -6.520717e+01
   7.888773e+01   2.653613e+01
   6.585619e+01   1.081885e+02
  -7.603999e+00   1.038780e+02
  -8.330836e+01   1.359784e+01
  -9.244443e+01  -8.306062e+01
  -1.801938e+01  -1.041965e+02
   7.201201e+01  -4.876092e+01
   9.390869e+01   2.027444e+01
   3.309553e+01   5.553452e+01
  -3.596112e+01   4.991032e+01
  -3.047788e+01   2.481277e+01
   3.201857e+01  -5.195412e-01
   6.149855e+01  -1.611358e+00
   8.246552e+00   2.893855e+01
  -7.980618e+01   5.867425e+01
  -1.107991e+02   4.129327e+01
  -5.868758e+01  -2.016344e+01
   2.104563e+01  -7.697852e+01
   5.437487e+01  -6.630726e+01
   3.407303e+01  -6.245581e-02
  -5.500557e+00   5.444778e+01
  -3.017057e+01   3.497567e+01
  -3.203441e+01  -2.346418e+01
  -1.726085e+01  -5.303612e+01
   9.751187e+00  -2.866950e+01
   3.097115e+01   1.269129e+01
   3.340955e+01   2.381383e+01
   1.666143e+01   1.172920e+00
   1.655148e+00  -1.467845e+01
  -3.701210e+00   1.717796e+00
  -6.319222e+00   3.624377e+01
  -1.921082e+01   4.383151e+01
  -3.233908e+01   6.958219e+00
  -2.820553e+01  -4.527231e+01
   5.760577e+00  -6.013064e+01
   4.727178e+01  -1.798018e+01
   5.454472e+01   4.302857e+01
   8.852716e+00   6.468742e+01
  -5.924013e+01   3.175663e+01
  -8.776446e+01  -1.919566e+01
  -4.449851e+01  -4.790732e+01
   3.095102e+01  -3.973406e+01
   6.278107e+01  -1.847964e+01
   2.283471e+01  -1.091960e+00
  -3.416351e+01  -3.206366e+00
  -3.299401e+01  -1.912253e+01
   3.252573e+01  -3.125996e+01
   8.877913e+01  -1.056494e+01
