
 $NMID
 id='ANONYMOUS ', fmtdat='(2E16.6)'
 volume=1.0
 tramp=1.0
 $END
   4.152285e+03   4.240135e+02
   2.303709e+03   2.826448e+03
  -8.434812e+02   2.507514e+03
  -2.037658e+03   7.318286e+02
  -9.002936e+02  -5.796867e+02
   5.516279e+02  -5.190820e+02
   7.781313e+02   3.608237e+02
  -1.343786e+01   9.471354e+02
  -7.694181e+02   7.256501e+02
  -8.730830e+02  -6.065820e+01
  -4.426068e+02  -7.577059e+02
   2.073674e+02  -8.474127e+02
   5.729203e+02  -1.221616e+02
   3.509046e+02   6.679832e+02
  -2.294374e+02   7.839103e+02
  -5.623280e+02   1.087726e+00
  -2.722045e+02  -6.677343e+02
   3.061452e+02  -6.558671e+02
   5.753763e+02  -1.341603e+02
   3.997981e+02   3.314244e+02
   2.621277e+01   4.553848e+02
  -2.403386e+02   2.563567e+02
  -1.961702e+02   1.859238e+01
   1.451059e+02  -5.268569e+01
   3.747145e+02   1.729160e+02
   1.199773e+02   4.373930e+02
  -5.033503e+02   3.305625e+02
  -8.170546e+02  -1.904555e+02
  -3.537701e+02  -5.606718e+02
   4.145634e+02  -4.081585e+02
   7.161994e+02   8.166356e+01
   3.143827e+02   4.735264e+02
  -2.756918e+02   4.829339e+02
  -5.485102e+02   1.829668e+02
  -4.052709e+02  -2.160284e+02
  -6.856995e+01  -4.363819e+02
   1.579441e+02  -2.587833e+02
   1.114391e+02   1.935027e+02
  -1.906315e+02   3.506656e+02
  -3.847304e+02  -6.570227e+01
  -1.530761e+02  -6.483972e+02
   3.258216e+02  -6.236690e+02
   5.381554e+02   1.374114e+01
   2.122940e+02   5.058974e+02
  -2.767843e+02   2.764044e+02
  -3.379746e+02  -3.137985e+02
   9.495621e+01  -5.079095e+02
   5.621186e+02  -9.815901e+01
   5.671721e+02   4.113053e+02
   1.387710e+02   5.739494e+02
  -3.815533e+02   3.197712e+02
  -5.995434e+02  -9.307825e+01
  -3.506389e+02  -3.655070e+02
   1.488387e+02  -3.161959e+02
   4.067238e+02  -4.463199e+01
   2.086933e+02   1.751160e+02
  -1.143402e+02   9.192539e+01
  -1.257355e+02  -1.430193e+02
   1.575106e+02  -1.722046e+02
   3.198354e+02   6.511169e+01
   1.339736e+02   2.842933e+02
  -1.928379e+02   2.637115e+02
  -3.395692e+02   8.779811e+01
  -2.187598e+02  -9.218670e+01
   2.621160e+01  -2.643653e+02
   2.407462e+02  -3.447191e+02
   3.445740e+02  -1.879935e+02
   2.749543e+02   1.570393e+02
   6.433845e+01   4.132623e+02
  -9.884430e+01   3.595263e+02
  -8.283324e+01   1.226198e+02
  -1.946450e+01   1.990744e+01
  -6.311806e+01   1.001120e+02
  -2.159302e+02   1.211842e+02
  -2.687360e+02  -6.611477e+01
  -1.424313e+02  -2.720915e+02
   7.743642e+01  -2.476280e+02
   2.206791e+02   7.477566e+00
   1.871340e+02   2.517506e+02
  -2.743266e+01   2.891405e+02
  -2.721569e+02   9.782211e+01
  -3.532281e+02  -1.785610e+02
  -1.824258e+02  -3.477828e+02
   9.806796e+01  -3.040243e+02
   2.247666e+02  -1.333713e+02
   1.614571e+02  -2.505249e+01
   1.037775e+02  -3.349524e+01
   2.295570e+02  -5.120377e+01
   4.073838e+02   6.042979e+01
   3.470839e+02   2.806506e+02
   2.888005e-01   4.515289e+02
  -3.837563e+02   4.245199e+02
  -5.166294e+02   1.967972e+02
  -3.287319e+02  -1.107298e+02
  -3.168172e+01  -2.970221e+02
   1.399680e+02  -2.364043e+02
   7.056588e+01  -2.080296e+01
  -1.188549e+02   1.000233e+02
  -1.829292e+02  -1.389397e+01
  -3.512798e+01  -1.850381e+02
   1.529543e+02  -1.780638e+02
   1.581073e+02   5.926980e+01
  -2.143438e+01   1.690734e+02
  -1.883680e+02   2.229490e+01
  -1.577612e+02  -2.505537e+02
   3.953825e+01  -3.471785e+02
   2.417342e+02  -1.874063e+02
   3.375497e+02   7.460194e+01
   2.675593e+02   2.569946e+02
   8.150925e+01   2.688420e+02
  -1.151913e+02   1.542955e+02
  -1.656340e+02   1.772209e+01
  -5.237140e+01  -1.805888e+01
   6.031563e+01   4.825111e+01
   1.272869e+01   1.229417e+02
  -1.277933e+02   8.626247e+01
  -1.709442e+02  -2.055576e+01
  -5.042732e+01  -7.150063e+01
   7.982068e+01  -9.840661e+00
   5.073443e+01   8.013624e+01
  -1.301153e+02   9.037763e+01
  -2.863733e+02  -3.976769e+00
  -2.561091e+02  -1.528151e+02
  -4.983488e+01  -2.607819e+02
   1.916256e+02  -2.541059e+02
   2.788715e+02  -1.163221e+02
   1.618268e+02   5.579956e+01
  -2.522692e+01   1.037246e+02
  -8.171447e+01   3.757421e+00
   4.213464e+01  -9.019023e+01
   1.853632e+02  -4.857123e+01
   1.956363e+02   1.094067e+02
   5.706078e+01   2.021146e+02
  -9.968516e+01   1.448072e+02
  -1.423208e+02   1.210703e+01
  -6.390232e+01  -4.879953e+01
   3.239960e+01   2.181722e+00
   3.386946e+01   9.066743e+01
  -7.815044e+01   1.118199e+02
  -2.004407e+02   2.111714e+01
  -1.856287e+02  -1.312547e+02
  -1.621381e+01  -2.156832e+02
   1.632376e+02  -1.541343e+02
   1.888705e+02  -4.357017e-02
   6.109171e+01   1.090305e+02
  -6.622180e+01   1.050345e+02
  -8.045353e+01   2.566627e+01
  -1.579415e+01  -2.957906e+01
   2.693480e+01  -1.790515e+01
  -8.151056e+00   1.451482e+01
  -7.597401e+01  -4.583311e+00
  -9.368444e+01  -8.554494e+01
  -1.185609e+01  -1.668400e+02
   1.367409e+02  -1.525226e+02
   2.416668e+02  -1.830476e+01
   2.022191e+02   1.577161e+02
   3.467594e+01   2.409706e+02
  -1.140517e+02   1.670878e+02
  -1.383504e+02   2.362201e+01
  -7.102925e+01  -5.465530e+01
  -2.572129e+01  -3.224583e+01
  -5.172799e+01   1.786100e+01
  -8.342654e+01   4.796669e+00
  -4.920978e+01  -5.205567e+01
   3.634356e+01  -9.050341e+01
   1.066984e+02  -5.783527e+01
   8.810152e+01   3.895406e+01
  -1.827562e+01   1.159446e+02
  -1.504433e+02   8.179987e+01
  -1.987392e+02  -6.471376e+01
  -9.013658e+01  -2.096685e+02
   1.209293e+02  -2.197816e+02
   2.823301e+02  -1.006085e+02
   2.538850e+02   9.402274e+01
   1.053609e+02   1.772396e+02
  -3.844364e+01   1.443954e+02
  -9.487388e+01   8.916183e+01
  -8.009943e+01   7.657780e+01
  -6.934791e+01   9.564492e+01
  -9.652346e+01   7.276187e+01
  -1.306587e+02  -2.389512e+01
  -1.159893e+02  -1.560761e+02
  -2.626605e+01  -2.284971e+02
   9.981727e+01  -1.708207e+02
   1.765574e+02  -1.356529e+01
   1.339066e+02   1.253537e+02
   1.618449e+01   1.585617e+02
  -6.933487e+01   8.984970e+01
  -5.797953e+01  -3.275622e+00
   6.379082e-01  -4.363290e+01
   1.588890e+01  -3.215585e+01
  -3.770809e+01  -1.567532e+01
  -8.218566e+01  -2.162096e+01
  -4.476456e+01  -3.917139e+01
   6.747494e+01  -3.761657e+01
   1.642953e+02  -1.828151e+00
   1.442988e+02   5.182544e+01
   1.048166e+01   9.074865e+01
  -1.250625e+02   7.220177e+01
  -1.435959e+02   9.021216e+00
  -4.506840e+01  -4.244256e+01
   6.113052e+01  -3.791522e+01
   8.195809e+01   2.074313e+01
   1.039609e+01   6.976314e+01
  -5.099025e+01   5.725343e+01
  -6.480759e+01  -2.680953e+00
  -4.661554e+01  -5.276998e+01
  -4.019596e+01  -4.022910e+01
  -5.722720e+01   3.061042e+00
  -6.782614e+01   3.904106e+00
  -4.038423e+01  -6.745783e+01
   3.177032e+01  -1.489862e+02
   1.189052e+02  -1.457830e+02
   1.714788e+02  -3.018417e+01
   1.237574e+02   9.512899e+01
   1.870416e+00   1.290366e+02
  -8.779152e+01   6.100210e+01
  -5.731736e+01  -1.580120e+01
   6.102512e+01  -2.107020e+01
   1.341696e+02   4.483309e+01
   6.975276e+01   1.090593e+02
  -7.996350e+01   1.104465e+02
  -1.881601e+02   4.253421e+01
  -1.589886e+02  -3.543956e+01
  -3.594537e+01  -8.344344e+01
   5.935288e+01  -6.776906e+01
   4.583159e+01  -6.937084e+00
  -4.020758e+01   2.520337e+01
  -8.781988e+01  -2.650776e+01
  -2.760387e+01  -1.193655e+02
   9.378958e+01  -1.492308e+02
   1.616377e+02  -5.140415e+01
   1.214612e+02   1.072214e+02
   4.838240e+00   1.972098e+02
  -8.683610e+01   1.385031e+02
  -1.011737e+02  -9.645520e+00
  -5.705663e+01  -1.170749e+02
   1.649220e+00  -1.008873e+02
   4.299678e+01  -1.961710e+01
   4.790539e+01   2.979737e+01
   2.253500e+01   4.864717e+00
   6.664410e+00  -1.999536e+01
   2.481014e+01   2.076182e+01
   5.590323e+01   9.169714e+01
   3.312725e+01   1.058374e+02
  -5.187355e+01   4.325665e+01
  -1.390468e+02  -4.286613e+01
  -1.285309e+02  -7.319940e+01
  -1.800921e+01  -5.320676e+01
   8.906472e+01  -2.454638e+01
   9.088906e+01  -9.258093e+00
   1.367043e+01   5.960744e+00
  -3.678742e+01   2.123727e+01
  -1.762040e+01   1.591833e+01
   1.978601e+01  -1.968701e+00
  -2.551497e+00  -7.185256e+00
  -6.669120e+01  -8.370033e-02
  -8.844447e+01  -2.001920e+01
  -1.264223e+01  -7.686042e+01
   1.076653e+02  -1.094972e+02
   1.758695e+02  -5.942226e+01
   1.380396e+02   5.841119e+01
   2.524773e+01   1.512738e+02
  -7.497445e+01   1.442405e+02
  -1.081191e+02   5.959937e+01
  -7.417138e+01  -2.101965e+01
  -2.274420e+01  -3.692046e+01
  -4.486952e-01  -1.030994e+01
  -1.258742e+01  -3.129259e+00
  -3.253883e+01  -4.604835e+01
  -2.171821e+01  -8.665935e+01
   2.880254e+01  -7.032336e+01
   7.995233e+01   1.885053e+01
   7.806492e+01   1.060288e+02
   5.305874e+00   1.082447e+02
  -8.160725e+01   2.551733e+01
  -1.019190e+02  -7.270724e+01
  -3.059131e+01  -1.030186e+02
   6.845763e+01  -5.600429e+01
   1.002009e+02   1.261631e+01
   3.848214e+01   5.204774e+01
  -3.707084e+01   5.170939e+01
  -3.378079e+01   2.274627e+01
   3.317700e+01  -2.382037e+00
   6.769480e+01  -5.722495e+00
   1.479316e+01   2.883116e+01
  -7.801592e+01   6.692971e+01
  -1.112125e+02   5.638734e+01
  -6.484979e+01  -1.471148e+01
   1.118849e+01  -8.237324e+01
   4.857053e+01  -7.880362e+01
   3.876318e+01  -7.807209e+00
   3.112434e+00   5.534010e+01
  -2.505321e+01   4.385696e+01
  -3.762989e+01  -1.564963e+01
  -2.903302e+01  -5.398320e+01
   9.024936e-01  -3.202508e+01
   3.087923e+01   8.309060e+00
   3.790616e+01   2.064463e+01
   1.903396e+01  -3.281132e-01
  -6.722708e-01  -1.548444e+01
  -5.773525e+00   6.458734e-01
  -4.467701e+00   3.493145e+01
  -1.492371e+01   4.530189e+01
  -3.184502e+01   7.966403e+00
  -3.288951e+01  -4.352926e+01
  -1.545172e-01  -5.836373e+01
   4.475433e+01  -1.952852e+01
   5.479939e+01   3.834404e+01
   1.115452e+01   6.131187e+01
  -5.719312e+01   3.133797e+01
  -8.673730e+01  -1.690955e+01
  -4.455939e+01  -4.322432e+01
   3.125457e+01  -4.058850e+01
   6.122212e+01  -2.152457e+01
   2.063880e+01  -4.791476e+00
  -3.729251e+01   9.529468e-02
  -3.596295e+01  -1.340013e+01
   2.991203e+01  -3.055468e+01
   8.726624e+01  -2.144377e+01
