
 $NMID
 id='ANONYMOUS ', fmtdat='(2E16.6)'
 volume=1.0
 tramp=1.0
 $END
   2.317523e+03  -4.898933e+01
   1.699856e+03   9.829004e+02
   3.559764e+02   1.504003e+03
  -7.464556e+02   1.224133e+03
  -8.039960e+02   5.492552e+02
  -2.961053e+02   1.361209e+01
   1.528176e+02   9.164743e+00
   2.411021e+01   3.090762e+02
  -2.832729e+02   4.170003e+02
  -4.466544e+02   1.263764e+02
  -3.215674e+02  -3.548248e+02
  -9.898039e+01  -4.882777e+02
   1.480137e+02  -1.808024e+02
   1.706078e+02   2.587943e+02
  -3.747921e+01   4.756858e+02
  -2.686698e+02   9.559208e+01
  -2.597489e+02  -3.551193e+02
   5.040954e+01  -5.209983e+02
   3.703436e+02  -2.950349e+02
   4.033729e+02   8.417192e+01
   1.557630e+02   2.771468e+02
  -5.837262e+01   2.117646e+02
   4.916185e+00   1.028295e+02
   1.917610e+02   1.669495e+02
   1.773747e+02   3.119782e+02
  -1.038136e+02   2.911432e+02
  -4.348297e+02   4.650823e+01
  -4.560751e+02  -2.256752e+02
  -1.033730e+02  -2.603387e+02
   2.709958e+02  -5.518674e+01
   3.518401e+02   1.950090e+02
   8.620893e+01   2.864186e+02
  -2.474427e+02   2.286700e+02
  -3.709559e+02   7.115381e+01
  -2.445491e+02  -1.207831e+02
  -7.453196e+01  -2.146878e+02
  -3.405750e+01  -1.344855e+02
  -1.225671e+02   1.743237e+01
  -1.503936e+02   2.170193e+01
  -6.342086e+01  -1.613596e+02
   1.304534e+02  -3.367019e+02
   2.136649e+02  -2.539287e+02
   1.725586e+02   1.982486e+01
   1.800854e+01   1.993355e+02
  -9.761101e+01   5.375833e+01
  -7.427950e+01  -2.197716e+02
   1.301793e+02  -2.773827e+02
   3.573300e+02   1.553704e+01
   3.720923e+02   3.231274e+02
   9.654631e+01   3.916300e+02
  -2.377772e+02   1.797384e+02
  -3.880356e+02  -5.521910e+01
  -2.778787e+02  -1.655725e+02
  -1.337163e+01  -1.539412e+02
   1.907745e+02  -9.895044e+01
   1.959138e+02  -5.013735e+01
   6.824388e+01  -7.715358e+00
  -1.789548e-01   5.994414e+00
   6.922809e+01   3.693643e+00
   1.714743e+02   4.358753e+01
   1.135812e+02   1.438129e+02
  -1.246696e+02   2.178662e+02
  -3.241097e+02   1.377053e+02
  -2.656315e+02  -8.984746e+01
   1.860229e+01  -3.111604e+02
   3.118491e+02  -3.408131e+02
   3.471698e+02  -1.087992e+02
   1.784212e+02   1.694788e+02
   1.227570e+01   3.005118e+02
  -9.710656e+00   2.577093e+02
   1.571178e+01   1.722641e+02
  -4.196936e+01   1.445841e+02
  -1.743039e+02   1.142234e+02
  -2.577560e+02   6.512557e+00
  -1.972150e+02  -1.503884e+02
  -3.343538e+01  -2.354620e+02
   1.112572e+02  -1.394012e+02
   1.518922e+02   7.220028e+01
   7.294908e+01   2.290162e+02
  -7.093318e+01   1.922700e+02
  -2.090505e+02   1.156003e+01
  -2.315106e+02  -1.731891e+02
  -1.225314e+02  -2.407093e+02
   4.514203e+01  -2.043287e+02
   1.371756e+02  -1.293957e+02
   1.336663e+02  -8.165283e+01
   1.575958e+02  -6.073601e+01
   2.559195e+02  -4.225661e+00
   3.490657e+02   1.237329e+02
   2.474456e+02   2.877585e+02
  -6.257584e+01   3.818131e+02
  -3.750210e+02   3.170979e+02
  -4.360376e+02   1.047900e+02
  -2.229149e+02  -1.123570e+02
   2.120564e+01  -2.019703e+02
   7.924713e+01  -1.361161e+02
  -2.262406e+01  -3.801447e+01
  -1.117086e+02  -9.854577e+00
  -8.970987e+01  -5.473424e+01
   1.739011e+01  -9.739232e+01
   9.684978e+01  -7.732045e+01
   6.812888e+01   4.578387e+01
  -4.454223e+01   7.756267e+01
  -1.268318e+02  -2.852603e+01
  -1.080866e+02  -2.170007e+02
   3.536652e+01  -2.944871e+02
   2.250543e+02  -1.691935e+02
   3.140855e+02   7.464706e+01
   2.241580e+02   2.470479e+02
   2.307213e+01   2.466691e+02
  -1.306205e+02   1.069193e+02
  -1.228961e+02  -1.222235e+01
  -2.393926e+01  -1.414828e+01
   3.737455e+01   6.562001e+01
  -2.198509e+01   9.694659e+01
  -1.127614e+02   3.768538e+01
  -1.187709e+02  -3.393300e+01
  -1.153401e+01  -4.068206e+01
   7.377394e+01   2.906045e+01
   1.916534e+01   9.272734e+01
  -1.530264e+02   6.666326e+01
  -2.821751e+02  -5.407338e+01
  -2.216595e+02  -1.850296e+02
   9.563879e+00  -2.444495e+02
   2.156359e+02  -1.872722e+02
   2.365720e+02  -5.525529e+01
   9.730319e+01   4.675658e+01
  -3.461106e+01   5.430435e+01
  -4.509402e+01  -1.360552e+01
   6.050956e+01  -5.943656e+01
   1.540916e+02  -1.205792e+01
   1.423446e+02   9.631413e+01
   3.272810e+01   1.539269e+02
  -7.923914e+01   1.052590e+02
  -9.756975e+01   9.371257e+00
  -2.631163e+01  -2.777852e+01
   4.256206e+01   3.206754e+01
   1.131120e+01   1.080009e+02
  -1.063671e+02   1.024136e+02
  -1.955700e+02  -5.291713e+00
  -1.488111e+02  -1.320378e+02
   4.445337e+00  -1.823952e+02
   1.347084e+02  -1.229394e+02
   1.421981e+02  -7.014697e+00
   4.135157e+01   7.424012e+01
  -5.069335e+01   6.929269e+01
  -5.302158e+01   1.279658e+01
   7.374225e+00  -2.143565e+01
   3.994908e+01   2.105362e+00
  -8.817970e+00   3.431142e+01
  -8.732360e+01   4.241277e+00
  -9.679823e+01  -9.254642e+01
   4.102871e+00  -1.688405e+02
   1.480318e+02  -1.308938e+02
   2.175573e+02   1.443901e+01
   1.564592e+02   1.596905e+02
   1.534117e+01   2.012089e+02
  -9.736676e+01   1.341912e+02
  -1.108116e+02   2.282353e+01
  -6.277261e+01  -3.851571e+01
  -3.205888e+01  -2.481378e+01
  -5.525596e+01   1.490004e+01
  -8.422274e+01   1.534658e+00
  -5.692692e+01  -5.849270e+01
   4.138993e+01  -9.904379e+01
   1.221220e+02  -5.953023e+01
   1.046861e+02   5.064749e+01
  -2.602646e+01   1.262762e+02
  -1.620868e+02   7.604840e+01
  -1.876335e+02  -7.687581e+01
  -6.218542e+01  -1.967329e+02
   1.257182e+02  -1.836592e+02
   2.513048e+02  -7.184210e+01
   2.069415e+02   9.532945e+01
   7.312109e+01   1.601659e+02
  -4.542974e+01   1.221076e+02
  -8.691390e+01   5.905359e+01
  -6.614186e+01   5.228470e+01
  -5.485698e+01   8.362654e+01
  -8.663130e+01   6.835969e+01
  -1.196253e+02  -2.527983e+01
  -9.622962e+01  -1.435132e+02
  -3.063210e+00  -2.012157e+02
   1.023700e+02  -1.351501e+02
   1.491086e+02   1.180522e+01
   9.671262e+01   1.293941e+02
  -1.200270e+01   1.404081e+02
  -8.172426e+01   6.032027e+01
  -5.927856e+01  -2.659166e+01
   1.053103e+01  -5.602299e+01
   3.481247e+01  -3.530936e+01
  -1.846285e+01  -9.500261e+00
  -7.576832e+01  -1.578819e+01
  -4.478155e+01  -3.858651e+01
   7.228274e+01  -3.276195e+01
   1.601222e+02   1.260967e+01
   1.218599e+02   7.226858e+01
  -1.651536e+01   9.240166e+01
  -1.350387e+02   5.952545e+01
  -1.314597e+02  -4.638233e+00
  -3.355977e+01  -5.295096e+01
   5.605281e+01  -4.156768e+01
   7.312501e+01   1.452088e+01
   1.593862e+01   6.965342e+01
  -4.029735e+01   6.035432e+01
  -6.446273e+01   4.846259e-02
  -5.446029e+01  -4.916221e+01
  -4.262363e+01  -4.147228e+01
  -4.985747e+01  -5.402616e+00
  -6.125460e+01  -6.808511e+00
  -4.180960e+01  -7.319291e+01
   3.238186e+01  -1.433982e+02
   1.294383e+02  -1.266431e+02
   1.721250e+02  -2.108437e+01
   1.169858e+02   9.469153e+01
  -7.047174e+00   1.225701e+02
  -8.937201e+01   6.112385e+01
  -5.694212e+01  -9.433545e+00
   5.124595e+01  -1.350013e+01
   1.113616e+02   4.540992e+01
   5.328831e+01   9.960552e+01
  -8.458498e+01   9.309372e+01
  -1.730354e+02   2.689355e+01
  -1.394464e+02  -5.336822e+01
  -1.991075e+01  -8.201326e+01
   6.334029e+01  -4.866525e+01
   4.359110e+01   6.334548e+00
  -3.744056e+01   2.686227e+01
  -8.034919e+01  -1.930421e+01
  -3.145744e+01  -1.018708e+02
   7.113231e+01  -1.377777e+02
   1.320239e+02  -6.146465e+01
   1.063086e+02   8.256794e+01
   7.432312e+00   1.695278e+02
  -7.912902e+01   1.195163e+02
  -9.262337e+01  -1.792839e+01
  -4.257738e+01  -1.131944e+02
   2.017042e+01  -9.151266e+01
   4.878616e+01  -1.137178e+01
   3.870865e+01   2.999221e+01
   1.595923e+01   7.992171e+00
   9.493646e+00  -1.037337e+01
   2.746836e+01   2.534157e+01
   4.318494e+01   8.034231e+01
   1.718613e+01   8.737110e+01
  -5.389407e+01   3.057025e+01
  -1.136687e+02  -3.904343e+01
  -1.011635e+02  -6.506243e+01
  -1.510808e+01  -4.512216e+01
   6.849324e+01  -2.006574e+01
   7.471944e+01   1.873027e+00
   1.786108e+01   1.310357e+01
  -2.994344e+01   1.596561e+01
  -1.963238e+01   8.405988e+00
   1.046631e+01  -4.651064e+00
  -2.391079e+00  -2.935742e+00
  -5.611506e+01   3.273013e-01
  -8.215593e+01  -2.097334e+01
  -1.974772e+01  -7.238081e+01
   9.391386e+01  -1.060874e+02
   1.657345e+02  -6.395653e+01
   1.361301e+02   4.530946e+01
   3.034644e+01   1.375066e+02
  -7.007064e+01   1.377456e+02
  -9.980590e+01   5.900132e+01
  -6.559865e+01  -1.561329e+01
  -2.312271e+01  -3.268081e+01
  -6.750360e+00  -1.187852e+01
  -1.557688e+01  -9.875991e+00
  -2.422986e+01  -4.709309e+01
  -1.081995e+01  -8.374586e+01
   2.773183e+01  -6.168037e+01
   6.526903e+01   1.560253e+01
   6.812179e+01   8.515475e+01
   1.584665e+01   9.367727e+01
  -6.150221e+01   2.877151e+01
  -8.856875e+01  -5.448596e+01
  -3.546545e+01  -9.277793e+01
   5.661937e+01  -5.821965e+01
   9.514623e+01   8.433322e+00
   4.156941e+01   5.706606e+01
  -3.183978e+01   5.965616e+01
  -3.736982e+01   2.505828e+01
   2.052156e+01  -8.076713e+00
   5.842278e+01  -7.833038e+00
   1.454357e+01   2.641672e+01
  -7.225456e+01   5.490346e+01
  -1.109825e+02   4.001577e+01
  -6.405875e+01  -2.203781e+01
   1.486207e+01  -7.395434e+01
   5.929790e+01  -6.939671e+01
   4.512924e+01  -1.087496e+01
   6.511791e+00   4.657747e+01
  -2.381151e+01   4.555588e+01
  -3.480424e+01  -6.650278e+00
  -2.723232e+01  -4.946766e+01
   2.964540e-01  -3.980910e+01
   3.013008e+01   3.074409e+00
   3.952273e+01   2.807251e+01
   2.028941e+01   9.826327e+00
  -4.655530e+00  -1.888861e+01
  -7.854213e+00  -1.381025e+01
   5.919529e+00   2.574705e+01
   5.409611e+00   5.084726e+01
  -2.037085e+01   2.711659e+01
  -4.013889e+01  -2.665342e+01
  -1.707932e+01  -5.539031e+01
   3.603150e+01  -2.598154e+01
   5.953720e+01   2.677180e+01
   1.928107e+01   5.276328e+01
  -5.159239e+01   3.170566e+01
  -8.177340e+01  -9.346045e+00
  -4.366039e+01  -3.630815e+01
   2.776576e+01  -3.910183e+01
   5.905796e+01  -2.710073e+01
   2.914073e+01  -7.285565e+00
  -2.059201e+01   5.953862e+00
  -2.755377e+01   1.367533e-01
   1.605336e+01  -1.781031e+01
   6.284019e+01  -1.814340e+01
