
 $NMID
 id='ANONYMOUS ', fmtdat='(2E16.6)'
 volume=1.0
 tramp=1.0
 $END
  -1.424338e+03   4.257475e+01
  -1.346849e+03  -6.246205e+02
  -4.195946e+02  -1.093476e+03
   4.601135e+02  -9.247005e+02
   5.596394e+02  -4.489874e+02
   2.462133e+02  -3.879874e+01
  -8.239907e+01   2.077134e+01
  -6.158665e+01  -1.521530e+02
   1.373771e+02  -2.597773e+02
   2.573846e+02  -1.270971e+02
   1.966565e+02   1.846833e+02
   1.022220e+02   2.968221e+02
  -5.524740e+01   1.367897e+02
  -9.380999e+01  -1.266395e+02
  -2.801461e+01  -3.061864e+02
   1.216905e+02  -9.194939e+01
   1.497040e+02   1.837568e+02
  -2.264065e+01   3.135997e+02
  -2.044509e+02   1.802428e+02
  -2.196341e+02  -4.910229e+01
  -8.153326e+01  -1.644126e+02
   2.649851e+01  -1.294869e+02
   3.472743e+00  -7.105487e+01
  -1.003053e+02  -1.029550e+02
  -8.843191e+01  -1.731636e+02
   6.053419e+01  -1.505639e+02
   2.257359e+02  -1.261433e+01
   2.522018e+02   1.231460e+02
   6.846500e+01   1.124078e+02
  -1.315698e+02  -8.878785e+00
  -1.787712e+02  -1.253150e+02
  -5.155243e+01  -1.492454e+02
   1.341945e+02  -1.127753e+02
   2.097744e+02  -4.514449e+01
   1.464714e+02   5.442636e+01
   4.686155e+01   1.151355e+02
   3.361484e+01   8.246039e+01
   8.540348e+01   2.053569e+00
   9.354610e+01  -7.934603e+00
   2.595600e+01   7.328632e+01
  -7.958409e+01   1.736574e+02
  -1.093460e+02   1.471998e+02
  -6.929190e+01   1.150190e+01
   5.439552e+00  -8.336690e+01
   4.022925e+01  -1.322898e+01
   2.442186e+01   1.338339e+02
  -7.592363e+01   1.551330e+02
  -2.006205e+02  -1.908899e+01
  -2.145741e+02  -1.789296e+02
  -6.849879e+01  -2.024963e+02
   1.150139e+02  -8.729595e+01
   2.026917e+02   2.333004e+01
   1.576364e+02   7.163020e+01
   2.551725e+01   7.057800e+01
  -1.045491e+02   6.776916e+01
  -1.336790e+02   3.252914e+01
  -6.278189e+01  -1.005285e+01
  -7.019082e+00  -2.555101e+01
  -2.501780e+01  -1.750038e+01
  -7.562131e+01  -2.166868e+01
  -5.775706e+01  -7.048673e+01
   7.060678e+01  -1.190913e+02
   1.860087e+02  -8.358617e+01
   1.511998e+02   4.859725e+01
  -1.156472e+01   1.701736e+02
  -1.769979e+02   1.902661e+02
  -2.018704e+02   6.851100e+01
  -8.901476e+01  -8.627856e+01
   9.942654e+00  -1.575540e+02
   3.091129e-02  -1.532228e+02
  -2.217748e+01  -1.177302e+02
   2.280763e+01  -9.239206e+01
   1.056457e+02  -5.587968e+01
   1.471316e+02   1.505561e+01
   1.019104e+02   8.905746e+01
   8.883729e+00   1.185157e+02
  -5.929054e+01   6.476372e+01
  -6.674111e+01  -5.031780e+01
  -2.674176e+01  -1.333518e+02
   3.950758e+01  -1.022434e+02
   1.103669e+02   3.620534e-01
   1.199447e+02   1.018247e+02
   7.113244e+01   1.307312e+02
  -1.609135e+01   1.189278e+02
  -6.770991e+01   8.200173e+01
  -7.753768e+01   4.879138e+01
  -9.883370e+01   2.577145e+01
  -1.519603e+02  -1.380779e+01
  -1.903639e+02  -8.402775e+01
  -1.254698e+02  -1.690906e+02
   5.204194e+01  -2.086800e+02
   2.282382e+02  -1.721108e+02
   2.551366e+02  -5.028011e+01
   1.166887e+02   6.262590e+01
  -1.820179e+01   1.099697e+02
  -4.282550e+01   7.733133e+01
   1.493169e+01   2.904361e+01
   6.168272e+01   1.688965e+01
   4.346843e+01   2.901461e+01
  -9.152075e+00   4.213096e+01
  -5.021886e+01   3.837470e+01
  -3.307616e+01  -2.325656e+01
   2.635253e+01  -3.565225e+01
   6.680935e+01   1.807371e+01
   6.686542e+01   1.168744e+02
  -1.170063e+01   1.637539e+02
  -1.239939e+02   1.030728e+02
  -1.846475e+02  -3.325131e+01
  -1.282277e+02  -1.307244e+02
  -1.197076e+01  -1.379608e+02
   6.957502e+01  -6.197309e+01
   6.504762e+01   1.187670e+00
   1.512244e+01   1.857214e+00
  -1.374675e+01  -3.667785e+01
   1.520381e+01  -4.894675e+01
   6.087335e+01  -1.610338e+01
   6.476277e+01   1.918997e+01
   7.716814e+00   1.583695e+01
  -3.491150e+01  -2.122997e+01
  -3.282076e+00  -4.895593e+01
   8.957664e+01  -2.910032e+01
   1.533769e+02   4.242054e+01
   1.157731e+02   1.100098e+02
  -1.386871e+01   1.292015e+02
  -1.214671e+02   9.024823e+01
  -1.288935e+02   2.439887e+01
  -5.096863e+01  -2.328075e+01
   2.270560e+01  -2.518786e+01
   2.747093e+01   5.596329e+00
  -3.060136e+01   2.584599e+01
  -8.076909e+01   2.361162e+00
  -7.421068e+01  -4.628527e+01
  -1.612430e+01  -7.817238e+01
   4.377324e+01  -5.460456e+01
   5.694761e+01  -7.675010e+00
   1.894348e+01   1.266766e+01
  -2.010429e+01  -1.968616e+01
  -3.311345e+00  -5.583215e+01
   6.180731e+01  -4.954088e+01
   1.095187e+02   1.113923e+01
   7.917179e+01   7.720623e+01
  -1.011547e+01   9.928358e+01
  -8.079776e+01   6.501330e+01
  -8.177831e+01   4.847645e+00
  -2.176138e+01  -3.766537e+01
   2.588804e+01  -3.706245e+01
   2.614460e+01  -8.905820e+00
  -3.778770e+00   9.383788e+00
  -2.085667e+01  -2.810606e+00
   7.351020e+00  -1.718522e+01
   4.653935e+01   3.021837e+00
   4.760887e+01   5.571530e+01
  -9.529037e+00   9.244209e+01
  -8.525578e+01   6.632349e+01
  -1.163821e+02  -1.286339e+01
  -8.393161e+01  -8.744859e+01
  -1.021615e+01  -1.040713e+02
   4.987360e+01  -7.087005e+01
   5.593548e+01  -1.485816e+01
   3.185983e+01   1.740361e+01
   1.825809e+01   1.188873e+01
   3.549214e+01  -7.310089e+00
   4.949025e+01   1.138705e+00
   3.109705e+01   3.197568e+01
  -2.685257e+01   5.304837e+01
  -6.903842e+01   3.181197e+01
  -5.761134e+01  -2.612993e+01
   1.581596e+01  -6.738783e+01
   8.964809e+01  -3.891499e+01
   1.039076e+02   4.519775e+01
   3.310850e+01   1.085634e+02
  -6.822253e+01   9.732664e+01
  -1.446067e+02   3.926083e+01
  -1.167781e+02  -5.496356e+01
  -3.619608e+01  -8.457611e+01
   2.899643e+01  -6.381019e+01
   5.141128e+01  -3.065325e+01
   3.837744e+01  -2.950462e+01
   2.947305e+01  -4.582999e+01
   4.615475e+01  -3.684273e+01
   6.182353e+01   1.501077e+01
   5.414975e+01   7.784697e+01
   4.650076e+00   1.116612e+02
  -5.309467e+01   7.627477e+01
  -7.983962e+01  -5.789380e+00
  -5.169687e+01  -7.179329e+01
   5.127825e+00  -7.802192e+01
   4.490745e+01  -3.505236e+01
   3.182898e+01   1.324763e+01
  -9.106381e+00   3.047068e+01
  -2.297294e+01   1.995949e+01
   1.123217e+01   5.861467e+00
   4.346486e+01   7.872206e+00
   2.776888e+01   1.756645e+01
  -3.790952e+01   1.352582e+01
  -8.947496e+01  -1.292361e+01
  -6.744703e+01  -3.999319e+01
   1.063343e+01  -4.493719e+01
   7.593208e+01  -2.549383e+01
   7.306405e+01   4.349219e+00
   2.054979e+01   2.445503e+01
  -2.797980e+01   2.038280e+01
  -3.753131e+01  -5.775183e+00
  -1.025915e+01  -3.468210e+01
   1.790164e+01  -3.169776e+01
   3.263935e+01  -2.054701e+00
   3.281654e+01   2.438219e+01
   2.880662e+01   2.529481e+01
   2.844044e+01   7.779273e+00
   2.908071e+01   7.148708e+00
   1.679297e+01   3.849850e+01
  -2.247013e+01   7.310032e+01
  -7.075981e+01   6.550582e+01
  -9.359090e+01   9.571129e+00
  -6.297753e+01  -5.064376e+01
   4.748180e+00  -6.353274e+01
   5.020590e+01  -3.175253e+01
   3.115841e+01   1.346940e+00
  -3.028304e+01   1.667760e+00
  -6.510733e+01  -2.697266e+01
  -2.843348e+01  -5.447690e+01
   4.990913e+01  -4.971453e+01
   9.898137e+01  -1.743874e+01
   7.859929e+01   2.730891e+01
   1.064436e+01   4.508325e+01
  -3.455947e+01   2.739908e+01
  -2.473454e+01  -1.593077e-01
   2.016163e+01  -1.384073e+01
   4.395492e+01   8.935002e+00
   1.645258e+01   5.331497e+01
  -4.065570e+01   7.716491e+01
  -7.258648e+01   3.585690e+01
  -5.689579e+01  -4.635138e+01
  -9.105446e-01  -9.731484e+01
   4.211857e+01  -6.658606e+01
   4.900339e+01   9.124815e+00
   2.187866e+01   6.515484e+01
  -1.120964e+01   5.276170e+01
  -2.738085e+01   7.965029e+00
  -2.075515e+01  -1.850656e+01
  -7.393370e+00  -5.861730e+00
  -3.376841e+00   3.608381e+00
  -1.260530e+01  -1.559625e+01
  -2.207428e+01  -4.417001e+01
  -8.999541e+00  -4.172004e+01
   2.486365e+01  -1.093112e+01
   5.926743e+01   2.374628e+01
   5.639471e+01   3.197636e+01
   1.203839e+01   1.996884e+01
  -3.590009e+01   1.051768e+01
  -4.083465e+01   2.536457e+00
  -1.051216e+01  -4.763609e+00
   1.456032e+01  -8.667348e+00
   1.206973e+01  -7.691602e+00
  -3.428044e+00   1.177857e+00
   1.931375e+00   4.149771e+00
   3.096979e+01   2.924201e+00
   4.423695e+01   1.144168e+01
   1.146783e+01   3.522853e+01
  -4.762810e+01   5.386088e+01
  -8.740477e+01   3.785049e+01
  -7.222150e+01  -1.780883e+01
  -1.796833e+01  -6.855764e+01
   3.567563e+01  -7.478401e+01
   5.197052e+01  -3.478494e+01
   3.451791e+01   6.437284e+00
   1.233255e+01   1.665119e+01
   3.599124e+00   6.953864e+00
   7.257636e+00   6.901983e+00
   7.400041e+00   2.558068e+01
   5.119637e+00   4.366937e+01
  -1.294903e+01   3.198012e+01
  -3.225745e+01  -8.363772e+00
  -3.722076e+01  -4.264873e+01
  -1.422851e+01  -4.862995e+01
   2.862732e+01  -1.783078e+01
   4.666234e+01   2.540512e+01
   2.056490e+01   4.905623e+01
  -2.862255e+01   3.062109e+01
  -5.039824e+01  -5.875415e+00
  -2.030508e+01  -3.131696e+01
   2.174845e+01  -3.297573e+01
   2.171000e+01  -1.328644e+01
  -1.306093e+01   4.043532e+00
  -3.501839e+01   4.021090e+00
  -7.880653e+00  -1.472441e+01
   4.242175e+01  -2.824606e+01
   6.186381e+01  -1.942217e+01
   3.628981e+01   1.189505e+01
  -7.042768e+00   3.829637e+01
  -2.988113e+01   3.704329e+01
  -2.392932e+01   8.049277e+00
  -5.222094e+00  -2.354888e+01
   1.047077e+01  -2.564488e+01
   1.891327e+01   7.564620e-01
   1.772608e+01   2.675578e+01
   2.497211e+00   2.314625e+01
  -1.551558e+01  -1.454199e-01
  -2.367182e+01  -1.432048e+01
  -1.347281e+01  -5.147530e+00
   2.080008e+00   9.509862e+00
   6.000114e+00   6.660673e+00
  -4.085797e-01  -1.471994e+01
  -2.324154e+00  -2.766082e+01
   1.189187e+01  -1.304102e+01
   2.297321e+01   1.661628e+01
   8.949938e+00   3.181964e+01
  -2.124858e+01   1.445307e+01
  -3.377241e+01  -1.429897e+01
  -1.137698e+01  -2.841478e+01
   2.748058e+01  -1.527998e+01
   4.386698e+01   5.527910e+00
   2.381118e+01   1.886279e+01
  -1.572887e+01   2.092497e+01
  -3.286368e+01   1.531172e+01
  -1.616504e+01   5.500645e+00
   1.017038e+01  -2.370176e+00
   1.492179e+01  -1.695906e+00
  -8.652639e+00   9.617490e+00
  -3.298924e+01   1.061012e+01
