
 $NMID
 id='ANONYMOUS ', fmtdat='(2E16.6)'
 volume=1.0
 tramp=1.0
 $END
  -3.092350e+03  -5.815513e+02
  -1.719940e+03  -1.847858e+03
   4.726128e+02  -1.827065e+03
   1.487223e+03  -6.344618e+02
   7.460380e+02   3.544770e+02
  -3.310953e+02   3.175067e+02
  -5.609418e+02  -2.630376e+02
   1.544325e+01  -7.121924e+02
   6.215318e+02  -5.366113e+02
   6.918016e+02   1.099631e+02
   3.342393e+02   6.760659e+02
  -2.132067e+02   6.447374e+02
  -4.416921e+02   7.805326e+01
  -2.153078e+02  -5.102210e+02
   2.180918e+02  -5.914178e+02
   4.367251e+02   2.451626e+01
   1.832291e+02   5.221136e+02
  -2.517093e+02   4.921491e+02
  -4.443668e+02   9.273671e+01
  -3.069014e+02  -2.635077e+02
  -1.132961e+01  -3.549128e+02
   1.815584e+02  -1.653216e+02
   1.332247e+02   1.993951e+01
  -1.244061e+02   2.383460e+01
  -2.834965e+02  -1.823532e+02
  -7.136730e+01  -3.562124e+02
   4.013347e+02  -2.171401e+02
   5.998174e+02   1.850405e+02
   2.341932e+02   4.300821e+02
  -3.458561e+02   2.607449e+02
  -5.398753e+02  -1.386536e+02
  -1.982385e+02  -4.019646e+02
   2.782390e+02  -3.541532e+02
   4.734313e+02  -9.332168e+01
   3.176435e+02   2.149060e+02
   2.610253e+01   3.599036e+02
  -1.502813e+02   2.054511e+02
  -6.694551e+01  -1.480111e+02
   1.776480e+02  -2.577079e+02
   2.944969e+02   9.250532e+01
   8.387910e+01   5.303237e+02
  -3.046907e+02   4.637617e+02
  -4.195321e+02  -4.623883e+01
  -1.201092e+02  -4.001944e+02
   2.189216e+02  -1.902848e+02
   2.110953e+02   2.631887e+02
  -1.378679e+02   3.884736e+02
  -4.429198e+02   2.790634e+01
  -4.168108e+02  -3.761520e+02
  -9.618135e+01  -4.960549e+02
   3.212803e+02  -2.563501e+02
   5.015778e+02   9.869641e+01
   2.838168e+02   3.121191e+02
  -1.131237e+02   2.650735e+02
  -3.191245e+02   2.347988e+01
  -1.674347e+02  -1.263373e+02
   7.613435e+01  -4.219387e+01
   8.590877e+01   1.155745e+02
  -1.249642e+02   9.838381e+01
  -2.498395e+02  -8.476470e+01
  -8.931575e+01  -2.154292e+02
   1.741582e+02  -1.838964e+02
   2.739570e+02  -4.731125e+01
   1.766260e+02   9.323299e+01
  -3.409712e+01   2.212283e+02
  -2.298855e+02   2.630966e+02
  -3.249303e+02   1.248346e+02
  -2.293394e+02  -1.533075e+02
  -2.140175e+01  -3.448352e+02
   1.004032e+02  -2.878927e+02
   8.086097e+01  -1.086273e+02
   3.405860e+01  -2.795597e+01
   7.510258e+01  -7.624050e+01
   1.857507e+02  -6.794397e+01
   2.091079e+02   8.504825e+01
   8.931455e+01   2.289097e+02
  -8.294951e+01   1.831473e+02
  -1.773566e+02  -2.036979e+01
  -1.255238e+02  -2.106398e+02
   3.559975e+01  -2.316609e+02
   2.172977e+02  -6.231267e+01
   2.721865e+02   1.663782e+02
   1.309192e+02   2.903248e+02
  -8.775130e+01   2.408957e+02
  -1.838389e+02   9.682441e+01
  -1.274785e+02   1.351393e+01
  -9.856159e+01   2.144731e+01
  -1.946758e+02   2.217423e+01
  -3.051147e+02  -9.005168e+01
  -2.314266e+02  -2.516242e+02
   3.585273e+01  -3.362076e+02
   3.131463e+02  -2.790560e+02
   4.018863e+02  -1.049953e+02
   2.504501e+02   1.006030e+02
   9.826495e+00   2.219353e+02
  -1.156813e+02   1.775779e+02
  -4.030490e+01   1.772785e+01
   1.034309e+02  -5.504834e+01
   1.409398e+02   3.802553e+01
   9.891745e+00   1.532070e+02
  -1.425726e+02   1.279927e+02
  -1.228194e+02  -6.432422e+01
   3.160170e+01  -1.482475e+02
   1.487717e+02   1.110712e+00
   9.950909e+01   2.126942e+02
  -5.944129e+01   2.780058e+02
  -2.104162e+02   1.425459e+02
  -2.731809e+02  -7.937874e+01
  -2.133689e+02  -2.229645e+02
  -4.332610e+01  -2.332886e+02
   1.193520e+02  -1.208025e+02
   1.402497e+02   3.463397e+00
   3.680461e+01   3.330273e+01
  -5.186514e+01  -4.121972e+01
  -4.730184e+00  -1.056843e+02
   1.106395e+02  -6.746020e+01
   1.374574e+02   3.013661e+01
   3.546547e+01   6.230118e+01
  -6.687803e+01   4.994593e+00
  -3.301954e+01  -6.650497e+01
   1.153634e+02  -6.333650e+01
   2.308235e+02   2.875518e+01
   1.947263e+02   1.485656e+02
   1.288123e+01   2.170208e+02
  -1.807928e+02   1.907257e+02
  -2.393385e+02   6.440243e+01
  -1.191247e+02  -6.338262e+01
   3.559042e+01  -8.029686e+01
   7.184730e+01   7.811785e+00
  -4.157155e+01   7.891698e+01
  -1.607175e+02   3.394003e+01
  -1.584253e+02  -9.499795e+01
  -3.666934e+01  -1.670334e+02
   8.549618e+01  -1.159915e+02
   1.121876e+02  -7.520808e+00
   4.142203e+01   4.123635e+01
  -2.909196e+01  -6.812875e+00
  -2.157651e+01  -8.191519e+01
   7.527859e+01  -9.208861e+01
   1.666667e+02  -1.726394e+00
   1.402850e+02   1.236011e+02
  -6.374437e+00   1.782603e+02
  -1.449372e+02   1.117626e+02
  -1.537806e+02  -1.550836e+01
  -4.288398e+01  -9.554782e+01
   5.913593e+01  -8.195779e+01
   6.848089e+01  -1.720409e+01
   1.505727e+01   2.502723e+01
  -2.266388e+01   1.142662e+01
   4.281946e+00  -1.269882e+01
   5.941052e+01   7.163285e+00
   7.045052e+01   7.496646e+01
  -1.752358e+00   1.351302e+02
  -1.223136e+02   1.140411e+02
  -1.953311e+02  -3.461508e+00
  -1.487818e+02  -1.444218e+02
  -1.496583e+01  -1.971726e+02
   1.026541e+02  -1.270933e+02
   1.124745e+02  -1.257158e+01
   5.378905e+01   4.846051e+01
   1.936363e+01   2.961712e+01
   4.587636e+01  -8.783874e+00
   6.677292e+01   5.371855e-01
   3.686698e+01   4.669459e+01
  -4.002276e+01   8.046433e+01
  -9.145924e+01   4.100961e+01
  -7.417732e+01  -3.836755e+01
   2.048306e+01  -9.346573e+01
   1.286007e+02  -5.851230e+01
   1.563742e+02   6.585868e+01
   5.808734e+01   1.823023e+02
  -1.107323e+02   1.791634e+02
  -2.364545e+02   6.428967e+01
  -1.974576e+02  -9.872857e+01
  -6.586092e+01  -1.526644e+02
   4.680251e+01  -1.121343e+02
   8.191545e+01  -5.658431e+01
   6.666424e+01  -4.956532e+01
   5.831228e+01  -7.009833e+01
   7.969924e+01  -5.389605e+01
   1.031544e+02   2.579737e+01
   8.930821e+01   1.322678e+02
   7.945052e+00   1.812241e+02
  -9.307363e+01   1.292944e+02
  -1.437509e+02   2.483226e+00
  -9.769360e+01  -1.131363e+02
   4.008565e+00  -1.328803e+02
   7.209626e+01  -6.472094e+01
   5.652053e+01   1.591923e+01
  -2.711648e+00   4.170488e+01
  -2.227199e+01   2.838497e+01
   2.121359e+01   1.464348e+01
   6.387419e+01   2.044338e+01
   3.449136e+01   3.316289e+01
  -5.749522e+01   2.580691e+01
  -1.309794e+02  -8.411586e+00
  -1.130619e+02  -5.636831e+01
  -8.691744e-01  -7.804836e+01
   1.113153e+02  -5.251127e+01
   1.229188e+02   5.190752e+00
   3.570000e+01   4.445901e+01
  -5.261544e+01   3.174906e+01
  -7.197320e+01  -1.922331e+01
  -4.495222e+00  -5.955991e+01
   4.586192e+01  -4.642545e+01
   5.394328e+01   5.034682e+00
   3.666047e+01   4.629694e+01
   2.923333e+01   3.610617e+01
   4.159238e+01   6.211622e+00
   5.127510e+01   3.137371e+00
   2.915670e+01   5.525004e+01
  -3.383603e+01   1.136472e+02
  -1.078817e+02   1.059526e+02
  -1.445040e+02   1.886542e+01
  -9.817129e+01  -8.490147e+01
   5.196863e+00  -1.096012e+02
   7.926784e+01  -4.923801e+01
   5.152113e+01   1.480770e+01
  -4.451516e+01   1.038091e+01
  -1.006801e+02  -4.845659e+01
  -4.756448e+01  -9.305405e+01
   7.533878e+01  -8.371155e+01
   1.581469e+02  -2.276657e+01
   1.294512e+02   4.661109e+01
   2.160409e+01   7.729741e+01
  -5.931557e+01   5.119195e+01
  -4.165536e+01  -3.068997e+00
   3.347481e+01  -2.268108e+01
   7.297507e+01   2.288620e+01
   2.090660e+01   9.928662e+01
  -8.249438e+01   1.202059e+02
  -1.358723e+02   4.366955e+01
  -9.696058e+01  -8.674393e+01
   3.325556e+00  -1.558826e+02
   7.675907e+01  -1.080988e+02
   8.339963e+01   1.778026e+01
   3.669372e+01   1.031030e+02
  -1.546365e+01   8.441481e+01
  -4.186040e+01   8.655951e+00
  -3.749290e+01  -3.346965e+01
  -1.556870e+01  -9.663258e+00
  -3.968784e+00   1.769064e+01
  -1.957438e+01  -1.293485e+01
  -3.922426e+01  -7.449002e+01
  -2.326860e+01  -8.940636e+01
   4.591639e+01  -3.397258e+01
   1.092914e+02   4.305286e+01
   9.984930e+01   7.240580e+01
   1.120162e+01   4.982945e+01
  -7.132757e+01   1.579342e+01
  -7.297257e+01  -2.766697e+00
  -1.166269e+01  -1.151284e+01
   2.954149e+01  -1.534324e+01
   1.555928e+01  -1.268730e+01
  -1.427756e+01  -9.631885e-01
   4.174708e+00   3.884715e+00
   5.619869e+01   6.003309e+00
   7.229292e+01   2.719007e+01
   6.829460e+00   6.956516e+01
  -9.926168e+01   8.441826e+01
  -1.572610e+02   3.625033e+01
  -1.155635e+02  -5.976954e+01
  -1.298344e+01  -1.294927e+02
   7.330184e+01  -1.151339e+02
   9.656543e+01  -4.212411e+01
   6.265575e+01   2.277057e+01
   1.759097e+01   3.256666e+01
  -1.074339e+00   9.256194e+00
   8.666913e+00   4.523265e+00
   2.190065e+01   4.093556e+01
   8.852377e+00   7.529647e+01
  -2.984007e+01   5.875028e+01
  -6.503988e+01  -1.883441e+01
  -5.829385e+01  -9.134300e+01
   1.327133e+00  -9.695639e+01
   6.963578e+01  -1.997392e+01
   8.299197e+01   6.501637e+01
   2.116049e+01   9.127707e+01
  -5.804451e+01   4.646556e+01
  -8.210203e+01  -1.512883e+01
  -3.075208e+01  -4.780038e+01
   2.953777e+01  -4.359062e+01
   2.901786e+01  -1.980481e+01
  -2.393420e+01   9.410733e-02
  -5.323465e+01  -2.515901e+00
  -1.053868e+01  -2.402170e+01
   6.580849e+01  -4.412938e+01
   9.799474e+01  -3.542873e+01
   5.523071e+01   1.653418e+01
  -1.568165e+01   6.593108e+01
  -4.949412e+01   6.268851e+01
  -3.546054e+01   5.731523e+00
   5.503936e-01  -4.359867e+01
   2.514532e+01  -3.298824e+01
   2.870077e+01   1.675754e+01
   1.426489e+01   4.884020e+01
  -8.187530e+00   2.926086e+01
  -2.795300e+01  -1.039011e+01
  -3.107642e+01  -2.455786e+01
  -1.605168e+01  -6.211543e+00
   1.174361e+00   1.336728e+01
   5.797168e+00   4.081148e+00
   4.782912e+00  -2.541376e+01
   1.144297e+01  -3.853407e+01
   2.299497e+01  -1.053035e+01
   2.459997e+01   3.472573e+01
  -1.220402e+00   4.849245e+01
  -3.611036e+01   1.520112e+01
  -4.687233e+01  -3.320461e+01
  -8.968444e+00  -5.248052e+01
   4.776191e+01  -2.651539e+01
   7.285653e+01   1.512393e+01
   3.938706e+01   3.940493e+01
  -2.621764e+01   3.510941e+01
  -5.498009e+01   1.739522e+01
  -2.297128e+01   3.391543e+00
   2.603673e+01   8.832124e-01
   2.775860e+01   1.164486e+01
  -2.429166e+01   2.009685e+01
  -7.135021e+01   7.614244e+00
