
 $NMID
 id='ANONYMOUS ', fmtdat='(2E16.6)'
 volume=1.0
 tramp=1.0
 $END
  -4.883800e+03  -1.317598e+02
  -2.602896e+03  -3.168232e+03
   1.119353e+03  -3.026074e+03
   2.608276e+03  -5.897345e+02
   9.798908e+02   1.104485e+03
  -9.236794e+02   7.064790e+02
  -1.079861e+03  -5.718732e+02
   4.691779e+01  -1.254574e+03
   1.003885e+03  -7.974750e+02
   1.049566e+03   2.328734e+02
   3.553198e+02   1.009250e+03
  -4.370889e+02   9.560154e+02
  -7.889689e+02   1.653582e+01
  -3.634336e+02  -8.978117e+02
   3.504628e+02  -8.326519e+02
   7.072976e+02   8.993676e+01
   2.243724e+02   7.934848e+02
  -4.420379e+02   6.299392e+02
  -6.427183e+02  -7.324283e+00
  -3.485576e+02  -4.329911e+02
   7.949139e+01  -4.691453e+02
   3.130406e+02  -2.344028e+02
   2.470386e+02   4.612877e+01
  -1.326598e+02   1.411761e+02
  -4.625358e+02  -9.213624e+01
  -2.366044e+02  -4.765362e+02
   4.913356e+02  -4.656873e+02
   9.180435e+02   1.056521e+02
   4.578932e+02   6.352226e+02
  -4.631248e+02   5.474347e+02
  -8.164580e+02  -7.505910e+01
  -3.587263e+02  -5.732529e+02
   3.469672e+02  -5.723677e+02
   6.547900e+02  -1.741252e+02
   4.522611e+02   3.150265e+02
   2.399075e+01   5.586601e+02
  -2.881090e+02   3.065715e+02
  -2.216585e+02  -2.950192e+02
   2.317065e+02  -5.264932e+02
   5.492775e+02   3.627061e+01
   2.484851e+02   8.062003e+02
  -4.285168e+02   7.679678e+02
  -7.098781e+02  -5.457297e+01
  -2.453606e+02  -6.661541e+02
   3.820058e+02  -3.621581e+02
   4.463354e+02   3.678074e+02
  -9.894212e+01   6.155027e+02
  -6.142039e+02   1.522556e+02
  -6.345462e+02  -4.383071e+02
  -1.411498e+02  -6.436419e+02
   4.491452e+02  -3.675122e+02
   7.035006e+02   1.111178e+02
   3.647552e+02   4.626386e+02
  -2.264878e+02   4.167065e+02
  -5.058755e+02   1.803416e+01
  -2.239880e+02  -2.780254e+02
   1.854523e+02  -1.278653e+02
   1.732974e+02   2.052601e+02
  -1.950407e+02   2.238795e+02
  -3.803372e+02  -1.067303e+02
  -1.246403e+02  -3.449956e+02
   2.454318e+02  -2.506037e+02
   3.415120e+02  -2.772166e+01
   1.729488e+02   1.103740e+02
  -2.509046e+01   2.128754e+02
  -2.172024e+02   3.133802e+02
  -3.666233e+02   2.173922e+02
  -3.302963e+02  -1.616094e+02
  -6.838090e+01  -4.877226e+02
   1.894889e+02  -4.167088e+02
   1.819202e+02  -8.341254e+01
   2.906796e+01   6.068813e+01
   1.463495e+01  -7.161263e+01
   1.845263e+02  -1.448409e+02
   2.953783e+02   4.926546e+01
   1.773155e+02   2.834568e+02
  -7.717530e+01   2.838990e+02
  -2.556770e+02   2.281478e+01
  -2.180956e+02  -2.482912e+02
   9.461569e+00  -3.216139e+02
   2.851658e+02  -1.342411e+02
   3.827709e+02   1.932967e+02
   1.796172e+02   4.056822e+02
  -1.461462e+02   3.312012e+02
  -2.695832e+02   9.755877e+01
  -1.620453e+02  -3.158355e+01
  -8.044922e+01   1.774695e+01
  -2.242431e+02   7.135744e+01
  -4.038575e+02  -5.238600e+01
  -3.396433e+02  -3.115770e+02
   1.139067e+01  -4.729918e+02
   3.849930e+02  -4.203461e+02
   5.259737e+02  -1.831966e+02
   3.682216e+02   1.221265e+02
   5.186612e+01   3.252715e+02
  -1.731042e+02   2.753746e+02
  -1.174485e+02   2.051433e+01
   1.169680e+02  -1.237609e+02
   2.302220e+02   9.460442e+00
   6.143354e+01   2.276592e+02
  -1.769638e+02   2.010179e+02
  -2.100520e+02  -8.136180e+01
   2.739540e+01  -2.108735e+02
   2.163479e+02  -3.296943e+01
   1.507731e+02   2.677461e+02
  -6.922973e+01   3.593042e+02
  -2.510419e+02   1.824206e+02
  -3.203494e+02  -8.799548e+01
  -2.664418e+02  -2.626189e+02
  -8.602310e+01  -2.816930e+02
   1.257154e+02  -1.622849e+02
   1.902796e+02  -7.561778e-01
   6.311467e+01   5.335839e+01
  -7.683576e+01  -3.699112e+01
  -3.306374e+01  -1.399897e+02
   1.352215e+02  -1.089715e+02
   1.929121e+02   2.245692e+01
   7.004467e+01   9.020709e+01
  -7.753428e+01   2.520625e+01
  -6.193004e+01  -6.673493e+01
   1.114654e+02  -8.134865e+01
   2.679520e+02   6.111357e+00
   2.592464e+02   1.421537e+02
   6.159192e+01   2.591909e+02
  -1.900424e+02   2.645718e+02
  -2.980887e+02   1.201515e+02
  -1.781529e+02  -6.994440e+01
   3.536295e+01  -1.223794e+02
   1.077709e+02  -4.323316e-01
  -3.242303e+01   1.179873e+02
  -2.076607e+02   6.573456e+01
  -2.233993e+02  -1.113516e+02
  -6.650659e+01  -2.236660e+02
   1.020832e+02  -1.653514e+02
   1.504806e+02  -2.236590e+01
   7.584788e+01   5.568185e+01
  -2.296939e+01   1.535114e+01
  -3.830116e+01  -7.880475e+01
   6.620639e+01  -1.129513e+02
   1.907417e+02  -2.520890e+01
   1.868982e+02   1.325840e+02
   1.042466e+01   2.258989e+02
  -1.803386e+02   1.557515e+02
  -2.036223e+02  -1.628206e+01
  -6.246500e+01  -1.332405e+02
   7.821128e+01  -1.194679e+02
   9.522824e+01  -3.074618e+01
   2.871310e+01   2.923094e+01
  -1.599807e+01   2.499558e+01
   7.282370e+00   1.126249e+00
   6.070181e+01   1.624504e+01
   7.649973e+01   7.991572e+01
   1.076772e+01   1.481178e+02
  -1.272550e+02   1.456621e+02
  -2.348952e+02   2.228568e+01
  -1.987905e+02  -1.610226e+02
  -3.225508e+01  -2.533399e+02
   1.258223e+02  -1.735214e+02
   1.484438e+02  -1.915490e+01
   7.133532e+01   6.633816e+01
   2.342509e+01   4.352479e+01
   4.834244e+01  -9.543710e+00
   7.526703e+01   8.676219e-01
   3.310690e+01   4.994108e+01
  -4.556451e+01   7.615448e+01
  -9.778381e+01   4.707099e+01
  -8.049690e+01  -3.894767e+01
   1.311754e+01  -1.063761e+02
   1.423828e+02  -8.428614e+01
   2.000231e+02   5.536394e+01
   1.009765e+02   2.098505e+02
  -1.140648e+02   2.402804e+02
  -2.677358e+02   1.151675e+02
  -2.627514e+02  -1.045733e+02
  -1.054026e+02  -1.928116e+02
   4.746311e+01  -1.528541e+02
   1.023212e+02  -8.150075e+01
   8.139793e+01  -6.184285e+01
   7.186820e+01  -8.526492e+01
   1.013598e+02  -6.970960e+01
   1.324787e+02   2.902897e+01
   1.137188e+02   1.669636e+02
   1.610896e+01   2.342593e+02
  -1.178556e+02   1.713563e+02
  -1.875115e+02   1.252151e+01
  -1.357821e+02  -1.327776e+02
  -9.529607e+00  -1.667110e+02
   7.670820e+01  -9.304447e+01
   6.141391e+01   1.040251e-01
   6.490208e+00   3.778768e+01
  -7.137756e+00   3.060214e+01
   3.852633e+01   2.146281e+01
   7.753241e+01   3.166017e+01
   4.186047e+01   4.382204e+01
  -6.206362e+01   3.651638e+01
  -1.528651e+02   7.523466e-01
  -1.398601e+02  -5.414126e+01
  -1.555586e+01  -8.989697e+01
   1.189592e+02  -6.676589e+01
   1.444870e+02  -3.652761e+00
   4.849945e+01   4.615605e+01
  -6.601421e+01   3.471978e+01
  -7.874072e+01  -2.233129e+01
  -1.702467e+00  -6.807839e+01
   6.185159e+01  -5.136031e+01
   6.084119e+01   8.467597e+00
   3.749451e+01   5.044668e+01
   3.988774e+01   4.093285e+01
   6.185176e+01   7.641402e+00
   6.371684e+01   4.438602e+00
   2.688798e+01   6.621539e+01
  -4.233328e+01   1.382868e+02
  -1.167901e+02   1.338990e+02
  -1.625901e+02   2.676279e+01
  -1.171841e+02  -9.526444e+01
  -1.702070e+00  -1.247015e+02
   8.649431e+01  -5.160155e+01
   5.862028e+01   2.313792e+01
  -5.904890e+01   1.846328e+01
  -1.358356e+02  -4.774495e+01
  -7.075190e+01  -1.093858e+02
   8.159872e+01  -1.056851e+02
   1.862868e+02  -4.172725e+01
   1.564030e+02   4.085866e+01
   3.281412e+01   8.710526e+01
  -6.404827e+01   6.942071e+01
  -5.095621e+01   6.253695e+00
   3.798464e+01  -2.357574e+01
   8.790914e+01   3.009033e+01
   2.221072e+01   1.211867e+02
  -1.058536e+02   1.426747e+02
  -1.736462e+02   4.450293e+01
  -1.205444e+02  -1.132671e+02
   1.579530e+00  -1.970501e+02
   9.110505e+01  -1.365887e+02
   1.054284e+02   1.335753e+01
   5.732602e+01   1.177296e+02
  -2.329200e+00   1.042296e+02
  -4.650379e+01   1.692394e+01
  -5.022283e+01  -3.644757e+01
  -2.477885e+01  -1.124762e+01
  -2.155094e+00   2.338885e+01
  -1.986488e+01  -8.540971e+00
  -5.396773e+01  -8.929053e+01
  -4.164317e+01  -1.156215e+02
   4.888723e+01  -4.992584e+01
   1.392593e+02   4.147410e+01
   1.291360e+02   7.861467e+01
   1.434256e+01   5.369877e+01
  -9.234271e+01   2.001896e+01
  -8.850105e+01   3.332377e+00
  -7.538663e+00  -9.455843e+00
   4.192578e+01  -2.433759e+01
   1.558861e+01  -1.793880e+01
  -2.271644e+01   9.198763e-01
   7.234649e+00   1.193094e+01
   7.683790e+01   1.025592e+01
   9.040778e+01   3.162308e+01
  -2.329992e-01   8.291537e+01
  -1.247025e+02   1.092435e+02
  -1.853794e+02   4.852756e+01
  -1.357444e+02  -7.312909e+01
  -2.068943e+01  -1.639955e+02
   8.038340e+01  -1.468942e+02
   1.145929e+02  -5.338034e+01
   8.206191e+01   2.750773e+01
   2.511354e+01   3.966995e+01
  -4.671189e+00   7.556535e+00
   7.445904e+00   1.304670e+00
   2.840942e+01   4.826568e+01
   1.862213e+01   9.262518e+01
  -3.612885e+01   6.983928e+01
  -8.175072e+01  -2.775585e+01
  -7.171280e+01  -1.169256e+02
   7.594668e+00  -1.117279e+02
   8.801263e+01  -1.510418e+01
   9.763665e+01   8.468535e+01
   1.914904e+01   1.043868e+02
  -7.206332e+01   4.826157e+01
  -9.400886e+01  -2.013099e+01
  -3.278016e+01  -5.049251e+01
   3.621248e+01  -4.482106e+01
   2.858348e+01  -2.627637e+01
  -3.609936e+01  -5.126637e+00
  -6.754157e+01   3.016598e-01
  -1.173537e+01  -2.640968e+01
   8.257681e+01  -6.039920e+01
   1.171196e+02  -5.770020e+01
   6.318679e+01   1.390746e+01
  -1.906393e+01   8.012557e+01
  -5.401238e+01   7.126020e+01
  -3.413748e+01  -8.242920e-01
   7.358635e+00  -5.581186e+01
   3.078578e+01  -3.601598e+01
   3.353051e+01   2.525003e+01
   1.904469e+01   5.634253e+01
  -8.381044e+00   2.852092e+01
  -3.231179e+01  -1.333555e+01
  -3.588502e+01  -2.477534e+01
  -1.920990e+01  -2.669208e+00
  -1.569111e+00   1.187553e+01
   6.093703e+00  -5.753278e+00
   1.154698e+01  -3.659809e+01
   2.574526e+01  -4.027098e+01
   3.533577e+01  -1.270857e-01
   2.474673e+01   5.019046e+01
  -1.245300e+01   6.022139e+01
  -5.004497e+01   1.463733e+01
  -5.520248e+01  -4.640191e+01
  -9.102843e+00  -6.574686e+01
   5.677291e+01  -3.164606e+01
   8.853283e+01   1.957794e+01
   4.716930e+01   4.814346e+01
  -3.155684e+01   3.969025e+01
  -6.664025e+01   1.576311e+01
  -2.380106e+01   2.168493e-01
   4.025992e+01   3.028191e+00
   3.883652e+01   2.139913e+01
  -3.424424e+01   3.514790e+01
  -9.615656e+01   1.629603e+01
