
 $NMID
 id='ANONYMOUS ', fmtdat='(2E16.6)'
 volume=1.0
 tramp=1.0
 $END
   4.369883e+03   3.181330e+02
   2.348479e+03   2.873363e+03
  -1.028350e+03   2.819346e+03
  -2.325611e+03   6.028972e+02
  -9.124330e+02  -9.502145e+02
   8.168721e+02  -5.876040e+02
   9.685159e+02   5.440455e+02
  -8.411980e+01   1.123872e+03
  -9.399689e+02   7.228158e+02
  -9.669033e+02  -2.209072e+02
  -3.527566e+02  -9.004157e+02
   3.854342e+02  -8.831768e+02
   7.125223e+02  -3.392331e+01
   3.377454e+02   8.086491e+02
  -3.040846e+02   7.720162e+02
  -6.430251e+02  -7.022150e+01
  -2.236675e+02  -7.344381e+02
   3.852879e+02  -6.125935e+02
   5.857543e+02  -2.977553e+01
   3.440246e+02   3.981773e+02
  -6.051342e+01   4.331309e+02
  -2.746933e+02   2.246621e+02
  -2.216612e+02  -3.932490e+01
   1.216880e+02  -1.140361e+02
   4.212626e+02   1.113111e+02
   1.867430e+02   4.531942e+02
  -4.806426e+02   4.015850e+02
  -8.643739e+02  -1.355308e+02
  -3.983903e+02  -6.055548e+02
   4.441397e+02  -4.924787e+02
   7.661989e+02   7.976816e+01
   3.320946e+02   5.368539e+02
  -3.188030e+02   5.254500e+02
  -5.999128e+02   1.632157e+02
  -4.122937e+02  -2.802864e+02
  -2.157898e+01  -5.002942e+02
   2.530691e+02  -2.545146e+02
   1.804393e+02   2.698642e+02
  -2.288362e+02   4.635427e+02
  -5.044062e+02  -6.476424e+01
  -2.083588e+02  -7.506826e+02
   4.198387e+02  -6.940694e+02
   6.669815e+02   5.932713e+01
   2.185867e+02   6.150162e+02
  -3.566759e+02   3.303642e+02
  -3.972817e+02  -3.507562e+02
   1.110760e+02  -5.614276e+02
   5.629877e+02  -1.286612e+02
   5.701959e+02   4.343016e+02
   1.217745e+02   6.117346e+02
  -4.243556e+02   3.276202e+02
  -6.431879e+02  -1.206256e+02
  -3.459912e+02  -4.358725e+02
   2.089841e+02  -3.862494e+02
   4.614343e+02  -1.006098e+01
   2.190579e+02   2.512613e+02
  -1.505773e+02   1.157205e+02
  -1.533435e+02  -1.846247e+02
   1.786781e+02  -1.954389e+02
   3.525230e+02   1.054041e+02
   1.141846e+02   3.288291e+02
  -2.405450e+02   2.455561e+02
  -3.436336e+02   3.145864e+01
  -1.870904e+02  -1.153903e+02
   3.421776e+01  -2.234652e+02
   2.210886e+02  -3.118185e+02
   3.494886e+02  -2.135256e+02
   3.046164e+02   1.483776e+02
   7.417374e+01   4.628228e+02
  -1.480750e+02   4.118746e+02
  -1.567664e+02   1.072088e+02
  -3.676710e+01  -3.506268e+01
  -3.380127e+01   7.452732e+01
  -1.888079e+02   1.291267e+02
  -2.845234e+02  -5.984867e+01
  -1.615920e+02  -2.806565e+02
   8.210804e+01  -2.689349e+02
   2.408193e+02  -1.199811e+01
   1.959122e+02   2.501077e+02
  -1.999773e+01   3.030834e+02
  -2.729142e+02   1.136438e+02
  -3.560684e+02  -1.911714e+02
  -1.706227e+02  -3.803166e+02
   1.280974e+02  -3.143753e+02
   2.459303e+02  -1.086312e+02
   1.581735e+02   5.070136e+00
   9.564500e+01  -3.157233e+01
   2.370079e+02  -6.807767e+01
   4.120406e+02   6.063929e+01
   3.352605e+02   3.131732e+02
  -1.479836e+01   4.719010e+02
  -3.858887e+02   4.188291e+02
  -5.152553e+02   1.756039e+02
  -3.495773e+02  -1.234015e+02
  -4.372215e+01  -3.137831e+02
   1.603296e+02  -2.594457e+02
   1.010448e+02  -2.185884e+01
  -1.129450e+02   1.123932e+02
  -2.060664e+02  -1.622918e+01
  -5.058823e+01  -2.138884e+02
   1.665002e+02  -1.827261e+02
   1.912252e+02   8.122616e+01
  -2.283057e+01   2.027093e+02
  -2.105901e+02   3.103022e+01
  -1.548021e+02  -2.562803e+02
   5.647825e+01  -3.517381e+02
   2.452691e+02  -1.820466e+02
   3.187103e+02   7.772455e+01
   2.600577e+02   2.448856e+02
   7.040790e+01   2.633589e+02
  -1.245189e+02   1.548755e+02
  -1.766528e+02   5.400637e+00
  -5.300838e+01  -4.676918e+01
   7.314826e+01   3.745024e+01
   2.533975e+01   1.316316e+02
  -1.330919e+02   1.009626e+02
  -1.852426e+02  -2.472168e+01
  -6.098729e+01  -8.793281e+01
   8.099397e+01  -2.099509e+01
   5.695664e+01   7.087997e+01
  -1.172999e+02   8.136172e+01
  -2.656175e+02  -8.742342e+00
  -2.492451e+02  -1.453479e+02
  -5.010688e+01  -2.543216e+02
   1.896845e+02  -2.469218e+02
   2.864626e+02  -1.055544e+02
   1.693726e+02   6.685069e+01
  -3.507531e+01   1.146556e+02
  -1.013799e+02   3.101038e-01
   3.413187e+01  -1.125051e+02
   2.069149e+02  -5.968390e+01
   2.196743e+02   1.093726e+02
   6.263257e+01   2.174649e+02
  -1.023706e+02   1.602226e+02
  -1.466195e+02   2.319813e+01
  -7.156152e+01  -5.097336e+01
   2.522360e+01  -1.076551e+01
   3.674354e+01   8.144803e+01
  -7.045616e+01   1.144090e+02
  -1.940229e+02   2.535752e+01
  -1.852160e+02  -1.319073e+02
  -1.011455e+01  -2.214475e+02
   1.748987e+02  -1.528900e+02
   1.982018e+02   1.140747e+01
   6.082535e+01   1.254585e+02
  -7.344630e+01   1.123623e+02
  -8.809271e+01   2.744724e+01
  -2.382590e+01  -2.742021e+01
   1.974835e+01  -2.096997e+01
  -8.136246e+00   4.700867e+00
  -6.500259e+01  -1.083622e+01
  -8.107249e+01  -8.180950e+01
  -1.146320e+01  -1.525570e+02
   1.290812e+02  -1.452292e+02
   2.331185e+02  -1.707897e+01
   1.968022e+02   1.590597e+02
   3.324792e+01   2.439554e+02
  -1.199105e+02   1.672651e+02
  -1.443557e+02   1.982351e+01
  -7.100663e+01  -6.390722e+01
  -2.069470e+01  -4.253050e+01
  -4.463243e+01   1.140554e+01
  -7.482561e+01  -2.576548e-01
  -3.564745e+01  -5.310327e+01
   4.312118e+01  -8.154283e+01
   1.013153e+02  -4.697468e+01
   8.344684e+01   4.089907e+01
  -1.468393e+01   1.061808e+02
  -1.393023e+02   8.104480e+01
  -1.915336e+02  -5.544220e+01
  -9.483267e+01  -2.023178e+02
   1.096002e+02  -2.335782e+02
   2.610970e+02  -1.100186e+02
   2.542265e+02   1.014262e+02
   1.033792e+02   1.882218e+02
  -4.845086e+01   1.505277e+02
  -9.969238e+01   7.636361e+01
  -7.808898e+01   5.909041e+01
  -6.659837e+01   8.414356e+01
  -9.927304e+01   7.126692e+01
  -1.315636e+02  -2.628363e+01
  -1.136093e+02  -1.605793e+02
  -1.804196e+01  -2.287967e+02
   1.129517e+02  -1.663354e+02
   1.813534e+02  -1.305478e+01
   1.293987e+02   1.298931e+02
   8.318478e+00   1.593701e+02
  -7.448031e+01   8.719811e+01
  -6.200865e+01  -3.657762e+00
  -6.700798e+00  -3.945219e+01
   8.683811e+00  -3.226227e+01
  -3.552906e+01  -2.169689e+01
  -7.334875e+01  -2.912523e+01
  -3.916151e+01  -4.292302e+01
   6.185075e+01  -3.329412e+01
   1.486754e+02   2.530808e+00
   1.334476e+02   5.568628e+01
   1.277111e+01   8.962851e+01
  -1.185558e+02   6.537284e+01
  -1.418822e+02   3.019933e+00
  -4.762019e+01  -4.571846e+01
   6.245653e+01  -3.686110e+01
   7.462262e+01   1.973502e+01
   3.990689e+00   6.715880e+01
  -5.721098e+01   5.303131e+01
  -5.815610e+01  -5.282766e+00
  -3.847147e+01  -4.987435e+01
  -4.244397e+01  -4.120772e+01
  -6.494937e+01  -4.707118e+00
  -6.418058e+01  -4.130930e+00
  -2.788456e+01  -6.435186e+01
   4.130911e+01  -1.360785e+02
   1.170472e+02  -1.321696e+02
   1.605049e+02  -2.812877e+01
   1.166533e+02   9.437287e+01
   2.312593e+00   1.232080e+02
  -8.511000e+01   5.213693e+01
  -6.112111e+01  -2.140400e+01
   4.977132e+01  -1.606440e+01
   1.250056e+02   4.693275e+01
   6.701081e+01   1.072723e+02
  -8.246232e+01   1.019038e+02
  -1.888102e+02   3.671500e+01
  -1.564569e+02  -4.672188e+01
  -3.004920e+01  -9.007723e+01
   6.793421e+01  -6.579690e+01
   5.289898e+01  -2.324372e+00
  -3.955374e+01   2.538890e+01
  -9.045733e+01  -2.819701e+01
  -2.539263e+01  -1.211899e+02
   1.049140e+02  -1.454912e+02
   1.726552e+02  -5.057251e+01
   1.168394e+02   1.074757e+02
  -5.503071e+00   1.911115e+02
  -9.008361e+01   1.361071e+02
  -9.991446e+01  -1.130392e+01
  -5.207933e+01  -1.176824e+02
   5.192652e+00  -1.039008e+02
   4.713516e+01  -1.651010e+01
   5.031735e+01   3.659573e+01
   2.477401e+01   1.268249e+01
   1.811400e+00  -2.178104e+01
   1.682151e+01   9.055600e+00
   5.069628e+01   8.540443e+01
   3.971677e+01   1.134556e+02
  -4.788424e+01   5.004387e+01
  -1.367029e+02  -4.193921e+01
  -1.276636e+02  -8.131649e+01
  -1.540252e+01  -5.635142e+01
   9.151210e+01  -2.034654e+01
   8.929513e+01  -1.746928e+00
   1.025338e+01   1.077640e+01
  -4.022353e+01   2.185354e+01
  -1.640179e+01   1.537944e+01
   2.060966e+01   2.138713e-01
  -8.527724e+00  -8.817124e+00
  -7.493768e+01  -9.813285e+00
  -8.910045e+01  -3.099653e+01
  -1.581548e+00  -8.182894e+01
   1.206203e+02  -1.095241e+02
   1.851965e+02  -5.686632e+01
   1.389268e+02   6.799189e+01
   2.432594e+01   1.638288e+02
  -7.755513e+01   1.508155e+02
  -1.141107e+02   5.733387e+01
  -8.169777e+01  -2.384396e+01
  -2.640454e+01  -3.774791e+01
   1.934822e+00  -7.210820e+00
  -1.054795e+01  -2.372453e+00
  -2.583976e+01  -4.751737e+01
  -1.706676e+01  -9.272812e+01
   3.492610e+01  -7.056328e+01
   7.978791e+01   2.398320e+01
   7.112350e+01   1.133701e+02
  -5.000212e+00   1.083656e+02
  -8.379653e+01   1.603267e+01
  -9.571126e+01  -8.102297e+01
  -2.136885e+01  -1.015776e+02
   6.994409e+01  -4.835337e+01
   9.378854e+01   1.825242e+01
   3.438346e+01   5.055929e+01
  -3.500808e+01   4.728935e+01
  -2.944140e+01   2.733239e+01
   3.377106e+01   5.398412e+00
   6.454587e+01  -8.376542e-01
   1.093733e+01   2.474736e+01
  -8.026176e+01   5.901891e+01
  -1.139428e+02   5.318731e+01
  -6.188885e+01  -1.466360e+01
   1.659926e+01  -7.971842e+01
   5.216119e+01  -7.324626e+01
   3.511816e+01  -1.856295e+00
  -5.805882e+00   5.466462e+01
  -2.877031e+01   3.630661e+01
  -3.248582e+01  -2.351077e+01
  -1.868809e+01  -5.482295e+01
   7.122787e+00  -2.963661e+01
   3.161047e+01   1.220660e+01
   3.556892e+01   2.460660e+01
   1.938678e+01   2.318398e+00
   1.319373e+00  -1.259934e+01
  -6.070444e+00   3.779593e+00
  -9.347536e+00   3.585038e+01
  -2.167139e+01   4.225711e+01
  -3.321020e+01   4.206924e+00
  -2.585561e+01  -4.742918e+01
   8.415414e+00  -6.057652e+01
   4.737085e+01  -1.689020e+01
   5.492255e+01   4.342963e+01
   1.101950e+01   6.485490e+01
  -5.465524e+01   3.169614e+01
  -8.788405e+01  -1.713543e+01
  -4.818291e+01  -4.661723e+01
   2.925183e+01  -3.999574e+01
   6.494546e+01  -1.862793e+01
   2.493988e+01  -7.652788e-01
  -3.769106e+01  -1.619917e+00
  -3.659163e+01  -1.855853e+01
   3.295522e+01  -3.264282e+01
   9.224455e+01  -1.523275e+01
