
 $NMID
 id='ANONYMOUS ', fmtdat='(2E16.6)'
 volume=1.0
 tramp=1.0
 $END
  -2.691486e+03  -6.444989e+02
  -1.287326e+03  -1.806064e+03
   7.827763e+02  -1.547531e+03
   1.356868e+03  -2.453967e+02
   4.096456e+02   5.052440e+02
  -5.296283e+02   1.639168e+02
  -4.768785e+02  -4.007809e+02
   1.434496e+02  -6.008306e+02
   5.545052e+02  -3.147350e+02
   4.808477e+02   1.820222e+02
   1.227263e+02   4.579204e+02
  -2.501194e+02   4.249547e+02
  -3.521801e+02  -3.713298e+01
  -9.999097e+01  -4.576236e+02
   1.934651e+02  -3.946276e+02
   3.247452e+02   7.439237e+01
   5.359584e+01   3.939244e+02
  -2.493211e+02   2.940380e+02
  -2.998966e+02  -2.733779e+01
  -1.435625e+02  -2.364410e+02
   5.960758e+01  -2.218120e+02
   1.444531e+02  -1.093179e+02
   1.079702e+02   2.728139e+01
  -7.572863e+01   2.890559e+01
  -2.215495e+02  -1.116655e+02
  -5.761784e+01  -2.696528e+02
   3.196118e+02  -1.547697e+02
   4.718406e+02   1.603623e+02
   1.666592e+02   3.377977e+02
  -2.742601e+02   1.916650e+02
  -3.988826e+02  -1.212850e+02
  -1.303958e+02  -2.893567e+02
   2.187019e+02  -2.332349e+02
   3.372848e+02  -3.633481e+01
   2.011406e+02   1.719056e+02
  -1.744033e+01   2.674439e+02
  -1.452729e+02   1.307633e+02
  -7.692336e+01  -1.504606e+02
   1.458102e+02  -2.342865e+02
   2.490936e+02   7.347690e+01
   5.400204e+01   4.284336e+02
  -2.590624e+02   3.581217e+02
  -3.379159e+02  -8.185962e+01
  -6.377124e+01  -3.484773e+02
   2.088316e+02  -1.326679e+02
   1.762075e+02   2.397971e+02
  -1.102666e+02   3.009866e+02
  -3.167031e+02   2.098425e+01
  -2.882825e+02  -2.871318e+02
  -4.393662e+01  -3.455699e+02
   2.484672e+02  -1.423390e+02
   3.398100e+02   1.113787e+02
   1.599877e+02   2.586122e+02
  -1.489842e+02   1.867356e+02
  -2.532347e+02  -2.224878e+01
  -1.137999e+02  -1.367911e+02
   7.878454e+01  -4.365506e+01
   6.469890e+01   1.077657e+02
  -1.193739e+02   7.682391e+01
  -1.892624e+02  -9.560533e+01
  -4.205582e+01  -1.865623e+02
   1.559323e+02  -1.139257e+02
   1.913060e+02  -4.078013e+00
   9.278749e+01   5.469096e+01
  -3.582737e+01   1.013768e+02
  -1.372684e+02   1.444903e+02
  -1.965530e+02   1.104092e+02
  -1.511938e+02  -8.191085e+01
  -3.392362e+00  -2.580427e+02
   1.075798e+02  -2.335470e+02
   8.568052e+01  -5.580234e+01
   1.360841e+01   2.234950e+01
   2.493484e+01  -3.303829e+01
   1.133181e+02  -4.964826e+01
   1.489003e+02   5.482927e+01
   6.332209e+01   1.612895e+02
  -6.588576e+01   1.327866e+02
  -1.236526e+02  -1.824458e+01
  -7.881988e+01  -1.568151e+02
   3.533762e+01  -1.641108e+02
   1.528443e+02  -3.784206e+01
   1.797947e+02   1.329591e+02
   7.827629e+01   2.173598e+02
  -8.002648e+01   1.627277e+02
  -1.343899e+02   5.324492e+01
  -8.509184e+01  -8.307437e+00
  -5.563042e+01   1.035537e+01
  -1.356882e+02   1.691363e+01
  -2.242377e+02  -5.888798e+01
  -1.683972e+02  -1.863588e+02
   3.850849e+01  -2.531328e+02
   2.461198e+02  -2.043984e+02
   2.992091e+02  -6.226097e+01
   1.803027e+02   8.407746e+01
  -4.884885e+00   1.678390e+02
  -1.024316e+02   1.321296e+02
  -4.638473e+01   1.334767e+01
   7.943028e+01  -5.082930e+01
   1.144478e+02   2.078380e+01
   1.056393e+01   1.156240e+02
  -1.039229e+02   8.873479e+01
  -1.003867e+02  -5.696631e+01
   2.315050e+01  -1.037395e+02
   1.166122e+02  -2.638429e+00
   6.029682e+01   1.502261e+02
  -5.380173e+01   1.884575e+02
  -1.414731e+02   8.527479e+01
  -1.660148e+02  -6.487357e+01
  -1.255652e+02  -1.507071e+02
  -2.333739e+01  -1.518439e+02
   7.482193e+01  -7.803441e+01
   9.425261e+01   1.860686e+00
   2.852273e+01   2.528568e+01
  -3.299198e+01  -2.727357e+01
  -5.676553e+00  -7.490564e+01
   7.926315e+01  -4.875457e+01
   1.020558e+02   2.329335e+01
   2.925844e+01   4.389926e+01
  -4.589067e+01  -1.684116e+00
  -2.320214e+01  -3.945060e+01
   7.434241e+01  -2.668635e+01
   1.505879e+02   3.519146e+01
   1.293393e+02   1.003787e+02
   6.267943e+00   1.389421e+02
  -1.246135e+02   1.140722e+02
  -1.628338e+02   3.975636e+01
  -8.725233e+01  -4.005488e+01
   2.640488e+01  -5.461243e+01
   5.446871e+01   4.972375e+00
  -2.967667e+01   5.534023e+01
  -1.208662e+02   1.767206e+01
  -1.167023e+02  -7.469087e+01
  -1.727418e+01  -1.224869e+02
   6.938841e+01  -8.232669e+01
   8.135306e+01  -4.309417e+00
   3.446314e+01   2.938576e+01
  -1.279114e+01  -1.683664e-01
  -1.340448e+01  -4.409861e+01
   4.555374e+01  -5.179587e+01
   1.083352e+02   2.473748e+00
   9.276530e+01   8.143887e+01
  -9.768145e+00   1.179134e+02
  -1.056862e+02   7.313440e+01
  -1.080714e+02  -1.390768e+01
  -2.410473e+01  -6.914384e+01
   4.670556e+01  -5.871983e+01
   4.670488e+01  -1.206081e+01
   1.184784e+01   1.381900e+01
  -1.078051e+01   1.040480e+01
   6.750720e+00  -7.312991e-01
   3.567503e+01   1.215537e+01
   3.718016e+01   4.975116e+01
  -5.753464e+00   8.206115e+01
  -7.929699e+01   6.896359e+01
  -1.254896e+02  -6.875674e+00
  -9.409423e+01  -9.617591e+01
  -5.674596e+00  -1.264338e+02
   7.042564e+01  -8.070187e+01
   7.415396e+01  -6.687046e+00
   3.398622e+01   3.384002e+01
   1.237368e+01   2.274195e+01
   3.084489e+01  -3.052741e+00
   4.351560e+01   5.615111e+00
   1.502198e+01   3.207333e+01
  -2.798624e+01   4.325306e+01
  -5.920289e+01   1.890952e+01
  -4.222248e+01  -2.699508e+01
   1.662411e+01  -5.478883e+01
   7.935857e+01  -3.279066e+01
   9.952259e+01   4.433098e+01
   3.386335e+01   1.197140e+02
  -7.750448e+01   1.193742e+02
  -1.481025e+02   4.606386e+01
  -1.334865e+02  -7.922404e+01
  -4.186637e+01  -1.083206e+02
   3.955692e+01  -7.385349e+01
   5.951538e+01  -3.057247e+01
   4.829317e+01  -2.576829e+01
   4.367037e+01  -4.194520e+01
   5.507866e+01  -3.427497e+01
   6.574687e+01   2.181135e+01
   5.265079e+01   9.651439e+01
  -2.614152e+00   1.284635e+02
  -7.208547e+01   8.621871e+01
  -1.008726e+02  -3.051391e-01
  -6.415289e+01  -7.935466e+01
   3.021333e+00  -9.037297e+01
   4.439455e+01  -4.509311e+01
   3.192144e+01   4.788199e+00
  -3.183564e-01   2.135994e+01
  -7.399962e+00   1.940563e+01
   1.806594e+01   1.611775e+01
   3.885637e+01   1.804994e+01
   2.234518e+01   2.032993e+01
  -3.316826e+01   9.953327e+00
  -7.923102e+01  -1.098984e+01
  -6.926922e+01  -3.581432e+01
  -2.711959e+00  -4.720905e+01
   7.163564e+01  -2.749327e+01
   7.978219e+01   4.758154e+00
   2.604153e+01   2.416501e+01
  -3.529125e+01   1.473694e+01
  -3.606585e+01  -1.074092e+01
   2.290338e+00  -3.411509e+01
   3.514992e+01  -2.516064e+01
   3.153954e+01   4.282835e+00
   1.893991e+01   2.772399e+01
   2.259816e+01   2.633131e+01
   3.871958e+01   8.210347e+00
   3.599722e+01   9.398043e+00
   9.399925e+00   3.875799e+01
  -3.679943e+01   7.001754e+01
  -7.490989e+01   6.533717e+01
  -8.898706e+01   8.684329e+00
  -5.747879e+01  -5.620818e+01
   5.193538e+00  -6.730506e+01
   4.945751e+01  -2.392909e+01
   3.108381e+01   1.159875e+01
  -2.979662e+01  -2.060674e-01
  -6.785173e+01  -3.670677e+01
  -2.751372e+01  -6.234407e+01
   5.706752e+01  -4.760570e+01
   1.111644e+02  -2.999081e+00
   8.504012e+01   3.630452e+01
   1.162363e+01   5.226640e+01
  -4.237175e+01   3.392651e+01
  -3.106906e+01   3.121242e-02
   2.222814e+01  -1.067819e+01
   4.892058e+01   2.011145e+01
   8.071673e+00   6.859200e+01
  -6.811207e+01   7.744966e+01
  -1.019357e+02   2.449545e+01
  -5.925515e+01  -6.390718e+01
   1.303304e+01  -1.077065e+02
   5.492528e+01  -7.524398e+01
   5.124656e+01   9.793164e+00
   1.642513e+01   6.872831e+01
  -1.086396e+01   5.666860e+01
  -2.831144e+01   3.955037e+00
  -2.585947e+01  -2.929182e+01
  -1.211337e+01  -1.403607e+01
   5.153136e-01   9.466294e+00
  -3.162029e+00  -4.446818e+00
  -1.929143e+01  -4.757024e+01
  -1.855208e+01  -6.253390e+01
   2.371559e+01  -2.259837e+01
   6.768310e+01   3.272165e+01
   6.727484e+01   5.085170e+01
   9.934138e+00   2.663459e+01
  -4.956814e+01   4.525839e+00
  -5.079680e+01   2.182788e+00
  -8.260899e+00  -2.005878e+00
   2.053302e+01  -9.905373e+00
   1.089866e+01  -1.094265e+01
  -1.024555e+01  -3.307597e+00
   5.208037e+00   7.919795e+00
   3.923247e+01   1.085964e+01
   4.627812e+01   1.938143e+01
  -4.319372e+00   3.889315e+01
  -7.353315e+01   4.949051e+01
  -1.065781e+02   2.660475e+01
  -7.409592e+01  -3.988857e+01
  -6.209623e+00  -8.824203e+01
   5.084300e+01  -7.813858e+01
   6.497636e+01  -2.845233e+01
   4.256173e+01   1.264717e+01
   1.183614e+01   1.858760e+01
  -2.040986e+00   2.541443e+00
   6.126313e+00   2.717180e+00
   1.070468e+01   2.741696e+01
   3.153731e+00   5.444977e+01
  -2.286217e+01   3.855378e+01
  -4.182059e+01  -1.865405e+01
  -3.166437e+01  -6.829799e+01
   7.075671e+00  -5.981484e+01
   4.378746e+01  -2.646462e+00
   4.687091e+01   5.073980e+01
   6.349349e+00   5.795444e+01
  -3.847107e+01   2.077274e+01
  -4.976684e+01  -1.582454e+01
  -1.655815e+01  -2.874603e+01
   2.075990e+01  -2.439800e+01
   1.586427e+01  -1.717068e+01
  -2.012327e+01  -1.096392e+01
  -3.655242e+01  -5.373238e+00
  -3.095145e+00  -1.091852e+01
   5.183059e+01  -2.594381e+01
   6.948238e+01  -2.069433e+01
   3.345107e+01   8.879802e+00
  -1.453354e+01   4.129523e+01
  -3.447695e+01   3.966264e+01
  -1.984999e+01   1.896670e+00
   4.464557e+00  -2.949014e+01
   1.498779e+01  -2.104411e+01
   1.575294e+01   1.253174e+01
   9.020565e+00   3.105089e+01
  -2.697034e+00   1.574652e+01
  -1.584322e+01  -7.703517e+00
  -1.921707e+01  -1.579972e+01
  -1.246742e+01  -4.441647e+00
  -4.701885e-01   5.236315e+00
   6.565311e+00  -1.881603e+00
   1.164085e+01  -1.612719e+01
   1.563227e+01  -1.752516e+01
   1.727233e+01   3.107737e+00
   6.771278e+00   2.944007e+01
  -1.152983e+01   3.341316e+01
  -2.713183e+01   5.160489e+00
  -2.747824e+01  -2.891254e+01
  -2.170756e+00  -3.610888e+01
   3.147721e+01  -1.195713e+01
   4.741914e+01   1.759541e+01
   2.337196e+01   2.915559e+01
  -1.860966e+01   1.823782e+01
  -3.792134e+01   6.891095e+00
  -1.610876e+01   1.122651e+00
   1.803888e+01   5.884442e+00
   1.757948e+01   1.191854e+01
  -2.039272e+01   1.167913e+01
  -5.028592e+01  -2.100475e+00
