
 $NMID
 id='ANONYMOUS ', fmtdat='(2E16.6)'
 volume=1.0
 tramp=1.0
 $END
  -3.784010e+03  -4.536695e+02
  -1.926564e+03  -2.417263e+03
   7.306345e+02  -2.355689e+03
   1.787972e+03  -6.949634e+02
   7.476513e+02   5.378770e+02
  -5.635972e+02   3.491542e+02
  -6.812563e+02  -4.918769e+02
   1.564383e+02  -9.336886e+02
   8.606153e+02  -5.865409e+02
   8.257994e+02   2.108972e+02
   3.274542e+02   8.446117e+02
  -2.906585e+02   7.322367e+02
  -5.291099e+02   1.007944e+01
  -2.315374e+02  -6.555077e+02
   2.504033e+02  -6.265158e+02
   5.230341e+02   7.798472e+01
   1.579846e+02   6.653644e+02
  -3.646692e+02   5.603695e+02
  -5.586666e+02   4.476595e+01
  -3.341907e+02  -3.684631e+02
   3.309313e+01  -4.192574e+02
   2.449301e+02  -1.864253e+02
   1.476948e+02   3.877413e+01
  -1.848261e+02   4.480698e+01
  -3.733273e+02  -1.983650e+02
  -8.634901e+01  -4.448435e+02
   5.150905e+02  -3.132133e+02
   7.531055e+02   1.930892e+02
   2.718568e+02   5.465979e+02
  -4.522280e+02   3.586173e+02
  -6.697531e+02  -1.747189e+02
  -2.118458e+02  -5.148065e+02
   3.534251e+02  -4.326464e+02
   5.514525e+02  -8.387229e+01
   3.342698e+02   2.852496e+02
  -5.293946e+00   4.140440e+02
  -1.915670e+02   1.711815e+02
  -7.523678e+01  -2.229499e+02
   2.337482e+02  -3.176441e+02
   3.786578e+02   1.291321e+02
   8.935216e+01   6.442988e+02
  -3.781136e+02   5.572765e+02
  -5.075244e+02  -8.531922e+01
  -1.303248e+02  -5.068341e+02
   3.012450e+02  -2.155032e+02
   2.714520e+02   3.483664e+02
  -1.617394e+02   4.666504e+02
  -5.201205e+02   2.844097e+01
  -4.746833e+02  -4.454096e+02
  -5.787646e+01  -5.451287e+02
   4.055685e+02  -2.498058e+02
   5.488886e+02   1.452426e+02
   2.810072e+02   3.739237e+02
  -1.650255e+02   2.892465e+02
  -3.775406e+02   7.865021e+00
  -1.777321e+02  -1.593351e+02
   9.962838e+01  -5.151543e+01
   7.951973e+01   1.410619e+02
  -1.894628e+02   1.167080e+02
  -2.917104e+02  -1.114431e+02
  -7.334328e+01  -2.818270e+02
   2.209142e+02  -2.183873e+02
   3.196680e+02  -2.675252e+01
   1.821452e+02   1.368959e+02
  -6.816360e+01   2.490870e+02
  -2.840083e+02   2.808405e+02
  -3.501375e+02   1.154130e+02
  -2.324819e+02  -1.945328e+02
  -5.391416e+00  -3.886198e+02
   1.274320e+02  -2.950646e+02
   9.485697e+01  -9.517959e+01
   2.354481e+01  -2.587103e+01
   8.061319e+01  -9.147493e+01
   2.215498e+02  -6.922108e+01
   2.528859e+02   1.152768e+02
   9.276515e+01   2.826402e+02
  -1.242087e+02   2.196282e+02
  -2.159988e+02  -3.537455e+01
  -1.352703e+02  -2.633117e+02
   6.843957e+01  -2.671586e+02
   2.689691e+02  -5.021147e+01
   3.072689e+02   2.156304e+02
   1.184773e+02   3.365823e+02
  -1.242064e+02   2.556183e+02
  -2.070121e+02   8.086447e+01
  -1.350074e+02   2.691322e+00
  -1.054188e+02   4.447153e+01
  -2.418410e+02   5.456426e+01
  -3.839754e+02  -1.000144e+02
  -2.894210e+02  -3.296311e+02
   5.993745e+01  -4.354591e+02
   3.988664e+02  -3.476085e+02
   4.785400e+02  -1.090418e+02
   2.865993e+02   1.476314e+02
   1.119792e+00   2.833545e+02
  -1.427070e+02   1.993928e+02
  -6.536477e+01   8.558540e+00
   1.150035e+02  -7.383572e+01
   1.646074e+02   4.370098e+01
   1.158738e+01   1.784824e+02
  -1.460680e+02   1.392343e+02
  -1.394877e+02  -7.769709e+01
   3.414135e+01  -1.665134e+02
   1.751923e+02   4.981840e+00
   1.112913e+02   2.515628e+02
  -7.807086e+01   3.195492e+02
  -2.484338e+02   1.512932e+02
  -3.098159e+02  -1.030643e+02
  -2.222653e+02  -2.674386e+02
  -3.613604e+01  -2.664230e+02
   1.364268e+02  -1.276166e+02
   1.559485e+02   1.189053e+01
   3.768323e+01   4.110499e+01
  -6.068414e+01  -5.338883e+01
  -1.720151e+00  -1.244671e+02
   1.331861e+02  -7.140363e+01
   1.596536e+02   4.056747e+01
   3.445346e+01   7.605902e+01
  -8.194198e+01   2.028422e+00
  -3.725769e+01  -8.297768e+01
   1.354914e+02  -7.009489e+01
   2.669427e+02   3.950069e+01
   2.258857e+02   1.751364e+02
   9.914607e+00   2.538495e+02
  -2.174606e+02   2.146822e+02
  -2.760021e+02   7.044849e+01
  -1.418194e+02  -7.827967e+01
   3.949555e+01  -9.915424e+01
   7.931835e+01   7.958245e+00
  -4.602846e+01   8.661742e+01
  -1.779383e+02   2.627761e+01
  -1.702108e+02  -1.158122e+02
  -3.182247e+01  -1.926889e+02
   1.045662e+02  -1.239872e+02
   1.298428e+02  -1.961668e+00
   5.161709e+01   5.076961e+01
  -3.245850e+01  -2.695677e+00
  -1.966032e+01  -8.905651e+01
   9.250573e+01  -9.863615e+01
   1.947086e+02   5.612075e+00
   1.581876e+02   1.482026e+02
  -1.639189e+01   2.102851e+02
  -1.776665e+02   1.307967e+02
  -1.795391e+02  -2.022282e+01
  -4.564171e+01  -1.156493e+02
   7.408796e+01  -9.393500e+01
   7.695835e+01  -1.507933e+01
   8.822251e+00   2.560893e+01
  -2.783450e+01   1.141736e+01
   1.254245e+01  -1.306240e+01
   7.343998e+01   1.361502e+01
   7.673022e+01   9.124671e+01
  -1.289239e+01   1.551657e+02
  -1.437006e+02   1.235310e+02
  -2.228848e+02  -1.417513e+01
  -1.654540e+02  -1.723277e+02
  -2.267113e+00  -2.209238e+02
   1.266332e+02  -1.350951e+02
   1.283108e+02  -9.642322e-01
   5.719993e+01   6.124256e+01
   2.163883e+01   3.420169e+01
   4.938842e+01  -1.384983e+01
   7.355821e+01   4.000290e+00
   3.614017e+01   5.792117e+01
  -4.740080e+01   8.767390e+01
  -1.099581e+02   4.078823e+01
  -8.123193e+01  -4.723911e+01
   2.700005e+01  -1.044059e+02
   1.452621e+02  -6.785830e+01
   1.729070e+02   6.814591e+01
   6.368398e+01   1.980054e+02
  -1.296747e+02   1.953858e+02
  -2.484860e+02   7.531511e+01
  -2.197602e+02  -1.087751e+02
  -7.256279e+01  -1.746114e+02
   5.482808e+01  -1.344686e+02
   9.579075e+01  -6.996357e+01
   8.336862e+01  -5.686211e+01
   7.430283e+01  -7.432969e+01
   9.440273e+01  -5.400165e+01
   1.163577e+02   4.103374e+01
   9.333455e+01   1.603400e+02
   1.172596e+00   2.142829e+02
  -1.135511e+02   1.447894e+02
  -1.643167e+02  -5.867613e+00
  -1.101244e+02  -1.327046e+02
   4.454825e+00  -1.450820e+02
   7.693263e+01  -6.797676e+01
   5.711005e+01   1.509265e+01
  -1.977423e+00   4.375019e+01
  -1.981726e+01   3.186305e+01
   2.693684e+01   1.807029e+01
   6.896792e+01   2.452306e+01
   3.327399e+01   3.802369e+01
  -6.654384e+01   2.925067e+01
  -1.480967e+02  -1.466664e+01
  -1.190275e+02  -6.421520e+01
   4.542826e+00  -8.525540e+01
   1.215476e+02  -5.223306e+01
   1.299570e+02   1.129959e+01
   3.455746e+01   4.965463e+01
  -6.154341e+01   2.949791e+01
  -7.173941e+01  -2.210887e+01
   5.617204e-01  -6.721933e+01
   5.648311e+01  -4.826783e+01
   5.816585e+01   1.150647e+01
   3.552421e+01   5.220105e+01
   3.546830e+01   4.065583e+01
   5.491383e+01   6.565667e+00
   5.952019e+01   1.004548e+01
   2.611192e+01   6.992581e+01
  -5.025402e+01   1.323647e+02
  -1.273462e+02   1.147071e+02
  -1.585748e+02   4.494540e+00
  -9.898406e+01  -1.031670e+02
   1.523565e+01  -1.187342e+02
   9.004229e+01  -4.509014e+01
   5.080468e+01   2.454230e+01
  -5.959164e+01   1.394573e+01
  -1.180715e+02  -5.639251e+01
  -5.092994e+01  -1.107695e+02
   9.459290e+01  -9.716036e+01
   1.843517e+02  -2.191201e+01
   1.420409e+02   5.862984e+01
   2.195206e+01   8.809954e+01
  -6.613297e+01   5.724007e+01
  -4.677120e+01   2.494464e+00
   3.729722e+01  -1.782110e+01
   7.624454e+01   3.018080e+01
   1.245944e+01   1.067415e+02
  -1.008763e+02   1.246837e+02
  -1.536946e+02   3.639806e+01
  -1.016695e+02  -1.083254e+02
   1.246890e+01  -1.822440e+02
   9.587100e+01  -1.217249e+02
   9.782761e+01   2.304510e+01
   3.956972e+01   1.192384e+02
  -1.719415e+01   9.434021e+01
  -4.825515e+01   1.146007e+01
  -4.360061e+01  -3.398172e+01
  -2.297262e+01  -8.921587e+00
  -6.969464e+00   1.663906e+01
  -2.049926e+01  -1.968781e+01
  -4.213469e+01  -9.122552e+01
  -2.130211e+01  -9.976112e+01
   5.375495e+01  -3.326921e+01
   1.215880e+02   5.260861e+01
   1.061271e+02   7.916408e+01
   6.211505e+00   4.870442e+01
  -8.418392e+01   1.118758e+01
  -7.805743e+01  -4.046530e+00
  -8.601784e+00  -8.690317e+00
   3.903331e+01  -1.442970e+01
   1.619772e+01  -1.222936e+01
  -1.887294e+01  -1.453567e+00
   4.268266e+00   7.208983e+00
   6.700391e+01   1.153259e+01
   7.976472e+01   3.623025e+01
  -1.368909e+00   7.843597e+01
  -1.191459e+02   9.291969e+01
  -1.745286e+02   3.201296e+01
  -1.233695e+02  -7.727536e+01
  -6.095912e+00  -1.526310e+02
   8.957009e+01  -1.336687e+02
   1.087191e+02  -4.309556e+01
   6.687333e+01   3.012787e+01
   1.689868e+01   3.847063e+01
  -1.204016e+00   9.139169e+00
   1.259341e+01   4.171440e+00
   2.709504e+01   4.800641e+01
   1.080384e+01   8.747140e+01
  -3.621491e+01   6.390696e+01
  -7.292050e+01  -2.545580e+01
  -6.054156e+01  -1.048997e+02
   7.543760e+00  -1.017789e+02
   7.903099e+01  -1.250413e+01
   8.819866e+01   7.591915e+01
   1.827532e+01   9.758173e+01
  -7.025871e+01   4.526961e+01
  -9.117942e+01  -2.103938e+01
  -3.353027e+01  -5.351740e+01
   3.414165e+01  -4.780723e+01
   3.225134e+01  -2.404907e+01
  -2.552713e+01  -1.920143e+00
  -5.888043e+01   8.309284e-01
  -8.090252e+00  -2.471456e+01
   7.779921e+01  -5.207824e+01
   1.117094e+02  -3.791115e+01
   5.605910e+01   2.616210e+01
  -2.650483e+01   7.777605e+01
  -6.257928e+01   6.497576e+01
  -3.850767e+01  -2.919550e+00
   7.976238e+00  -5.082668e+01
   3.149277e+01  -3.545290e+01
   3.083631e+01   2.112528e+01
   1.357945e+01   5.266974e+01
  -7.835633e+00   2.961925e+01
  -2.728933e+01  -1.215438e+01
  -3.281966e+01  -2.610496e+01
  -1.971015e+01  -3.341666e+00
  -1.710420e+00   1.434321e+01
   5.441702e+00  -7.470670e-01
   8.975273e+00  -3.396628e+01
   1.836277e+01  -4.074363e+01
   2.990803e+01  -4.628937e+00
   2.460436e+01   4.613421e+01
  -4.876745e+00   5.645263e+01
  -4.390660e+01   1.380867e+01
  -5.147682e+01  -4.250393e+01
  -7.439521e+00  -5.834381e+01
   5.491971e+01  -2.285110e+01
   7.968333e+01   2.366523e+01
   3.876309e+01   4.442107e+01
  -3.301765e+01   3.476700e+01
  -6.155631e+01   1.373070e+01
  -2.293608e+01   9.416701e-01
   3.237212e+01   3.394408e+00
   3.096712e+01   1.715169e+01
  -3.107328e+01   2.547616e+01
  -8.273669e+01   9.759013e+00
