
 $NMID
 id='ANONYMOUS ', fmtdat='(2E16.6)'
 volume=1.0
 tramp=1.0
 $END
  -2.299549e+03  -6.426471e+02
  -1.010375e+03  -1.666817e+03
   7.148315e+02  -1.439516e+03
   1.139711e+03  -2.167578e+02
   3.377632e+02   5.204408e+02
  -4.403738e+02   1.750432e+02
  -4.170383e+02  -4.045373e+02
   1.648552e+02  -5.846045e+02
   5.573106e+02  -2.594227e+02
   4.674411e+02   2.328009e+02
   1.343530e+02   5.076778e+02
  -2.720817e+02   4.052810e+02
  -3.557258e+02  -6.294254e+01
  -9.131806e+01  -4.593757e+02
   2.178647e+02  -3.703142e+02
   3.239947e+02   1.068498e+02
   1.167537e+01   4.165305e+02
  -3.071879e+02   2.728033e+02
  -3.186721e+02  -6.131824e+01
  -1.058130e+02  -2.477852e+02
   7.606667e+01  -2.072085e+02
   1.468375e+02  -6.593545e+01
   6.858945e+01   4.023800e+01
  -1.068853e+02   1.061265e+01
  -2.015595e+02  -1.359681e+02
  -2.660381e+01  -2.712088e+02
   3.161813e+02  -1.538174e+02
   4.347845e+02   1.862665e+02
   1.238273e+02   3.637100e+02
  -2.971951e+02   1.985732e+02
  -3.951704e+02  -1.641962e+02
  -9.677130e+01  -3.228218e+02
   2.453766e+02  -2.246219e+02
   3.314306e+02   4.025185e+00
   1.744474e+02   1.957317e+02
  -3.361660e+01   2.474772e+02
  -1.498142e+02   9.785443e+01
  -6.216162e+01  -1.492933e+02
   1.350755e+02  -1.974200e+02
   2.430721e+02   7.240566e+01
   4.468852e+01   3.683548e+02
  -2.479115e+02   2.952726e+02
  -3.173463e+02  -8.856656e+01
  -5.125604e+01  -3.083497e+02
   2.082113e+02  -1.079331e+02
   1.630134e+02   2.261549e+02
  -1.235127e+02   2.718976e+02
  -3.178475e+02  -1.549030e+01
  -2.558484e+02  -2.919501e+02
   1.022031e+01  -3.218700e+02
   2.549761e+02  -1.278950e+02
   3.068139e+02   1.117664e+02
   1.371902e+02   2.534204e+02
  -1.213833e+02   1.665852e+02
  -2.365541e+02  -2.888038e+01
  -9.956179e+01  -1.335144e+02
   8.028738e+01  -3.823814e+01
   5.505991e+01   1.141556e+02
  -1.172314e+02   7.327430e+01
  -1.798534e+02  -9.325442e+01
  -3.343694e+01  -1.819794e+02
   1.591115e+02  -1.086810e+02
   1.973052e+02   2.397496e+01
   8.465131e+01   9.749159e+01
  -7.693933e+01   1.176306e+02
  -1.859723e+02   1.209627e+02
  -1.975031e+02   4.032015e+01
  -1.059129e+02  -1.193231e+02
   3.619138e+01  -2.285848e+02
   1.113871e+02  -1.691610e+02
   8.072128e+01  -2.993159e+01
   1.201567e+01   9.645073e+00
   3.576376e+01  -3.042856e+01
   1.177154e+02  -2.541286e+01
   1.283374e+02   7.064692e+01
   3.342456e+01   1.614973e+02
  -8.551787e+01   1.157674e+02
  -1.207976e+02  -3.467408e+01
  -5.986881e+01  -1.628000e+02
   5.418057e+01  -1.522836e+02
   1.532501e+02  -1.580438e+01
   1.681354e+02   1.440934e+02
   6.174497e+01   2.133547e+02
  -9.308030e+01   1.426952e+02
  -1.356386e+02   2.782348e+01
  -7.604033e+01  -1.932652e+01
  -5.188082e+01   1.079831e+01
  -1.326012e+02   1.638814e+01
  -2.067316e+02  -7.973136e+01
  -1.354853e+02  -1.962657e+02
   6.127426e+01  -2.267009e+02
   2.327131e+02  -1.573266e+02
   2.645217e+02  -3.596015e+01
   1.565169e+02   8.989599e+01
  -1.603282e+01   1.558910e+02
  -1.015862e+02   1.095179e+02
  -5.102600e+01  -4.037372e-01
   7.213354e+01  -4.106541e+01
   1.058926e+02   2.981743e+01
   4.668360e+00   1.122417e+02
  -1.002697e+02   8.191848e+01
  -9.149470e+01  -5.432274e+01
   2.436603e+01  -1.009223e+02
   1.044443e+02   9.089290e+00
   4.042598e+01   1.585697e+02
  -7.278654e+01   1.770853e+02
  -1.435563e+02   6.528892e+01
  -1.537001e+02  -8.005262e+01
  -1.064642e+02  -1.583933e+02
  -6.347915e+00  -1.480043e+02
   8.273301e+01  -6.141927e+01
   9.063315e+01   1.994559e+01
   2.451873e+01   3.261676e+01
  -3.328558e+01  -2.937015e+01
   1.783198e+00  -7.078583e+01
   7.854755e+01  -3.747214e+01
   9.166117e+01   3.014197e+01
   1.516293e+01   4.472981e+01
  -5.061144e+01  -1.322171e+00
  -1.768441e+01  -4.563238e+01
   8.412235e+01  -2.719032e+01
   1.539323e+02   4.682673e+01
   1.192414e+02   1.164957e+02
  -9.887834e+00   1.437527e+02
  -1.443074e+02   1.065098e+02
  -1.752147e+02   2.137023e+01
  -7.678246e+01  -5.660614e+01
   3.684068e+01  -5.471645e+01
   5.513567e+01   1.399846e+01
  -3.311783e+01   5.208925e+01
  -1.154140e+02   7.521583e+00
  -1.037056e+02  -8.189419e+01
  -8.935912e+00  -1.196591e+02
   6.901806e+01  -6.940482e+01
   7.507956e+01   3.242845e+00
   2.808021e+01   2.870370e+01
  -1.265027e+01  -4.135788e+00
  -3.859923e+00  -4.648239e+01
   5.797455e+01  -4.580169e+01
   1.076822e+02   1.679440e+01
   7.913278e+01   9.419180e+01
  -2.711121e+01   1.187002e+02
  -1.152361e+02   6.360125e+01
  -1.055528e+02  -2.675993e+01
  -1.903231e+01  -7.468257e+01
   5.022068e+01  -5.168137e+01
   4.544824e+01  -3.332303e+00
   7.480766e+00   1.273947e+01
  -1.262403e+01   3.486791e+00
   9.722395e+00  -2.911602e+00
   3.830080e+01   1.619629e+01
   3.392549e+01   5.550319e+01
  -1.925359e+01   7.982965e+01
  -8.768000e+01   5.536711e+01
  -1.207659e+02  -2.459872e+01
  -7.650937e+01  -1.078520e+02
   1.567833e+01  -1.247973e+02
   8.469967e+01  -6.768460e+01
   7.285093e+01   8.678819e+00
   2.634660e+01   4.018775e+01
   8.122395e+00   2.168571e+01
   2.587213e+01  -4.024333e+00
   4.193950e+01   9.767247e+00
   1.533548e+01   3.441461e+01
  -2.829954e+01   4.083048e+01
  -5.862003e+01   9.380126e+00
  -3.706641e+01  -3.088007e+01
   2.578920e+01  -5.158601e+01
   8.723533e+01  -2.364424e+01
   9.845166e+01   5.411017e+01
   2.702074e+01   1.215356e+02
  -8.372869e+01   1.073333e+02
  -1.464696e+02   3.432197e+01
  -1.276510e+02  -8.122347e+01
  -3.245977e+01  -1.085616e+02
   4.612268e+01  -7.675870e+01
   6.864443e+01  -3.400005e+01
   5.869209e+01  -2.181492e+01
   4.809097e+01  -3.070963e+01
   5.394268e+01  -2.035515e+01
   5.994724e+01   2.905364e+01
   4.078206e+01   9.335984e+01
  -1.600679e+01   1.193034e+02
  -7.882062e+01   7.726030e+01
  -9.230609e+01  -1.173431e+01
  -5.027569e+01  -8.220935e+01
   1.514442e+01  -8.681541e+01
   4.711238e+01  -3.705245e+01
   2.769509e+01   1.157630e+01
  -6.452633e+00   2.316779e+01
  -1.243082e+01   1.673628e+01
   1.400975e+01   1.333916e+01
   3.645733e+01   1.943213e+01
   1.525847e+01   2.232004e+01
  -3.906826e+01   5.276976e+00
  -7.882217e+01  -2.450731e+01
  -6.292400e+01  -4.675300e+01
   4.791351e+00  -4.428888e+01
   7.256185e+01  -1.694553e+01
   7.360386e+01   1.561848e+01
   1.720245e+01   2.766972e+01
  -3.640459e+01   9.435378e+00
  -3.340265e+01  -1.122705e+01
   6.755064e+00  -3.607896e+01
   3.513636e+01  -2.064093e+01
   3.059217e+01   1.145118e+01
   1.365209e+01   2.935716e+01
   1.795986e+01   2.089308e+01
   3.090780e+01   2.866719e+00
   3.297682e+01   6.740981e+00
   9.077089e+00   4.248152e+01
  -3.596430e+01   6.869786e+01
  -7.818667e+01   5.279735e+01
  -8.415151e+01  -1.204267e+01
  -4.457096e+01  -6.508962e+01
   1.900395e+01  -6.290013e+01
   5.574064e+01  -1.546827e+01
   2.755628e+01   1.804518e+01
  -3.439889e+01   2.226872e+00
  -6.412031e+01  -4.236715e+01
  -2.095931e+01  -6.817441e+01
   6.012093e+01  -4.486822e+01
   1.052038e+02   5.787757e+00
   7.811152e+01   4.536654e+01
   5.325250e+00   5.093161e+01
  -4.316334e+01   2.341288e+01
  -2.698654e+01  -4.435028e+00
   2.319819e+01  -7.860452e+00
   4.340670e+01   2.395321e+01
   1.801371e+00   6.273718e+01
  -6.643090e+01   6.394543e+01
  -9.127728e+01   1.118271e+01
  -4.957915e+01  -6.809948e+01
   2.118423e+01  -1.016255e+02
   6.476889e+01  -6.053752e+01
   5.165231e+01   2.009481e+01
   1.111809e+01   7.370750e+01
  -1.578278e+01   5.774586e+01
  -2.932072e+01   6.100044e+00
  -2.628184e+01  -2.486493e+01
  -1.659159e+01  -1.025790e+01
  -5.568384e+00   8.301592e+00
  -4.794661e+00  -1.267514e+01
  -1.316126e+01  -5.366980e+01
  -8.037155e+00  -5.975450e+01
   2.948785e+01  -1.568360e+01
   6.460808e+01   4.476504e+01
   5.650508e+01   6.086140e+01
   1.634759e+00   2.945724e+01
  -4.903647e+01  -2.512445e+00
  -4.559264e+01  -7.189510e+00
  -5.468959e+00  -3.684419e+00
   2.114327e+01  -4.310837e+00
   9.186177e+00  -7.377226e+00
  -1.202513e+01  -3.117670e+00
   1.893118e+00   3.749737e+00
   3.806735e+01   1.007295e+01
   4.329734e+01   2.479793e+01
  -6.923867e+00   4.375392e+01
  -7.728499e+01   4.070912e+01
  -1.007531e+02   2.094783e+00
  -5.827877e+01  -5.458145e+01
   9.474472e+00  -8.239900e+01
   6.150178e+01  -6.417653e+01
   6.675827e+01  -1.525594e+01
   3.731495e+01   1.984417e+01
   6.662585e+00   2.077984e+01
  -4.731588e+00   6.195374e+00
   3.903080e+00   4.412961e+00
   1.016877e+01   2.431843e+01
  -1.139885e+00   4.673217e+01
  -2.646841e+01   3.225280e+01
  -3.945427e+01  -2.327404e+01
  -2.445457e+01  -6.720737e+01
   1.626090e+01  -5.868679e+01
   4.724283e+01   1.432826e+00
   4.497600e+01   5.430664e+01
   1.371418e+00   5.871836e+01
  -4.142654e+01   1.780701e+01
  -4.814459e+01  -2.162149e+01
  -1.371189e+01  -3.268298e+01
   2.227800e+01  -2.316865e+01
   1.683212e+01  -1.045858e+01
  -1.887459e+01  -3.429362e+00
  -3.774028e+01  -3.182292e+00
  -3.894324e+00  -1.271105e+01
   4.951976e+01  -2.515984e+01
   6.250395e+01  -1.901748e+01
   3.090486e+01   1.440091e+01
  -1.861946e+01   4.161576e+01
  -4.004844e+01   3.510936e+01
  -2.174431e+01  -2.853518e+00
   6.716347e+00  -2.866525e+01
   1.994522e+01  -1.823120e+01
   1.626023e+01   1.390335e+01
   5.771037e+00   3.119297e+01
  -6.997774e+00   1.712999e+01
  -1.518187e+01  -8.510611e+00
  -1.517568e+01  -1.794057e+01
  -9.317339e+00  -4.857712e+00
  -1.759815e+00   6.381913e+00
   3.082678e+00   1.740017e-01
   8.941330e+00  -1.601229e+01
   1.502027e+01  -2.084477e+01
   1.752461e+01  -8.418426e-01
   6.620474e+00   2.617551e+01
  -1.057195e+01   3.169143e+01
  -2.556252e+01   4.369089e+00
  -2.169734e+01  -2.844636e+01
   2.504282e+00  -3.559106e+01
   3.219029e+01  -8.250518e+00
   4.222126e+01   1.936495e+01
   1.996558e+01   2.746103e+01
  -1.888855e+01   1.533081e+01
  -3.443345e+01   3.396466e+00
  -9.983087e+00   7.813489e-01
   2.051642e+01   8.078234e+00
   1.699360e+01   1.457906e+01
  -2.144836e+01   1.133741e+01
  -5.233882e+01  -3.376208e+00
