
 $NMID
 id='ANONYMOUS ', fmtdat='(2E16.6)'
 volume=1.0
 tramp=1.0
 $END
   3.291380e+03   2.255963e+02
   1.919411e+03   1.988623e+03
  -6.288974e+02   2.076220e+03
  -1.675692e+03   6.421416e+02
  -6.676873e+02  -6.010825e+02
   5.891834e+02  -4.230355e+02
   7.537324e+02   4.089956e+02
  -7.126741e+00   8.985287e+02
  -6.659621e+02   6.229523e+02
  -7.280351e+02  -7.839182e+01
  -3.185849e+02  -6.385528e+02
   1.688851e+02  -6.977689e+02
   4.978427e+02  -8.162073e+01
   3.100242e+02   5.750887e+02
  -1.635659e+02   5.290183e+02
  -4.672481e+02  -6.516223e+00
  -2.028564e+02  -5.258319e+02
   2.346460e+02  -4.844501e+02
   4.260683e+02  -7.762869e+01
   2.926842e+02   2.613183e+02
   1.553539e+01   3.347221e+02
  -1.703903e+02   2.262259e+02
  -1.822548e+02   2.730084e+01
   7.298818e+01  -9.625846e+01
   3.407240e+02   5.169878e+01
   1.866922e+02   3.546218e+02
  -3.614025e+02   3.702061e+02
  -7.070796e+02  -3.734913e+01
  -3.749357e+02  -4.512972e+02
   3.107146e+02  -4.185347e+02
   6.200508e+02   1.502523e+01
   3.078847e+02   3.850567e+02
  -2.105950e+02   4.396206e+02
  -4.494776e+02   1.909477e+02
  -3.488656e+02  -1.672340e+02
  -7.692938e+01  -3.924168e+02
   1.597977e+02  -2.544066e+02
   1.721748e+02   1.929110e+02
  -1.177741e+02   3.805265e+02
  -3.788760e+02  -2.307456e+00
  -2.467329e+02  -5.433618e+02
   2.394634e+02  -5.848274e+02
   4.880710e+02  -7.070214e+00
   2.222048e+02   4.578620e+02
  -2.236766e+02   2.655338e+02
  -3.113586e+02  -2.562676e+02
   4.403183e+01  -4.299435e+02
   4.322003e+02  -1.086170e+02
   4.771493e+02   3.085274e+02
   1.581422e+02   4.278257e+02
  -2.725469e+02   2.892868e+02
  -4.991362e+02  -6.003605e+00
  -3.203376e+02  -2.877278e+02
   1.099278e+02  -3.062655e+02
   3.612660e+02  -5.748224e+01
   2.036210e+02   1.671575e+02
  -1.099644e+02   9.019594e+01
  -1.268339e+02  -1.301262e+02
   1.378948e+02  -1.536548e+02
   2.763345e+02   6.007047e+01
   9.814842e+01   2.416854e+02
  -1.575952e+02   1.975349e+02
  -2.373716e+02   4.992571e+01
  -1.459209e+02  -4.368131e+01
  -1.146653e+01  -1.568719e+02
   1.366201e+02  -2.664911e+02
   2.617481e+02  -2.027103e+02
   2.418808e+02   8.924507e+01
   6.369136e+01   3.440662e+02
  -1.038938e+02   2.813634e+02
  -9.804658e+01   5.723801e+01
   3.804739e+00  -2.414124e+01
  -9.484779e+00   8.188896e+01
  -1.432236e+02   1.197062e+02
  -2.292637e+02  -2.657833e+01
  -1.351458e+02  -2.098085e+02
   4.742433e+01  -2.084634e+02
   1.685602e+02  -2.308796e+01
   1.626277e+02   1.790827e+02
   1.258730e+01   2.325696e+02
  -1.960941e+02   1.109463e+02
  -2.922828e+02  -1.033200e+02
  -1.651674e+02  -2.611787e+02
   5.808209e+01  -2.418044e+02
   1.717847e+02  -1.010568e+02
   1.106305e+02  -8.347045e-01
   6.995493e+01  -2.902962e+01
   1.780994e+02  -6.738808e+01
   3.191383e+02   3.252614e+01
   2.712910e+02   2.191055e+02
   1.510006e+01   3.535369e+02
  -2.667627e+02   3.363827e+02
  -3.754784e+02   1.793646e+02
  -2.808335e+02  -5.179659e+01
  -6.825036e+01  -2.215253e+02
   8.553874e+01  -2.060097e+02
   7.048449e+01  -2.905747e+01
  -8.070575e+01   9.262055e+01
  -1.642171e+02   1.093904e+00
  -5.634573e+01  -1.573621e+02
   1.110508e+02  -1.411143e+02
   1.518055e+02   3.985864e+01
  -3.773840e+00   1.492212e+02
  -1.460050e+02   4.103199e+01
  -1.265684e+02  -1.728737e+02
   6.936363e+00  -2.583408e+02
   1.473107e+02  -1.531263e+02
   2.383009e+02   1.965180e+01
   2.315248e+02   1.462213e+02
   1.059736e+02   1.944101e+02
  -7.015215e+01   1.409093e+02
  -1.481154e+02   3.563582e+01
  -5.821955e+01  -3.053563e+01
   5.825564e+01   1.823257e+01
   3.723050e+01   9.711593e+01
  -8.881453e+01   8.745106e+01
  -1.438768e+02  -1.307998e+00
  -5.199200e+01  -5.986716e+01
   6.091363e+01  -2.558128e+01
   5.169795e+01   4.478659e+01
  -8.070531e+01   6.699727e+01
  -2.007501e+02   1.778603e+01
  -2.054001e+02  -8.592220e+01
  -6.512157e+01  -1.902408e+02
   1.255522e+02  -2.157295e+02
   2.223628e+02  -1.247090e+02
   1.463653e+02   3.077880e+01
  -1.048704e+01   9.537128e+01
  -7.781821e+01   1.714423e+01
   1.550463e+01  -7.874876e+01
   1.503590e+02  -5.720682e+01
   1.747891e+02   6.432257e+01
   6.412190e+01   1.592234e+02
  -6.584805e+01   1.297619e+02
  -1.104894e+02   2.856135e+01
  -5.789513e+01  -3.282744e+01
   1.995986e+01  -8.720517e+00
   3.464647e+01   5.700728e+01
  -4.039312e+01   8.953846e+01
  -1.445356e+02   3.550911e+01
  -1.520463e+02  -8.072194e+01
  -2.886430e+01  -1.659612e+02
   1.186969e+02  -1.360924e+02
   1.488245e+02  -1.412837e+01
   5.713058e+01   8.657818e+01
  -4.439574e+01   9.206734e+01
  -6.155766e+01   3.053741e+01
  -1.846000e+01  -1.198699e+01
   1.039645e+01  -1.694220e+01
  -8.635583e+00   3.341096e-01
  -4.943124e+01  -7.988656e+00
  -6.733341e+01  -5.574970e+01
  -2.200147e+01  -1.155146e+02
   8.087331e+01  -1.222125e+02
   1.723754e+02  -3.579423e+01
   1.630575e+02   1.007302e+02
   4.668297e+01   1.755907e+02
  -7.509091e+01   1.349923e+02
  -1.007429e+02   2.872241e+01
  -5.405618e+01  -4.008324e+01
  -2.512619e+01  -2.613058e+01
  -3.938031e+01   1.218143e+01
  -5.733056e+01   8.733638e+00
  -3.206578e+01  -3.235791e+01
   2.386878e+01  -5.953407e+01
   6.663299e+01  -4.769288e+01
   6.198890e+01   1.221489e+01
  -1.355204e+00   7.636150e+01
  -9.448850e+01   7.278795e+01
  -1.473012e+02  -2.519457e+01
  -8.871608e+01  -1.486890e+02
   6.298319e+01  -1.812459e+02
   1.796223e+02  -8.201807e+01
   2.096629e+02   5.987910e+01
   9.790762e+01   1.352730e+02
  -2.312834e+01   1.177618e+02
  -7.302076e+01   6.512024e+01
  -6.490128e+01   5.281047e+01
  -5.035525e+01   6.803322e+01
  -6.146398e+01   5.701292e+01
  -9.081442e+01  -1.134692e+01
  -9.618942e+01  -1.052160e+02
  -3.491237e+01  -1.617570e+02
   6.582434e+01  -1.345002e+02
   1.305024e+02  -2.805799e+01
   1.106258e+02   8.442422e+01
   2.667060e+01   1.237415e+02
  -4.514418e+01   8.155782e+01
  -4.739703e+01   1.248865e+01
  -1.147686e+01  -2.945973e+01
   9.134009e-01  -3.055760e+01
  -2.866755e+01  -1.618009e+01
  -6.113889e+01  -1.394729e+01
  -3.572351e+01  -2.359525e+01
   3.999594e+01  -2.646738e+01
   1.146839e+02  -6.787979e+00
   1.106461e+02   3.225610e+01
   1.881448e+01   6.433076e+01
  -8.486724e+01   5.738465e+01
  -1.106515e+02   1.556545e+01
  -4.057726e+01  -2.751321e+01
   4.175739e+01  -2.848054e+01
   5.173285e+01   1.204558e+01
   8.001527e+00   4.626607e+01
  -3.598017e+01   4.260693e+01
  -4.301236e+01   2.792727e+00
  -3.290509e+01  -3.206542e+01
  -3.710083e+01  -3.061894e+01
  -4.943818e+01  -9.378182e-01
  -4.907493e+01  -1.438796e-01
  -2.510007e+01  -4.822065e+01
   2.194103e+01  -1.049614e+02
   7.939295e+01  -1.116348e+02
   1.157957e+02  -3.793599e+01
   9.398793e+01   5.743030e+01
   1.315795e+01   9.163435e+01
  -5.715255e+01   5.202702e+01
  -4.605153e+01  -6.196682e+00
   3.903990e+01  -1.768659e+01
   1.067103e+02   2.294382e+01
   6.608829e+01   7.529375e+01
  -5.381941e+01   8.824889e+01
  -1.406210e+02   4.756768e+01
  -1.222575e+02  -2.077845e+01
  -3.135864e+01  -6.352332e+01
   4.262729e+01  -5.629491e+01
   3.777877e+01  -1.129480e+01
  -2.321739e+01   1.741200e+01
  -6.300741e+01  -1.221154e+01
  -2.890214e+01  -8.199183e+01
   5.702438e+01  -1.152789e+02
   1.169897e+02  -5.650668e+01
   9.828964e+01   6.634758e+01
   1.723111e+01   1.476692e+02
  -5.957279e+01   1.172975e+02
  -8.046160e+01   3.463476e+00
  -4.848146e+01  -8.871979e+01
  -3.534703e+00  -8.713379e+01
   3.427781e+01  -1.850550e+01
   4.164522e+01   2.455342e+01
   2.138090e+01   9.944813e+00
  -4.337746e-01  -1.505950e+01
   1.077049e+01   3.869115e+00
   4.299456e+01   5.804344e+01
   4.230961e+01   7.767495e+01
  -2.628514e+01   3.937203e+01
  -1.029154e+02  -2.510273e+01
  -1.037900e+02  -5.055384e+01
  -2.068259e+01  -3.702965e+01
   6.450910e+01  -1.679942e+01
   6.857784e+01  -8.711566e+00
   1.084622e+01   3.200350e+00
  -2.619393e+01   1.616950e+01
  -8.142230e+00   1.705903e+01
   1.606839e+01   1.779738e+00
  -4.605331e+00  -7.485514e+00
  -5.644128e+01  -3.689036e+00
  -6.988804e+01  -1.583315e+01
  -1.120148e+01  -5.728731e+01
   8.535512e+01  -9.034309e+01
   1.359688e+02  -5.554405e+01
   1.108789e+02   4.130518e+01
   2.829278e+01   1.209940e+02
  -4.909684e+01   1.186948e+02
  -8.203380e+01   5.332587e+01
  -6.443959e+01  -9.139531e+00
  -2.216483e+01  -2.230586e+01
   1.794388e+00  -6.908439e+00
  -6.821124e+00  -2.437120e+00
  -2.280076e+01  -3.421329e+01
  -2.183395e+01  -6.599368e+01
   1.590341e+01  -5.384958e+01
   5.842128e+01   1.092817e+01
   6.019270e+01   7.687699e+01
   8.576736e+00   8.203120e+01
  -5.919200e+01   1.892770e+01
  -7.881016e+01  -5.105324e+01
  -2.796231e+01  -7.319786e+01
   4.406006e+01  -4.241069e+01
   7.054115e+01   3.597618e+00
   3.111934e+01   3.327548e+01
  -1.928282e+01   3.760503e+01
  -1.953652e+01   2.475570e+01
   2.656820e+01   3.659236e-01
   5.234912e+01  -9.502074e+00
   1.219539e+01   1.442903e+01
  -5.704995e+01   5.077885e+01
  -8.583658e+01   5.108471e+01
  -4.700623e+01  -2.555847e+00
   6.816826e+00  -6.256552e+01
   3.325225e+01  -6.532153e+01
   2.584184e+01  -6.524929e+00
   3.748106e+00   4.140359e+01
  -1.735727e+01   3.409441e+01
  -2.949778e+01  -1.255298e+01
  -2.439431e+01  -4.154542e+01
  -8.609938e-01  -2.629818e+01
   2.613664e+01   3.903327e+00
   3.300989e+01   1.117929e+01
   1.696335e+01  -1.080446e+00
  -7.685937e-01  -9.174499e+00
  -5.795203e+00   4.772191e+00
  -5.589818e+00   2.625789e+01
  -1.085566e+01   2.940396e+01
  -2.051840e+01   3.926955e+00
  -1.917612e+01  -3.040001e+01
   2.004318e+00  -4.132838e+01
   3.038988e+01  -1.449232e+01
   4.098698e+01   2.650367e+01
   1.287753e+01   4.338945e+01
  -3.566626e+01   2.669472e+01
  -6.333608e+01  -6.551043e+00
  -3.963405e+01  -2.766086e+01
   1.561777e+01  -2.898122e+01
   4.527138e+01  -1.933795e+01
   1.810115e+01  -8.122057e+00
  -2.689913e+01  -4.807993e+00
  -2.682879e+01  -1.263403e+01
   2.522475e+01  -2.242583e+01
   7.046145e+01  -1.476199e+01
