
 $NMID
 id='ANONYMOUS ', fmtdat='(2E16.6)'
 volume=1.0
 tramp=1.0
 $END
  -4.470529e+03  -1.280831e+02
  -2.751120e+03  -2.832531e+03
   8.940280e+02  -3.058596e+03
   2.464713e+03  -8.198401e+02
   9.708268e+02   9.766289e+02
  -8.965489e+02   6.735362e+02
  -1.123389e+03  -6.179459e+02
   1.675574e+01  -1.311484e+03
   9.948957e+02  -8.996961e+02
   1.081864e+03   1.547921e+02
   4.473396e+02   9.981374e+02
  -3.109579e+02   1.015504e+03
  -7.700172e+02   1.021086e+02
  -4.439328e+02  -8.550968e+02
   3.064272e+02  -7.985782e+02
   7.300307e+02   3.063937e+01
   2.911650e+02   8.014375e+02
  -4.081533e+02   7.097466e+02
  -6.744870e+02   6.403952e+01
  -4.264328e+02  -4.324063e+02
   1.283650e+01  -5.160648e+02
   2.861312e+02  -3.029456e+02
   2.686840e+02  -4.727118e+00
  -1.124653e+02   1.460761e+02
  -4.921868e+02  -8.485343e+01
  -2.675122e+02  -5.054461e+02
   5.060568e+02  -5.256698e+02
   9.826384e+02   6.388825e+01
   5.213195e+02   6.650385e+02
  -4.533596e+02   6.150220e+02
  -8.780425e+02  -2.418699e+01
  -4.235712e+02  -5.770396e+02
   3.183038e+02  -6.282535e+02
   6.533436e+02  -2.385954e+02
   4.757869e+02   2.801217e+02
   6.542376e+01   5.709105e+02
  -2.808714e+02   3.397036e+02
  -2.546319e+02  -2.797270e+02
   1.803390e+02  -5.614562e+02
   5.645127e+02  -1.146628e+01
   3.421815e+02   7.766962e+02
  -3.702624e+02   8.330041e+02
  -7.269469e+02   1.112069e+01
  -3.103251e+02  -6.747903e+02
   3.551238e+02  -4.040873e+02
   4.703399e+02   3.706894e+02
  -6.315125e+01   6.414033e+02
  -6.231012e+02   1.713735e+02
  -6.972600e+02  -4.637779e+02
  -2.063661e+02  -6.747697e+02
   4.478095e+02  -4.229305e+02
   7.457457e+02   6.094758e+01
   4.474227e+02   4.618241e+02
  -1.742174e+02   4.443901e+02
  -5.283993e+02   6.362438e+01
  -2.777498e+02  -2.552180e+02
   1.658167e+02  -1.284438e+02
   1.880183e+02   1.922753e+02
  -1.999372e+02   2.267515e+02
  -4.098934e+02  -8.569223e+01
  -1.490656e+02  -3.468851e+02
   2.362690e+02  -2.819267e+02
   3.581409e+02  -6.263545e+01
   2.064820e+02   8.054472e+01
  -1.604883e+01   2.223057e+02
  -2.138709e+02   3.552385e+02
  -3.675759e+02   2.593930e+02
  -3.366382e+02  -1.468617e+02
  -8.220024e+01  -4.973530e+02
   1.546541e+02  -4.147792e+02
   1.611342e+02  -8.141984e+01
   1.934216e+01   4.896924e+01
   1.759781e+01  -9.659021e+01
   1.952335e+02  -1.687757e+02
   3.165855e+02   4.119124e+01
   1.921654e+02   3.037554e+02
  -7.115416e+01   3.052421e+02
  -2.568857e+02   3.649574e+01
  -2.350512e+02  -2.591938e+02
  -4.563614e+00  -3.429325e+02
   2.981979e+02  -1.568527e+02
   4.199791e+02   1.727589e+02
   2.215671e+02   4.031981e+02
  -1.176085e+02   3.567672e+02
  -2.708900e+02   1.288744e+02
  -1.636840e+02  -1.760064e+01
  -9.610696e+01   2.923727e+01
  -2.512919e+02   9.030385e+01
  -4.495262e+02  -5.170455e+01
  -3.724179e+02  -3.270318e+02
   2.663962e+00  -5.048838e+02
   3.978683e+02  -4.451810e+02
   5.279839e+02  -2.125998e+02
   3.818730e+02   9.849398e+01
   7.754040e+01   3.266335e+02
  -1.430494e+02   2.946024e+02
  -1.113836e+02   3.456226e+01
   1.095661e+02  -1.343767e+02
   2.357328e+02  -1.419102e+00
   7.398301e+01   2.304548e+02
  -1.737284e+02   1.968482e+02
  -2.152796e+02  -6.960206e+01
   1.584909e+01  -2.248152e+02
   2.227785e+02  -5.048196e+01
   1.814901e+02   2.680822e+02
  -2.998424e+01   3.831509e+02
  -2.432795e+02   2.127981e+02
  -3.511444e+02  -5.621737e+01
  -3.155093e+02  -2.415647e+02
  -1.162918e+02  -2.861146e+02
   1.231044e+02  -1.877054e+02
   2.047155e+02  -2.719219e+01
   6.897879e+01   5.155279e+01
  -8.818062e+01  -3.320310e+01
  -4.574372e+01  -1.459903e+02
   1.342894e+02  -1.237504e+02
   2.088229e+02   8.041673e+00
   7.703123e+01   8.728091e+01
  -8.513609e+01   3.622336e+01
  -7.129630e+01  -6.781245e+01
   1.161473e+02  -9.559570e+01
   2.892887e+02  -9.898034e+00
   2.867390e+02   1.428083e+02
   7.925694e+01   2.780108e+02
  -1.938918e+02   2.975388e+02
  -3.235102e+02   1.496397e+02
  -2.068570e+02  -5.993849e+01
   2.184721e+01  -1.363446e+02
   1.113603e+02  -1.536407e+01
  -2.361332e+01   1.205809e+02
  -2.151360e+02   7.851605e+01
  -2.438703e+02  -1.054840e+02
  -8.319539e+01  -2.330071e+02
   1.008747e+02  -1.862495e+02
   1.606054e+02  -4.018869e+01
   8.380592e+01   4.880158e+01
  -2.699586e+01   1.580855e+01
  -4.565678e+01  -8.083537e+01
   6.685399e+01  -1.281728e+02
   2.133654e+02  -4.593296e+01
   2.160209e+02   1.261902e+02
   3.066556e+01   2.452664e+02
  -1.809528e+02   1.883144e+02
  -2.199027e+02   7.170426e+00
  -7.871458e+01  -1.333743e+02
   7.159702e+01  -1.318882e+02
   9.609396e+01  -3.892276e+01
   2.949325e+01   2.470179e+01
  -1.578113e+01   2.563782e+01
   1.127005e+01   3.733895e-02
   7.113188e+01   1.276008e+01
   9.556086e+01   8.287936e+01
   2.201151e+01   1.699694e+02
  -1.287167e+02   1.743377e+02
  -2.538173e+02   4.076392e+01
  -2.308202e+02  -1.588551e+02
  -5.878272e+01  -2.649845e+02
   1.187272e+02  -1.942457e+02
   1.535845e+02  -3.146498e+01
   7.825037e+01   6.548462e+01
   3.032602e+01   4.285115e+01
   5.536952e+01  -1.287172e+01
   8.185392e+01  -8.719069e+00
   4.039611e+01   4.889404e+01
  -4.493967e+01   8.347428e+01
  -1.010057e+02   5.893353e+01
  -8.757121e+01  -2.939935e+01
   7.931981e+00  -1.136867e+02
   1.411384e+02  -1.017464e+02
   2.111883e+02   3.532267e+01
   1.283954e+02   2.107530e+02
  -9.361205e+01   2.615023e+02
  -2.671446e+02   1.207869e+02
  -2.905729e+02  -8.909361e+01
  -1.281206e+02  -2.023874e+02
   4.463969e+01  -1.692212e+02
   1.086291e+02  -8.841315e+01
   9.152313e+01  -6.595727e+01
   7.469663e+01  -9.164195e+01
   9.600044e+01  -7.993933e+01
   1.361551e+02   2.207361e+01
   1.322494e+02   1.628689e+02
   3.602416e+01   2.441199e+02
  -1.096742e+02   1.906677e+02
  -1.944567e+02   2.963973e+01
  -1.513651e+02  -1.304495e+02
  -2.407463e+01  -1.780772e+02
   7.257109e+01  -1.078207e+02
   6.945443e+01  -8.071263e+00
   1.306230e+01   4.370289e+01
  -6.807182e+00   3.984391e+01
   3.754219e+01   2.186663e+01
   8.259893e+01   2.282370e+01
   5.040863e+01   3.814562e+01
  -6.072726e+01   4.185222e+01
  -1.648247e+02   7.587039e+00
  -1.572060e+02  -5.136254e+01
  -2.491904e+01  -9.586391e+01
   1.237733e+02  -8.357245e+01
   1.583493e+02  -1.757744e+01
   5.599812e+01   4.478730e+01
  -6.245410e+01   4.230796e+01
  -8.021391e+01  -1.707428e+01
  -9.334881e+00  -7.311820e+01
   5.955666e+01  -6.411885e+01
   6.586566e+01   8.794304e-01
   4.432988e+01   5.308655e+01
   4.497364e+01   4.916200e+01
   6.596016e+01   3.087033e+00
   6.957700e+01  -1.794233e+00
   3.582163e+01   6.666430e+01
  -3.171551e+01   1.506621e+02
  -1.174138e+02   1.533673e+02
  -1.690385e+02   4.161211e+01
  -1.312071e+02  -9.361853e+01
  -1.301881e+01  -1.328928e+02
   8.678756e+01  -6.520949e+01
   6.438294e+01   1.912333e+01
  -5.960884e+01   2.511899e+01
  -1.528252e+02  -4.230040e+01
  -8.992235e+01  -1.146992e+02
   8.038030e+01  -1.249606e+02
   2.027891e+02  -6.414331e+01
   1.758189e+02   3.364063e+01
   4.412148e+01   9.630418e+01
  -6.406727e+01   7.925723e+01
  -5.363844e+01   9.315953e+00
   3.954225e+01  -2.895501e+01
   9.660048e+01   2.404506e+01
   3.526397e+01   1.290405e+02
  -9.940997e+01   1.675672e+02
  -1.834920e+02   6.788862e+01
  -1.390376e+02  -1.108300e+02
  -1.317839e+01  -2.147441e+02
   9.514148e+01  -1.587390e+02
   1.172585e+02   4.298952e+00
   6.806490e+01   1.245098e+02
   2.129613e+00   1.164469e+02
  -4.883403e+01   2.185694e+01
  -5.790636e+01  -3.355558e+01
  -2.940201e+01  -1.069276e+01
  -2.260004e+00   2.371622e+01
  -1.858822e+01  -9.707250e+00
  -5.897735e+01  -9.416150e+01
  -4.940831e+01  -1.211716e+02
   4.719949e+01  -5.437082e+01
   1.482403e+02   4.391160e+01
   1.404796e+02   8.406246e+01
   2.068838e+01   5.980639e+01
  -9.612962e+01   2.275347e+01
  -9.855328e+01   8.139401e+00
  -1.525335e+01  -8.843806e+00
   4.021069e+01  -2.443774e+01
   1.278400e+01  -2.249041e+01
  -2.457985e+01  -2.466342e+00
   6.862707e+00   8.099236e+00
   8.240949e+01   7.065225e+00
   1.011374e+02   2.650006e+01
   1.111255e+01   8.488648e+01
  -1.299793e+02   1.232948e+02
  -1.997140e+02   7.026237e+01
  -1.533853e+02  -6.758246e+01
  -2.987731e+01  -1.751727e+02
   8.067993e+01  -1.656937e+02
   1.215998e+02  -6.714724e+01
   8.921399e+01   2.225159e+01
   2.988052e+01   3.869695e+01
  -3.021829e+00   9.116095e+00
   1.046228e+01   1.900734e+00
   3.350542e+01   5.035141e+01
   2.672629e+01   9.840147e+01
  -3.009731e+01   7.922001e+01
  -8.689920e+01  -1.866475e+01
  -8.484232e+01  -1.166660e+02
  -5.944233e+00  -1.209431e+02
   8.871955e+01  -2.454187e+01
   1.100470e+02   8.007788e+01
   3.321004e+01   1.083664e+02
  -6.828867e+01   5.745837e+01
  -1.003039e+02  -1.175022e+01
  -4.073445e+01  -5.094029e+01
   3.214104e+01  -5.347821e+01
   2.951086e+01  -3.331228e+01
  -3.586464e+01  -9.725611e-01
  -7.265890e+01   8.789576e+00
  -1.669554e+01  -2.368708e+01
   7.928486e+01  -6.924757e+01
   1.226803e+02  -6.565295e+01
   6.677315e+01   1.044541e+01
  -1.727867e+01   8.914659e+01
  -5.697863e+01   8.718084e+01
  -3.919015e+01   3.763590e+00
  -7.154726e-01  -6.106922e+01
   2.811646e+01  -4.661227e+01
   3.930226e+01   2.070124e+01
   2.705572e+01   6.076495e+01
  -3.172385e+00   3.651049e+01
  -3.690140e+01  -9.507571e+00
  -4.446598e+01  -2.399419e+01
  -2.196800e+01  -3.425744e+00
   5.389196e-01   1.275946e+01
   7.432398e+00  -4.915447e+00
   9.319088e+00  -3.846323e+01
   2.057908e+01  -4.475035e+01
   3.411623e+01  -5.593279e+00
   2.777157e+01   4.946294e+01
  -7.527302e+00   6.426696e+01
  -4.969196e+01   2.066789e+01
  -6.305523e+01  -4.233441e+01
  -1.786508e+01  -6.953629e+01
   5.724850e+01  -4.022508e+01
   9.597026e+01   1.301454e+01
   5.762884e+01   4.523271e+01
  -2.564041e+01   4.356892e+01
  -6.764762e+01   2.381819e+01
  -2.457532e+01   7.637561e+00
   4.197543e+01   5.875969e+00
   3.988205e+01   2.087829e+01
  -3.665216e+01   3.500646e+01
  -1.027188e+02   1.975199e+01
