
 $NMID
 id='ANONYMOUS ', fmtdat='(2E16.6)'
 volume=1.0
 tramp=1.0
 $END
  -4.188061e+03   1.730844e+02
  -2.500281e+03  -2.367080e+03
   5.063995e+02  -2.757543e+03
   1.901526e+03  -1.107199e+03
   1.059945e+03   3.111989e+02
  -3.591652e+02   4.126014e+02
  -6.404405e+02  -2.827392e+02
  -9.626567e+00  -8.369296e+02
   6.680102e+02  -6.925365e+02
   8.373700e+02   2.258919e+01
   4.289780e+02   7.506933e+02
  -1.442461e+02   8.103927e+02
  -5.057176e+02   1.382184e+02
  -3.109502e+02  -6.486269e+02
   2.013518e+02  -6.240728e+02
   5.442476e+02  -6.487248e-01
   2.702604e+02   6.325592e+02
  -2.581679e+02   6.455668e+02
  -5.465079e+02   1.574955e+02
  -4.072982e+02  -2.967401e+02
  -7.545854e+01  -3.912560e+02
   1.730896e+02  -2.492089e+02
   1.370365e+02  -2.909897e+01
  -1.486657e+02   4.129102e+00
  -3.695202e+02  -1.975095e+02
  -1.084127e+02  -4.289198e+02
   4.876488e+02  -3.153351e+02
   7.587830e+02   1.394350e+02
   3.246306e+02   5.041420e+02
  -3.932450e+02   3.694579e+02
  -6.578706e+02  -1.108151e+02
  -2.615680e+02  -4.709484e+02
   3.049776e+02  -4.486887e+02
   5.442072e+02  -1.406391e+02
   3.725439e+02   2.260611e+02
   6.009392e+01   4.210390e+02
  -1.340847e+02   2.478377e+02
  -6.867910e+01  -1.742454e+02
   2.111440e+02  -3.214952e+02
   3.690643e+02   1.126607e+02
   1.232602e+02   6.689597e+02
  -3.505414e+02   6.315814e+02
  -5.305332e+02  -2.433408e+01
  -2.029327e+02  -4.948278e+02
   2.567153e+02  -2.502068e+02
   3.085291e+02   3.192462e+02
  -1.032457e+02   5.043764e+02
  -5.413360e+02   1.180616e+02
  -5.839980e+02  -4.159238e+02
  -1.590849e+02  -5.888086e+02
   3.662905e+02  -3.258259e+02
   6.134412e+02   8.133635e+01
   3.624054e+02   3.575608e+02
  -1.276615e+02   3.155064e+02
  -3.855357e+02   4.879794e+01
  -2.259912e+02  -1.242168e+02
   7.096323e+01  -5.880045e+01
   9.784876e+01   1.253532e+02
  -1.414216e+02   1.287433e+02
  -3.016121e+02  -6.725403e+01
  -1.468353e+02  -2.530522e+02
   1.760090e+02  -2.595762e+02
   3.401862e+02  -1.152870e+02
   2.392334e+02   8.470620e+01
  -1.134100e+01   2.839535e+02
  -2.594147e+02   3.693597e+02
  -3.701163e+02   2.096272e+02
  -2.900278e+02  -1.562303e+02
  -6.213694e+01  -4.216305e+02
   9.656431e+01  -3.653757e+02
   9.686915e+01  -1.393456e+02
   3.150060e+01  -3.386045e+01
   8.470126e+01  -1.056053e+02
   2.207182e+02  -1.040084e+02
   2.738310e+02   8.695892e+01
   1.354252e+02   2.753598e+02
  -8.675153e+01   2.362454e+02
  -2.234469e+02  -9.564600e+00
  -1.753075e+02  -2.427505e+02
   3.372908e+01  -2.891987e+02
   2.676415e+02  -1.008968e+02
   3.399747e+02   1.775983e+02
   1.733680e+02   3.487594e+02
  -8.882127e+01   2.964983e+02
  -2.086996e+02   1.321494e+02
  -1.496283e+02   3.331104e+01
  -1.241285e+02   4.946102e+01
  -2.582582e+02   4.002381e+01
  -3.964607e+02  -9.052224e+01
  -3.101754e+02  -3.097972e+02
   2.454415e+01  -4.520973e+02
   3.733087e+02  -3.965901e+02
   4.904654e+02  -1.701308e+02
   3.202272e+02   1.129038e+02
   3.797161e+01   2.798312e+02
  -1.289706e+02   2.283817e+02
  -5.986008e+01   2.559399e+01
   1.135479e+02  -8.484723e+01
   1.716992e+02   2.389880e+01
   3.407182e+01   1.904633e+02
  -1.375808e+02   1.383381e+02
  -1.524754e+02  -5.972572e+01
   3.428175e+01  -1.868660e+02
   1.941669e+02  -2.002948e+01
   1.607874e+02   2.449887e+02
  -3.878285e+01   3.600064e+02
  -2.538314e+02   2.061055e+02
  -3.505259e+02  -6.930160e+01
  -2.835503e+02  -2.614462e+02
  -6.849691e+01  -2.780557e+02
   1.315911e+02  -1.519393e+02
   1.687039e+02  -1.028821e+01
   3.818773e+01   3.035065e+01
  -6.852153e+01  -5.366922e+01
  -1.277422e+01  -1.301085e+02
   1.329618e+02  -9.392795e+01
   1.718504e+02   2.097005e+01
   4.967234e+01   7.483043e+01
  -8.742576e+01   8.618691e+00
  -5.318897e+01  -8.511352e+01
   1.376273e+02  -9.721106e+01
   2.916286e+02  -2.809783e+00
   2.617017e+02   1.599176e+02
   4.473918e+01   2.725552e+02
  -1.965910e+02   2.552874e+02
  -2.801251e+02   1.128505e+02
  -1.561393e+02  -5.507080e+01
   3.040769e+01  -9.825024e+01
   8.301367e+01   1.236740e+00
  -4.094336e+01   9.925074e+01
  -2.019647e+02   5.351411e+01
  -2.163336e+02  -1.031609e+02
  -7.033697e+01  -2.082925e+02
   9.549572e+01  -1.580822e+02
   1.423745e+02  -2.632071e+01
   6.043092e+01   4.398799e+01
  -4.146861e+01  -5.480738e+00
  -3.740008e+01  -1.029897e+02
   8.566274e+01  -1.266678e+02
   2.128869e+02  -2.613807e+01
   1.947053e+02   1.317584e+02
   1.780202e+01   2.206385e+02
  -1.636212e+02   1.641481e+02
  -1.885938e+02   6.038385e+00
  -6.192756e+01  -1.138751e+02
   6.998327e+01  -1.110556e+02
   8.110086e+01  -2.670131e+01
   9.649490e+00   2.754070e+01
  -3.071237e+01   1.543700e+01
   8.603066e+00  -1.653669e+01
   8.212583e+01   5.158074e+00
   1.008792e+02   9.030001e+01
   1.525349e+01   1.719039e+02
  -1.414957e+02   1.585745e+02
  -2.498247e+02   2.179608e+01
  -2.077450e+02  -1.617086e+02
  -3.905653e+01  -2.470609e+02
   1.144024e+02  -1.738409e+02
   1.406694e+02  -2.809805e+01
   7.281157e+01   5.592051e+01
   3.140335e+01   3.297022e+01
   5.545447e+01  -1.531052e+01
   8.555079e+01  -6.406233e+00
   4.920656e+01   5.793483e+01
  -4.715105e+01   1.078297e+02
  -1.143289e+02   6.877272e+01
  -1.022915e+02  -4.086718e+01
   7.714427e+00  -1.246316e+02
   1.508565e+02  -9.131551e+01
   2.048488e+02   5.968647e+01
   9.038635e+01   2.149241e+02
  -1.211509e+02   2.334832e+02
  -2.500600e+02   8.038140e+01
  -2.518629e+02  -1.030265e+02
  -9.715351e+01  -1.815431e+02
   5.089201e+01  -1.414874e+02
   9.484240e+01  -7.491391e+01
   6.978221e+01  -6.470226e+01
   5.905471e+01  -9.163875e+01
   9.421067e+01  -7.985315e+01
   1.348910e+02   1.951741e+01
   1.237831e+02   1.604071e+02
   2.814315e+01   2.315450e+02
  -1.092290e+02   1.729345e+02
  -1.808772e+02   1.818249e+01
  -1.340670e+02  -1.250400e+02
  -1.208846e+01  -1.590827e+02
   7.723590e+01  -8.636463e+01
   6.498171e+01   1.103630e+01
   1.131231e+00   5.263340e+01
  -2.258159e+01   3.384273e+01
   2.609850e+01   9.871840e+00
   8.032905e+01   1.716513e+01
   4.908746e+01   4.194563e+01
  -6.709524e+01   4.504527e+01
  -1.668547e+02  -2.300027e-01
  -1.501074e+02  -6.513909e+01
  -9.675013e+00  -1.031136e+02
   1.293861e+02  -7.461354e+01
   1.512935e+02  -5.824939e+00
   5.081667e+01   5.174849e+01
  -6.262688e+01   4.293769e+01
  -7.413136e+01  -1.465518e+01
  -1.361304e+01  -7.286538e+01
   5.429853e+01  -6.285749e+01
   6.663001e+01   1.144938e+00
   4.687590e+01   5.057419e+01
   4.241197e+01   3.866709e+01
   6.078155e+01  -3.728137e+00
   7.255584e+01  -9.869601e-01
   4.439630e+01   7.243941e+01
  -2.745349e+01   1.532127e+02
  -1.221079e+02   1.488427e+02
  -1.760317e+02   3.300133e+01
  -1.302427e+02  -9.495202e+01
  -7.166243e+00  -1.346465e+02
   9.064986e+01  -6.935889e+01
   6.511553e+01   1.349920e+01
  -5.446133e+01   2.400536e+01
  -1.353196e+02  -3.991988e+01
  -7.283553e+01  -1.085396e+02
   8.383641e+01  -1.132296e+02
   1.907123e+02  -4.659596e+01
   1.604631e+02   4.010007e+01
   3.269976e+01   8.912239e+01
  -6.550402e+01   6.557605e+01
  -5.053243e+01   1.023359e+00
   4.173851e+01  -3.184868e+01
   9.731022e+01   2.028778e+01
   4.185491e+01   1.238399e+02
  -8.749910e+01   1.659628e+02
  -1.743358e+02   7.632452e+01
  -1.319896e+02  -9.905216e+01
  -1.457407e+01  -2.042472e+02
   8.849540e+01  -1.476110e+02
   1.088150e+02   9.641144e+00
   6.001414e+01   1.247834e+02
  -7.022270e+00   1.117644e+02
  -5.100849e+01   1.787894e+01
  -4.818142e+01  -3.387872e+01
  -2.068833e+01  -1.027957e+01
  -5.343237e+00   2.103294e+01
  -2.777779e+01  -1.397312e+01
  -5.707162e+01  -8.848204e+01
  -3.992932e+01  -1.117648e+02
   5.260202e+01  -4.760853e+01
   1.385145e+02   3.845561e+01
   1.279787e+02   7.394062e+01
   1.582812e+01   5.715468e+01
  -8.907157e+01   2.672888e+01
  -9.274544e+01   6.392791e+00
  -1.551399e+01  -1.289396e+01
   3.835658e+01  -2.634430e+01
   2.030331e+01  -1.774916e+01
  -1.717881e+01   3.841544e+00
   4.885093e+00   1.170771e+01
   7.411085e+01   4.101140e+00
   9.745141e+01   2.289538e+01
   1.807472e+01   8.289175e+01
  -1.201369e+02   1.268202e+02
  -2.058661e+02   7.665673e+01
  -1.632398e+02  -6.495454e+01
  -3.602392e+01  -1.758483e+02
   8.195947e+01  -1.682979e+02
   1.220065e+02  -7.069085e+01
   8.578212e+01   1.973062e+01
   2.729905e+01   3.818171e+01
   1.330349e-01   1.208328e+01
   1.412671e+01   7.220165e+00
   3.419453e+01   4.301112e+01
   1.933101e+01   9.355586e+01
  -3.215235e+01   7.521674e+01
  -8.490607e+01  -1.716268e+01
  -8.413175e+01  -1.146920e+02
  -8.202280e+00  -1.218133e+02
   8.637790e+01  -3.104523e+01
   1.148835e+02   7.394925e+01
   4.065532e+01   1.101541e+02
  -6.658279e+01   6.586190e+01
  -1.058780e+02  -6.546353e+00
  -4.546038e+01  -5.459497e+01
   3.240093e+01  -5.722532e+01
   3.554832e+01  -3.134492e+01
  -2.943330e+01   3.150608e+00
  -7.043716e+01   8.809857e+00
  -1.830343e+01  -2.822498e+01
   8.024961e+01  -7.208742e+01
   1.263207e+02  -5.744363e+01
   6.983869e+01   1.710478e+01
  -1.377636e+01   8.866610e+01
  -5.602306e+01   8.375315e+01
  -4.173855e+01   8.371040e+00
  -2.553850e+00  -5.546146e+01
   2.736369e+01  -4.483316e+01
   3.801784e+01   1.701206e+01
   2.515466e+01   5.598101e+01
  -4.840151e+00   3.593228e+01
  -3.471085e+01  -8.824239e+00
  -3.887645e+01  -2.521179e+01
  -1.684707e+01  -2.948797e+00
   4.402855e+00   1.908003e+01
   5.643793e+00   4.882084e+00
  -3.924982e-01  -3.333987e+01
   7.805349e+00  -4.821035e+01
   3.031015e+01  -1.661262e+01
   3.712739e+01   3.896391e+01
   8.161812e+00   6.100248e+01
  -4.110704e+01   2.486705e+01
  -6.024826e+01  -3.536104e+01
  -1.820213e+01  -6.267824e+01
   5.512527e+01  -3.742878e+01
   9.429903e+01   1.256978e+01
   5.312171e+01   4.687624e+01
  -2.714768e+01   4.598650e+01
  -6.696289e+01   2.637036e+01
  -2.796653e+01   5.222934e+00
   3.331209e+01  -3.200189e-01
   3.669768e+01   1.197210e+01
  -2.818012e+01   3.100833e+01
  -8.872923e+01   1.965624e+01
