
 $NMID
 id='ANONYMOUS ', fmtdat='(2E16.6)'
 volume=1.0
 tramp=1.0
 $END
   4.416605e+03  -1.375265e+02
   2.934531e+03   2.584805e+03
  -5.998006e+02   2.989551e+03
  -2.217001e+03   9.766039e+02
  -9.772085e+02  -8.038109e+02
   7.536991e+02  -6.650215e+02
   1.028324e+03   5.608286e+02
  -2.029548e+01   1.243694e+03
  -9.376201e+02   8.449084e+02
  -1.028522e+03  -1.486046e+02
  -4.248777e+02  -9.913659e+02
   2.999329e+02  -9.700243e+02
   7.460525e+02  -1.087327e+02
   4.324785e+02   8.070773e+02
  -2.817367e+02   7.570991e+02
  -6.970006e+02  -2.406506e+01
  -2.835941e+02  -7.542961e+02
   3.901518e+02  -6.567076e+02
   6.547433e+02  -5.340256e+01
   3.964088e+02   4.043575e+02
  -1.453128e+01   4.900605e+02
  -2.711037e+02   2.726676e+02
  -2.374421e+02   7.415227e+00
   1.087894e+02  -1.074666e+02
   4.509064e+02   1.036844e+02
   2.464941e+02   4.606752e+02
  -4.567009e+02   4.828240e+02
  -8.936695e+02  -3.068892e+01
  -5.146258e+02  -5.928173e+02
   4.015887e+02  -5.755074e+02
   8.205310e+02   1.050280e+01
   3.967411e+02   5.419731e+02
  -3.136118e+02   5.841957e+02
  -6.286241e+02   2.187752e+02
  -4.530358e+02  -2.767330e+02
  -6.810812e+01  -5.515735e+02
   2.537373e+02  -3.216258e+02
   2.275224e+02   2.489113e+02
  -1.673883e+02   5.282020e+02
  -5.340907e+02   1.326590e+01
  -3.231799e+02  -7.444990e+02
   3.410461e+02  -7.923029e+02
   6.951312e+02  -2.602440e+01
   3.088541e+02   6.207465e+02
  -3.301411e+02   3.779384e+02
  -4.465628e+02  -3.427778e+02
   6.855209e+01  -6.000386e+02
   6.065082e+02  -1.533165e+02
   6.497201e+02   4.452651e+02
   1.808866e+02   6.483274e+02
  -4.300015e+02   3.880390e+02
  -7.096769e+02  -8.306548e+01
  -4.190627e+02  -4.439765e+02
   1.640258e+02  -4.181057e+02
   5.067984e+02  -7.130482e+01
   2.699515e+02   2.310804e+02
  -1.415639e+02   1.262834e+02
  -1.757170e+02  -1.746374e+02
   1.816946e+02  -2.190186e+02
   3.907823e+02   8.206422e+01
   1.463888e+02   3.291865e+02
  -2.338073e+02   2.703418e+02
  -3.471824e+02   5.270683e+01
  -1.843884e+02  -1.057613e+02
   4.829339e+01  -2.192074e+02
   2.195305e+02  -3.182774e+02
   3.362018e+02  -2.290201e+02
   3.082489e+02   1.321436e+02
   8.943045e+01   4.644291e+02
  -1.187774e+02   4.083392e+02
  -1.396228e+02   1.077031e+02
  -2.957007e+01  -3.040705e+01
  -3.147794e+01   8.449604e+01
  -1.909883e+02   1.482738e+02
  -2.997409e+02  -4.488901e+01
  -1.816309e+02  -2.865859e+02
   7.341822e+01  -2.832455e+02
   2.484055e+02  -2.928510e+01
   2.149501e+02   2.460355e+02
  -2.883070e+00   3.174622e+02
  -2.813304e+02   1.326284e+02
  -3.853582e+02  -1.720716e+02
  -1.966170e+02  -3.846974e+02
   1.181416e+02  -3.378458e+02
   2.608683e+02  -1.283945e+02
   1.653562e+02   8.732919e+00
   1.071347e+02  -2.428597e+01
   2.574466e+02  -7.091562e+01
   4.423522e+02   6.743591e+01
   3.533326e+02   3.250403e+02
  -1.789235e+01   4.920686e+02
  -4.013032e+02   4.310641e+02
  -5.212574e+02   2.023579e+02
  -3.619439e+02  -1.029634e+02
  -6.388791e+01  -3.175381e+02
   1.381164e+02  -2.826366e+02
   9.581690e+01  -3.414746e+01
  -1.064565e+02   1.225630e+02
  -2.169407e+02   1.508645e+00
  -6.599464e+01  -2.190068e+02
   1.629360e+02  -1.844941e+02
   2.063164e+02   6.745280e+01
  -1.562830e+01   2.175829e+02
  -2.148044e+02   4.816166e+01
  -1.775676e+02  -2.642951e+02
   3.292050e+01  -3.718435e+02
   2.443586e+02  -2.022672e+02
   3.413490e+02   6.856751e+01
   2.981975e+02   2.439207e+02
   9.910867e+01   2.742523e+02
  -1.222352e+02   1.715931e+02
  -1.946114e+02   2.238252e+01
  -6.698217e+01  -4.324251e+01
   8.082145e+01   3.410596e+01
   4.353664e+01   1.349384e+02
  -1.276406e+02   1.169869e+02
  -1.995771e+02  -8.388214e+00
  -7.249895e+01  -8.104008e+01
   8.496698e+01  -2.965801e+01
   6.671274e+01   6.719243e+01
  -1.200382e+02   8.785558e+01
  -2.884293e+02   4.836925e+00
  -2.778608e+02  -1.390714e+02
  -6.897772e+01  -2.640047e+02
   1.920440e+02  -2.786635e+02
   3.096031e+02  -1.335495e+02
   1.902536e+02   5.879033e+01
  -2.608116e+01   1.275790e+02
  -1.059271e+02   1.361136e+01
   2.383260e+01  -1.133993e+02
   2.061633e+02  -7.157708e+01
   2.319306e+02   1.011893e+02
   7.887676e+01   2.173959e+02
  -9.465221e+01   1.724691e+02
  -1.496598e+02   3.584232e+01
  -7.505433e+01  -4.400236e+01
   2.467278e+01  -1.083273e+01
   4.009943e+01   8.065965e+01
  -7.090244e+01   1.195455e+02
  -2.075197e+02   3.609795e+01
  -2.056147e+02  -1.248536e+02
  -2.559222e+01  -2.327373e+02
   1.762988e+02  -1.765294e+02
   2.074275e+02  -6.049762e+00
   7.085846e+01   1.261647e+02
  -6.973162e+01   1.237221e+02
  -9.145006e+01   3.691255e+01
  -2.657245e+01  -2.256403e+01
   1.417271e+01  -2.198109e+01
  -1.385186e+01   6.640319e-01
  -7.285962e+01  -1.559040e+01
  -8.946628e+01  -8.588224e+01
  -1.443034e+01  -1.647420e+02
   1.291091e+02  -1.622605e+02
   2.443465e+02  -3.396050e+01
   2.168018e+02   1.573029e+02
   5.074536e+01   2.540546e+02
  -1.146158e+02   1.835056e+02
  -1.462473e+02   2.812665e+01
  -7.593548e+01  -6.395302e+01
  -3.148210e+01  -4.267327e+01
  -5.500374e+01   9.661474e+00
  -7.822786e+01   6.705956e+00
  -3.598451e+01  -4.942163e+01
   5.050572e+01  -8.313689e+01
   1.004251e+02  -5.527240e+01
   8.547072e+01   3.395177e+01
  -9.371911e+00   1.111037e+02
  -1.386658e+02   9.457210e+01
  -2.045960e+02  -4.095713e+01
  -1.186032e+02  -2.056546e+02
   9.494370e+01  -2.466087e+02
   2.552167e+02  -1.092829e+02
   2.766366e+02   8.698571e+01
   1.202775e+02   1.884339e+02
  -4.232797e+01   1.599793e+02
  -1.035345e+02   8.635379e+01
  -8.735812e+01   6.621367e+01
  -7.596279e+01   8.833363e+01
  -9.653518e+01   7.224183e+01
  -1.325646e+02  -2.375181e+01
  -1.242888e+02  -1.612822e+02
  -3.073049e+01  -2.374743e+02
   1.075413e+02  -1.813674e+02
   1.858394e+02  -2.552851e+01
   1.426636e+02   1.265171e+02
   2.104780e+01   1.687378e+02
  -6.860136e+01   9.906835e+01
  -6.235233e+01   4.599583e+00
  -8.279011e+00  -4.098337e+01
   6.004058e+00  -3.555027e+01
  -3.790128e+01  -1.944686e+01
  -7.982407e+01  -2.287116e+01
  -4.627145e+01  -3.845526e+01
   6.033672e+01  -3.906512e+01
   1.568657e+02  -5.823151e+00
   1.497475e+02   4.682599e+01
   2.243505e+01   8.628227e+01
  -1.169982e+02   7.383745e+01
  -1.495000e+02   1.752171e+01
  -5.352132e+01  -3.807710e+01
   6.152760e+01  -3.816962e+01
   7.764993e+01   1.314164e+01
   6.292418e+00   7.044143e+01
  -6.212943e+01   6.156432e+01
  -6.661944e+01  -2.528357e+00
  -4.136372e+01  -5.363536e+01
  -4.069449e+01  -4.833956e+01
  -6.270914e+01  -6.119868e+00
  -6.837009e+01  -2.902016e+00
  -3.316395e+01  -6.584732e+01
   3.645849e+01  -1.426896e+02
   1.212761e+02  -1.437930e+02
   1.646051e+02  -3.614016e+01
   1.233743e+02   9.184065e+01
   7.616674e+00   1.263845e+02
  -8.613834e+01   5.913857e+01
  -5.965132e+01  -1.893970e+01
   5.905860e+01  -2.093514e+01
   1.423646e+02   4.835097e+01
   8.141579e+01   1.123798e+02
  -8.425130e+01   1.175811e+02
  -1.990163e+02   5.554435e+01
  -1.698954e+02  -3.754701e+01
  -4.165707e+01  -9.177019e+01
   6.122669e+01  -7.424064e+01
   5.145868e+01  -8.079495e+00
  -3.911262e+01   2.639267e+01
  -9.322376e+01  -2.484571e+01
  -3.268511e+01  -1.228920e+02
   9.801574e+01  -1.575626e+02
   1.769008e+02  -6.739854e+01
   1.352319e+02   1.046026e+02
   1.600620e+01   2.095782e+02
  -8.987321e+01   1.574103e+02
  -1.135401e+02  -3.027079e+00
  -6.587640e+01  -1.200546e+02
  -2.359404e+00  -1.122606e+02
   4.655697e+01  -2.120422e+01
   5.377544e+01   3.071010e+01
   2.977644e+01   8.719237e+00
   3.111275e+00  -2.217599e+01
   1.945274e+01   1.348325e+01
   5.624302e+01   9.123000e+01
   4.767647e+01   1.149747e+02
  -4.534455e+01   4.906799e+01
  -1.423581e+02  -4.219273e+01
  -1.386947e+02  -7.662434e+01
  -1.882097e+01  -5.576556e+01
   9.433454e+01  -2.300173e+01
   9.351399e+01  -1.012108e+01
   1.140973e+01   8.487892e+00
  -4.089755e+01   2.524444e+01
  -1.374790e+01   2.197753e+01
   2.172914e+01   1.275730e+00
  -8.276656e+00  -1.050997e+01
  -7.857360e+01  -1.133375e+01
  -9.542486e+01  -2.890632e+01
  -4.940630e+00  -8.576306e+01
   1.297153e+02  -1.192429e+02
   1.984416e+02  -6.297323e+01
   1.504236e+02   7.096544e+01
   2.984502e+01   1.705423e+02
  -7.914116e+01   1.598848e+02
  -1.193059e+02   6.498382e+01
  -8.677268e+01  -1.952766e+01
  -2.877109e+01  -3.824335e+01
   3.946534e+00  -1.059285e+01
  -8.253628e+00  -3.928361e+00
  -3.334349e+01  -4.717439e+01
  -2.569484e+01  -9.210517e+01
   3.110258e+01  -7.510931e+01
   8.625524e+01   2.020392e+01
   8.286327e+01   1.148508e+02
   3.727374e+00   1.188569e+02
  -8.886446e+01   2.264960e+01
  -1.092423e+02  -8.081352e+01
  -3.150191e+01  -1.075026e+02
   6.828195e+01  -5.580356e+01
   9.834601e+01   1.268713e+01
   3.793537e+01   5.011559e+01
  -3.080527e+01   5.066546e+01
  -2.719964e+01   3.159501e+01
   3.559625e+01   3.329118e+00
   7.123302e+01  -4.439748e+00
   1.334488e+01   2.524551e+01
  -8.296748e+01   6.625692e+01
  -1.182795e+02   6.096303e+01
  -6.243701e+01  -1.341147e+01
   1.906145e+01  -8.733731e+01
   5.652152e+01  -8.218733e+01
   3.841296e+01  -3.502597e+00
   1.194559e+00   5.924117e+01
  -2.718232e+01   4.433471e+01
  -3.794638e+01  -2.079079e+01
  -2.517979e+01  -5.647309e+01
   4.560833e+00  -3.323742e+01
   3.599442e+01   9.824503e+00
   4.150589e+01   2.417698e+01
   2.130443e+01   3.873044e+00
  -1.344331e+00  -1.126386e+01
  -9.016891e+00   4.956392e+00
  -9.909110e+00   3.716611e+01
  -2.117949e+01   4.409349e+01
  -3.431679e+01   5.239512e+00
  -2.792945e+01  -4.939399e+01
   6.465975e+00  -6.511593e+01
   4.785655e+01  -2.113235e+01
   5.928469e+01   4.033507e+01
   1.628480e+01   6.708115e+01
  -5.584504e+01   3.757138e+01
  -9.356204e+01  -1.465388e+01
  -5.351331e+01  -4.597842e+01
   2.791867e+01  -4.150437e+01
   6.723456e+01  -2.160705e+01
   2.377795e+01  -5.744444e+00
  -4.014254e+01  -4.056561e+00
  -4.040251e+01  -1.867903e+01
   3.396619e+01  -3.335346e+01
   1.000387e+02  -1.927954e+01
