
 $NMID
 id='ANONYMOUS ', fmtdat='(2E16.6)'
 volume=1.0
 tramp=1.0
 $END
  -3.447712e+03  -1.508033e+02
  -2.000868e+03  -2.053442e+03
   4.497118e+02  -2.284955e+03
   1.588205e+03  -9.898165e+02
   8.492640e+02   1.438508e+02
  -3.045580e+02   3.551425e+02
  -6.091086e+02  -2.969149e+02
   3.362749e+01  -8.084619e+02
   6.931685e+02  -6.366189e+02
   7.972252e+02   4.696619e+01
   4.296152e+02   6.899656e+02
  -1.627314e+02   7.693728e+02
  -4.831300e+02   9.308774e+01
  -2.718486e+02  -6.022386e+02
   2.203162e+02  -5.682077e+02
   5.283390e+02   3.277267e+01
   2.664614e+02   6.518651e+02
  -2.627591e+02   6.657883e+02
  -5.826431e+02   1.724330e+02
  -4.613515e+02  -2.979746e+02
  -8.850532e+01  -4.242865e+02
   1.881484e+02  -2.540781e+02
   1.207826e+02  -5.918689e+01
  -1.910166e+02  -4.574738e+01
  -3.526204e+02  -2.634632e+02
  -2.475131e+01  -4.463933e+02
   5.508509e+02  -2.538505e+02
   7.471213e+02   2.018371e+02
   2.814209e+02   5.034328e+02
  -4.270637e+02   3.192180e+02
  -6.530408e+02  -1.449789e+02
  -2.335266e+02  -4.809698e+02
   3.387404e+02  -4.535471e+02
   5.547349e+02  -1.201162e+02
   3.561666e+02   2.554065e+02
   4.183534e+01   4.030398e+02
  -1.138685e+02   1.975001e+02
  -2.154327e+01  -1.760554e+02
   2.186153e+02  -2.515465e+02
   2.956094e+02   1.469221e+02
   2.141235e+01   6.080580e+02
  -3.550668e+02   5.146544e+02
  -4.389364e+02  -7.047122e+01
  -1.183284e+02  -4.702372e+02
   2.710295e+02  -2.143230e+02
   2.823433e+02   3.410018e+02
  -1.317112e+02   4.911011e+02
  -5.492927e+02   8.761430e+01
  -5.662868e+02  -4.373621e+02
  -1.216276e+02  -5.786688e+02
   3.861692e+02  -3.036878e+02
   5.970902e+02   1.143378e+02
   3.538372e+02   3.400009e+02
  -1.164194e+02   2.793131e+02
  -3.754605e+02   5.000211e+01
  -2.254002e+02  -9.199054e+01
   5.701252e+01  -4.489903e+01
   8.874517e+01   9.585803e+01
  -1.437703e+02   1.073912e+02
  -2.859667e+02  -8.122544e+01
  -1.204739e+02  -2.565451e+02
   2.023401e+02  -2.668580e+02
   3.738668e+02  -1.115766e+02
   2.554677e+02   1.269729e+02
  -4.456952e+01   3.338130e+02
  -2.981328e+02   3.781092e+02
  -3.729829e+02   1.652896e+02
  -2.549879e+02  -2.048795e+02
  -4.600984e+01  -4.119859e+02
   8.671179e+01  -3.196602e+02
   6.422065e+01  -1.210388e+02
   2.059419e+01  -5.747987e+01
   1.085131e+02  -1.173458e+02
   2.558452e+02  -8.478784e+01
   2.742743e+02   1.231480e+02
   1.041320e+02   2.999080e+02
  -1.232511e+02   2.335862e+02
  -2.379053e+02  -4.138858e+01
  -1.687103e+02  -2.821946e+02
   5.780056e+01  -2.858475e+02
   2.866722e+02  -7.150207e+01
   3.390154e+02   2.016834e+02
   1.540146e+02   3.465941e+02
  -9.896374e+01   2.855723e+02
  -2.099343e+02   1.286537e+02
  -1.574681e+02   3.784254e+01
  -1.406033e+02   6.361076e+01
  -2.870790e+02   5.133520e+01
  -4.413047e+02  -9.681749e+01
  -3.344150e+02  -3.319502e+02
   3.668410e+01  -4.872474e+02
   4.205853e+02  -4.314111e+02
   5.285637e+02  -1.678959e+02
   3.211570e+02   1.452359e+02
   1.672535e+01   3.022524e+02
  -1.363835e+02   2.160699e+02
  -4.335069e+01   1.884592e+01
   1.228046e+02  -7.414766e+01
   1.585035e+02   3.756351e+01
   6.926854e+00   1.776301e+02
  -1.354499e+02   1.232373e+02
  -1.355290e+02  -7.028478e+01
   3.411037e+01  -1.666692e+02
   1.943677e+02  -3.895314e+00
   1.611940e+02   2.614949e+02
  -4.573586e+01   3.628693e+02
  -2.690347e+02   1.980883e+02
  -3.645493e+02  -9.489875e+01
  -2.634261e+02  -2.942430e+02
  -4.006643e+01  -2.899545e+02
   1.506538e+02  -1.355999e+02
   1.662599e+02   7.130091e+00
   3.652379e+01   2.402061e+01
  -6.107500e+01  -6.417465e+01
   2.826287e+00  -1.267730e+02
   1.408717e+02  -6.873446e+01
   1.654028e+02   4.111554e+01
   3.009403e+01   7.957534e+01
  -9.248522e+01  -7.099343e+00
  -4.476907e+01  -1.043812e+02
   1.553810e+02  -9.733832e+01
   3.157054e+02   2.490597e+01
   2.694329e+02   1.952816e+02
   2.262271e+01   2.932802e+02
  -2.322337e+02   2.516782e+02
  -2.942134e+02   8.985309e+01
  -1.495945e+02  -6.944890e+01
   3.843290e+01  -9.746456e+01
   7.593110e+01   7.392189e+00
  -5.524151e+01   9.457567e+01
  -2.032506e+02   3.704878e+01
  -2.017663e+02  -1.199591e+02
  -5.064097e+01  -2.110547e+02
   1.040622e+02  -1.466529e+02
   1.341447e+02  -1.069452e+01
   4.881235e+01   4.766096e+01
  -4.615835e+01  -1.367736e+01
  -2.619000e+01  -1.115478e+02
   1.031513e+02  -1.256987e+02
   2.234766e+02  -1.191434e+01
   1.878752e+02   1.514864e+02
   2.209255e+00   2.317462e+02
  -1.773442e+02   1.577971e+02
  -1.914406e+02  -5.516922e+00
  -5.355045e+01  -1.160482e+02
   7.786926e+01  -1.037029e+02
   8.499120e+01  -1.808733e+01
   1.978248e+00   3.043608e+01
  -4.036229e+01   1.219764e+01
   7.751397e+00  -2.736915e+01
   9.320843e+01   1.760016e+00
   1.056614e+02   1.009512e+02
   5.089218e+00   1.884229e+02
  -1.586960e+02   1.555864e+02
  -2.587422e+02  -2.036956e+00
  -2.004497e+02  -1.815808e+02
  -2.306640e+01  -2.472396e+02
   1.217752e+02  -1.638370e+02
   1.434994e+02  -1.929351e+01
   7.510831e+01   5.800122e+01
   3.087880e+01   3.226294e+01
   5.177894e+01  -1.795514e+01
   8.850355e+01  -5.897584e+00
   5.285301e+01   6.256784e+01
  -4.294952e+01   1.068471e+02
  -1.263235e+02   6.235246e+01
  -1.027954e+02  -5.027651e+01
   2.365823e+01  -1.348514e+02
   1.713141e+02  -8.985939e+01
   2.095850e+02   7.218760e+01
   8.014664e+01   2.213918e+02
  -1.375092e+02   2.290825e+02
  -2.609904e+02   7.836020e+01
  -2.509160e+02  -1.056894e+02
  -9.707365e+01  -1.896164e+02
   4.909716e+01  -1.491652e+02
   9.700745e+01  -8.107539e+01
   7.959014e+01  -7.070700e+01
   7.238633e+01  -9.715756e+01
   1.053181e+02  -7.452786e+01
   1.428923e+02   3.434095e+01
   1.133059e+02   1.766475e+02
   9.916595e+00   2.428779e+02
  -1.227893e+02   1.686001e+02
  -1.841646e+02  -1.464204e+00
  -1.288658e+02  -1.423662e+02
  -2.293992e+00  -1.640987e+02
   8.412861e+01  -7.972866e+01
   6.703526e+01   1.742085e+01
  -1.335439e+00   5.513542e+01
  -2.241953e+01   3.367341e+01
   3.170441e+01   1.245993e+01
   8.800769e+01   2.617653e+01
   4.761203e+01   4.995321e+01
  -8.287918e+01   4.529990e+01
  -1.848678e+02  -3.812586e+00
  -1.500560e+02  -7.207732e+01
   5.811153e+00  -1.061478e+02
   1.397947e+02  -7.432091e+01
   1.491532e+02   3.353113e+00
   3.920167e+01   5.865933e+01
  -6.873178e+01   4.215975e+01
  -8.078760e+01  -2.257684e+01
  -1.116091e+01  -8.085573e+01
   5.533618e+01  -6.445224e+01
   7.133674e+01   6.034359e+00
   4.961658e+01   5.884713e+01
   4.238557e+01   4.327730e+01
   5.883990e+01  -2.195240e+00
   7.077647e+01   6.217193e-01
   4.341108e+01   7.720007e+01
  -3.515561e+01   1.576195e+02
  -1.329627e+02   1.490514e+02
  -1.823477e+02   2.529367e+01
  -1.297612e+02  -1.072870e+02
   2.608874e+00  -1.409150e+02
   9.694536e+01  -6.565560e+01
   6.390162e+01   2.065160e+01
  -6.114903e+01   2.454473e+01
  -1.409464e+02  -4.756382e+01
  -7.043989e+01  -1.161345e+02
   9.356799e+01  -1.090015e+02
   1.945264e+02  -3.470706e+01
   1.558198e+02   4.590642e+01
   2.667538e+01   8.830054e+01
  -6.741770e+01   6.179330e+01
  -4.704011e+01  -1.524035e+00
   4.598429e+01  -2.887933e+01
   9.480557e+01   2.776935e+01
   3.156864e+01   1.272431e+02
  -9.587362e+01   1.599187e+02
  -1.719782e+02   5.804201e+01
  -1.256002e+02  -1.141427e+02
  -4.030396e+00  -2.099188e+02
   9.480836e+01  -1.439857e+02
   1.073658e+02   1.597352e+01
   5.500765e+01   1.265884e+02
  -9.999038e+00   1.081283e+02
  -5.024549e+01   1.456578e+01
  -4.586603e+01  -3.225490e+01
  -2.051738e+01  -5.185861e+00
  -1.137336e+01   2.170758e+01
  -3.831915e+01  -2.347083e+01
  -6.194699e+01  -9.944880e+01
  -2.763024e+01  -1.184012e+02
   7.036259e+01  -4.409970e+01
   1.477980e+02   4.819295e+01
   1.214811e+02   8.520706e+01
   6.188572e+00   5.876538e+01
  -9.301290e+01   2.069359e+01
  -8.844642e+01  -2.794399e+00
  -1.090848e+01  -1.545751e+01
   4.105107e+01  -2.189139e+01
   1.971954e+01  -1.109702e+01
  -1.676835e+01   5.747494e+00
   4.043526e+00   6.544958e+00
   7.321936e+01  -2.766054e-01
   9.905235e+01   2.305998e+01
   1.621558e+01   8.640454e+01
  -1.214937e+02   1.302466e+02
  -2.013264e+02   6.837165e+01
  -1.567551e+02  -7.049455e+01
  -2.519392e+01  -1.769107e+02
   8.962440e+01  -1.645672e+02
   1.238491e+02  -6.255867e+01
   8.318768e+01   2.790792e+01
   2.440091e+01   4.375481e+01
   1.778450e+00   1.417276e+01
   1.478347e+01   8.051155e+00
   3.222234e+01   5.316768e+01
   1.382595e+01   9.768736e+01
  -3.617069e+01   7.260340e+01
  -8.511801e+01  -2.080954e+01
  -8.073723e+01  -1.133225e+02
  -7.759500e+00  -1.159261e+02
   8.427651e+01  -2.537567e+01
   1.078284e+02   7.799238e+01
   3.334635e+01   1.085803e+02
  -7.364570e+01   6.058345e+01
  -1.073432e+02  -1.426651e+01
  -4.227534e+01  -6.102194e+01
   3.858454e+01  -5.787415e+01
   4.095442e+01  -2.742782e+01
  -2.837599e+01   5.365271e+00
  -6.863706e+01   9.702327e+00
  -1.453696e+01  -2.906496e+01
   8.452002e+01  -7.068757e+01
   1.272341e+02  -5.344876e+01
   6.873600e+01   2.464787e+01
  -2.024048e+01   9.322745e+01
  -6.233634e+01   8.558138e+01
  -4.577513e+01   5.354912e+00
  -2.641718e+00  -5.678159e+01
   2.683325e+01  -4.615945e+01
   3.567791e+01   1.614186e+01
   2.394186e+01   5.438747e+01
  -4.264001e+00   3.574205e+01
  -3.432713e+01  -9.144393e+00
  -4.018300e+01  -2.557819e+01
  -2.086309e+01  -2.907909e+00
   1.925664e+00   2.070068e+01
   4.573190e+00   5.044445e+00
  -2.455239e+00  -3.681170e+01
   5.028416e+00  -5.417479e+01
   3.018037e+01  -1.786049e+01
   3.912100e+01   4.236269e+01
   7.392289e+00   6.376236e+01
  -4.499034e+01   2.373654e+01
  -6.483852e+01  -3.978820e+01
  -1.877484e+01  -6.437142e+01
   5.930965e+01  -3.731293e+01
   9.859345e+01   1.451389e+01
   5.121611e+01   4.817378e+01
  -3.301758e+01   4.588506e+01
  -7.031649e+01   2.431920e+01
  -2.786342e+01   3.606875e+00
   3.592026e+01  -2.316341e+00
   3.547755e+01   1.140886e+01
  -3.081812e+01   2.888588e+01
  -8.833459e+01   1.843807e+01
