
 $NMID
 id='ANONYMOUS ', fmtdat='(2E16.6)'
 volume=1.0
 tramp=1.0
 $END
   2.542978e+03   1.981560e+02
   1.357196e+03   1.586817e+03
  -4.692926e+02   1.614705e+03
  -1.294461e+03   5.123559e+02
  -6.104729e+02  -2.470805e+02
   2.686023e+02  -2.531367e+02
   4.221898e+02   2.993487e+02
  -1.164370e+02   5.990733e+02
  -5.651364e+02   3.738269e+02
  -5.330162e+02  -1.155044e+02
  -2.086982e+02  -5.035336e+02
   1.698903e+02  -5.107738e+02
   3.301888e+02  -2.078731e+01
   1.527860e+02   4.333210e+02
  -1.606245e+02   3.662223e+02
  -3.366659e+02  -3.984938e+01
  -1.242353e+02  -4.331135e+02
   2.123693e+02  -3.879065e+02
   3.773157e+02  -7.029528e+01
   2.730602e+02   2.078989e+02
   4.711283e+01   2.727866e+02
  -1.321479e+02   1.714627e+02
  -8.765163e+01   4.771545e+01
   1.158386e+02   4.591660e+01
   2.216541e+02   1.845388e+02
  -1.346317e+00   3.014194e+02
  -3.896086e+02   1.553332e+02
  -4.975406e+02  -1.677930e+02
  -1.857951e+02  -3.652908e+02
   2.922195e+02  -2.180369e+02
   4.319843e+02   1.222371e+02
   1.415763e+02   3.267732e+02
  -2.463985e+02   2.828427e+02
  -3.792341e+02   5.172685e+01
  -2.229492e+02  -1.915266e+02
   1.284305e+00  -2.929889e+02
   1.103996e+02  -1.416734e+02
   1.753822e+01   1.075847e+02
  -1.633842e+02   1.813076e+02
  -2.061063e+02  -1.029944e+02
   1.859840e+01  -4.162454e+02
   2.879607e+02  -3.499258e+02
   3.122705e+02   7.169511e+01
   5.758805e+01   3.334483e+02
  -1.938445e+02   1.323025e+02
  -1.721692e+02  -2.549731e+02
   1.201839e+02  -3.237584e+02
   3.712763e+02  -8.971396e+00
   3.514171e+02   3.442326e+02
   3.313966e+01   3.934415e+02
  -2.738390e+02   1.714399e+02
  -3.825039e+02  -1.172245e+02
  -2.077959e+02  -2.594531e+02
   8.887289e+01  -1.783737e+02
   2.548935e+02  -4.223267e+00
   1.523897e+02   8.757795e+01
  -3.854743e+01   3.166819e+01
  -4.905980e+01  -7.150853e+01
   1.072141e+02  -6.650536e+01
   1.809281e+02   8.301581e+01
   5.084909e+01   1.937693e+02
  -1.495445e+02   1.564435e+02
  -2.404754e+02   4.536707e+01
  -1.570603e+02  -8.638639e+01
   3.351664e+01  -1.821144e+02
   1.877231e+02  -2.233400e+02
   2.400101e+02  -1.071274e+02
   1.596957e+02   1.309739e+02
   8.917822e+00   2.729340e+02
  -9.925822e+01   2.111820e+02
  -6.750166e+01   6.638881e+01
  -1.258182e+01   1.427163e+01
  -5.877216e+01   6.167744e+01
  -1.580074e+02   4.731361e+01
  -1.719853e+02  -8.142104e+01
  -5.723761e+01  -1.976585e+02
   8.760393e+01  -1.525516e+02
   1.490541e+02   3.383720e+01
   8.905106e+01   1.920819e+02
  -5.709736e+01   1.824227e+02
  -1.861253e+02   2.928568e+01
  -1.937825e+02  -1.581403e+02
  -6.540579e+01  -2.349446e+02
   8.905364e+01  -1.692752e+02
   1.436147e+02  -5.746330e+01
   1.030752e+02  -1.523298e-01
   9.100951e+01  -2.478726e+01
   1.792391e+02  -1.189351e+01
   2.719701e+02   8.817100e+01
   1.925791e+02   2.332359e+02
  -4.848155e+01   3.077667e+02
  -2.912265e+02   2.500340e+02
  -3.503523e+02   7.747021e+01
  -2.070753e+02  -1.078952e+02
   3.837259e+00  -1.936523e+02
   1.050611e+02  -1.316035e+02
   3.292370e+01  -1.096412e+01
  -8.735480e+01   3.801407e+01
  -1.094042e+02  -3.274945e+01
   2.931951e+00  -1.186021e+02
   9.564648e+01  -6.791589e+01
   8.683636e+01   5.507466e+01
  -3.229092e+01   1.047604e+02
  -1.255849e+02  -7.169312e+00
  -8.336367e+01  -1.809986e+02
   5.498101e+01  -2.339534e+02
   1.820836e+02  -1.151651e+02
   2.280537e+02   7.842225e+01
   1.595829e+02   2.018671e+02
   2.235751e+01   1.928016e+02
  -9.717633e+01   8.343932e+01
  -1.091366e+02  -1.019410e+01
  -2.760638e+01  -1.704579e+01
   3.492571e+01   4.426275e+01
  -6.459565e+00   8.276325e+01
  -9.510195e+01   4.005619e+01
  -1.116093e+02  -3.443670e+01
  -2.181479e+01  -5.465960e+01
   6.017934e+01   5.949148e+00
   2.710220e+01   6.703424e+01
  -1.042402e+02   5.492740e+01
  -2.040870e+02  -3.586384e+01
  -1.651601e+02  -1.433436e+02
  -2.025654e+00  -1.885195e+02
   1.594429e+02  -1.469782e+02
   1.922823e+02  -4.459767e+01
   9.612396e+01   4.685435e+01
  -2.710607e+01   6.028191e+01
  -4.827740e+01  -8.132456e+00
   3.798142e+01  -5.626011e+01
   1.335627e+02  -1.368207e+01
   1.208784e+02   8.782982e+01
   1.822512e+01   1.380636e+02
  -7.627467e+01   8.903897e+01
  -8.880487e+01   1.172763e+00
  -3.214658e+01  -3.392919e+01
   2.718591e+01   7.606394e+00
   1.164857e+01   6.844407e+01
  -7.135790e+01   6.857149e+01
  -1.407060e+02  -7.722052e+00
  -1.095248e+02  -1.071210e+02
   1.390935e+01  -1.460224e+02
   1.262662e+02  -9.051698e+01
   1.230554e+02   1.565302e+01
   2.735512e+01   7.961495e+01
  -5.849126e+01   6.389035e+01
  -5.745475e+01   9.998177e+00
  -1.234327e+00  -1.620866e+01
   2.407966e+01  -6.891044e+00
  -9.969617e+00   1.435310e+01
  -6.087140e+01  -1.061788e+01
  -6.137189e+01  -7.242011e+01
   8.721081e+00  -1.211152e+02
   1.096049e+02  -9.095364e+01
   1.662809e+02   1.418550e+01
   1.244914e+02   1.268234e+02
   5.863712e+00   1.620474e+02
  -8.386704e+01   1.019359e+02
  -9.161574e+01   5.554188e+00
  -4.439885e+01  -3.930879e+01
  -2.098751e+01  -2.013588e+01
  -3.522446e+01   8.668248e+00
  -5.837711e+01  -3.139096e+00
  -2.846859e+01  -4.047783e+01
   3.149529e+01  -5.703129e+01
   7.940700e+01  -2.892095e+01
   5.815850e+01   3.432723e+01
  -2.372878e+01   7.764488e+01
  -1.121712e+02   4.112862e+01
  -1.285558e+02  -6.007702e+01
  -4.025582e+01  -1.429560e+02
   9.943190e+01  -1.340204e+02
   1.655334e+02  -3.487464e+01
   1.589894e+02   7.594773e+01
   5.577475e+01   1.271602e+02
  -3.752381e+01   9.557189e+01
  -7.100330e+01   4.798303e+01
  -5.867385e+01   3.726865e+01
  -5.429964e+01   5.490740e+01
  -6.972106e+01   3.986945e+01
  -8.502839e+01  -2.920157e+01
  -5.842280e+01  -1.182482e+02
   1.203483e+01  -1.585744e+02
   9.184067e+01  -1.026522e+02
   1.210032e+02   1.274377e+01
   7.507392e+01   1.017801e+02
  -1.147815e+01   1.108166e+02
  -6.125282e+01   5.245695e+01
  -4.396428e+01  -1.036497e+01
   1.890573e+00  -3.443314e+01
   1.604300e+01  -2.396053e+01
  -1.886205e+01  -1.568989e+01
  -5.274286e+01  -2.437794e+01
  -2.686373e+01  -3.617168e+01
   5.584592e+01  -2.264424e+01
   1.224339e+02   1.738296e+01
   9.612343e+01   6.051135e+01
  -7.510261e+00   6.872662e+01
  -9.406801e+01   3.814670e+01
  -9.651906e+01  -1.416869e+01
  -2.392053e+01  -4.023541e+01
   4.636960e+01  -2.156331e+01
   4.596986e+01   1.496331e+01
   9.503810e-01   5.118409e+01
  -4.084679e+01   3.681037e+01
  -4.295751e+01  -8.436448e+00
  -2.443839e+01  -3.995030e+01
  -2.568521e+01  -3.101569e+01
  -4.276078e+01  -3.038357e+00
  -4.960497e+01  -6.542925e+00
  -2.205377e+01  -5.322176e+01
   3.497820e+01  -1.000181e+02
   9.546493e+01  -8.474395e+01
   1.153470e+02  -2.234435e+00
   7.415229e+01   7.629721e+01
  -9.312899e+00   8.540306e+01
  -6.464695e+01   3.039948e+01
  -3.648294e+01  -1.732004e+01
   4.492090e+01  -7.192005e+00
   8.676760e+01   4.489321e+01
   3.692621e+01   8.124687e+01
  -6.843119e+01   6.741248e+01
  -1.327504e+02   1.267583e+01
  -1.007887e+02  -4.106775e+01
  -1.238209e+01  -6.009539e+01
   4.732795e+01  -3.484987e+01
   2.990791e+01   1.744903e+00
  -3.204427e+01   1.386278e+01
  -5.979153e+01  -2.620457e+01
  -8.053664e+00  -8.406427e+01
   7.582717e+01  -9.411519e+01
   1.129888e+02  -2.328535e+01
   6.919615e+01   8.424215e+01
  -1.323531e+01   1.373698e+02
  -7.068152e+01   8.705699e+01
  -6.833606e+01  -1.691740e+01
  -2.886996e+01  -8.613992e+01
   1.093050e+01  -7.047144e+01
   3.249479e+01  -6.904276e+00
   3.033514e+01   2.557159e+01
   1.665979e+01   6.250800e+00
   9.319856e+00  -1.393959e+01
   1.881870e+01   1.632265e+01
   2.927507e+01   7.067478e+01
   1.065616e+01   8.272466e+01
  -4.377669e+01   2.205955e+01
  -8.871600e+01  -4.465622e+01
  -7.320399e+01  -6.259934e+01
  -6.031642e+00  -3.313568e+01
   5.900917e+01  -3.211263e+00
   5.621201e+01   6.585748e+00
   6.187611e+00   5.362290e+00
  -2.783264e+01   8.970724e+00
  -1.150192e+01   6.823406e+00
   1.253294e+01  -2.406691e-01
  -3.789679e+00  -5.968019e+00
  -5.120596e+01  -7.553256e+00
  -6.402389e+01  -2.453922e+01
  -9.964386e-01  -5.578074e+01
   9.055045e+01  -7.037443e+01
   1.307554e+02  -2.686341e+01
   9.262197e+01   5.531685e+01
   2.211160e+00   1.125533e+02
  -6.844223e+01   9.713942e+01
  -8.292733e+01   3.064113e+01
  -5.260905e+01  -2.388990e+01
  -1.337313e+01  -3.011429e+01
   1.469192e+00  -8.680991e+00
  -7.552185e+00  -5.812786e+00
  -1.671617e+01  -3.460909e+01
  -3.554810e+00  -6.309015e+01
   2.832520e+01  -4.361104e+01
   5.183630e+01   2.054339e+01
   4.197274e+01   8.074637e+01
  -3.920676e+00   7.491253e+01
  -5.563865e+01   1.041743e+01
  -6.324942e+01  -5.721151e+01
  -1.502869e+01  -7.183612e+01
   5.032934e+01  -3.341484e+01
   6.762408e+01   1.637091e+01
   2.395334e+01   3.969754e+01
  -2.824300e+01   3.260850e+01
  -2.785035e+01   1.496508e+01
   2.108138e+01  -3.194938e-01
   4.843349e+01   7.553819e-02
   8.210800e+00   1.920000e+01
  -6.312483e+01   4.085774e+01
  -8.995460e+01   3.028428e+01
  -4.225696e+01  -1.948435e+01
   2.229706e+01  -5.798636e+01
   4.776261e+01  -5.013675e+01
   2.804482e+01  -6.286814e-01
  -3.056245e+00   3.581201e+01
  -1.936893e+01   2.762362e+01
  -2.101139e+01  -1.348994e+01
  -1.259065e+01  -3.664354e+01
   3.680418e+00  -2.288503e+01
   2.190234e+01   7.809740e+00
   2.668763e+01   1.993942e+01
   1.487370e+01   5.217705e+00
   9.798125e-02  -1.136338e+01
  -5.283822e+00  -1.835354e+00
  -5.978940e+00   2.331524e+01
  -1.058015e+01   3.208594e+01
  -2.127848e+01   7.255387e+00
  -1.962042e+01  -3.011800e+01
   8.995438e-01  -4.031375e+01
   2.923200e+01  -1.041328e+01
   3.571402e+01   2.849026e+01
   5.424611e+00   4.121542e+01
  -4.029653e+01   1.801545e+01
  -6.164539e+01  -1.792558e+01
  -2.946680e+01  -3.425581e+01
   2.480775e+01  -2.489569e+01
   4.618025e+01  -9.651402e+00
   1.655964e+01  -2.404175e+00
  -2.597758e+01  -4.425562e+00
  -2.366011e+01  -1.260782e+01
   2.383550e+01  -1.802344e+01
   6.298728e+01  -6.220430e+00
