
 $NMID
 id='ANONYMOUS ', fmtdat='(2E16.6)'
 volume=1.0
 tramp=1.0
 $END
  -6.874215e+02  -1.871243e+02
  -4.153670e+02  -6.194865e+02
   1.799741e+02  -5.224708e+02
   4.154533e+02  -1.365392e+02
   1.832949e+02  -1.522267e+01
  -3.572676e+01  -3.447832e+01
  -1.776705e+01  -1.384001e+02
   1.511018e+02  -1.346564e+02
   1.979513e+02  -1.327912e+01
   8.639296e+01   8.014797e+01
  -2.405316e+01   9.445407e+01
  -5.376524e+01   7.362667e+01
  -1.819711e+01  -4.368977e+01
   3.460820e+01  -1.031856e+02
   1.788858e+01  -5.507956e+00
   9.127551e+00   3.891126e+01
  -6.273295e+01   8.420901e+01
  -8.090839e+01   1.658931e+01
  -5.519125e+01  -2.886359e+01
  -1.588860e+01  -3.626479e+01
  -9.941147e+00  -2.773669e+01
   3.661590e+00  -4.721363e+01
  -5.133522e+00  -6.454029e+01
  -2.181415e+01  -7.503470e+01
  -8.072514e+00  -8.614775e+01
   6.304707e+01  -5.628812e+01
   1.333121e+02   2.528507e+01
   9.002465e+01   1.149159e+02
  -4.883579e+00   8.051862e+01
  -9.642530e+01  -1.923793e+01
  -6.993578e+01  -8.905069e+01
   2.403337e+01  -6.425030e+01
   8.973493e+01  -1.386892e+01
   6.723806e+01   2.753118e+01
   8.963547e+00   4.475193e+01
  -3.469152e+00   4.455417e+01
   2.921103e+01   2.793408e+01
   4.579294e+01   8.113649e+00
   2.661887e+01   7.767420e+00
  -7.732198e+00   5.637285e+01
  -7.367704e+01   8.453381e+01
  -8.262382e+01   4.989010e+01
  -3.406452e+01  -4.840168e+01
   2.815131e+01  -7.211629e+01
   3.845944e+01   2.086403e+01
  -3.712895e-01   1.016807e+02
  -7.295412e+01   5.344078e+01
  -9.587230e+01  -7.197631e+01
  -6.187666e+01  -1.322019e+02
   4.784872e+01  -7.264204e+01
   7.558374e+01   2.192947e+01
   5.575958e+01   7.664312e+01
   1.352506e+01   6.582887e+01
  -3.562071e+01   1.146991e+00
  -5.955821e+01  -2.316025e+01
  -3.877804e+01  -1.101408e+01
  -4.069519e+00   1.114845e+01
  -2.006592e+01   1.951450e+01
  -4.483961e+01  -1.163976e+01
  -3.041960e+01  -5.141002e+01
   1.812058e+01  -6.120282e+01
   5.412899e+01  -1.367271e+01
   4.372827e+01   1.177028e+01
   4.234683e+00   1.564288e+01
  -3.400315e+01   1.370281e+01
  -5.448956e+01   3.264270e+01
  -4.476431e+01   3.006824e+01
  -9.842525e+00  -2.875355e+01
   2.327844e+01  -6.568386e+01
   3.549722e+01  -5.868080e+01
   8.829277e+00  -2.777687e+01
   4.576917e+00  -1.316285e+01
   3.410265e+01  -1.077719e+01
   5.381869e+01   1.151682e+01
   3.303770e+01   4.315474e+01
  -1.528692e+01   5.422615e+01
  -3.604581e+01   1.639761e+01
  -2.002837e+01  -3.937451e+01
   9.184591e+00  -6.117578e+01
   3.597460e+01  -2.428969e+01
   3.994198e+01   3.283438e+01
   1.738499e+01   6.595301e+01
  -2.255467e+01   4.878648e+01
  -3.598226e+01   7.549566e+00
  -2.474026e+01  -1.002721e+01
  -1.172534e+01  -8.277243e+00
  -2.991901e+01   2.698348e+00
  -5.697735e+01  -1.566685e+01
  -6.392498e+01  -5.310391e+01
  -2.131405e+01  -7.929176e+01
   5.661008e+01  -7.290463e+01
   1.104279e+02  -4.165236e+01
   8.464647e+01   1.443215e+01
   1.521958e+01   4.211047e+01
  -3.411410e+01   3.349859e+01
  -3.160830e+01   3.107027e+00
   7.726334e+00  -3.477089e+00
   3.086503e+01   7.406914e+00
   1.654952e+01   2.159556e+01
  -2.148822e+01   1.692520e+01
  -1.845532e+01  -1.528044e+01
  -7.208438e+00  -2.412137e+01
   2.098562e+01  -3.049574e+00
   2.379972e+01   2.676167e+01
  -9.556009e+00   5.190951e+01
  -3.720673e+01   3.613491e+01
  -4.519816e+01  -6.553277e+00
  -3.139487e+01  -4.799321e+01
  -4.020068e+00  -5.269715e+01
   1.626290e+01  -3.008243e+01
   2.031505e+01   2.197335e+00
   1.535493e+01   8.569959e+00
   2.978215e+00  -3.568905e+00
  -1.346265e+00  -1.684023e+01
   1.148512e+01  -1.167134e+01
   2.286396e+01   8.994355e+00
   1.649888e+01   1.873138e+01
  -6.158083e+00   5.085363e+00
  -1.185737e+01  -1.550817e+01
   7.064554e+00  -1.731032e+01
   3.777527e+01   8.084881e+00
   4.228073e+01   3.924416e+01
   1.240060e+01   4.599831e+01
  -2.822221e+01   3.268715e+01
  -4.993973e+01   7.915412e+00
  -3.717936e+01  -1.152901e+01
  -6.629274e+00  -1.002058e+01
   1.337484e+01  -5.458066e+00
   5.312965e+00   5.853865e+00
  -1.513528e+01  -8.135974e-01
  -3.166054e+01  -1.859563e+01
  -1.427201e+01  -3.034254e+01
   1.259985e+01  -2.556461e+01
   2.741623e+01  -6.407894e+00
   1.971771e+01   8.656916e+00
   5.561882e+00   4.937041e+00
  -3.340987e+00  -8.925629e+00
   6.782374e+00  -1.413501e+01
   2.422566e+01   1.794197e+00
   2.656812e+01   2.579452e+01
   6.659375e+00   3.607665e+01
  -2.259164e+01   2.353926e+01
  -4.039747e+01   1.095612e+00
  -2.104650e+01  -1.724110e+01
   9.659567e+00  -1.740052e+01
   2.233910e+01  -4.729030e+00
   8.798488e+00   5.698362e+00
  -9.397690e+00  -2.744356e+00
  -5.788667e+00  -4.776166e+00
   1.213595e+01  -4.151665e+00
   1.952446e+01   1.218737e+01
   5.998952e+00   2.612702e+01
  -1.701992e+01   2.792753e+01
  -3.375768e+01   6.536401e+00
  -3.250390e+01  -2.381874e+01
  -1.036415e+01  -3.867654e+01
   1.651404e+01  -2.589419e+01
   2.196385e+01  -3.912902e+00
   9.701751e+00   1.148392e+01
   2.769908e-01   7.552267e+00
   6.913255e+00  -1.886679e+00
   1.389693e+01  -1.878741e+00
   1.502600e+01   8.041273e+00
  -2.394388e+00   1.423775e+01
  -1.535591e+01   3.457561e+00
  -2.044159e+01  -5.480872e+00
  -2.862549e+00  -1.280095e+01
   1.895070e+01  -9.903487e+00
   2.801976e+01   9.951478e+00
   1.293207e+01   3.078131e+01
  -1.741637e+01   2.673171e+01
  -3.907922e+01   4.489410e+00
  -2.001499e+01  -2.141055e+01
  -2.393116e+01  -3.051608e+01
   2.073955e+00  -2.940216e+01
   1.727664e+01  -1.485794e+01
   2.160672e+01  -5.326902e+00
   2.044514e+01  -6.961292e+00
   2.272749e+01  -1.059489e+01
   1.655216e+01   5.114885e-01
   9.820303e+00   2.044225e+01
  -6.171873e+00   3.439582e+01
  -2.105086e+01   3.143519e+01
  -2.792531e+01   8.593042e+00
  -1.905851e+01  -1.814958e+01
  -5.777846e+00  -2.830692e+01
   1.148168e+01  -2.129328e+01
   1.459157e+01  -4.779848e+00
   3.150637e+00   5.123209e+00
  -6.358574e+00   6.300447e+00
  -4.658147e+00   3.546094e+00
   5.288291e+00   6.004476e+00
   1.441801e+01   1.031513e+01
   5.147290e+00   9.118723e+00
  -1.645865e+01  -2.955881e+00
  -3.297147e+01  -1.809725e+01
  -2.137565e+01  -2.175545e+01
   9.709040e+00  -9.378355e+00
   2.721497e+01   4.785314e+00
   2.309877e+01   9.162934e+00
   1.320832e+00   6.308645e+00
  -1.465958e+01  -4.088733e+00
   3.603509e-01  -3.531630e+00
   9.050703e+00  -8.613182e+00
   1.476088e+01  -2.844508e+00
   6.231169e+00   6.643183e+00
  -3.801698e-01   9.537968e+00
   1.048479e+01   7.630085e+00
   2.089161e+01   6.404782e+00
   1.595644e+01   1.036147e+01
  -2.323820e+00   1.888609e+01
  -2.059132e+01   2.182592e+01
  -3.152492e+01   1.155029e+01
  -2.473465e+01  -9.813652e+00
  -7.368953e+00  -2.347651e+01
   1.294461e+01  -1.353838e+01
   1.665108e+01   4.702697e+00
   2.203969e+00   8.019337e+00
  -1.772844e+01  -6.885267e+00
  -1.575304e+01  -2.476399e+01
   2.053590e+00  -2.047660e+01
   2.439048e+01  -5.859013e+00
   3.055367e+01   1.080391e+01
   1.821219e+01   1.877780e+01
  -4.931579e+00   1.297005e+01
  -1.465067e+01   1.346835e+00
  -6.447602e+00  -1.521946e+00
   1.005517e+01   1.396681e+00
   1.111527e+01   1.139561e+01
  -8.541384e+00   1.807755e+01
  -2.664513e+01   1.193697e+01
  -2.491990e+01  -4.962501e+00
  -2.731741e+00  -2.367922e+01
   1.756493e+01  -2.896568e+01
   2.273806e+01  -1.183793e+01
   1.041977e+01   8.372791e+00
  -3.055294e+00   2.019667e+01
  -5.879633e+00   1.627081e+01
  -5.424391e+00  -3.502165e-01
  -5.039168e+00  -6.983724e+00
  -7.557465e+00  -1.430530e+00
  -6.205819e+00  -1.683524e-01
   9.564716e-01  -1.251970e+01
   5.914780e+00  -2.373176e+01
   8.170118e+00  -1.558931e+01
   8.359374e+00   1.109276e+01
   9.387332e+00   2.586102e+01
   7.421035e+00   1.691849e+01
  -9.568154e-01  -4.199626e+00
  -1.208002e+01  -1.311796e+01
  -1.094215e+01  -4.129580e+00
  -3.258561e-01   3.226634e+00
   8.502236e+00   1.514926e+00
   1.322368e+00  -2.337755e+00
  -4.076219e+00  -2.076419e+00
   1.809121e+00   4.365641e+00
   1.438333e+01   7.578745e+00
   1.471332e+01   1.077896e+01
  -1.056121e+01   1.161845e+01
  -3.635629e+01   7.852516e+00
  -3.568117e+01  -1.199063e+01
  -1.309827e+01  -2.521203e+01
   1.898147e+01  -2.779081e+01
   3.231482e+01  -1.446317e+01
   2.358423e+01   2.754637e+00
   8.056033e+00   8.717421e+00
  -2.167116e+00   5.338765e+00
  -7.385103e-01   2.731099e+00
   1.363200e+00   5.540696e+00
  -3.520334e-01   1.204296e+01
  -6.540381e+00   1.539064e+01
  -1.173134e+01   3.467157e+00
  -6.783485e+00  -1.469408e+01
   9.190817e-01  -2.657674e+01
   8.943385e+00  -1.619646e+01
   1.285375e+01   7.853337e+00
   7.862401e+00   2.270360e+01
  -5.126784e+00   1.591169e+01
  -1.445159e+01  -1.926405e+00
  -1.308219e+01  -1.275017e+01
   1.144664e+00  -1.042728e+01
   1.204680e+01  -3.112563e+00
   7.870251e+00  -5.054592e-01
  -7.266306e+00  -1.533440e+00
  -1.396944e+01  -9.883092e-01
   1.334006e+00   5.292453e-01
   2.201617e+01  -2.266905e+00
   2.274299e+01  -3.722349e+00
   2.940782e+00   6.810088e+00
  -1.475415e+01   9.961005e+00
  -1.562163e+01   4.666023e+00
  -3.191272e+00  -4.155158e+00
   5.162924e+00  -5.960358e+00
   5.088877e+00  -2.767103e+00
   2.391144e+00   5.329885e+00
   1.984576e+00   7.145755e+00
  -2.998640e-01   3.536489e+00
  -3.520360e+00  -2.887375e+00
  -6.911065e+00  -4.919588e+00
  -5.499302e+00  -2.633950e+00
  -1.287231e+00   1.747206e+00
   2.215129e+00  -6.850760e-01
   5.948711e+00  -5.438237e+00
   8.435430e+00  -5.257265e+00
   6.254620e+00   1.847316e+00
  -3.155412e-01   9.671085e+00
  -6.194593e+00   8.874643e+00
  -6.466984e+00  -3.341587e+00
  -7.307762e-01  -1.043888e+01
   5.788003e+00  -6.537949e+00
   1.044151e+01   4.681294e+00
   1.117810e+01   1.393077e+01
   1.548565e+00   8.533901e+00
  -1.018915e+01  -9.974910e-01
  -1.247371e+01  -3.288343e+00
  -3.020599e+00   2.626253e+00
   8.129215e+00   5.772192e+00
   5.637120e+00   3.724439e+00
  -7.085854e+00  -4.630833e-01
  -1.474471e+01  -3.704733e+00
