
 $NMID
 id='ANONYMOUS ', fmtdat='(2E16.6)'
 volume=1.0
 tramp=1.0
 $END
   3.836920e+03  -2.835827e+02
   2.368369e+03   2.007401e+03
  -4.695253e+02   2.465304e+03
  -1.759656e+03   1.119445e+03
  -9.861446e+02  -3.525895e+02
   3.976643e+02  -5.770373e+02
   7.638218e+02   2.131096e+02
   1.300754e+02   8.468271e+02
  -5.894126e+02   7.647394e+02
  -8.510868e+02   4.945376e+01
  -5.682530e+02  -6.820132e+02
   9.065890e+01  -8.571630e+02
   5.541994e+02  -2.187897e+02
   4.329622e+02   6.032858e+02
  -1.769256e+02   6.602558e+02
  -5.736476e+02   7.447149e+01
  -3.497618e+02  -6.054395e+02
   2.218256e+02  -6.708530e+02
   5.656075e+02  -1.948900e+02
   4.470499e+02   2.832823e+02
   8.586609e+01   4.377292e+02
  -2.099817e+02   2.874053e+02
  -1.879764e+02   5.110893e+01
   1.223250e+02  -4.148703e+01
   3.995646e+02   1.162000e+02
   1.931645e+02   3.931555e+02
  -4.148759e+02   3.759188e+02
  -7.864719e+02  -2.637436e+01
  -4.175902e+02  -4.482759e+02
   3.313691e+02  -4.325070e+02
   6.641599e+02   1.538651e+01
   3.239729e+02   4.379432e+02
  -2.449682e+02   5.045450e+02
  -5.341612e+02   2.164780e+02
  -4.201554e+02  -1.966009e+02
  -1.076944e+02  -4.493327e+02
   1.474119e+02  -2.872294e+02
   1.256713e+02   1.848389e+02
  -1.440505e+02   3.799540e+02
  -3.842483e+02  -3.344844e+01
  -2.262182e+02  -6.372438e+02
   2.571169e+02  -6.594999e+02
   5.363867e+02  -4.653215e+01
   2.660074e+02   4.707365e+02
  -2.240139e+02   3.057648e+02
  -3.521921e+02  -2.649612e+02
   3.180965e+01  -5.072627e+02
   5.133845e+02  -1.720899e+02
   5.815121e+02   3.608163e+02
   2.054166e+02   5.771837e+02
  -3.399590e+02   3.634056e+02
  -6.224358e+02  -4.350367e+01
  -3.990863e+02  -3.353761e+02
   1.086205e+02  -3.391562e+02
   4.045898e+02  -8.929326e+01
   2.477916e+02   1.510702e+02
  -9.123335e+01   1.006806e+02
  -1.543153e+02  -1.222897e+02
   1.088860e+02  -1.839371e+02
   3.159991e+02   7.401122e+00
   1.787615e+02   2.389285e+02
  -1.593840e+02   2.740386e+02
  -3.366122e+02   1.285601e+02
  -2.336126e+02  -8.162678e+01
   6.083363e+00  -2.754974e+02
   2.343216e+02  -3.688648e+02
   3.597747e+02  -2.223887e+02
   2.990314e+02   1.369741e+02
   9.720895e+01   4.153147e+02
  -5.541549e+01   3.727658e+02
  -7.118809e+01   1.391295e+02
  -2.032460e+01   3.213256e+01
  -6.845676e+01   1.065117e+02
  -2.078410e+02   1.277679e+02
  -2.744271e+02  -4.958541e+01
  -1.617669e+02  -2.529110e+02
   5.933725e+01  -2.451023e+02
   2.157652e+02  -2.028037e+01
   1.960090e+02   2.214546e+02
  -2.172370e+00   2.823258e+02
  -2.547708e+02   1.237225e+02
  -3.613896e+02  -1.485511e+02
  -2.037769e+02  -3.425377e+02
   7.335748e+01  -3.159081e+02
   2.130944e+02  -1.518269e+02
   1.578732e+02  -3.287457e+01
   1.104521e+02  -3.966499e+01
   2.453255e+02  -5.628843e+01
   4.050138e+02   5.531952e+01
   3.445060e+02   2.624993e+02
   1.913273e+01   4.328987e+02
  -3.390954e+02   4.335881e+02
  -4.778941e+02   2.315849e+02
  -3.407227e+02  -7.496215e+01
  -7.568455e+01  -2.847887e+02
   1.065870e+02  -2.547079e+02
   7.018073e+01  -3.451745e+01
  -9.914708e+01   9.772804e+01
  -1.646196e+02  -3.123884e+00
  -4.924727e+01  -1.843249e+02
   1.391461e+02  -1.429045e+02
   1.635862e+02   4.972371e+01
  -8.269170e-01   1.837550e+02
  -1.878286e+02   3.986639e+01
  -1.859371e+02  -2.363359e+02
  -1.815952e+00  -3.556063e+02
   2.266724e+02  -2.247336e+02
   3.474567e+02   3.620127e+01
   3.025504e+02   2.251534e+02
   1.041786e+02   2.609677e+02
  -1.034216e+02   1.656766e+02
  -1.624198e+02   3.021280e+01
  -4.870529e+01  -2.080508e+01
   6.524935e+01   3.994165e+01
   2.362925e+01   1.193008e+02
  -1.193767e+02   1.001039e+02
  -1.677351e+02  -4.314200e+00
  -5.495927e+01  -6.843932e+01
   8.228640e+01  -1.985167e+01
   6.050506e+01   7.487671e+01
  -1.159969e+02   9.912480e+01
  -2.766340e+02   2.111863e+01
  -2.653014e+02  -1.260515e+02
  -7.378650e+01  -2.472874e+02
   1.580768e+02  -2.597324e+02
   2.682403e+02  -1.321862e+02
   1.688081e+02   4.037458e+01
  -1.732167e+01   1.010990e+02
  -8.482142e+01   4.390820e+00
   3.196938e+01  -1.030690e+02
   1.955260e+02  -6.615924e+01
   2.239408e+02   1.027259e+02
   8.228766e+01   2.077366e+02
  -8.502613e+01   1.634618e+02
  -1.352924e+02   3.380829e+01
  -6.210902e+01  -3.577781e+01
   3.220475e+01   3.149376e+00
   3.987586e+01   9.234030e+01
  -7.492198e+01   1.242318e+02
  -2.027252e+02   4.285217e+01
  -2.025385e+02  -1.131638e+02
  -3.677133e+01  -2.177085e+02
   1.508522e+02  -1.774775e+02
   1.878242e+02  -2.530009e+01
   7.140070e+01   1.044162e+02
  -5.856245e+01   1.145515e+02
  -7.950082e+01   3.603996e+01
  -1.540636e+01  -2.767316e+01
   2.358840e+01  -1.977235e+01
  -6.184027e+00   1.116859e+01
  -7.139230e+01  -3.370691e+00
  -9.390163e+01  -7.974138e+01
  -2.122037e+01  -1.599624e+02
   1.197430e+02  -1.592140e+02
   2.319955e+02  -3.485314e+01
   2.094436e+02   1.395473e+02
   5.949733e+01   2.368387e+02
  -9.600843e+01   1.755826e+02
  -1.369229e+02   3.870033e+01
  -7.801052e+01  -4.783157e+01
  -3.149870e+01  -3.448940e+01
  -4.972563e+01   9.608510e+00
  -8.123582e+01   1.495317e+01
  -4.973781e+01  -4.500530e+01
   3.208898e+01  -9.721244e+01
   1.058345e+02  -7.021940e+01
   9.878422e+01   2.956569e+01
  -4.605069e+00   1.187364e+02
  -1.460324e+02   9.874109e+01
  -2.067017e+02  -4.557983e+01
  -1.049499e+02  -2.035999e+02
   1.055577e+02  -2.357683e+02
   2.566847e+02  -8.039329e+01
   2.603373e+02   7.459399e+01
   1.209499e+02   1.645096e+02
  -2.505946e+01   1.443363e+02
  -8.237738e+01   8.915790e+01
  -6.545836e+01   7.617375e+01
  -5.171301e+01   9.952788e+01
  -8.680233e+01   8.677122e+01
  -1.321883e+02  -6.032936e+00
  -1.317297e+02  -1.455418e+02
  -4.714615e+01  -2.245754e+02
   8.809361e+01  -1.816247e+02
   1.776267e+02  -3.056964e+01
   1.424946e+02   1.165063e+02
   2.459295e+01   1.607604e+02
  -6.637184e+01   9.397818e+01
  -6.182656e+01  -2.555049e-01
  -4.744334e+00  -4.613987e+01
   1.530514e+01  -3.483803e+01
  -3.174739e+01  -8.963174e+00
  -8.648975e+01  -1.250448e+01
  -5.586782e+01  -3.737687e+01
   5.976830e+01  -4.798246e+01
   1.613817e+02  -1.794554e+01
   1.475739e+02   4.394906e+01
   1.741635e+01   9.501131e+01
  -1.180249e+02   8.575988e+01
  -1.388595e+02   1.937693e+01
  -4.848476e+01  -4.239237e+01
   5.284442e+01  -4.293292e+01
   7.262818e+01   1.913735e+01
   1.519943e+01   7.081501e+01
  -4.911937e+01   6.276137e+01
  -6.627553e+01   1.338708e+00
  -5.225697e+01  -4.864644e+01
  -4.324058e+01  -3.887821e+01
  -5.261036e+01   4.271509e+00
  -6.466798e+01   5.231674e+00
  -4.756560e+01  -6.636303e+01
   1.194207e+01  -1.486293e+02
   1.112832e+02  -1.459901e+02
   1.710423e+02  -4.285837e+01
   1.325117e+02   8.203549e+01
   1.137016e+01   1.281395e+02
  -8.722577e+01   7.022653e+01
  -6.445104e+01  -1.415997e+01
   5.956544e+01  -3.529803e+01
   1.452707e+02   2.978763e+01
   8.872771e+01   1.048314e+02
  -6.510370e+01   1.232146e+02
  -1.814599e+02   6.759911e+01
  -1.597190e+02  -2.601743e+01
  -4.071025e+01  -8.192260e+01
   5.525641e+01  -6.808091e+01
   4.542750e+01  -4.837531e+00
  -3.695034e+01   3.211859e+01
  -9.133698e+01  -1.683589e+01
  -4.324361e+01  -1.143167e+02
   7.685366e+01  -1.571318e+02
   1.644410e+02  -7.562671e+01
   1.347228e+02   8.768632e+01
   2.275982e+01   1.961673e+02
  -7.895222e+01   1.488155e+02
  -1.078337e+02  -2.241476e+00
  -6.428399e+01  -1.134524e+02
   3.746780e+00  -1.065706e+02
   4.723812e+01  -1.849605e+01
   4.681121e+01   3.034718e+01
   1.665862e+01   8.957406e+00
   1.113897e+00  -2.117614e+01
   2.795502e+01   1.225004e+01
   6.397354e+01   7.905302e+01
   4.692587e+01   1.060081e+02
  -4.821410e+01   5.218652e+01
  -1.423338e+02  -2.475435e+01
  -1.340298e+02  -6.159232e+01
  -2.030539e+01  -5.661962e+01
   8.531217e+01  -3.208658e+01
   9.062625e+01  -1.125634e+01
   1.456247e+01   1.080690e+01
  -3.630355e+01   2.578418e+01
  -1.629651e+01   1.577471e+01
   1.801562e+01  -4.390536e+00
  -2.518827e+00  -7.653256e+00
  -7.072279e+01   2.758180e+00
  -9.398006e+01  -2.011167e+01
  -1.782981e+01  -8.101998e+01
   1.116762e+02  -1.205951e+02
   1.906917e+02  -6.817045e+01
   1.530845e+02   6.047899e+01
   3.711160e+01   1.642606e+02
  -7.515731e+01   1.589629e+02
  -1.166135e+02   6.696526e+01
  -8.534983e+01  -1.853127e+01
  -2.769425e+01  -3.709747e+01
   3.172000e+00  -9.801501e+00
  -1.027466e+01  -2.008096e+00
  -3.985420e+01  -4.102980e+01
  -2.795761e+01  -8.888110e+01
   2.476355e+01  -7.604924e+01
   8.466421e+01   1.114141e+01
   8.625234e+01   1.048394e+02
   1.175985e+01   1.138388e+02
  -7.961863e+01   3.395427e+01
  -1.101802e+02  -6.563764e+01
  -3.960043e+01  -1.007135e+02
   6.285026e+01  -6.439597e+01
   9.813616e+01   2.310414e+00
   4.293509e+01   5.064735e+01
  -2.913478e+01   5.804261e+01
  -3.327832e+01   2.904205e+01
   2.886142e+01  -8.908404e+00
   6.950069e+01  -9.960569e+00
   2.052548e+01   2.863735e+01
  -7.397295e+01   7.139325e+01
  -1.151254e+02   5.877133e+01
  -7.050482e+01  -1.225727e+01
   1.057430e+01  -8.340281e+01
   5.205799e+01  -8.193409e+01
   3.760255e+01  -1.003720e+01
   5.602944e+00   5.300376e+01
  -2.384307e+01   4.527619e+01
  -3.753409e+01  -1.363624e+01
  -2.852580e+01  -5.150426e+01
   1.431480e+00  -3.484790e+01
   3.347485e+01   6.587261e+00
   3.816070e+01   2.072221e+01
   1.700775e+01  -3.295645e-01
  -3.363247e+00  -1.866731e+01
  -2.747925e+00  -2.575701e+00
   5.312508e+00   3.555170e+01
  -6.270913e+00   4.965742e+01
  -3.036204e+01   1.614688e+01
  -3.922321e+01  -3.722722e+01
  -8.620199e+00  -5.907869e+01
   4.209872e+01  -2.440908e+01
   6.106729e+01   3.673855e+01
   1.978037e+01   6.307965e+01
  -5.674084e+01   3.934585e+01
  -9.466782e+01  -1.264890e+01
  -5.269552e+01  -4.565072e+01
   2.732591e+01  -4.731766e+01
   6.618218e+01  -2.700527e+01
   2.738334e+01  -3.944287e+00
  -3.192847e+01   2.537552e+00
  -3.622152e+01  -1.247866e+01
   2.629218e+01  -3.186608e+01
   8.589886e+01  -2.272946e+01
