
 $NMID
 id='ANONYMOUS ', fmtdat='(2E16.6)'
 volume=1.0
 tramp=1.0
 $END
  -2.669926e+03   2.684015e+02
  -1.954864e+03  -1.101995e+03
  -2.256190e+02  -1.679372e+03
   8.329009e+02  -1.310443e+03
   8.352022e+02  -4.138223e+02
   1.858086e+02   1.324300e+02
  -2.089434e+02   1.257471e+01
  -8.292385e+01  -3.531717e+02
   2.898086e+02  -4.901232e+02
   5.153260e+02  -1.583275e+02
   4.210212e+02   3.181226e+02
   9.109188e+01   5.399886e+02
  -2.042397e+02   2.010101e+02
  -2.129591e+02  -2.938580e+02
   8.911027e+01  -3.929117e+02
   3.374797e+02  -8.678705e+01
   2.945905e+02   4.019110e+02
  -5.165358e+01   5.905758e+02
  -4.090462e+02   3.149665e+02
  -4.512669e+02  -1.160100e+02
  -1.857346e+02  -3.170963e+02
   7.044739e+01  -2.425698e+02
   3.235322e+01  -9.789371e+01
  -1.754958e+02  -1.496871e+02
  -2.319971e+02  -3.065338e+02
   5.944083e+01  -3.347945e+02
   4.406088e+02  -9.736194e+01
   5.306840e+02   1.799471e+02
   1.661579e+02   2.948591e+02
  -2.869973e+02   1.222250e+02
  -3.998461e+02  -1.343687e+02
  -1.206023e+02  -3.020286e+02
   2.413434e+02  -2.874341e+02
   3.832336e+02  -1.052555e+02
   2.654373e+02   1.157111e+02
   7.734528e+01   2.403553e+02
   2.495860e+01   1.480487e+02
   1.088263e+02  -5.880816e+01
   1.926385e+02  -7.199065e+01
   1.287363e+02   1.815009e+02
  -5.402838e+01   4.323980e+02
  -2.223967e+02   3.594415e+02
  -2.559187e+02   4.651726e-01
  -9.013613e+01  -2.320001e+02
   1.026154e+02  -9.101351e+01
   1.125750e+02   2.317273e+02
  -1.088858e+02   3.153437e+02
  -3.933804e+02   3.822765e+01
  -4.227587e+02  -3.424234e+02
  -1.399062e+02  -4.615520e+02
   2.707779e+02  -2.404565e+02
   4.648764e+02   6.880420e+01
   3.103382e+02   2.174801e+02
  -2.299838e+01   1.873721e+02
  -2.291741e+02   7.571549e+01
  -1.899964e+02   1.591621e+00
  -3.097324e+01   4.409435e+00
   2.692589e+01   3.933715e+01
  -7.950962e+01   4.188031e+01
  -1.937177e+02  -2.499484e+01
  -1.322602e+02  -1.527898e+02
   1.237071e+02  -2.358479e+02
   3.266477e+02  -1.496773e+02
   2.791946e+02   1.033312e+02
  -2.703295e+01   3.491505e+02
  -3.180036e+02   3.671225e+02
  -3.748844e+02   1.206564e+02
  -2.104930e+02  -1.845593e+02
  -3.306856e+01  -3.284373e+02
   3.447323e+00  -2.749507e+02
  -2.184163e+01  -1.744938e+02
   2.809885e+01  -1.369556e+02
   1.636046e+02  -1.324634e+02
   2.645795e+02  -4.280898e+01
   2.256005e+02   1.357396e+02
   6.830952e+01   2.522027e+02
  -1.035769e+02   1.708567e+02
  -1.813961e+02  -5.193447e+01
  -1.183025e+02  -2.369837e+02
   6.450137e+01  -2.337646e+02
   2.446083e+02  -4.659524e+01
   2.861926e+02   1.785704e+02
   1.514097e+02   2.871231e+02
  -4.450486e+01   2.493099e+02
  -1.495879e+02   1.594238e+02
  -1.490255e+02   9.870533e+01
  -1.627251e+02   7.992929e+01
  -2.952294e+02   2.595944e+01
  -4.106434e+02  -1.083935e+02
  -3.121747e+02  -2.980273e+02
   3.096254e+01  -4.356600e+02
   3.760989e+02  -3.918487e+02
   4.691494e+02  -1.639243e+02
   2.731467e+02   1.109177e+02
   1.014873e+01   2.407658e+02
  -9.311757e+01   1.724344e+02
   1.472124e+00   2.963663e+01
   1.223180e+02  -2.191121e+01
   9.849268e+01   4.895996e+01
  -1.599382e+01   1.224230e+02
  -1.097266e+02   5.196259e+01
  -7.652260e+01  -5.123950e+01
   3.763964e+01  -1.034550e+02
   1.531865e+02   1.187885e+01
   1.445954e+02   2.244203e+02
  -1.576535e+01   3.319897e+02
  -2.449481e+02   2.117710e+02
  -3.604897e+02  -5.884868e+01
  -2.686692e+02  -2.689537e+02
  -4.303759e+01  -2.710977e+02
   1.240998e+02  -1.235994e+02
   1.246768e+02   9.652524e-01
   1.521422e+01  -2.527137e-01
  -4.017583e+01  -7.359784e+01
   2.532814e+01  -1.081177e+02
   1.261870e+02  -5.088696e+01
   1.274964e+02   3.752491e+01
   1.403395e+01   5.545163e+01
  -8.855484e+01  -2.276515e+01
  -3.699447e+01  -1.064788e+02
   1.504225e+02  -9.933810e+01
   2.998192e+02   2.019905e+01
   2.455399e+02   1.793214e+02
   1.857941e+01   2.639935e+02
  -2.047508e+02   2.135638e+02
  -2.552723e+02   7.406142e+01
  -1.214849e+02  -4.952404e+01
   3.243693e+01  -5.979531e+01
   4.869380e+01   2.114149e+01
  -6.967227e+01   7.257066e+01
  -1.846947e+02   1.519221e+01
  -1.725932e+02  -1.206798e+02
  -4.047489e+01  -1.826985e+02
   9.195297e+01  -1.227933e+02
   1.103011e+02  -5.985177e+00
   2.752661e+01   3.588719e+01
  -5.010375e+01  -3.075627e+01
  -2.302494e+01  -1.233959e+02
   1.107845e+02  -1.256942e+02
   2.180004e+02  -9.419823e+00
   1.762935e+02   1.407263e+02
   3.296264e+00   2.016650e+02
  -1.501425e+02   1.379615e+02
  -1.577510e+02   8.575682e+00
  -4.398571e+01  -8.544090e+01
   6.384038e+01  -8.309220e+01
   6.538199e+01  -1.552290e+01
  -9.547139e+00   2.883494e+01
  -4.424389e+01   5.579089e+00
   5.604135e+00  -3.559491e+01
   9.119171e+01  -8.527375e+00
   1.089753e+02   9.513308e+01
   7.709810e+00   1.807494e+02
  -1.483480e+02   1.500000e+02
  -2.376012e+02  -1.922715e+00
  -1.790034e+02  -1.667327e+02
  -2.430127e+01  -2.263209e+02
   1.033310e+02  -1.483910e+02
   1.259523e+02  -2.533085e+01
   7.104404e+01   4.194866e+01
   3.175420e+01   2.610334e+01
   5.436746e+01  -1.165509e+01
   9.303263e+01  -1.012899e+01
   6.238344e+01   5.841929e+01
  -3.676249e+01   1.151207e+02
  -1.328077e+02   7.388228e+01
  -1.174303e+02  -5.120496e+01
   1.754629e+01  -1.420520e+02
   1.751644e+02  -8.992873e+01
   2.098502e+02   7.550579e+01
   7.443818e+01   2.180503e+02
  -1.384128e+02   2.159277e+02
  -2.597687e+02   4.586236e+01
  -2.315730e+02  -9.306567e+01
  -9.330900e+01  -1.610393e+02
   3.521251e+01  -1.289232e+02
   7.836013e+01  -7.705980e+01
   5.817364e+01  -7.067099e+01
   5.022999e+01  -9.780490e+01
   9.305364e+01  -8.460438e+01
   1.377451e+02   1.431424e+01
   1.223887e+02   1.577678e+02
   2.186357e+01   2.285915e+02
  -1.067807e+02   1.621080e+02
  -1.716420e+02   1.522653e+00
  -1.165647e+02  -1.298576e+02
   6.269931e-01  -1.515363e+02
   7.934783e+01  -7.110434e+01
   6.026522e+01   2.444276e+01
  -8.190928e+00   6.031033e+01
  -3.378223e+01   3.601774e+01
   2.202724e+01   6.019596e+00
   8.600378e+01   1.520088e+01
   5.323383e+01   4.479354e+01
  -7.600220e+01   4.774304e+01
  -1.776115e+02  -1.001139e+00
  -1.441171e+02  -7.132452e+01
   7.528069e+00  -1.070360e+02
   1.400858e+02  -7.444103e+01
   1.408248e+02   3.307714e+00
   3.867173e+01   5.787135e+01
  -5.903267e+01   4.649507e+01
  -7.570427e+01  -2.014422e+01
  -2.039248e+01  -7.737169e+01
   4.524390e+01  -6.925820e+01
   7.174873e+01  -3.783414e+00
   6.083933e+01   5.242734e+01
   4.511865e+01   4.484188e+01
   4.931686e+01  -1.417732e+00
   6.670686e+01  -4.036246e+00
   5.547640e+01   7.529874e+01
  -1.794993e+01   1.591874e+02
  -1.261772e+02   1.499374e+02
  -1.852201e+02   3.145752e+01
  -1.324186e+02  -9.612137e+01
  -9.210734e-01  -1.363128e+02
   9.471946e+01  -7.172519e+01
   6.439230e+01   1.363218e+01
  -5.751077e+01   3.046198e+01
  -1.323096e+02  -3.426066e+01
  -7.298300e+01  -1.017839e+02
   7.327813e+01  -1.101648e+02
   1.761646e+02  -5.109111e+01
   1.464081e+02   3.462311e+01
   2.766039e+01   7.885911e+01
  -6.080647e+01   5.359988e+01
  -4.258307e+01  -8.226139e+00
   4.347936e+01  -3.500553e+01
   9.315867e+01   1.902795e+01
   4.118881e+01   1.144947e+02
  -7.526173e+01   1.499569e+02
  -1.546665e+02   7.086965e+01
  -1.232838e+02  -8.621275e+01
  -1.363320e+01  -1.860230e+02
   8.469213e+01  -1.367266e+02
   1.033406e+02   1.427319e+01
   4.693744e+01   1.181005e+02
  -2.275821e+01   9.847589e+01
  -5.179309e+01   7.059017e+00
  -3.592866e+01  -3.547542e+01
  -6.629370e+00  -8.513128e+00
  -5.246267e+00   1.956320e+01
  -3.738524e+01  -1.893793e+01
  -6.002962e+01  -8.690638e+01
  -2.569285e+01  -1.052102e+02
   6.353277e+01  -4.398292e+01
   1.368067e+02   3.474227e+01
   1.171039e+02   7.052693e+01
   1.329637e+01   6.121247e+01
  -8.040313e+01   2.863564e+01
  -8.810754e+01   3.118369e+00
  -1.963526e+01  -1.474144e+01
   3.404392e+01  -2.154104e+01
   2.167750e+01  -8.520747e+00
  -1.103308e+01   6.787193e+00
  -1.337130e-01   5.028907e+00
   6.130824e+01  -5.057792e+00
   8.979305e+01   2.080688e+01
   2.313772e+01   8.125892e+01
  -1.077959e+02   1.176678e+02
  -1.908575e+02   6.206648e+01
  -1.547184e+02  -6.315208e+01
  -3.091269e+01  -1.625400e+02
   8.241049e+01  -1.563232e+02
   1.197062e+02  -6.462058e+01
   8.336446e+01   2.230882e+01
   2.722414e+01   4.168359e+01
   2.737717e+00   1.508169e+01
   1.370874e+01   8.798493e+00
   3.192214e+01   4.484220e+01
   1.617137e+01   8.943604e+01
  -2.965934e+01   7.031320e+01
  -7.772568e+01  -1.200282e+01
  -8.009418e+01  -9.731680e+01
  -1.629581e+01  -1.067186e+02
   7.187979e+01  -3.665919e+01
   1.078911e+02   5.822465e+01
   4.355715e+01   9.782807e+01
  -6.116129e+01   6.794567e+01
  -1.047951e+02  -2.388118e+00
  -5.050361e+01  -5.905789e+01
   3.066769e+01  -6.665710e+01
   4.451114e+01  -3.071219e+01
  -1.946492e+01   1.090760e+01
  -6.487653e+01   9.571631e+00
  -2.088537e+01  -3.071836e+01
   7.604804e+01  -6.892571e+01
   1.236046e+02  -4.930590e+01
   7.447511e+01   2.162671e+01
  -1.175176e+01   8.713824e+01
  -5.824833e+01   8.399680e+01
  -4.656339e+01   1.303856e+01
  -1.183065e+01  -5.155410e+01
   2.007582e+01  -5.180269e+01
   3.755299e+01   6.081729e+00
   3.108775e+01   5.071275e+01
   2.159552e+00   4.032335e+01
  -3.279652e+01  -3.904787e+00
  -3.932382e+01  -2.556750e+01
  -1.655386e+01  -4.877861e+00
   7.429899e+00   2.276238e+01
   4.728516e+00   1.344676e+01
  -1.111010e+01  -2.811150e+01
  -6.479985e+00  -5.340906e+01
   2.496605e+01  -2.774411e+01
   4.592102e+01   2.860326e+01
   1.987807e+01   5.609119e+01
  -3.661039e+01   2.794981e+01
  -6.539605e+01  -3.078088e+01
  -2.276044e+01  -5.993388e+01
   5.661819e+01  -3.926451e+01
   9.402793e+01   1.097451e+01
   5.150048e+01   4.520164e+01
  -2.665066e+01   4.887049e+01
  -6.412564e+01   2.970348e+01
  -3.127614e+01   4.918540e+00
   2.159615e+01  -6.535071e+00
   2.785333e+01   2.923413e+00
  -2.053377e+01   2.325594e+01
  -7.020827e+01   2.103769e+01
