
 $NMID
 id='ANONYMOUS ', fmtdat='(2E16.6)'
 volume=1.0
 tramp=1.0
 $END
   2.618867e+03  -8.089577e+02
   1.936152e+03   1.088433e+03
  -4.863864e+01   1.601775e+03
  -1.077771e+03   7.614985e+02
  -6.517113e+02  -2.193974e+02
   2.932691e+02  -4.401492e+02
   5.750719e+02   1.129952e+02
   1.465403e+02   5.881824e+02
  -3.408008e+02   5.724506e+02
  -5.579472e+02   1.069022e+02
  -3.550718e+02  -4.119779e+02
  -2.104158e+00  -5.677817e+02
   3.406618e+02  -1.643533e+02
   3.141465e+02   3.486770e+02
  -7.629127e+01   3.976647e+02
  -3.339765e+02   8.366136e+01
  -2.512690e+02  -3.277637e+02
   7.147359e+01  -3.854716e+02
   3.133855e+02  -1.398397e+02
   2.826427e+02   1.198768e+02
   8.367719e+01   2.304510e+02
  -1.164719e+02   2.150483e+02
  -1.634443e+02   6.693876e+01
   1.619625e+01  -7.100529e+01
   2.315975e+02  -5.792214e+00
   1.767786e+02   1.956287e+02
  -1.942425e+02   2.803962e+02
  -4.724099e+02   7.528671e+01
  -3.314965e+02  -2.441345e+02
   1.263761e+02  -3.287502e+02
   4.161632e+02  -1.314028e+02
   2.836171e+02   1.885915e+02
  -5.961757e+01   3.365158e+02
  -2.754990e+02   2.173636e+02
  -2.735146e+02  -5.576514e+01
  -1.106731e+02  -2.681449e+02
   7.823924e+01  -2.058061e+02
   1.268836e+02   8.121848e+01
  -3.007367e+01   2.669308e+02
  -2.441020e+02   6.264767e+01
  -2.163926e+02  -3.244983e+02
   7.720457e+01  -4.340559e+02
   3.231484e+02  -9.184343e+01
   2.290646e+02   2.760930e+02
  -1.151784e+02   2.286727e+02
  -2.778447e+02  -1.223303e+02
  -6.230398e+01  -3.130207e+02
   2.779158e+02  -1.666293e+02
   3.855768e+02   1.374491e+02
   1.738851e+02   2.942548e+02
  -1.552871e+02   2.451983e+02
  -3.599973e+02   4.284490e+01
  -2.671674e+02  -1.565584e+02
   2.516491e+01  -2.150366e+02
   2.444800e+02  -1.009143e+02
   1.790826e+02   8.178266e+01
  -4.733203e+01   8.839232e+01
  -1.048317e+02  -5.201400e+01
   5.831634e+01  -1.358727e+02
   2.149076e+02  -1.474230e+01
   1.408638e+02   1.548350e+02
  -7.684714e+01   1.825915e+02
  -1.861376e+02   9.579623e+01
  -1.176328e+02  -1.906245e+01
  -1.033980e+01  -1.190785e+02
   8.145502e+01  -2.035598e+02
   1.516445e+02  -1.657213e+02
   1.713922e+02   4.117047e+01
   1.000334e+02   2.415465e+02
  -1.390521e+01   2.339015e+02
  -4.607723e+01   8.172166e+01
  -1.274888e+01  -6.031703e+00
  -2.404768e+00   5.057299e+01
  -8.089268e+01   1.064705e+02
  -1.618067e+02   2.345649e+01
  -1.370876e+02  -1.245472e+02
  -1.002969e+01  -1.621262e+02
   1.272361e+02  -4.945265e+01
   1.594598e+02   9.379078e+01
   5.313257e+01   1.630716e+02
  -1.184514e+02   1.093794e+02
  -2.135967e+02  -2.552922e+01
  -1.457029e+02  -1.575557e+02
   5.971973e+00  -1.811252e+02
   1.087708e+02  -9.976247e+01
   8.681103e+01  -2.032813e+01
   5.039039e+01  -2.947935e+01
   1.146136e+02  -6.203365e+01
   2.278734e+02  -1.685330e+01
   2.317998e+02   1.111657e+02
   6.281123e+01   2.426373e+02
  -1.467163e+02   2.795903e+02
  -2.471879e+02   1.894051e+02
  -2.053743e+02   1.112456e+00
  -7.729970e+01  -1.505012e+02
   3.174018e+01  -1.587313e+02
   4.367604e+01  -3.476385e+01
  -4.194838e+01   7.670200e+01
  -1.106315e+02   3.316636e+01
  -5.926020e+01  -9.766691e+01
   5.959739e+01  -1.039793e+02
   1.109868e+02  -7.436272e-02
   1.980007e+01   1.012796e+02
  -9.916741e+01   4.892925e+01
  -1.287643e+02  -1.104389e+02
  -3.312306e+01  -1.948792e+02
   1.022356e+02  -1.337701e+02
   1.816100e+02  -9.790798e+00
   1.807057e+02   9.044954e+01
   8.977964e+01   1.298074e+02
  -3.291474e+01   1.108796e+02
  -9.488602e+01   4.882919e+01
  -4.216053e+01  -6.409191e-01
   3.667391e+01   7.392408e+00
   3.393295e+01   5.617147e+01
  -5.257250e+01   6.894836e+01
  -9.759215e+01   2.228624e+01
  -4.321232e+01  -2.729674e+01
   3.635061e+01  -1.814051e+01
   3.631031e+01   3.574407e+01
  -5.832532e+01   7.052245e+01
  -1.598460e+02   4.546860e+01
  -1.625324e+02  -3.329055e+01
  -6.905101e+01  -1.271968e+02
   5.623403e+01  -1.660564e+02
   1.264120e+02  -1.134814e+02
   1.021989e+02  -2.991291e+00
   7.741047e+00   5.820164e+01
  -4.088580e+01   1.917114e+01
   2.566047e+00  -5.424720e+01
   9.562397e+01  -5.450925e+01
   1.216892e+02   3.044699e+01
   6.292411e+01   1.029160e+02
  -3.143113e+01   9.542160e+01
  -7.533269e+01   3.297022e+01
  -4.793812e+01  -1.471792e+01
   1.148127e+01  -9.922988e+00
   3.339065e+01   3.509926e+01
  -1.303792e+01   6.794593e+01
  -9.006262e+01   4.568508e+01
  -1.194819e+02  -3.486309e+01
  -4.726413e+01  -1.103290e+02
   6.351693e+01  -1.105657e+02
   1.039806e+02  -3.209808e+01
   5.273383e+01   4.990466e+01
  -2.105306e+01   6.840498e+01
  -4.342691e+01   3.039216e+01
  -1.044746e+01  -9.528668e+00
   9.432889e+00  -1.476316e+01
  -4.632636e+00   2.856478e+00
  -3.787219e+01   2.134356e+00
  -5.841120e+01  -2.922649e+01
  -3.381475e+01  -7.834263e+01
   4.138170e+01  -1.000521e+02
   1.198270e+02  -5.069662e+01
   1.306394e+02   4.718599e+01
   5.718270e+01   1.216319e+02
  -3.205589e+01   1.105441e+02
  -7.163703e+01   3.673948e+01
  -4.911768e+01  -1.983541e+01
  -2.419141e+01  -1.787374e+01
  -2.498215e+01   6.934689e+00
  -3.818895e+01   1.250314e+01
  -2.613128e+01  -2.003118e+01
   1.429286e+01  -4.569280e+01
   4.683083e+01  -4.408066e+01
   4.845708e+01   7.030880e+00
   6.575593e+00   6.049687e+01
  -6.362469e+01   6.211481e+01
  -1.096022e+02  -1.002237e+00
  -8.349110e+01  -8.928757e+01
   2.257545e+01  -1.321774e+02
   1.187567e+02  -6.954313e+01
   1.456916e+02  -7.533768e-01
   9.038178e+01   7.041565e+01
   4.854725e+00   8.513687e+01
  -4.055643e+01   6.488726e+01
  -3.621931e+01   5.298949e+01
  -2.630781e+01   5.443015e+01
  -4.018945e+01   4.873071e+01
  -7.226933e+01   3.722323e+00
  -8.064824e+01  -6.713906e+01
  -4.325187e+01  -1.190889e+02
   2.987236e+01  -1.071699e+02
   9.056680e+01  -3.244530e+01
   8.932843e+01   4.572506e+01
   3.316539e+01   8.117252e+01
  -1.850640e+01   5.660741e+01
  -2.670497e+01   1.021304e+01
  -7.853668e+00  -1.955646e+01
  -2.781136e+00  -1.518668e+01
  -2.449882e+01  -2.032984e+00
  -4.512063e+01  -4.045221e+00
  -2.841413e+01  -1.633941e+01
   3.027901e+01  -2.805397e+01
   8.560078e+01  -2.375823e+01
   8.507291e+01   6.009532e+00
   2.147423e+01   4.293657e+01
  -5.083026e+01   5.938513e+01
  -7.213230e+01   3.191517e+01
  -3.162137e+01  -1.144065e+01
   2.684073e+01  -2.583300e+01
   3.391126e+01   2.465077e+00
   1.524347e+01   3.289590e+01
  -2.134708e+01   3.744586e+01
  -3.365306e+01   7.486327e+00
  -3.160622e+01  -1.960144e+01
  -3.164800e+01  -1.672891e+01
  -3.608784e+01   3.997067e+00
  -3.484676e+01   3.857788e+00
  -2.194534e+01  -3.154101e+01
   4.366339e-01  -7.782271e+01
   4.087464e+01  -8.693929e+01
   7.737874e+01  -4.010975e+01
   7.604800e+01   2.946800e+01
   2.073072e+01   6.574039e+01
  -3.596236e+01   4.442642e+01
  -3.249820e+01   2.530158e+00
   2.863328e+01  -1.711246e+01
   7.826440e+01   5.351284e+00
   5.665638e+01   4.558770e+01
  -2.431250e+01   7.182901e+01
  -9.186258e+01   6.024736e+01
  -9.300085e+01   1.189017e+01
  -3.511391e+01  -3.941979e+01
   1.669408e+01  -4.961004e+01
   2.320222e+01  -1.558473e+01
  -1.629463e+01   1.750611e+01
  -4.957388e+01   6.039832e-01
  -3.155315e+01  -5.661115e+01
   2.759816e+01  -9.195055e+01
   7.956386e+01  -5.316061e+01
   7.813372e+01   3.513614e+01
   2.863361e+01   1.027944e+02
  -2.522562e+01   8.885917e+01
  -5.450742e+01   1.187008e+01
  -5.118753e+01  -5.084913e+01
  -1.731476e+01  -5.572196e+01
   1.910066e+01  -1.749007e+01
   3.347726e+01   5.890243e+00
   1.749040e+01  -1.702615e+00
   7.867283e-01  -1.116277e+01
   1.455843e+01   9.808883e+00
   4.100219e+01   4.307636e+01
   3.589290e+01   5.342631e+01
  -2.128513e+01   2.955938e+01
  -7.935129e+01  -1.338587e+00
  -7.863504e+01  -1.808296e+01
  -1.519607e+01  -2.359816e+01
   4.673601e+01  -2.295123e+01
   4.684610e+01  -1.396368e+01
   3.624918e+00   2.759881e+00
  -2.085434e+01   1.662746e+01
  -3.706573e+00   8.729143e+00
   1.460948e+01  -5.524020e+00
  -3.690352e+00  -4.642672e+00
  -4.295731e+01   8.723890e+00
  -5.456550e+01  -2.522914e-01
  -1.496994e+01  -4.055984e+01
   4.957834e+01  -7.752234e+01
   9.251695e+01  -5.168143e+01
   8.381668e+01   2.044117e+01
   3.149866e+01   8.595062e+01
  -2.778597e+01   8.957581e+01
  -5.493518e+01   4.306119e+01
  -4.491162e+01  -2.724918e+00
  -1.510378e+01  -1.542577e+01
   1.386661e+00  -4.460935e+00
  -4.649256e+00  -1.457067e+00
  -2.246721e+01  -1.795440e+01
  -2.605928e+01  -4.229894e+01
   3.278892e+00  -4.046804e+01
   4.304599e+01  -9.126207e-01
   5.475148e+01   4.963927e+01
   1.814628e+01   6.054814e+01
  -4.084563e+01   2.337852e+01
  -6.581294e+01  -3.153977e+01
  -3.131095e+01  -5.216889e+01
   2.819879e+01  -3.800016e+01
   5.316943e+01  -5.382615e+00
   2.707810e+01   2.093199e+01
  -1.120820e+01   3.054065e+01
  -1.340119e+01   1.927661e+01
   2.191738e+01  -5.438373e+00
   4.034743e+01  -1.311120e+01
   1.271273e+01   1.367953e+01
  -3.940619e+01   4.900553e+01
  -5.892262e+01   4.920284e+01
  -3.429446e+01   2.617399e+00
   5.247910e-01  -4.581260e+01
   1.759058e+01  -4.732558e+01
   1.591600e+01  -8.928218e+00
   7.966860e+00   2.795260e+01
  -7.916298e+00   2.625305e+01
  -2.184805e+01  -3.780229e+00
  -2.253532e+01  -2.421831e+01
  -3.537017e+00  -1.743890e+01
   1.772886e+01   4.246348e-01
   2.128439e+01   3.960551e+00
   9.669440e+00  -4.508690e+00
  -1.737574e+00  -8.421386e+00
  -2.001905e+00   3.618831e+00
   2.080213e+00   2.198153e+01
  -3.077197e+00   2.642838e+01
  -1.685153e+01   5.838784e+00
  -2.197461e+01  -2.206857e+01
  -5.313412e+00  -3.225994e+01
   2.085639e+01  -1.467716e+01
   3.248749e+01   1.331764e+01
   1.522923e+01   3.039248e+01
  -2.328862e+01   2.378867e+01
  -4.679154e+01   1.661005e+00
  -2.989154e+01  -1.779320e+01
   1.117939e+01  -2.508390e+01
   3.308585e+01  -1.894020e+01
   1.143554e+01  -4.899746e+00
  -2.230358e+01   3.751750e+00
  -2.510744e+01  -2.256041e+00
   1.090720e+01  -2.082014e+01
   4.572464e+01  -2.453319e+01
