
 $NMID
 id='ANONYMOUS ', fmtdat='(2E16.6)'
 volume=1.0
 tramp=1.0
 $END
   4.264100e+03  -8.011123e+02
   2.811518e+03   2.381332e+03
  -5.948278e+02   2.909991e+03
  -2.084019e+03   1.096493e+03
  -1.035438e+03  -6.329117e+02
   6.063895e+02  -7.650526e+02
   1.013471e+03   3.177089e+02
   1.776730e+02   1.104129e+03
  -7.435086e+02   9.670089e+02
  -1.013175e+03   7.605291e+01
  -6.055268e+02  -8.342762e+02
   8.980220e+01  -9.871665e+02
   6.564265e+02  -2.584394e+02
   5.462374e+02   6.634264e+02
  -1.766911e+02   7.637401e+02
  -6.444375e+02   1.103797e+02
  -3.995620e+02  -6.449340e+02
   2.445496e+02  -7.041734e+02
   5.991112e+02  -1.804180e+02
   4.638236e+02   3.090640e+02
   7.024212e+01   4.576620e+02
  -2.387129e+02   3.344801e+02
  -2.724028e+02   5.643999e+01
   4.902382e+01  -1.546652e+02
   4.237743e+02  -1.912352e+01
   3.213985e+02   3.754354e+02
  -3.447409e+02   5.216385e+02
  -8.809374e+02   1.088132e+02
  -5.561059e+02  -4.951282e+02
   2.870777e+02  -5.967050e+02
   7.592596e+02  -1.117361e+02
   4.557044e+02   4.401589e+02
  -1.799129e+02   5.964826e+02
  -5.331660e+02   3.133682e+02
  -4.805655e+02  -1.693795e+02
  -1.656933e+02  -5.045200e+02
   1.702050e+02  -3.568058e+02
   2.665445e+02   1.900837e+02
  -5.281395e+01   4.985368e+02
  -4.721553e+02   1.031492e+02
  -3.996423e+02  -6.243492e+02
   2.047601e+02  -7.932803e+02
   6.539679e+02  -1.285900e+02
   3.948346e+02   5.417537e+02
  -2.516136e+02   4.138098e+02
  -4.789643e+02  -2.579892e+02
  -3.920846e+01  -5.757316e+02
   5.449292e+02  -2.508069e+02
   6.659070e+02   3.103296e+02
   2.580642e+02   5.639776e+02
  -3.165531e+02   4.345259e+02
  -6.327296e+02   3.845438e+01
  -4.357673e+02  -3.374235e+02
   9.586427e+01  -4.172767e+02
   4.505510e+02  -1.252912e+02
   2.854120e+02   1.841577e+02
  -1.161758e+02   1.533521e+02
  -1.880269e+02  -1.292832e+02
   1.251752e+02  -2.436813e+02
   3.675381e+02   8.109088e-01
   1.953095e+02   2.950547e+02
  -1.598366e+02   3.084430e+02
  -3.284476e+02   1.175121e+02
  -2.126764e+02  -5.417892e+01
  -2.316458e+01  -2.026641e+02
   1.529994e+02  -3.489792e+02
   2.957482e+02  -2.703242e+02
   3.194715e+02   7.481447e+01
   1.479906e+02   4.067262e+02
  -7.554957e+01   3.812735e+02
  -1.243464e+02   1.144088e+02
  -2.057447e+01  -2.366658e+01
   4.599688e+00   9.174705e+01
  -1.492325e+02   1.777003e+02
  -2.903331e+02   1.785837e+01
  -2.239331e+02  -2.368156e+02
   9.421597e+00  -2.835592e+02
   2.231653e+02  -7.590064e+01
   2.569785e+02   1.910870e+02
   6.158451e+01   3.001199e+02
  -2.385499e+02   1.835274e+02
  -3.977024e+02  -8.399834e+01
  -2.519974e+02  -3.163841e+02
   4.897298e+01  -3.279274e+02
   2.186345e+02  -1.492480e+02
   1.542990e+02  -1.168176e+01
   8.745008e+01  -3.845191e+01
   2.029312e+02  -9.257050e+01
   3.813063e+02   1.951863e-01
   3.655161e+02   2.221988e+02
   7.250129e+01   4.148594e+02
  -2.763302e+02   4.455385e+02
  -4.387892e+02   2.780407e+02
  -3.595351e+02  -3.025156e+01
  -1.223306e+02  -2.828751e+02
   8.893051e+01  -2.721451e+02
   1.011755e+02  -4.374397e+01
  -7.260096e+01   1.331787e+02
  -1.997121e+02   4.232985e+01
  -9.713630e+01  -1.853445e+02
   1.235171e+02  -1.901928e+02
   1.936279e+02   2.067633e+01
   1.854011e+01   1.944563e+02
  -1.824583e+02   7.276758e+01
  -2.058635e+02  -2.113037e+02
  -3.039139e+01  -3.414642e+02
   1.835472e+02  -2.253998e+02
   3.151763e+02  -3.380949e+00
   3.054313e+02   1.731034e+02
   1.455500e+02   2.355391e+02
  -7.724113e+01   1.765543e+02
  -1.754388e+02   4.761944e+01
  -6.725696e+01  -2.998539e+01
   8.038316e+01   1.443415e+01
   6.142065e+01   1.159474e+02
  -9.587409e+01   1.249453e+02
  -1.829209e+02   2.751352e+01
  -8.093351e+01  -6.159026e+01
   6.584792e+01  -3.968232e+01
   7.052710e+01   5.377278e+01
  -8.782695e+01   1.011660e+02
  -2.545933e+02   5.152034e+01
  -2.787727e+02  -8.155965e+01
  -1.166852e+02  -2.299409e+02
   1.121658e+02  -2.880885e+02
   2.496639e+02  -1.828546e+02
   1.917849e+02   1.600075e+01
   9.952910e+00   1.177895e+02
  -8.805203e+01   3.192741e+01
   2.566565e+00  -1.042844e+02
   1.748730e+02  -9.701720e+01
   2.261305e+02   5.879551e+01
   1.089819e+02   1.912954e+02
  -6.386344e+01   1.723868e+02
  -1.362414e+02   5.566481e+01
  -8.102881e+01  -2.998173e+01
   2.279088e+01  -1.706751e+01
   5.715489e+01   6.581156e+01
  -3.593212e+01   1.255782e+02
  -1.783980e+02   7.817482e+01
  -2.146904e+02  -7.522175e+01
  -7.443955e+01  -2.069762e+02
   1.238167e+02  -1.939349e+02
   1.914707e+02  -4.249485e+01
   9.097906e+01   1.016809e+02
  -4.513014e+01   1.191613e+02
  -7.860521e+01   4.324567e+01
  -2.363091e+01  -2.219918e+01
   1.569118e+01  -2.219365e+01
  -5.754572e+00   6.658931e+00
  -6.232655e+01   5.712503e+00
  -9.444264e+01  -5.836357e+01
  -4.669369e+01  -1.467760e+02
   8.537757e+01  -1.714186e+02
   2.185635e+02  -7.068951e+01
   2.265217e+02   1.070703e+02
   8.561080e+01   2.262222e+02
  -7.861634e+01   1.890146e+02
  -1.339569e+02   4.980116e+01
  -8.239886e+01  -4.358946e+01
  -3.692176e+01  -3.399311e+01
  -4.320324e+01   1.295934e+01
  -6.803403e+01   1.739824e+01
  -4.732847e+01  -3.701970e+01
   2.539910e+01  -8.137692e+01
   8.345697e+01  -6.892098e+01
   8.493319e+01   1.600436e+01
   9.342059e+00   1.034153e+02
  -1.132968e+02   1.068307e+02
  -1.905551e+02  -9.016690e+00
  -1.343856e+02  -1.636551e+02
   5.419434e+01  -2.280850e+02
   2.224473e+02  -1.163141e+02
   2.567891e+02   3.193697e+01
   1.426218e+02   1.481978e+02
  -4.041070e+00   1.497589e+02
  -7.469752e+01   9.927721e+01
  -6.752815e+01   8.100824e+01
  -4.989000e+01   9.843929e+01
  -7.674566e+01   8.655336e+01
  -1.281516e+02   1.866253e+00
  -1.386892e+02  -1.227861e+02
  -6.946950e+01  -2.085242e+02
   5.960556e+01  -1.849342e+02
   1.617663e+02  -5.267024e+01
   1.556970e+02   8.859362e+01
   5.099950e+01   1.477445e+02
  -4.809851e+01   1.025662e+02
  -6.210974e+01   1.781870e+01
  -1.761987e+01  -3.683557e+01
   1.282813e-03  -3.388332e+01
  -3.552267e+01  -1.356544e+01
  -7.455306e+01  -1.443064e+01
  -4.697343e+01  -3.473032e+01
   4.920546e+01  -4.890723e+01
   1.476265e+02  -3.308562e+01
   1.501829e+02   2.114093e+01
   3.970881e+01   8.248370e+01
  -9.341513e+01   9.724650e+01
  -1.352799e+02   4.386355e+01
  -5.789238e+01  -3.276901e+01
   4.503055e+01  -5.042730e+01
   7.347157e+01   1.233343e+01
   2.058943e+01   6.602422e+01
  -4.392378e+01   6.632581e+01
  -6.123087e+01   7.591415e+00
  -4.770820e+01  -4.363713e+01
  -4.276271e+01  -3.682212e+01
  -5.439096e+01   5.780830e+00
  -6.134320e+01   1.167083e+01
  -4.496256e+01  -5.590946e+01
   1.636379e+00  -1.394513e+02
   8.167566e+01  -1.470157e+02
   1.435402e+02  -5.606935e+01
   1.324028e+02   6.450738e+01
   3.382532e+01   1.147029e+02
  -6.865035e+01   7.171901e+01
  -6.386776e+01  -3.934879e+00
   4.662098e+01  -2.961176e+01
   1.357791e+02   1.825704e+01
   9.539892e+01   9.007141e+01
  -5.084272e+01   1.245422e+02
  -1.688810e+02   8.488855e+01
  -1.643747e+02  -5.956132e+00
  -5.596701e+01  -7.532680e+01
   4.207088e+01  -7.946137e+01
   4.553180e+01  -1.768193e+01
  -3.076777e+01   3.063022e+01
  -8.833369e+01  -6.755966e+00
  -4.952248e+01  -1.078902e+02
   6.265404e+01  -1.624564e+02
   1.504409e+02  -8.545084e+01
   1.394309e+02   7.414715e+01
   4.368306e+01   1.894350e+02
  -5.760960e+01   1.562649e+02
  -1.031086e+02   1.807433e+01
  -8.183452e+01  -9.858155e+01
  -2.121129e+01  -1.060619e+02
   3.689060e+01  -3.249225e+01
   5.694455e+01   1.803474e+01
   3.010258e+01   4.967263e+00
   3.201685e-01  -2.007464e+01
   1.954806e+01   7.338323e+00
   6.914458e+01   7.057895e+01
   6.242875e+01   9.857612e+01
  -3.175743e+01   5.750520e+01
  -1.372867e+02  -7.327335e+00
  -1.379669e+02  -4.463191e+01
  -2.806465e+01  -4.928299e+01
   7.958420e+01  -3.602671e+01
   8.474213e+01  -1.853024e+01
   1.183541e+01   7.093508e+00
  -3.458048e+01   2.764718e+01
  -8.882975e+00   1.932424e+01
   2.163193e+01  -5.609332e+00
  -5.276671e+00  -9.396398e+00
  -7.409718e+01   7.505978e+00
  -9.385468e+01  -9.854997e+00
  -2.462336e+01  -7.302163e+01
   9.166945e+01  -1.247317e+02
   1.653222e+02  -8.089914e+01
   1.445640e+02   4.356428e+01
   4.792044e+01   1.483148e+02
  -5.148335e+01   1.501972e+02
  -9.577417e+01   6.949199e+01
  -8.051215e+01  -7.546844e+00
  -3.120658e+01  -2.681292e+01
   3.859052e-02  -7.686436e+00
  -6.641385e+00  -1.750943e+00
  -3.517341e+01  -3.740197e+01
  -3.632307e+01  -8.039748e+01
   1.364352e+01  -7.460540e+01
   8.015631e+01   2.752450e-01
   8.903283e+01   9.130665e+01
   2.112812e+01   1.103359e+02
  -7.678927e+01   4.036326e+01
  -1.089164e+02  -5.368989e+01
  -4.650778e+01  -9.386648e+01
   5.220686e+01  -6.391943e+01
   9.017767e+01  -6.975319e+00
   4.355001e+01   3.781859e+01
  -2.145507e+01   4.956011e+01
  -2.478252e+01   2.919490e+01
   3.285573e+01  -4.351679e+00
   6.822757e+01  -1.511915e+01
   2.175407e+01   2.166163e+01
  -6.290219e+01   7.183270e+01
  -1.045718e+02   7.110456e+01
  -6.318239e+01  -1.328197e+00
   1.297030e+00  -8.093872e+01
   3.891353e+01  -8.215460e+01
   3.536079e+01  -8.421957e+00
   1.056196e+01   5.333817e+01
  -1.848698e+01   4.596433e+01
  -3.928062e+01  -1.194286e+01
  -3.387234e+01  -4.727207e+01
  -3.923582e+00  -3.142131e+01
   3.254084e+01   2.976824e+00
   3.952817e+01   1.263400e+01
   1.908649e+01  -2.861689e+00
  -3.331792e+00  -1.282664e+01
  -6.634623e+00   4.968705e+00
  -1.508041e+00   3.521612e+01
  -8.271287e+00   4.155434e+01
  -2.952272e+01   9.835081e+00
  -3.463878e+01  -3.905458e+01
  -6.120892e+00  -5.723829e+01
   3.948523e+01  -2.658758e+01
   5.930024e+01   2.922838e+01
   2.443492e+01   5.658552e+01
  -4.356835e+01   4.207409e+01
  -8.253290e+01   1.355214e+00
  -5.262034e+01  -3.165924e+01
   1.786045e+01  -4.177137e+01
   5.611915e+01  -2.856541e+01
   2.195113e+01  -7.109185e+00
  -3.672228e+01   2.060800e+00
  -3.981974e+01  -1.305062e+01
   2.383187e+01  -3.777746e+01
   8.574699e+01  -3.394648e+01
