
 $NMID
 id='ANONYMOUS ', fmtdat='(2E16.6)'
 volume=1.0
 tramp=1.0
 $END
   4.471037e+03  -3.521138e+02
   2.778774e+03   2.717899e+03
  -7.019332e+02   2.978154e+03
  -2.238839e+03   1.075343e+03
  -1.035910e+03  -6.908948e+02
   6.866031e+02  -6.710370e+02
   9.483827e+02   4.252822e+02
   1.990290e+01   1.165331e+03
  -8.280362e+02   8.796869e+02
  -9.821998e+02  -4.330986e+01
  -5.438132e+02  -9.137664e+02
   1.998734e+02  -9.622521e+02
   6.731342e+02  -1.440667e+02
   4.537731e+02   7.457024e+02
  -3.131386e+02   8.053569e+02
  -6.399906e+02   6.637689e-01
  -3.100289e+02  -7.126979e+02
   3.284909e+02  -6.589873e+02
   6.152194e+02  -1.069703e+02
   4.165512e+02   3.499072e+02
   4.411249e+01   4.465178e+02
  -2.498990e+02   3.095171e+02
  -2.411106e+02   5.251060e+01
   8.254385e+01  -1.164296e+02
   4.191470e+02   6.598162e+01
   2.414872e+02   4.163268e+02
  -4.488132e+02   4.629550e+02
  -8.840577e+02  -2.985279e+01
  -4.828044e+02  -5.730433e+02
   3.727389e+02  -5.512279e+02
   7.793929e+02  -2.954719e+01
   3.964611e+02   4.812489e+02
  -2.608548e+02   5.636676e+02
  -5.823607e+02   2.363235e+02
  -4.597438e+02  -2.280626e+02
  -1.052930e+02  -5.037373e+02
   2.138505e+02  -3.153366e+02
   2.188071e+02   1.994013e+02
  -1.290764e+02   4.621439e+02
  -4.633334e+02   1.772006e+01
  -2.949594e+02  -6.690775e+02
   2.935273e+02  -7.430322e+02
   6.346460e+02  -2.580709e+01
   3.075676e+02   5.707933e+02
  -2.834393e+02   3.573891e+02
  -4.085200e+02  -3.155696e+02
   3.909965e+01  -5.712442e+02
   5.522583e+02  -1.619140e+02
   6.100416e+02   3.898891e+02
   1.776791e+02   5.763205e+02
  -3.797807e+02   3.653889e+02
  -6.360998e+02  -6.938648e+01
  -3.915306e+02  -3.927872e+02
   1.529060e+02  -3.878258e+02
   4.780545e+02  -7.392082e+01
   2.766134e+02   1.982668e+02
  -1.196953e+02   1.341922e+02
  -1.692624e+02  -1.490360e+02
   1.674704e+02  -2.153394e+02
   3.813175e+02   5.711684e+01
   1.656855e+02   3.221600e+02
  -1.997861e+02   2.908034e+02
  -3.444025e+02   8.558581e+01
  -1.962899e+02  -8.212101e+01
   2.250407e+01  -2.185079e+02
   2.050080e+02  -3.310427e+02
   3.290284e+02  -2.410257e+02
   3.044292e+02   1.239844e+02
   1.077813e+02   4.536436e+02
  -1.018972e+02   4.107850e+02
  -1.285536e+02   1.189926e+02
  -2.939171e+01  -1.895520e+01
  -3.498695e+01   8.803205e+01
  -1.926643e+02   1.494969e+02
  -2.900768e+02  -3.131602e+01
  -1.830544e+02  -2.703391e+02
   5.591542e+01  -2.706402e+02
   2.344747e+02  -2.488991e+01
   2.195635e+02   2.324922e+02
   7.580123e+00   2.969954e+02
  -2.632968e+02   1.291871e+02
  -3.782282e+02  -1.453412e+02
  -2.027420e+02  -3.389158e+02
   8.208314e+01  -3.164251e+02
   2.232036e+02  -1.346473e+02
   1.543749e+02  -7.806357e+00
   1.011205e+02  -2.990569e+01
   2.253208e+02  -6.860757e+01
   3.938508e+02   4.103260e+01
   3.319488e+02   2.652699e+02
   8.962187e+00   4.306949e+02
  -3.468432e+02   4.250684e+02
  -4.810836e+02   2.278869e+02
  -3.404252e+02  -8.049812e+01
  -7.175116e+01  -3.040351e+02
   1.193690e+02  -2.737673e+02
   9.841717e+01  -3.643410e+01
  -9.937001e+01   1.320807e+02
  -2.175533e+02   2.487989e+01
  -7.159314e+01  -1.915221e+02
   1.730141e+02  -1.902142e+02
   1.914807e+02   4.392491e+01
  -5.796470e+00   2.046994e+02
  -1.967426e+02   4.098732e+01
  -1.752897e+02  -2.510037e+02
   2.322254e+01  -3.584094e+02
   2.272296e+02  -1.933437e+02
   3.262578e+02   6.125149e+01
   2.795741e+02   2.371601e+02
   1.108340e+02   2.630067e+02
  -1.005249e+02   1.645187e+02
  -1.805230e+02   2.890483e+01
  -6.510757e+01  -3.188430e+01
   7.675625e+01   3.151111e+01
   4.450122e+01   1.256922e+02
  -1.193581e+02   1.129568e+02
  -1.841562e+02   1.938659e+00
  -6.410199e+01  -6.864063e+01
   8.032221e+01  -1.926521e+01
   5.555257e+01   7.210863e+01
  -1.264058e+02   9.285558e+01
  -2.929767e+02   1.362852e+01
  -2.775424e+02  -1.263198e+02
  -8.081961e+01  -2.532886e+02
   1.675549e+02  -2.794517e+02
   2.825297e+02  -1.528997e+02
   1.878820e+02   4.423414e+01
  -9.144393e+00   1.197641e+02
  -9.008565e+01   2.038499e+01
   2.650786e+01  -1.035082e+02
   1.967137e+02  -6.755602e+01
   2.206588e+02   9.662109e+01
   8.182877e+01   2.141467e+02
  -9.081008e+01   1.696997e+02
  -1.515414e+02   4.262309e+01
  -8.275912e+01  -3.362030e+01
   2.212148e+01  -4.849458e+00
   3.650031e+01   7.697798e+01
  -6.727136e+01   1.099927e+02
  -1.953716e+02   3.646350e+01
  -1.986519e+02  -1.127259e+02
  -3.652377e+01  -2.219001e+02
   1.564121e+02  -1.793073e+02
   1.958322e+02  -2.114787e+01
   7.390917e+01   1.113845e+02
  -6.076016e+01   1.137596e+02
  -8.300408e+01   3.381006e+01
  -1.811902e+01  -2.682297e+01
   1.951272e+01  -1.843622e+01
  -1.062511e+01   6.098728e+00
  -6.759561e+01  -9.383887e+00
  -8.760678e+01  -7.837967e+01
  -2.198855e+01  -1.529867e+02
   1.130262e+02  -1.578321e+02
   2.318604e+02  -3.982225e+01
   2.120995e+02   1.380282e+02
   5.495740e+01   2.346332e+02
  -1.011189e+02   1.748383e+02
  -1.342758e+02   3.177825e+01
  -7.165460e+01  -5.094392e+01
  -2.878018e+01  -3.209532e+01
  -5.498120e+01   1.463342e+01
  -8.132229e+01   1.186753e+01
  -4.414998e+01  -4.591360e+01
   3.816337e+01  -8.767011e+01
   9.842521e+01  -5.416969e+01
   8.267518e+01   3.197431e+01
  -1.114239e+01   1.111779e+02
  -1.406902e+02   9.143818e+01
  -2.051956e+02  -4.355830e+01
  -1.152888e+02  -2.008123e+02
   9.731208e+01  -2.356448e+02
   2.852174e+02  -1.008378e+02
   2.658920e+02   6.770101e+01
   1.235217e+02   1.711107e+02
  -2.448920e+01   1.518066e+02
  -8.600625e+01   9.471839e+01
  -7.757915e+01   7.644943e+01
  -6.364204e+01   9.304456e+01
  -8.462354e+01   7.594086e+01
  -1.260029e+02  -1.626262e+01
  -1.225224e+02  -1.419467e+02
  -4.684691e+01  -2.194612e+02
   8.291811e+01  -1.807519e+02
   1.754010e+02  -3.308111e+01
   1.506719e+02   1.145692e+02
   3.031627e+01   1.614947e+02
  -6.191800e+01   1.000181e+02
  -6.069040e+01   6.472021e+00
  -8.033513e+00  -4.141165e+01
   4.292578e+00  -3.378207e+01
  -4.361981e+01  -1.595679e+01
  -7.887768e+01  -2.129391e+01
  -4.122497e+01  -3.759488e+01
   6.366373e+01  -3.894760e+01
   1.513583e+02  -5.807356e+00
   1.388590e+02   4.824355e+01
   2.050663e+01   8.786053e+01
  -1.149938e+02   7.718690e+01
  -1.414936e+02   1.907726e+01
  -5.101333e+01  -3.719720e+01
   5.554039e+01  -3.757173e+01
   7.249739e+01   2.028269e+01
   8.851238e+00   6.790009e+01
  -5.511282e+01   5.708611e+01
  -6.109290e+01  -1.928199e+00
  -4.360568e+01  -4.595787e+01
  -4.702013e+01  -3.565505e+01
  -6.544014e+01   1.258849e+00
  -6.962196e+01  -2.788602e+00
  -3.700273e+01  -7.111916e+01
   3.134636e+01  -1.492347e+02
   1.128710e+02  -1.423254e+02
   1.598678e+02  -3.598256e+01
   1.253855e+02   8.870603e+01
   1.031478e+01   1.253080e+02
  -8.495632e+01   6.175676e+01
  -5.865365e+01  -1.501425e+01
   6.303822e+01  -2.478090e+01
   1.420550e+02   3.801350e+01
   8.533193e+01   1.054716e+02
  -7.138882e+01   1.191524e+02
  -1.885118e+02   6.448461e+01
  -1.680660e+02  -1.913575e+01
  -4.518043e+01  -8.080836e+01
   5.262345e+01  -7.420638e+01
   4.727085e+01  -1.291265e+01
  -3.842831e+01   2.621255e+01
  -8.916118e+01  -2.056735e+01
  -3.512730e+01  -1.207471e+02
   8.675060e+01  -1.603873e+02
   1.659740e+02  -6.112092e+01
   1.325304e+02   1.018398e+02
   2.063523e+01   1.995513e+02
  -7.978211e+01   1.440164e+02
  -1.069748e+02  -1.066355e+00
  -7.107705e+01  -1.130174e+02
  -5.125453e+00  -1.034981e+02
   4.203673e+01  -2.251898e+01
   5.351241e+01   2.561076e+01
   2.532126e+01   4.111913e+00
   3.016472e+00  -2.351557e+01
   2.215548e+01   1.363141e+01
   6.156728e+01   8.588511e+01
   4.797166e+01   1.100302e+02
  -4.377678e+01   4.568356e+01
  -1.391269e+02  -3.653593e+01
  -1.304562e+02  -6.441235e+01
  -1.775267e+01  -4.408462e+01
   8.571962e+01  -2.388911e+01
   8.559773e+01  -9.693084e+00
   8.803660e+00   7.042217e+00
  -3.857102e+01   2.245603e+01
  -1.118067e+01   1.817927e+01
   2.365537e+01  -2.506966e+00
  -4.734426e+00  -7.186404e+00
  -7.646754e+01  -7.398718e-01
  -9.476548e+01  -2.247521e+01
  -1.000893e+01  -8.072828e+01
   1.174558e+02  -1.143236e+02
   1.795012e+02  -5.400214e+01
   1.357173e+02   6.609334e+01
   2.277147e+01   1.568996e+02
  -7.677278e+01   1.439700e+02
  -1.090069e+02   5.625075e+01
  -7.777651e+01  -1.908175e+01
  -2.512517e+01  -3.231946e+01
   1.522149e+00  -7.442315e+00
  -1.147662e+01  -3.082702e+00
  -3.750917e+01  -4.268385e+01
  -2.728911e+01  -8.775800e+01
   2.616976e+01  -7.140968e+01
   8.087900e+01   1.373187e+01
   7.526508e+01   1.020609e+02
   5.857273e+00   1.061349e+02
  -7.911188e+01   2.424053e+01
  -1.004366e+02  -7.043280e+01
  -3.501413e+01  -9.945086e+01
   6.423260e+01  -5.671261e+01
   9.674563e+01   7.058978e+00
   3.985384e+01   4.728165e+01
  -3.222098e+01   5.310616e+01
  -3.067914e+01   2.752855e+01
   3.715899e+01  -3.724544e+00
   7.005075e+01  -8.408924e+00
   1.371602e+01   2.584613e+01
  -7.988648e+01   6.716454e+01
  -1.107594e+02   5.962988e+01
  -6.208669e+01  -1.164305e+01
   1.478432e+01  -8.048385e+01
   5.085024e+01  -7.592805e+01
   3.484104e+01  -4.838185e+00
   1.447683e+00   5.553581e+01
  -2.627290e+01   4.086612e+01
  -3.611056e+01  -1.926729e+01
  -2.767428e+01  -5.241451e+01
   1.762809e+00  -3.132431e+01
   3.218773e+01   8.739540e+00
   3.889086e+01   1.694530e+01
   2.220974e+01  -3.014070e+00
   1.552497e+00  -1.353602e+01
  -6.096696e+00   7.944897e+00
  -7.807112e+00   3.966538e+01
  -1.867562e+01   4.480099e+01
  -3.407628e+01   7.209521e+00
  -3.097917e+01  -4.462113e+01
   9.368555e-01  -6.227190e+01
   4.538054e+01  -2.135045e+01
   5.679336e+01   3.722435e+01
   1.422767e+01   6.212751e+01
  -5.601579e+01   3.438930e+01
  -8.698465e+01  -1.430355e+01
  -4.759695e+01  -4.218823e+01
   3.019984e+01  -3.925328e+01
   6.283280e+01  -1.893674e+01
   2.082245e+01  -3.525334e+00
  -3.936477e+01  -2.939888e+00
  -3.738894e+01  -1.814734e+01
   3.194208e+01  -3.259460e+01
   9.154875e+01  -2.137959e+01
