
 $NMID
 id='ANONYMOUS ', fmtdat='(2E16.6)'
 volume=1.0
 tramp=1.0
 $END
  -3.740434e+03  -5.038763e+01
  -2.351698e+03  -1.744927e+03
   1.568612e+02  -2.234839e+03
   1.375694e+03  -1.145420e+03
   8.448040e+02   5.941917e+01
  -2.117155e+02   2.960378e+02
  -5.393148e+02  -2.059332e+02
  -6.355954e+01  -7.221109e+02
   5.484513e+02  -6.949596e+02
   7.549819e+02  -4.716886e+01
   5.283113e+02   6.151805e+02
  -6.805213e+01   7.683105e+02
  -4.241292e+02   1.781465e+02
  -3.089432e+02  -5.292699e+02
   2.158699e+02  -6.489457e+02
   4.802651e+02  -7.069572e+01
   3.099903e+02   5.572818e+02
  -1.799419e+02   6.574399e+02
  -5.085068e+02   2.219900e+02
  -4.330882e+02  -2.448243e+02
  -7.969869e+01  -3.975987e+02
   1.759373e+02  -2.583273e+02
   1.347005e+02  -4.500653e+01
  -1.575497e+02   3.899124e+00
  -3.541552e+02  -1.929845e+02
  -8.702990e+01  -3.967011e+02
   4.801546e+02  -2.790429e+02
   7.494682e+02   1.128563e+02
   3.187312e+02   4.364455e+02
  -3.648047e+02   3.402672e+02
  -6.280138e+02  -8.245480e+01
  -2.782508e+02  -4.033166e+02
   2.534744e+02  -4.219922e+02
   4.745801e+02  -1.800479e+02
   3.606391e+02   1.543156e+02
   9.042506e+01   3.480441e+02
  -8.587812e+01   2.032737e+02
  -4.813724e+01  -1.424106e+02
   1.560426e+02  -2.544980e+02
   2.918443e+02   8.664121e+01
   1.336279e+02   5.379078e+02
  -2.437142e+02   5.126879e+02
  -4.152308e+02   1.924826e+01
  -1.744152e+02  -3.866720e+02
   1.971631e+02  -2.064396e+02
   2.526836e+02   2.849155e+02
  -7.717682e+01   4.542199e+02
  -4.808519e+02   1.234742e+02
  -5.338110e+02  -3.416516e+02
  -1.874316e+02  -5.009210e+02
   3.097586e+02  -3.119595e+02
   5.291675e+02   3.566896e+01
   3.404389e+02   2.769345e+02
  -6.511603e+01   2.855841e+02
  -3.369573e+02   7.953078e+01
  -2.265066e+02  -9.226533e+01
   3.729209e+01  -5.897857e+01
   9.688049e+01   7.425261e+01
  -1.147760e+02   1.066946e+02
  -2.755013e+02  -4.328465e+01
  -1.321296e+02  -2.253665e+02
   1.652453e+02  -2.615885e+02
   3.437522e+02  -1.223201e+02
   2.468544e+02   8.633401e+01
  -1.114475e+01   2.883179e+02
  -2.563313e+02   3.578578e+02
  -3.433813e+02   1.923570e+02
  -2.445148e+02  -1.411630e+02
  -7.124378e+01  -3.715788e+02
   4.190697e+01  -3.258120e+02
   5.065393e+01  -1.464873e+02
   3.105611e+01  -7.487475e+01
   1.058375e+02  -1.083039e+02
   2.252079e+02  -8.403047e+01
   2.492039e+02   9.623829e+01
   1.172191e+02   2.571348e+02
  -8.488463e+01   2.155474e+02
  -2.039129e+02  -1.808487e+01
  -1.634201e+02  -2.455165e+02
   2.818446e+01  -2.670762e+02
   2.505225e+02  -8.785298e+01
   3.286003e+02   1.648427e+02
   1.759630e+02   3.081735e+02
  -6.276041e+01   2.735218e+02
  -1.792258e+02   1.418036e+02
  -1.452537e+02   5.450136e+01
  -1.280640e+02   5.218182e+01
  -2.425628e+02   5.509311e+01
  -3.839142e+02  -5.815366e+01
  -3.195910e+02  -2.601327e+02
  -1.175635e+01  -4.136375e+02
   3.427623e+02  -4.027321e+02
   4.644057e+02  -2.138285e+02
   3.043789e+02   7.384091e+01
   4.147541e+01   2.608873e+02
  -9.454493e+01   2.138602e+02
  -3.424272e+01   2.809688e+01
   1.085668e+02  -6.926243e+01
   1.553633e+02   2.093041e+01
   2.803938e+01   1.555202e+02
  -1.507774e+02   1.226914e+02
  -1.404639e+02  -4.921845e+01
   8.848408e+00  -1.484340e+02
   1.675287e+02  -1.927519e+01
   1.614707e+02   2.288178e+02
  -1.051569e+01   3.384723e+02
  -2.202732e+02   2.115521e+02
  -3.387888e+02  -4.306618e+01
  -2.798443e+02  -2.402758e+02
  -8.123508e+01  -2.663761e+02
   1.160961e+02  -1.480460e+02
   1.550622e+02  -5.846926e+00
   3.876041e+01   2.339338e+01
  -6.336460e+01  -4.963995e+01
  -1.537291e+01  -1.168204e+02
   1.157410e+02  -8.229721e+01
   1.582553e+02   1.519943e+01
   4.084921e+01   5.689337e+01
  -8.343407e+01   1.983557e+00
  -4.862227e+01  -8.316494e+01
   1.335885e+02  -9.032963e+01
   2.961363e+02   6.531300e+00
   2.636595e+02   1.457298e+02
   4.707358e+01   2.567319e+02
  -1.911526e+02   2.485221e+02
  -2.696265e+02   1.076423e+02
  -1.490417e+02  -4.841666e+01
   2.177097e+01  -9.109354e+01
   7.415974e+01  -4.362129e+00
  -3.854158e+01   8.643024e+01
  -1.755657e+02   4.079030e+01
  -1.901408e+02  -9.358530e+01
  -5.945598e+01  -1.886127e+02
   8.732645e+01  -1.403358e+02
   1.284467e+02  -2.079682e+01
   5.210234e+01   4.307652e+01
  -4.127948e+01  -1.041335e+01
  -3.513091e+01  -9.711302e+01
   8.160133e+01  -1.204258e+02
   2.043466e+02  -2.774062e+01
   1.890934e+02   1.207458e+02
   2.277815e+01   2.101305e+02
  -1.531119e+02   1.572883e+02
  -1.798032e+02   1.610387e+01
  -6.150517e+01  -9.705528e+01
   5.883310e+01  -9.776246e+01
   7.367911e+01  -2.742555e+01
   7.082708e+00   2.611549e+01
  -3.280252e+01   1.168323e+01
   5.796691e+00  -2.062655e+01
   7.953153e+01  -2.741169e+00
   1.018222e+02   8.022644e+01
   2.076660e+01   1.663596e+02
  -1.267123e+02   1.582412e+02
  -2.306010e+02   2.729186e+01
  -2.007930e+02  -1.428698e+02
  -4.997073e+01  -2.214480e+02
   9.374696e+01  -1.648651e+02
   1.273180e+02  -3.564095e+01
   7.386390e+01   4.582941e+01
   3.222593e+01   3.389337e+01
   5.058757e+01  -1.101683e+01
   7.979773e+01  -1.232167e+01
   5.243449e+01   5.046744e+01
  -2.728265e+01   1.032121e+02
  -1.100439e+02   6.933189e+01
  -1.013066e+02  -3.458722e+01
   8.034848e+00  -1.248651e+02
   1.441364e+02  -9.665938e+01
   1.999764e+02   4.536361e+01
   1.023344e+02   1.976024e+02
  -9.914569e+01   2.196218e+02
  -2.731062e+02   8.036036e+01
  -2.469865e+02  -7.552319e+01
  -1.097550e+02  -1.616701e+02
   3.152234e+01  -1.392462e+02
   8.901962e+01  -8.734422e+01
   7.504985e+01  -7.613199e+01
   5.973067e+01  -9.673128e+01
   8.565308e+01  -7.928312e+01
   1.305434e+02   1.602112e+01
   1.236307e+02   1.469685e+02
   3.552955e+01   2.222074e+02
  -9.286380e+01   1.734505e+02
  -1.692432e+02   2.421753e+01
  -1.343321e+02  -1.181778e+02
  -2.397369e+01  -1.557694e+02
   6.700795e+01  -8.955477e+01
   6.197108e+01   4.949148e+00
   2.544880e+00   4.967206e+01
  -1.891103e+01   3.878449e+01
   3.216165e+01   1.556713e+01
   8.262820e+01   1.858678e+01
   4.710400e+01   4.015432e+01
  -7.005057e+01   4.073173e+01
  -1.676172e+02   2.683154e+00
  -1.434264e+02  -5.651771e+01
  -7.955558e+00  -9.163847e+01
   1.252977e+02  -7.566062e+01
   1.405484e+02  -1.194096e+01
   4.559171e+01   4.595095e+01
  -5.475380e+01   4.269723e+01
  -7.827224e+01  -2.452270e+01
  -1.708500e+01  -7.213327e+01
   4.454878e+01  -6.558320e+01
   6.426463e+01  -4.926184e+00
   5.553582e+01   4.839864e+01
   4.742059e+01   4.724285e+01
   5.570192e+01   4.373280e+00
   5.948571e+01  -1.355471e+00
   3.921837e+01   6.400274e+01
  -2.211995e+01   1.458142e+02
  -1.065757e+02   1.459712e+02
  -1.621002e+02   4.728656e+01
  -1.293803e+02  -7.971415e+01
  -1.006233e+01  -1.232983e+02
   8.456763e+01  -6.857046e+01
   6.000770e+01   8.976128e+00
  -6.028103e+01   2.439598e+01
  -1.396955e+02  -3.597145e+01
  -7.475744e+01  -1.053665e+02
   8.482763e+01  -1.182234e+02
   1.940327e+02  -5.565926e+01
   1.617253e+02   3.564750e+01
   3.693954e+01   8.895049e+01
  -6.127585e+01   6.952553e+01
  -4.965370e+01   4.128843e+00
   3.662247e+01  -2.959922e+01
   9.034190e+01   1.637661e+01
   4.050657e+01   1.114612e+02
  -7.349438e+01   1.529070e+02
  -1.510311e+02   7.094951e+01
  -1.261668e+02  -8.512037e+01
  -2.069508e+01  -1.885923e+02
   7.970828e+01  -1.413088e+02
   1.079474e+02   7.658954e+00
   6.359475e+01   1.173671e+02
  -3.715934e+00   1.075911e+02
  -5.014137e+01   2.417267e+01
  -5.369872e+01  -2.718622e+01
  -2.563065e+01  -7.940781e+00
  -6.846967e+00   1.451271e+01
  -2.617426e+01  -2.250500e+01
  -5.869772e+01  -8.832599e+01
  -3.650143e+01  -1.013816e+02
   4.949766e+01  -4.399714e+01
   1.337896e+02   2.948051e+01
   1.221188e+02   5.896510e+01
   1.838862e+01   4.804422e+01
  -7.696095e+01   2.868845e+01
  -7.995700e+01   1.251398e+01
  -1.729250e+01  -9.577673e+00
   3.213376e+01  -2.265136e+01
   1.510889e+01  -1.817212e+01
  -1.448359e+01   2.113766e+00
   5.182803e+00   5.007297e+00
   6.680620e+01   2.442878e+00
   8.851003e+01   2.252238e+01
   1.987615e+01   8.057809e+01
  -1.032255e+02   1.139248e+02
  -1.756370e+02   6.423174e+01
  -1.425615e+02  -5.565800e+01
  -3.014996e+01  -1.504164e+02
   7.365955e+01  -1.490717e+02
   1.078021e+02  -6.165245e+01
   7.651963e+01   1.983267e+01
   2.841155e+01   3.668730e+01
   1.875081e+00   1.249424e+01
   1.090288e+01   5.985110e+00
   2.585297e+01   4.844578e+01
   2.035039e+01   8.970791e+01
  -2.456382e+01   7.163770e+01
  -7.789922e+01  -1.206178e+01
  -8.124318e+01  -9.573466e+01
  -1.754141e+01  -1.059276e+02
   7.311838e+01  -3.177070e+01
   1.051454e+02   6.106180e+01
   4.404406e+01   9.950405e+01
  -5.964753e+01   6.345254e+01
  -1.005677e+02  -3.161195e+00
  -4.632722e+01  -5.016362e+01
   2.845987e+01  -5.511925e+01
   3.352117e+01  -2.627944e+01
  -2.784200e+01   4.343838e+00
  -6.623096e+01   7.269328e+00
  -1.723438e+01  -2.615559e+01
   7.436296e+01  -6.383229e+01
   1.128995e+02  -5.061423e+01
   6.443020e+01   1.386795e+01
  -1.331904e+01   8.232127e+01
  -5.466341e+01   8.115396e+01
  -4.200763e+01   1.216467e+01
  -9.790092e+00  -5.223531e+01
   2.065796e+01  -4.790555e+01
   3.740028e+01   8.824051e+00
   3.293256e+01   4.898157e+01
   2.120816e+00   3.768684e+01
  -3.375800e+01  -2.865339e+00
  -4.364368e+01  -2.115248e+01
  -2.323429e+01  -2.994144e+00
   3.176171e+00   1.680996e+01
   8.331184e+00   3.377722e+00
  -3.293114e-01  -3.209505e+01
   2.311380e+00  -4.839767e+01
   2.564837e+01  -1.726583e+01
   3.737871e+01   3.638476e+01
   1.077359e+01   5.969468e+01
  -3.912476e+01   2.811304e+01
  -6.276418e+01  -2.958721e+01
  -2.299282e+01  -5.761701e+01
   5.093909e+01  -3.793758e+01
   8.763890e+01   5.041473e+00
   4.954699e+01   3.805518e+01
  -2.573539e+01   4.257116e+01
  -6.057416e+01   2.796541e+01
  -2.594287e+01   8.307084e+00
   3.108225e+01  -1.786543e+00
   3.501201e+01   9.068338e+00
  -2.328401e+01   2.730367e+01
  -7.725154e+01   2.370987e+01
