
 $NMID
 id='ANONYMOUS ', fmtdat='(2E16.6)'
 volume=1.0
 tramp=1.0
 $END
  -4.693449e+03   4.334108e+02
  -3.027753e+03  -2.706320e+03
   7.131500e+02  -3.108565e+03
   2.300576e+03  -1.146199e+03
   1.066753e+03   6.980810e+02
  -7.249977e+02   6.853456e+02
  -9.651144e+02  -4.018349e+02
  -4.855541e+01  -1.157781e+03
   8.151172e+02  -9.037107e+02
   9.837412e+02   2.037224e+01
   5.802910e+02   8.982824e+02
  -1.891523e+02   9.685110e+02
  -6.660108e+02   1.556698e+02
  -4.537562e+02  -7.440203e+02
   2.970406e+02  -8.131438e+02
   6.398618e+02  -1.807861e+01
   3.388055e+02   7.113528e+02
  -3.030845e+02   6.853410e+02
  -6.063576e+02   1.374690e+02
  -4.346974e+02  -3.481942e+02
  -5.313495e+01  -4.489107e+02
   2.595697e+02  -3.159185e+02
   2.728311e+02  -5.067785e+01
  -7.712222e+01   1.222127e+02
  -4.450513e+02  -5.457251e+01
  -2.709994e+02  -4.223017e+02
   4.377299e+02  -4.867375e+02
   9.107273e+02  -1.063466e+01
   5.139627e+02   5.509543e+02
  -3.601129e+02   5.744649e+02
  -7.958814e+02   5.833821e+01
  -4.102663e+02  -4.743545e+02
   2.551480e+02  -5.812987e+02
   5.719166e+02  -2.615305e+02
   4.593094e+02   2.099075e+02
   1.194879e+02   4.938649e+02
  -1.919327e+02   3.248610e+02
  -2.115907e+02  -2.062623e+02
   1.208202e+02  -4.782842e+02
   4.763830e+02  -3.428507e+01
   3.394188e+02   6.856359e+02
  -2.727758e+02   7.736642e+02
  -6.415288e+02   5.135088e+01
  -3.258892e+02  -5.782428e+02
   2.856368e+02  -3.664602e+02
   4.266685e+02   3.232211e+02
  -2.511919e+01   6.046239e+02
  -5.834698e+02   1.912442e+02
  -6.608201e+02  -3.960057e+02
  -2.244251e+02  -5.888215e+02
   3.611353e+02  -3.868279e+02
   6.321528e+02   3.272501e+01
   4.067887e+02   3.668784e+02
  -1.444577e+02   3.819901e+02
  -4.654127e+02   7.925482e+01
  -2.652537e+02  -1.955666e+02
   1.355349e+02  -1.311889e+02
   1.788115e+02   1.506307e+02
  -1.634070e+02   2.201457e+02
  -3.866457e+02  -5.270327e+01
  -1.696787e+02  -3.181747e+02
   2.077454e+02  -2.922475e+02
   3.418007e+02  -9.085448e+01
   1.960091e+02   7.014732e+01
  -6.585848e+00   2.184983e+02
  -1.985900e+02   3.480143e+02
  -3.253292e+02   2.679764e+02
  -3.137672e+02  -1.082197e+02
  -1.265786e+02  -4.471128e+02
   9.596819e+01  -4.275878e+02
   1.228223e+02  -1.299996e+02
   2.309243e+01   1.189357e+01
   3.206410e+01  -9.773624e+01
   1.973786e+02  -1.627024e+02
   3.077293e+02   2.374793e+01
   1.939616e+02   2.683010e+02
  -5.548658e+01   2.795021e+02
  -2.392273e+02   3.327514e+01
  -2.328193e+02  -2.372501e+02
  -1.674253e+01  -3.061105e+02
   2.640934e+02  -1.410309e+02
   3.882744e+02   1.354877e+02
   2.180674e+02   3.288949e+02
  -7.372305e+01   3.111752e+02
  -2.156795e+02   1.305799e+02
  -1.433357e+02   7.459795e+00
  -8.874941e+01   4.203802e+01
  -2.150978e+02   9.615362e+01
  -3.955610e+02  -1.454285e+01
  -3.505025e+02  -2.433785e+02
  -3.674409e+01  -4.356767e+02
   3.313973e+02  -4.548165e+02
   4.806790e+02  -2.521114e+02
   3.551999e+02   6.763697e+01
   8.217544e+01   3.056998e+02
  -1.060243e+02   2.758037e+02
  -9.016708e+01   3.665570e+01
   1.019169e+02  -1.296665e+02
   2.124880e+02  -2.026704e+01
   7.649537e+01   1.950440e+02
  -1.738184e+02   1.941705e+02
  -1.987254e+02  -4.372312e+01
  -1.195737e+00  -2.087739e+02
   2.030959e+02  -4.547604e+01
   1.917061e+02   2.499900e+02
  -5.295332e+00   3.626821e+02
  -2.193448e+02   2.096817e+02
  -3.344508e+02  -3.373842e+01
  -3.007978e+02  -2.159961e+02
  -1.289043e+02  -2.601101e+02
   9.352150e+01  -1.815582e+02
   1.864009e+02  -4.642495e+01
   7.262483e+01   2.467434e+01
  -7.662767e+01  -3.232439e+01
  -4.669564e+01  -1.272054e+02
   1.203082e+02  -1.164876e+02
   1.911614e+02  -2.509314e+00
   6.658822e+01   7.008242e+01
  -8.366054e+01   2.311452e+01
  -6.217302e+01  -7.270969e+01
   1.221119e+02  -1.010321e+02
   2.959712e+02  -1.864597e+01
   2.842234e+02   1.196289e+02
   9.062181e+01   2.543392e+02
  -1.580787e+02   2.837434e+02
  -2.795811e+02   1.582977e+02
  -1.877088e+02  -4.090096e+01
   8.342124e+00  -1.203903e+02
   9.367623e+01  -2.135293e+01
  -2.335919e+01   1.077757e+02
  -1.989120e+02   7.616717e+01
  -2.315384e+02  -8.934779e+01
  -9.073465e+01  -2.130143e+02
   8.786880e+01  -1.780724e+02
   1.540572e+02  -5.004645e+01
   8.382351e+01   3.499418e+01
  -2.342910e+01   7.205417e+00
  -4.350949e+01  -7.657731e+01
   6.392028e+01  -1.167339e+02
   2.015287e+02  -4.515464e+01
   2.105279e+02   1.113696e+02
   4.314342e+01   2.250385e+02
  -1.576065e+02   1.855979e+02
  -2.005921e+02   2.425817e+01
  -7.592678e+01  -1.120194e+02
   6.197736e+01  -1.143995e+02
   8.422684e+01  -3.284631e+01
   1.829025e+01   2.913436e+01
  -2.093898e+01   2.084780e+01
   8.637073e+00  -8.136092e+00
   6.972400e+01   6.268611e+00
   9.228904e+01   7.675514e+01
   2.624654e+01   1.594463e+02
  -1.135820e+02   1.671728e+02
  -2.344824e+02   4.709359e+01
  -2.195984e+02  -1.324473e+02
  -6.258941e+01  -2.333115e+02
   9.508538e+01  -1.775626e+02
   1.322083e+02  -3.766146e+01
   7.270736e+01   4.749404e+01
   3.264214e+01   3.007445e+01
   5.752535e+01  -1.424118e+01
   8.061368e+01  -1.266051e+01
   4.392315e+01   4.435711e+01
  -3.655647e+01   8.679467e+01
  -9.854961e+01   5.709449e+01
  -8.522953e+01  -2.626378e+01
   8.248601e+00  -1.083521e+02
   1.357168e+02  -9.719977e+01
   2.049951e+02   3.205247e+01
   1.230895e+02   1.975455e+02
  -8.638394e+01   2.445585e+02
  -2.860050e+02   1.161349e+02
  -2.793600e+02  -5.542529e+01
  -1.380979e+02  -1.720268e+02
   2.090702e+01  -1.579862e+02
   8.769113e+01  -9.853897e+01
   7.764247e+01  -8.126943e+01
   6.281703e+01  -1.001039e+02
   8.577299e+01  -8.185431e+01
   1.303506e+02   1.464276e+01
   1.298234e+02   1.464207e+02
   5.119307e+01   2.282382e+02
  -8.283644e+01   1.851602e+02
  -1.768831e+02   3.745425e+01
  -1.561812e+02  -1.117881e+02
  -3.936036e+01  -1.613864e+02
   5.817143e+01  -1.008109e+02
   6.030354e+01  -8.249713e+00
   8.401037e+00   3.936194e+01
  -4.955151e+00   3.427808e+01
   4.265201e+01   1.565374e+01
   8.404782e+01   1.524276e+01
   4.889162e+01   3.324631e+01
  -5.803404e+01   3.993809e+01
  -1.513646e+02   1.204608e+01
  -1.415785e+02  -3.956993e+01
  -2.075117e+01  -8.527105e+01
   1.155466e+02  -8.328890e+01
   1.429617e+02  -2.333344e+01
   5.317989e+01   3.536977e+01
  -5.521157e+01   4.156650e+01
  -7.673445e+01  -2.129032e+01
  -1.215348e+01  -6.890089e+01
   5.330466e+01  -6.095597e+01
   6.307437e+01  -2.077992e+00
   4.770108e+01   4.446899e+01
   4.984468e+01   3.677359e+01
   6.860930e+01  -2.247299e-01
   6.976492e+01   2.276473e+00
   3.709104e+01   6.729552e+01
  -2.573586e+01   1.476108e+02
  -1.071896e+02   1.489784e+02
  -1.591753e+02   4.654348e+01
  -1.305103e+02  -8.224250e+01
  -1.592649e+01  -1.247626e+02
   8.265675e+01  -6.731708e+01
   6.070565e+01   1.285752e+01
  -6.262015e+01   2.863287e+01
  -1.469342e+02  -3.272341e+01
  -9.096208e+01  -1.048499e+02
   6.923811e+01  -1.279950e+02
   1.934460e+02  -7.518024e+01
   1.760962e+02   1.873536e+01
   5.079806e+01   8.535347e+01
  -5.190850e+01   7.914288e+01
  -5.037649e+01   1.330279e+01
   3.713676e+01  -3.018153e+01
   9.317736e+01   1.613901e+01
   4.290347e+01   1.198331e+02
  -8.023746e+01   1.668083e+02
  -1.648912e+02   7.341703e+01
  -1.397522e+02  -9.350057e+01
  -2.981269e+01  -2.024553e+02
   7.210074e+01  -1.543906e+02
   1.068341e+02  -2.776801e+00
   7.343149e+01   1.146120e+02
   9.082608e+00   1.059004e+02
  -4.289640e+01   2.464056e+01
  -5.715744e+01  -2.500924e+01
  -2.824066e+01  -4.900711e+00
  -3.568767e+00   2.145237e+01
  -2.356840e+01  -1.409189e+01
  -6.431902e+01  -8.395004e+01
  -4.903692e+01  -1.094746e+02
   4.408912e+01  -5.069893e+01
   1.432298e+02   2.921211e+01
   1.406487e+02   6.248734e+01
   2.416080e+01   4.976782e+01
  -8.463699e+01   2.986345e+01
  -8.675502e+01   1.477641e+01
  -1.101530e+01  -4.819345e+00
   3.723777e+01  -2.176395e+01
   9.828599e+00  -2.007162e+01
  -2.402042e+01   1.409878e+00
   4.685052e+00   6.593878e+00
   7.654860e+01  -2.448725e+00
   9.770304e+01   1.992816e+01
   1.514133e+01   8.255513e+01
  -1.153401e+02   1.230015e+02
  -1.835546e+02   6.607376e+01
  -1.437879e+02  -6.113998e+01
  -3.080081e+01  -1.599415e+02
   7.318483e+01  -1.506425e+02
   1.083159e+02  -6.090281e+01
   7.890168e+01   1.829503e+01
   2.608506e+01   3.232643e+01
  -2.411437e+00   7.506748e+00
   1.078710e+01   2.662870e+00
   3.808095e+01   4.266045e+01
   2.999631e+01   8.845382e+01
  -2.289851e+01   7.381611e+01
  -8.450202e+01  -1.162752e+01
  -8.373233e+01  -9.966092e+01
  -1.115402e+01  -1.091368e+02
   8.040374e+01  -2.850095e+01
   1.062478e+02   6.731219e+01
   3.985664e+01   9.990782e+01
  -6.260797e+01   5.857220e+01
  -9.883673e+01  -5.261312e+00
  -4.198584e+01  -4.628039e+01
   2.976503e+01  -5.266344e+01
   2.951878e+01  -2.790484e+01
  -3.564500e+01   3.500701e+00
  -6.953401e+01   1.037780e+01
  -1.484978e+01  -2.496612e+01
   7.919411e+01  -7.044512e+01
   1.116452e+02  -6.083782e+01
   6.263301e+01   1.189306e+01
  -1.373802e+01   8.454981e+01
  -5.036113e+01   7.927391e+01
  -3.526631e+01   5.981014e+00
  -4.790237e+00  -5.720123e+01
   2.442525e+01  -4.416868e+01
   3.840029e+01   1.695213e+01
   3.185105e+01   5.314084e+01
   4.973430e-01   3.381533e+01
  -3.250828e+01  -6.326736e+00
  -4.140028e+01  -1.578402e+01
  -2.154831e+01   3.375069e+00
   5.535058e-01   1.481662e+01
   6.391292e+00  -5.780939e+00
   5.010113e+00  -3.803110e+01
   1.483336e+01  -4.410852e+01
   3.330771e+01  -6.756683e+00
   3.279706e+01   4.603808e+01
  -1.059519e+00   6.294105e+01
  -4.621684e+01   2.262960e+01
  -5.903017e+01  -3.769692e+01
  -1.753584e+01  -6.269969e+01
   5.543861e+01  -3.778463e+01
   8.964477e+01   1.046990e+01
   5.150944e+01   4.110741e+01
  -2.575245e+01   4.224147e+01
  -6.226270e+01   2.434505e+01
  -2.400635e+01   5.876501e+00
   3.547856e+01   5.289022e-01
   3.751930e+01   1.381972e+01
  -2.947443e+01   3.276628e+01
  -9.024978e+01   2.418105e+01
