
 $NMID
 id='ANONYMOUS ', fmtdat='(2E16.6)'
 volume=1.0
 tramp=1.0
 $END
  -2.767517e+03   1.525053e+01
  -2.171214e+03  -1.277757e+03
  -3.605185e+02  -1.897683e+03
   1.005440e+03  -1.395792e+03
   9.968603e+02  -3.029451e+02
   1.633267e+02   2.312223e+02
  -3.227176e+02   8.144037e+00
  -9.695101e+01  -4.592524e+02
   3.948373e+02  -5.640898e+02
   5.846217e+02  -1.099132e+02
   4.144107e+02   3.885181e+02
   3.975636e+01   5.968677e+02
  -2.550933e+02   2.266113e+02
  -2.282675e+02  -3.361133e+02
   1.414001e+02  -5.228557e+02
   3.604139e+02  -1.216244e+02
   2.788980e+02   4.114753e+02
  -1.041863e+02   5.764937e+02
  -4.298687e+02   2.642699e+02
  -3.962423e+02  -1.502316e+02
  -1.205212e+02  -3.415445e+02
   1.023356e+02  -2.158333e+02
   6.525576e+01  -7.387596e+01
  -1.463363e+02  -1.041868e+02
  -2.188122e+02  -2.446222e+02
   2.836373e+01  -2.949351e+02
   4.010165e+02  -1.008090e+02
   4.855245e+02   1.842968e+02
   1.794722e+02   3.113884e+02
  -2.715667e+02   1.621171e+02
  -4.345295e+02  -1.225798e+02
  -1.772372e+02  -3.003706e+02
   2.145696e+02  -2.954646e+02
   3.820494e+02  -1.155617e+02
   2.744302e+02   1.274997e+02
   7.945828e+01   2.662805e+02
  -2.690202e+01   1.759221e+02
   2.799554e+01  -4.813855e+01
   1.371083e+02  -1.385906e+02
   1.642530e+02   9.653321e+01
   3.845833e+01   3.919719e+02
  -1.818166e+02   3.671361e+02
  -2.567244e+02   3.486195e+01
  -1.032506e+02  -2.371295e+02
   1.002681e+02  -1.170090e+02
   1.312485e+02   2.166255e+02
  -9.701473e+01   3.218139e+02
  -3.761383e+02   4.864845e+01
  -4.109980e+02  -3.083634e+02
  -1.415917e+02  -4.149027e+02
   2.510135e+02  -2.421661e+02
   4.353705e+02   3.051410e+01
   3.029169e+02   1.949814e+02
  -8.338261e-01   2.005670e+02
  -2.286118e+02   9.090228e+01
  -2.038052e+02  -1.812201e+00
  -4.162484e+01  -2.097976e+01
   3.900201e+01   2.701774e+01
  -7.670322e+01   3.475442e+01
  -1.874428e+02  -3.815142e+01
  -9.939543e+01  -1.536769e+02
   1.300904e+02  -2.108981e+02
   3.042299e+02  -1.136155e+02
   2.296484e+02   9.856786e+01
  -3.414442e+01   2.822308e+02
  -2.785426e+02   2.971516e+02
  -3.318208e+02   1.264634e+02
  -1.947917e+02  -1.315775e+02
  -3.777363e+01  -3.058249e+02
   2.268348e+01  -2.878727e+02
   2.566715e+01  -1.633855e+02
   5.181433e+01  -1.069595e+02
   1.383756e+02  -9.427113e+01
   2.234357e+02  -2.516289e+01
   1.930879e+02   1.189511e+02
   6.335694e+01   2.203824e+02
  -8.591708e+01   1.587449e+02
  -1.558078e+02  -3.853087e+01
  -1.059810e+02  -2.122508e+02
   3.650798e+01  -2.110184e+02
   2.050253e+02  -5.279979e+01
   2.663174e+02   1.465015e+02
   1.512781e+02   2.464699e+02
  -3.031776e+01   2.378790e+02
  -1.415937e+02   1.561366e+02
  -1.441308e+02   8.708841e+01
  -1.522941e+02   5.133349e+01
  -2.552732e+02   4.978430e+00
  -3.612834e+02  -1.032328e+02
  -2.683672e+02  -2.742138e+02
   2.954997e+01  -3.775236e+02
   3.435238e+02  -3.363312e+02
   4.256352e+02  -1.569161e+02
   2.447279e+02   7.799303e+01
   1.449269e+01   2.106830e+02
  -7.296981e+01   1.750129e+02
   7.611947e+00   3.901750e+01
   1.018713e+02  -2.325088e+01
   1.041229e+02   3.376020e+01
   1.645691e+00   1.143560e+02
  -1.169130e+02   8.097055e+01
  -8.808309e+01  -3.979700e+01
   1.885394e+01  -1.010086e+02
   1.313541e+02  -1.060770e+00
   1.176432e+02   1.965582e+02
  -2.041165e+01   2.949193e+02
  -2.100228e+02   1.820212e+02
  -3.129613e+02  -5.500436e+01
  -2.426854e+02  -2.256395e+02
  -5.459673e+01  -2.407707e+02
   1.121300e+02  -1.222333e+02
   1.309064e+02  -5.282819e+00
   3.432723e+01   8.585867e+00
  -4.179247e+01  -5.239576e+01
   2.075784e+00  -9.361105e+01
   1.032819e+02  -5.629158e+01
   1.269580e+02   2.404175e+01
   2.984150e+01   4.231291e+01
  -7.044171e+01  -1.413667e+01
  -2.848198e+01  -7.893936e+01
   1.289126e+02  -7.153388e+01
   2.652680e+02   2.484576e+01
   2.201809e+02   1.547566e+02
   1.475397e+01   2.291403e+02
  -1.854062e+02   2.012731e+02
  -2.322309e+02   7.727097e+01
  -1.145728e+02  -4.550996e+01
   2.624826e+01  -7.071126e+01
   5.374315e+01   3.625085e-01
  -4.481178e+01   6.575897e+01
  -1.479923e+02   2.411773e+01
  -1.522521e+02  -8.315078e+01
  -4.650361e+01  -1.567743e+02
   6.803854e+01  -1.154066e+02
   1.002534e+02  -2.119135e+01
   3.893674e+01   2.467198e+01
  -3.418384e+01  -2.182890e+01
  -1.933761e+01  -9.626120e+01
   8.835133e+01  -1.001334e+02
   1.832167e+02  -4.431531e+00
   1.523383e+02   1.233727e+02
   3.402065e+00   1.816878e+02
  -1.354231e+02   1.243202e+02
  -1.494860e+02   1.228432e+01
  -4.987818e+01  -7.699768e+01
   4.768951e+01  -7.858011e+01
   5.963624e+01  -2.207637e+01
   1.790554e+00   1.994639e+01
  -3.208559e+01   3.182833e+00
   8.988199e+00  -2.127895e+01
   7.848477e+01   2.346473e+00
   9.283733e+01   8.491900e+01
   6.612827e+00   1.554666e+02
  -1.274955e+02   1.342974e+02
  -2.076883e+02   8.208093e+00
  -1.711767e+02  -1.392963e+02
  -4.199937e+01  -1.980837e+02
   8.026120e+01  -1.425736e+02
   1.092909e+02  -3.163948e+01
   6.651519e+01   3.599485e+01
   3.034608e+01   2.633746e+01
   5.209264e+01  -1.094320e+01
   7.874771e+01  -1.032705e+01
   5.284556e+01   5.137459e+01
  -2.722480e+01   9.537531e+01
  -1.110274e+02   6.110781e+01
  -9.917933e+01  -4.309532e+01
   1.946457e+01  -1.171487e+02
   1.516127e+02  -7.375865e+01
   1.832093e+02   6.693661e+01
   6.875816e+01   1.920678e+02
  -1.163485e+02   1.873807e+02
  -2.573647e+02   4.643430e+01
  -2.156868e+02  -8.331532e+01
  -8.471477e+01  -1.508348e+02
   4.193614e+01  -1.249496e+02
   8.679908e+01  -7.254613e+01
   6.539117e+01  -5.734258e+01
   5.144162e+01  -7.965582e+01
   7.725684e+01  -7.070956e+01
   1.175708e+02   1.659444e+01
   1.060948e+02   1.391945e+02
   1.985603e+01   2.019507e+02
  -9.318576e+01   1.488081e+02
  -1.485606e+02   8.578932e+00
  -1.056902e+02  -1.147430e+02
  -4.909667e+00  -1.370976e+02
   6.603968e+01  -6.782363e+01
   5.419483e+01   1.696269e+01
  -7.364515e+00   4.806434e+01
  -2.896928e+01   3.069075e+01
   2.288868e+01   8.352792e+00
   7.453401e+01   1.838198e+01
   4.141136e+01   4.080113e+01
  -6.735227e+01   3.178293e+01
  -1.552033e+02  -1.706036e+01
  -1.260431e+02  -6.958791e+01
   4.434064e+00  -8.636335e+01
   1.209024e+02  -5.673929e+01
   1.296361e+02  -2.368694e+00
   4.056124e+01   4.280367e+01
  -5.229606e+01   3.665190e+01
  -7.398259e+01  -2.345213e+01
  -1.824275e+01  -6.658030e+01
   4.228116e+01  -5.877683e+01
   6.251695e+01  -2.518381e+00
   5.204136e+01   4.638420e+01
   3.875849e+01   4.148656e+01
   4.397452e+01   3.103619e+00
   5.193892e+01   1.004064e+00
   4.090215e+01   6.048015e+01
  -1.762601e+01   1.322343e+02
  -1.034095e+02   1.279830e+02
  -1.566485e+02   3.696947e+01
  -1.179322e+02  -7.960168e+01
  -5.404813e+00  -1.164088e+02
   7.989022e+01  -6.212005e+01
   5.375678e+01   5.429433e+00
  -4.927400e+01   1.291601e+01
  -1.106002e+02  -4.249840e+01
  -5.490436e+01  -9.447455e+01
   7.355677e+01  -8.867706e+01
   1.583203e+02  -3.295458e+01
   1.294149e+02   3.522146e+01
   2.436504e+01   7.102856e+01
  -5.655996e+01   4.916679e+01
  -4.209751e+01  -5.878441e+00
   3.454500e+01  -2.910588e+01
   8.147710e+01   1.681660e+01
   3.960197e+01   1.008139e+02
  -6.116612e+01   1.371480e+02
  -1.339552e+02   6.221540e+01
  -1.111811e+02  -7.713330e+01
  -1.206388e+01  -1.646661e+02
   7.666396e+01  -1.158925e+02
   9.124170e+01   1.425370e+01
   4.244943e+01   1.063779e+02
  -2.289735e+01   9.077344e+01
  -4.899597e+01   1.193079e+01
  -4.016967e+01  -3.279606e+01
  -1.294501e+01  -1.315302e+01
  -1.958748e+00   1.167243e+01
  -2.299291e+01  -1.792646e+01
  -4.894162e+01  -7.755216e+01
  -2.937278e+01  -9.091039e+01
   4.677833e+01  -3.736176e+01
   1.164922e+02   3.279895e+01
   1.069909e+02   6.377349e+01
   1.620381e+01   4.763501e+01
  -6.674659e+01   2.210714e+01
  -7.524697e+01   5.705189e+00
  -1.892114e+01  -1.061904e+01
   2.924642e+01  -1.897664e+01
   1.837217e+01  -1.181522e+01
  -1.082512e+01   2.585118e+00
  -1.278019e-01   4.548748e+00
   5.448471e+01   1.674113e+00
   8.196683e+01   2.192730e+01
   2.576272e+01   7.304917e+01
  -8.659887e+01   1.003267e+02
  -1.559149e+02   5.420148e+01
  -1.278987e+02  -5.238594e+01
  -2.591600e+01  -1.298467e+02
   6.622351e+01  -1.237445e+02
   9.785915e+01  -5.206567e+01
   6.952802e+01   1.769595e+01
   2.604643e+01   3.229370e+01
   3.622448e+00   1.123145e+01
   1.083724e+01   6.714825e+00
   2.360126e+01   4.524172e+01
   1.333034e+01   7.915484e+01
  -2.561279e+01   6.435321e+01
  -6.763677e+01  -1.199164e+01
  -6.653518e+01  -8.836672e+01
  -1.197883e+01  -9.633757e+01
   6.367409e+01  -3.115585e+01
   9.107828e+01   5.315962e+01
   3.777495e+01   9.043520e+01
  -5.540287e+01   5.893133e+01
  -9.254748e+01  -5.698714e+00
  -4.212398e+01  -5.249543e+01
   2.983872e+01  -5.688570e+01
   3.854442e+01  -2.751251e+01
  -1.926965e+01   4.671888e+00
  -6.093511e+01   7.843272e+00
  -2.107919e+01  -2.128664e+01
   6.876821e+01  -5.331437e+01
   1.072016e+02  -4.462907e+01
   6.314121e+01   1.087104e+01
  -1.375494e+01   7.089799e+01
  -5.446555e+01   7.116069e+01
  -4.365098e+01   1.364501e+01
  -9.364863e+00  -4.554922e+01
   2.094566e+01  -4.470585e+01
   3.423772e+01   6.170153e+00
   2.797050e+01   4.722448e+01
  -1.408743e+00   3.912987e+01
  -3.126571e+01  -2.998684e+00
  -3.870437e+01  -2.459013e+01
  -1.908558e+01  -7.860644e+00
   4.304045e+00   1.719651e+01
   5.215596e+00   9.486952e+00
  -5.552520e+00  -2.614195e+01
  -1.959246e+00  -4.807910e+01
   2.212004e+01  -2.263067e+01
   3.741867e+01   2.827533e+01
   1.464569e+01   5.331907e+01
  -3.334055e+01   2.609909e+01
  -5.720785e+01  -2.534951e+01
  -2.202042e+01  -5.328447e+01
   4.723323e+01  -3.361846e+01
   8.105625e+01   6.770687e+00
   4.610322e+01   3.691234e+01
  -2.243089e+01   4.102197e+01
  -5.580205e+01   2.689928e+01
  -2.577181e+01   6.532257e+00
   2.378057e+01  -3.002010e+00
   2.937304e+01   5.413912e+00
  -1.777644e+01   2.139270e+01
  -6.667256e+01   1.849085e+01
