
 $NMID
 id='ANONYMOUS ', fmtdat='(2E16.6)'
 volume=1.0
 tramp=1.0
 $END
  -4.139517e+03   2.230644e+02
  -2.794806e+03  -2.359058e+03
   3.755835e+02  -2.707204e+03
   1.944596e+03  -1.207104e+03
   1.109039e+03   4.254675e+02
  -4.337883e+02   5.076102e+02
  -7.401143e+02  -3.023417e+02
  -4.572258e+01  -8.872705e+02
   6.979416e+02  -7.281616e+02
   8.633127e+02   3.025412e+01
   4.496180e+02   7.163595e+02
  -1.704875e+02   8.303153e+02
  -5.627493e+02   1.765485e+02
  -3.762632e+02  -6.206531e+02
   2.591997e+02  -7.174033e+02
   5.616492e+02  -5.452883e+01
   3.090156e+02   6.092903e+02
  -2.614327e+02   6.478542e+02
  -5.520563e+02   1.546530e+02
  -4.011173e+02  -3.165890e+02
  -6.859921e+01  -4.229041e+02
   2.100592e+02  -2.646227e+02
   1.793625e+02  -2.735469e+01
  -9.788571e+01   4.186818e+01
  -3.550384e+02  -1.414758e+02
  -1.689295e+02  -3.759335e+02
   4.077566e+02  -3.339500e+02
   7.497120e+02   7.466817e+01
   3.815317e+02   4.441914e+02
  -3.276046e+02   3.964410e+02
  -6.503644e+02  -4.646370e+01
  -3.189730e+02  -4.307595e+02
   2.509538e+02  -4.707661e+02
   5.288819e+02  -2.066509e+02
   4.081207e+02   1.935640e+02
   8.700094e+01   4.350741e+02
  -1.594495e+02   2.917424e+02
  -1.338494e+02  -1.841513e+02
   1.408253e+02  -3.913591e+02
   3.835748e+02   1.457094e+01
   2.300713e+02   6.160922e+02
  -2.585016e+02   6.497234e+02
  -5.233975e+02   4.934877e+01
  -2.341387e+02  -4.663045e+02
   2.378387e+02  -2.895698e+02
   3.172869e+02   2.758703e+02
  -5.895617e+01   5.015569e+02
  -5.036005e+02   1.439068e+02
  -5.568095e+02  -3.728678e+02
  -1.935762e+02  -5.562611e+02
   3.435970e+02  -3.428772e+02
   5.997162e+02   5.699654e+01
   3.745980e+02   3.511321e+02
  -1.188371e+02   3.573454e+02
  -4.076903e+02   6.359075e+01
  -2.452155e+02  -1.535821e+02
   7.446058e+01  -9.497418e+01
   1.299920e+02   1.168118e+02
  -1.321418e+02   1.470746e+02
  -3.171700e+02  -5.762582e+01
  -1.452041e+02  -2.697940e+02
   1.917767e+02  -2.656411e+02
   3.337728e+02  -8.694354e+01
   2.057857e+02   1.051764e+02
  -2.648273e+01   2.459725e+02
  -2.360191e+02   2.975110e+02
  -3.278487e+02   1.860983e+02
  -2.649933e+02  -1.192184e+02
  -7.637001e+01  -3.858743e+02
   9.224315e+01  -3.656236e+02
   1.080293e+02  -1.341582e+02
   3.905014e+01  -6.235266e+00
   6.041866e+01  -7.070954e+01
   1.826125e+02  -9.536006e+01
   2.396581e+02   5.620271e+01
   1.347288e+02   2.424167e+02
  -6.400328e+01   2.264523e+02
  -2.084115e+02   1.377525e+01
  -1.761533e+02  -2.172263e+02
   2.782462e+00  -2.720671e+02
   2.368631e+02  -1.110504e+02
   3.418882e+02   1.473515e+02
   1.943558e+02   3.197642e+02
  -7.326675e+01   2.965745e+02
  -2.151411e+02   1.342222e+02
  -1.561431e+02   2.225995e+01
  -1.026046e+02   2.460563e+01
  -2.030456e+02   3.647461e+01
  -3.597659e+02  -6.138747e+01
  -3.104469e+02  -2.607631e+02
  -8.422286e+00  -4.150030e+02
   3.386460e+02  -3.937178e+02
   4.687748e+02  -1.936736e+02
   3.193750e+02   8.808549e+01
   5.126713e+01   2.762856e+02
  -1.104128e+02   2.392891e+02
  -5.960552e+01   4.173982e+01
   9.868368e+01  -8.919464e+01
   1.675484e+02   8.556688e-01
   4.942853e+01   1.692557e+02
  -1.593614e+02   1.482253e+02
  -1.617611e+02  -4.795706e+01
   1.284060e+01  -1.684621e+02
   1.812782e+02  -4.400308e+01
   1.674126e+02   2.238674e+02
  -1.191617e+01   3.440249e+02
  -2.201603e+02   2.080930e+02
  -3.235551e+02  -5.205217e+01
  -2.763723e+02  -2.326508e+02
  -9.036716e+01  -2.532283e+02
   1.059558e+02  -1.497737e+02
   1.664976e+02  -1.837760e+01
   5.519416e+01   2.627726e+01
  -6.285636e+01  -4.025775e+01
  -2.695860e+01  -1.187619e+02
   1.158093e+02  -9.882874e+01
   1.676072e+02   8.543416e+00
   5.697413e+01   6.408250e+01
  -7.763334e+01   1.389590e+01
  -5.247685e+01  -7.002037e+01
   1.199902e+02  -8.620881e+01
   2.727815e+02  -3.416204e+00
   2.517811e+02   1.319869e+02
   5.770420e+01   2.465091e+02
  -1.750625e+02   2.521540e+02
  -2.740349e+02   1.159753e+02
  -1.596299e+02  -5.229944e+01
   2.415168e+01  -1.041238e+02
   8.678345e+01  -8.057362e+00
  -2.981880e+01   1.013420e+02
  -1.904425e+02   5.997643e+01
  -2.125899e+02  -9.374751e+01
  -7.515061e+01  -2.004951e+02
   8.520931e+01  -1.553264e+02
   1.373605e+02  -3.530610e+01
   6.601636e+01   3.518787e+01
  -2.662574e+01  -4.547401e+00
  -3.370078e+01  -8.812011e+01
   7.543964e+01  -1.125719e+02
   1.959917e+02  -2.655012e+01
   1.857715e+02   1.197493e+02
   2.191313e+01   2.089773e+02
  -1.556391e+02   1.590781e+02
  -1.883596e+02   1.057051e+01
  -6.488487e+01  -1.080738e+02
   6.375965e+01  -1.069122e+02
   8.069801e+01  -2.957001e+01
   1.708121e+01   2.947453e+01
  -2.380703e+01   1.707597e+01
   8.310258e+00  -9.800258e+00
   6.960699e+01   5.737679e+00
   8.818217e+01   7.808143e+01
   1.661618e+01   1.500320e+02
  -1.211246e+02   1.471845e+02
  -2.234375e+02   2.854383e+01
  -1.981829e+02  -1.388129e+02
  -5.245352e+01  -2.278150e+02
   9.806424e+01  -1.679700e+02
   1.328438e+02  -3.526556e+01
   7.408201e+01   4.813948e+01
   2.907602e+01   3.518317e+01
   5.239297e+01  -7.305010e+00
   7.768954e+01  -6.241970e+00
   4.477480e+01   5.080963e+01
  -3.984148e+01   8.410491e+01
  -1.054027e+02   5.337272e+01
  -9.020752e+01  -3.908982e+01
   1.498707e+01  -1.095887e+02
   1.428663e+02  -7.991662e+01
   1.906252e+02   5.506108e+01
   8.769598e+01   1.981631e+02
  -1.077737e+02   2.209838e+02
  -2.717533e+02   7.328427e+01
  -2.433426e+02  -8.851024e+01
  -1.029760e+02  -1.746531e+02
   3.888509e+01  -1.433496e+02
   8.819113e+01  -7.963885e+01
   7.144639e+01  -6.258864e+01
   6.210413e+01  -8.825080e+01
   9.243424e+01  -7.586582e+01
   1.300314e+02   1.784360e+01
   1.153291e+02   1.492569e+02
   2.929613e+01   2.175567e+02
  -9.736895e+01   1.650575e+02
  -1.692285e+02   2.173241e+01
  -1.291503e+02  -1.177591e+02
  -1.342996e+01  -1.529463e+02
   6.987001e+01  -8.456996e+01
   6.188458e+01   4.009207e+00
   2.669836e+00   4.234140e+01
  -1.751367e+01   3.007898e+01
   2.918610e+01   1.447348e+01
   7.457154e+01   2.237919e+01
   4.351424e+01   4.278448e+01
  -6.223884e+01   4.032150e+01
  -1.513716e+02   1.628105e-01
  -1.328759e+02  -5.446674e+01
  -1.092194e+01  -8.670386e+01
   1.122634e+02  -7.191297e+01
   1.333754e+02  -1.541882e+01
   4.667853e+01   4.257682e+01
  -5.582532e+01   4.022617e+01
  -7.720903e+01  -2.052996e+01
  -1.172982e+01  -6.981021e+01
   5.084128e+01  -5.980661e+01
   6.428525e+01  -7.370698e-01
   4.749938e+01   4.849915e+01
   4.180792e+01   4.053422e+01
   5.459308e+01   2.356154e+00
   6.326042e+01   4.353648e-02
   3.975590e+01   6.625776e+01
  -2.139138e+01   1.467286e+02
  -1.113285e+02   1.423390e+02
  -1.662216e+02   3.815419e+01
  -1.274907e+02  -8.886627e+01
  -1.146859e+01  -1.263249e+02
   8.316019e+01  -6.435633e+01
   6.208588e+01   1.380156e+01
  -4.822888e+01   2.395094e+01
  -1.236114e+02  -3.960621e+01
  -7.390343e+01  -9.950873e+01
   7.054687e+01  -1.078361e+02
   1.758105e+02  -4.949183e+01
   1.552068e+02   3.351838e+01
   3.660485e+01   8.177240e+01
  -5.940840e+01   6.432001e+01
  -5.009431e+01   2.877325e+00
   3.530925e+01  -3.163970e+01
   9.025677e+01   1.495812e+01
   4.064190e+01   1.117373e+02
  -7.679970e+01   1.545323e+02
  -1.565505e+02   6.889592e+01
  -1.258770e+02  -9.008919e+01
  -1.447076e+01  -1.830577e+02
   8.371303e+01  -1.323429e+02
   1.037544e+02   1.011745e+01
   5.644453e+01   1.115401e+02
  -9.980258e+00   9.749040e+01
  -4.714254e+01   1.693802e+01
  -4.743305e+01  -2.848865e+01
  -1.960618e+01  -8.155377e+00
  -2.143055e+00   2.024166e+01
  -2.231887e+01  -1.201776e+01
  -5.795810e+01  -8.114846e+01
  -4.281537e+01  -1.078334e+02
   4.617362e+01  -4.945078e+01
   1.341087e+02   3.218611e+01
   1.290127e+02   7.127426e+01
   2.076760e+01   5.365109e+01
  -7.873564e+01   2.608458e+01
  -8.553288e+01   6.045268e+00
  -1.368024e+01  -9.882347e+00
   3.604263e+01  -2.017863e+01
   1.654448e+01  -1.366153e+01
  -1.957701e+01   3.653044e+00
   2.419722e+00   5.703375e+00
   6.623052e+01   2.490295e+00
   8.821800e+01   2.230948e+01
   1.434135e+01   7.686805e+01
  -1.072685e+02   1.067501e+02
  -1.770785e+02   5.714120e+01
  -1.369566e+02  -6.391695e+01
  -2.582231e+01  -1.532604e+02
   7.572416e+01  -1.424610e+02
   1.072603e+02  -5.637879e+01
   7.798488e+01   2.149889e+01
   2.764078e+01   3.541623e+01
  -1.390373e+00   8.353038e+00
   9.741736e+00   2.957999e+00
   3.353475e+01   3.984863e+01
   1.839474e+01   8.697919e+01
  -2.786356e+01   7.186813e+01
  -7.810114e+01  -1.490895e+01
  -7.200284e+01  -1.014880e+02
  -3.049851e+00  -1.059967e+02
   7.749886e+01  -2.442671e+01
   9.806628e+01   6.793848e+01
   3.403301e+01   9.833606e+01
  -6.318258e+01   5.714078e+01
  -9.669871e+01  -8.153655e+00
  -3.900362e+01  -5.155557e+01
   3.194736e+01  -5.425577e+01
   3.424688e+01  -2.611971e+01
  -2.959070e+01   3.769384e+00
  -6.800244e+01   6.905340e+00
  -1.945542e+01  -2.416626e+01
   7.197270e+01  -5.968874e+01
   1.098942e+02  -5.012254e+01
   6.442067e+01   1.049795e+01
  -1.458991e+01   7.664148e+01
  -5.593894e+01   7.369181e+01
  -3.880975e+01   5.796083e+00
  -2.017507e+00  -5.372481e+01
   2.806816e+01  -4.290987e+01
   3.634267e+01   1.659645e+01
   2.443206e+01   5.408712e+01
  -5.236846e+00   3.430499e+01
  -3.286259e+01  -9.424365e+00
  -3.761928e+01  -2.455213e+01
  -1.691484e+01  -3.343231e+00
   3.038084e+00   1.751957e+01
   6.734755e+00   3.269097e+00
   7.550076e-01  -3.169540e+01
   9.827158e+00  -4.591031e+01
   2.890790e+01  -1.223832e+01
   3.202711e+01   4.057497e+01
   2.359406e+00   5.923521e+01
  -4.204745e+01   2.171867e+01
  -5.558760e+01  -3.799146e+01
  -1.637284e+01  -6.171179e+01
   5.397072e+01  -3.508528e+01
   8.650509e+01   1.316287e+01
   4.806583e+01   4.381752e+01
  -2.535158e+01   4.331645e+01
  -6.195277e+01   2.373218e+01
  -2.742256e+01   3.657566e+00
   2.982278e+01  -1.320164e+00
   3.383336e+01   1.229819e+01
  -2.547226e+01   2.852282e+01
  -8.343834e+01   1.725007e+01
