
 $NMID
 id='ANONYMOUS ', fmtdat='(2E16.6)'
 volume=1.0
 tramp=1.0
 $END
   4.197363e+03   1.744019e+02
   2.297425e+03   2.834988e+03
  -9.869448e+02   2.699283e+03
  -2.257449e+03   7.934687e+02
  -9.662262e+02  -6.955243e+02
   7.127899e+02  -6.039887e+02
   9.132624e+02   4.262736e+02
  -1.754496e+01   1.051204e+03
  -8.223265e+02   7.660115e+02
  -9.348052e+02  -1.044071e+02
  -4.719505e+02  -8.225230e+02
   2.471775e+02  -8.632522e+02
   6.291265e+02  -9.325405e+01
   3.696487e+02   7.135164e+02
  -2.865050e+02   7.907392e+02
  -5.982858e+02  -2.901174e+01
  -2.787115e+02  -6.724595e+02
   3.100963e+02  -6.123174e+02
   5.651058e+02  -9.651680e+01
   3.887400e+02   3.381059e+02
   1.758690e+01   4.229902e+02
  -2.568420e+02   2.539737e+02
  -2.226301e+02  -4.350443e+00
   1.178471e+02  -1.144524e+02
   4.078623e+02   9.912779e+01
   2.062723e+02   4.256628e+02
  -4.416153e+02   4.103228e+02
  -8.438257e+02  -9.753923e+01
  -4.204814e+02  -5.336010e+02
   3.826729e+02  -4.813033e+02
   7.415143e+02   1.500978e+01
   3.544829e+02   4.737331e+02
  -2.621223e+02   5.348611e+02
  -5.649678e+02   2.253798e+02
  -4.235099e+02  -2.206106e+02
  -7.080828e+01  -4.647283e+02
   2.048059e+02  -2.622592e+02
   1.560851e+02   2.312261e+02
  -1.784830e+02   4.265121e+02
  -4.456050e+02  -2.310707e+01
  -2.416121e+02  -6.776509e+02
   3.096678e+02  -6.799991e+02
   5.816920e+02  -4.768410e+00
   2.585023e+02   5.485589e+02
  -2.973125e+02   3.202769e+02
  -3.864543e+02  -3.174221e+02
   6.963771e+01  -5.559659e+02
   5.631263e+02  -1.510402e+02
   5.863512e+02   3.925370e+02
   1.620651e+02   5.828918e+02
  -3.789232e+02   3.422652e+02
  -6.093069e+02  -7.969187e+01
  -3.622071e+02  -3.651225e+02
   1.610692e+02  -3.528373e+02
   4.228836e+02  -4.223171e+01
   2.281574e+02   1.961124e+02
  -1.212926e+02   1.062023e+02
  -1.365649e+02  -1.596112e+02
   1.725440e+02  -2.052394e+02
   3.524189e+02   7.564301e+01
   1.419552e+02   3.123101e+02
  -2.030585e+02   2.657277e+02
  -3.331285e+02   7.302438e+01
  -1.989676e+02  -8.632317e+01
   1.499395e+01  -2.332489e+02
   2.054521e+02  -3.252132e+02
   3.262408e+02  -2.179295e+02
   2.912687e+02   1.382946e+02
   7.811062e+01   4.315185e+02
  -1.313297e+02   3.645790e+02
  -1.213492e+02   9.032164e+01
  -1.497707e+01  -2.559588e+01
  -2.492649e+01   8.331564e+01
  -1.838925e+02   1.384935e+02
  -2.786575e+02  -3.648836e+01
  -1.682609e+02  -2.610239e+02
   6.050082e+01  -2.604925e+02
   2.270255e+02  -1.716831e+01
   2.063730e+02   2.334864e+02
  -3.943445e+00   2.917159e+02
  -2.596399e+02   1.250432e+02
  -3.560310e+02  -1.578960e+02
  -1.885399e+02  -3.455534e+02
   9.161482e+01  -3.100513e+02
   2.230549e+02  -1.258392e+02
   1.457452e+02  -5.591494e+00
   8.641360e+01  -3.627187e+01
   2.164791e+02  -8.375537e+01
   4.011364e+02   2.091211e+01
   3.553812e+02   2.545247e+02
   2.817755e+01   4.449748e+02
  -3.436228e+02   4.418955e+02
  -4.827700e+02   2.230743e+02
  -3.346858e+02  -8.115189e+01
  -6.606674e+01  -2.920526e+02
   1.232870e+02  -2.529291e+02
   8.267049e+01  -2.708282e+01
  -1.060639e+02   1.095236e+02
  -1.920147e+02  -5.375587e+00
  -5.547887e+01  -1.966351e+02
   1.582809e+02  -1.908184e+02
   1.749538e+02   6.360081e+01
  -9.238008e+00   1.874793e+02
  -1.908600e+02   3.091060e+01
  -1.640309e+02  -2.461151e+02
   2.441413e+01  -3.422975e+02
   2.209715e+02  -1.892069e+02
   3.145910e+02   5.440954e+01
   2.670321e+02   2.285122e+02
   9.868472e+01   2.535847e+02
  -1.048271e+02   1.604428e+02
  -1.708114e+02   2.954973e+01
  -6.104646e+01  -2.389074e+01
   6.809971e+01   3.509318e+01
   2.991340e+01   1.207466e+02
  -1.210807e+02   9.838752e+01
  -1.740982e+02  -7.971858e+00
  -5.900071e+01  -7.260100e+01
   7.881164e+01  -1.655726e+01
   5.521064e+01   7.403264e+01
  -1.174395e+02   9.123570e+01
  -2.744021e+02   9.312872e+00
  -2.618735e+02  -1.294311e+02
  -6.979550e+01  -2.506359e+02
   1.703430e+02  -2.655378e+02
   2.713301e+02  -1.321135e+02
   1.693567e+02   4.531488e+01
  -1.925962e+01   1.095425e+02
  -8.571688e+01   1.009223e+01
   3.422985e+01  -1.001961e+02
   1.907320e+02  -6.111461e+01
   2.064310e+02   1.004680e+02
   6.796328e+01   2.041704e+02
  -9.070717e+01   1.556638e+02
  -1.416796e+02   2.895204e+01
  -7.272858e+01  -4.107807e+01
   2.408582e+01  -5.646711e+00
   3.861814e+01   7.922727e+01
  -6.373187e+01   1.100689e+02
  -1.873453e+02   3.734640e+01
  -1.881770e+02  -1.109182e+02
  -3.096494e+01  -2.076867e+02
   1.484386e+02  -1.606573e+02
   1.844595e+02  -7.818638e+00
   6.389672e+01   1.083393e+02
  -6.259433e+01   1.056459e+02
  -7.926557e+01   2.694102e+01
  -2.098478e+01  -2.917224e+01
   1.753678e+01  -2.042776e+01
  -9.338085e+00   9.498998e+00
  -6.692714e+01  -3.721079e+00
  -8.670573e+01  -7.388975e+01
  -2.255773e+01  -1.531426e+02
   1.156665e+02  -1.521555e+02
   2.238112e+02  -3.547437e+01
   2.014700e+02   1.347231e+02
   4.409523e+01   2.267265e+02
  -9.881015e+01   1.669300e+02
  -1.300210e+02   3.003889e+01
  -6.900347e+01  -5.100820e+01
  -2.513644e+01  -3.240600e+01
  -5.142758e+01   1.642665e+01
  -7.744640e+01   7.080254e+00
  -4.273696e+01  -4.364169e+01
   2.928839e+01  -7.964246e+01
   8.994886e+01  -5.415637e+01
   7.891272e+01   3.084946e+01
  -1.285096e+01   1.068836e+02
  -1.343728e+02   8.510305e+01
  -1.917672e+02  -4.615480e+01
  -1.004786e+02  -1.904529e+02
   9.876542e+01  -2.215269e+02
   2.691590e+02  -1.115392e+02
   2.522264e+02   7.519381e+01
   1.158910e+02   1.687635e+02
  -2.495662e+01   1.440388e+02
  -8.369378e+01   8.771200e+01
  -7.372278e+01   7.612054e+01
  -6.823447e+01   9.313349e+01
  -9.404511e+01   7.276804e+01
  -1.282346e+02  -2.302186e+01
  -1.127798e+02  -1.514764e+02
  -2.809238e+01  -2.233226e+02
   9.493722e+01  -1.628223e+02
   1.705077e+02  -1.466340e+01
   1.324386e+02   1.196531e+02
   1.975102e+01   1.521958e+02
  -6.238491e+01   8.625670e+01
  -5.587821e+01   1.370859e+00
  -7.217946e+00  -3.716048e+01
   5.764226e+00  -2.931074e+01
  -3.641131e+01  -1.798030e+01
  -7.438905e+01  -2.499387e+01
  -3.965625e+01  -4.116411e+01
   6.357224e+01  -4.049501e+01
   1.560904e+02  -9.869179e+00
   1.399973e+02   4.478022e+01
   1.726834e+01   8.718744e+01
  -1.119066e+02   7.614813e+01
  -1.354434e+02   2.080482e+01
  -4.301388e+01  -3.598984e+01
   5.805899e+01  -4.060727e+01
   7.835961e+01   2.105709e+01
   8.214848e+00   6.603527e+01
  -5.142007e+01   5.721269e+01
  -6.008190e+01  -1.920993e+00
  -4.240401e+01  -5.006794e+01
  -3.906098e+01  -3.833249e+01
  -5.598997e+01   7.417154e-01
  -6.326732e+01   4.962673e+00
  -3.498493e+01  -6.212044e+01
   2.990241e+01  -1.429882e+02
   1.060296e+02  -1.391971e+02
   1.551227e+02  -3.453121e+01
   1.175877e+02   8.529540e+01
   7.233492e+00   1.198467e+02
  -7.883886e+01   5.706281e+01
  -5.617527e+01  -1.706888e+01
   5.866159e+01  -2.123649e+01
   1.320286e+02   3.853111e+01
   7.586188e+01   1.038233e+02
  -7.644329e+01   1.143073e+02
  -1.882180e+02   5.801710e+01
  -1.618212e+02  -2.500152e+01
  -3.947358e+01  -8.007634e+01
   5.538369e+01  -7.013126e+01
   4.389202e+01  -9.682802e+00
  -3.951336e+01   2.432307e+01
  -8.938865e+01  -2.023721e+01
  -3.329638e+01  -1.122007e+02
   8.569973e+01  -1.481012e+02
   1.566473e+02  -5.847223e+01
   1.209708e+02   9.543675e+01
   1.085632e+01   1.860064e+02
  -7.694714e+01   1.372585e+02
  -9.734459e+01  -6.629538e+00
  -6.021647e+01  -1.132549e+02
  -3.214318e+00  -1.005498e+02
   4.083952e+01  -1.927439e+01
   5.104448e+01   2.755014e+01
   2.622622e+01   2.406427e+00
   6.516559e+00  -2.362160e+01
   2.312957e+01   1.389036e+01
   5.787306e+01   8.650094e+01
   4.022740e+01   1.053636e+02
  -4.348858e+01   4.366704e+01
  -1.362510e+02  -3.805686e+01
  -1.273052e+02  -6.666151e+01
  -1.912849e+01  -4.684795e+01
   8.554598e+01  -2.484816e+01
   8.484818e+01  -7.080840e+00
   9.581709e+00   6.554294e+00
  -3.669442e+01   2.215041e+01
  -1.280587e+01   1.692925e+01
   2.246121e+01  -1.482024e+00
  -4.009610e+00  -5.675729e+00
  -7.233705e+01  -2.771591e-01
  -8.786173e+01  -2.158452e+01
  -6.228635e+00  -7.626472e+01
   1.112043e+02  -1.093990e+02
   1.740580e+02  -5.637251e+01
   1.326750e+02   6.092081e+01
   2.288064e+01   1.535985e+02
  -7.299725e+01   1.412480e+02
  -1.059350e+02   5.454533e+01
  -7.400820e+01  -2.235397e+01
  -2.203924e+01  -3.479276e+01
   2.058171e+00  -6.440939e+00
  -1.119678e+01  -1.989914e+00
  -3.403933e+01  -4.545182e+01
  -2.240162e+01  -8.666837e+01
   2.899093e+01  -6.906314e+01
   8.145942e+01   2.033290e+01
   7.599903e+01   1.044624e+02
   4.325751e+00   1.071412e+02
  -8.046661e+01   2.278261e+01
  -9.786307e+01  -7.147570e+01
  -3.175500e+01  -9.879779e+01
   6.336195e+01  -5.299574e+01
   9.430446e+01   1.065720e+01
   3.836263e+01   4.569327e+01
  -2.969393e+01   4.583690e+01
  -2.733238e+01   2.319733e+01
   3.563356e+01   2.449844e-01
   6.580405e+01  -4.077838e+00
   1.391702e+01   2.773806e+01
  -7.347017e+01   6.605773e+01
  -1.050585e+02   5.516623e+01
  -5.988644e+01  -1.204712e+01
   1.286491e+01  -7.859715e+01
   4.336545e+01  -7.360036e+01
   3.130508e+01  -6.999831e+00
   4.543825e-01   5.150994e+01
  -2.282002e+01   3.752297e+01
  -3.195657e+01  -1.746311e+01
  -2.443593e+01  -4.858196e+01
   3.243710e+00  -2.675112e+01
   3.070048e+01   8.948064e+00
   3.818647e+01   1.730013e+01
   1.905980e+01  -1.814380e+00
  -1.104936e+00  -1.401235e+01
  -7.328342e+00   3.728944e+00
  -4.654199e+00   3.562150e+01
  -1.493473e+01   4.204294e+01
  -3.091536e+01   4.784719e+00
  -2.965575e+01  -4.609166e+01
   4.229229e+00  -5.807054e+01
   4.494050e+01  -1.704411e+01
   5.109721e+01   4.057483e+01
   1.135029e+01   6.031598e+01
  -5.367344e+01   3.070935e+01
  -8.323277e+01  -1.510072e+01
  -4.283541e+01  -4.100913e+01
   2.854776e+01  -3.784851e+01
   5.779267e+01  -1.943834e+01
   1.959544e+01  -1.827037e+00
  -3.788349e+01   9.715867e-01
  -3.587916e+01  -1.564533e+01
   2.974294e+01  -3.309041e+01
   8.743225e+01  -2.344849e+01
