
 $NMID
 id='ANONYMOUS ', fmtdat='(2E16.6)'
 volume=1.0
 tramp=1.0
 $END
   2.840310e+03   1.767655e+00
   1.825073e+03   1.514309e+03
  -2.821668e+02   1.683709e+03
  -1.209435e+03   8.905744e+02
  -7.467064e+02   3.935687e+01
   8.288906e+01  -2.006476e+02
   4.047806e+02   1.370644e+02
   2.196771e+01   5.883372e+02
  -4.853392e+02   5.652155e+02
  -6.136047e+02   7.636170e+01
  -3.975488e+02  -4.544611e+02
   1.398359e+01  -6.197877e+02
   3.059730e+02  -1.574695e+02
   2.276367e+02   3.980624e+02
  -1.393971e+02   5.645022e+02
  -3.867811e+02   3.653116e+01
  -2.479038e+02  -4.721679e+02
   1.606377e+02  -5.632047e+02
   4.531201e+02  -2.104265e+02
   4.096995e+02   1.904262e+02
   1.003417e+02   3.512657e+02
  -1.377807e+02   2.188768e+02
  -9.658563e+01   6.963278e+01
   1.507981e+02   6.413323e+01
   2.493894e+02   2.305803e+02
   4.184963e+00   3.227352e+02
  -4.152214e+02   1.650903e+02
  -5.727026e+02  -1.641729e+02
  -2.110888e+02  -3.463180e+02
   3.037558e+02  -2.100624e+02
   4.826524e+02   1.195742e+02
   1.701190e+02   3.467277e+02
  -2.573031e+02   3.337193e+02
  -4.292944e+02   1.157936e+02
  -2.963254e+02  -1.530453e+02
  -8.493483e+01  -2.884915e+02
   2.033528e+01  -2.028192e+02
  -2.812779e+01   6.449833e+01
  -1.528453e+02   1.320315e+02
  -1.799679e+02  -1.299570e+02
   1.977330e+01  -4.704604e+02
   2.670563e+02  -4.182492e+02
   3.280919e+02   1.413234e+01
   1.237570e+02   3.211628e+02
  -1.331949e+02   1.467291e+02
  -1.600214e+02  -2.386776e+02
   1.044110e+02  -3.491212e+02
   4.117150e+02  -3.594340e+01
   4.204584e+02   3.392085e+02
   1.186544e+02   4.482337e+02
  -2.813418e+02   2.365631e+02
  -4.534700e+02  -6.109837e+01
  -3.076532e+02  -2.372566e+02
   4.050954e+01  -2.182158e+02
   2.699422e+02  -7.917467e+01
   1.919964e+02   4.074452e+01
  -1.686540e+00   2.907326e+01
  -5.127611e+01  -5.223645e+01
   1.004299e+02  -6.362045e+01
   2.099407e+02   4.742823e+01
   1.092949e+02   1.855414e+02
  -1.468891e+02   2.128280e+02
  -3.010853e+02   1.045821e+02
  -2.278988e+02  -8.133644e+01
   3.010515e+01  -2.723105e+02
   2.655371e+02  -3.088004e+02
   3.341791e+02  -1.277798e+02
   2.199070e+02   1.615402e+02
   4.097917e+01   3.325491e+02
  -5.613762e+01   2.937506e+02
  -4.298265e+01   1.548843e+02
  -3.972244e+01   9.232636e+01
  -1.227922e+02   1.031051e+02
  -2.268795e+02   5.192692e+01
  -2.106272e+02  -1.128315e+02
  -7.617254e+01  -2.349642e+02
   8.813694e+01  -1.697375e+02
   1.658054e+02   4.638510e+01
   1.124101e+02   2.290450e+02
  -5.684409e+01   2.220847e+02
  -2.302440e+02   4.221798e+01
  -2.690364e+02  -1.709588e+02
  -1.314804e+02  -2.703165e+02
   6.531617e+01  -2.343732e+02
   1.555852e+02  -1.291422e+02
   1.285978e+02  -6.126949e+01
   1.356770e+02  -6.308364e+01
   2.584645e+02  -2.799249e+01
   3.760374e+02   1.021763e+02
   2.840596e+02   2.881934e+02
  -3.652289e+01   4.040953e+02
  -3.696757e+02   3.476259e+02
  -4.558631e+02   1.372835e+02
  -2.713514e+02  -1.090215e+02
  -1.353123e+01  -2.307068e+02
   1.005366e+02  -1.715234e+02
   2.382185e+01  -3.605660e+01
  -1.104057e+02   3.063872e+01
  -1.245644e+02  -4.279872e+01
  -7.503810e-01  -1.308603e+02
   1.314007e+02  -1.089703e+02
   1.048805e+02   5.508080e+01
  -2.865727e+01   1.077713e+02
  -1.475909e+02  -1.062018e+01
  -1.187224e+02  -2.235008e+02
   4.337815e+01  -3.042401e+02
   2.264388e+02  -1.659100e+02
   3.142524e+02   7.597443e+01
   2.285589e+02   2.488856e+02
   5.056864e+01   2.484581e+02
  -1.186315e+02   1.210093e+02
  -1.397915e+02   3.689723e+00
  -3.716691e+01  -1.145145e+01
   4.454887e+01   5.887659e+01
  -5.783155e+00   1.040591e+02
  -1.154070e+02   5.329413e+01
  -1.303747e+02  -3.121215e+01
  -2.598127e+01  -5.361970e+01
   7.069655e+01   1.746072e+01
   2.546140e+01   9.145083e+01
  -1.427497e+02   7.685107e+01
  -2.749839e+02  -4.357452e+01
  -2.283586e+02  -1.741979e+02
  -1.262861e+01  -2.439822e+02
   2.010514e+02  -2.089947e+02
   2.495101e+02  -8.360874e+01
   1.289187e+02   4.735460e+01
  -2.463851e+01   7.428518e+01
  -5.881749e+01   1.497892e+00
   4.716408e+01  -6.484024e+01
   1.610802e+02  -2.581636e+01
   1.616400e+02   9.422424e+01
   4.546566e+01   1.635949e+02
  -8.228432e+01   1.204038e+02
  -1.128033e+02   1.710273e+01
  -4.167824e+01  -3.263050e+01
   3.584499e+01   2.009836e+01
   1.783713e+01   9.976462e+01
  -9.530510e+01   1.039164e+02
  -1.955642e+02   6.406846e+00
  -1.567386e+02  -1.284781e+02
  -3.527349e+00  -1.889957e+02
   1.391777e+02  -1.311663e+02
   1.523319e+02  -5.076538e+00
   4.674095e+01   8.378725e+01
  -5.433017e+01   7.684712e+01
  -5.954774e+01   1.517908e+01
  -4.220500e-01  -2.452514e+01
   3.315167e+01  -4.045476e+00
  -1.078192e+01   2.716232e+01
  -8.051721e+01  -1.369259e+00
  -8.883034e+01  -8.776913e+01
   7.513293e-01  -1.623267e+02
   1.381766e+02  -1.328697e+02
   2.164496e+02   2.936363e+00
   1.669588e+02   1.532356e+02
   2.081447e+01   2.075779e+02
  -9.824171e+01   1.394038e+02
  -1.173661e+02   2.071234e+01
  -6.366908e+01  -4.324376e+01
  -2.678323e+01  -2.613900e+01
  -5.186575e+01   1.292571e+01
  -8.091929e+01  -2.362274e-01
  -5.197748e+01  -5.513692e+01
   3.632839e+01  -8.921520e+01
   1.157349e+02  -5.406196e+01
   9.493244e+01   4.676464e+01
  -2.518463e+01   1.203797e+02
  -1.544106e+02   7.474285e+01
  -1.853344e+02  -7.373574e+01
  -6.721865e+01  -2.021016e+02
   1.268281e+02  -1.979139e+02
   2.696748e+02  -7.596994e+01
   2.256019e+02   9.535317e+01
   8.977517e+01   1.648696e+02
  -3.353296e+01   1.296857e+02
  -8.370081e+01   7.584635e+01
  -7.116009e+01   7.068014e+01
  -6.596510e+01   9.009667e+01
  -9.047755e+01   6.568814e+01
  -1.174363e+02  -2.644369e+01
  -9.496273e+01  -1.436179e+02
  -1.019038e+01  -2.044855e+02
   9.621546e+01  -1.468101e+02
   1.544899e+02  -7.891509e-01
   1.128421e+02   1.227209e+02
   5.536596e+00   1.470647e+02
  -7.399991e+01   7.406006e+01
  -5.870516e+01  -1.454069e+01
   4.290882e+00  -5.008142e+01
   2.398312e+01  -3.306479e+01
  -2.713145e+01  -1.424947e+01
  -7.542547e+01  -2.335728e+01
  -4.229859e+01  -4.152364e+01
   6.988757e+01  -3.349272e+01
   1.599791e+02   1.308996e+01
   1.290264e+02   6.711375e+01
  -7.702505e+00   8.937963e+01
  -1.283617e+02   5.933306e+01
  -1.345201e+02  -4.503589e-01
  -3.746407e+01  -4.670933e+01
   5.692733e+01  -3.814982e+01
   7.865583e+01   2.142146e+01
   1.155746e+01   6.707410e+01
  -4.599976e+01   5.587994e+01
  -6.119388e+01  -1.917005e+00
  -4.565810e+01  -4.646131e+01
  -3.854137e+01  -3.587057e+01
  -5.072378e+01  -2.326112e+00
  -6.289951e+01  -2.628962e+00
  -3.942618e+01  -7.039125e+01
   3.271896e+01  -1.425228e+02
   1.245880e+02  -1.282466e+02
   1.659665e+02  -1.812179e+01
   1.129066e+02   9.677201e+01
  -6.615752e+00   1.213512e+02
  -8.716427e+01   5.579460e+01
  -5.545859e+01  -1.356169e+01
   5.471676e+01  -1.559581e+01
   1.202595e+02   4.167429e+01
   5.994719e+01   9.756754e+01
  -8.102612e+01   9.424216e+01
  -1.736526e+02   3.047648e+01
  -1.408198e+02  -4.163694e+01
  -2.434418e+01  -7.552961e+01
   5.864538e+01  -5.287377e+01
   4.002964e+01   2.643511e+00
  -3.919254e+01   2.428752e+01
  -8.147185e+01  -2.458585e+01
  -2.813511e+01  -1.080447e+02
   7.963011e+01  -1.353352e+02
   1.428525e+02  -5.167874e+01
   1.101452e+02   9.098889e+01
   5.301163e+00   1.744107e+02
  -7.975613e+01   1.252108e+02
  -9.244053e+01  -1.119576e+01
  -4.852052e+01  -1.075215e+02
   1.068242e+01  -8.855213e+01
   4.163542e+01  -1.165159e+01
   3.817970e+01   2.933245e+01
   1.564033e+01   4.717876e+00
   7.824120e+00  -1.656044e+01
   2.623874e+01   2.195573e+01
   4.665298e+01   8.470824e+01
   2.031745e+01   9.268037e+01
  -5.132778e+01   3.433645e+01
  -1.223560e+02  -4.054213e+01
  -1.096557e+02  -7.012702e+01
  -1.602928e+01  -5.022129e+01
   7.532142e+01  -2.261850e+01
   7.941288e+01  -1.246703e+00
   1.458901e+01   1.166943e+01
  -3.274150e+01   1.651682e+01
  -1.625457e+01   9.950772e+00
   1.580106e+01  -2.940102e+00
  -5.182561e-01  -1.422041e+00
  -5.949818e+01   3.700978e+00
  -8.134742e+01  -1.955869e+01
  -1.678137e+01  -6.990022e+01
   9.487388e+01  -1.001717e+02
   1.617445e+02  -5.539709e+01
   1.346140e+02   5.388942e+01
   2.738166e+01   1.401013e+02
  -7.301535e+01   1.344260e+02
  -1.036953e+02   5.566348e+01
  -7.042810e+01  -1.788354e+01
  -2.190753e+01  -3.384841e+01
  -2.950438e+00  -1.191037e+01
  -1.332784e+01  -8.327155e+00
  -2.492184e+01  -4.946294e+01
  -1.185592e+01  -8.307437e+01
   2.921463e+01  -6.394186e+01
   7.169860e+01   1.444014e+01
   7.043192e+01   9.198706e+01
   9.679838e+00   1.024396e+02
  -7.110831e+01   3.099907e+01
  -9.508872e+01  -5.875837e+01
  -3.405560e+01  -9.719495e+01
   6.149829e+01  -5.773783e+01
   9.482325e+01   1.089611e+01
   3.855592e+01   5.389005e+01
  -3.321720e+01   5.235427e+01
  -3.540880e+01   2.074762e+01
   2.398984e+01  -4.114243e+00
   5.714080e+01  -4.861580e+00
   1.344718e+01   2.462957e+01
  -6.804761e+01   5.391907e+01
  -1.079169e+02   4.242686e+01
  -6.160256e+01  -1.720809e+01
   1.552690e+01  -7.438975e+01
   5.458256e+01  -7.180945e+01
   3.965401e+01  -8.575627e+00
   3.665797e+00   4.879379e+01
  -2.395599e+01   4.324896e+01
  -3.435942e+01  -1.107553e+01
  -2.673364e+01  -5.022735e+01
   1.934913e-01  -3.550116e+01
   2.987529e+01   4.799141e+00
   3.847826e+01   2.276516e+01
   1.955222e+01   3.454122e+00
  -2.635007e+00  -1.783523e+01
  -6.720871e+00  -6.060711e+00
   1.220603e+00   2.937526e+01
  -1.943773e+00   4.541839e+01
  -2.345645e+01   1.805868e+01
  -3.607739e+01  -3.241845e+01
  -1.112683e+01  -5.460739e+01
   3.670393e+01  -2.307233e+01
   5.553429e+01   3.104141e+01
   1.691745e+01   5.361757e+01
  -5.023578e+01   2.958519e+01
  -8.127965e+01  -1.348672e+01
  -4.381469e+01  -3.864867e+01
   2.707846e+01  -3.869083e+01
   5.834805e+01  -2.081918e+01
   2.499767e+01  -5.532679e+00
  -2.622015e+01   2.387617e+00
  -2.933085e+01  -6.857727e+00
   2.106979e+01  -2.205874e+01
   7.114646e+01  -1.864607e+01
