
 $NMID
 id='ANONYMOUS ', fmtdat='(2E16.6)'
 volume=1.0
 tramp=1.0
 $END
   4.054001e+03  -1.688234e+02
   2.518009e+03   2.240867e+03
  -5.167574e+02   2.599397e+03
  -1.962336e+03   1.036119e+03
  -9.175416e+02  -4.397681e+02
   5.592504e+02  -4.392643e+02
   7.916387e+02   3.808620e+02
  -6.215666e+00   9.798839e+02
  -7.866743e+02   7.249353e+02
  -8.841111e+02  -9.167538e+01
  -3.732754e+02  -8.230248e+02
   2.121029e+02  -8.298845e+02
   5.710824e+02  -1.106230e+02
   3.478809e+02   6.581443e+02
  -2.624765e+02   7.475318e+02
  -5.442748e+02   3.507353e-01
  -2.521701e+02  -6.197782e+02
   2.895816e+02  -5.892757e+02
   5.175021e+02  -9.664497e+01
   3.600973e+02   3.271114e+02
   3.187153e+01   4.010579e+02
  -2.239799e+02   2.369678e+02
  -1.890868e+02  -1.778978e+01
   1.376065e+02  -1.021248e+02
   3.993170e+02   1.350552e+02
   1.701415e+02   4.359328e+02
  -4.569818e+02   3.872796e+02
  -8.114961e+02  -1.064913e+02
  -3.699977e+02  -5.223832e+02
   3.886274e+02  -4.298192e+02
   7.051602e+02   6.788527e+01
   3.207350e+02   4.634963e+02
  -2.867844e+02   4.884590e+02
  -5.560453e+02   1.905401e+02
  -3.872362e+02  -2.289724e+02
  -3.307048e+01  -4.505751e+02
   2.117319e+02  -2.416727e+02
   1.387037e+02   2.353142e+02
  -1.961216e+02   4.180049e+02
  -4.274724e+02  -2.774002e+01
  -2.258452e+02  -6.516989e+02
   2.992211e+02  -6.480455e+02
   5.450874e+02  -2.500645e+00
   2.287767e+02   5.151300e+02
  -2.790532e+02   2.892306e+02
  -3.670396e+02  -3.209947e+02
   6.547798e+01  -5.355270e+02
   5.386780e+02  -1.280046e+02
   5.852972e+02   3.808528e+02
   1.695093e+02   5.532611e+02
  -3.567056e+02   3.409774e+02
  -5.977068e+02  -4.072040e+01
  -3.600717e+02  -3.447784e+02
   1.280386e+02  -3.489602e+02
   3.934424e+02  -5.930824e+01
   2.235945e+02   1.608779e+02
  -9.843686e+01   8.893642e+01
  -1.228546e+02  -1.338725e+02
   1.537708e+02  -1.587188e+02
   3.325918e+02   7.413106e+01
   1.327731e+02   2.813679e+02
  -1.992221e+02   2.646227e+02
  -3.378747e+02   8.821922e+01
  -2.196694e+02  -8.386553e+01
   3.128644e+00  -2.341631e+02
   2.125524e+02  -3.238938e+02
   3.314637e+02  -2.080987e+02
   2.763434e+02   1.256824e+02
   6.628650e+01   3.926899e+02
  -9.437494e+01   3.451626e+02
  -9.836406e+01   1.012236e+02
  -1.680850e+01   4.461961e+00
  -4.547113e+01   9.357301e+01
  -1.861850e+02   1.215269e+02
  -2.715555e+02  -5.344262e+01
  -1.504371e+02  -2.599896e+02
   7.126623e+01  -2.497432e+02
   2.260872e+02  -1.398765e+01
   1.991507e+02   2.314678e+02
   2.475252e+00   2.896403e+02
  -2.528498e+02   1.212214e+02
  -3.521394e+02  -1.439885e+02
  -1.944970e+02  -3.157222e+02
   7.598284e+01  -2.909808e+02
   2.039780e+02  -1.200466e+02
   1.312053e+02  -1.579107e+01
   9.296545e+01  -3.923213e+01
   2.198226e+02  -7.342761e+01
   3.803597e+02   4.903649e+01
   3.259440e+02   2.660424e+02
   1.150868e+01   4.228485e+02
  -3.383973e+02   3.912131e+02
  -4.666482e+02   1.937788e+02
  -3.182196e+02  -8.375370e+01
  -5.075849e+01  -2.775953e+02
   1.156356e+02  -2.378450e+02
   7.102819e+01  -2.891315e+01
  -1.074703e+02   9.301893e+01
  -1.884940e+02  -4.629692e+00
  -5.396979e+01  -1.795802e+02
   1.553118e+02  -1.761081e+02
   1.659512e+02   5.105382e+01
  -2.398611e+01   1.707273e+02
  -1.781262e+02   3.068202e+01
  -1.538717e+02  -2.308032e+02
   2.130099e+01  -3.345324e+02
   2.142066e+02  -1.992239e+02
   3.198407e+02   4.048570e+01
   2.841739e+02   2.154782e+02
   1.008253e+02   2.611411e+02
  -1.076747e+02   1.637331e+02
  -1.772259e+02   2.431677e+01
  -5.957395e+01  -3.554572e+01
   6.874743e+01   3.741478e+01
   3.340003e+01   1.218675e+02
  -1.137570e+02   9.908200e+01
  -1.725705e+02  -6.965129e+00
  -5.867997e+01  -6.720321e+01
   7.823456e+01  -2.037883e+01
   5.712097e+01   6.684624e+01
  -1.129648e+02   9.048854e+01
  -2.711314e+02   1.180487e+01
  -2.612879e+02  -1.302283e+02
  -5.935261e+01  -2.471248e+02
   1.763269e+02  -2.514483e+02
   2.669001e+02  -1.168978e+02
   1.544865e+02   5.363005e+01
  -2.768675e+01   1.089663e+02
  -8.920708e+01   9.599665e+00
   2.624976e+01  -9.667290e+01
   1.753770e+02  -5.937748e+01
   1.943134e+02   8.580127e+01
   6.674258e+01   1.892087e+02
  -8.356086e+01   1.481538e+02
  -1.365727e+02   3.178069e+01
  -7.171060e+01  -3.835504e+01
   2.709987e+01  -5.142036e+00
   4.120380e+01   7.702316e+01
  -6.181790e+01   1.102781e+02
  -1.859518e+02   3.104269e+01
  -1.849998e+02  -1.140143e+02
  -2.614687e+01  -2.082061e+02
   1.523686e+02  -1.593300e+02
   1.859430e+02  -1.083513e+01
   6.766774e+01   1.065212e+02
  -5.478471e+01   1.049752e+02
  -7.458250e+01   3.097382e+01
  -2.143009e+01  -2.618889e+01
   1.958785e+01  -1.746010e+01
  -6.731853e+00   9.348862e+00
  -6.746664e+01  -3.833645e+00
  -8.953667e+01  -7.330810e+01
  -2.115023e+01  -1.513885e+02
   1.153430e+02  -1.524301e+02
   2.233298e+02  -3.554847e+01
   2.009093e+02   1.359555e+02
   5.212104e+01   2.216509e+02
  -9.773873e+01   1.658392e+02
  -1.265943e+02   3.474481e+01
  -6.872068e+01  -4.792315e+01
  -3.013714e+01  -3.379324e+01
  -5.504996e+01   1.019795e+01
  -7.424605e+01   4.283123e+00
  -4.155488e+01  -4.503359e+01
   3.656682e+01  -7.695716e+01
   9.129336e+01  -5.411997e+01
   8.249799e+01   2.474520e+01
  -7.034063e+00   9.923301e+01
  -1.260239e+02   8.823909e+01
  -1.849732e+02  -3.535277e+01
  -1.048139e+02  -1.826555e+02
   8.182955e+01  -2.161308e+02
   2.592768e+02  -1.103141e+02
   2.480693e+02   7.429317e+01
   1.112320e+02   1.694440e+02
  -3.622166e+01   1.453422e+02
  -9.287192e+01   7.896728e+01
  -7.960432e+01   5.995137e+01
  -6.078333e+01   8.045171e+01
  -7.763857e+01   7.156474e+01
  -1.172041e+02  -1.481902e+01
  -1.196396e+02  -1.360849e+02
  -3.990983e+01  -2.139316e+02
   8.299227e+01  -1.664203e+02
   1.612886e+02  -2.870364e+01
   1.343814e+02   1.083013e+02
   2.853528e+01   1.487538e+02
  -5.908727e+01   9.125805e+01
  -6.128670e+01   6.281674e+00
  -9.249337e+00  -3.818566e+01
   8.277640e+00  -3.567967e+01
  -3.173918e+01  -1.858044e+01
  -6.907571e+01  -1.789771e+01
  -3.978253e+01  -3.089226e+01
   5.558644e+01  -3.649409e+01
   1.422046e+02  -9.269358e+00
   1.352324e+02   4.247692e+01
   1.793068e+01   8.361678e+01
  -1.113926e+02   7.556437e+01
  -1.408105e+02   1.893279e+01
  -5.005776e+01  -3.573463e+01
   5.224275e+01  -3.987764e+01
   7.709328e+01   1.243205e+01
   1.320021e+01   6.114982e+01
  -4.571476e+01   5.464374e+01
  -5.828587e+01   1.101130e+00
  -4.549344e+01  -4.320733e+01
  -4.441128e+01  -3.596214e+01
  -5.967905e+01  -3.510631e+00
  -5.846465e+01  -3.510887e+00
  -3.054255e+01  -6.192847e+01
   2.880044e+01  -1.352681e+02
   1.017113e+02  -1.342652e+02
   1.503712e+02  -4.030799e+01
   1.189339e+02   7.819849e+01
   1.295638e+01   1.179996e+02
  -7.432094e+01   6.244035e+01
  -5.270445e+01  -8.179638e+00
   5.885452e+01  -1.432925e+01
   1.281204e+02   4.374925e+01
   6.999967e+01   1.020293e+02
  -7.490331e+01   1.095283e+02
  -1.762441e+02   6.055110e+01
  -1.526430e+02  -2.338302e+01
  -4.065616e+01  -8.094702e+01
   5.260349e+01  -7.160591e+01
   4.868950e+01  -1.117513e+01
  -3.187711e+01   2.713310e+01
  -8.402626e+01  -1.393573e+01
  -3.648582e+01  -1.062531e+02
   7.695691e+01  -1.476959e+02
   1.486708e+02  -6.300571e+01
   1.195066e+02   8.708560e+01
   1.649078e+01   1.790816e+02
  -7.429368e+01   1.284239e+02
  -9.831996e+01  -6.888635e+00
  -6.062207e+01  -1.093331e+02
   5.159507e-02  -9.669895e+01
   4.391433e+01  -1.994331e+01
   5.038224e+01   2.787215e+01
   2.365281e+01   6.252985e+00
   3.192041e+00  -1.933146e+01
   1.900236e+01   1.149260e+01
   5.297207e+01   7.893042e+01
   4.084683e+01   9.759519e+01
  -3.973042e+01   4.274104e+01
  -1.235026e+02  -3.092672e+01
  -1.192452e+02  -5.846508e+01
  -2.017994e+01  -3.977398e+01
   7.536387e+01  -2.168583e+01
   7.840079e+01  -9.695865e+00
   1.218562e+01   5.861687e+00
  -3.337206e+01   2.006877e+01
  -1.376570e+01   1.999531e+01
   1.955157e+01   2.635792e-01
  -5.482824e+00  -6.866302e+00
  -6.739820e+01  -3.044716e+00
  -8.576372e+01  -2.069065e+01
  -1.209532e+01  -7.391063e+01
   1.044912e+02  -1.070423e+02
   1.674191e+02  -5.972143e+01
   1.267689e+02   5.566604e+01
   2.748414e+01   1.440991e+02
  -6.564403e+01   1.382842e+02
  -9.794201e+01   5.793918e+01
  -7.164461e+01  -1.601584e+01
  -2.631881e+01  -3.187183e+01
  -1.610942e+00  -8.426348e+00
  -1.203228e+01  -2.873522e+00
  -3.213188e+01  -3.938300e+01
  -2.216156e+01  -8.270861e+01
   2.489494e+01  -6.884177e+01
   7.561089e+01   1.464640e+01
   7.393527e+01   9.318497e+01
   8.493430e+00   1.030142e+02
  -7.430799e+01   2.484237e+01
  -9.743788e+01  -6.425524e+01
  -3.518196e+01  -9.527048e+01
   5.632574e+01  -5.454678e+01
   9.127165e+01   5.040000e+00
   4.016013e+01   4.328019e+01
  -2.613400e+01   4.967995e+01
  -2.487334e+01   2.880517e+01
   3.256003e+01  -9.139519e-02
   6.423002e+01  -6.570646e+00
   1.575529e+01   2.191680e+01
  -6.830847e+01   6.017431e+01
  -1.016979e+02   5.576873e+01
  -5.789419e+01  -4.611808e+00
   9.304469e+00  -7.148710e+01
   4.358327e+01  -7.199357e+01
   3.392000e+01  -8.760095e+00
   4.442831e+00   5.109901e+01
  -2.271309e+01   4.240832e+01
  -3.466442e+01  -1.359769e+01
  -2.628740e+01  -5.147083e+01
   2.434184e+00  -3.521205e+01
   3.083951e+01   5.534137e+00
   3.998392e+01   1.977629e+01
   2.106721e+01   2.660546e+00
  -1.910072e+00  -1.249870e+01
  -7.827370e+00   2.177773e+00
  -4.639399e+00   3.347177e+01
  -1.084105e+01   4.285244e+01
  -2.811069e+01   9.961970e+00
  -3.058734e+01  -3.832655e+01
  -2.612396e+00  -5.634295e+01
   3.978212e+01  -2.125387e+01
   5.359450e+01   3.241885e+01
   1.648226e+01   5.615831e+01
  -4.851407e+01   3.312650e+01
  -8.041595e+01  -9.089057e+00
  -4.605693e+01  -3.626565e+01
   2.379127e+01  -3.796749e+01
   5.451614e+01  -2.373979e+01
   2.152796e+01  -8.874101e+00
  -3.124978e+01  -1.970660e+00
  -3.194253e+01  -1.241901e+01
   2.754669e+01  -2.915196e+01
   8.232353e+01  -2.247563e+01
