
 $NMID
 id='ANONYMOUS ', fmtdat='(2E16.6)'
 volume=1.0
 tramp=1.0
 $END
  -4.520981e+03   1.172788e+01
  -2.664362e+03  -2.795192e+03
   8.332479e+02  -2.952243e+03
   2.309333e+03  -8.298388e+02
   9.150400e+02   8.216131e+02
  -8.208955e+02   5.869984e+02
  -9.796651e+02  -5.048034e+02
   4.361379e+01  -1.135806e+03
   9.200126e+02  -7.992611e+02
   1.008193e+03   1.499546e+02
   4.186488e+02   9.552697e+02
  -3.185434e+02   9.403886e+02
  -7.219072e+02   9.282439e+01
  -4.154602e+02  -7.838159e+02
   3.198501e+02  -8.296683e+02
   6.452940e+02   3.291313e+01
   2.524161e+02   6.980626e+02
  -3.756537e+02   6.006706e+02
  -5.788307e+02   1.628864e+01
  -3.421181e+02  -4.038065e+02
   5.427314e+01  -4.393885e+02
   2.953132e+02  -2.371731e+02
   2.505669e+02   5.414172e+01
  -9.893578e+01   1.871469e+02
  -4.244470e+02  -5.331055e+01
  -2.443201e+02  -4.430619e+02
   4.236881e+02  -4.598819e+02
   8.696673e+02   7.175021e+01
   4.361800e+02   5.905900e+02
  -4.032132e+02   5.318417e+02
  -7.854715e+02  -3.324913e+01
  -3.785324e+02  -5.129929e+02
   2.836173e+02  -5.433328e+02
   5.939314e+02  -2.051286e+02
   4.219985e+02   2.514181e+02
   3.847712e+01   4.987058e+02
  -2.689092e+02   2.815300e+02
  -2.249140e+02  -2.625363e+02
   1.717983e+02  -5.089383e+02
   5.106596e+02  -1.384611e+01
   3.123452e+02   7.203997e+02
  -3.391020e+02   7.539748e+02
  -6.624926e+02   5.327193e+00
  -2.871767e+02  -6.066327e+02
   3.279965e+02  -3.642342e+02
   4.442830e+02   3.320002e+02
  -5.176495e+01   5.908222e+02
  -5.614547e+02   1.647955e+02
  -5.975872e+02  -4.041462e+02
  -1.710012e+02  -5.878873e+02
   3.815142e+02  -3.578576e+02
   6.221169e+02   6.130159e+01
   3.626163e+02   3.971706e+02
  -1.615083e+02   3.875398e+02
  -4.517623e+02   3.989317e+01
  -2.302359e+02  -2.336913e+02
   1.449067e+02  -1.216865e+02
   1.657337e+02   1.766198e+02
  -1.692295e+02   2.112255e+02
  -3.584135e+02  -8.713865e+01
  -1.364232e+02  -3.211163e+02
   2.196061e+02  -2.622596e+02
   3.247199e+02  -5.315382e+01
   1.836357e+02   8.851270e+01
  -9.390584e+00   1.978192e+02
  -1.836351e+02   2.964937e+02
  -3.131646e+02   2.170539e+02
  -2.841529e+02  -1.141881e+02
  -7.078856e+01  -4.168902e+02
   1.173313e+02  -3.642867e+02
   1.291977e+02  -8.410110e+01
   1.514373e+01   3.536109e+01
   1.522611e+01  -7.816774e+01
   1.724363e+02  -1.391087e+02
   2.764853e+02   3.675669e+01
   1.644600e+02   2.582001e+02
  -6.403431e+01   2.571790e+02
  -2.276396e+02   2.975349e+01
  -2.112843e+02  -2.205971e+02
  -1.319220e+01  -2.946310e+02
   2.524548e+02  -1.362818e+02
   3.692633e+02   1.405660e+02
   2.085452e+02   3.377414e+02
  -9.383031e+01   3.153377e+02
  -2.350002e+02   1.163653e+02
  -1.469776e+02  -1.671689e+01
  -8.246219e+01   1.191739e+01
  -1.991711e+02   6.568594e+01
  -3.567815e+02  -4.235634e+01
  -3.138599e+02  -2.620133e+02
  -6.069012e+00  -4.160346e+02
   3.286633e+02  -3.847674e+02
   4.639053e+02  -1.940921e+02
   3.349599e+02   8.163515e+01
   6.977638e+01   2.883389e+02
  -1.242388e+02   2.574205e+02
  -9.882521e+01   2.482425e+01
   1.038731e+02  -1.204276e+02
   2.139919e+02  -3.026871e+00
   7.403406e+01   2.021968e+02
  -1.705974e+02   1.976918e+02
  -1.952163e+02  -5.381343e+01
   1.477919e+01  -2.017160e+02
   1.961604e+02  -4.537663e+01
   1.649079e+02   2.405065e+02
  -2.706769e+01   3.388016e+02
  -2.117524e+02   1.869445e+02
  -3.000943e+02  -4.489634e+01
  -2.681664e+02  -1.972648e+02
  -1.084464e+02  -2.421462e+02
   9.677310e+01  -1.665934e+02
   1.793649e+02  -2.859546e+01
   6.621031e+01   4.304610e+01
  -7.717670e+01  -2.433763e+01
  -4.716840e+01  -1.253734e+02
   1.116769e+02  -1.138031e+02
   1.827880e+02   8.176992e-01
   7.073689e+01   6.981633e+01
  -7.404708e+01   2.745821e+01
  -5.920844e+01  -6.008184e+01
   1.045942e+02  -8.410376e+01
   2.613555e+02  -1.682328e+01
   2.633758e+02   1.127993e+02
   7.299084e+01   2.374405e+02
  -1.646407e+02   2.616918e+02
  -2.738317e+02   1.278656e+02
  -1.688425e+02  -5.687290e+01
   2.597445e+01  -1.208575e+02
   1.036754e+02  -1.207474e+01
  -1.609753e+01   1.102341e+02
  -1.845226e+02   7.385727e+01
  -2.121540e+02  -8.783310e+01
  -7.454052e+01  -2.013182e+02
   8.800833e+01  -1.565534e+02
   1.446621e+02  -3.541291e+01
   7.819671e+01   4.097285e+01
  -2.109000e+01   1.238453e+01
  -4.281452e+01  -6.746624e+01
   5.503546e+01  -1.070351e+02
   1.797853e+02  -3.452060e+01
   1.849848e+02   1.094314e+02
   2.915094e+01   2.092067e+02
  -1.535762e+02   1.637946e+02
  -1.946383e+02   9.220399e+00
  -7.165569e+01  -1.132666e+02
   5.708995e+01  -1.107350e+02
   7.975251e+01  -3.300812e+01
   2.957053e+01   2.548254e+01
  -1.327183e+01   2.182151e+01
   7.096233e+00  -1.718661e-01
   5.843094e+01   6.644004e+00
   7.891135e+01   6.704731e+01
   2.060578e+01   1.418931e+02
  -1.091356e+02   1.478921e+02
  -2.158270e+02   3.750671e+01
  -1.972783e+02  -1.320087e+02
  -5.072379e+01  -2.229205e+02
   1.019631e+02  -1.659472e+02
   1.309757e+02  -2.946022e+01
   6.779253e+01   5.534399e+01
   2.596330e+01   3.982646e+01
   4.808266e+01  -8.565347e+00
   6.752804e+01  -5.658526e+00
   3.559300e+01   3.970506e+01
  -3.706221e+01   7.172515e+01
  -8.184642e+01   4.907800e+01
  -7.391846e+01  -2.422146e+01
   5.228025e+00  -9.500413e+01
   1.175422e+02  -8.535672e+01
   1.805939e+02   3.334142e+01
   1.080964e+02   1.806414e+02
  -7.582186e+01   2.228896e+02
  -2.571789e+02   1.141078e+02
  -2.484176e+02  -7.654335e+01
  -1.089514e+02  -1.727956e+02
   3.850892e+01  -1.451224e+02
   9.162686e+01  -7.632920e+01
   7.736431e+01  -5.601358e+01
   6.176886e+01  -7.841789e+01
   7.953315e+01  -6.808412e+01
   1.155943e+02   1.449522e+01
   1.168232e+02   1.349000e+02
   3.894646e+01   2.107486e+02
  -8.368410e+01   1.666041e+02
  -1.643963e+02   3.028224e+01
  -1.372545e+02  -1.077624e+02
  -2.962766e+01  -1.496891e+02
   5.782133e+01  -9.301738e+01
   6.184031e+01  -8.470860e+00
   1.288835e+01   3.495106e+01
  -3.153854e+00   3.526764e+01
   3.298103e+01   2.225706e+01
   6.580161e+01   2.170415e+01
   3.620039e+01   3.443210e+01
  -5.485041e+01   3.552513e+01
  -1.368265e+02   1.035497e+01
  -1.327816e+02  -4.005475e+01
  -2.495918e+01  -8.087233e+01
   1.029246e+02  -7.425139e+01
   1.382363e+02  -1.931060e+01
   5.188667e+01   3.546704e+01
  -5.176766e+01   3.771730e+01
  -7.320769e+01  -1.447824e+01
  -6.327914e+00  -5.993529e+01
   5.237148e+01  -4.977828e+01
   5.764048e+01   4.557660e+00
   3.648011e+01   4.465424e+01
   3.558305e+01   3.730779e+01
   5.616013e+01   2.893186e+00
   5.705578e+01   2.410403e+00
   2.640722e+01   5.854351e+01
  -3.232901e+01   1.274309e+02
  -9.776099e+01   1.270263e+02
  -1.424578e+02   3.690232e+01
  -1.120320e+02  -7.803578e+01
  -1.369609e+01  -1.140843e+02
   7.158673e+01  -5.616160e+01
   5.385831e+01   1.574902e+01
  -5.510519e+01   1.898778e+01
  -1.297753e+02  -4.196931e+01
  -7.584897e+01  -1.034227e+02
   6.898972e+01  -1.086200e+02
   1.766208e+02  -5.611108e+01
   1.568285e+02   2.648711e+01
   4.224716e+01   8.061242e+01
  -5.375255e+01   6.935679e+01
  -4.876862e+01   1.071808e+01
   3.293752e+01  -2.392419e+01
   8.318747e+01   1.808549e+01
   3.087567e+01   1.068629e+02
  -8.566920e+01   1.412591e+02
  -1.520065e+02   5.605989e+01
  -1.155637e+02  -9.251508e+01
  -8.522326e+00  -1.780513e+02
   8.020619e+01  -1.277064e+02
   9.867373e+01   7.814590e+00
   5.823287e+01   1.103610e+02
   2.906628e+00   9.888480e+01
  -3.913790e+01   2.229502e+01
  -4.913326e+01  -2.764206e+01
  -2.713690e+01  -6.767791e+00
  -2.967875e+00   2.070599e+01
  -1.534697e+01  -8.338314e+00
  -5.131384e+01  -7.745386e+01
  -4.447610e+01  -9.999102e+01
   3.423786e+01  -4.454211e+01
   1.245258e+02   3.120685e+01
   1.239778e+02   6.140800e+01
   2.316203e+01   4.274362e+01
  -7.655152e+01   2.178931e+01
  -8.115436e+01   1.130546e+01
  -1.207356e+01  -5.776436e+00
   3.414104e+01  -2.056013e+01
   1.231123e+01  -2.027784e+01
  -2.176209e+01   8.852215e-01
   4.439603e+00   7.951415e+00
   6.735624e+01   4.984774e+00
   8.407388e+01   2.232299e+01
   7.862464e+00   7.112087e+01
  -1.077826e+02   1.005174e+02
  -1.658297e+02   5.452904e+01
  -1.241249e+02  -5.766114e+01
  -2.399001e+01  -1.427135e+02
   6.783657e+01  -1.354885e+02
   1.000226e+02  -5.528032e+01
   7.363682e+01   1.777649e+01
   2.619131e+01   3.147080e+01
  -6.930351e-01   6.782472e+00
   1.020531e+01   1.215993e+00
   2.837884e+01   3.781385e+01
   2.288335e+01   8.364568e+01
  -2.445474e+01   6.956820e+01
  -7.517840e+01  -1.369914e+01
  -7.184133e+01  -9.537300e+01
  -6.338912e+00  -1.037799e+02
   7.567550e+01  -2.216294e+01
   9.611457e+01   6.827050e+01
   3.073922e+01   9.665398e+01
  -5.983583e+01   5.114658e+01
  -8.893215e+01  -8.636394e+00
  -3.579265e+01  -4.233474e+01
   2.868439e+01  -4.532214e+01
   2.500331e+01  -2.503122e+01
  -3.386480e+01  -1.985528e+00
  -6.543561e+01   3.648547e+00
  -1.608274e+01  -2.175626e+01
   6.634617e+01  -5.775427e+01
   1.041206e+02  -5.394251e+01
   5.805775e+01   7.381950e+00
  -1.036379e+01   7.103720e+01
  -4.632856e+01   6.847893e+01
  -3.241912e+01   2.726398e+00
  -8.713135e-01  -5.270576e+01
   2.638889e+01  -3.879610e+01
   3.506026e+01   1.720869e+01
   2.309018e+01   5.027652e+01
  -4.660811e+00   3.037958e+01
  -2.985123e+01  -8.548392e+00
  -3.574641e+01  -1.937588e+01
  -1.959393e+01  -1.055513e+00
  -2.565822e-01   1.051727e+01
   8.265144e+00  -6.390388e+00
   1.061493e+01  -3.499101e+01
   1.902754e+01  -3.900452e+01
   3.081152e+01  -2.769394e+00
   2.530011e+01   4.468211e+01
  -4.772400e+00   5.813659e+01
  -4.217946e+01   1.871801e+01
  -5.248709e+01  -3.796204e+01
  -1.358530e+01  -5.972338e+01
   4.890772e+01  -3.117728e+01
   7.853816e+01   1.392480e+01
   4.513005e+01   4.020359e+01
  -2.398157e+01   3.624063e+01
  -5.592967e+01   1.925583e+01
  -2.128389e+01   5.529893e+00
   3.338405e+01   3.410767e+00
   3.295846e+01   1.651852e+01
  -3.012015e+01   3.044923e+01
  -8.644373e+01   1.798365e+01
