
 $NMID
 id='ANONYMOUS ', fmtdat='(2E16.6)'
 volume=1.0
 tramp=1.0
 $END
  -3.048149e+03  -1.236894e+02
  -1.707204e+03  -1.724312e+03
   1.911666e+02  -1.723923e+03
   1.128207e+03  -8.631829e+02
   7.154719e+02  -1.149397e+02
  -5.842317e+01   1.329927e+02
  -3.350510e+02  -1.738163e+02
  -1.834169e+01  -5.298679e+02
   4.371377e+02  -4.812053e+02
   5.725184e+02  -5.250806e+01
   3.183154e+02   4.938724e+02
  -2.020397e+01   5.619894e+02
  -2.747218e+02   1.315832e+02
  -2.137631e+02  -3.763878e+02
   6.887941e+01  -5.203640e+02
   3.492721e+02  -5.915441e+01
   2.574335e+02   4.428177e+02
  -1.189174e+02   5.398172e+02
  -4.257925e+02   2.398725e+02
  -3.880419e+02  -1.562209e+02
  -1.184397e+02  -3.155912e+02
   1.139945e+02  -2.232681e+02
   6.086597e+01  -7.405416e+01
  -1.632376e+02  -9.021782e+01
  -2.442463e+02  -2.593143e+02
   3.647634e+01  -3.447467e+02
   4.588996e+02  -1.560581e+02
   5.663066e+02   1.986074e+02
   1.931998e+02   3.635448e+02
  -3.120047e+02   1.902902e+02
  -4.622141e+02  -1.265533e+02
  -1.644957e+02  -3.260296e+02
   2.384745e+02  -3.046198e+02
   4.010992e+02  -1.106954e+02
   2.832852e+02   1.313952e+02
   7.840217e+01   2.564134e+02
  -1.897481e+01   1.373974e+02
   4.304184e+01  -5.963804e+01
   1.639751e+02  -1.083396e+02
   1.736585e+02   1.527948e+02
  -3.127352e+01   4.427452e+02
  -2.418930e+02   3.739345e+02
  -2.993907e+02  -3.868331e+01
  -9.798686e+01  -2.961663e+02
   1.425672e+02  -1.178032e+02
   1.550979e+02   2.396194e+02
  -1.051581e+02   3.272493e+02
  -3.648182e+02   1.710193e+01
  -3.881156e+02  -3.306676e+02
  -9.522446e+01  -4.230123e+02
   2.715754e+02  -2.073993e+02
   4.298159e+02   7.687630e+01
   2.784340e+02   2.298486e+02
  -7.479043e+01   1.965378e+02
  -2.722125e+02   7.173084e+01
  -1.934745e+02  -2.855426e+01
   2.530074e+00  -2.983390e+01
   3.635687e+01   3.836015e+01
  -9.776387e+01   4.693597e+01
  -1.959434e+02  -5.615757e+01
  -1.001638e+02  -1.813575e+02
   1.389294e+02  -2.149361e+02
   3.053342e+02  -1.197520e+02
   2.343672e+02   8.304080e+01
  -1.367971e+01   2.683649e+02
  -2.452464e+02   3.111728e+02
  -3.125541e+02   1.234209e+02
  -1.945806e+02  -1.534389e+02
  -3.449946e+01  -3.029745e+02
   4.147989e+01  -2.545558e+02
   1.416267e+01  -1.402633e+02
   2.073652e+01  -9.146293e+01
   1.175771e+02  -1.117198e+02
   2.294167e+02  -5.142543e+01
   2.226055e+02   1.084352e+02
   7.923353e+01   2.375435e+02
  -9.060084e+01   1.764124e+02
  -1.730760e+02  -4.365900e+01
  -1.176929e+02  -2.237219e+02
   5.616722e+01  -2.162948e+02
   2.285534e+02  -3.673307e+01
   2.653952e+02   1.649686e+02
   1.355108e+02   2.655600e+02
  -6.551315e+01   2.188433e+02
  -1.551946e+02   1.212150e+02
  -1.288075e+02   6.638464e+01
  -1.296421e+02   7.001382e+01
  -2.452384e+02   3.063752e+01
  -3.694307e+02  -1.035698e+02
  -2.815098e+02  -2.877330e+02
   4.075345e+01  -3.933643e+02
   3.570522e+02  -3.394105e+02
   4.344213e+02  -1.161579e+02
   2.494375e+02   1.095114e+02
   2.805240e+00   2.265682e+02
  -9.665370e+01   1.632178e+02
  -1.885225e+01   2.924679e+01
   9.828443e+01  -3.577012e+01
   1.066747e+02   3.361245e+01
  -4.994647e+00   1.131011e+02
  -9.700087e+01   9.911432e+01
  -8.902219e+01  -5.292676e+01
   4.538485e+01  -1.108604e+02
   1.471682e+02   8.407780e+00
   1.317796e+02   2.131746e+02
  -3.093346e+01   3.003288e+02
  -2.216048e+02   1.726960e+02
  -3.088784e+02  -6.495175e+01
  -2.297946e+02  -2.369408e+02
  -4.541376e+01  -2.469641e+02
   1.171843e+02  -1.180939e+02
   1.313668e+02  -2.395602e+00
   3.125825e+01   7.896155e+00
  -4.113162e+01  -6.060334e+01
   1.099693e+01  -1.017800e+02
   1.147508e+02  -4.900341e+01
   1.267745e+02   3.324672e+01
   2.192785e+01   5.020495e+01
  -7.240411e+01  -1.818043e+01
  -2.984927e+01  -8.948883e+01
   1.413237e+02  -7.763460e+01
   2.760827e+02   3.345737e+01
   2.239722e+02   1.686287e+02
   1.298063e+01   2.386286e+02
  -1.984168e+02   2.004338e+02
  -2.381560e+02   7.864787e+01
  -1.174102e+02  -4.207401e+01
   2.453780e+01  -6.580373e+01
   5.204624e+01   5.387401e+00
  -5.383797e+01   6.414691e+01
  -1.626484e+02   1.754762e+01
  -1.562853e+02  -1.035540e+02
  -3.875194e+01  -1.686215e+02
   8.765550e+01  -1.151446e+02
   1.151834e+02  -4.987045e+00
   4.054236e+01   3.768438e+01
  -4.006632e+01  -2.029894e+01
  -2.146025e+01  -1.004671e+02
   9.044958e+01  -1.036865e+02
   1.897056e+02  -3.398640e+00
   1.563837e+02   1.264448e+02
   2.175379e+00   1.878161e+02
  -1.438507e+02   1.318755e+02
  -1.556855e+02   2.657630e+00
  -4.508697e+01  -8.699054e+01
   5.672417e+01  -8.174753e+01
   6.024300e+01  -1.652534e+01
  -3.234830e+00   2.078863e+01
  -3.656476e+01   4.521785e+00
   1.102350e+01  -2.935035e+01
   8.344211e+01  -3.558054e+00
   9.370959e+01   8.403830e+01
   6.653465e+00   1.577744e+02
  -1.309776e+02   1.295089e+02
  -2.092327e+02  -4.181822e+00
  -1.577268e+02  -1.493184e+02
  -1.409276e+01  -2.011184e+02
   1.015569e+02  -1.328731e+02
   1.149893e+02  -1.800112e+01
   6.242048e+01   4.174089e+01
   2.720256e+01   2.383491e+01
   4.909445e+01  -1.872001e+01
   7.920003e+01  -3.235545e+00
   5.200294e+01   5.326797e+01
  -3.854798e+01   9.109731e+01
  -1.107426e+02   5.948471e+01
  -9.189136e+01  -4.096653e+01
   2.128055e+01  -1.122934e+02
   1.442193e+02  -7.087176e+01
   1.737231e+02   6.759595e+01
   6.218376e+01   1.862647e+02
  -1.173137e+02   1.818005e+02
  -2.352456e+02   8.364572e+01
  -2.093325e+02  -8.828420e+01
  -7.626074e+01  -1.554190e+02
   4.516180e+01  -1.219278e+02
   8.605150e+01  -6.338402e+01
   6.678465e+01  -5.503789e+01
   5.174372e+01  -7.848394e+01
   8.079553e+01  -6.434531e+01
   1.125061e+02   2.259739e+01
   9.509887e+01   1.348527e+02
   1.478247e+01   1.922785e+02
  -9.049350e+01   1.354208e+02
  -1.453535e+02   2.066638e+00
  -1.068878e+02  -1.117641e+02
  -1.177971e+00  -1.317909e+02
   6.989282e+01  -6.618623e+01
   5.613144e+01   1.395145e+01
  -6.151842e+00   4.855739e+01
  -2.717945e+01   3.249845e+01
   2.153794e+01   1.060166e+01
   7.269316e+01   1.242771e+01
   4.453617e+01   3.329695e+01
  -6.440580e+01   3.129005e+01
  -1.521759e+02  -5.208111e+00
  -1.234284e+02  -6.003918e+01
   4.786560e+00  -8.558828e+01
   1.238240e+02  -6.241604e+01
   1.304990e+02   1.276147e+00
   3.884722e+01   4.721550e+01
  -5.321524e+01   3.988187e+01
  -6.904961e+01  -1.094916e+01
  -1.535002e+01  -6.553170e+01
   4.198723e+01  -5.610625e+01
   6.158676e+01   2.489485e+00
   4.722783e+01   4.687738e+01
   3.957341e+01   3.478898e+01
   4.710185e+01  -4.894926e+00
   5.923448e+01  -1.403499e+00
   4.070427e+01   6.947095e+01
  -2.784849e+01   1.422681e+02
  -1.154702e+02   1.293395e+02
  -1.606514e+02   2.051933e+01
  -1.149871e+02  -9.126561e+01
   2.137003e-01  -1.197147e+02
   8.359369e+01  -6.034303e+01
   5.647677e+01   8.112279e+00
  -5.053722e+01   1.662532e+01
  -1.139937e+02  -3.355785e+01
  -5.607175e+01  -8.930988e+01
   8.012425e+01  -8.887907e+01
   1.670689e+02  -3.134243e+01
   1.324879e+02   3.877036e+01
   2.057846e+01   7.303163e+01
  -5.844591e+01   5.114891e+01
  -4.065355e+01   1.033557e+00
   3.899068e+01  -2.351663e+01
   8.149313e+01   2.142130e+01
   3.028269e+01   1.043112e+02
  -7.676488e+01   1.377955e+02
  -1.425484e+02   6.010748e+01
  -1.103392e+02  -8.627003e+01
  -1.273460e+01  -1.740191e+02
   7.088491e+01  -1.247342e+02
   8.792876e+01   1.070171e+01
   4.698990e+01   1.073369e+02
  -7.760351e+00   8.604827e+01
  -4.278545e+01   1.190437e+01
  -3.849227e+01  -2.746119e+01
  -1.609616e+01  -3.155829e+00
  -9.135280e+00   1.625223e+01
  -2.972855e+01  -1.933166e+01
  -4.775952e+01  -8.205890e+01
  -2.038309e+01  -9.406248e+01
   5.311571e+01  -3.721134e+01
   1.169231e+02   3.440764e+01
   1.016343e+02   6.430706e+01
   1.260371e+01   4.790144e+01
  -7.216006e+01   2.107389e+01
  -7.568709e+01  -1.002269e+00
  -1.590976e+01  -1.218519e+01
   2.944749e+01  -1.775716e+01
   1.718872e+01  -9.868116e+00
  -1.338866e+01   2.012822e+00
   4.463640e+00   5.285308e+00
   5.775518e+01  -1.628577e+00
   7.975496e+01   1.809198e+01
   1.786964e+01   6.743718e+01
  -8.826150e+01   1.063353e+02
  -1.587369e+02   6.482082e+01
  -1.333062e+02  -4.604642e+01
  -3.147778e+01  -1.381850e+02
   6.621917e+01  -1.384471e+02
   9.921436e+01  -5.902483e+01
   6.667138e+01   1.639416e+01
   2.114366e+01   3.324253e+01
   3.511005e+00   1.115991e+01
   1.330242e+01   7.667190e+00
   2.534031e+01   4.469318e+01
   1.399569e+01   8.021528e+01
  -2.712679e+01   6.105350e+01
  -6.681877e+01  -1.773174e+01
  -6.696670e+01  -9.096142e+01
  -1.143321e+01  -9.446428e+01
   6.661490e+01  -2.508713e+01
   9.251125e+01   5.843426e+01
   3.206015e+01   9.216752e+01
  -5.944492e+01   5.480354e+01
  -9.260262e+01  -1.021516e+01
  -4.000709e+01  -5.267044e+01
   3.228299e+01  -5.554738e+01
   3.629598e+01  -2.585473e+01
  -2.272244e+01   5.800412e+00
  -5.871395e+01   8.651662e+00
  -1.322087e+01  -2.657949e+01
   7.253559e+01  -5.708483e+01
   1.055097e+02  -4.036858e+01
   6.338752e+01   2.119862e+01
  -1.355647e+01   7.541789e+01
  -5.197051e+01   7.168697e+01
  -4.017302e+01   9.788823e+00
  -3.956446e+00  -4.547721e+01
   2.119557e+01  -4.160348e+01
   3.135745e+01   9.155736e+00
   2.364028e+01   4.729137e+01
   1.517123e+00   3.384214e+01
  -2.600734e+01  -3.331682e+00
  -3.366701e+01  -2.042535e+01
  -1.814523e+01  -2.453541e+00
   3.970974e+00   1.780314e+01
   6.670005e+00   7.905762e+00
  -2.608725e+00  -2.639203e+01
   6.781364e-01  -4.485489e+01
   2.411028e+01  -1.895342e+01
   3.659364e+01   3.053986e+01
   1.198529e+01   5.240527e+01
  -3.602888e+01   2.417131e+01
  -5.489906e+01  -2.579126e+01
  -1.582355e+01  -5.193143e+01
   5.072373e+01  -3.148799e+01
   7.970839e+01   8.592814e+00
   4.180049e+01   3.617004e+01
  -2.525785e+01   3.916617e+01
  -5.524766e+01   2.415133e+01
  -2.609010e+01   5.337578e+00
   2.279764e+01  -3.662869e+00
   2.758082e+01   5.303012e+00
  -1.965139e+01   2.181104e+01
  -6.510865e+01   1.528499e+01
