
 $NMID
 id='ANONYMOUS ', fmtdat='(2E16.6)'
 volume=1.0
 tramp=1.0
 $END
   4.711429e+03   7.625741e+02
   2.411130e+03   3.168620e+03
  -1.238907e+03   2.799080e+03
  -2.413247e+03   5.073286e+02
  -8.192764e+02  -9.519978e+02
   8.720072e+02  -4.947897e+02
   8.920813e+02   6.327355e+02
  -2.010440e+02   1.125897e+03
  -1.013127e+03   6.531264e+02
  -9.689860e+02  -2.891900e+02
  -3.234925e+02  -9.438045e+02
   4.734946e+02  -8.768697e+02
   7.338450e+02   2.675564e+01
   2.507656e+02   8.734819e+02
  -4.273092e+02   7.804335e+02
  -6.542135e+02  -1.395153e+02
  -1.419849e+02  -7.652981e+02
   4.521433e+02  -5.756524e+02
   5.955579e+02   4.966317e+01
   3.077872e+02   4.383397e+02
  -8.394388e+01   4.199759e+02
  -2.993172e+02   2.032707e+02
  -2.383266e+02  -4.718775e+01
   1.224370e+02  -1.090876e+02
   4.264341e+02   1.420145e+02
   1.706793e+02   4.795106e+02
  -5.303759e+02   3.824644e+02
  -8.848832e+02  -1.987379e+02
  -3.616202e+02  -6.564096e+02
   5.003944e+02  -4.670594e+02
   7.809391e+02   1.711651e+02
   2.828573e+02   5.840644e+02
  -3.831212e+02   5.044120e+02
  -6.283605e+02   1.016596e+02
  -3.965997e+02  -3.303006e+02
   2.205190e+01  -5.102210e+02
   2.958590e+02  -2.418797e+02
   1.870158e+02   2.907888e+02
  -2.603250e+02   4.620215e+02
  -5.075497e+02  -8.863393e+01
  -1.559553e+02  -7.797287e+02
   4.751249e+02  -6.901126e+02
   6.717463e+02   1.121198e+02
   1.803044e+02   6.450008e+02
  -3.906407e+02   3.108186e+02
  -3.827421e+02  -3.913448e+02
   1.496037e+02  -5.788894e+02
   5.975480e+02  -9.002762e+01
   5.591887e+02   4.925311e+02
   7.854798e+01   6.463132e+02
  -4.715626e+02   3.088635e+02
  -6.453069e+02  -1.727425e+02
  -2.996960e+02  -4.724261e+02
   2.519127e+02  -3.488209e+02
   4.637809e+02   3.355736e+01
   1.775134e+02   2.747392e+02
  -1.778208e+02   9.049257e+01
  -1.377697e+02  -2.174364e+02
   2.115990e+02  -1.902023e+02
   3.646113e+02   1.275785e+02
   1.022182e+02   3.349327e+02
  -2.539828e+02   2.264623e+02
  -3.365879e+02   1.810491e+01
  -1.706579e+02  -1.161862e+02
   4.899823e+01  -2.078151e+02
   2.482548e+02  -2.884062e+02
   3.717514e+02  -1.774193e+02
   2.908097e+02   1.759966e+02
   2.789829e+01   4.609149e+02
  -1.769468e+02   3.832454e+02
  -1.513604e+02   8.960100e+01
  -2.752313e+01  -2.982902e+01
  -4.210672e+01   8.793946e+01
  -2.057581e+02   1.210666e+02
  -2.828970e+02  -8.205515e+01
  -1.364466e+02  -2.989008e+02
   1.068920e+02  -2.590482e+02
   2.428693e+02   1.226051e+01
   1.707442e+02   2.632445e+02
  -4.838388e+01   3.000224e+02
  -2.886049e+02   8.766434e+01
  -3.464659e+02  -2.216967e+02
  -1.433155e+02  -3.916519e+02
   1.609890e+02  -2.989148e+02
   2.584517e+02  -8.064984e+01
   1.489006e+02   2.962611e+01
   8.652340e+01  -1.920255e+01
   2.299855e+02  -4.254158e+01
   3.867668e+02   9.564628e+01
   2.984265e+02   3.198266e+02
  -5.018082e+01   4.467822e+02
  -4.028465e+02   3.696217e+02
  -5.167075e+02   1.379809e+02
  -3.335713e+02  -1.416610e+02
  -1.469165e+01  -3.176310e+02
   1.820264e+02  -2.510113e+02
   9.867815e+01  -6.782668e+00
  -1.247805e+02   1.090858e+02
  -2.013829e+02  -3.168898e+01
  -2.673416e+01  -2.185960e+02
   1.911568e+02  -1.670255e+02
   1.832664e+02   1.033818e+02
  -4.281612e+01   2.070516e+02
  -2.181399e+02   1.280196e+01
  -1.351541e+02  -2.847910e+02
   9.079269e+01  -3.557854e+02
   2.645882e+02  -1.595134e+02
   3.145818e+02   1.107365e+02
   2.471313e+02   2.711849e+02
   5.948286e+01   2.740426e+02
  -1.369787e+02   1.477988e+02
  -1.836127e+02  -3.951098e+00
  -5.704945e+01  -4.873583e+01
   7.333007e+01   4.608855e+01
   2.031865e+01   1.375472e+02
  -1.399422e+02   9.278238e+01
  -1.859858e+02  -3.654705e+01
  -5.336356e+01  -8.620727e+01
   8.669570e+01  -9.930458e+00
   4.719724e+01   7.902079e+01
  -1.317380e+02   7.223326e+01
  -2.761909e+02  -3.560636e+01
  -2.371446e+02  -1.705317e+02
  -2.724802e+01  -2.599650e+02
   2.138076e+02  -2.326996e+02
   2.946311e+02  -7.802633e+01
   1.584864e+02   8.818257e+01
  -4.519064e+01   1.125518e+02
  -1.000443e+02  -1.314548e+01
   4.405937e+01  -1.096330e+02
   2.046787e+02  -3.874719e+01
   2.022282e+02   1.392399e+02
   3.673787e+01   2.239185e+02
  -1.195875e+02   1.457096e+02
  -1.515259e+02   4.198052e+00
  -6.752783e+01  -5.857475e+01
   2.659733e+01  -5.637479e+00
   3.077738e+01   8.319675e+01
  -7.993672e+01   1.064741e+02
  -1.995174e+02   7.880669e+00
  -1.791833e+02  -1.482156e+02
   7.741443e+00  -2.276836e+02
   1.932961e+02  -1.439149e+02
   2.027526e+02   2.741855e+01
   4.929077e+01   1.335019e+02
  -8.647292e+01   1.064676e+02
  -9.126192e+01   1.662127e+01
  -2.161098e+01  -3.049393e+01
   2.050282e+01  -1.936193e+01
  -9.201692e+00   3.258745e+00
  -6.290649e+01  -1.633827e+01
  -7.268328e+01  -8.565860e+01
   2.989055e+00  -1.506815e+02
   1.402296e+02  -1.338460e+02
   2.341443e+02   8.839142e-01
   1.813902e+02   1.768838e+02
   1.143383e+01   2.483875e+02
  -1.351220e+02   1.570200e+02
  -1.418139e+02   6.618859e+00
  -6.265008e+01  -6.808846e+01
  -1.991474e+01  -4.045137e+01
  -5.306278e+01   8.485181e+00
  -7.669892e+01  -6.889026e+00
  -3.201763e+01  -5.591794e+01
   4.716390e+01  -8.073131e+01
   1.030469e+02  -4.162796e+01
   8.019931e+01   4.433005e+01
  -1.988781e+01   1.044569e+02
  -1.454398e+02   6.814930e+01
  -1.921768e+02  -7.282383e+01
  -7.792782e+01  -2.140979e+02
   1.358429e+02  -2.209108e+02
   2.802948e+02  -8.405581e+01
   2.500015e+02   1.268574e+02
   8.347252e+01   1.951418e+02
  -6.026495e+01   1.445986e+02
  -1.044365e+02   7.067646e+01
  -8.603251e+01   5.631494e+01
  -7.812539e+01   8.235765e+01
  -1.041928e+02   6.412370e+01
  -1.250567e+02  -3.604784e+01
  -1.006236e+02  -1.696024e+02
   9.263185e-01  -2.305923e+02
   1.268683e+02  -1.564361e+02
   1.834206e+02   4.850911e+00
   1.164459e+02   1.443064e+02
  -8.919204e+00   1.644083e+02
  -8.746154e+01   8.293836e+01
  -6.327856e+01  -1.140875e+01
  -8.596288e-01  -4.528068e+01
   1.519420e+01  -3.468051e+01
  -2.915259e+01  -2.712362e+01
  -6.931686e+01  -3.432121e+01
  -3.714729e+01  -4.444610e+01
   6.333034e+01  -2.965043e+01
   1.500264e+02   1.304921e+01
   1.314428e+02   6.803146e+01
   9.110278e+00   9.164376e+01
  -1.224259e+02   5.947080e+01
  -1.416179e+02  -5.853784e+00
  -4.684380e+01  -4.885187e+01
   6.322754e+01  -2.990911e+01
   6.984117e+01   2.428282e+01
  -5.211961e+00   6.937062e+01
  -6.563433e+01   4.897148e+01
  -6.277537e+01  -1.365335e+01
  -3.509724e+01  -5.840717e+01
  -3.461817e+01  -4.926125e+01
  -5.736879e+01  -9.785607e+00
  -6.329896e+01  -4.981169e+00
  -2.721922e+01  -6.529814e+01
   4.870496e+01  -1.349088e+02
   1.290936e+02  -1.256927e+02
   1.654174e+02  -1.535510e+01
   1.113633e+02   1.040074e+02
  -6.702219e+00   1.244104e+02
  -9.104978e+01   4.859029e+01
  -5.889283e+01  -2.178755e+01
   5.608482e+01  -8.962637e+00
   1.269020e+02   6.209840e+01
   5.943139e+01   1.146027e+02
  -9.476722e+01   9.916536e+01
  -1.986637e+02   2.354741e+01
  -1.585719e+02  -5.850046e+01
  -2.671736e+01  -9.401338e+01
   7.085259e+01  -6.218125e+01
   5.261711e+01   1.136792e+00
  -4.196053e+01   2.287179e+01
  -8.788463e+01  -3.522817e+01
  -1.672134e+01  -1.243518e+02
   1.153355e+02  -1.413385e+02
   1.756765e+02  -4.078509e+01
   1.082964e+02   1.184157e+02
  -2.044824e+01   1.953394e+02
  -1.028953e+02   1.262924e+02
  -1.033237e+02  -2.508797e+01
  -4.488716e+01  -1.264988e+02
   1.606124e+01  -1.067509e+02
   5.110712e+01  -1.678122e+01
   5.069398e+01   3.808601e+01
   2.814659e+01   1.370179e+01
   9.028088e+00  -1.873565e+01
   1.959301e+01   1.482101e+01
   4.367540e+01   9.317384e+01
   2.683129e+01   1.162488e+02
  -5.114049e+01   4.589494e+01
  -1.288289e+02  -5.135344e+01
  -1.196832e+02  -8.758727e+01
  -1.340693e+01  -5.540837e+01
   8.818604e+01  -1.429225e+01
   8.709313e+01   1.500127e+00
   1.073372e+01   1.123670e+01
  -4.061794e+01   2.017476e+01
  -1.889847e+01   1.731091e+01
   1.983040e+01   2.228093e+00
  -6.789044e+00  -1.085033e+01
  -7.484039e+01  -1.471826e+01
  -8.697116e+01  -3.549371e+01
   3.950082e+00  -8.148038e+01
   1.320691e+02  -1.002630e+02
   1.881034e+02  -4.424933e+01
   1.297344e+02   7.908720e+01
   1.117704e+01   1.642657e+02
  -8.857959e+01   1.445410e+02
  -1.166734e+02   4.656247e+01
  -7.743132e+01  -3.441214e+01
  -2.234939e+01  -4.069256e+01
   4.443368e+00  -5.123406e+00
  -9.717330e+00  -1.226624e+00
  -2.462948e+01  -4.623145e+01
  -1.225534e+01  -9.395928e+01
   3.966964e+01  -6.746249e+01
   7.798677e+01   3.062197e+01
   6.168281e+01   1.161110e+02
  -1.471668e+01   1.077871e+02
  -8.645523e+01   8.050376e+00
  -9.030561e+01  -9.102985e+01
  -1.185663e+01  -1.065974e+02
   7.411269e+01  -4.249915e+01
   9.275518e+01   2.595891e+01
   2.985633e+01   5.411339e+01
  -3.949184e+01   4.602791e+01
  -3.235675e+01   2.465915e+01
   3.372594e+01   4.693295e+00
   6.872983e+01   2.405934e+00
   1.039468e+01   2.784639e+01
  -8.715438e+01   5.486144e+01
  -1.207109e+02   4.477203e+01
  -6.203651e+01  -2.059030e+01
   2.499163e+01  -7.875701e+01
   6.082608e+01  -6.778593e+01
   3.495751e+01   3.245017e+00
  -1.016897e+01   5.640547e+01
  -3.216388e+01   3.372821e+01
  -3.170489e+01  -2.832843e+01
  -1.473943e+01  -5.873619e+01
   9.956546e+00  -2.881828e+01
   3.154873e+01   1.577995e+01
   3.556328e+01   2.833060e+01
   2.060150e+01   4.091515e+00
   1.231851e+00  -1.280116e+01
  -7.540045e+00   3.660513e+00
  -1.408657e+01   3.483932e+01
  -2.758210e+01   3.722500e+01
  -3.307433e+01  -2.458807e+00
  -1.968693e+01  -5.071726e+01
   1.590642e+01  -5.905286e+01
   4.882075e+01  -1.272321e+01
   5.144027e+01   4.590004e+01
   4.606459e+00   6.448058e+01
  -5.820464e+01   2.595484e+01
  -8.366320e+01  -2.653381e+01
  -4.222231e+01  -5.165996e+01
   3.385629e+01  -3.728201e+01
   6.658112e+01  -1.266947e+01
   2.360515e+01  -8.791767e-02
  -3.541165e+01  -6.878948e+00
  -3.392600e+01  -2.257648e+01
   3.514065e+01  -2.916492e+01
   9.219785e+01  -6.142078e+00
