
 $NMID
 id='ANONYMOUS ', fmtdat='(2E16.6)'
 volume=1.0
 tramp=1.0
 $END
  -3.653729e+03  -3.313495e+02
  -2.138935e+03  -2.425956e+03
   4.288120e+02  -2.261523e+03
   1.645080e+03  -8.653069e+02
   8.303406e+02   2.297115e+02
  -3.423370e+02   3.144815e+02
  -6.260798e+02  -3.205086e+02
  -3.095066e+01  -7.956916e+02
   6.445644e+02  -6.333542e+02
   7.684259e+02   3.400189e+01
   3.641473e+02   6.943145e+02
  -1.477369e+02   7.344764e+02
  -4.810977e+02   1.052725e+02
  -3.105962e+02  -5.679565e+02
   1.642453e+02  -6.609000e+02
   5.008178e+02  -8.655383e-01
   2.671810e+02   5.925271e+02
  -2.405427e+02   6.160287e+02
  -5.243583e+02   1.650522e+02
  -4.095175e+02  -2.671653e+02
  -6.594167e+01  -3.848259e+02
   1.806411e+02  -2.172308e+02
   9.774075e+01  -2.514596e+01
  -1.846314e+02  -3.217423e+01
  -3.226113e+02  -2.278616e+02
  -5.247191e+01  -3.990131e+02
   4.614051e+02  -2.570975e+02
   6.999240e+02   1.458373e+02
   2.971827e+02   4.331091e+02
  -3.556904e+02   3.117765e+02
  -5.868054e+02  -9.785059e+01
  -2.231123e+02  -4.116844e+02
   2.865195e+02  -4.026493e+02
   4.883074e+02  -1.233897e+02
   3.331135e+02   2.090335e+02
   5.284411e+01   3.559851e+02
  -1.085663e+02   1.839203e+02
  -4.160895e+01  -1.542340e+02
   1.873461e+02  -2.509652e+02
   3.023483e+02   1.099250e+02
   8.354314e+01   5.643991e+02
  -2.730014e+02   5.227065e+02
  -4.498026e+02  -1.721328e+01
  -1.750805e+02  -4.049508e+02
   2.168559e+02  -2.053860e+02
   2.541985e+02   2.852448e+02
  -1.208800e+02   4.335441e+02
  -5.039133e+02   5.614830e+01
  -5.050526e+02  -4.189583e+02
  -1.107362e+02  -5.558215e+02
   3.556214e+02  -2.746645e+02
   5.488901e+02   1.007952e+02
   3.268110e+02   3.158670e+02
  -1.087787e+02   2.650306e+02
  -3.517290e+02   5.267173e+01
  -2.052731e+02  -1.109679e+02
   6.606341e+01  -6.472626e+01
   9.297230e+01   1.117041e+02
  -1.289803e+02   1.283536e+02
  -2.815052e+02  -5.395553e+01
  -1.389305e+02  -2.421344e+02
   1.739934e+02  -2.449820e+02
   3.312082e+02  -9.125123e+01
   2.289686e+02   1.112060e+02
  -4.077617e+01   2.700189e+02
  -2.601767e+02   3.316153e+02
  -3.388711e+02   1.609108e+02
  -2.499866e+02  -1.684452e+02
  -5.489509e+01  -3.813128e+02
   8.630065e+01  -3.234713e+02
   5.835744e+01  -1.236054e+02
   1.783220e+01  -4.066769e+01
   8.561618e+01  -1.044662e+02
   2.258581e+02  -9.037326e+01
   2.532460e+02   9.047269e+01
   1.154795e+02   2.637277e+02
  -8.950525e+01   2.155450e+02
  -2.083370e+02  -2.754672e+01
  -1.517745e+02  -2.377877e+02
   4.361510e+01  -2.574353e+02
   2.536939e+02  -6.900404e+01
   3.090329e+02   1.815834e+02
   1.514864e+02   3.253857e+02
  -9.911634e+01   2.710951e+02
  -2.091983e+02   1.135313e+02
  -1.496376e+02   2.101143e+01
  -1.090062e+02   5.077934e+01
  -2.405016e+02   6.540127e+01
  -4.011715e+02  -6.891989e+01
  -3.215682e+02  -2.983115e+02
   2.732918e+01  -4.461161e+02
   3.752947e+02  -3.820466e+02
   4.789348e+02  -1.517582e+02
   2.931056e+02   1.184836e+02
   1.941964e+01   2.701336e+02
  -1.231441e+02   2.095743e+02
  -4.752042e+01   3.289027e+01
   1.141253e+02  -6.897372e+01
   1.570107e+02   2.541826e+01
   1.549608e+01   1.665869e+02
  -1.278850e+02   1.466459e+02
  -1.358246e+02  -6.682046e+01
   4.111182e+01  -1.568408e+02
   1.825401e+02  -3.617547e+00
   1.496710e+02   2.506971e+02
  -4.584998e+01   3.381490e+02
  -2.486661e+02   1.796766e+02
  -3.361381e+02  -8.311378e+01
  -2.566627e+02  -2.692933e+02
  -5.688209e+01  -2.729472e+02
   1.311559e+02  -1.395661e+02
   1.573153e+02  -4.555900e+00
   4.452823e+01   2.540220e+01
  -5.536617e+01  -5.274334e+01
  -1.094464e+00  -1.140774e+02
   1.308295e+02  -6.978548e+01
   1.536777e+02   3.205511e+01
   3.240694e+01   6.850341e+01
  -8.281259e+01  -7.694161e+00
  -3.881265e+01  -9.312725e+01
   1.434691e+02  -8.488979e+01
   2.864771e+02   2.596157e+01
   2.436413e+02   1.692580e+02
   2.731708e+01   2.563377e+02
  -2.038690e+02   2.319943e+02
  -2.734141e+02   9.721269e+01
  -1.469747e+02  -5.360239e+01
   2.648645e+01  -9.019848e+01
   7.065491e+01   4.663022e+00
  -5.218909e+01   8.941956e+01
  -1.916277e+02   4.102854e+01
  -1.973163e+02  -1.192663e+02
  -5.341487e+01  -2.061044e+02
   9.909002e+01  -1.407568e+02
   1.349826e+02  -1.015499e+01
   5.268583e+01   4.249708e+01
  -3.560282e+01  -1.518822e+01
  -2.380037e+01  -1.021687e+02
   9.305805e+01  -1.089276e+02
   2.047674e+02  -4.302150e+00
   1.764692e+02   1.383801e+02
   2.842760e+00   2.097077e+02
  -1.639037e+02   1.459505e+02
  -1.806049e+02  -4.979635e+00
  -5.132188e+01  -1.087312e+02
   7.293952e+01  -9.968035e+01
   7.726734e+01  -1.834010e+01
   4.272872e+00   3.035196e+01
  -3.485795e+01   1.270831e+01
   9.768064e+00  -2.220824e+01
   8.197578e+01  -1.841261e+00
   9.516787e+01   8.581174e+01
   6.409101e+00   1.662915e+02
  -1.394382e+02   1.457177e+02
  -2.345658e+02   7.894683e+00
  -1.819915e+02  -1.657484e+02
  -1.639155e+01  -2.361170e+02
   1.204216e+02  -1.569734e+02
   1.372844e+02  -1.626573e+01
   6.899953e+01   5.498957e+01
   2.636737e+01   2.960978e+01
   4.844759e+01  -2.007123e+01
   8.114391e+01  -5.472614e+00
   4.972355e+01   5.554496e+01
  -4.505328e+01   9.326684e+01
  -1.140787e+02   6.082494e+01
  -9.246566e+01  -4.744476e+01
   2.377594e+01  -1.223569e+02
   1.587268e+02  -7.926704e+01
   1.981631e+02   7.377758e+01
   7.731973e+01   2.126653e+02
  -1.317436e+02   2.174745e+02
  -2.625659e+02   9.602153e+01
  -2.355357e+02  -9.619202e+01
  -9.148897e+01  -1.709500e+02
   4.288826e+01  -1.376893e+02
   8.798805e+01  -7.799062e+01
   7.502936e+01  -6.868735e+01
   6.440060e+01  -8.779368e+01
   9.622394e+01  -6.641291e+01
   1.276371e+02   2.894281e+01
   1.035491e+02   1.558838e+02
   7.842414e+00   2.158368e+02
  -1.080491e+02   1.515060e+02
  -1.691157e+02   1.649669e-02
  -1.174136e+02  -1.292193e+02
  -3.273195e-01  -1.515696e+02
   7.582208e+01  -7.499750e+01
   5.839897e+01   1.411502e+01
  -3.172089e+00   4.888174e+01
  -1.851161e+01   2.919714e+01
   3.158806e+01   1.226323e+01
   7.659969e+01   2.320225e+01
   4.146661e+01   4.426028e+01
  -7.191112e+01   3.763928e+01
  -1.604013e+02  -1.057126e+00
  -1.311470e+02  -6.301688e+01
  -1.445847e+00  -9.508806e+01
   1.241475e+02  -6.874610e+01
   1.388746e+02   2.767336e+00
   4.021331e+01   5.217596e+01
  -6.304632e+01   3.904814e+01
  -7.935371e+01  -1.518370e+01
  -1.061068e+01  -7.092172e+01
   5.098606e+01  -5.700298e+01
   6.682983e+01   3.938800e+00
   4.808298e+01   5.161297e+01
   3.909942e+01   3.786422e+01
   4.970424e+01  -2.150274e+00
   6.398016e+01  -1.666235e+00
   4.467114e+01   7.377152e+01
  -3.015599e+01   1.466008e+02
  -1.267806e+02   1.361357e+02
  -1.775144e+02   1.797352e+01
  -1.218613e+02  -1.016145e+02
   4.192360e+00  -1.293085e+02
   9.303402e+01  -6.089415e+01
   5.971707e+01   1.552294e+01
  -5.575328e+01   1.958430e+01
  -1.282501e+02  -4.518796e+01
  -6.330992e+01  -1.073622e+02
   9.099148e+01  -1.077203e+02
   1.920664e+02  -4.044037e+01
   1.569129e+02   4.709033e+01
   2.593171e+01   9.156133e+01
  -6.645152e+01   6.273399e+01
  -4.425258e+01   6.447764e-01
   4.272977e+01  -2.628225e+01
   8.778489e+01   2.654948e+01
   2.763794e+01   1.156871e+02
  -8.996537e+01   1.452183e+02
  -1.580376e+02   5.528535e+01
  -1.194918e+02  -9.867339e+01
  -8.440391e+00  -1.844813e+02
   8.164911e+01  -1.284475e+02
   9.718707e+01   1.753670e+01
   5.024439e+01   1.179030e+02
  -1.256024e+01   9.406520e+01
  -4.767899e+01   1.032859e+01
  -4.369175e+01  -3.188745e+01
  -1.708455e+01  -2.767763e+00
  -5.839295e+00   2.090069e+01
  -2.693927e+01  -1.998525e+01
  -5.289647e+01  -9.103227e+01
  -2.992969e+01  -1.057517e+02
   5.850392e+01  -3.931697e+01
   1.346922e+02   4.488150e+01
   1.156661e+02   7.649362e+01
   8.154136e+00   5.358119e+01
  -8.943658e+01   2.155766e+01
  -8.784403e+01   7.128548e-01
  -1.167949e+01  -1.190764e+01
   3.743083e+01  -1.983880e+01
   1.776258e+01  -1.175036e+01
  -1.923340e+01   2.177447e+00
   3.831709e+00   5.714783e+00
   6.719966e+01  -3.755458e-01
   8.889445e+01   2.225947e+01
   1.299244e+01   8.075824e+01
  -1.059675e+02   1.144019e+02
  -1.839881e+02   5.539594e+01
  -1.437205e+02  -6.613785e+01
  -2.622655e+01  -1.599031e+02
   8.192266e+01  -1.499389e+02
   1.158197e+02  -5.793896e+01
   7.530350e+01   2.422571e+01
   2.156395e+01   3.935565e+01
  -2.462196e-02   1.230547e+01
   1.292750e+01   8.140758e+00
   3.207605e+01   4.720668e+01
   1.550952e+01   8.780968e+01
  -3.332921e+01   6.552746e+01
  -7.581295e+01  -2.171922e+01
  -7.137577e+01  -1.060349e+02
  -3.456244e+00  -1.077703e+02
   7.853373e+01  -2.433440e+01
   9.930339e+01   7.116814e+01
   2.994677e+01   1.022664e+02
  -6.660338e+01   5.659021e+01
  -9.705968e+01  -1.317965e+01
  -3.898443e+01  -5.691083e+01
   3.478133e+01  -5.529759e+01
   3.669024e+01  -2.565332e+01
  -2.694875e+01   5.395625e+00
  -6.633841e+01   8.025998e+00
  -1.509670e+01  -2.861086e+01
   7.890820e+01  -6.522738e+01
   1.171125e+02  -5.568620e+01
   6.988742e+01   1.588685e+01
  -1.340558e+01   8.196552e+01
  -5.497063e+01   8.000846e+01
  -4.039457e+01   9.139925e+00
  -1.319882e+00  -4.990884e+01
   2.490299e+01  -4.045027e+01
   3.357353e+01   1.646398e+01
   2.249472e+01   5.335384e+01
  -4.269646e+00   3.269842e+01
  -3.123459e+01  -9.503510e+00
  -3.650678e+01  -2.389540e+01
  -1.945726e+01  -1.294794e+00
   1.210627e+00   1.935875e+01
   4.869362e+00   4.482922e+00
  -8.713244e-01  -3.513713e+01
   7.357544e+00  -5.046133e+01
   2.923345e+01  -1.592458e+01
   3.437332e+01   3.981144e+01
   3.819244e+00   5.810299e+01
  -4.370780e+01   1.980244e+01
  -5.842716e+01  -3.959995e+01
  -1.166795e+01  -6.248381e+01
   6.066617e+01  -3.308498e+01
   9.195080e+01   1.606300e+01
   4.649986e+01   4.444822e+01
  -3.258540e+01   4.190519e+01
  -6.564807e+01   2.209588e+01
  -2.282176e+01   3.551643e+00
   3.485715e+01  -4.689520e-01
   3.413922e+01   1.208103e+01
  -2.816422e+01   2.826657e+01
  -8.392989e+01   1.774004e+01
