
 $NMID
 id='ANONYMOUS ', fmtdat='(2E16.6)'
 volume=1.0
 tramp=1.0
 $END
   3.550099e+03   1.604600e+02
   1.982786e+03   2.319564e+03
  -4.963412e+02   2.142605e+03
  -1.597901e+03   7.500206e+02
  -7.538588e+02  -2.583950e+02
   3.643998e+02  -3.094306e+02
   6.094727e+02   3.731161e+02
  -1.821832e+01   8.048158e+02
  -6.779805e+02   5.870273e+02
  -7.632328e+02  -8.407312e+01
  -3.167696e+02  -7.248887e+02
   1.854072e+02  -6.998329e+02
   4.628542e+02  -6.301474e+01
   2.505525e+02   5.657811e+02
  -1.964414e+02   6.303662e+02
  -4.816800e+02  -3.418922e+01
  -2.294499e+02  -5.974474e+02
   2.599023e+02  -5.844460e+02
   5.271679e+02  -1.361223e+02
   3.861046e+02   2.791412e+02
   5.140931e+01   3.857995e+02
  -1.941139e+02   2.154465e+02
  -1.147484e+02   2.366688e+01
   1.778317e+02   2.536933e+01
   3.255794e+02   2.408563e+02
   3.639950e+01   4.201231e+02
  -5.047940e+02   2.490454e+02
  -7.051717e+02  -1.790941e+02
  -2.673986e+02  -4.839676e+02
   4.046612e+02  -3.103298e+02
   6.156258e+02   1.352065e+02
   2.166739e+02   4.558222e+02
  -3.254058e+02   4.133087e+02
  -5.255084e+02   1.028350e+02
  -3.344628e+02  -2.364971e+02
  -2.641851e+01  -3.705882e+02
   1.315618e+02  -1.749913e+02
   4.137807e+01   1.570290e+02
  -2.187076e+02   2.352490e+02
  -2.979608e+02  -1.352072e+02
  -3.624520e+01  -5.646138e+02
   3.221859e+02  -4.913748e+02
   4.424118e+02   6.720968e+01
   1.289507e+02   4.272952e+02
  -2.421823e+02   1.878540e+02
  -2.407806e+02  -3.139836e+02
   1.390362e+02  -4.302126e+02
   4.858867e+02  -3.367295e+01
   4.699990e+02   4.331063e+02
   7.716036e+01   5.485823e+02
  -3.752367e+02   2.577423e+02
  -5.446421e+02  -1.332170e+02
  -3.063973e+02  -3.403214e+02
   1.435876e+02  -2.590017e+02
   3.599623e+02  -4.182131e+01
   1.989512e+02   1.122797e+02
  -7.840862e+01   5.268331e+01
  -8.450001e+01  -1.132855e+02
   1.491936e+02  -1.121600e+02
   2.837513e+02   8.461845e+01
   1.238031e+02   2.560727e+02
  -1.891164e+02   2.382423e+02
  -3.468381e+02   7.703895e+01
  -2.330586e+02  -1.128167e+02
   3.869497e+01  -2.750051e+02
   2.731611e+02  -3.290200e+02
   3.505061e+02  -1.317670e+02
   2.259590e+02   1.951126e+02
   1.065289e+01   3.846063e+02
  -1.204313e+02   2.935320e+02
  -6.375646e+01   9.348915e+01
  -9.556905e+00   3.326524e+01
  -8.678331e+01   1.100441e+02
  -2.332478e+02   8.376176e+01
  -2.559462e+02  -1.024145e+02
  -1.030012e+02  -2.775670e+02
   1.066181e+02  -2.230094e+02
   2.179298e+02   3.279806e+01
   1.532889e+02   2.530854e+02
  -5.479460e+01   2.652657e+02
  -2.680932e+02   5.983385e+01
  -3.099338e+02  -2.000272e+02
  -1.389261e+02  -3.268092e+02
   1.071103e+02  -2.623668e+02
   2.070360e+02  -1.062782e+02
   1.442587e+02  -2.570144e+01
   1.149618e+02  -6.006179e+01
   2.545302e+02  -5.979272e+01
   4.078261e+02   9.160409e+01
   3.164790e+02   3.213462e+02
  -4.310612e+01   4.538725e+02
  -3.945540e+02   3.794862e+02
  -4.997275e+02   1.315454e+02
  -2.962579e+02  -1.372241e+02
  -5.222142e+00  -2.777656e+02
   1.391056e+02  -1.994991e+02
   5.166230e+01  -2.609664e+01
  -1.157697e+02   6.302941e+01
  -1.505383e+02  -3.592928e+01
  -4.719291e+00  -1.586459e+02
   1.358793e+02  -1.283576e+02
   1.266004e+02   7.518480e+01
  -5.084292e+01   1.519926e+02
  -1.824886e+02  -3.815960e+00
  -1.505002e+02  -2.519163e+02
   4.647311e+01  -3.403602e+02
   2.529745e+02  -1.848408e+02
   3.420609e+02   8.618542e+01
   2.531597e+02   2.785101e+02
   4.647424e+01   2.817898e+02
  -1.377034e+02   1.331362e+02
  -1.564700e+02  -4.679141e+00
  -3.799353e+01  -2.428623e+01
   5.621674e+01   6.162155e+01
  -4.664846e+00   1.218042e+02
  -1.333813e+02   6.384022e+01
  -1.522876e+02  -4.054923e+01
  -2.814217e+01  -7.114674e+01
   8.492496e+01   6.667801e+00
   4.188791e+01   9.127549e+01
  -1.421366e+02   8.243200e+01
  -2.881618e+02  -3.149643e+01
  -2.439276e+02  -1.743721e+02
  -2.235155e+01  -2.599764e+02
   2.165799e+02  -2.280144e+02
   2.795168e+02  -8.822934e+01
   1.447296e+02   6.404788e+01
  -3.281943e+01   8.985678e+01
  -7.191573e+01  -6.207039e+00
   5.612368e+01  -8.549389e+01
   1.916070e+02  -2.947566e+01
   1.880760e+02   1.269129e+02
   4.271827e+01   2.059072e+02
  -1.061679e+02   1.367373e+02
  -1.361228e+02   4.300817e+00
  -5.285728e+01  -4.738893e+01
   3.716607e+01   1.348634e+01
   2.336499e+01   1.022496e+02
  -9.449190e+01   1.109718e+02
  -2.066725e+02   1.946633e+00
  -1.731837e+02  -1.456038e+02
   5.117585e+00  -2.134766e+02
   1.696406e+02  -1.431173e+02
   1.819107e+02   1.130570e+01
   4.818001e+01   1.117398e+02
  -7.459880e+01   9.878723e+01
  -7.808917e+01   1.583473e+01
  -3.267606e+00  -3.095104e+01
   3.748802e+01  -1.200493e+01
  -7.984307e+00   2.371653e+01
  -8.163229e+01   1.348670e+00
  -9.623195e+01  -8.906508e+01
  -4.435155e+00  -1.687126e+02
   1.461835e+02  -1.405186e+02
   2.373102e+02   5.473165e+00
   1.752975e+02   1.736405e+02
   7.616039e+00   2.346268e+02
  -1.257942e+02   1.507157e+02
  -1.357775e+02   1.210512e+01
  -6.693702e+01  -5.570704e+01
  -2.448009e+01  -3.051690e+01
  -4.771037e+01   1.681137e+01
  -8.080562e+01   2.707851e+00
  -4.852749e+01  -5.474809e+01
   4.529534e+01  -8.877986e+01
   1.143896e+02  -5.611502e+01
   9.095739e+01   4.606643e+01
  -2.604405e+01   1.179055e+02
  -1.559635e+02   7.471814e+01
  -1.919956e+02  -7.318349e+01
  -6.851826e+01  -2.077470e+02
   1.376604e+02  -2.070608e+02
   2.668452e+02  -8.886166e+01
   2.337458e+02   1.030669e+02
   8.185525e+01   1.775416e+02
  -5.293745e+01   1.395165e+02
  -9.600062e+01   7.178579e+01
  -7.865310e+01   6.026822e+01
  -6.559397e+01   8.002340e+01
  -9.594029e+01   6.182949e+01
  -1.245295e+02  -3.119505e+01
  -9.940722e+01  -1.548023e+02
  -4.416024e+00  -2.167952e+02
   1.129808e+02  -1.493672e+02
   1.697312e+02   5.555060e+00
   1.169379e+02   1.329904e+02
  -4.975188e+00   1.523509e+02
  -8.139051e+01   7.534213e+01
  -6.254911e+01  -1.307842e+01
   2.412952e+00  -4.928351e+01
   2.096836e+01  -3.382918e+01
  -2.818410e+01  -1.753397e+01
  -7.476390e+01  -2.650302e+01
  -4.123757e+01  -4.224812e+01
   7.114228e+01  -3.399771e+01
   1.611447e+02   7.166186e+00
   1.318597e+02   6.844823e+01
  -2.545388e+00   9.565799e+01
  -1.314791e+02   6.687936e+01
  -1.429417e+02  -6.823445e+00
  -4.224333e+01  -5.362288e+01
   5.903859e+01  -3.958821e+01
   7.389901e+01   1.488483e+01
   1.013071e+01   6.983366e+01
  -4.908556e+01   5.620894e+01
  -6.388619e+01  -4.620949e+00
  -4.582571e+01  -5.106286e+01
  -3.905048e+01  -3.737133e+01
  -5.124846e+01   2.718317e+00
  -6.292248e+01  -1.534913e-02
  -3.941255e+01  -7.313644e+01
   3.428901e+01  -1.441708e+02
   1.246906e+02  -1.340500e+02
   1.729598e+02  -1.524853e+01
   1.187252e+02   1.049019e+02
  -6.300857e+00   1.315000e+02
  -9.377209e+01   6.055779e+01
  -6.019791e+01  -1.719352e+01
   5.605490e+01  -2.090024e+01
   1.272601e+02   4.370553e+01
   6.255434e+01   1.085516e+02
  -9.375010e+01   1.070579e+02
  -1.952503e+02   3.645399e+01
  -1.550503e+02  -5.216187e+01
  -2.371600e+01  -9.272640e+01
   6.806080e+01  -6.140104e+01
   4.548225e+01  -1.653362e+00
  -4.314182e+01   2.430619e+01
  -8.686556e+01  -2.996252e+01
  -2.301935e+01  -1.177455e+02
   9.857693e+01  -1.409765e+02
   1.631015e+02  -4.796885e+01
   1.160018e+02   1.052724e+02
   2.937717e+00   1.885564e+02
  -8.706272e+01   1.300359e+02
  -1.014143e+02  -1.743838e+01
  -5.192112e+01  -1.215300e+02
   1.213696e+01  -9.805394e+01
   5.050131e+01  -1.293012e+01
   4.555512e+01   3.401078e+01
   1.861538e+01   6.981447e+00
   8.662370e+00  -1.975764e+01
   2.838863e+01   1.925689e+01
   4.880616e+01   9.289717e+01
   2.188821e+01   1.087477e+02
  -6.016956e+01   4.081579e+01
  -1.311162e+02  -4.559215e+01
  -1.130059e+02  -7.803094e+01
  -1.087289e+01  -5.587066e+01
   8.705294e+01  -1.964007e+01
   8.583900e+01   5.221323e+00
   1.131425e+01   1.422269e+01
  -3.814643e+01   1.814672e+01
  -1.903740e+01   1.103062e+01
   1.860108e+01  -8.539846e-01
  -3.150693e+00  -5.313776e+00
  -6.720054e+01  -2.174290e+00
  -8.747087e+01  -2.535602e+01
  -1.240970e+01  -7.888229e+01
   1.082835e+02  -1.096349e+02
   1.833669e+02  -5.519117e+01
   1.432348e+02   6.413170e+01
   2.653986e+01   1.591615e+02
  -8.215026e+01   1.500965e+02
  -1.159217e+02   5.838220e+01
  -7.539148e+01  -2.610559e+01
  -2.107787e+01  -4.001977e+01
  -1.904953e-01  -1.139074e+01
  -1.322529e+01  -6.798680e+00
  -2.913843e+01  -4.839534e+01
  -1.216969e+01  -8.900723e+01
   3.565587e+01  -6.561021e+01
   7.488889e+01   2.591044e+01
   6.712783e+01   1.102318e+02
   1.558204e+00   1.072576e+02
  -7.892799e+01   2.025344e+01
  -9.780973e+01  -7.679213e+01
  -2.606905e+01  -1.046317e+02
   7.015230e+01  -5.379809e+01
   9.975423e+01   1.804171e+01
   3.947784e+01   5.806806e+01
  -3.716400e+01   5.531433e+01
  -3.885016e+01   2.520185e+01
   2.784126e+01  -3.072989e+00
   6.590241e+01  -4.254359e+00
   1.291076e+01   3.012434e+01
  -8.329419e+01   6.086686e+01
  -1.184545e+02   4.747546e+01
  -6.802153e+01  -2.175366e+01
   1.795133e+01  -8.079007e+01
   5.918705e+01  -7.552455e+01
   4.113176e+01  -7.672471e+00
  -7.710059e-01   5.034871e+01
  -2.654266e+01   4.142210e+01
  -3.302332e+01  -1.567311e+01
  -2.107438e+01  -5.459392e+01
   3.497678e+00  -3.419241e+01
   2.947103e+01   8.547000e+00
   3.603251e+01   2.468878e+01
   2.162733e+01   3.257191e+00
  -2.803080e-01  -1.698768e+01
  -6.576564e+00  -2.580179e+00
  -2.803975e+00   3.338800e+01
  -8.828510e+00   4.676506e+01
  -2.765019e+01   1.271630e+01
  -3.181438e+01  -3.979923e+01
  -2.333820e+00  -5.691379e+01
   4.323882e+01  -1.885367e+01
   5.738988e+01   3.831752e+01
   1.144855e+01   6.200310e+01
  -5.798370e+01   3.142437e+01
  -8.743053e+01  -1.721439e+01
  -4.470133e+01  -4.403969e+01
   3.122031e+01  -3.983296e+01
   6.296481e+01  -1.821926e+01
   2.472356e+01  -2.288806e+00
  -3.115623e+01  -1.097411e+00
  -3.157211e+01  -1.229200e+01
   2.786114e+01  -2.635037e+01
   8.226365e+01  -1.222008e+01
