
 $NMID
 id='ANONYMOUS ', fmtdat='(2E16.6)'
 volume=1.0
 tramp=1.0
 $END
   3.605720e+03   2.399911e+02
   2.007181e+03   2.141159e+03
  -4.449861e+02   2.147439e+03
  -1.598665e+03   7.932057e+02
  -7.887231e+02  -2.385468e+02
   3.278798e+02  -2.694769e+02
   5.595450e+02   3.198560e+02
  -4.214434e+01   7.621633e+02
  -6.361750e+02   5.855550e+02
  -7.019392e+02  -7.722861e+01
  -3.519417e+02  -7.244473e+02
   1.744183e+02  -6.945872e+02
   4.447542e+02  -7.929168e+01
   2.594284e+02   5.625389e+02
  -1.670270e+02   6.303330e+02
  -4.599904e+02  -3.489504e+00
  -2.021022e+02  -5.573138e+02
   2.588627e+02  -5.540087e+02
   4.823697e+02  -1.295967e+02
   3.508823e+02   2.615536e+02
   1.873017e+01   3.570025e+02
  -1.672790e+02   2.093588e+02
  -1.015931e+02   2.266542e+01
   2.043663e+02   1.129553e+01
   3.296131e+02   2.188872e+02
   4.640855e+01   4.174159e+02
  -4.919665e+02   2.665418e+02
  -7.001192e+02  -1.829887e+02
  -2.641059e+02  -4.779069e+02
   3.769601e+02  -3.185154e+02
   5.818157e+02   1.261686e+02
   2.172405e+02   4.305140e+02
  -2.848852e+02   4.082941e+02
  -4.853484e+02   1.224711e+02
  -3.250351e+02  -2.124804e+02
  -4.343283e+01  -3.706236e+02
   1.240103e+02  -1.834306e+02
   5.004786e+01   1.902113e+02
  -1.965570e+02   2.644064e+02
  -3.226578e+02  -1.035050e+02
  -8.186613e+01  -5.612089e+02
   3.125725e+02  -5.141453e+02
   4.321189e+02   3.271686e+01
   1.369553e+02   4.207774e+02
  -2.439417e+02   1.954098e+02
  -2.667760e+02  -3.067562e+02
   1.089550e+02  -4.391545e+02
   4.826549e+02  -7.415881e+01
   4.931810e+02   3.679347e+02
   1.159458e+02   4.979874e+02
  -3.311954e+02   2.730137e+02
  -5.137336e+02  -8.013649e+01
  -3.037615e+02  -3.072790e+02
   1.071577e+02  -2.599632e+02
   3.326324e+02  -3.626163e+01
   1.956592e+02   1.246027e+02
  -6.264345e+01   4.335177e+01
  -7.577026e+01  -1.138180e+02
   1.518322e+02  -1.030574e+02
   2.627352e+02   9.328480e+01
   9.613526e+01   2.543071e+02
  -1.859185e+02   2.211208e+02
  -3.065122e+02   7.194492e+01
  -2.123580e+02  -9.638987e+01
   2.484078e+01  -2.578004e+02
   2.505957e+02  -3.244475e+02
   3.410144e+02  -1.695199e+02
   2.388085e+02   1.580970e+02
   4.521743e+01   3.715133e+02
  -7.900663e+01   3.025658e+02
  -5.754517e+01   1.135149e+02
  -8.668058e+00   4.786519e+01
  -8.535067e+01   1.102140e+02
  -2.259465e+02   8.502005e+01
  -2.459628e+02  -9.638242e+01
  -9.495288e+01  -2.589804e+02
   1.037893e+02  -2.104651e+02
   2.051240e+02   3.292388e+01
   1.480118e+02   2.535304e+02
  -4.432584e+01   2.645685e+02
  -2.524323e+02   6.970908e+01
  -3.083394e+02  -1.787832e+02
  -1.477481e+02  -3.050369e+02
   8.432311e+01  -2.405234e+02
   1.777815e+02  -1.007333e+02
   1.293058e+02  -3.021768e+01
   1.046883e+02  -6.093240e+01
   2.279390e+02  -6.589887e+01
   3.693043e+02   7.633822e+01
   2.958692e+02   2.848333e+02
  -2.151276e+01   4.039314e+02
  -3.472703e+02   3.597183e+02
  -4.424594e+02   1.527042e+02
  -2.814056e+02  -1.029324e+02
  -1.841275e+01  -2.564190e+02
   1.116296e+02  -1.916562e+02
   4.461114e+01  -2.269591e+01
  -1.146950e+02   6.397306e+01
  -1.508346e+02  -3.335046e+01
  -1.400136e+01  -1.591721e+02
   1.270051e+02  -1.428639e+02
   1.303553e+02   6.045176e+01
  -3.322881e+01   1.547244e+02
  -1.630861e+02   5.702055e+00
  -1.278592e+02  -2.344139e+02
   4.280958e+01  -3.129753e+02
   2.204310e+02  -1.693616e+02
   3.041932e+02   6.873573e+01
   2.427804e+02   2.351063e+02
   6.461411e+01   2.534602e+02
  -1.191612e+02   1.384604e+02
  -1.561039e+02   5.688010e+00
  -4.764376e+01  -2.754003e+01
   5.788031e+01   4.814554e+01
   9.978937e+00   1.148247e+02
  -1.203302e+02   7.417612e+01
  -1.572132e+02  -2.680961e+01
  -3.894956e+01  -6.752644e+01
   8.011762e+01  -5.754770e+00
   4.502215e+01   7.843605e+01
  -1.315877e+02   7.936034e+01
  -2.797992e+02  -1.880271e+01
  -2.393488e+02  -1.564659e+02
  -2.796245e+01  -2.499569e+02
   2.004079e+02  -2.293598e+02
   2.666882e+02  -9.315019e+01
   1.400085e+02   5.850811e+01
  -3.117663e+01   9.211786e+01
  -7.642511e+01  -4.621920e+00
   4.294513e+01  -8.375222e+01
   1.744814e+02  -3.619367e+01
   1.781807e+02   9.923046e+01
   4.515819e+01   1.836316e+02
  -9.542240e+01   1.287758e+02
  -1.302680e+02   1.118338e+01
  -5.086393e+01  -4.266187e+01
   3.658284e+01   7.389981e+00
   2.919586e+01   9.112712e+01
  -8.501622e+01   1.075475e+02
  -1.950512e+02   1.186639e+01
  -1.687724e+02  -1.339737e+02
  -2.374285e+00  -2.046158e+02
   1.605933e+02  -1.388889e+02
   1.717687e+02   5.985424e+00
   5.202031e+01   1.027446e+02
  -6.229170e+01   9.341224e+01
  -7.245890e+01   1.994910e+01
  -1.066538e+01  -2.297270e+01
   2.881299e+01  -1.201330e+01
  -7.721487e+00   1.631156e+01
  -7.465853e+01  -2.954179e+00
  -8.871874e+01  -8.037251e+01
  -7.360207e+00  -1.576419e+02
   1.308055e+02  -1.377954e+02
   2.225864e+02  -9.381567e+00
   1.785694e+02   1.508539e+02
   2.424837e+01   2.150583e+02
  -1.067764e+02   1.452326e+02
  -1.222363e+02   1.800475e+01
  -6.203083e+01  -4.920998e+01
  -2.680423e+01  -2.772892e+01
  -4.949181e+01   2.070009e+01
  -7.637214e+01   4.685805e+00
  -4.790895e+01  -5.084737e+01
   3.490022e+01  -9.421819e+01
   1.024722e+02  -5.620442e+01
   8.682890e+01   3.506713e+01
  -1.629031e+01   1.071535e+02
  -1.400184e+02   7.658958e+01
  -1.814476e+02  -5.968713e+01
  -8.111512e+01  -1.928893e+02
   1.123052e+02  -2.069400e+02
   2.533671e+02  -1.028130e+02
   2.318060e+02   9.004827e+01
   8.826702e+01   1.674692e+02
  -4.285377e+01   1.344691e+02
  -8.892492e+01   7.611588e+01
  -7.045622e+01   6.018212e+01
  -5.868202e+01   8.356607e+01
  -8.437888e+01   6.668288e+01
  -1.196158e+02  -2.313565e+01
  -1.087993e+02  -1.442452e+02
  -1.984772e+01  -2.083495e+02
   9.465310e+01  -1.514940e+02
   1.585334e+02  -8.131221e+00
   1.176167e+02   1.202555e+02
   8.202034e+00   1.470876e+02
  -7.229845e+01   7.856142e+01
  -6.023756e+01  -1.150448e+01
  -3.099856e-01  -4.870149e+01
   1.955697e+01  -3.699472e+01
  -2.821380e+01  -1.444222e+01
  -7.305216e+01  -1.147355e+01
  -4.100298e+01  -3.213380e+01
   6.047101e+01  -3.433949e+01
   1.492850e+02  -4.676360e+00
   1.271219e+02   5.257077e+01
   5.104176e+00   8.880910e+01
  -1.202147e+02   6.759623e+01
  -1.350023e+02   3.335101e+00
  -4.198046e+01  -4.628994e+01
   5.803985e+01  -3.735809e+01
   7.213906e+01   1.786439e+01
   8.262430e+00   6.647091e+01
  -4.887286e+01   5.348849e+01
  -6.054122e+01  -3.946680e+00
  -4.404840e+01  -4.751189e+01
  -4.166142e+01  -3.780205e+01
  -5.413462e+01  -2.466490e+00
  -6.189357e+01  -4.488024e+00
  -3.661243e+01  -6.758672e+01
   3.259856e+01  -1.373050e+02
   1.193483e+02  -1.270972e+02
   1.605390e+02  -2.420264e+01
   1.132051e+02   9.154307e+01
  -2.208517e+00   1.215698e+02
  -8.617888e+01   5.830543e+01
  -5.615703e+01  -1.588865e+01
   5.605146e+01  -1.774163e+01
   1.243206e+02   4.659569e+01
   5.909299e+01   1.060492e+02
  -8.232950e+01   1.022864e+02
  -1.781643e+02   3.765995e+01
  -1.482185e+02  -4.357689e+01
  -2.948398e+01  -8.275404e+01
   5.974780e+01  -5.951559e+01
   4.532787e+01  -1.557735e+00
  -3.908042e+01   2.547877e+01
  -8.492419e+01  -2.459017e+01
  -2.813073e+01  -1.108912e+02
   8.769631e+01  -1.409520e+02
   1.498890e+02  -5.553254e+01
   1.134500e+02   9.312047e+01
   4.938508e+00   1.766129e+02
  -7.974162e+01   1.245288e+02
  -9.490869e+01  -1.411732e+01
  -4.620726e+01  -1.129876e+02
   1.261028e+01  -9.362382e+01
   4.811223e+01  -1.426877e+01
   4.522412e+01   3.151094e+01
   2.018538e+01   7.477751e+00
   5.869762e+00  -1.568607e+01
   2.482087e+01   1.883615e+01
   4.988436e+01   8.511674e+01
   2.765088e+01   9.577830e+01
  -5.379353e+01   3.911793e+01
  -1.278652e+02  -3.780845e+01
  -1.120850e+02  -6.817334e+01
  -1.095611e+01  -4.667598e+01
   7.924295e+01  -1.786636e+01
   7.484936e+01  -2.245226e+00
   9.428606e+00   7.522539e+00
  -3.440063e+01   1.671479e+01
  -1.464807e+01   1.297494e+01
   1.750878e+01  -1.076562e-01
  -4.608186e+00  -5.976711e+00
  -6.381460e+01  -2.320595e+00
  -8.208673e+01  -2.331878e+01
  -1.058981e+01  -7.508550e+01
   1.033191e+02  -1.029140e+02
   1.658647e+02  -5.044733e+01
   1.278865e+02   5.929165e+01
   1.903443e+01   1.455410e+02
  -7.620471e+01   1.371554e+02
  -1.028049e+02   5.338820e+01
  -6.929913e+01  -2.244461e+01
  -2.340497e+01  -3.591286e+01
  -2.640662e+00  -1.138395e+01
  -1.374523e+01  -6.296766e+00
  -2.540008e+01  -4.720939e+01
  -1.691198e+01  -8.504279e+01
   2.958070e+01  -6.642865e+01
   7.371833e+01   1.540911e+01
   7.173000e+01   9.279428e+01
   8.511533e+00   9.841894e+01
  -7.107596e+01   2.301738e+01
  -9.106476e+01  -6.194281e+01
  -2.934299e+01  -9.239914e+01
   5.943231e+01  -5.169093e+01
   8.993535e+01   1.020146e+01
   3.875444e+01   4.900156e+01
  -2.898103e+01   5.062907e+01
  -3.139957e+01   2.609157e+01
   2.687965e+01  -9.678905e-01
   6.329854e+01  -6.382344e+00
   1.381249e+01   2.465685e+01
  -7.246328e+01   6.145967e+01
  -1.091909e+02   5.249247e+01
  -6.225062e+01  -1.453413e+01
   1.200817e+01  -7.747160e+01
   5.031452e+01  -7.449739e+01
   3.689382e+01  -7.365713e+00
   2.053861e+00   4.994644e+01
  -2.497900e+01   3.994161e+01
  -3.403031e+01  -1.566858e+01
  -2.383917e+01  -5.080809e+01
   4.431645e+00  -3.348046e+01
   3.103898e+01   6.850021e+00
   3.834649e+01   2.137483e+01
   1.961106e+01   3.175976e+00
  -2.158206e+00  -1.520476e+01
  -5.966463e+00  -2.435937e+00
  -1.238500e+00   3.111147e+01
  -7.765778e+00   4.388608e+01
  -2.644008e+01   1.269113e+01
  -3.087805e+01  -3.599653e+01
  -4.105707e+00  -5.323740e+01
   3.819900e+01  -1.930379e+01
   5.415460e+01   3.333107e+01
   1.414023e+01   5.405139e+01
  -4.943641e+01   2.899484e+01
  -8.090949e+01  -1.138542e+01
  -4.508615e+01  -3.700026e+01
   2.564394e+01  -3.800077e+01
   5.829920e+01  -2.501854e+01
   2.339346e+01  -6.372755e+00
  -3.034478e+01   1.293656e+00
  -3.242708e+01  -9.113858e+00
   2.534538e+01  -2.548158e+01
   7.522287e+01  -1.940124e+01
