
 $NMID
 id='ANONYMOUS ', fmtdat='(2E16.6)'
 volume=1.0
 tramp=1.0
 $END
  -2.006574e+03  -2.789520e+02
  -9.218276e+02  -1.401638e+03
   5.168947e+02  -1.195278e+03
   1.051110e+03  -2.243156e+02
   3.477062e+02   3.393173e+02
  -3.338602e+02   1.663683e+02
  -3.632606e+02  -2.915922e+02
   1.053722e+02  -4.904558e+02
   4.378359e+02  -2.787928e+02
   3.629251e+02   1.261387e+02
   1.545867e+02   4.253482e+02
  -1.429605e+02   3.453733e+02
  -2.398437e+02   4.146975e+00
  -1.201126e+02  -3.088194e+02
   6.805934e+01  -3.228889e+02
   2.180376e+02   3.295602e+01
   4.139930e+01   2.775160e+02
  -1.823899e+02   2.135411e+02
  -2.336899e+02  -1.731859e+01
  -1.148960e+02  -1.637384e+02
   4.517389e+01  -1.808883e+02
   9.930650e+01  -8.649403e+01
   6.078278e+01  -1.902226e+01
  -7.742614e+01   1.045042e+01
  -1.465237e+02  -6.035068e+01
  -5.021571e+01  -1.820288e+02
   2.117031e+02  -1.535620e+02
   3.515805e+02   5.852269e+01
   1.582606e+02   2.326794e+02
  -1.797088e+02   1.680591e+02
  -2.943975e+02  -6.580100e+01
  -1.105855e+02  -2.045321e+02
   1.458177e+02  -1.794473e+02
   2.279392e+02  -4.959572e+01
   1.507892e+02   9.948820e+01
   2.822980e+01   1.822788e+02
  -4.280376e+01   1.015648e+02
  -5.338878e+01  -8.622363e+01
   7.156092e+01  -1.575158e+02
   1.737360e+02   2.126251e+01
   7.704446e+01   2.727250e+02
  -1.388375e+02   2.775442e+02
  -2.318486e+02  -7.852362e+00
  -8.377449e+01  -2.271550e+02
   1.147928e+02  -1.094482e+02
   1.366582e+02   1.518482e+02
  -5.925183e+01   2.022819e+02
  -2.189127e+02   1.634855e+01
  -2.159004e+02  -1.774450e+02
  -3.670537e+01  -2.169496e+02
   1.601963e+02  -1.045065e+02
   2.372415e+02   5.121689e+01
   1.352117e+02   1.612204e+02
  -8.004835e+01   1.369880e+02
  -1.896627e+02   1.220612e+01
  -1.099046e+02  -9.254577e+01
   3.811057e+01  -3.843400e+01
   4.125019e+01   6.222888e+01
  -9.085854e+01   5.004804e+01
  -1.304832e+02  -5.977401e+01
  -2.245307e+01  -1.295569e+02
   1.006936e+02  -7.659812e+01
   1.132125e+02   7.077773e+00
   4.683883e+01   3.194710e+01
  -3.154945e+01   6.016666e+01
  -9.199037e+01   1.151511e+02
  -1.389599e+02   8.438976e+01
  -1.091848e+02  -5.859113e+01
  -1.364821e+01  -1.983824e+02
   7.089980e+01  -1.575926e+02
   6.464849e+01  -3.159198e+01
   1.086146e+01   1.605111e+01
   1.627431e+01  -2.200631e+01
   8.009063e+01  -3.349293e+01
   9.963859e+01   3.979054e+01
   4.280868e+01   1.066171e+02
  -4.025763e+01   8.664253e+01
  -8.028262e+01  -1.624256e+01
  -6.280410e+01  -1.122465e+02
   1.421575e+01  -1.163644e+02
   1.082088e+02  -2.750251e+01
   1.390061e+02   8.847429e+01
   6.169813e+01   1.428141e+02
  -5.315958e+01   1.107252e+02
  -9.186993e+01   3.340543e+01
  -5.983937e+01  -7.233265e+00
  -4.452839e+01   3.556088e+00
  -9.136589e+01   1.282237e+01
  -1.434606e+02  -4.539127e+01
  -1.059563e+02  -1.196251e+02
   2.343487e+01  -1.506989e+02
   1.485893e+02  -1.341972e+02
   1.869461e+02  -7.071074e+01
   1.226028e+02   3.050576e+01
   5.468881e+00   1.129600e+02
  -6.165696e+01   1.025916e+02
  -3.180317e+01   1.995955e+01
   5.015868e+01  -3.045508e+01
   8.068373e+01   1.372769e+01
   9.643204e+00   7.497389e+01
  -6.717298e+01   8.636995e+01
  -6.876262e+01  -2.858151e+01
   1.010798e+01  -7.376384e+01
   6.400444e+01   1.705598e+00
   2.877171e+01   1.070154e+02
  -3.858863e+01   1.165373e+02
  -8.245746e+01   4.609025e+01
  -1.093478e+02  -4.299354e+01
  -9.360306e+01  -8.940879e+01
  -3.046206e+01  -1.018008e+02
   5.101894e+01  -5.677926e+01
   7.498044e+01  -3.033051e+00
   3.004822e+01   1.941273e+01
  -2.447485e+01  -1.269502e+01
  -1.228536e+01  -4.562242e+01
   4.953673e+01  -3.235805e+01
   7.224270e+01   6.505173e+00
   2.213832e+01   2.541625e+01
  -2.572256e+01   3.140721e+00
  -1.159356e+01  -2.200892e+01
   5.674628e+01  -1.112721e+01
   1.123327e+02   3.092872e+01
   8.887359e+01   7.084360e+01
   2.966352e+00   9.617981e+01
  -9.446980e+01   9.053532e+01
  -1.236485e+02   4.256491e+01
  -6.590237e+01  -1.886926e+01
   1.368285e+01  -4.159077e+01
   3.969646e+01  -3.560843e+00
  -1.551127e+01   3.055902e+01
  -7.574861e+01   1.303737e+01
  -8.340777e+01  -4.309819e+01
  -2.091498e+01  -8.031733e+01
   4.508184e+01  -5.509610e+01
   6.659355e+01  -5.808981e+00
   3.360697e+01   1.485770e+01
  -6.207337e+00  -3.414465e+00
  -6.964583e+00  -2.775645e+01
   3.485647e+01  -3.119516e+01
   7.798037e+01   5.200261e+00
   6.368239e+01   5.757090e+01
  -7.226438e+00   8.321317e+01
  -7.342195e+01   5.571160e+01
  -7.437165e+01  -5.150871e+00
  -2.063104e+01  -4.684362e+01
   2.589397e+01  -4.343160e+01
   2.891182e+01  -1.318155e+01
   9.170161e+00   4.199239e+00
  -6.312834e+00   6.903504e+00
   6.990521e+00   2.924089e+00
   2.471290e+01   1.044026e+01
   2.488066e+01   3.278484e+01
  -6.560991e+00   5.583994e+01
  -5.420782e+01   4.503747e+01
  -8.817194e+01  -1.298252e+00
  -6.857066e+01  -6.309570e+01
  -2.715958e+00  -8.647787e+01
   5.015884e+01  -5.838291e+01
   4.835233e+01  -4.489848e+00
   2.135200e+01   2.448839e+01
   1.083887e+01   1.600643e+01
   2.429352e+01  -7.756325e+00
   3.010083e+01  -5.847397e-01
   1.261779e+01   1.898491e+01
  -1.889749e+01   3.656748e+01
  -3.847267e+01   1.709887e+01
  -2.316204e+01  -1.252479e+01
   1.518437e+01  -3.436156e+01
   5.634305e+01  -2.103026e+01
   7.039508e+01   3.186313e+01
   2.690244e+01   8.355486e+01
  -5.434929e+01   8.330749e+01
  -1.181383e+02   4.814452e+01
  -1.009153e+02  -4.808391e+01
  -3.016550e+01  -7.563906e+01
   2.742029e+01  -5.618861e+01
   4.584358e+01  -3.064200e+01
   4.001193e+01  -2.457514e+01
   3.104956e+01  -3.304396e+01
   3.361001e+01  -2.181960e+01
   4.042158e+01   1.930872e+01
   3.675553e+01   6.554605e+01
   3.557757e+00   8.686785e+01
  -3.879587e+01   6.133591e+01
  -6.210415e+01   1.201005e+00
  -4.655916e+01  -5.223293e+01
  -4.190749e+00  -6.319837e+01
   2.637967e+01  -3.571470e+01
   2.079926e+01   8.814024e-01
  -5.049844e-01   1.629391e+01
  -3.076236e+00   1.901261e+01
   1.829937e+01   1.456868e+01
   3.131676e+01   9.256849e+00
   1.351754e+01   8.265087e+00
  -2.522170e+01   3.981245e+00
  -6.236361e+01  -3.147650e+00
  -5.184902e+01  -2.056253e+01
  -2.906840e+00  -2.724396e+01
   5.005086e+01  -1.873149e+01
   5.499593e+01  -1.731983e+00
   1.504655e+01   9.699385e+00
  -2.551294e+01   5.393030e+00
  -2.769267e+01  -9.362066e+00
   4.093852e+00  -2.405541e+01
   2.207147e+01  -1.792334e+01
   2.122850e+01   1.473025e+00
   1.729824e+01   1.865474e+01
   2.358672e+01   1.963394e+01
   2.849553e+01   9.139575e+00
   2.425267e+01   8.102043e+00
   3.698892e+00   3.002452e+01
  -2.921327e+01   4.935515e+01
  -5.568537e+01   3.989026e+01
  -6.046896e+01  -2.080314e+00
  -3.619490e+01  -4.093201e+01
   7.852374e+00  -4.269177e+01
   3.626806e+01  -1.642166e+01
   1.855083e+01   4.371190e+00
  -2.732357e+01  -3.503906e+00
  -5.054430e+01  -2.865334e+01
  -1.719659e+01  -4.533453e+01
   4.495063e+01  -3.732321e+01
   8.340995e+01  -8.919828e+00
   6.765984e+01   2.334941e+01
   1.223303e+01   3.782559e+01
  -2.875407e+01   2.757920e+01
  -1.999647e+01   4.486018e+00
   1.402638e+01  -3.824459e+00
   2.910566e+01   1.629938e+01
   3.347163e-01   4.455966e+01
  -4.707227e+01   4.851399e+01
  -6.147254e+01   1.379220e+01
  -3.969680e+01  -4.203614e+01
   6.738827e+00  -7.250216e+01
   3.614910e+01  -5.140922e+01
   3.880634e+01   4.108734e+00
   1.896352e+01   4.987009e+01
  -3.564745e+00   4.450717e+01
  -2.073950e+01   1.131549e+01
  -2.596934e+01  -1.317419e+01
  -1.817774e+01  -4.289254e+00
  -3.783864e+00   2.645426e+00
   1.491936e-01  -1.568057e+01
  -9.858035e+00  -4.312293e+01
  -1.136088e+01  -3.847911e+01
   1.263081e+01  -7.590372e+00
   4.709831e+01   2.685004e+01
   4.861256e+01   2.875245e+01
   8.135725e+00   1.222440e+01
  -3.357774e+01   1.733596e+00
  -3.190952e+01   4.571069e+00
  -2.575650e+00   2.315131e+00
   1.543984e+01  -6.711878e+00
   5.939781e+00  -9.101377e+00
  -7.718286e+00  -2.669107e+00
   3.551041e+00   6.228125e+00
   2.912253e+01   9.583215e+00
   3.082511e+01   1.417059e+01
  -4.516861e+00   2.954629e+01
  -5.286720e+01   3.510319e+01
  -7.109313e+01   1.481831e+01
  -4.820759e+01  -2.862087e+01
  -1.925008e+00  -5.905859e+01
   3.692003e+01  -5.412500e+01
   4.345663e+01  -1.965596e+01
   2.633151e+01   8.287696e+00
   6.579673e+00   1.272686e+01
  -1.429801e+00   5.350736e+00
   4.242862e+00   5.289199e+00
   8.313929e+00   2.406779e+01
   6.472967e+00   3.351996e+01
  -1.176134e+01   2.475724e+01
  -2.721757e+01  -9.570540e+00
  -2.746371e+01  -4.020562e+01
  -3.207375e+00  -4.127507e+01
   2.556289e+01  -5.221039e+00
   3.153761e+01   2.794352e+01
   7.934817e+00   3.574370e+01
  -2.410219e+01   1.329655e+01
  -3.309664e+01  -1.021456e+01
  -1.093339e+01  -1.931696e+01
   1.489983e+01  -1.719473e+01
   1.049142e+01  -1.162550e+01
  -1.559493e+01  -5.676102e+00
  -2.814485e+01  -2.431557e+00
  -7.205791e-01  -6.745928e+00
   3.650665e+01  -1.984319e+01
   4.481125e+01  -2.241475e+01
   2.147863e+01   6.476758e-01
  -8.112757e+00   2.808456e+01
  -1.941088e+01   3.361192e+01
  -1.223229e+01   3.931599e+00
   1.765756e+00  -2.070662e+01
   9.938436e+00  -1.500603e+01
   1.245767e+01   8.504516e+00
   9.680597e+00   2.140468e+01
  -6.266601e-01   1.231322e+01
  -1.165755e+01  -3.673232e+00
  -1.850955e+01  -7.829030e+00
  -1.301892e+01  -1.537048e+00
  -1.776014e+00   1.570865e+00
   6.421612e+00  -4.578936e+00
   1.096446e+01  -1.441557e+01
   1.168143e+01  -1.357060e+01
   1.153121e+01   2.012107e+00
   5.619123e+00   1.995757e+01
  -6.145633e+00   2.252434e+01
  -1.733537e+01   3.544816e+00
  -1.796054e+01  -1.826163e+01
   3.715463e-02  -2.345767e+01
   2.133348e+01  -6.231801e+00
   3.239264e+01   1.097089e+01
   1.672441e+01   1.714937e+01
  -1.325323e+01   1.132824e+01
  -2.560632e+01   5.796935e+00
  -7.498008e+00   2.920437e+00
   1.698145e+01   5.101133e+00
   1.536188e+01   8.064788e+00
  -1.371541e+01   9.177122e+00
  -3.704201e+01   4.953453e+00
