
 $NMID
 id='ANONYMOUS ', fmtdat='(2E16.6)'
 volume=1.0
 tramp=1.0
 $END
   2.487180e+03   4.393675e+02
   1.265195e+03   1.817228e+03
  -7.152345e+02   1.514744e+03
  -1.367969e+03   2.682719e+02
  -4.742141e+02  -4.826379e+02
   4.728641e+02  -2.089624e+02
   4.930939e+02   3.880863e+02
  -1.394666e+02   6.211872e+02
  -5.990478e+02   3.418969e+02
  -5.160667e+02  -1.850363e+02
  -1.938433e+02  -5.730849e+02
   2.353651e+02  -4.729022e+02
   3.764494e+02   1.597274e+01
   1.611528e+02   4.595762e+02
  -1.590315e+02   4.359320e+02
  -3.312290e+02  -6.199553e+01
  -7.060781e+01  -4.101478e+02
   2.517925e+02  -2.995485e+02
   3.291069e+02   2.871219e+01
   1.462094e+02   2.454412e+02
  -6.226480e+01   2.590534e+02
  -1.508467e+02   1.085282e+02
  -9.979450e+01  -1.240600e+01
   8.763155e+01  -3.583409e+01
   2.164794e+02   9.067944e+01
   8.830200e+01   2.678513e+02
  -2.884892e+02   2.088222e+02
  -4.782074e+02  -1.119517e+02
  -2.101765e+02  -3.600043e+02
   2.776430e+02  -2.350646e+02
   4.391337e+02   1.145433e+02
   1.543363e+02   3.204222e+02
  -2.221642e+02   2.629911e+02
  -3.511037e+02   5.679734e+01
  -2.258463e+02  -1.673000e+02
  -5.604950e+00  -2.790718e+02
   1.289613e+02  -1.424666e+02
   9.008457e+01   1.359041e+02
  -1.259784e+02   2.475594e+02
  -2.814786e+02  -4.703962e+01
  -1.021079e+02  -4.245051e+02
   2.464295e+02  -3.793169e+02
   3.639803e+02   5.700789e+01
   9.870403e+01   3.535602e+02
  -2.094162e+02   1.510924e+02
  -1.903201e+02  -2.346308e+02
   1.078304e+02  -2.958900e+02
   3.244080e+02  -9.984325e+00
   2.846869e+02   2.749166e+02
   2.931154e+01   3.300212e+02
  -2.566173e+02   1.511223e+02
  -3.416822e+02  -9.733330e+01
  -1.721733e+02  -2.674062e+02
   1.421491e+02  -2.157525e+02
   2.746390e+02  -1.041878e+01
   1.398489e+02   1.402886e+02
  -6.391395e+01   5.638899e+01
  -5.636510e+01  -9.995794e+01
   1.290558e+02  -7.948857e+01
   1.826810e+02   8.966075e+01
   3.451470e+01   1.897612e+02
  -1.443254e+02   1.200017e+02
  -1.706927e+02  -5.301523e+00
  -8.570421e+01  -6.288014e+01
   3.633915e+01  -1.037851e+02
   1.371902e+02  -1.612258e+02
   2.033448e+02  -9.999146e+01
   1.568519e+02   9.559320e+01
   2.373150e+00   2.656569e+02
  -1.109164e+02   2.078420e+02
  -8.430991e+01   3.478039e+01
  -7.054559e+00  -2.026646e+01
  -1.894602e+01   4.538755e+01
  -1.193924e+02   5.243926e+01
  -1.528704e+02  -5.824660e+01
  -6.255704e+01  -1.653068e+02
   7.030914e+01  -1.350210e+02
   1.322655e+02   1.507334e+01
   9.002557e+01   1.595225e+02
  -3.102558e+01   1.674463e+02
  -1.589907e+02   4.011874e+01
  -1.907241e+02  -1.255401e+02
  -8.316034e+01  -2.083498e+02
   8.069258e+01  -1.625992e+02
   1.348695e+02  -4.687194e+01
   8.429630e+01   1.479415e+01
   5.653050e+01  -7.651113e+00
   1.273586e+02  -1.914243e+01
   2.047731e+02   5.822709e+01
   1.531135e+02   1.832840e+02
  -3.101197e+01   2.374213e+02
  -2.210257e+02   2.012360e+02
  -2.785853e+02   7.741732e+01
  -1.813757e+02  -7.426286e+01
  -7.789404e+00  -1.728379e+02
   9.459743e+01  -1.367844e+02
   5.168906e+01  -9.508470e+00
  -7.090904e+01   4.791754e+01
  -1.143650e+02  -2.601973e+01
  -1.419956e+01  -1.165286e+02
   1.096255e+02  -1.076562e+02
   1.052055e+02   5.106598e+01
  -1.764323e+01   1.159548e+02
  -1.082299e+02   1.070373e+00
  -5.777948e+01  -1.551258e+02
   5.568860e+01  -1.859777e+02
   1.382245e+02  -7.908009e+01
   1.722955e+02   6.869060e+01
   1.361600e+02   1.497009e+02
   3.222806e+01   1.565900e+02
  -8.053307e+01   8.242401e+01
  -1.065007e+02  -1.282959e+00
  -3.693772e+01  -2.926359e+01
   3.833147e+01   2.382420e+01
   1.010835e+01   7.360200e+01
  -8.026799e+01   4.806643e+01
  -1.067008e+02  -2.134336e+01
  -2.691415e+01  -4.544562e+01
   4.811261e+01  -5.524882e+00
   2.382342e+01   4.010886e+01
  -7.827351e+01   2.586646e+01
  -1.536846e+02  -3.744719e+01
  -1.264700e+02  -1.033243e+02
  -4.125842e+00  -1.426065e+02
   1.337807e+02  -1.258472e+02
   1.754317e+02  -4.589844e+01
   9.381516e+01   4.628409e+01
  -2.272172e+01   6.580276e+01
  -5.812628e+01  -8.405679e-01
   2.419277e+01  -5.695320e+01
   1.150832e+02  -2.183856e+01
   1.175240e+02   7.368740e+01
   2.353646e+01   1.253279e+02
  -6.895524e+01   8.287480e+01
  -8.925787e+01   3.481105e+00
  -3.936725e+01  -2.939140e+01
   1.479666e+01   2.063534e-01
   1.267419e+01   4.422624e+01
  -4.863025e+01   5.029082e+01
  -1.135906e+02  -2.169580e+00
  -9.335662e+01  -8.422829e+01
   1.067543e+01  -1.233380e+02
   1.082230e+02  -7.791648e+01
   1.085988e+02   1.479699e+01
   2.734760e+01   7.127866e+01
  -4.174650e+01   5.836622e+01
  -4.306711e+01   9.810248e+00
  -1.103694e+01  -1.306008e+01
   9.771320e+00  -7.874161e+00
  -9.047753e+00   4.903527e-01
  -3.512872e+01  -1.300674e+01
  -3.618091e+01  -5.151827e+01
   9.425031e+00  -8.355995e+01
   7.973153e+01  -6.762278e+01
   1.276824e+02   5.412473e+00
   9.728157e+01   9.636323e+01
   2.206773e+00   1.291756e+02
  -7.659963e+01   8.372966e+01
  -7.532614e+01   2.808121e+00
  -3.150176e+01  -3.796213e+01
  -1.403737e+01  -2.551835e+01
  -3.310793e+01   4.720020e+00
  -4.255787e+01  -5.297085e+00
  -1.844610e+01  -3.018109e+01
   2.436173e+01  -4.837739e+01
   5.454292e+01  -2.080296e+01
   3.965855e+01   2.106079e+01
  -1.706286e+01   5.101306e+01
  -7.895038e+01   3.216529e+01
  -1.015705e+02  -4.311589e+01
  -3.798676e+01  -1.187826e+02
   7.898169e+01  -1.176530e+02
   1.603946e+02  -5.081517e+01
   1.345626e+02   7.199125e+01
   3.992011e+01   1.070864e+02
  -3.740884e+01   7.956215e+01
  -6.011357e+01   3.703147e+01
  -5.235892e+01   3.103089e+01
  -4.549747e+01   4.069466e+01
  -5.458670e+01   2.840805e+01
  -6.627339e+01  -2.477177e+01
  -5.476224e+01  -9.233428e+01
   1.133485e+00  -1.233515e+02
   6.469610e+01  -8.826745e+01
   9.535284e+01  -1.136230e+00
   6.511301e+01   7.815124e+01
  -1.830969e+00   8.837139e+01
  -4.222171e+01   4.497524e+01
  -3.095188e+01  -6.019630e+00
   1.301716e+00  -2.398712e+01
   8.523609e+00  -1.901207e+01
  -1.843788e+01  -1.228765e+01
  -3.913917e+01  -1.358075e+01
  -1.858114e+01  -1.532164e+01
   3.320320e+01  -9.189417e+00
   7.974687e+01   6.221722e+00
   7.064424e+01   3.639511e+01
   3.088921e+00   4.574953e+01
  -7.267108e+01   2.734360e+01
  -8.176744e+01  -3.735450e+00
  -2.479685e+01  -2.207946e+01
   3.639098e+01  -1.377371e+01
   4.302492e+01   1.162564e+01
  -4.447708e+00   3.406467e+01
  -3.441665e+01   2.348959e+01
  -3.031334e+01  -5.609435e+00
  -1.583893e+01  -2.846959e+01
  -1.917260e+01  -2.605088e+01
  -3.157089e+01  -6.795988e+00
  -3.291415e+01  -7.656726e+00
  -8.720157e+00  -3.785643e+01
   3.392503e+01  -6.963324e+01
   7.328704e+01  -6.037828e+01
   8.584609e+01  -3.292450e-01
   5.420961e+01   6.090223e+01
  -7.483210e+00   6.617535e+01
  -4.970221e+01   2.322450e+01
  -2.868063e+01  -1.125043e+01
   3.275142e+01   1.973457e+00
   6.732348e+01   4.105004e+01
   2.669781e+01   6.523527e+01
  -5.644990e+01   5.169015e+01
  -1.085276e+02   7.167040e+00
  -8.853352e+01  -3.705502e+01
  -1.471327e+01  -5.289586e+01
   4.099755e+01  -3.578217e+01
   2.885292e+01  -2.102611e+00
  -2.117824e+01   7.720722e+00
  -4.275061e+01  -2.290179e+01
  -8.739976e-01  -6.420394e+01
   6.827247e+01  -6.883942e+01
   9.278747e+01  -1.506974e+01
   5.680466e+01   6.496970e+01
  -1.044186e+01   1.067217e+02
  -5.654470e+01   7.365565e+01
  -5.385151e+01  -7.524480e+00
  -2.176829e+01  -6.873217e+01
   8.159322e+00  -6.066727e+01
   2.866275e+01  -1.106516e+01
   3.084092e+01   2.328275e+01
   1.879617e+01   9.726267e+00
   3.544446e+00  -7.190812e+00
   3.923974e+00   1.287062e+01
   1.648784e+01   5.454188e+01
   1.349606e+01   5.880983e+01
  -2.553762e+01   1.631911e+01
  -7.112209e+01  -3.915936e+01
  -6.890267e+01  -4.963618e+01
  -6.203013e+00  -2.691781e+01
   4.981469e+01  -5.114879e+00
   4.968099e+01  -1.799660e+00
   7.197393e+00   1.583328e+00
  -2.034054e+01   9.542101e+00
  -7.909616e+00   1.160619e+01
   1.212012e+01   2.512351e+00
  -4.303781e+00  -4.995116e+00
  -4.059681e+01  -9.332567e+00
  -4.308786e+01  -1.829355e+01
   7.354207e+00  -3.880177e+01
   7.039147e+01  -4.576208e+01
   9.483318e+01  -2.018481e+01
   6.654436e+01   3.996321e+01
   1.499388e+00   7.958421e+01
  -4.903086e+01   7.023248e+01
  -6.094518e+01   2.384628e+01
  -3.791070e+01  -1.394687e+01
  -7.823891e+00  -2.040681e+01
   3.870327e+00  -6.567402e+00
  -4.948130e+00  -2.416829e+00
  -1.598644e+01  -2.800038e+01
  -8.048903e+00  -4.802359e+01
   2.060936e+01  -3.731330e+01
   4.244085e+01   1.551412e+01
   3.718439e+01   6.196291e+01
  -1.881651e+00   6.161485e+01
  -4.356511e+01   6.125525e+00
  -4.754352e+01  -4.552372e+01
  -8.143306e+00  -5.621807e+01
   3.824912e+01  -2.113856e+01
   4.791507e+01   1.497327e+01
   1.509625e+01   2.920792e+01
  -2.043686e+01   2.431521e+01
  -1.535362e+01   1.308113e+01
   1.904512e+01   6.686277e+00
   3.540965e+01   5.481832e+00
   1.409177e+00   1.309142e+01
  -4.919669e+01   2.485847e+01
  -6.153437e+01   1.964981e+01
  -3.001618e+01  -1.033444e+01
   1.399762e+01  -4.040232e+01
   2.971770e+01  -3.927802e+01
   1.814154e+01  -1.703647e+00
  -4.884121e+00   2.943133e+01
  -1.542782e+01   1.987895e+01
  -1.672183e+01  -1.224060e+01
  -1.041410e+01  -3.087038e+01
   2.323603e+00  -1.761199e+01
   1.507755e+01   7.072080e+00
   2.049911e+01   1.499154e+01
   1.264165e+01   4.492232e+00
   1.132946e+00  -4.053868e+00
  -6.034274e+00   2.166903e+00
  -1.023693e+01   1.689208e+01
  -1.578406e+01   1.934731e+01
  -1.783577e+01  -1.861642e+00
  -9.050987e+00  -2.910639e+01
   1.039166e+01  -3.308248e+01
   2.714841e+01  -5.058106e+00
   2.574485e+01   2.668347e+01
   1.879751e+00   3.517513e+01
  -2.952538e+01   1.190712e+01
  -4.401968e+01  -1.517022e+01
  -2.322087e+01  -2.501439e+01
   1.674331e+01  -1.693769e+01
   3.508092e+01  -5.632238e+00
   1.272667e+01  -5.365917e-01
  -2.082602e+01  -6.653401e+00
  -1.873497e+01  -1.380711e+01
   2.193747e+01  -1.362179e+01
   5.215159e+01  -4.610200e-01
