
 $NMID
 id='ANONYMOUS ', fmtdat='(2E16.6)'
 volume=1.0
 tramp=1.0
 $END
  -4.787622e+03  -7.230462e+02
  -2.454067e+03  -3.240608e+03
   1.284497e+03  -2.896652e+03
   2.444256e+03  -4.993697e+02
   8.884855e+02   1.055589e+03
  -8.895109e+02   5.910455e+02
  -9.858111e+02  -6.143301e+02
   1.449223e+02  -1.222017e+03
   1.048197e+03  -7.157537e+02
   1.027876e+03   2.953070e+02
   3.621054e+02   1.024187e+03
  -4.683639e+02   9.356882e+02
  -7.641102e+02   1.126332e+01
  -2.950943e+02  -8.798578e+02
   4.228997e+02  -8.277490e+02
   6.958674e+02   1.247850e+02
   1.619363e+02   8.113500e+02
  -5.123396e+02   6.276420e+02
  -6.699350e+02  -5.401064e+01
  -3.347195e+02  -4.953833e+02
   9.870855e+01  -4.643603e+02
   3.243462e+02  -2.148582e+02
   2.475701e+02   5.857366e+01
  -1.199314e+02   1.101359e+02
  -4.126383e+02  -1.481885e+02
  -1.700071e+02  -4.895187e+02
   5.271540e+02  -3.972463e+02
   8.967812e+02   2.102485e+02
   3.685816e+02   6.841585e+02
  -4.965369e+02   4.862161e+02
  -7.923590e+02  -1.729552e+02
  -2.898455e+02  -6.087821e+02
   4.034465e+02  -5.152896e+02
   6.596162e+02  -8.619968e+01
   4.171183e+02   3.619349e+02
  -3.022342e+01   5.423016e+02
  -3.223149e+02   2.756848e+02
  -1.989783e+02  -2.826169e+02
   2.480737e+02  -4.530621e+02
   5.123005e+02   8.233917e+01
   1.606755e+02   7.788228e+02
  -4.873353e+02   6.929344e+02
  -6.988322e+02  -1.140167e+02
  -1.962653e+02  -6.625240e+02
   3.959642e+02  -3.232354e+02
   3.949016e+02   3.975980e+02
  -1.566352e+02   5.854771e+02
  -6.219410e+02   6.920531e+01
  -5.758215e+02  -5.311409e+02
  -6.973134e+01  -6.855553e+02
   4.945192e+02  -3.346750e+02
   6.780897e+02   1.708288e+02
   3.343108e+02   5.064389e+02
  -2.381173e+02   3.925522e+02
  -4.897410e+02  -1.031394e+01
  -2.103360e+02  -2.748015e+02
   1.751291e+02  -1.091014e+02
   1.538425e+02   2.100191e+02
  -2.069356e+02   1.927188e+02
  -3.731011e+02  -1.311765e+02
  -1.114928e+02  -3.492337e+02
   2.733485e+02  -2.371563e+02
   3.603001e+02  -4.203644e+00
   1.720379e+02   1.432186e+02
  -7.453957e+01   2.281925e+02
  -2.871705e+02   2.785687e+02
  -3.861874e+02   1.503289e+02
  -2.847906e+02  -2.032637e+02
  -1.088065e+01  -4.720717e+02
   1.950640e+02  -3.880066e+02
   1.662868e+02  -8.311733e+01
   3.660872e+01   3.302560e+01
   5.284495e+01  -8.082607e+01
   2.132922e+02  -1.050000e+02
   2.815412e+02   9.626419e+01
   1.258394e+02   3.083639e+02
  -1.161282e+02   2.630071e+02
  -2.489996e+02  -1.280233e+01
  -1.675898e+02  -2.773514e+02
   5.943941e+01  -3.155240e+02
   3.011611e+02  -8.820075e+01
   3.550399e+02   2.350414e+02
   1.404409e+02   4.133908e+02
  -1.700850e+02   3.115759e+02
  -2.754741e+02   7.927817e+01
  -1.667947e+02  -3.679498e+01
  -9.989887e+01   6.294029e+00
  -2.326407e+02   3.196460e+01
  -3.837392e+02  -1.156301e+02
  -2.928543e+02  -3.472638e+02
   6.866593e+01  -4.699978e+02
   4.361476e+02  -3.689508e+02
   5.531811e+02  -1.141193e+02
   3.503572e+02   1.670607e+02
   6.957911e+00   3.356758e+02
  -2.006425e+02   2.553533e+02
  -1.136829e+02   1.135455e+01
   1.251048e+02  -1.099601e+02
   2.061435e+02   2.924232e+01
   3.016143e+01   2.209617e+02
  -1.971319e+02   1.774544e+02
  -1.917128e+02  -9.400129e+01
   3.520520e+01  -2.099876e+02
   2.150725e+02  -1.163444e+01
   1.264341e+02   2.930223e+02
  -1.023130e+02   3.651348e+02
  -2.845348e+02   1.604471e+02
  -3.264179e+02  -1.315359e+02
  -2.444166e+02  -2.965977e+02
  -4.460334e+01  -2.898909e+02
   1.520225e+02  -1.473315e+02
   1.930548e+02   1.441554e+01
   6.110650e+01   5.589333e+01
  -7.126304e+01  -4.549107e+01
  -1.746114e+01  -1.401686e+02
   1.455686e+02  -9.372188e+01
   1.930492e+02   4.058383e+01
   5.650137e+01   8.921320e+01
  -8.903073e+01   1.167583e+01
  -4.949435e+01  -8.264896e+01
   1.404404e+02  -7.065737e+01
   2.906013e+02   4.926246e+01
   2.454152e+02   1.921258e+02
   1.407291e+01   2.753467e+02
  -2.380667e+02   2.377857e+02
  -3.177205e+02   7.192233e+01
  -1.677684e+02  -9.534703e+01
   4.575611e+01  -1.209155e+02
   1.035946e+02   6.686302e+00
  -4.410458e+01   1.085817e+02
  -2.111139e+02   3.751502e+01
  -2.092691e+02  -1.442631e+02
  -3.905011e+01  -2.355382e+02
   1.256230e+02  -1.571198e+02
   1.592964e+02  -8.248710e+00
   7.188931e+01   6.140194e+01
  -2.449490e+01   6.073895e+00
  -2.458423e+01  -8.735575e+01
   8.983319e+01  -1.060928e+02
   2.072865e+02   4.688113e-02
   1.795290e+02   1.592528e+02
  -1.624878e+01   2.370310e+02
  -2.072071e+02   1.482236e+02
  -2.127951e+02  -3.159168e+01
  -5.258238e+01  -1.412328e+02
   8.929340e+01  -1.129185e+02
   9.553291e+01  -1.909134e+01
   2.283348e+01   2.989380e+01
  -2.052934e+01   1.621588e+01
   1.196156e+01  -6.437057e+00
   6.768579e+01   2.049707e+01
   7.363604e+01   9.651683e+01
  -1.356545e+01   1.605063e+02
  -1.540818e+02   1.338969e+02
  -2.439343e+02  -1.121757e+01
  -1.815852e+02  -1.917312e+02
  -2.096365e+00  -2.596241e+02
   1.495545e+02  -1.600695e+02
   1.526866e+02  -1.975227e+00
   6.543365e+01   7.597052e+01
   1.737209e+01   4.668014e+01
   4.924509e+01  -4.465053e+00
   7.957167e+01   1.244215e+01
   3.331428e+01   6.170870e+01
  -5.260711e+01   8.459831e+01
  -1.119516e+02   3.614395e+01
  -8.408510e+01  -5.305101e+01
   2.706726e+01  -1.107859e+02
   1.541290e+02  -6.588385e+01
   1.931022e+02   7.968238e+01
   7.198341e+01   2.157629e+02
  -1.387397e+02   2.159131e+02
  -2.824239e+02   7.649168e+01
  -2.521115e+02  -1.331232e+02
  -8.156387e+01  -2.016326e+02
   6.784263e+01  -1.482003e+02
   1.145061e+02  -6.830004e+01
   9.251958e+01  -5.286705e+01
   8.296344e+01  -7.999907e+01
   1.127562e+02  -6.257457e+01
   1.334884e+02   4.423168e+01
   1.006887e+02   1.833891e+02
  -9.855346e+00   2.433053e+02
  -1.388393e+02   1.608622e+02
  -1.915148e+02  -8.829189e+00
  -1.190390e+02  -1.548347e+02
   1.406228e+01  -1.710295e+02
   9.245954e+01  -8.223715e+01
   6.565234e+01   1.437557e+01
  -2.768576e-01   4.502385e+01
  -1.726680e+01   3.236579e+01
   3.074717e+01   2.688583e+01
   7.303017e+01   3.918532e+01
   3.684413e+01   5.087837e+01
  -7.037128e+01   2.840837e+01
  -1.562585e+02  -2.567606e+01
  -1.344630e+02  -8.079510e+01
  -3.531169e+00  -9.582880e+01
   1.314183e+02  -5.348951e+01
   1.470146e+02   1.530722e+01
   4.571513e+01   5.451829e+01
  -6.708317e+01   3.123781e+01
  -7.637258e+01  -2.551859e+01
   6.351268e+00  -7.548388e+01
   7.199204e+01  -5.117346e+01
   6.728758e+01   1.723402e+01
   3.466830e+01   6.471938e+01
   3.408482e+01   5.415597e+01
   5.844005e+01   1.155645e+01
   6.594465e+01   7.305063e+00
   2.623414e+01   7.320899e+01
  -5.798942e+01   1.429829e+02
  -1.430968e+02   1.234303e+02
  -1.730663e+02   4.341204e+00
  -1.103895e+02  -1.160818e+02
   1.346630e+01  -1.314028e+02
   9.999461e+01  -4.825330e+01
   6.391998e+01   2.708335e+01
  -5.560033e+01   1.381709e+01
  -1.280454e+02  -6.295368e+01
  -5.905289e+01  -1.178432e+02
   9.844522e+01  -9.850865e+01
   2.010704e+02  -2.003616e+01
   1.613674e+02   6.620517e+01
   2.326046e+01   1.011760e+02
  -7.766114e+01   6.387118e+01
  -5.380068e+01  -2.331233e+00
   4.621384e+01  -2.418930e+01
   9.231655e+01   3.886764e+01
   1.450146e+01   1.311477e+02
  -1.238143e+02   1.469938e+02
  -1.862120e+02   3.894858e+01
  -1.152027e+02  -1.284534e+02
   2.219338e+01  -2.062579e+02
   1.119830e+02  -1.306147e+02
   1.089343e+02   2.930045e+01
   4.019535e+01   1.323664e+02
  -2.190821e+01   1.055504e+02
  -5.337683e+01   9.211058e+00
  -4.815230e+01  -4.331080e+01
  -2.362978e+01  -1.534059e+01
  -6.474348e+00   2.098222e+01
  -1.898046e+01  -1.258533e+01
  -4.379537e+01  -9.802116e+01
  -2.441582e+01  -1.219473e+02
   5.818638e+01  -4.515915e+01
   1.361025e+02   6.255837e+01
   1.204766e+02   1.020404e+02
   7.992762e+00   6.296039e+01
  -9.639891e+01   1.354999e+01
  -9.498765e+01  -5.853730e+00
  -1.363404e+01  -1.346743e+01
   4.193308e+01  -1.854693e+01
   1.878642e+01  -1.650750e+01
  -2.141316e+01  -3.207460e+00
   7.082832e+00   7.035428e+00
   7.602485e+01   1.365962e+01
   8.885278e+01   3.959209e+01
  -6.507202e+00   8.861207e+01
  -1.400880e+02   1.008528e+02
  -1.970277e+02   3.524220e+01
  -1.327540e+02  -9.258251e+01
  -4.055233e+00  -1.739065e+02
   1.017360e+02  -1.438383e+02
   1.242565e+02  -4.169416e+01
   7.902304e+01   3.780874e+01
   2.064723e+01   4.360572e+01
  -4.935973e+00   8.412775e+00
   1.055781e+01   4.264612e+00
   2.572980e+01   4.907632e+01
   6.708418e+00   9.875319e+01
  -4.673373e+01   7.130557e+01
  -8.553196e+01  -3.556610e+01
  -6.285398e+01  -1.282343e+02
   2.046997e+01  -1.199175e+02
   9.630315e+01  -9.406044e+00
   9.652821e+01   9.966785e+01
   1.044385e+01   1.163659e+02
  -8.148229e+01   4.424466e+01
  -9.864474e+01  -3.228058e+01
  -2.859759e+01  -6.082456e+01
   4.357807e+01  -4.590298e+01
   3.301561e+01  -2.116405e+01
  -3.735474e+01  -4.036602e+00
  -6.968524e+01  -7.239149e+00
  -8.429898e+00  -3.095699e+01
   9.199165e+01  -5.420285e+01
   1.270406e+02  -3.608437e+01
   6.345866e+01   2.837891e+01
  -2.986637e+01   8.324503e+01
  -6.820024e+01   6.812545e+01
  -3.917670e+01  -5.022349e+00
   1.094260e+01  -5.961111e+01
   3.667159e+01  -3.611564e+01
   3.383203e+01   2.962359e+01
   1.191607e+01   6.247790e+01
  -1.484143e+01   3.076891e+01
  -3.372717e+01  -1.876268e+01
  -3.446702e+01  -3.388095e+01
  -1.837146e+01  -7.986911e+00
  -1.115159e+00   1.515237e+01
   6.897327e+00  -1.409514e-01
   1.275392e+01  -3.510605e+01
   2.797246e+01  -4.285344e+01
   3.759181e+01  -2.675021e+00
   2.334782e+01   5.268433e+01
  -1.592003e+01   6.512308e+01
  -5.326347e+01   1.490732e+01
  -5.465713e+01  -5.159322e+01
  -4.319324e+00  -6.886172e+01
   6.270505e+01  -2.634277e+01
   8.776351e+01   3.023368e+01
   4.278805e+01   5.449352e+01
  -3.778744e+01   3.782439e+01
  -7.136707e+01   1.138232e+01
  -2.565650e+01  -1.281380e+00
   3.892791e+01   5.691869e+00
   3.762287e+01   2.454335e+01
  -3.631569e+01   3.128540e+01
  -9.800100e+01   5.109806e+00
