
 $NMID
 id='ANONYMOUS ', fmtdat='(2E16.6)'
 volume=1.0
 tramp=1.0
 $END
  -4.377506e+03   7.356695e+01
  -2.500714e+03  -2.625399e+03
   5.735524e+02  -2.940025e+03
   2.165530e+03  -9.812730e+02
   1.081669e+03   5.895711e+02
  -5.907331e+02   5.365319e+02
  -8.639300e+02  -4.501927e+02
   6.403749e+00  -1.054270e+03
   8.356459e+02  -7.423365e+02
   9.467549e+02   1.286455e+02
   3.718195e+02   9.188823e+02
  -2.905467e+02   8.902847e+02
  -6.410419e+02   9.711052e+01
  -3.396767e+02  -7.468514e+02
   2.501081e+02  -7.274571e+02
   6.158222e+02   2.979000e+01
   2.493481e+02   7.199064e+02
  -3.656127e+02   6.638200e+02
  -6.109174e+02   8.618544e+01
  -3.922522e+02  -3.750261e+02
  -1.397627e+01  -4.494262e+02
   2.340894e+02  -2.478184e+02
   1.797837e+02  -5.046066e+00
  -1.470331e+02   3.498254e+01
  -4.071178e+02  -1.799446e+02
  -1.528634e+02  -4.573239e+02
   5.054717e+02  -3.708460e+02
   8.429388e+02   1.531541e+02
   3.881920e+02   5.708632e+02
  -4.254609e+02   4.337055e+02
  -7.141507e+02  -9.695016e+01
  -3.038003e+02  -5.058736e+02
   3.188316e+02  -4.928091e+02
   5.816344e+02  -1.579309e+02
   3.934789e+02   2.665056e+02
   3.937632e+01   4.811634e+02
  -2.069328e+02   2.772987e+02
  -1.300755e+02  -2.403774e+02
   2.119488e+02  -4.267612e+02
   4.457788e+02   6.293589e+01
   1.921406e+02   7.228390e+02
  -3.791919e+02   6.936799e+02
  -6.234623e+02  -3.325200e+01
  -2.270242e+02  -5.720485e+02
   3.102462e+02  -3.064338e+02
   3.593062e+02   3.338024e+02
  -1.107870e+02   5.372921e+02
  -5.732215e+02   9.732700e+01
  -5.953234e+02  -4.541770e+02
  -1.356587e+02  -6.190182e+02
   4.125643e+02  -3.319616e+02
   6.646433e+02   1.117834e+02
   3.725405e+02   4.219581e+02
  -1.667524e+02   3.645566e+02
  -4.523707e+02   4.182575e+01
  -2.315475e+02  -2.115685e+02
   1.220165e+02  -1.030020e+02
   1.312322e+02   1.599204e+02
  -1.690407e+02   1.744352e+02
  -3.358694e+02  -9.471557e+01
  -1.207668e+02  -3.001426e+02
   2.228799e+02  -2.451848e+02
   3.405260e+02  -5.794455e+01
   1.940919e+02   1.125915e+02
  -5.031703e+01   2.396700e+02
  -2.487342e+02   3.275775e+02
  -3.565710e+02   2.001721e+02
  -2.899638e+02  -1.591225e+02
  -6.414323e+01  -4.477319e+02
   1.276655e+02  -3.912705e+02
   1.217984e+02  -1.213640e+02
   3.417406e+01   2.818749e+00
   6.574185e+01  -8.114829e+01
   2.119329e+02  -1.120757e+02
   2.821266e+02   7.469776e+01
   1.464757e+02   2.831316e+02
  -9.011935e+01   2.527581e+02
  -2.362042e+02  -2.288882e+00
  -1.839132e+02  -2.523424e+02
   3.424101e+01  -3.023367e+02
   2.851966e+02  -1.062494e+02
   3.610762e+02   1.932465e+02
   1.750906e+02   3.833446e+02
  -1.169976e+02   3.166014e+02
  -2.370478e+02   1.194256e+02
  -1.553161e+02   1.616913e+01
  -1.133361e+02   4.696623e+01
  -2.721039e+02   5.923946e+01
  -4.318603e+02  -9.049596e+01
  -3.313243e+02  -3.358946e+02
   3.503503e+01  -4.861439e+02
   4.005029e+02  -4.129407e+02
   5.196301e+02  -1.581469e+02
   3.366668e+02   1.385512e+02
   3.296599e+01   3.058155e+02
  -1.495934e+02   2.433874e+02
  -8.450632e+01   2.665246e+01
   1.138208e+02  -9.748892e+01
   1.952903e+02   2.130257e+01
   4.135139e+01   2.093206e+02
  -1.524753e+02   1.677735e+02
  -1.772882e+02  -6.887276e+01
   3.503404e+01  -1.991702e+02
   2.027146e+02  -2.731924e+01
   1.576905e+02   2.589835e+02
  -5.611485e+01   3.609074e+02
  -2.598407e+02   1.925885e+02
  -3.361826e+02  -8.956677e+01
  -2.626053e+02  -2.725889e+02
  -6.531382e+01  -2.815112e+02
   1.308667e+02  -1.565120e+02
   1.776252e+02  -1.017013e+01
   4.733526e+01   3.801657e+01
  -6.717983e+01  -4.802241e+01
  -1.534775e+01  -1.344492e+02
   1.398723e+02  -9.429505e+01
   1.819889e+02   3.099136e+01
   5.294486e+01   8.458600e+01
  -8.730660e+01   1.560777e+01
  -5.855105e+01  -7.959587e+01
   1.284631e+02  -8.936838e+01
   2.853351e+02   7.768607e+00
   2.615342e+02   1.630852e+02
   4.460035e+01   2.696409e+02
  -2.051297e+02   2.570868e+02
  -2.975029e+02   1.070991e+02
  -1.677531e+02  -6.741438e+01
   3.894243e+01  -1.066361e+02
   9.520448e+01   6.944191e+00
  -4.577758e+01   1.085582e+02
  -2.161897e+02   4.806720e+01
  -2.244474e+02  -1.271897e+02
  -6.250210e+01  -2.279792e+02
   1.123141e+02  -1.620482e+02
   1.540663e+02  -1.779270e+01
   6.824364e+01   4.967193e+01
  -3.122371e+01  -2.023302e-01
  -3.303498e+01  -9.339807e+01
   8.501601e+01  -1.131313e+02
   2.066311e+02  -1.418626e+01
   1.899526e+02   1.424648e+02
   5.325065e+00   2.262156e+02
  -1.834634e+02   1.575622e+02
  -2.005165e+02  -8.094880e+00
  -5.991213e+01  -1.246183e+02
   7.687150e+01  -1.146493e+02
   8.913332e+01  -2.913831e+01
   1.608701e+01   2.564916e+01
  -2.461778e+01   1.889881e+01
   1.012918e+01  -7.407659e+00
   7.742354e+01   1.396998e+01
   9.100255e+01   9.249141e+01
   3.657051e+00   1.673707e+02
  -1.449939e+02   1.506387e+02
  -2.451917e+02   1.100098e+01
  -1.969486e+02  -1.698719e+02
  -3.037571e+01  -2.521220e+02
   1.241480e+02  -1.701185e+02
   1.443623e+02  -1.736862e+01
   7.097226e+01   6.352887e+01
   2.865985e+01   3.607675e+01
   5.576469e+01  -1.251724e+01
   8.665522e+01   2.548928e-01
   3.962836e+01   6.005044e+01
  -5.954534e+01   9.268829e+01
  -1.147388e+02   5.043157e+01
  -8.731549e+01  -4.785404e+01
   2.483326e+01  -1.154817e+02
   1.602989e+02  -7.795928e+01
   2.026225e+02   7.272641e+01
   7.975517e+01   2.220165e+02
  -1.383726e+02   2.341785e+02
  -2.649488e+02   8.654066e+01
  -2.564843e+02  -1.139491e+02
  -9.310800e+01  -1.966110e+02
   5.927032e+01  -1.505593e+02
   1.078349e+02  -7.898392e+01
   8.646811e+01  -6.067158e+01
   7.533580e+01  -8.607164e+01
   1.008840e+02  -7.163832e+01
   1.325966e+02   3.035176e+01
   1.146618e+02   1.726777e+02
   1.705956e+01   2.399222e+02
  -1.174749e+02   1.713837e+02
  -1.833754e+02   9.981808e+00
  -1.310295e+02  -1.339938e+02
  -7.057732e+00  -1.634537e+02
   7.705534e+01  -8.635348e+01
   6.209369e+01   6.734197e+00
   3.909129e-01   4.587866e+01
  -1.731457e+01   3.410353e+01
   3.235095e+01   1.879949e+01
   8.253189e+01   2.662521e+01
   4.771926e+01   4.163317e+01
  -6.805244e+01   3.556559e+01
  -1.662582e+02  -7.159074e+00
  -1.439692e+02  -6.064777e+01
  -5.454452e+00  -9.255223e+01
   1.293043e+02  -6.347347e+01
   1.498134e+02   2.773691e+00
   4.684303e+01   4.955273e+01
  -6.850372e+01   3.362203e+01
  -7.647746e+01  -1.862692e+01
  -3.000245e+00  -7.409333e+01
   6.444181e+01  -5.735776e+01
   6.761616e+01   8.134490e+00
   4.429465e+01   5.749499e+01
   4.225303e+01   4.579967e+01
   6.322529e+01   2.054877e+00
   6.870596e+01   1.771274e+00
   3.200682e+01   7.060927e+01
  -4.093624e+01   1.458919e+02
  -1.268113e+02   1.384116e+02
  -1.726653e+02   2.651272e+01
  -1.204325e+02  -9.975921e+01
   3.438004e+00  -1.308957e+02
   9.271261e+01  -5.699230e+01
   5.826943e+01   2.286044e+01
  -6.612286e+01   2.192670e+01
  -1.433297e+02  -5.441538e+01
  -7.356402e+01  -1.189696e+02
   8.761703e+01  -1.139930e+02
   1.952721e+02  -4.211408e+01
   1.615880e+02   4.508618e+01
   3.226666e+01   9.082617e+01
  -6.455931e+01   6.449377e+01
  -4.757166e+01   2.882193e+00
   4.158559e+01  -2.648301e+01
   9.003978e+01   2.806180e+01
   2.756166e+01   1.228183e+02
  -1.010219e+02   1.508256e+02
  -1.742679e+02   5.621876e+01
  -1.221039e+02  -1.110858e+02
  -3.741144e-01  -2.018949e+02
   9.475871e+01  -1.393071e+02
   1.056216e+02   1.460333e+01
   5.286087e+01   1.234339e+02
  -9.026260e+00   1.067023e+02
  -4.979526e+01   1.486639e+01
  -4.829645e+01  -3.755992e+01
  -2.273565e+01  -1.185965e+01
  -3.163037e+00   2.166315e+01
  -2.212574e+01  -1.692406e+01
  -5.139337e+01  -9.641707e+01
  -3.673962e+01  -1.168954e+02
   5.326104e+01  -4.385024e+01
   1.404457e+02   5.021766e+01
   1.290079e+02   8.208499e+01
   1.583814e+01   5.288580e+01
  -9.075472e+01   1.671404e+01
  -9.008262e+01   2.904746e+00
  -1.004659e+01  -6.692044e+00
   4.141036e+01  -1.955689e+01
   1.717344e+01  -1.564525e+01
  -1.965851e+01   1.474816e+00
   9.480724e+00   1.051389e+01
   7.582634e+01   1.102366e+01
   9.324453e+01   3.349934e+01
   2.362178e+00   8.854140e+01
  -1.333861e+02   1.171815e+02
  -2.064595e+02   5.332872e+01
  -1.494975e+02  -8.045232e+01
  -1.915662e+01  -1.793666e+02
   9.483315e+01  -1.625770e+02
   1.258334e+02  -6.140591e+01
   8.442031e+01   2.697256e+01
   2.399707e+01   4.374549e+01
  -2.209513e+00   1.286664e+01
   1.310684e+01   6.592310e+00
   3.467059e+01   4.592779e+01
   1.619283e+01   9.535543e+01
  -3.831515e+01   7.183030e+01
  -8.468310e+01  -2.670082e+01
  -7.421767e+01  -1.212177e+02
   5.732316e+00  -1.181945e+02
   8.996625e+01  -1.803240e+01
   1.070093e+02   8.689642e+01
   2.746967e+01   1.104540e+02
  -7.378315e+01   5.528720e+01
  -1.028981e+02  -1.689008e+01
  -3.891088e+01  -5.623174e+01
   3.647524e+01  -5.328054e+01
   3.416934e+01  -2.818337e+01
  -3.393286e+01   1.559219e+00
  -7.216969e+01   4.165768e+00
  -1.655182e+01  -3.052952e+01
   8.559235e+01  -7.044238e+01
   1.281558e+02  -5.366520e+01
   6.978114e+01   2.281664e+01
  -1.984122e+01   9.122815e+01
  -6.282729e+01   8.165749e+01
  -4.160226e+01   3.189910e+00
   1.853536e+00  -5.836704e+01
   3.162129e+01  -4.307464e+01
   3.659878e+01   2.134620e+01
   2.120337e+01   5.881194e+01
  -8.177816e+00   3.376629e+01
  -3.263931e+01  -1.301584e+01
  -3.546920e+01  -2.598040e+01
  -1.837984e+01  -1.847932e+00
   2.515593e-01   1.929417e+01
   3.883242e+00   1.192049e+00
   5.810279e+00  -3.833809e+01
   1.955403e+01  -4.880850e+01
   3.498182e+01  -8.762153e+00
   2.964754e+01   4.950007e+01
  -5.229362e+00   6.335402e+01
  -4.743199e+01   1.814835e+01
  -5.816810e+01  -4.699186e+01
  -1.079867e+01  -6.855273e+01
   5.985810e+01  -3.231877e+01
   9.421431e+01   2.399712e+01
   4.892320e+01   5.239719e+01
  -3.415965e+01   4.339266e+01
  -7.174304e+01   1.816832e+01
  -2.624300e+01   1.764305e+00
   3.914093e+01   8.879052e-01
   3.964208e+01   1.653229e+01
  -3.298769e+01   3.227610e+01
  -9.591835e+01   1.768364e+01
