
 $NMID
 id='ANONYMOUS ', fmtdat='(2E16.6)'
 volume=1.0
 tramp=1.0
 $END
  -3.130841e+03  -4.821937e+02
  -1.655707e+03  -1.993140e+03
   3.883261e+02  -1.866265e+03
   1.277589e+03  -8.406405e+02
   7.803899e+02  -3.851940e+01
  -9.677987e+01   1.711169e+02
  -3.611739e+02  -1.750703e+02
   4.467167e+01  -5.605910e+02
   4.762703e+02  -4.911219e+02
   5.920817e+02  -1.459480e+01
   3.615444e+02   5.279860e+02
  -3.762158e+01   5.696906e+02
  -2.905642e+02   1.050956e+02
  -1.979616e+02  -4.299735e+02
   8.293447e+01  -4.604202e+02
   3.833958e+02  -3.971009e+01
   2.580527e+02   4.582842e+02
  -1.175620e+02   5.404889e+02
  -4.050464e+02   2.300036e+02
  -3.668746e+02  -1.575174e+02
  -9.442230e+01  -2.868579e+02
   1.018595e+02  -2.034665e+02
   4.411248e+01  -7.048988e+01
  -1.998038e+02  -9.211918e+01
  -2.714852e+02  -2.556558e+02
   2.282369e+01  -3.419538e+02
   4.594194e+02  -1.400694e+02
   5.637452e+02   2.184734e+02
   1.865044e+02   3.579374e+02
  -3.333793e+02   1.953819e+02
  -4.851800e+02  -1.215098e+02
  -1.696120e+02  -3.469672e+02
   2.481654e+02  -3.282630e+02
   4.107062e+02  -9.548944e+01
   2.744716e+02   1.571305e+02
   5.936530e+01   2.685226e+02
  -3.574214e+01   1.390984e+02
   4.443568e+01  -1.119128e+02
   1.831795e+02  -1.566174e+02
   2.084725e+02   1.496339e+02
   2.673175e+00   4.764864e+02
  -2.466498e+02   4.153517e+02
  -3.105872e+02  -4.420179e+01
  -9.419096e+01  -3.317551e+02
   1.682245e+02  -1.294327e+02
   1.718712e+02   2.833492e+02
  -1.195973e+02   3.726983e+02
  -4.155847e+02   3.900552e+01
  -4.356516e+02  -3.625508e+02
  -1.212692e+02  -4.606601e+02
   2.951709e+02  -2.310698e+02
   4.848758e+02   8.155109e+01
   2.987041e+02   2.334707e+02
  -6.502092e+01   1.940144e+02
  -2.609263e+02   6.217051e+01
  -1.673898e+02  -1.796440e+01
   2.544580e+01   5.010650e+00
   4.122693e+01   7.388004e+01
  -1.160203e+02   6.893383e+01
  -2.205550e+02  -5.418177e+01
  -1.179285e+02  -1.864816e+02
   1.324665e+02  -2.151408e+02
   2.962432e+02  -1.199488e+02
   2.252021e+02   6.687782e+01
  -1.368653e+01   2.741212e+02
  -2.393748e+02   3.307428e+02
  -3.083674e+02   1.498936e+02
  -2.129734e+02  -1.577945e+02
  -4.273242e+01  -3.395448e+02
   6.152402e+01  -2.878326e+02
   3.441412e+01  -1.346647e+02
   1.904017e+01  -7.602361e+01
   1.159053e+02  -1.103748e+02
   2.330047e+02  -6.016633e+01
   2.245908e+02   1.079276e+02
   8.435684e+01   2.449689e+02
  -9.299812e+01   1.819228e+02
  -1.824563e+02  -4.613288e+01
  -1.326974e+02  -2.302452e+02
   4.947551e+01  -2.295361e+02
   2.316586e+02  -5.727496e+01
   2.842416e+02   1.662679e+02
   1.468907e+02   2.774861e+02
  -5.263997e+01   2.342998e+02
  -1.471838e+02   1.229797e+02
  -1.224132e+02   6.468851e+01
  -1.183673e+02   8.101728e+01
  -2.554260e+02   6.337937e+01
  -3.848249e+02  -6.431420e+01
  -2.971804e+02  -2.725196e+02
   2.161723e+01  -4.092744e+02
   3.542257e+02  -3.677392e+02
   4.381210e+02  -1.478312e+02
   2.551326e+02   1.090078e+02
  -1.573088e+00   2.372080e+02
  -1.072262e+02   1.766623e+02
  -1.971262e+01   2.018852e+01
   1.188555e+02  -4.540007e+01
   1.296016e+02   4.030659e+01
  -1.157674e-02   1.405692e+02
  -1.004738e+02   8.943017e+01
  -1.040417e+02  -6.288101e+01
   3.294966e+01  -1.353289e+02
   1.579172e+02   7.741849e+00
   1.379674e+02   2.173421e+02
  -2.608353e+01   3.057794e+02
  -2.212674e+02   1.793440e+02
  -3.221622e+02  -6.177715e+01
  -2.478929e+02  -2.539929e+02
  -5.033284e+01  -2.550937e+02
   1.233639e+02  -1.227121e+02
   1.375583e+02   1.975774e+00
   3.121268e+01   1.511141e+01
  -4.849006e+01  -5.866141e+01
   7.946660e+00  -1.081912e+02
   1.187849e+02  -5.785328e+01
   1.327213e+02   2.929854e+01
   2.380565e+01   5.534771e+01
  -7.803168e+01  -1.546033e+01
  -3.519111e+01  -8.993801e+01
   1.397207e+02  -8.551803e+01
   2.777214e+02   1.907514e+01
   2.330929e+02   1.507383e+02
   2.537033e+01   2.392541e+02
  -1.870558e+02   2.139615e+02
  -2.412671e+02   9.492214e+01
  -1.232654e+02  -3.996688e+01
   3.140356e+01  -6.888115e+01
   5.626824e+01   7.932421e+00
  -5.135990e+01   7.394282e+01
  -1.716181e+02   2.504884e+01
  -1.639782e+02  -1.026952e+02
  -3.997005e+01  -1.739531e+02
   8.876027e+01  -1.212787e+02
   1.136183e+02  -4.288706e+00
   4.044103e+01   4.533348e+01
  -4.146883e+01  -1.131272e+01
  -2.681051e+01  -9.982721e+01
   8.158205e+01  -1.118404e+02
   1.848988e+02  -1.753882e+01
   1.602543e+02   1.183592e+02
   8.948954e+00   1.839047e+02
  -1.349899e+02   1.298186e+02
  -1.474931e+02   3.324239e+00
  -4.192189e+01  -8.718843e+01
   6.179458e+01  -8.487543e+01
   6.580382e+01  -1.891045e+01
  -2.081145e+00   2.282218e+01
  -3.805793e+01   1.005260e+01
   6.289453e+00  -2.445193e+01
   8.108243e+01  -4.278205e+00
   1.008215e+02   7.956405e+01
   1.780040e+01   1.592512e+02
  -1.268545e+02   1.425270e+02
  -2.184218e+02   1.263793e+01
  -1.723472e+02  -1.415569e+02
  -2.752166e+01  -2.070832e+02
   9.312337e+01  -1.378588e+02
   1.167844e+02  -2.005003e+01
   6.324594e+01   4.323101e+01
   2.607261e+01   2.240963e+01
   4.295553e+01  -2.115697e+01
   7.633621e+01  -9.823107e+00
   5.212106e+01   5.067881e+01
  -3.529086e+01   1.033675e+02
  -1.094066e+02   6.704694e+01
  -9.846335e+01  -3.894871e+01
   1.010125e+01  -1.220494e+02
   1.451970e+02  -8.817753e+01
   1.867229e+02   5.374859e+01
   7.951282e+01   1.909423e+02
  -1.116080e+02   2.066646e+02
  -2.189769e+02   9.071530e+01
  -2.179198e+02  -7.599891e+01
  -8.988559e+01  -1.513104e+02
   3.500984e+01  -1.205545e+02
   7.673718e+01  -6.753274e+01
   5.750044e+01  -5.760601e+01
   4.716631e+01  -8.437020e+01
   8.212079e+01  -7.420809e+01
   1.208991e+02   1.636604e+01
   1.049886e+02   1.421094e+02
   1.654804e+01   2.049324e+02
  -9.777604e+01   1.458533e+02
  -1.592353e+02   3.535815e+00
  -1.163070e+02  -1.200936e+02
  -6.058903e+00  -1.463300e+02
   7.383792e+01  -7.514949e+01
   6.005234e+01   1.340902e+01
  -1.160991e+00   4.825560e+01
  -2.436171e+01   3.235952e+01
   2.211962e+01   1.236920e+01
   7.807184e+01   1.831007e+01
   5.023882e+01   3.697632e+01
  -6.616482e+01   3.903951e+01
  -1.638636e+02   3.768939e-01
  -1.351161e+02  -5.797641e+01
   1.217162e+00  -9.341195e+01
   1.255623e+02  -6.873132e+01
   1.332171e+02  -2.375224e+00
   4.050224e+01   4.948990e+01
  -5.366842e+01   4.216089e+01
  -6.619633e+01  -1.390933e+01
  -1.927846e+01  -6.692146e+01
   3.833566e+01  -5.968172e+01
   5.967870e+01  -2.017257e+00
   5.277424e+01   4.540188e+01
   4.537262e+01   3.724984e+01
   5.305752e+01  -1.349109e+00
   6.242666e+01  -1.126105e+00
   4.429316e+01   6.554253e+01
  -1.950154e+01   1.394846e+02
  -1.118585e+02   1.353456e+02
  -1.632140e+02   3.005377e+01
  -1.179311e+02  -8.523607e+01
   3.078971e-02  -1.195547e+02
   8.591334e+01  -6.323106e+01
   5.683533e+01   1.282747e+01
  -5.396151e+01   2.248632e+01
  -1.262090e+02  -3.258003e+01
  -6.678924e+01  -9.589082e+01
   7.534731e+01  -9.947790e+01
   1.703245e+02  -3.695246e+01
   1.407363e+02   4.018758e+01
   2.534414e+01   7.843813e+01
  -6.008604e+01   5.435078e+01
  -4.300865e+01  -1.942636e+00
   3.783952e+01  -2.679271e+01
   8.506033e+01   2.017175e+01
   3.390161e+01   1.069404e+02
  -7.317503e+01   1.388781e+02
  -1.427778e+02   6.267567e+01
  -1.117375e+02  -8.531210e+01
  -1.216292e+01  -1.755495e+02
   7.238692e+01  -1.259193e+02
   8.788562e+01   1.115429e+01
   4.689225e+01   1.069522e+02
  -6.895043e+00   8.953117e+01
  -4.327777e+01   1.157445e+01
  -3.948604e+01  -2.873899e+01
  -1.568837e+01  -7.056990e+00
  -6.502180e+00   1.464813e+01
  -3.067572e+01  -1.903702e+01
  -5.525885e+01  -7.776743e+01
  -2.871128e+01  -9.571459e+01
   5.377945e+01  -3.984967e+01
   1.262318e+02   3.288935e+01
   1.085019e+02   6.424971e+01
   1.391186e+01   4.839085e+01
  -7.369597e+01   2.216566e+01
  -7.783893e+01   3.797328e+00
  -1.483821e+01  -1.119869e+01
   3.075402e+01  -1.989305e+01
   1.645933e+01  -9.792535e+00
  -1.293048e+01   2.549981e+00
   4.484967e+00   6.432314e+00
   6.136622e+01   9.267635e-01
   8.221087e+01   1.878113e+01
   1.667491e+01   7.002051e+01
  -9.901146e+01   1.056511e+02
  -1.712783e+02   6.203657e+01
  -1.403636e+02  -4.908883e+01
  -3.011010e+01  -1.449441e+02
   6.931226e+01  -1.420162e+02
   1.038820e+02  -6.224915e+01
   7.345504e+01   1.581562e+01
   2.244829e+01   3.238229e+01
   1.976767e+00   8.545612e+00
   1.258774e+01   7.074545e+00
   2.642903e+01   4.650257e+01
   1.557873e+01   8.301389e+01
  -2.652948e+01   6.296063e+01
  -6.735493e+01  -1.675891e+01
  -6.930934e+01  -9.211901e+01
  -1.169526e+01  -9.545666e+01
   6.391081e+01  -2.566642e+01
   8.990164e+01   5.923143e+01
   3.260207e+01   8.914793e+01
  -5.644024e+01   5.553946e+01
  -9.111001e+01  -8.637538e+00
  -3.979986e+01  -5.239002e+01
   3.158204e+01  -5.501323e+01
   3.674958e+01  -2.743014e+01
  -2.304270e+01   3.630875e+00
  -5.780934e+01   8.369480e+00
  -1.448676e+01  -2.484960e+01
   7.148917e+01  -6.177424e+01
   1.091389e+02  -4.860726e+01
   6.656459e+01   1.732494e+01
  -9.144146e+00   7.962524e+01
  -4.990460e+01   7.546510e+01
  -4.037293e+01   1.053093e+01
  -6.207814e+00  -4.500949e+01
   1.757698e+01  -4.002970e+01
   3.083623e+01   1.084872e+01
   2.355911e+01   4.524624e+01
   9.646798e-01   3.035232e+01
  -2.937544e+01  -5.532413e+00
  -3.729327e+01  -2.114134e+01
  -1.718940e+01  -2.810863e+00
   4.389706e+00   1.730524e+01
   7.002670e+00   4.765960e+00
  -2.311184e+00  -2.923988e+01
   1.700466e+00  -4.417360e+01
   2.444407e+01  -1.656605e+01
   3.756067e+01   3.151863e+01
   1.242535e+01   5.111775e+01
  -3.635357e+01   2.112195e+01
  -5.593345e+01  -3.093637e+01
  -1.666675e+01  -5.211735e+01
   5.267585e+01  -3.075160e+01
   8.477408e+01   1.011306e+01
   4.409528e+01   3.862951e+01
  -2.847648e+01   4.052314e+01
  -6.040477e+01   2.511844e+01
  -2.568770e+01   4.859249e+00
   2.822960e+01  -3.833368e+00
   2.983150e+01   5.702362e+00
  -2.367214e+01   2.316584e+01
  -7.024254e+01   1.726847e+01
