
 $NMID
 id='ANONYMOUS ', fmtdat='(2E16.6)'
 volume=1.0
 tramp=1.0
 $END
   2.010861e+03   3.013266e+02
   1.003870e+03   1.305021e+03
  -4.276397e+02   1.394439e+03
  -1.056842e+03   5.089686e+02
  -5.195316e+02  -1.841689e+02
   2.261921e+02  -2.069843e+02
   3.933015e+02   2.514933e+02
  -4.784097e+01   5.529349e+02
  -4.877469e+02   3.935594e+02
  -5.084832e+02  -5.894790e+01
  -2.673186e+02  -4.869593e+02
   1.444028e+02  -4.854250e+02
   3.133307e+02  -4.710253e+01
   1.382733e+02   3.929747e+02
  -1.361875e+02   3.704548e+02
  -3.252150e+02  -1.854770e+01
  -1.238572e+02  -3.941572e+02
   1.991327e+02  -3.834729e+02
   3.605036e+02  -7.377591e+01
   2.449619e+02   1.887059e+02
   2.099569e+01   2.692633e+02
  -1.377632e+02   1.658858e+02
  -9.199659e+01   5.312977e+01
   8.473768e+01   4.188868e+01
   1.829941e+02   1.323479e+02
   1.469265e+01   2.263825e+02
  -3.071024e+02   1.121599e+02
  -4.343189e+02  -1.480655e+02
  -1.724846e+02  -3.104588e+02
   2.548580e+02  -1.813189e+02
   3.937230e+02   1.034772e+02
   1.408877e+02   2.841051e+02
  -2.088101e+02   2.582722e+02
  -3.310722e+02   5.761944e+01
  -2.228102e+02  -1.602857e+02
  -2.578687e+01  -2.619638e+02
   7.041342e+01  -1.427785e+02
   4.729193e+01   8.933346e+01
  -1.090839e+02   1.682857e+02
  -1.805976e+02  -6.200261e+01
  -2.375265e+01  -3.589834e+02
   2.197526e+02  -3.365500e+02
   2.969750e+02   3.239643e+01
   9.103477e+01   2.927002e+02
  -1.615876e+02   1.373799e+02
  -1.731761e+02  -2.086178e+02
   7.641342e+01  -2.865800e+02
   3.282122e+02  -2.926835e+01
   3.185852e+02   2.745758e+02
   4.570549e+01   3.375294e+02
  -2.372525e+02   1.522474e+02
  -3.455786e+02  -9.627624e+01
  -2.010729e+02  -2.239352e+02
   9.354183e+01  -1.692941e+02
   2.493829e+02  -1.893963e+01
   1.512949e+02   8.800144e+01
  -4.407373e+01   5.552610e+01
  -6.181360e+01  -5.788876e+01
   8.654866e+01  -7.403853e+01
   1.784781e+02   5.313915e+01
   6.219070e+01   1.795786e+02
  -1.371729e+02   1.461311e+02
  -2.256592e+02   2.714629e+01
  -1.374402e+02  -8.411575e+01
   5.297937e+01  -1.583871e+02
   2.029585e+02  -1.846634e+02
   2.323320e+02  -8.482059e+01
   1.437431e+02   1.112425e+02
   8.866405e+00   2.461594e+02
  -8.158365e+01   2.063127e+02
  -6.141730e+01   8.396260e+01
  -2.418351e+01   3.094426e+01
  -6.761025e+01   5.186903e+01
  -1.515855e+02   3.972234e+01
  -1.613675e+02  -6.842320e+01
  -6.119986e+01  -1.785706e+02
   7.393593e+01  -1.383084e+02
   1.248573e+02   2.660164e+01
   7.619555e+01   1.633016e+02
  -4.519664e+01   1.554286e+02
  -1.672415e+02   2.275264e+01
  -1.806923e+02  -1.424514e+02
  -6.650133e+01  -2.247775e+02
   8.146316e+01  -1.712244e+02
   1.427298e+02  -6.289844e+01
   9.700818e+01  -1.300331e+00
   7.921129e+01  -2.474916e+01
   1.695407e+02  -1.724975e+01
   2.695597e+02   7.802261e+01
   1.996458e+02   2.179986e+02
  -3.591150e+01   2.833928e+02
  -2.725540e+02   2.294243e+02
  -3.203256e+02   7.774600e+01
  -1.813279e+02  -8.938602e+01
   3.470955e-01  -1.686360e+02
   9.083609e+01  -1.219674e+02
   3.077180e+01  -1.256041e+01
  -7.493262e+01   3.440295e+01
  -9.919260e+01  -2.884410e+01
  -3.978967e+00  -1.090331e+02
   7.440092e+01  -7.810638e+01
   8.317286e+01   4.186080e+01
  -1.869977e+01   1.013783e+02
  -1.082999e+02  -7.049692e+00
  -7.373430e+01  -1.648639e+02
   4.867314e+01  -2.108618e+02
   1.621371e+02  -9.906844e+01
   2.043833e+02   7.381500e+01
   1.427083e+02   1.820727e+02
   2.096364e+01   1.761105e+02
  -8.597322e+01   8.090135e+01
  -1.002088e+02  -2.655281e+00
  -2.550047e+01  -1.843753e+01
   3.264891e+01   3.568749e+01
  -5.209868e+00   7.029812e+01
  -8.461929e+01   3.468119e+01
  -9.809344e+01  -2.985433e+01
  -1.767495e+01  -4.406934e+01
   4.861776e+01   1.025557e+01
   1.914431e+01   5.851992e+01
  -9.428743e+01   4.161660e+01
  -1.782276e+02  -4.126371e+01
  -1.485317e+02  -1.238530e+02
  -9.393821e+00  -1.645360e+02
   1.307075e+02  -1.349542e+02
   1.693879e+02  -5.659268e+01
   9.220563e+01   3.631613e+01
  -2.108070e+01   5.475676e+01
  -4.512122e+01  -3.491468e+00
   3.792573e+01  -4.924294e+01
   1.256205e+02  -1.601307e+01
   1.215230e+02   7.817280e+01
   2.475772e+01   1.298068e+02
  -7.035840e+01   8.718573e+01
  -8.786649e+01   5.203746e+00
  -3.630966e+01  -2.518892e+01
   1.821334e+01   1.026150e+01
   7.574512e+00   5.716394e+01
  -6.180408e+01   5.305966e+01
  -1.229419e+02  -1.009354e+01
  -9.965595e+01  -9.174831e+01
   8.612746e+00  -1.285753e+02
   1.116879e+02  -8.483371e+01
   1.129568e+02   1.034894e+01
   2.825489e+01   7.076031e+01
  -4.994757e+01   5.844653e+01
  -5.000992e+01   1.032526e+01
   9.463660e-01  -1.289432e+01
   2.127193e+01  -3.948472e+00
  -1.058444e+01   1.153527e+01
  -5.521115e+01  -1.171981e+01
  -5.304132e+01  -6.482340e+01
   8.988183e+00  -1.043349e+02
   9.699579e+01  -7.771564e+01
   1.444973e+02   1.459888e+01
   1.036844e+02   1.112655e+02
   3.659517e-01   1.390489e+02
  -7.816698e+01   8.562394e+01
  -8.063295e+01   1.070225e+00
  -3.626191e+01  -3.565848e+01
  -1.729220e+01  -1.552273e+01
  -3.465587e+01   1.026456e+01
  -5.498889e+01  -4.285125e+00
  -2.364171e+01  -4.153273e+01
   3.773098e+01  -5.963103e+01
   7.873502e+01  -2.444298e+01
   4.997380e+01   3.530273e+01
  -2.841936e+01   6.962772e+01
  -1.054732e+02   3.520839e+01
  -1.138351e+02  -6.131697e+01
  -2.773203e+01  -1.341297e+02
   9.996073e+01  -1.155366e+02
   1.491878e+02  -2.642550e+01
   1.344449e+02   7.621970e+01
   4.546884e+01   1.105989e+02
  -2.866759e+01   8.085818e+01
  -5.644159e+01   4.614779e+01
  -5.571323e+01   4.420709e+01
  -5.524459e+01   5.451834e+01
  -6.689592e+01   3.668214e+01
  -7.589634e+01  -2.975437e+01
  -5.055618e+01  -1.091154e+02
   1.124457e+01  -1.430954e+02
   8.214778e+01  -9.581914e+01
   1.077890e+02   9.615124e+00
   6.846881e+01   9.230170e+01
  -7.930609e+00   1.019442e+02
  -5.322795e+01   4.898515e+01
  -3.393752e+01  -6.372435e+00
   5.004317e+00  -2.896425e+01
   1.236413e+01  -1.943824e+01
  -2.177705e+01  -1.334631e+01
  -5.438501e+01  -2.201204e+01
  -2.933490e+01  -2.903718e+01
   4.630061e+01  -1.760010e+01
   1.056364e+02   1.614030e+01
   8.224596e+01   4.559556e+01
  -6.707023e+00   5.342410e+01
  -8.231438e+01   2.773266e+01
  -8.700523e+01  -8.744674e+00
  -2.179469e+01  -3.103581e+01
   4.502528e+01  -1.666421e+01
   4.408943e+01   1.691924e+01
   1.090103e-01   4.741720e+01
  -3.787650e+01   3.582251e+01
  -4.057761e+01  -6.808204e+00
  -2.516368e+01  -3.850208e+01
  -2.359023e+01  -2.866578e+01
  -3.939057e+01  -3.628987e-01
  -4.490633e+01  -2.309124e+00
  -2.030201e+01  -5.063990e+01
   3.249320e+01  -9.044856e+01
   8.721962e+01  -8.048421e+01
   1.074865e+02  -2.412978e+00
   6.756078e+01   6.784658e+01
  -1.222740e+01   7.597677e+01
  -6.115310e+01   2.769252e+01
  -3.271550e+01  -1.494334e+01
   4.353673e+01  -4.828268e+00
   8.503455e+01   4.346951e+01
   3.563716e+01   7.480696e+01
  -6.337475e+01   6.241707e+01
  -1.233063e+02   7.040506e+00
  -9.405186e+01  -3.845517e+01
  -1.430856e+01  -5.319739e+01
   4.109578e+01  -3.245997e+01
   2.721605e+01  -3.483758e-01
  -2.507766e+01   1.075416e+01
  -4.757660e+01  -2.404792e+01
  -7.060717e+00  -7.204819e+01
   6.485614e+01  -8.228309e+01
   1.024992e+02  -2.207209e+01
   6.856601e+01   7.288163e+01
  -6.070612e+00   1.227716e+02
  -6.322126e+01   8.327006e+01
  -6.355207e+01  -1.212355e+01
  -2.403479e+01  -7.399750e+01
   1.220092e+01  -6.266766e+01
   2.993318e+01  -5.087716e+00
   2.158102e+01   2.190363e+01
   1.070362e+01   2.417956e+00
   4.601653e+00  -1.236628e+01
   1.636853e+01   1.431495e+01
   2.938713e+01   5.880996e+01
   1.382277e+01   6.510693e+01
  -3.741853e+01   2.102732e+01
  -7.786207e+01  -3.806166e+01
  -6.646030e+01  -5.125238e+01
  -4.236146e+00  -2.891651e+01
   5.380272e+01  -4.188514e+00
   5.040425e+01   3.809027e+00
   5.209190e+00   6.177035e+00
  -2.483914e+01   1.121619e+01
  -1.024560e+01   6.424283e+00
   1.116017e+01  -1.013169e+00
  -2.754095e+00  -4.765413e+00
  -4.380572e+01  -3.413481e+00
  -5.652923e+01  -2.083079e+01
  -1.584497e+00  -5.339734e+01
   8.038484e+01  -6.661670e+01
   1.227074e+02  -2.058047e+01
   8.630006e+01   5.843564e+01
   1.555948e+00   1.056659e+02
  -6.614268e+01   8.771503e+01
  -7.732073e+01   2.619299e+01
  -4.745916e+01  -1.899069e+01
  -1.191352e+01  -2.443734e+01
  -1.738305e+00  -7.912644e+00
  -8.669210e+00  -6.652037e+00
  -1.550902e+01  -3.547924e+01
  -4.776256e+00  -5.880259e+01
   2.518078e+01  -4.022381e+01
   4.724585e+01   1.746634e+01
   3.982629e+01   7.280362e+01
  -5.190261e-01   7.028973e+01
  -5.149527e+01   1.139071e+01
  -5.937864e+01  -5.144789e+01
  -1.227553e+01  -6.436254e+01
   4.632616e+01  -3.009474e+01
   5.904622e+01   1.412434e+01
   1.932716e+01   3.623933e+01
  -2.768362e+01   3.116933e+01
  -2.443713e+01   1.543505e+01
   1.711420e+01   3.828982e-01
   4.010578e+01  -2.581669e+00
   6.410809e+00   1.533981e+01
  -5.094914e+01   3.603501e+01
  -7.491180e+01   3.156959e+01
  -4.168642e+01  -1.693793e+01
   1.417953e+01  -5.583170e+01
   4.158390e+01  -4.696812e+01
   2.988920e+01   1.842995e-01
   5.939611e-01   3.472606e+01
  -1.836957e+01   2.684804e+01
  -2.281664e+01  -1.131331e+01
  -1.413158e+01  -3.398480e+01
   1.962972e+00  -2.002872e+01
   1.930127e+01   6.659208e+00
   2.117529e+01   1.628288e+01
   1.298041e+01   2.276937e+00
   1.002184e+00  -1.060419e+01
  -2.985021e+00  -1.388125e+00
  -4.038074e+00   2.056879e+01
  -9.327410e+00   2.835997e+01
  -1.865409e+01   4.993308e+00
  -1.650446e+01  -2.818590e+01
   3.882113e+00  -3.647784e+01
   2.835994e+01  -7.524861e+00
   3.309655e+01   2.870690e+01
   3.175209e+00   3.722615e+01
  -3.722612e+01   1.300053e+01
  -5.423779e+01  -1.828801e+01
  -2.530781e+01  -2.988168e+01
   2.278892e+01  -2.196193e+01
   4.371154e+01  -9.588981e+00
   1.566516e+01  -8.422524e-01
  -2.179879e+01  -2.134136e+00
  -2.131151e+01  -8.118008e+00
   1.912509e+01  -1.406426e+01
   5.359879e+01  -7.286134e+00
