
 $NMID
 id='ANONYMOUS ', fmtdat='(2E16.6)'
 volume=1.0
 tramp=1.0
 $END
  -4.418519e+03   5.177573e+02
  -2.684527e+03  -2.653928e+03
   7.372751e+02  -2.931291e+03
   2.200795e+03  -8.371733e+02
   9.249174e+02   8.465401e+02
  -7.777486e+02   7.278682e+02
  -1.078174e+03  -4.628766e+02
  -7.509640e+01  -1.225108e+03
   8.841447e+02  -9.159378e+02
   1.037383e+03   6.673946e+01
   5.354988e+02   9.618716e+02
  -2.153397e+02   1.007570e+03
  -7.216460e+02   1.729943e+02
  -5.072206e+02  -7.691737e+02
   2.479319e+02  -7.821605e+02
   6.868657e+02  -2.400062e+01
   3.326837e+02   7.456641e+02
  -3.392841e+02   7.131359e+02
  -6.482790e+02   1.081951e+02
  -4.361555e+02  -3.790124e+02
  -4.514285e+01  -5.098416e+02
   2.557075e+02  -3.220460e+02
   2.648243e+02  -2.193051e+01
  -9.473185e+01   1.441352e+02
  -4.763088e+02  -4.527548e+01
  -2.956405e+02  -4.689833e+02
   4.563015e+02  -5.492071e+02
   9.647421e+02  -5.112924e+01
   5.525992e+02   6.038148e+02
  -3.981849e+02   6.171510e+02
  -8.433772e+02   3.573596e+01
  -4.340766e+02  -5.176192e+02
   2.763373e+02  -6.181569e+02
   6.150975e+02  -2.633253e+02
   4.699412e+02   2.334909e+02
   1.061833e+02   5.417778e+02
  -2.097915e+02   3.317723e+02
  -2.430698e+02  -2.316198e+02
   1.306689e+02  -5.264732e+02
   5.134529e+02  -4.085264e+01
   3.693598e+02   7.079682e+02
  -2.861401e+02   8.124685e+02
  -6.824798e+02   7.451862e+01
  -3.599488e+02  -5.936435e+02
   2.961772e+02  -4.012792e+02
   4.841599e+02   2.898431e+02
   2.755249e+00   5.883496e+02
  -5.744927e+02   2.074810e+02
  -6.715463e+02  -3.724702e+02
  -2.304745e+02  -6.009829e+02
   3.774339e+02  -4.137753e+02
   6.808697e+02   5.909842e+00
   4.458846e+02   3.905444e+02
  -1.322400e+02   4.420686e+02
  -4.917205e+02   1.087836e+02
  -2.878023e+02  -2.123615e+02
   1.345563e+02  -1.437469e+02
   1.866926e+02   1.696560e+02
  -1.724784e+02   2.462808e+02
  -4.009905e+02  -4.233272e+01
  -1.847488e+02  -3.283627e+02
   2.014809e+02  -3.062546e+02
   3.447899e+02  -8.843637e+01
   2.100671e+02   8.282518e+01
   2.987470e+00   2.190190e+02
  -1.806716e+02   3.515313e+02
  -3.247968e+02   2.745219e+02
  -3.369830e+02  -1.019454e+02
  -1.407980e+02  -4.434036e+02
   8.360023e+01  -4.095191e+02
   1.383165e+02  -1.097458e+02
   2.594345e+01   3.364000e+01
   1.476559e+01  -8.765587e+01
   1.739260e+02  -1.664114e+02
   3.084714e+02   1.825220e+01
   2.076544e+02   2.767062e+02
  -5.004792e+01   2.946565e+02
  -2.500173e+02   5.431799e+01
  -2.580933e+02  -2.292692e+02
  -4.157054e+01  -3.212197e+02
   2.655997e+02  -1.716314e+02
   4.095636e+02   1.197302e+02
   2.489647e+02   3.419427e+02
  -7.258757e+01   3.335067e+02
  -2.362370e+02   1.404171e+02
  -1.479184e+02   4.951406e+00
  -8.847829e+01   4.928341e+01
  -2.385280e+02   1.088747e+02
  -4.371727e+02  -2.827503e+01
  -3.754909e+02  -2.843419e+02
  -3.446833e+01  -4.707629e+02
   3.298193e+02  -4.670897e+02
   4.786809e+02  -2.618440e+02
   3.658711e+02   6.512634e+01
   1.039019e+02   3.128959e+02
  -1.097897e+02   2.926451e+02
  -1.050168e+02   4.495835e+01
   8.826765e+01  -1.335846e+02
   2.130743e+02  -2.589795e+01
   8.485464e+01   2.068045e+02
  -1.526608e+02   1.968840e+02
  -2.074618e+02  -3.902905e+01
   5.428772e-01  -2.204757e+02
   2.062578e+02  -6.638290e+01
   1.947907e+02   2.406520e+02
   1.090094e+00   3.688917e+02
  -2.137323e+02   2.255473e+02
  -3.413634e+02  -3.061806e+01
  -3.152257e+02  -2.150336e+02
  -1.287911e+02  -2.665472e+02
   1.032522e+02  -1.812322e+02
   1.921742e+02  -3.607455e+01
   6.730549e+01   4.031095e+01
  -8.736798e+01  -2.770328e+01
  -5.554810e+01  -1.351769e+02
   1.178231e+02  -1.289161e+02
   1.995586e+02  -1.082706e+01
   7.664341e+01   7.432713e+01
  -7.923476e+01   3.670215e+01
  -7.084413e+01  -6.364799e+01
   1.061758e+02  -1.021605e+02
   2.801878e+02  -3.688827e+01
   2.916382e+02   1.106179e+02
   9.982460e+01   2.602864e+02
  -1.550552e+02   2.954402e+02
  -2.918286e+02   1.700342e+02
  -1.986679e+02  -4.482240e+01
   1.140612e+01  -1.316294e+02
   1.038131e+02  -2.472291e+01
  -1.152200e+01   1.171547e+02
  -1.913536e+02   9.594255e+01
  -2.380162e+02  -7.810648e+01
  -9.678260e+01  -2.135777e+02
   8.028753e+01  -1.816763e+02
   1.478881e+02  -5.046877e+01
   8.345007e+01   3.629620e+01
  -2.231165e+01   1.551312e+01
  -4.795052e+01  -7.101573e+01
   5.536297e+01  -1.219128e+02
   2.011276e+02  -5.271244e+01
   2.153613e+02   1.073073e+02
   4.834043e+01   2.312666e+02
  -1.580410e+02   1.945359e+02
  -2.091443e+02   2.696540e+01
  -8.694871e+01  -1.187067e+02
   5.766494e+01  -1.267004e+02
   8.783340e+01  -4.180968e+01
   2.799240e+01   2.276305e+01
  -1.518624e+01   2.302138e+01
   8.507136e+00  -2.297286e+00
   6.870908e+01   6.298984e+00
   9.632873e+01   7.270153e+01
   3.361236e+01   1.599304e+02
  -1.094798e+02   1.736928e+02
  -2.372211e+02   5.650692e+01
  -2.284914e+02  -1.329757e+02
  -6.782544e+01  -2.431961e+02
   1.019657e+02  -1.899339e+02
   1.411817e+02  -3.880592e+01
   7.738620e+01   5.617979e+01
   3.403826e+01   3.938302e+01
   5.480032e+01  -1.508505e+01
   8.156067e+01  -1.365049e+01
   4.302368e+01   4.808969e+01
  -4.167046e+01   9.249485e+01
  -9.804933e+01   6.517943e+01
  -8.719928e+01  -2.310069e+01
   1.926798e+00  -1.083045e+02
   1.260813e+02  -1.035987e+02
   2.012610e+02   2.243291e+01
   1.325342e+02   1.897994e+02
  -6.895837e+01   2.464986e+02
  -2.478057e+02   1.182728e+02
  -2.805777e+02  -5.603050e+01
  -1.411279e+02  -1.745270e+02
   2.329789e+01  -1.589484e+02
   9.140726e+01  -9.364904e+01
   7.942206e+01  -7.711961e+01
   5.900447e+01  -9.899622e+01
   8.461094e+01  -8.537376e+01
   1.333283e+02   9.916591e+00
   1.399074e+02   1.425568e+02
   6.057806e+01   2.236077e+02
  -7.890943e+01   1.898251e+02
  -1.763002e+02   4.376666e+01
  -1.557478e+02  -1.056578e+02
  -4.166898e+01  -1.607683e+02
   6.217013e+01  -1.058974e+02
   6.814444e+01  -1.290780e+01
   1.450750e+01   3.933691e+01
  -3.780431e+00   3.666012e+01
   3.998791e+01   1.655527e+01
   8.394005e+01   1.958706e+01
   5.230942e+01   3.849268e+01
  -5.672045e+01   4.876708e+01
  -1.586503e+02   2.010382e+01
  -1.541486e+02  -3.593863e+01
  -2.909764e+01  -8.758002e+01
   1.096126e+02  -8.936554e+01
   1.451275e+02  -3.057104e+01
   5.461308e+01   3.625807e+01
  -5.730496e+01   4.303695e+01
  -7.825272e+01  -1.617374e+01
  -1.238902e+01  -6.994423e+01
   5.383851e+01  -6.281651e+01
   6.284412e+01  -1.348868e+00
   4.369289e+01   4.552487e+01
   4.554165e+01   3.663909e+01
   6.460688e+01  -4.708746e+00
   6.572623e+01  -7.736542e+00
   4.175242e+01   6.195316e+01
  -1.565105e+01   1.465216e+02
  -9.923088e+01   1.512222e+02
  -1.557494e+02   4.761949e+01
  -1.330649e+02  -7.765814e+01
  -2.405239e+01  -1.248158e+02
   7.726952e+01  -7.115581e+01
   6.299810e+01   9.556341e+00
  -5.521217e+01   2.661458e+01
  -1.443188e+02  -3.519393e+01
  -8.605704e+01  -1.061836e+02
   7.571745e+01  -1.253009e+02
   1.931982e+02  -7.479090e+01
   1.721034e+02   1.915159e+01
   5.060429e+01   8.973712e+01
  -5.413208e+01   8.521098e+01
  -5.183692e+01   1.775272e+01
   3.122359e+01  -2.787493e+01
   8.855888e+01   1.315126e+01
   4.265612e+01   1.125662e+02
  -7.572059e+01   1.620289e+02
  -1.631728e+02   7.816991e+01
  -1.380655e+02  -8.954301e+01
  -2.797288e+01  -2.016522e+02
   7.733451e+01  -1.588428e+02
   1.121820e+02  -5.670959e+00
   7.738366e+01   1.168465e+02
   1.165944e+01   1.164784e+02
  -4.714788e+01   2.911076e+01
  -6.264903e+01  -2.551707e+01
  -3.415548e+01  -9.056434e+00
  -8.271231e-01   1.954952e+01
  -1.567180e+01  -9.816809e+00
  -6.098798e+01  -7.824443e+01
  -5.852422e+01  -1.058131e+02
   3.986464e+01  -5.565643e+01
   1.454798e+02   2.105754e+01
   1.433915e+02   5.899407e+01
   2.455034e+01   5.181642e+01
  -8.931082e+01   3.093682e+01
  -9.007145e+01   1.561437e+01
  -9.632435e+00  -5.991869e+00
   3.965538e+01  -2.592649e+01
   1.077777e+01  -2.195510e+01
  -2.375455e+01   3.040390e-01
   5.213821e+00   8.155767e+00
   7.835227e+01  -3.675977e-02
   9.858117e+01   2.033653e+01
   1.682260e+01   8.534076e+01
  -1.145551e+02   1.310661e+02
  -1.854419e+02   7.564357e+01
  -1.535473e+02  -5.944636e+01
  -4.326242e+01  -1.646602e+02
   6.631897e+01  -1.609520e+02
   1.087658e+02  -6.933855e+01
   8.546173e+01   1.428928e+01
   3.097820e+01   3.250113e+01
  -2.016657e+00   9.478371e+00
   8.036263e+00   1.379221e+00
   3.784953e+01   4.332145e+01
   3.410626e+01   8.864053e+01
  -2.030869e+01   7.656410e+01
  -8.425847e+01  -7.910988e+00
  -8.883396e+01  -1.021810e+02
  -1.393685e+01  -1.151900e+02
   8.238811e+01  -3.179598e+01
   1.098534e+02   6.692145e+01
   3.905506e+01   9.974564e+01
  -6.192366e+01   6.043109e+01
  -9.706424e+01  -2.090232e+00
  -4.444379e+01  -4.461702e+01
   2.409781e+01  -5.356351e+01
   2.725263e+01  -3.155351e+01
  -3.318308e+01   1.233846e+00
  -6.937215e+01   9.682135e+00
  -1.737282e+01  -2.365954e+01
   7.379550e+01  -7.198747e+01
   1.097934e+02  -6.609875e+01
   6.447629e+01   7.034637e+00
  -1.052421e+01   8.561077e+01
  -4.691638e+01   8.327301e+01
  -3.751629e+01   5.021585e+00
  -7.051158e+00  -5.815004e+01
   2.402984e+01  -4.741063e+01
   4.131593e+01   1.725877e+01
   3.393532e+01   5.517526e+01
   2.691308e-01   3.721089e+01
  -3.529563e+01  -4.196391e+00
  -4.407303e+01  -1.710318e+01
  -2.375374e+01   2.442645e-01
   3.715382e-01   1.170780e+01
   7.147575e+00  -6.654248e+00
   6.792148e+00  -3.787819e+01
   1.346373e+01  -4.585651e+01
   3.150607e+01  -8.707565e+00
   3.342422e+01   4.440839e+01
   3.369546e+00   6.367595e+01
  -4.305876e+01   2.611004e+01
  -6.072138e+01  -3.250609e+01
  -2.251415e+01  -6.238641e+01
   4.954337e+01  -4.073147e+01
   9.152880e+01   8.834544e+00
   5.495804e+01   4.015629e+01
  -2.470928e+01   4.184517e+01
  -6.412919e+01   2.268592e+01
  -2.412846e+01   4.686423e+00
   3.921593e+01   2.308275e+00
   3.966685e+01   1.752442e+01
  -3.131551e+01   3.597158e+01
  -9.512666e+01   2.565417e+01
