
 $NMID
 id='ANONYMOUS ', fmtdat='(2E16.6)'
 volume=1.0
 tramp=1.0
 $END
  -4.758040e+03   2.126695e+02
  -3.001576e+03  -2.721264e+03
   6.080300e+02  -3.136551e+03
   2.235414e+03  -1.048300e+03
   1.040714e+03   7.822121e+02
  -7.421246e+02   7.076889e+02
  -1.034729e+03  -5.253028e+02
   8.929072e+00  -1.247919e+03
   9.534332e+02  -8.638693e+02
   1.064585e+03   1.222058e+02
   4.904988e+02   1.004766e+03
  -2.748687e+02   1.007963e+03
  -7.259771e+02   1.385864e+02
  -4.464871e+02  -8.127580e+02
   3.093973e+02  -7.913957e+02
   7.029153e+02  -5.659605e+00
   3.080751e+02   7.498791e+02
  -3.835775e+02   6.871373e+02
  -6.538104e+02   8.889464e+01
  -4.227749e+02  -4.048431e+02
  -2.696956e+01  -4.931892e+02
   2.717053e+02  -3.160604e+02
   2.616240e+02  -4.169049e+01
  -7.673908e+01   1.138942e+02
  -4.464524e+02  -7.899347e+01
  -2.526634e+02  -4.554914e+02
   4.675290e+02  -4.813375e+02
   9.378861e+02   5.512035e+01
   5.040799e+02   6.077633e+02
  -3.998876e+02   5.641923e+02
  -8.253469e+02  -1.886038e+01
  -4.078817e+02  -5.331378e+02
   2.970303e+02  -5.825194e+02
   6.315657e+02  -2.438245e+02
   4.775814e+02   2.463498e+02
   7.863420e+01   5.526128e+02
  -2.429735e+02   3.448450e+02
  -2.208245e+02  -2.395117e+02
   1.703032e+02  -5.287629e+02
   5.236186e+02  -2.625728e+01
   3.236886e+02   7.362847e+02
  -3.334217e+02   8.139335e+02
  -6.849809e+02   4.767296e+01
  -3.147443e+02  -6.099766e+02
   3.235350e+02  -3.850134e+02
   4.571558e+02   3.429546e+02
  -4.794207e+01   6.121004e+02
  -5.933325e+02   1.767013e+02
  -6.614599e+02  -4.217851e+02
  -2.007850e+02  -6.302274e+02
   4.066820e+02  -3.988464e+02
   6.944654e+02   7.044730e+01
   4.154237e+02   4.454201e+02
  -1.639461e+02   4.275043e+02
  -5.113868e+02   5.750846e+01
  -2.924130e+02  -2.587891e+02
   1.378711e+02  -1.498563e+02
   1.802531e+02   1.664651e+02
  -1.744875e+02   2.169364e+02
  -3.859757e+02  -6.221572e+01
  -1.503594e+02  -3.281026e+02
   2.299496e+02  -2.799036e+02
   3.518985e+02  -6.998155e+01
   1.981788e+02   1.003181e+02
  -2.467937e+01   2.243673e+02
  -2.120843e+02   3.322308e+02
  -3.476338e+02   2.468236e+02
  -3.307972e+02  -1.314218e+02
  -1.112937e+02  -4.669781e+02
   1.107141e+02  -4.159882e+02
   1.454613e+02  -1.198384e+02
   3.960705e+01   2.895799e+01
   3.154203e+01  -7.483684e+01
   1.752964e+02  -1.370268e+02
   2.867142e+02   4.259820e+01
   1.751615e+02   2.735202e+02
  -6.195544e+01   2.750570e+02
  -2.369287e+02   2.700172e+01
  -2.170298e+02  -2.442539e+02
  -6.893977e+00  -3.177545e+02
   2.770962e+02  -1.394033e+02
   4.039150e+02   1.706717e+02
   2.132865e+02   3.810352e+02
  -1.069375e+02   3.418758e+02
  -2.511252e+02   1.301663e+02
  -1.612834e+02  -3.017416e+00
  -1.048491e+02   2.980490e+01
  -2.432205e+02   6.745731e+01
  -4.119297e+02  -6.291699e+01
  -3.439926e+02  -2.952846e+02
   5.337758e+00  -4.596882e+02
   3.713980e+02  -4.328275e+02
   4.972321e+02  -2.293444e+02
   3.566688e+02   8.461399e+01
   7.746455e+01   3.126647e+02
  -1.295914e+02   2.854648e+02
  -1.063680e+02   3.661715e+01
   9.999388e+01  -1.366512e+02
   2.170526e+02  -1.219654e+01
   7.004553e+01   2.121001e+02
  -1.772967e+02   1.785287e+02
  -2.070713e+02  -5.921597e+01
   1.518828e+01  -2.232480e+02
   2.102530e+02  -5.118990e+01
   1.794463e+02   2.493230e+02
  -2.523055e+01   3.695462e+02
  -2.319351e+02   2.078779e+02
  -3.358889e+02  -6.011079e+01
  -2.937799e+02  -2.397763e+02
  -1.080234e+02  -2.727946e+02
   1.134589e+02  -1.741346e+02
   1.938427e+02  -2.656664e+01
   6.766194e+01   3.925152e+01
  -7.672012e+01  -3.097446e+01
  -4.273991e+01  -1.316964e+02
   1.239627e+02  -1.160684e+02
   1.961031e+02   3.221510e+00
   7.091342e+01   7.740817e+01
  -8.166501e+01   3.052606e+01
  -6.390042e+01  -6.698832e+01
   1.174636e+02  -8.786640e+01
   2.866981e+02  -1.075327e+01
   2.767109e+02   1.401601e+02
   6.984142e+01   2.669338e+02
  -1.906328e+02   2.788946e+02
  -3.081790e+02   1.333979e+02
  -1.922033e+02  -5.722261e+01
   2.078868e+01  -1.245955e+02
   1.029280e+02  -1.408428e+01
  -2.428981e+01   1.112311e+02
  -2.065502e+02   6.972011e+01
  -2.315499e+02  -1.034477e+02
  -7.750390e+01  -2.207543e+02
   9.752433e+01  -1.719982e+02
   1.525738e+02  -3.534788e+01
   8.058322e+01   4.251537e+01
  -2.425215e+01   9.482904e+00
  -4.186735e+01  -7.694800e+01
   6.479813e+01  -1.169192e+02
   1.989677e+02  -3.948642e+01
   2.005003e+02   1.180366e+02
   2.919420e+01   2.304090e+02
  -1.734188e+02   1.767600e+02
  -2.118645e+02   9.105942e+00
  -7.574432e+01  -1.276217e+02
   6.955132e+01  -1.265140e+02
   9.355543e+01  -3.628374e+01
   2.670861e+01   2.314141e+01
  -1.610737e+01   2.068543e+01
   1.336090e+01  -5.959370e-01
   6.936187e+01   1.696319e+01
   8.566306e+01   8.544831e+01
   1.501248e+01   1.588095e+02
  -1.248012e+02   1.590029e+02
  -2.412537e+02   3.314268e+01
  -2.158284e+02  -1.499872e+02
  -5.358575e+01  -2.492709e+02
   1.114662e+02  -1.846118e+02
   1.450503e+02  -3.239349e+01
   7.609775e+01   5.985493e+01
   3.349182e+01   4.576690e+01
   5.544731e+01  -9.888864e-01
   7.906396e+01  -2.646384e+00
   3.620694e+01   5.038779e+01
  -4.965984e+01   8.641926e+01
  -9.923261e+01   5.206895e+01
  -8.327314e+01  -3.120062e+01
   9.996574e+00  -1.051470e+02
   1.356587e+02  -8.907908e+01
   1.953865e+02   3.974863e+01
   1.116102e+02   1.962926e+02
  -9.206771e+01   2.379879e+02
  -2.576231e+02   8.964995e+01
  -2.716141e+02  -8.236272e+01
  -1.160768e+02  -1.874605e+02
   4.186891e+01  -1.580320e+02
   9.835377e+01  -8.647595e+01
   7.917113e+01  -6.855256e+01
   6.702637e+01  -9.326082e+01
   9.538317e+01  -7.844082e+01
   1.354025e+02   1.964047e+01
   1.301391e+02   1.543297e+02
   4.084505e+01   2.320707e+02
  -9.598790e+01   1.858675e+02
  -1.818534e+02   3.189557e+01
  -1.480992e+02  -1.205969e+02
  -2.925593e+01  -1.665253e+02
   6.549544e+01  -9.921395e+01
   6.560842e+01  -5.608762e+00
   1.048318e+01   4.174445e+01
  -7.022319e+00   3.572185e+01
   3.779486e+01   1.930166e+01
   8.417943e+01   2.467695e+01
   4.894722e+01   4.128293e+01
  -6.478565e+01   4.195252e+01
  -1.638939e+02   1.014758e+01
  -1.549565e+02  -4.815168e+01
  -2.298959e+01  -9.133614e+01
   1.207737e+02  -8.230412e+01
   1.510766e+02  -1.881839e+01
   5.447465e+01   4.081957e+01
  -6.014604e+01   3.955923e+01
  -7.290670e+01  -1.455314e+01
  -7.708895e+00  -7.003958e+01
   5.817187e+01  -5.950627e+01
   6.320737e+01   2.886585e+00
   4.273206e+01   5.109397e+01
   4.558725e+01   4.473038e+01
   6.446821e+01   1.545087e+00
   6.791385e+01  -8.592670e-01
   3.694949e+01   6.873526e+01
  -2.937233e+01   1.519645e+02
  -1.152429e+02   1.495004e+02
  -1.653876e+02   3.866298e+01
  -1.283002e+02  -9.148981e+01
  -1.203344e+01  -1.287978e+02
   8.619570e+01  -6.110964e+01
   6.169317e+01   1.625367e+01
  -6.066781e+01   2.092713e+01
  -1.389584e+02  -4.470595e+01
  -7.903149e+01  -1.108559e+02
   7.966680e+01  -1.160501e+02
   1.936565e+02  -5.737170e+01
   1.648664e+02   3.379050e+01
   3.855679e+01   8.887083e+01
  -6.366569e+01   7.262299e+01
  -5.260213e+01   8.503917e+00
   3.864802e+01  -3.031071e+01
   9.591202e+01   1.650307e+01
   3.918332e+01   1.203323e+02
  -9.226919e+01   1.638408e+02
  -1.785014e+02   7.174452e+01
  -1.360707e+02  -1.050251e+02
  -1.392580e+01  -2.120370e+02
   9.131001e+01  -1.574568e+02
   1.120244e+02   4.374070e+00
   6.429689e+01   1.224578e+02
   1.747202e-01   1.154358e+02
  -4.823605e+01   2.242693e+01
  -5.559343e+01  -3.346267e+01
  -2.916161e+01  -1.302168e+01
  -2.131136e+00   2.092809e+01
  -1.806995e+01  -1.078458e+01
  -5.864533e+01  -8.581011e+01
  -4.608722e+01  -1.138895e+02
   5.003404e+01  -4.918109e+01
   1.437045e+02   3.760860e+01
   1.330146e+02   7.380264e+01
   1.615055e+01   4.952965e+01
  -8.850871e+01   2.036137e+01
  -8.791460e+01   9.732207e+00
  -1.070978e+01  -6.542962e+00
   3.888292e+01  -2.295907e+01
   1.373680e+01  -2.043799e+01
  -2.173274e+01   8.084799e-01
   5.524867e+00   9.947251e+00
   7.551665e+01   4.916470e+00
   9.270823e+01   2.394733e+01
   8.884179e+00   8.012426e+01
  -1.212582e+02   1.180759e+02
  -1.875053e+02   5.877928e+01
  -1.444260e+02  -7.342637e+01
  -2.558891e+01  -1.678364e+02
   8.098657e+01  -1.537364e+02
   1.180444e+02  -6.208466e+01
   8.734404e+01   1.957675e+01
   2.914146e+01   3.610702e+01
  -2.971001e+00   1.216600e+01
   8.909276e+00   5.577195e+00
   3.647989e+01   4.325005e+01
   2.584502e+01   9.291270e+01
  -2.914775e+01   7.732240e+01
  -8.849192e+01  -1.442490e+01
  -8.675018e+01  -1.115647e+02
  -6.710317e+00  -1.203427e+02
   8.859544e+01  -2.739342e+01
   1.127270e+02   7.660862e+01
   3.483657e+01   1.046080e+02
  -6.831013e+01   5.651245e+01
  -1.018899e+02  -1.125438e+01
  -4.000493e+01  -5.012976e+01
   3.257220e+01  -5.427167e+01
   3.164993e+01  -3.150756e+01
  -3.597396e+01   1.745249e+00
  -7.295325e+01   7.643648e+00
  -1.549678e+01  -2.462092e+01
   7.978253e+01  -7.083225e+01
   1.175942e+02  -6.108266e+01
   6.082673e+01   1.159732e+01
  -1.869197e+01   8.547143e+01
  -5.460279e+01   7.921922e+01
  -3.492267e+01   1.733265e+00
  -7.417764e-02  -5.850756e+01
   2.821374e+01  -4.341533e+01
   3.803210e+01   2.113756e+01
   2.608158e+01   5.741255e+01
  -5.114296e+00   3.557938e+01
  -3.662865e+01  -9.007960e+00
  -4.217688e+01  -2.384115e+01
  -2.074917e+01  -3.349248e+00
   1.044331e+00   1.286663e+01
   8.040118e+00  -4.576037e+00
   8.746898e+00  -3.736558e+01
   1.809169e+01  -4.657675e+01
   3.432973e+01  -6.466214e+00
   3.036937e+01   4.755903e+01
  -3.084697e+00   6.472817e+01
  -4.571878e+01   2.272719e+01
  -5.690268e+01  -4.091310e+01
  -1.698834e+01  -6.405689e+01
   5.388002e+01  -3.639768e+01
   9.042183e+01   1.436141e+01
   5.254123e+01   4.469048e+01
  -2.702677e+01   4.107037e+01
  -6.541418e+01   2.019691e+01
  -2.313969e+01   5.733911e+00
   4.067441e+01   4.701431e+00
   3.998677e+01   1.992704e+01
  -3.179488e+01   3.521633e+01
  -9.529014e+01   2.161355e+01
