
 $NMID
 id='ANONYMOUS ', fmtdat='(2E16.6)'
 volume=1.0
 tramp=1.0
 $END
   4.439146e+03  -1.824899e+02
   2.742701e+03   2.519783e+03
  -6.437980e+02   2.921584e+03
  -2.114635e+03   9.534537e+02
  -9.647443e+02  -6.931762e+02
   7.038860e+02  -5.843209e+02
   9.153540e+02   5.155217e+02
  -5.472659e+01   1.168926e+03
  -9.245754e+02   8.011473e+02
  -1.014594e+03  -1.374807e+02
  -4.627891e+02  -9.757738e+02
   2.977468e+02  -9.462223e+02
   6.972060e+02  -1.119508e+02
   3.912967e+02   7.972737e+02
  -3.338968e+02   7.371831e+02
  -6.700649e+02  -8.828576e+00
  -2.801516e+02  -7.266199e+02
   3.748863e+02  -6.685680e+02
   6.237546e+02  -8.874039e+01
   4.076165e+02   3.747848e+02
   1.674377e+01   4.546133e+02
  -2.580964e+02   2.909983e+02
  -2.380121e+02   1.968003e+01
   1.036470e+02  -1.039566e+02
   4.408233e+02   1.117725e+02
   2.254025e+02   4.653577e+02
  -4.765228e+02   4.515894e+02
  -9.099202e+02  -8.277229e+01
  -4.602145e+02  -6.079261e+02
   4.061553e+02  -5.228720e+02
   7.906798e+02   5.227934e+01
   3.745028e+02   5.195496e+02
  -2.955595e+02   5.427587e+02
  -6.058359e+02   2.112015e+02
  -4.444683e+02  -2.525059e+02
  -4.767019e+01  -5.319667e+02
   2.576544e+02  -3.111601e+02
   2.024843e+02   2.599230e+02
  -2.005190e+02   4.982626e+02
  -5.145591e+02  -6.798021e+00
  -2.724161e+02  -7.285425e+02
   3.806134e+02  -7.473654e+02
   6.569076e+02   1.302154e+01
   2.519544e+02   6.127650e+02
  -3.461305e+02   3.480840e+02
  -4.312249e+02  -3.625320e+02
   7.789517e+01  -6.052262e+02
   5.947232e+02  -1.630094e+02
   6.407382e+02   4.386156e+02
   1.716336e+02   6.324237e+02
  -4.100449e+02   3.849680e+02
  -6.832200e+02  -8.870557e+01
  -3.906608e+02  -4.332525e+02
   1.719401e+02  -3.837399e+02
   4.777485e+02  -2.902056e+01
   2.461363e+02   2.436646e+02
  -1.479976e+02   1.190745e+02
  -1.685792e+02  -1.788471e+02
   1.773526e+02  -2.107227e+02
   3.770868e+02   8.052801e+01
   1.424128e+02   3.234241e+02
  -2.276164e+02   2.749518e+02
  -3.464144e+02   6.609437e+01
  -2.026550e+02  -1.063154e+02
   2.445504e+01  -2.430040e+02
   2.390395e+02  -3.382273e+02
   3.719567e+02  -2.308503e+02
   3.108831e+02   1.519642e+02
   7.092683e+01   4.734093e+02
  -1.238445e+02   4.114589e+02
  -1.354444e+02   1.103802e+02
  -2.861471e+01  -1.840336e+01
  -3.697370e+01   9.076317e+01
  -1.928155e+02   1.425669e+02
  -2.936805e+02  -4.929643e+01
  -1.708390e+02  -2.835420e+02
   6.734949e+01  -2.743050e+02
   2.344333e+02  -1.947871e+01
   2.059168e+02   2.456633e+02
  -5.870834e+00   3.081574e+02
  -2.710924e+02   1.252648e+02
  -3.789549e+02  -1.747852e+02
  -1.930166e+02  -3.726667e+02
   1.091498e+02  -3.242762e+02
   2.416848e+02  -1.273068e+02
   1.565442e+02  -2.628687e+00
   1.102410e+02  -2.904974e+01
   2.585939e+02  -5.627956e+01
   4.218600e+02   8.008451e+01
   3.313654e+02   3.061549e+02
  -2.320798e+01   4.473023e+02
  -3.733333e+02   4.041747e+02
  -4.927348e+02   1.981280e+02
  -3.421371e+02  -9.665207e+01
  -6.133769e+01  -3.057605e+02
   1.325917e+02  -2.718806e+02
   9.086222e+01  -2.834000e+01
  -1.149681e+02   1.239878e+02
  -2.140883e+02  -5.195967e+00
  -5.827006e+01  -2.108644e+02
   1.722724e+02  -1.631645e+02
   1.958766e+02   6.587849e+01
  -2.178850e+01   2.195707e+02
  -2.101718e+02   3.883344e+01
  -1.698319e+02  -2.585998e+02
   3.335068e+01  -3.660937e+02
   2.381679e+02  -2.026404e+02
   3.348734e+02   6.766650e+01
   2.918757e+02   2.418766e+02
   9.783973e+01   2.700667e+02
  -1.176580e+02   1.696201e+02
  -1.875897e+02   2.208095e+01
  -6.009742e+01  -3.748459e+01
   7.493828e+01   3.797592e+01
   3.497999e+01   1.355132e+02
  -1.293144e+02   1.110116e+02
  -1.915435e+02  -1.361762e+01
  -6.430614e+01  -7.972984e+01
   8.368481e+01  -2.639897e+01
   5.861785e+01   6.932621e+01
  -1.254805e+02   8.459477e+01
  -2.880312e+02   5.464916e+00
  -2.718049e+02  -1.432989e+02
  -6.453804e+01  -2.640131e+02
   1.906160e+02  -2.697633e+02
   3.040400e+02  -1.272593e+02
   1.833848e+02   5.941025e+01
  -2.641889e+01   1.201598e+02
  -1.011048e+02   7.408325e+00
   2.868841e+01  -1.106788e+02
   2.046479e+02  -6.192999e+01
   2.246288e+02   1.119197e+02
   7.120217e+01   2.216544e+02
  -9.979984e+01   1.645932e+02
  -1.496171e+02   2.569956e+01
  -7.092156e+01  -4.607984e+01
   3.037719e+01  -5.236982e+00
   3.985350e+01   8.489423e+01
  -7.287051e+01   1.185053e+02
  -2.025978e+02   3.201935e+01
  -1.963471e+02  -1.266086e+02
  -2.024830e+01  -2.288285e+02
   1.761575e+02  -1.696997e+02
   2.057720e+02  -2.601689e+00
   6.913188e+01   1.277906e+02
  -7.286269e+01   1.230546e+02
  -9.307301e+01   3.435213e+01
  -2.256230e+01  -2.532403e+01
   1.998404e+01  -2.073863e+01
  -9.438246e+00   3.116624e+00
  -7.064419e+01  -1.505595e+01
  -8.612602e+01  -8.666447e+01
  -1.285317e+01  -1.602528e+02
   1.295763e+02  -1.556611e+02
   2.437686e+02  -2.514810e+01
   2.129795e+02   1.562735e+02
   4.965786e+01   2.491005e+02
  -1.161491e+02   1.781817e+02
  -1.453241e+02   2.805241e+01
  -7.289747e+01  -6.115458e+01
  -2.848021e+01  -4.360786e+01
  -5.287346e+01   4.120940e+00
  -8.017424e+01   6.451639e+00
  -4.036908e+01  -4.922076e+01
   4.571177e+01  -9.019725e+01
   1.013058e+02  -5.389133e+01
   8.630257e+01   3.175304e+01
  -1.095473e+01   1.073799e+02
  -1.438308e+02   9.049945e+01
  -2.021406e+02  -4.721205e+01
  -1.067627e+02  -2.080368e+02
   1.089479e+02  -2.432575e+02
   2.668972e+02  -8.178679e+01
   2.682715e+02   9.345200e+01
   1.080129e+02   1.880379e+02
  -4.607715e+01   1.539646e+02
  -9.674680e+01   8.317872e+01
  -7.911797e+01   6.678680e+01
  -6.773544e+01   9.178455e+01
  -9.437135e+01   7.892296e+01
  -1.343045e+02  -1.933095e+01
  -1.306218e+02  -1.574842e+02
  -3.905373e+01  -2.366089e+02
   1.037242e+02  -1.860060e+02
   1.869244e+02  -2.750973e+01
   1.477581e+02   1.276268e+02
   2.191821e+01   1.694053e+02
  -7.189194e+01   9.842656e+01
  -6.786408e+01   4.868172e-01
  -7.368027e+00  -4.427475e+01
   1.107358e+01  -3.588783e+01
  -3.587206e+01  -1.921907e+01
  -8.166533e+01  -2.444782e+01
  -4.603999e+01  -4.063369e+01
   6.383511e+01  -3.956720e+01
   1.617028e+02  -5.822425e+00
   1.499373e+02   5.094447e+01
   1.737395e+01   9.191861e+01
  -1.219835e+02   7.646432e+01
  -1.478823e+02   1.139285e+01
  -5.003877e+01  -4.480790e+01
   6.140244e+01  -3.761590e+01
   6.890090e+01   1.847183e+01
   7.539834e+00   7.021810e+01
  -5.783208e+01   5.878072e+01
  -6.277818e+01  -3.645397e+00
  -4.255194e+01  -4.934157e+01
  -4.640992e+01  -4.068703e+01
  -6.818130e+01  -9.199021e-01
  -7.027887e+01  -4.036790e+00
  -3.470137e+01  -6.973086e+01
   3.434601e+01  -1.489331e+02
   1.188616e+02  -1.452497e+02
   1.633129e+02  -3.764123e+01
   1.247828e+02   9.199794e+01
   1.003217e+01   1.301163e+02
  -8.563824e+01   6.178959e+01
  -5.998656e+01  -1.528806e+01
   6.064453e+01  -2.210277e+01
   1.401678e+02   4.679662e+01
   7.952708e+01   1.119192e+02
  -7.963289e+01   1.166555e+02
  -1.956325e+02   5.372852e+01
  -1.656595e+02  -3.967932e+01
  -3.503189e+01  -9.247487e+01
   6.783671e+01  -7.149130e+01
   5.543621e+01  -5.230695e+00
  -3.855778e+01   3.118587e+01
  -9.510944e+01  -1.914480e+01
  -3.725130e+01  -1.213064e+02
   9.234094e+01  -1.606093e+02
   1.747260e+02  -6.509282e+01
   1.300982e+02   1.063688e+02
   9.166004e+00   2.086879e+02
  -9.298243e+01   1.526718e+02
  -1.121303e+02  -8.692241e+00
  -5.994124e+01  -1.247275e+02
   6.342818e+00  -1.140128e+02
   5.063479e+01  -1.805313e+01
   5.168686e+01   3.724116e+01
   2.344176e+01   1.258673e+01
   1.892014e+00  -2.338664e+01
   2.066261e+01   1.062641e+01
   5.745892e+01   8.803818e+01
   4.395291e+01   1.148725e+02
  -4.923455e+01   4.634921e+01
  -1.377601e+02  -4.319411e+01
  -1.296634e+02  -7.806211e+01
  -1.578209e+01  -5.202556e+01
   9.044695e+01  -1.873036e+01
   9.058933e+01  -5.857767e+00
   9.230430e+00   8.233105e+00
  -4.016244e+01   2.280045e+01
  -1.484249e+01   1.895592e+01
   2.172268e+01   7.106076e-01
  -6.694160e+00  -7.939938e+00
  -8.164555e+01  -4.951491e+00
  -9.945072e+01  -2.777213e+01
  -8.756738e+00  -8.536225e+01
   1.277537e+02  -1.197748e+02
   1.958247e+02  -5.942270e+01
   1.462382e+02   7.423318e+01
   2.304022e+01   1.702359e+02
  -8.612401e+01   1.515147e+02
  -1.186159e+02   5.844429e+01
  -8.354561e+01  -2.210360e+01
  -2.617749e+01  -3.608982e+01
   4.121660e+00  -9.795967e+00
  -9.765593e+00  -4.454081e+00
  -3.457301e+01  -4.374703e+01
  -2.559362e+01  -9.570255e+01
   3.002733e+01  -7.606238e+01
   8.787375e+01   1.700221e+01
   8.489409e+01   1.142267e+02
   4.688075e+00   1.205907e+02
  -8.855659e+01   2.609741e+01
  -1.120465e+02  -7.999739e+01
  -3.356607e+01  -1.079301e+02
   6.789308e+01  -5.782425e+01
   1.014784e+02   1.110511e+01
   4.065108e+01   5.151858e+01
  -3.258993e+01   5.375786e+01
  -2.980332e+01   3.100152e+01
   3.854104e+01  -9.170417e-01
   7.547418e+01  -6.862064e+00
   1.715150e+01   2.514675e+01
  -8.189949e+01   7.081848e+01
  -1.245904e+02   6.633789e+01
  -6.572908e+01  -9.733914e+00
   1.717958e+01  -8.693138e+01
   5.777547e+01  -8.242325e+01
   3.847746e+01  -3.812913e+00
  -4.770071e-01   5.972471e+01
  -3.024504e+01   4.359301e+01
  -3.794290e+01  -2.110753e+01
  -2.371620e+01  -5.786235e+01
   6.369943e+00  -3.487445e+01
   3.520963e+01   1.024472e+01
   4.039073e+01   2.444403e+01
   1.989469e+01   4.111474e+00
  -1.892705e+00  -1.433175e+01
  -8.769491e+00   2.769172e+00
  -7.552397e+00   3.552670e+01
  -1.754497e+01   4.644191e+01
  -3.300248e+01   8.394865e+00
  -2.965518e+01  -4.561284e+01
   4.196021e+00  -6.335749e+01
   4.711655e+01  -2.087645e+01
   5.805283e+01   4.179019e+01
   1.464328e+01   6.499199e+01
  -5.460897e+01   3.581565e+01
  -8.957663e+01  -1.570631e+01
  -5.165826e+01  -4.592199e+01
   2.736829e+01  -4.189215e+01
   6.396849e+01  -2.194896e+01
   2.351714e+01  -7.110688e+00
  -3.791045e+01  -5.220280e+00
  -3.821126e+01  -1.768223e+01
   3.273392e+01  -3.169427e+01
   9.499040e+01  -1.875923e+01
