
 $NMID
 id='ANONYMOUS ', fmtdat='(2E16.6)'
 volume=1.0
 tramp=1.0
 $END
  -3.068114e+03  -7.381094e+00
  -1.929079e+03  -1.634651e+03
   6.330409e+01  -2.151553e+03
   1.248681e+03  -1.281047e+03
   1.087511e+03  -8.792926e+01
   8.033613e+01   4.218461e+02
  -4.610026e+02   3.428737e+01
  -1.627383e+02  -5.856687e+02
   4.180613e+02  -6.621955e+02
   6.922824e+02  -1.276659e+02
   5.190872e+02   5.085974e+02
   3.839395e+01   7.020317e+02
  -3.267954e+02   2.335267e+02
  -2.958163e+02  -4.209857e+02
   1.098325e+02  -5.337701e+02
   4.525690e+02  -9.907408e+01
   3.475911e+02   5.147171e+02
  -1.423564e+02   6.738907e+02
  -5.177815e+02   2.866113e+02
  -4.991748e+02  -1.948347e+02
  -1.519759e+02  -4.087284e+02
   1.336879e+02  -2.839726e+02
   1.065018e+02  -1.094886e+02
  -1.106844e+02  -1.071763e+02
  -2.423910e+02  -2.416038e+02
  -6.349314e+00  -3.178900e+02
   4.177743e+02  -1.642443e+02
   5.859611e+02   1.470443e+02
   2.675989e+02   3.334918e+02
  -2.785777e+02   2.257489e+02
  -4.978050e+02  -8.464912e+01
  -2.104708e+02  -3.438976e+02
   2.370123e+02  -3.682079e+02
   4.459748e+02  -1.511740e+02
   3.318763e+02   1.473980e+02
   1.008685e+02   3.132136e+02
  -3.026655e+01   2.092952e+02
   2.589782e+01  -8.038832e+01
   1.599902e+02  -1.870082e+02
   2.135406e+02   9.461008e+01
   7.055862e+01   4.723877e+02
  -2.080864e+02   4.826106e+02
  -3.500575e+02   5.997132e+01
  -1.775568e+02  -2.928719e+02
   1.137366e+02  -1.764637e+02
   1.920270e+02   2.223009e+02
  -8.530379e+01   3.735221e+02
  -4.293731e+02   8.394907e+01
  -4.832788e+02  -3.601443e+02
  -1.581434e+02  -5.146936e+02
   3.054472e+02  -2.936040e+02
   5.396651e+02   6.200990e+01
   3.636937e+02   2.726343e+02
  -2.264556e+01   2.493253e+02
  -3.024631e+02   1.064712e+02
  -2.401169e+02  -4.091961e+01
  -1.447816e+01  -5.870919e+01
   7.481408e+01   4.101354e+01
  -6.255641e+01   8.379904e+01
  -2.188440e+02  -1.293586e+01
  -1.428640e+02  -1.807514e+02
   1.392728e+02  -2.488619e+02
   3.566452e+02  -1.378106e+02
   2.764398e+02   1.243193e+02
  -3.910148e+01   3.372581e+02
  -3.169294e+02   3.491858e+02
  -3.795545e+02   1.378121e+02
  -2.400850e+02  -1.679524e+02
  -4.931336e+01  -3.587327e+02
   4.803994e+01  -3.182763e+02
   5.186413e+01  -1.607702e+02
   5.544280e+01  -7.867687e+01
   1.256958e+02  -9.193121e+01
   2.171007e+02  -5.528028e+01
   2.284219e+02   1.074099e+02
   9.955594e+01   2.495736e+02
  -7.813366e+01   1.951087e+02
  -1.845005e+02  -3.218764e+01
  -1.368020e+02  -2.290426e+02
   4.073937e+01  -2.445722e+02
   2.439601e+02  -6.927089e+01
   3.089267e+02   1.702582e+02
   1.701781e+02   3.114121e+02
  -5.379491e+01   2.840090e+02
  -1.848388e+02   1.657452e+02
  -1.649157e+02   7.300229e+01
  -1.565609e+02   5.259633e+01
  -2.790954e+02   1.763490e+01
  -4.071341e+02  -1.021104e+02
  -3.157408e+02  -2.957244e+02
   3.196578e+01  -4.365134e+02
   3.888538e+02  -3.827046e+02
   4.720321e+02  -1.657724e+02
   2.814871e+02   9.902827e+01
   1.988359e+01   2.457661e+02
  -9.718813e+01   2.063363e+02
  -2.022790e+01   4.718979e+01
   9.987338e+01  -4.792226e+01
   1.213592e+02   1.931470e+01
   1.723356e+01   1.379990e+02
  -9.882034e+01   9.195124e+01
  -1.045770e+02  -4.204566e+01
   1.387948e+01  -1.333394e+02
   1.580018e+02  -7.686348e+00
   1.528952e+02   2.279211e+02
  -1.793666e+01   3.449833e+02
  -2.547242e+02   2.101499e+02
  -3.715893e+02  -7.154646e+01
  -2.758269e+02  -2.812195e+02
  -4.610221e+01  -2.785263e+02
   1.360695e+02  -1.305103e+02
   1.462347e+02   4.896701e+00
   2.741780e+01   1.395332e+01
  -4.488276e+01  -6.267566e+01
   7.758155e+00  -1.094107e+02
   1.228376e+02  -6.498426e+01
   1.426242e+02   2.545445e+01
   3.581918e+01   5.588191e+01
  -7.588440e+01  -9.065979e+00
  -3.798934e+01  -8.856660e+01
   1.390175e+02  -8.498883e+01
   2.846853e+02   1.853694e+01
   2.478831e+02   1.677858e+02
   2.233611e+01   2.562770e+02
  -2.047144e+02   2.210962e+02
  -2.617780e+02   8.384511e+01
  -1.346950e+02  -4.750505e+01
   2.667330e+01  -7.452732e+01
   5.798279e+01   5.262070e+00
  -5.127094e+01   7.899621e+01
  -1.790816e+02   3.317865e+01
  -1.851156e+02  -1.122227e+02
  -5.434446e+01  -1.914924e+02
   8.843579e+01  -1.360914e+02
   1.204514e+02  -1.534651e+01
   4.371618e+01   3.609635e+01
  -3.781262e+01  -1.916505e+01
  -1.952175e+01  -1.099526e+02
   1.026928e+02  -1.137494e+02
   2.085420e+02  -4.325641e+00
   1.734279e+02   1.383093e+02
   4.762965e+00   2.069190e+02
  -1.553489e+02   1.470214e+02
  -1.716753e+02   7.384110e+00
  -5.271469e+01  -9.583819e+01
   6.552963e+01  -9.472200e+01
   7.201279e+01  -2.273046e+01
   4.525572e-01   2.527913e+01
  -3.552709e+01   6.955592e+00
   1.027640e+01  -2.804311e+01
   9.052065e+01   1.410216e+00
   1.023312e+02   9.960172e+01
   2.264707e+00   1.794147e+02
  -1.488067e+02   1.479953e+02
  -2.368951e+02  -3.717207e+00
  -1.813158e+02  -1.678609e+02
  -2.738411e+01  -2.323345e+02
   1.031051e+02  -1.580311e+02
   1.321735e+02  -2.865594e+01
   7.636008e+01   4.632086e+01
   3.560437e+01   3.363068e+01
   5.517123e+01  -3.646084e+00
   8.779109e+01  -2.850177e-01
   5.015218e+01   6.242697e+01
  -4.739541e+01   1.072204e+02
  -1.288763e+02   6.238469e+01
  -1.055121e+02  -5.210984e+01
   2.165417e+01  -1.325702e+02
   1.683965e+02  -8.702249e+01
   2.093332e+02   6.901489e+01
   8.797875e+01   2.129503e+02
  -1.287192e+02   2.224913e+02
  -2.580663e+02   6.083763e+01
  -2.483038e+02  -8.934262e+01
  -9.839735e+01  -1.620691e+02
   4.025308e+01  -1.327841e+02
   8.687422e+01  -7.909318e+01
   6.236456e+01  -7.218623e+01
   5.865916e+01  -9.478775e+01
   9.677453e+01  -7.715680e+01
   1.359008e+02   2.345332e+01
   1.129745e+02   1.600414e+02
   1.428723e+01   2.252913e+02
  -1.096062e+02   1.592848e+02
  -1.714964e+02   4.151387e-01
  -1.185447e+02  -1.307046e+02
  -9.859752e-01  -1.530450e+02
   7.832654e+01  -7.085854e+01
   5.957882e+01   2.015254e+01
  -7.960623e+00   5.260144e+01
  -2.701624e+01   2.653229e+01
   2.944437e+01   6.946029e+00
   8.594725e+01   2.588938e+01
   4.807446e+01   4.781672e+01
  -7.900206e+01   4.141556e+01
  -1.769221e+02  -8.487725e+00
  -1.401282e+02  -6.968595e+01
   9.260679e+00  -9.835252e+01
   1.364348e+02  -6.862968e+01
   1.418987e+02   2.406090e-01
   3.950625e+01   5.352817e+01
  -6.213560e+01   4.337198e+01
  -7.499215e+01  -2.031697e+01
  -1.852412e+01  -7.770296e+01
   4.988885e+01  -6.773928e+01
   7.110554e+01   1.596938e+00
   5.609619e+01   5.621218e+01
   4.335769e+01   4.643360e+01
   4.887371e+01   6.294343e-01
   6.351082e+01  -1.529546e+00
   4.642194e+01   7.289569e+01
  -2.729234e+01   1.538737e+02
  -1.278394e+02   1.430355e+02
  -1.825566e+02   2.463917e+01
  -1.270755e+02  -1.015993e+02
   2.208771e+00  -1.360181e+02
   9.665871e+01  -6.591407e+01
   6.417456e+01   1.710014e+01
  -5.542751e+01   2.752195e+01
  -1.309550e+02  -4.057971e+01
  -6.761160e+01  -1.062613e+02
   7.938727e+01  -1.041334e+02
   1.760223e+02  -3.985315e+01
   1.435265e+02   4.126744e+01
   2.511540e+01   8.187752e+01
  -6.123503e+01   5.371121e+01
  -4.367123e+01  -6.585303e+00
   4.187378e+01  -3.204453e+01
   9.249100e+01   2.183944e+01
   3.738458e+01   1.180915e+02
  -8.175743e+01   1.546178e+02
  -1.651528e+02   6.831280e+01
  -1.262786e+02  -9.432158e+01
  -1.114619e+01  -1.935387e+02
   8.677038e+01  -1.388764e+02
   1.018882e+02   1.509025e+01
   4.948907e+01   1.198458e+02
  -1.755996e+01   1.034989e+02
  -5.061029e+01   1.101168e+01
  -4.105991e+01  -3.352365e+01
  -1.346966e+01  -8.043155e+00
  -7.283130e+00   1.839697e+01
  -3.364018e+01  -2.024085e+01
  -5.818590e+01  -9.147230e+01
  -2.750130e+01  -1.082735e+02
   6.100908e+01  -4.459386e+01
   1.363564e+02   3.907800e+01
   1.174904e+02   7.692981e+01
   1.474150e+01   6.295145e+01
  -8.438745e+01   2.796031e+01
  -8.928038e+01  -1.208552e-01
  -1.594922e+01  -1.803676e+01
   3.592004e+01  -2.262070e+01
   1.872328e+01  -8.608462e+00
  -1.489906e+01   5.477006e+00
   2.395305e+00   4.202064e+00
   6.666850e+01  -2.005667e+00
   9.390733e+01   2.575096e+01
   1.806397e+01   8.789950e+01
  -1.168627e+02   1.186790e+02
  -1.994241e+02   5.633053e+01
  -1.572039e+02  -6.928976e+01
  -2.865634e+01  -1.658264e+02
   8.916952e+01  -1.545019e+02
   1.241574e+02  -6.214510e+01
   8.211820e+01   2.380716e+01
   2.440197e+01   4.170828e+01
   1.201666e+00   1.248817e+01
   1.351793e+01   7.313251e+00
   3.050970e+01   4.955178e+01
   1.391307e+01   9.396034e+01
  -3.355219e+01   7.210458e+01
  -7.913215e+01  -1.691191e+01
  -7.929600e+01  -1.080820e+02
  -1.042332e+01  -1.130787e+02
   7.665986e+01  -3.132016e+01
   1.045442e+02   6.878327e+01
   3.664919e+01   1.042548e+02
  -6.748544e+01   6.464170e+01
  -1.048191e+02  -1.047191e+01
  -4.381989e+01  -6.279331e+01
   3.672341e+01  -6.333708e+01
   4.446853e+01  -2.717595e+01
  -2.319563e+01   1.088578e+01
  -6.719867e+01   1.104287e+01
  -1.935234e+01  -2.925879e+01
   7.747556e+01  -6.601635e+01
   1.218097e+02  -4.917553e+01
   6.847797e+01   2.283389e+01
  -1.627503e+01   8.576176e+01
  -6.016905e+01   7.716765e+01
  -4.371521e+01   9.223764e+00
  -7.158116e+00  -5.143175e+01
   2.305015e+01  -4.623662e+01
   3.561122e+01   1.168662e+01
   2.711494e+01   5.352611e+01
  -3.071393e+00   3.832506e+01
  -3.408976e+01  -8.023648e+00
  -3.960742e+01  -2.864323e+01
  -1.727097e+01  -4.413487e+00
   4.818439e+00   2.434893e+01
   3.768314e+00   1.196086e+01
  -8.824031e+00  -3.338556e+01
  -1.291375e-01  -5.779569e+01
   3.045542e+01  -2.525246e+01
   4.619616e+01   3.683363e+01
   1.479919e+01   6.243740e+01
  -4.192152e+01   2.666424e+01
  -6.508838e+01  -3.432364e+01
  -2.031408e+01  -6.156080e+01
   5.958429e+01  -3.829373e+01
   9.801891e+01   1.258763e+01
   5.263210e+01   4.647790e+01
  -3.064099e+01   4.848090e+01
  -6.864881e+01   2.674388e+01
  -2.861852e+01   4.511066e+00
   3.008274e+01  -4.782845e+00
   3.523641e+01   7.300872e+00
  -2.211764e+01   2.790041e+01
  -7.818601e+01   2.134624e+01
