
 $NMID
 id='ANONYMOUS ', fmtdat='(2E16.6)'
 volume=1.0
 tramp=1.0
 $END
   3.398188e+03  -2.645954e+02
   2.139966e+03   1.762502e+03
  -3.447144e+02   1.959859e+03
  -1.468840e+03   9.455241e+02
  -8.128817e+02  -9.955895e+01
   2.739345e+02  -2.880924e+02
   5.242095e+02   2.650636e+02
  -2.537620e+01   7.136255e+02
  -5.858205e+02   5.990928e+02
  -7.208211e+02   1.688816e+01
  -3.928294e+02  -5.624871e+02
   1.059881e+02  -6.910458e+02
   4.121042e+02  -1.156448e+02
   2.572954e+02   5.265601e+02
  -2.128623e+02   5.056374e+02
  -4.741789e+02   2.173960e+00
  -2.655232e+02  -5.541632e+02
   1.779826e+02  -5.881206e+02
   4.848983e+02  -1.872929e+02
   4.068634e+02   2.194986e+02
   1.102775e+02   3.625735e+02
  -1.692095e+02   2.636556e+02
  -1.456396e+02   5.442767e+01
   1.474985e+02  -9.544435e+00
   3.316387e+02   1.919492e+02
   6.375452e+01   3.880838e+02
  -4.567763e+02   2.710903e+02
  -6.621377e+02  -1.182496e+02
  -2.701154e+02  -4.461830e+02
   3.600326e+02  -3.204193e+02
   5.801471e+02   8.320524e+01
   2.236999e+02   4.156683e+02
  -2.787469e+02   4.243229e+02
  -4.875010e+02   1.506946e+02
  -3.371433e+02  -2.026736e+02
  -5.810247e+01  -3.790747e+02
   1.007561e+02  -2.003434e+02
   2.528570e+01   1.443899e+02
  -1.959332e+02   2.483414e+02
  -2.809764e+02  -1.038785e+02
  -7.077420e+01  -5.274725e+02
   2.885208e+02  -4.927754e+02
   3.997374e+02   2.244540e+01
   1.563068e+02   4.010999e+02
  -2.245257e+02   2.018981e+02
  -2.831715e+02  -2.857201e+02
   6.875020e+01  -4.487028e+02
   4.719028e+02  -1.059311e+02
   5.195147e+02   3.636590e+02
   1.413892e+02   5.072355e+02
  -3.202293e+02   2.875921e+02
  -5.388288e+02  -7.221542e+01
  -3.253500e+02  -2.960918e+02
   1.064606e+02  -2.729960e+02
   3.415836e+02  -6.632828e+01
   1.988188e+02   9.730990e+01
  -5.583503e+01   5.712409e+01
  -7.802031e+01  -7.717286e+01
   1.268835e+02  -1.121823e+02
   2.677609e+02   4.377426e+01
   1.359330e+02   2.250375e+02
  -1.474109e+02   2.593002e+02
  -3.208758e+02   1.295522e+02
  -2.471765e+02  -9.253792e+01
  -2.886443e+00  -2.908999e+02
   2.496480e+02  -3.528648e+02
   3.515011e+02  -1.667610e+02
   2.524239e+02   1.683196e+02
   5.474165e+01   3.685111e+02
  -6.470773e+01   2.963914e+02
  -3.943567e+01   1.264711e+02
  -8.944840e+00   5.706759e+01
  -9.052513e+01   1.221149e+02
  -2.244228e+02   1.030498e+02
  -2.617227e+02  -8.544185e+01
  -1.228596e+02  -2.656451e+02
   8.404925e+01  -2.263226e+02
   2.160008e+02   1.192256e+01
   1.705224e+02   2.359972e+02
  -3.086026e+01   2.621686e+02
  -2.491412e+02   8.466883e+01
  -3.108534e+02  -1.577033e+02
  -1.579997e+02  -3.005426e+02
   6.930886e+01  -2.597376e+02
   1.739047e+02  -1.279064e+02
   1.322921e+02  -5.488809e+01
   1.199362e+02  -7.517427e+01
   2.511201e+02  -6.438190e+01
   3.986179e+02   7.304514e+01
   3.248607e+02   2.797641e+02
  -9.334216e+00   4.335991e+02
  -3.605998e+02   4.052963e+02
  -4.643646e+02   1.792372e+02
  -3.022763e+02  -1.103130e+02
  -3.719524e+01  -2.683981e+02
   1.143340e+02  -2.028573e+02
   4.941687e+01  -2.713722e+01
  -1.046964e+02   6.634805e+01
  -1.455858e+02  -2.508057e+01
  -1.750727e+01  -1.572563e+02
   1.222765e+02  -9.802455e+01
   1.222494e+02   5.740460e+01
  -2.810629e+01   1.389868e+02
  -1.697071e+02   8.313993e+00
  -1.529254e+02  -2.249260e+02
   1.890224e+01  -3.293797e+02
   2.270098e+02  -2.008108e+02
   3.294613e+02   5.493214e+01
   2.675625e+02   2.487024e+02
   7.412427e+01   2.643909e+02
  -1.139322e+02   1.435066e+02
  -1.526216e+02   1.037878e+01
  -3.748428e+01  -1.643795e+01
   5.646892e+01   5.380258e+01
   5.292891e+00   1.165311e+02
  -1.210267e+02   7.463592e+01
  -1.512438e+02  -2.193396e+01
  -3.653581e+01  -6.153232e+01
   7.962743e+01   1.303619e+00
   4.471482e+01   8.797763e+01
  -1.324690e+02   9.513883e+01
  -2.817981e+02   8.463246e-01
  -2.523550e+02  -1.482835e+02
  -4.936861e+01  -2.578073e+02
   1.859966e+02  -2.443331e+02
   2.631905e+02  -1.115297e+02
   1.500925e+02   4.813866e+01
  -2.603128e+01   8.557926e+01
  -6.855499e+01  -3.893652e+00
   4.573277e+01  -8.608518e+01
   1.804351e+02  -4.143937e+01
   1.833686e+02   1.058942e+02
   5.732324e+01   1.895613e+02
  -8.843186e+01   1.374153e+02
  -1.229178e+02   1.348315e+01
  -4.913142e+01  -4.325700e+01
   4.068113e+01   9.196318e+00
   3.353531e+01   9.906265e+01
  -8.078848e+01   1.175449e+02
  -1.978488e+02   2.381192e+01
  -1.809504e+02  -1.232192e+02
  -1.903277e+01  -2.047761e+02
   1.502352e+02  -1.509359e+02
   1.717896e+02  -1.039229e+01
   5.571672e+01   9.790920e+01
  -6.279565e+01   9.553665e+01
  -7.344208e+01   2.162749e+01
  -2.326797e+00  -2.761119e+01
   3.551980e+01  -1.286898e+01
  -4.387597e+00   2.199245e+01
  -7.925337e+01   3.360127e+00
  -9.839271e+01  -8.292938e+01
  -1.552737e+01  -1.667240e+02
   1.308202e+02  -1.508786e+02
   2.319044e+02  -1.566881e+01
   1.915486e+02   1.520415e+02
   3.557443e+01   2.275179e+02
  -1.034161e+02   1.597013e+02
  -1.295937e+02   2.840792e+01
  -7.186743e+01  -4.841795e+01
  -3.046983e+01  -3.242201e+01
  -4.487086e+01   9.033285e+00
  -7.671112e+01   5.833393e+00
  -4.999354e+01  -5.095527e+01
   3.327820e+01  -9.129094e+01
   1.089545e+02  -6.144633e+01
   9.605249e+01   3.912567e+01
  -1.093659e+01   1.190551e+02
  -1.458371e+02   8.607795e+01
  -1.931928e+02  -5.751334e+01
  -8.624774e+01  -1.951792e+02
   1.125168e+02  -2.073042e+02
   2.359243e+02  -6.484087e+01
   2.307876e+02   8.010618e+01
   9.856412e+01   1.611142e+02
  -3.002165e+01   1.379656e+02
  -7.922558e+01   8.124025e+01
  -6.497127e+01   7.285883e+01
  -5.789664e+01   9.173247e+01
  -9.015708e+01   7.399003e+01
  -1.271405e+02  -1.808340e+01
  -1.125837e+02  -1.420058e+02
  -2.831816e+01  -2.116548e+02
   9.272631e+01  -1.599919e+02
   1.643949e+02  -1.363623e+01
   1.247087e+02   1.163729e+02
   9.359572e+00   1.460012e+02
  -7.391120e+01   7.837167e+01
  -6.325508e+01  -9.613660e+00
  -1.088139e+00  -4.952714e+01
   2.011769e+01  -3.377460e+01
  -2.510392e+01  -1.317548e+01
  -7.389278e+01  -2.250036e+01
  -4.242674e+01  -4.277488e+01
   7.163965e+01  -4.134615e+01
   1.610697e+02  -2.031420e+00
   1.367929e+02   5.686974e+01
   4.017139e+00   9.710788e+01
  -1.203205e+02   7.975818e+01
  -1.380788e+02   9.008100e+00
  -4.479795e+01  -5.222992e+01
   5.618302e+01  -4.324411e+01
   6.904433e+01   1.720756e+01
   1.587531e+01   7.008932e+01
  -4.610054e+01   6.123898e+01
  -6.311530e+01   1.077446e+00
  -4.695999e+01  -4.559039e+01
  -4.223343e+01  -3.419397e+01
  -5.769364e+01   5.642158e+00
  -6.840867e+01   1.643051e+00
  -4.784345e+01  -7.175288e+01
   2.015029e+01  -1.505455e+02
   1.162347e+02  -1.427105e+02
   1.667239e+02  -2.977700e+01
   1.239766e+02   9.088280e+01
   6.932981e+00   1.254120e+02
  -8.180288e+01   6.326944e+01
  -5.666290e+01  -1.437032e+01
   5.364250e+01  -2.666889e+01
   1.277045e+02   3.852864e+01
   7.249714e+01   1.053982e+02
  -7.326531e+01   1.127627e+02
  -1.751392e+02   5.324916e+01
  -1.513482e+02  -3.044773e+01
  -3.502013e+01  -7.978775e+01
   5.590276e+01  -6.292187e+01
   4.460258e+01  -2.436521e+00
  -3.866022e+01   3.151873e+01
  -8.807748e+01  -1.620218e+01
  -3.867063e+01  -1.111712e+02
   7.378534e+01  -1.495558e+02
   1.495511e+02  -6.419765e+01
   1.183152e+02   9.069750e+01
   1.469386e+01   1.860564e+02
  -7.820245e+01   1.336275e+02
  -1.022526e+02  -1.032128e+01
  -5.877090e+01  -1.116325e+02
   9.921671e+00  -9.684610e+01
   4.865301e+01  -1.359154e+01
   4.487143e+01   2.890231e+01
   1.583948e+01   5.297230e+00
   5.288759e+00  -1.990216e+01
   3.150043e+01   1.855470e+01
   6.019781e+01   8.617872e+01
   3.166825e+01   1.037697e+02
  -5.731031e+01   4.276246e+01
  -1.313970e+02  -3.303518e+01
  -1.129076e+02  -6.626950e+01
  -9.652883e+00  -5.055950e+01
   8.068972e+01  -2.350019e+01
   8.103756e+01  -1.890821e+00
   1.011412e+01   1.349537e+01
  -3.689214e+01   2.276315e+01
  -1.756293e+01   1.219910e+01
   1.647490e+01  -5.637439e+00
  -3.179013e+00  -7.784823e+00
  -6.800867e+01   2.433173e+00
  -8.987510e+01  -1.813580e+01
  -1.960505e+01  -7.450300e+01
   1.029264e+02  -1.151664e+02
   1.781774e+02  -6.372374e+01
   1.430318e+02   5.945097e+01
   3.296659e+01   1.584093e+02
  -7.591131e+01   1.530215e+02
  -1.130742e+02   6.119853e+01
  -7.924102e+01  -2.357792e+01
  -2.454729e+01  -3.739401e+01
  -1.120227e+00  -1.089750e+01
  -1.364333e+01  -4.573569e+00
  -3.490985e+01  -4.176369e+01
  -2.384335e+01  -8.493810e+01
   2.596690e+01  -6.892751e+01
   7.708062e+01   1.180138e+01
   7.724599e+01   9.642874e+01
   1.149638e+01   1.046487e+02
  -7.592232e+01   3.026132e+01
  -1.042551e+02  -6.231218e+01
  -3.953048e+01  -9.666094e+01
   6.024666e+01  -6.108337e+01
   9.758356e+01   5.069930e+00
   4.428753e+01   4.984454e+01
  -2.839899e+01   5.313235e+01
  -3.380032e+01   2.525733e+01
   2.814635e+01  -8.912483e+00
   6.676735e+01  -1.253410e+01
   1.828877e+01   2.649598e+01
  -7.218932e+01   7.117464e+01
  -1.105653e+02   5.959121e+01
  -6.402044e+01  -1.395631e+01
   1.396933e+01  -8.367676e+01
   5.300022e+01  -8.088724e+01
   3.884400e+01  -8.584965e+00
   3.728866e+00   5.215141e+01
  -2.350539e+01   4.588059e+01
  -3.528833e+01  -1.239562e+01
  -2.588296e+01  -5.121542e+01
   9.431448e-01  -3.592881e+01
   3.141831e+01   4.741895e+00
   3.863005e+01   2.159582e+01
   1.896417e+01   9.659764e-01
  -2.561226e+00  -1.821753e+01
  -4.972431e+00  -4.278199e+00
   3.281137e+00   3.294007e+01
  -2.405379e+00   4.855882e+01
  -2.602831e+01   1.730165e+01
  -3.787869e+01  -3.428612e+01
  -1.048525e+01  -5.461544e+01
   3.743733e+01  -2.232406e+01
   5.527076e+01   3.126066e+01
   1.694605e+01   5.660114e+01
  -5.306929e+01   3.516138e+01
  -8.622023e+01  -1.043433e+01
  -4.660790e+01  -4.030515e+01
   2.674185e+01  -4.292639e+01
   5.986740e+01  -2.447988e+01
   2.406311e+01  -6.199835e+00
  -3.127527e+01   1.621907e+00
  -3.291518e+01  -8.568726e+00
   2.416425e+01  -2.810554e+01
   7.687150e+01  -2.457433e+01
