
 $NMID
 id='ANONYMOUS ', fmtdat='(2E16.6)'
 volume=1.0
 tramp=1.0
 $END
  -4.718287e+03  -2.543797e+01
  -2.965456e+03  -2.763872e+03
   6.595426e+02  -3.170062e+03
   2.315473e+03  -1.044304e+03
   1.099882e+03   7.957779e+02
  -7.195543e+02   7.349124e+02
  -1.049154e+03  -4.392827e+02
  -3.108951e+01  -1.209435e+03
   8.756196e+02  -8.970075e+02
   1.032579e+03   8.822680e+01
   5.581384e+02   9.648648e+02
  -2.487508e+02   1.006539e+03
  -7.181050e+02   1.632956e+02
  -4.569188e+02  -7.788450e+02
   3.372864e+02  -8.251315e+02
   6.727785e+02  -3.147983e+01
   3.191021e+02   7.376541e+02
  -3.608524e+02   7.137265e+02
  -6.540475e+02   1.010744e+02
  -4.427978e+02  -3.997600e+02
  -3.251121e+00  -4.803711e+02
   2.790486e+02  -2.959984e+02
   2.640509e+02  -3.043406e+01
  -7.543294e+01   1.138309e+02
  -4.216831e+02  -7.769035e+01
  -2.528864e+02  -4.236848e+02
   4.412405e+02  -4.532570e+02
   9.178396e+02   3.618667e+01
   5.104872e+02   5.784607e+02
  -3.806916e+02   5.690001e+02
  -8.250876e+02   2.149098e+01
  -4.383471e+02  -5.117230e+02
   2.785461e+02  -6.071963e+02
   6.197407e+02  -2.631756e+02
   4.872527e+02   2.431920e+02
   8.782522e+01   5.464167e+02
  -2.344063e+02   3.514878e+02
  -2.249297e+02  -2.300112e+02
   1.354162e+02  -5.003605e+02
   4.995756e+02  -3.551709e+01
   3.409892e+02   6.947025e+02
  -3.006464e+02   7.928025e+02
  -6.679789e+02   6.056058e+01
  -3.283032e+02  -5.967435e+02
   2.964852e+02  -3.901054e+02
   4.562899e+02   3.298060e+02
  -2.338991e+01   6.134036e+02
  -5.911451e+02   2.056075e+02
  -6.684069e+02  -4.112649e+02
  -2.154495e+02  -6.229459e+02
   4.003010e+02  -4.062216e+02
   6.705806e+02   4.867308e+01
   4.212336e+02   4.097509e+02
  -1.486819e+02   4.141664e+02
  -4.968862e+02   8.243374e+01
  -2.844227e+02  -2.251679e+02
   1.331231e+02  -1.413254e+02
   1.841710e+02   1.586204e+02
  -1.678639e+02   2.262436e+02
  -3.982010e+02  -5.352609e+01
  -1.644260e+02  -3.293210e+02
   2.234282e+02  -2.953338e+02
   3.591495e+02  -7.887512e+01
   1.930558e+02   9.386203e+01
  -3.547135e+01   2.249827e+02
  -2.221440e+02   3.364085e+02
  -3.416906e+02   2.508142e+02
  -3.159854e+02  -1.191279e+02
  -1.129293e+02  -4.652318e+02
   9.019701e+01  -4.293030e+02
   1.273779e+02  -1.332315e+02
   2.764987e+01   9.293338e+00
   3.011643e+01  -9.375083e+01
   1.912930e+02  -1.474142e+02
   2.978291e+02   3.806777e+01
   1.894653e+02   2.750044e+02
  -5.429387e+01   2.803754e+02
  -2.336509e+02   3.022575e+01
  -2.243400e+02  -2.460156e+02
  -1.453478e+01  -3.146867e+02
   2.712197e+02  -1.392532e+02
   3.972115e+02   1.559693e+02
   2.170533e+02   3.625011e+02
  -8.778511e+01   3.327283e+02
  -2.376238e+02   1.358245e+02
  -1.637201e+02   1.911741e+00
  -1.008449e+02   2.625837e+01
  -2.290667e+02   7.341404e+01
  -4.050995e+02  -4.039343e+01
  -3.531178e+02  -2.799999e+02
  -1.968261e+01  -4.509793e+02
   3.546239e+02  -4.405960e+02
   4.924776e+02  -2.491237e+02
   3.599271e+02   6.552573e+01
   7.430327e+01   3.058325e+02
  -1.215219e+02   2.733801e+02
  -9.112476e+01   2.753270e+01
   1.029582e+02  -1.257547e+02
   2.150719e+02  -9.675144e+00
   7.349007e+01   2.074743e+02
  -1.793209e+02   1.918119e+02
  -2.039136e+02  -4.864604e+01
  -4.148772e+00  -2.147032e+02
   2.049643e+02  -4.868689e+01
   1.798869e+02   2.637591e+02
  -2.464913e+01   3.732321e+02
  -2.355760e+02   2.065743e+02
  -3.348279e+02  -5.714015e+01
  -2.890491e+02  -2.326349e+02
  -1.089735e+02  -2.706794e+02
   1.087584e+02  -1.749831e+02
   1.909923e+02  -3.077260e+01
   7.269565e+01   3.421332e+01
  -7.765760e+01  -2.992143e+01
  -4.701006e+01  -1.269385e+02
   1.182210e+02  -1.168308e+02
   1.928629e+02  -1.514191e+00
   7.315508e+01   7.074570e+01
  -8.195786e+01   2.559016e+01
  -5.863397e+01  -6.879422e+01
   1.246813e+02  -9.092536e+01
   2.987286e+02  -6.069053e+00
   2.827911e+02   1.332120e+02
   7.427178e+01   2.662859e+02
  -1.807338e+02   2.881137e+02
  -2.974502e+02   1.481537e+02
  -1.907786e+02  -5.209823e+01
   1.161519e+01  -1.248459e+02
   9.683912e+01  -2.119326e+01
  -1.712025e+01   1.065116e+02
  -1.925586e+02   7.389066e+01
  -2.207865e+02  -9.125377e+01
  -8.181454e+01  -2.136298e+02
   9.003326e+01  -1.720478e+02
   1.492263e+02  -4.261782e+01
   8.044131e+01   4.164375e+01
  -2.421416e+01   1.280082e+01
  -4.220841e+01  -7.567796e+01
   6.270905e+01  -1.165408e+02
   1.984484e+02  -3.787923e+01
   2.034601e+02   1.196416e+02
   3.197625e+01   2.270666e+02
  -1.676789e+02   1.775759e+02
  -2.063395e+02   1.489660e+01
  -7.802573e+01  -1.173501e+02
   6.338475e+01  -1.190897e+02
   8.892932e+01  -3.753625e+01
   2.406277e+01   2.329850e+01
  -1.653636e+01   1.836294e+01
   1.281007e+01  -5.384416e-01
   6.991794e+01   1.557773e+01
   8.916564e+01   8.307545e+01
   1.879853e+01   1.587427e+02
  -1.219460e+02   1.613654e+02
  -2.354018e+02   3.898509e+01
  -2.127125e+02  -1.427518e+02
  -5.499279e+01  -2.400264e+02
   1.026215e+02  -1.797939e+02
   1.373097e+02  -3.395883e+01
   7.638361e+01   5.816720e+01
   3.097551e+01   4.300624e+01
   5.297892e+01  -8.380886e+00
   7.748445e+01  -1.357298e+01
   4.449707e+01   4.503622e+01
  -3.550586e+01   9.146618e+01
  -9.839059e+01   5.957527e+01
  -8.663568e+01  -2.846532e+01
   9.462382e+00  -1.080512e+02
   1.358281e+02  -8.868447e+01
   1.976846e+02   4.097862e+01
   1.149697e+02   1.963093e+02
  -9.397030e+01   2.312304e+02
  -2.803709e+02   8.968522e+01
  -2.706332e+02  -6.949896e+01
  -1.244777e+02  -1.726313e+02
   3.146538e+01  -1.597177e+02
   9.823707e+01  -9.955371e+01
   8.454356e+01  -7.808996e+01
   7.132080e+01  -9.488706e+01
   9.313685e+01  -7.949415e+01
   1.345964e+02   1.871091e+01
   1.263933e+02   1.537457e+02
   3.703429e+01   2.329132e+02
  -9.663234e+01   1.870319e+02
  -1.797925e+02   3.068766e+01
  -1.461894e+02  -1.229491e+02
  -2.813316e+01  -1.670188e+02
   6.416142e+01  -1.000796e+02
   6.283612e+01  -3.764673e+00
   8.576450e+00   4.251503e+01
  -7.159474e+00   3.678158e+01
   3.679736e+01   2.119164e+01
   7.851278e+01   2.752952e+01
   4.236513e+01   4.206923e+01
  -6.494301e+01   3.826615e+01
  -1.624900e+02   4.525718e-01
  -1.514846e+02  -5.403916e+01
  -2.245565e+01  -8.831149e+01
   1.195114e+02  -7.895298e+01
   1.452205e+02  -2.119514e+01
   5.106470e+01   3.772838e+01
  -5.755895e+01   3.928778e+01
  -7.118037e+01  -2.407997e+01
  -8.704463e+00  -7.105435e+01
   5.670463e+01  -6.285793e+01
   6.318873e+01   4.706391e-01
   4.541855e+01   5.047675e+01
   4.875693e+01   4.738961e+01
   6.876804e+01   6.507112e+00
   6.786775e+01   4.295899e+00
   3.017786e+01   6.893437e+01
  -3.452373e+01   1.475457e+02
  -1.154668e+02   1.461405e+02
  -1.596831e+02   4.241492e+01
  -1.278361e+02  -8.596042e+01
  -1.408416e+01  -1.258966e+02
   8.155906e+01  -6.674475e+01
   6.151518e+01   1.027460e+01
  -5.777043e+01   1.690609e+01
  -1.361782e+02  -4.537282e+01
  -8.048260e+01  -1.065062e+02
   7.695212e+01  -1.194378e+02
   1.952257e+02  -6.604775e+01
   1.727931e+02   2.162995e+01
   4.919945e+01   8.674409e+01
  -5.679369e+01   7.938374e+01
  -5.186708e+01   1.559470e+01
   3.892466e+01  -2.731409e+01
   9.558094e+01   1.958219e+01
   3.896646e+01   1.213081e+02
  -9.118469e+01   1.669815e+02
  -1.741022e+02   7.509832e+01
  -1.372223e+02  -9.911395e+01
  -1.544711e+01  -2.118298e+02
   9.013369e+01  -1.595364e+02
   1.141632e+02   3.234069e+00
   6.851669e+01   1.234620e+02
  -4.405769e-01   1.160332e+02
  -4.660838e+01   2.667625e+01
  -5.754480e+01  -2.968699e+01
  -2.987963e+01  -1.165837e+01
  -3.951532e+00   1.783401e+01
  -1.988152e+01  -1.457965e+01
  -5.969957e+01  -8.819517e+01
  -4.469356e+01  -1.105561e+02
   4.785947e+01  -4.887508e+01
   1.449985e+02   3.619264e+01
   1.359635e+02   7.016914e+01
   2.194527e+01   5.428300e+01
  -8.669683e+01   2.764511e+01
  -8.928666e+01   1.020171e+01
  -1.321137e+01  -8.036836e+00
   3.751239e+01  -2.439689e+01
   1.079841e+01  -2.023788e+01
  -2.342617e+01   1.714207e+00
   6.577912e+00   7.870151e+00
   7.902792e+01   4.450606e+00
   9.434698e+01   2.554135e+01
   9.985503e+00   8.279281e+01
  -1.226194e+02   1.144930e+02
  -1.855050e+02   5.893643e+01
  -1.422863e+02  -7.001447e+01
  -2.245398e+01  -1.654117e+02
   8.337366e+01  -1.512927e+02
   1.188094e+02  -5.618804e+01
   8.215810e+01   2.492360e+01
   2.575828e+01   3.493800e+01
  -5.355667e+00   7.947037e+00
   8.759664e+00   2.028248e+00
   3.190997e+01   4.431195e+01
   2.649652e+01   9.518798e+01
  -2.671964e+01   7.598478e+01
  -8.409694e+01  -1.498492e+01
  -8.025964e+01  -1.082674e+02
  -7.609389e+00  -1.166764e+02
   8.389650e+01  -2.673113e+01
   1.065854e+02   7.467713e+01
   3.737565e+01   1.040311e+02
  -6.576063e+01   5.718327e+01
  -1.006451e+02  -9.155994e+00
  -4.030896e+01  -4.922141e+01
   3.384316e+01  -5.075106e+01
   3.031517e+01  -2.704005e+01
  -3.919649e+01   5.911056e-01
  -7.335582e+01   3.777106e+00
  -1.538882e+01  -2.602392e+01
   8.363604e+01  -6.766585e+01
   1.196671e+02  -6.197171e+01
   6.185966e+01   1.000214e+01
  -1.482810e+01   8.466951e+01
  -5.164621e+01   8.050836e+01
  -3.459040e+01   4.669326e+00
  -1.273199e+00  -5.776472e+01
   2.585924e+01  -4.303174e+01
   3.752725e+01   1.967464e+01
   2.797673e+01   5.601563e+01
  -1.624328e+00   3.473104e+01
  -3.373071e+01  -8.657097e+00
  -4.039253e+01  -2.103139e+01
  -2.127065e+01  -6.038561e-01
  -9.126933e-01   1.462231e+01
   4.911406e+00  -6.499378e+00
   6.889017e+00  -4.200748e+01
   2.059040e+01  -4.658965e+01
   3.526812e+01  -5.181381e+00
   3.022207e+01   4.858598e+01
  -4.382782e+00   6.304353e+01
  -4.561397e+01   2.006285e+01
  -5.752427e+01  -3.873615e+01
  -1.780669e+01  -6.216910e+01
   5.205805e+01  -3.518178e+01
   8.861204e+01   1.234019e+01
   5.187047e+01   4.220469e+01
  -2.704868e+01   4.077479e+01
  -6.541622e+01   2.316913e+01
  -2.391525e+01   3.996743e+00
   3.952953e+01   4.312943e-01
   4.128685e+01   1.664106e+01
  -3.030130e+01   3.339885e+01
  -9.305756e+01   2.399336e+01
