
 $NMID
 id='ANONYMOUS ', fmtdat='(2E16.6)'
 volume=1.0
 tramp=1.0
 $END
  -4.417460e+03   1.497886e+02
  -2.855536e+03  -2.470558e+03
   6.031777e+02  -2.840917e+03
   2.084179e+03  -1.062240e+03
   9.425223e+02   7.193868e+02
  -7.443134e+02   6.732185e+02
  -1.022105e+03  -4.782731e+02
  -1.139394e+01  -1.189798e+03
   9.119814e+02  -9.160490e+02
   1.066744e+03   1.007858e+02
   5.816663e+02   9.496733e+02
  -2.724089e+02   1.004692e+03
  -7.348903e+02   1.482090e+02
  -4.418027e+02  -7.936107e+02
   3.428830e+02  -8.142382e+02
   6.803425e+02  -7.594268e+00
   3.199784e+02   7.254652e+02
  -3.238342e+02   6.865162e+02
  -6.418835e+02   9.227175e+01
  -4.157096e+02  -3.908924e+02
   1.825480e+00  -4.875926e+02
   2.851700e+02  -2.825847e+02
   2.674123e+02   1.523538e+01
  -1.018518e+02   1.309539e+02
  -4.577147e+02  -8.442482e+01
  -2.659523e+02  -4.589150e+02
   4.533460e+02  -4.910947e+02
   9.227275e+02   6.883574e+00
   5.143023e+02   5.897725e+02
  -3.855082e+02   5.808924e+02
  -8.156452e+02   1.050256e+01
  -4.171400e+02  -5.238702e+02
   2.948399e+02  -5.947344e+02
   6.244753e+02  -2.389355e+02
   4.673751e+02   2.596580e+02
   6.506479e+01   5.399016e+02
  -2.643590e+02   3.252530e+02
  -2.479221e+02  -2.460172e+02
   1.675014e+02  -5.273345e+02
   5.356671e+02  -3.004996e+01
   3.410333e+02   7.160750e+02
  -3.291317e+02   7.807972e+02
  -6.856706e+02   4.210485e+01
  -2.917536e+02  -6.125648e+02
   3.382383e+02  -3.842796e+02
   4.554635e+02   3.302503e+02
  -3.228483e+01   6.279749e+02
  -6.021572e+02   2.246245e+02
  -6.748504e+02  -3.953478e+02
  -2.211935e+02  -6.393637e+02
   4.075790e+02  -4.198285e+02
   6.780567e+02   3.978828e+01
   4.074661e+02   4.128921e+02
  -1.605753e+02   4.278558e+02
  -4.851644e+02   6.976258e+01
  -2.733322e+02  -2.324575e+02
   1.347197e+02  -1.395232e+02
   1.880567e+02   1.583249e+02
  -1.673836e+02   2.183496e+02
  -3.848709e+02  -6.364798e+01
  -1.587736e+02  -3.204352e+02
   2.173006e+02  -2.938899e+02
   3.545942e+02  -8.721543e+01
   2.177252e+02   9.196751e+01
  -8.494090e+00   2.440344e+02
  -2.189762e+02   3.447048e+02
  -3.567936e+02   2.303859e+02
  -3.073952e+02  -1.349298e+02
  -7.376444e+01  -4.562234e+02
   1.207605e+02  -3.913980e+02
   1.395904e+02  -9.358618e+01
   2.090505e+01   2.380194e+01
   2.592521e+01  -9.716086e+01
   1.853974e+02  -1.502476e+02
   2.938034e+02   3.673257e+01
   1.867639e+02   2.778073e+02
  -5.808840e+01   2.854243e+02
  -2.466119e+02   4.319342e+01
  -2.348495e+02  -2.418294e+02
  -1.708557e+01  -3.204030e+02
   2.757558e+02  -1.553800e+02
   4.040946e+02   1.477132e+02
   2.230828e+02   3.613193e+02
  -8.851415e+01   3.359477e+02
  -2.415031e+02   1.394460e+02
  -1.578753e+02   6.984933e+00
  -9.283715e+01   2.587686e+01
  -2.215944e+02   6.186594e+01
  -4.065335e+02  -4.849577e+01
  -3.588741e+02  -2.757077e+02
  -2.846365e+01  -4.414800e+02
   3.425510e+02  -4.328673e+02
   5.037076e+02  -2.513260e+02
   3.728524e+02   7.145491e+01
   8.316562e+01   3.169268e+02
  -1.256097e+02   2.859048e+02
  -9.437971e+01   2.615250e+01
   1.013776e+02  -1.343032e+02
   2.127606e+02  -8.411261e+00
   7.035184e+01   2.181245e+02
  -1.823016e+02   1.905180e+02
  -1.999116e+02  -5.290880e+01
  -3.960489e+00  -2.167093e+02
   2.020995e+02  -5.275818e+01
   1.784374e+02   2.486893e+02
  -1.284457e+01   3.611872e+02
  -2.210008e+02   2.146583e+02
  -3.336832e+02  -4.015679e+01
  -3.041978e+02  -2.190698e+02
  -1.143937e+02  -2.666781e+02
   1.138922e+02  -1.766060e+02
   1.948242e+02  -2.571514e+01
   6.913748e+01   4.444690e+01
  -8.167093e+01  -2.792652e+01
  -4.709374e+01  -1.315409e+02
   1.200464e+02  -1.209466e+02
   1.930186e+02   1.469955e+00
   7.139107e+01   7.731893e+01
  -8.254350e+01   3.389327e+01
  -6.903019e+01  -6.247856e+01
   1.068741e+02  -1.002919e+02
   2.812248e+02  -2.714817e+01
   2.862431e+02   1.236147e+02
   8.986205e+01   2.618444e+02
  -1.674239e+02   2.867894e+02
  -2.991188e+02   1.471976e+02
  -1.941603e+02  -5.316992e+01
   1.831990e+01  -1.252047e+02
   1.032801e+02  -1.530999e+01
  -2.162212e+01   1.150435e+02
  -2.046960e+02   7.507462e+01
  -2.362872e+02  -9.822630e+01
  -8.381298e+01  -2.229642e+02
   9.412401e+01  -1.747795e+02
   1.531119e+02  -3.721340e+01
   8.038064e+01   4.625549e+01
  -2.732166e+01   1.297787e+01
  -4.821184e+01  -7.764083e+01
   6.269646e+01  -1.246335e+02
   2.010910e+02  -4.678421e+01
   2.066595e+02   1.164149e+02
   3.505241e+01   2.283688e+02
  -1.666395e+02   1.799474e+02
  -2.073463e+02   1.516545e+01
  -7.892189e+01  -1.234449e+02
   6.479579e+01  -1.266498e+02
   9.213285e+01  -3.760490e+01
   2.928460e+01   3.052135e+01
  -1.780788e+01   2.622897e+01
   5.016673e+00   1.432623e+00
   6.226615e+01   8.471439e+00
   8.675517e+01   7.338041e+01
   2.374961e+01   1.554991e+02
  -1.178855e+02   1.625232e+02
  -2.382525e+02   4.316855e+01
  -2.243698e+02  -1.381513e+02
  -6.725617e+01  -2.402572e+02
   1.008063e+02  -1.856050e+02
   1.411135e+02  -4.020105e+01
   7.886705e+01   5.355270e+01
   3.225184e+01   3.899239e+01
   5.365936e+01  -6.675637e+00
   7.822901e+01  -1.147610e+01
   4.504026e+01   4.561364e+01
  -2.681381e+01   8.928162e+01
  -9.428726e+01   6.280947e+01
  -8.920860e+01  -2.588175e+01
   2.525434e+00  -1.079423e+02
   1.337348e+02  -9.662453e+01
   2.058265e+02   3.468908e+01
   1.199695e+02   1.986698e+02
  -9.315208e+01   2.454854e+02
  -2.852517e+02   1.012466e+02
  -2.773161e+02  -7.559713e+01
  -1.229741e+02  -1.827714e+02
   3.647696e+01  -1.633856e+02
   9.578355e+01  -9.634651e+01
   8.153100e+01  -7.394656e+01
   6.643180e+01  -9.114591e+01
   9.298651e+01  -7.725933e+01
   1.350685e+02   1.599026e+01
   1.335586e+02   1.485040e+02
   4.634866e+01   2.305938e+02
  -9.418354e+01   1.898226e+02
  -1.831089e+02   3.698263e+01
  -1.485647e+02  -1.200391e+02
  -2.649093e+01  -1.642045e+02
   6.920927e+01  -9.737877e+01
   6.680069e+01  -3.129888e+00
   8.497418e+00   4.492035e+01
  -1.108499e+01   3.818792e+01
   3.306604e+01   1.949245e+01
   7.610180e+01   2.250132e+01
   4.260732e+01   3.859142e+01
  -5.953651e+01   3.899865e+01
  -1.573161e+02   9.353743e+00
  -1.488178e+02  -4.823760e+01
  -2.575069e+01  -8.981710e+01
   1.122325e+02  -8.389450e+01
   1.459499e+02  -2.656680e+01
   5.648334e+01   3.687959e+01
  -5.309416e+01   4.124342e+01
  -7.840090e+01  -2.462878e+01
  -1.072213e+01  -6.937424e+01
   5.563261e+01  -6.279369e+01
   6.539638e+01  -6.757843e-01
   4.632772e+01   5.132609e+01
   3.977464e+01   4.797985e+01
   5.324996e+01   6.781422e+00
   5.961255e+01  -1.859897e+00
   3.823860e+01   6.092069e+01
  -2.127542e+01   1.426521e+02
  -1.067341e+02   1.463566e+02
  -1.630108e+02   4.910230e+01
  -1.322249e+02  -8.229381e+01
  -1.807087e+01  -1.300592e+02
   8.120047e+01  -7.107067e+01
   6.613749e+01   1.114915e+01
  -5.222822e+01   2.661582e+01
  -1.400913e+02  -3.785642e+01
  -8.745835e+01  -1.114548e+02
   7.462807e+01  -1.278063e+02
   1.947243e+02  -6.442838e+01
   1.743611e+02   3.143187e+01
   4.618348e+01   9.384130e+01
  -5.988195e+01   7.746334e+01
  -5.271628e+01   9.686185e+00
   3.826148e+01  -2.928846e+01
   9.357104e+01   2.003400e+01
   3.853222e+01   1.189122e+02
  -8.899860e+01   1.598259e+02
  -1.720037e+02   6.946737e+01
  -1.361620e+02  -9.857235e+01
  -1.505795e+01  -2.020023e+02
   9.069047e+01  -1.509538e+02
   1.157790e+02   5.521661e+00
   7.094605e+01   1.172089e+02
   2.983365e-01   1.092044e+02
  -4.560386e+01   2.383955e+01
  -5.415186e+01  -2.566060e+01
  -2.735269e+01  -5.242773e+00
  -4.208490e+00   2.301865e+01
  -2.275685e+01  -1.219068e+01
  -6.338728e+01  -8.618221e+01
  -5.085333e+01  -1.100388e+02
   4.407390e+01  -5.117789e+01
   1.416983e+02   3.118331e+01
   1.350048e+02   6.631931e+01
   1.805588e+01   5.324544e+01
  -8.838672e+01   2.742274e+01
  -8.762818e+01   1.202977e+01
  -1.050522e+01  -6.801317e+00
   3.849088e+01  -2.346436e+01
   1.239088e+01  -1.922957e+01
  -2.218005e+01   1.042662e+00
   4.592660e+00   7.691743e+00
   7.234163e+01   2.152247e+00
   9.269677e+01   2.217292e+01
   1.406597e+01   8.002376e+01
  -1.112585e+02   1.115283e+02
  -1.796527e+02   6.068767e+01
  -1.405254e+02  -6.562902e+01
  -2.662237e+01  -1.607450e+02
   7.846810e+01  -1.491425e+02
   1.162706e+02  -5.851269e+01
   8.407728e+01   2.307975e+01
   2.821867e+01   3.713325e+01
  -4.190069e+00   8.854384e+00
   8.445321e+00   3.028343e+00
   3.175537e+01   4.813085e+01
   2.654534e+01   9.155827e+01
  -2.675713e+01   7.711883e+01
  -8.818447e+01  -1.422442e+01
  -8.705510e+01  -1.089260e+02
  -7.703853e+00  -1.183807e+02
   8.749716e+01  -2.841827e+01
   1.109451e+02   7.548307e+01
   3.691992e+01   1.081545e+02
  -6.703888e+01   6.141952e+01
  -9.952005e+01  -8.334421e+00
  -4.135992e+01  -4.875811e+01
   3.008726e+01  -5.075608e+01
   2.900023e+01  -2.893342e+01
  -3.520295e+01   6.561783e-01
  -7.294314e+01   6.240390e+00
  -1.882972e+01  -2.596823e+01
   7.846327e+01  -6.876758e+01
   1.136124e+02  -6.191442e+01
   6.375391e+01   9.398078e+00
  -1.477784e+01   8.345740e+01
  -5.362522e+01   8.127165e+01
  -3.701309e+01   6.007056e+00
  -1.776084e+00  -5.745956e+01
   2.769514e+01  -4.383146e+01
   3.762956e+01   1.885832e+01
   2.618442e+01   5.437300e+01
  -3.101127e+00   3.525009e+01
  -3.386259e+01  -7.248681e+00
  -4.043169e+01  -1.993753e+01
  -2.209754e+01  -1.490536e+00
   8.459542e-01   1.259108e+01
   7.209734e+00  -4.241251e+00
   5.404790e+00  -3.606522e+01
   1.394478e+01  -4.356419e+01
   3.142943e+01  -6.159455e+00
   3.064728e+01   4.529622e+01
  -1.475778e+00   6.039340e+01
  -4.459610e+01   2.029059e+01
  -5.855033e+01  -3.827038e+01
  -1.852457e+01  -6.509874e+01
   5.489918e+01  -3.731232e+01
   9.063792e+01   1.227888e+01
   5.240620e+01   4.316886e+01
  -2.443269e+01   4.204003e+01
  -6.131454e+01   2.329420e+01
  -2.381159e+01   5.118666e+00
   3.622830e+01   1.587952e+00
   3.808502e+01   1.779298e+01
  -2.914619e+01   3.516298e+01
  -9.258508e+01   2.529367e+01
