
 $NMID
 id='ANONYMOUS ', fmtdat='(2E16.6)'
 volume=1.0
 tramp=1.0
 $END
   2.079402e+03  -4.192155e+01
   1.691509e+03   7.174338e+02
   5.313200e+02   1.299154e+03
  -4.987728e+02   1.191428e+03
  -7.489350e+02   5.034195e+02
  -2.970632e+02  -8.231012e+01
   1.211507e+02  -9.786652e+01
   1.454040e+02   2.206067e+02
  -1.594312e+02   4.077437e+02
  -3.828669e+02   1.731917e+02
  -3.330516e+02  -1.614078e+02
  -1.295519e+02  -4.066135e+02
   9.665699e+01  -2.347894e+02
   1.563437e+02   1.383499e+02
  -3.768026e+01   3.090168e+02
  -2.023700e+02   1.402046e+02
  -2.508344e+02  -2.422310e+02
  -6.578357e+00  -4.401300e+02
   2.754784e+02  -2.775160e+02
   3.507796e+02   5.507176e+01
   1.663802e+02   2.392032e+02
  -3.320664e+01   1.766377e+02
  -1.888591e+01   7.373091e+01
   9.457374e+01   1.220843e+02
   1.376338e+02   2.227355e+02
  -3.543743e+01   2.044757e+02
  -2.665390e+02   5.996729e+01
  -3.328833e+02  -1.112489e+02
  -1.409243e+02  -1.613828e+02
   1.389126e+02  -7.392810e+01
   2.566218e+02   7.016841e+01
   1.139032e+02   1.858063e+02
  -1.324942e+02   1.912365e+02
  -2.722137e+02   9.434503e+01
  -2.280749e+02  -6.971412e+01
  -9.129578e+01  -1.803898e+02
  -2.166715e+01  -1.335337e+02
  -6.397976e+01   1.339226e+01
  -9.369596e+01   4.498544e+01
  -5.978696e+01  -1.076336e+02
   1.909703e+01  -2.610078e+02
   1.195940e+02  -2.383291e+02
   1.365016e+02  -3.217171e+01
   6.919345e+01   1.167393e+02
  -3.029128e+01   5.133266e+01
  -4.933551e+01  -1.379815e+02
   6.555055e+01  -2.018015e+02
   2.645173e+02  -4.479439e+01
   3.112726e+02   2.167134e+02
   1.418316e+02   3.034524e+02
  -1.496682e+02   1.792717e+02
  -3.227668e+02  -9.422040e+00
  -2.416733e+02  -1.176944e+02
  -2.902509e+01  -1.209917e+02
   1.386476e+02  -8.200089e+01
   1.536337e+02  -3.608183e+01
   5.898631e+01  -3.786541e+00
  -8.495217e+00   1.614311e+00
   4.007115e+01  -7.229207e+00
   1.221275e+02   8.560615e+00
   9.096003e+01   8.810850e+01
  -6.848890e+01   1.697856e+02
  -2.218013e+02   1.237217e+02
  -1.923032e+02  -6.461078e+01
  -2.031569e+00  -2.404584e+02
   1.943528e+02  -2.543021e+02
   2.454327e+02  -1.078999e+02
   1.551882e+02   8.805606e+01
   5.478697e+01   2.100957e+02
   2.414715e+01   2.120421e+02
   1.168523e+01   1.496642e+02
  -4.495723e+01   1.058878e+02
  -1.236569e+02   7.872730e+01
  -1.716152e+02   1.623831e+01
  -1.418912e+02  -9.062588e+01
  -4.614081e+01  -1.525950e+02
   5.732589e+01  -1.063829e+02
   1.091426e+02   2.860669e+01
   6.785279e+01   1.462507e+02
  -3.407454e+01   1.514356e+02
  -1.495082e+02   3.798772e+01
  -1.974900e+02  -1.042658e+02
  -1.245058e+02  -1.840570e+02
   7.974858e+00  -1.809807e+02
   9.624783e+01  -1.318395e+02
   1.097907e+02  -8.469617e+01
   1.126842e+02  -4.923752e+01
   1.818193e+02  -1.697841e+01
   2.647020e+02   5.954427e+01
   2.157233e+02   1.906728e+02
   1.588848e+00   2.892930e+02
  -2.217179e+02   2.679577e+02
  -3.006456e+02   1.290128e+02
  -1.836334e+02  -5.094005e+01
  -1.733468e+01  -1.437596e+02
   3.965491e+01  -1.178761e+02
  -1.672836e+01  -3.736722e+01
  -7.356603e+01   9.089386e+00
  -6.550977e+01  -2.476898e+01
   5.545696e-01  -7.320995e+01
   7.659165e+01  -3.620504e+01
   5.611972e+01   2.497659e+01
  -1.380713e+01   6.427785e+01
  -9.981565e+01   5.978600e+00
  -1.166422e+02  -1.415768e+02
  -7.515007e+00  -2.364229e+02
   1.627172e+02  -1.647093e+02
   2.581361e+02   2.591216e+01
   2.042618e+02   1.790478e+02
   4.357196e+01   1.918726e+02
  -8.538202e+01   9.751964e+01
  -9.320458e+01   3.233657e+00
  -1.268162e+01  -2.005506e+00
   2.775516e+01   4.595105e+01
  -1.003556e+01   6.985522e+01
  -7.992409e+01   4.011929e+01
  -8.522170e+01  -1.719821e+01
  -1.648958e+01  -2.869400e+01
   5.559218e+01   1.510324e+01
   2.177046e+01   6.929731e+01
  -1.060920e+02   6.163393e+01
  -2.076161e+02  -1.436266e+01
  -1.718990e+02  -1.217586e+02
  -1.447055e+01  -1.769550e+02
   1.371898e+02  -1.505784e+02
   1.726254e+02  -5.770223e+01
   8.125577e+01   2.596016e+01
  -1.813919e+01   3.610700e+01
  -3.042334e+01  -7.987786e+00
   4.414689e+01  -4.655121e+01
   1.185168e+02  -1.172163e+01
   1.174160e+02   6.900517e+01
   3.941413e+01   1.188992e+02
  -4.994186e+01   8.647965e+01
  -7.569075e+01   1.501214e+01
  -2.391894e+01  -1.967188e+01
   3.321348e+01   2.372075e+01
   1.921948e+01   8.525859e+01
  -6.991735e+01   8.628165e+01
  -1.465499e+02   1.164760e+01
  -1.283428e+02  -8.881722e+01
  -1.249749e+01  -1.372205e+02
   9.698430e+01  -1.010321e+02
   1.109271e+02  -2.113657e+01
   3.811609e+01   5.119785e+01
  -3.502805e+01   6.037077e+01
  -4.240123e+01   1.883646e+01
   3.664640e+00  -1.805489e+01
   2.772417e+01  -5.323949e+00
  -5.687019e+00   1.826215e+01
  -6.097951e+01   3.970853e+00
  -7.673270e+01  -6.362394e+01
  -9.504470e+00  -1.209788e+02
   9.945715e+01  -1.070207e+02
   1.630462e+02  -1.044731e+01
   1.349150e+02   1.013740e+02
   3.975679e+01   1.518699e+02
  -5.684557e+01   1.138759e+02
  -8.524987e+01   3.392566e+01
  -5.717467e+01  -1.733382e+01
  -2.872009e+01  -1.639312e+01
  -4.288104e+01   4.696285e+00
  -6.187345e+01   7.373460e+00
  -4.427031e+01  -3.976906e+01
   2.039101e+01  -7.629215e+01
   9.116974e+01  -5.504346e+01
   8.671247e+01   3.251457e+01
  -7.818549e+00   9.936598e+01
  -1.190816e+02   6.699366e+01
  -1.462301e+02  -4.617176e+01
  -5.845408e+01  -1.542284e+02
   8.798394e+01  -1.545433e+02
   1.925121e+02  -3.428637e+01
   1.639974e+02   5.783566e+01
   6.733716e+01   1.071210e+02
  -2.431961e+01   8.923011e+01
  -5.413826e+01   5.664510e+01
  -3.593869e+01   4.924833e+01
  -2.877686e+01   6.729082e+01
  -5.728193e+01   6.036191e+01
  -9.249720e+01  -2.396625e+00
  -8.732812e+01  -9.831985e+01
  -2.372535e+01  -1.478358e+02
   6.392185e+01  -1.127525e+02
   1.105676e+02  -9.810264e+00
   7.908815e+01   8.318917e+01
   2.764206e+00   1.027464e+02
  -5.102543e+01   4.793711e+01
  -4.411518e+01  -1.591721e+01
   5.108518e+00  -4.208906e+01
   2.662692e+01  -2.503585e+01
  -1.157065e+01  -3.836443e+00
  -5.634847e+01  -1.075027e+01
  -3.722728e+01  -3.091349e+01
   5.237243e+01  -3.132650e+01
   1.214989e+02   3.448667e+00
   9.899698e+01   5.188667e+01
  -4.896449e+00   7.238498e+01
  -9.585138e+01   5.197325e+01
  -1.000136e+02   1.677696e+00
  -2.953852e+01  -3.774974e+01
   3.863119e+01  -3.188916e+01
   5.428295e+01   1.233804e+01
   2.023399e+01   5.229263e+01
  -2.686863e+01   5.049721e+01
  -5.053153e+01   7.031393e+00
  -4.696299e+01  -3.418361e+01
  -3.195456e+01  -3.290710e+01
  -2.915906e+01  -2.399056e+00
  -4.182694e+01   1.283255e+00
  -3.793237e+01  -4.760239e+01
   7.656240e+00  -1.079225e+02
   8.593742e+01  -1.071313e+02
   1.332164e+02  -3.436676e+01
   9.936205e+01   5.998967e+01
   5.711869e+00   9.543094e+01
  -6.616952e+01   5.507941e+01
  -4.577474e+01  -3.807763e+00
   3.590066e+01  -1.812250e+01
   8.841867e+01   2.564632e+01
   4.711482e+01   7.097109e+01
  -5.513260e+01   7.327833e+01
  -1.263463e+02   2.851681e+01
  -1.015398e+02  -3.098161e+01
  -1.889935e+01  -5.731238e+01
   4.448960e+01  -3.764067e+01
   3.428393e+01   7.410096e+00
  -2.696969e+01   2.693650e+01
  -6.697581e+01  -6.704086e+00
  -3.919870e+01  -7.636135e+01
   4.076679e+01  -1.142273e+02
   1.049649e+02  -6.373650e+01
   9.326502e+01   5.015781e+01
   2.030852e+01   1.274163e+02
  -5.281672e+01   9.780559e+01
  -7.350658e+01  -6.217871e+00
  -4.032976e+01  -8.071901e+01
   1.532411e+01  -6.984027e+01
   3.935849e+01  -1.024339e+01
   2.920632e+01   2.206476e+01
   5.785380e+00   8.132994e+00
   1.052766e+00  -1.037208e+01
   2.239849e+01   1.148320e+01
   4.294156e+01   5.688851e+01
   2.573444e+01   7.262565e+01
  -3.805989e+01   3.672355e+01
  -9.298125e+01  -1.340795e+01
  -8.928186e+01  -4.287671e+01
  -1.859834e+01  -4.189149e+01
   4.790715e+01  -2.462560e+01
   5.928472e+01  -7.918167e+00
   1.660030e+01   1.091833e+01
  -2.130306e+01   1.513985e+01
  -1.647649e+01   6.047298e+00
   7.566344e+00  -7.850291e+00
   4.250063e+00  -3.204335e+00
  -3.565971e+01   5.867710e+00
  -6.239745e+01  -7.893339e+00
  -2.813875e+01  -5.287482e+01
   5.804437e+01  -8.488117e+01
   1.240214e+02  -5.944428e+01
   1.142083e+02   2.744524e+01
   3.637280e+01   1.051528e+02
  -4.620775e+01   1.135351e+02
  -7.905390e+01   5.528778e+01
  -5.948315e+01  -8.304484e+00
  -2.236085e+01  -2.646707e+01
  -3.518739e+00  -1.039932e+01
  -1.075274e+01  -4.851058e+00
  -2.505500e+01  -2.820389e+01
  -1.426438e+01  -6.115458e+01
   1.537302e+01  -5.078028e+01
   5.128516e+01   1.830785e+00
   5.713041e+01   6.114514e+01
   1.672356e+01   7.394323e+01
  -4.528598e+01   2.998994e+01
  -7.527237e+01  -3.369990e+01
  -3.679648e+01  -6.693524e+01
   3.766394e+01  -5.212891e+01
   7.307922e+01  -4.846476e+00
   3.669932e+01   3.981744e+01
  -2.070100e+01   4.835064e+01
  -3.301020e+01   2.252216e+01
   1.118761e+01  -9.689916e+00
   4.767633e+01  -1.138503e+01
   1.822065e+01   1.764699e+01
  -4.795017e+01   4.469603e+01
  -8.518921e+01   3.591056e+01
  -5.283388e+01  -1.001413e+01
   5.697504e+00  -5.755173e+01
   3.951689e+01  -5.994166e+01
   3.437531e+01  -1.315793e+01
   1.119326e+01   3.590862e+01
  -1.303256e+01   4.072117e+01
  -2.747413e+01   5.229792e-01
  -2.534237e+01  -3.691632e+01
  -2.471111e+00  -3.431599e+01
   2.370125e+01  -2.067390e-01
   2.992814e+01   1.950293e+01
   1.317995e+01   5.093987e+00
  -4.652824e+00  -1.770351e+01
  -3.316672e+00  -1.293731e+01
   9.821453e+00   1.875660e+01
   8.280776e+00   4.102526e+01
  -1.519007e+01   2.387660e+01
  -3.493711e+01  -1.663571e+01
  -1.969672e+01  -4.026586e+01
   2.326553e+01  -2.281447e+01
   4.796401e+01   1.848458e+01
   1.983950e+01   4.229235e+01
  -3.859310e+01   3.004052e+01
  -6.664860e+01  -4.549883e+00
  -3.930454e+01  -3.152412e+01
   1.601943e+01  -3.724612e+01
   4.672991e+01  -2.330344e+01
   2.444206e+01  -4.455867e+00
  -1.279591e+01   5.350014e+00
  -2.168211e+01  -9.828884e-01
   1.026677e+01  -1.604365e+01
   4.802841e+01  -1.617337e+01
