
 $NMID
 id='ANONYMOUS ', fmtdat='(2E16.6)'
 volume=1.0
 tramp=1.0
 $END
  -3.767758e+03   9.730648e+02
  -2.641728e+03  -1.846575e+03
   1.646595e+02  -2.505158e+03
   1.574866e+03  -1.017481e+03
   9.029071e+02   4.322370e+02
  -4.972141e+02   6.909493e+02
  -8.866059e+02  -2.455183e+02
  -2.108195e+02  -9.843101e+02
   5.894817e+02  -8.800235e+02
   8.711603e+02  -8.912426e+01
   5.216081e+02   7.316959e+02
  -9.522066e+01   8.463226e+02
  -5.869127e+02   2.246418e+02
  -5.017993e+02  -5.767138e+02
   1.684372e+02  -7.183968e+02
   5.640874e+02  -1.054424e+02
   4.027387e+02   5.637071e+02
  -1.605858e+02   6.397087e+02
  -5.186018e+02   1.895562e+02
  -4.502315e+02  -2.556866e+02
  -9.328051e+01  -3.927275e+02
   1.891236e+02  -2.660404e+02
   2.106632e+02  -2.434600e+01
  -8.260409e+01   1.272897e+02
  -4.091682e+02   4.371255e+00
  -3.024612e+02  -3.468859e+02
   3.039316e+02  -4.905785e+02
   7.899331e+02  -1.207252e+02
   5.139577e+02   4.123431e+02
  -2.503746e+02   5.544482e+02
  -6.989842e+02   1.544650e+02
  -4.265787e+02  -3.661692e+02
   1.469465e+02  -5.448762e+02
   4.745968e+02  -3.007801e+02
   4.230671e+02   1.301681e+02
   1.314165e+02   4.160224e+02
  -1.565957e+02   2.678955e+02
  -1.909200e+02  -1.837002e+02
   9.809931e+01  -4.199696e+02
   4.329445e+02  -6.152568e+01
   3.481552e+02   5.736195e+02
  -1.713639e+02   6.903137e+02
  -5.521407e+02   1.203038e+02
  -3.329250e+02  -4.534304e+02
   2.102728e+02  -3.588785e+02
   4.165145e+02   2.015710e+02
   5.570361e+01   5.024132e+02
  -4.618075e+02   2.527313e+02
  -5.936330e+02  -2.420991e+02
  -2.562537e+02  -5.033046e+02
   2.779636e+02  -3.966537e+02
   5.730885e+02  -4.135535e+01
   4.029399e+02   2.724273e+02
  -6.300199e+01   3.459089e+02
  -3.777937e+02   1.247437e+02
  -2.416775e+02  -1.435490e+02
   9.793583e+01  -1.282688e+02
   1.691588e+02   1.127568e+02
  -1.095458e+02   2.144720e+02
  -3.166058e+02   1.048788e+01
  -1.751667e+02  -2.390691e+02
   1.320006e+02  -2.663348e+02
   2.765648e+02  -1.232656e+02
   1.882306e+02   4.238126e+01
   2.771583e+01   2.090108e+02
  -1.255512e+02   3.325470e+02
  -2.580799e+02   2.485837e+02
  -2.769269e+02  -7.635349e+01
  -1.407865e+02  -3.756588e+02
   4.178066e+01  -3.463051e+02
   8.977496e+01  -9.493934e+01
   6.231950e+00   1.430009e+01
   4.385684e+00  -9.600417e+01
   1.382460e+02  -1.764104e+02
   2.599194e+02  -2.308140e+01
   2.110253e+02   2.062873e+02
  -1.039545e+00   2.537541e+02
  -2.083937e+02   6.502504e+01
  -2.424045e+02  -1.656634e+02
  -5.654349e+01  -2.653302e+02
   2.183607e+02  -1.630001e+02
   3.575622e+02   7.175252e+01
   2.234873e+02   2.704877e+02
  -3.973875e+01   2.824553e+02
  -1.877450e+02   1.405993e+02
  -1.311707e+02   2.345538e+01
  -6.317652e+01   4.779318e+01
  -1.768166e+02   9.834227e+01
  -3.526825e+02   1.687637e+01
  -3.334928e+02  -1.896965e+02
  -7.588550e+01  -3.786586e+02
   2.395507e+02  -4.144676e+02
   3.909120e+02  -2.585974e+02
   3.192965e+02   3.543355e+01
   1.111542e+02   2.588221e+02
  -6.855817e+01   2.470243e+02
  -7.686442e+01   3.442649e+01
   6.691550e+01  -1.268378e+02
   1.761054e+02  -3.474532e+01
   8.028366e+01   1.744615e+02
  -1.225968e+02   1.819695e+02
  -1.709427e+02  -1.928281e+01
  -1.166449e+01  -1.789848e+02
   1.673693e+02  -6.907284e+01
   2.010193e+02   1.824565e+02
   4.651112e+01   3.113333e+02
  -1.669165e+02   2.200268e+02
  -3.019183e+02   2.011490e+01
  -2.827178e+02  -1.586615e+02
  -1.260773e+02  -2.126512e+02
   7.364758e+01  -1.577912e+02
   1.488281e+02  -4.167337e+01
   4.907189e+01   2.284757e+01
  -7.174574e+01  -1.632348e+01
  -5.059881e+01  -1.036320e+02
   8.986400e+01  -1.164016e+02
   1.572815e+02  -2.287685e+01
   6.768759e+01   6.143463e+01
  -6.591281e+01   4.034598e+01
  -6.915775e+01  -5.230437e+01
   8.056437e+01  -1.111982e+02
   2.460612e+02  -7.096992e+01
   2.649813e+02   6.295454e+01
   1.153869e+02   2.122582e+02
  -9.634861e+01   2.693706e+02
  -2.173348e+02   1.722202e+02
  -1.700170e+02  -1.020665e+01
  -8.616295e+00  -1.004336e+02
   7.388810e+01  -2.534232e+01
  -8.448196e+00   9.978649e+01
  -1.623082e+02   8.745208e+01
  -2.112120e+02  -5.568645e+01
  -1.024549e+02  -1.767203e+02
   5.316757e+01  -1.626092e+02
   1.225471e+02  -5.503323e+01
   7.314206e+01   2.568829e+01
  -2.384468e+01   1.352226e+01
  -5.120750e+01  -6.622389e+01
   3.634617e+01  -1.185095e+02
   1.644662e+02  -7.423994e+01
   1.963282e+02   6.814736e+01
   7.247023e+01   1.879844e+02
  -1.042683e+02   1.761854e+02
  -1.697702e+02   4.480777e+01
  -8.347023e+01  -8.931746e+01
   3.688321e+01  -1.138210e+02
   7.218957e+01  -4.167699e+01
   2.300909e+01   2.540444e+01
  -1.603354e+01   2.683269e+01
   1.265032e+00  -5.000397e+00
   5.801059e+01  -9.441586e+00
   9.298072e+01   4.616839e+01
   4.847740e+01   1.309260e+02
  -7.957847e+01   1.621460e+02
  -2.017286e+02   7.664728e+01
  -2.113289e+02  -8.657657e+01
  -8.351852e+01  -2.043629e+02
   6.599374e+01  -1.753742e+02
   1.203917e+02  -4.731504e+01
   7.323848e+01   3.944135e+01
   2.576162e+01   2.604215e+01
   3.924712e+01  -2.245528e+01
   6.886873e+01  -2.804821e+01
   5.061030e+01   3.200582e+01
  -1.866084e+01   8.191298e+01
  -7.480791e+01   7.246456e+01
  -8.095983e+01  -9.585044e+00
  -1.274692e+01  -1.002957e+02
   1.058652e+02  -1.029960e+02
   1.825618e+02   2.266087e+00
   1.293701e+02   1.565252e+02
  -4.804400e+01   2.261514e+02
  -2.236659e+02   1.268298e+02
  -2.428158e+02  -1.764077e+01
  -1.310476e+02  -1.338481e+02
   3.609557e+00  -1.374536e+02
   6.317111e+01  -9.446544e+01
   5.069999e+01  -7.698942e+01
   3.768635e+01  -9.503505e+01
   6.819093e+01  -8.379938e+01
   1.207916e+02  -7.663316e+00
   1.336326e+02   1.083906e+02
   7.168031e+01   1.895871e+02
  -4.740584e+01   1.718109e+02
  -1.504121e+02   5.515376e+01
  -1.471909e+02  -7.559550e+01
  -4.946852e+01  -1.336078e+02
   4.292278e+01  -9.021446e+01
   5.565531e+01  -8.741220e+00
   1.406718e+01   3.839729e+01
  -4.399695e+00   2.969316e+01
   3.193195e+01   3.482681e+00
   7.197476e+01   1.993389e+00
   4.770003e+01   2.975298e+01
  -4.798965e+01   5.140329e+01
  -1.401480e+02   3.915425e+01
  -1.351277e+02  -1.527317e+01
  -2.997986e+01  -7.594958e+01
   8.551632e+01  -9.210651e+01
   1.156206e+02  -3.950405e+01
   4.765923e+01   2.914503e+01
  -4.235063e+01   4.614075e+01
  -6.633878e+01  -9.793485e+00
  -2.146234e+01  -6.072162e+01
   3.578052e+01  -6.187461e+01
   5.560675e+01  -8.075041e+00
   4.745135e+01   3.732699e+01
   4.291138e+01   2.677662e+01
   4.791393e+01  -1.391528e+01
   5.503144e+01  -1.483460e+01
   4.534898e+01   5.062849e+01
   2.489930e+00   1.332102e+02
  -7.463361e+01   1.408602e+02
  -1.355211e+02   5.577068e+01
  -1.225230e+02  -5.639612e+01
  -3.134514e+01  -1.072462e+02
   5.952591e+01  -7.248579e+01
   5.619308e+01   2.098722e+00
  -4.000349e+01   3.711588e+01
  -1.238278e+02  -4.730788e+00
  -9.114287e+01  -8.050489e+01
   4.105788e+01  -1.190200e+02
   1.569038e+02  -8.555024e+01
   1.520839e+02  -5.259096e-01
   5.222685e+01   7.086000e+01
  -3.834280e+01   7.424246e+01
  -4.094816e+01   1.404190e+01
   2.987911e+01  -3.079528e+01
   8.385852e+01   5.948662e+00
   5.233753e+01   9.886279e+01
  -4.897994e+01   1.519030e+02
  -1.375697e+02   8.339275e+01
  -1.333190e+02  -6.194333e+01
  -4.908240e+01  -1.676922e+02
   4.881354e+01  -1.429025e+02
   9.451426e+01  -1.417765e+01
   8.006541e+01   8.914685e+01
   2.090315e+01   9.493123e+01
  -3.346594e+01   2.971565e+01
  -5.075076e+01  -1.136650e+01
  -2.416234e+01   1.132408e+00
  -3.005231e+00   2.102300e+01
  -2.738885e+01  -1.037517e+01
  -7.081100e+01  -6.640634e+01
  -5.721888e+01  -8.966813e+01
   3.682324e+01  -5.336297e+01
   1.318128e+02   2.193943e+00
   1.212921e+02   3.451692e+01
   1.838843e+01   4.340989e+01
  -7.480656e+01   3.720858e+01
  -7.287021e+01   1.906663e+01
  -7.349126e+00  -7.189351e+00
   3.097386e+01  -2.698469e+01
   1.000511e+01  -1.572857e+01
  -1.585801e+01   5.749735e+00
   4.705517e+00   7.655198e+00
   5.841273e+01  -7.730466e+00
   7.705405e+01   6.591106e+00
   2.246993e+01   6.910168e+01
  -8.070598e+01   1.161616e+02
  -1.473931e+02   7.324813e+01
  -1.319720e+02  -4.043468e+01
  -4.668960e+01  -1.377998e+02
   4.505515e+01  -1.430544e+02
   9.090349e+01  -6.807496e+01
   7.503904e+01   9.422538e+00
   2.807867e+01   2.811471e+01
  -9.047422e-01   6.223851e+00
   1.010184e+01  -1.573066e+00
   4.046461e+01   3.424981e+01
   3.940900e+01   7.711117e+01
  -1.156035e+01   6.994192e+01
  -7.648939e+01   2.641476e-01
  -8.586586e+01  -8.108920e+01
  -1.994279e+01  -9.597434e+01
   6.980963e+01  -3.501865e+01
   1.016666e+02   4.902676e+01
   4.572026e+01   8.515050e+01
  -4.870766e+01   6.196311e+01
  -8.740716e+01   8.358422e+00
  -4.494137e+01  -3.575132e+01
   1.756900e+01  -4.928582e+01
   2.276492e+01  -2.834865e+01
  -2.786840e+01   7.866078e+00
  -5.791210e+01   1.765745e+01
  -2.001972e+01  -2.210555e+01
   5.481085e+01  -7.189068e+01
   8.919610e+01  -6.665865e+01
   5.693436e+01   1.313218e+00
   2.153368e+00   7.603335e+01
  -3.178726e+01   7.794217e+01
  -3.228384e+01   1.243276e+01
  -1.268849e+01  -4.739243e+01
   1.506508e+01  -4.125689e+01
   3.527987e+01   9.330863e+00
   3.213339e+01   4.002724e+01
   2.262610e+00   2.862384e+01
  -2.960886e+01  -1.141604e+00
  -3.497496e+01  -8.963250e+00
  -1.629924e+01   4.335839e+00
   2.951967e+00   1.233161e+01
   2.421335e+00  -4.501985e+00
  -4.235979e+00  -3.305620e+01
   4.523667e+00  -4.207723e+01
   2.837218e+01  -1.329321e+01
   3.629060e+01   3.311253e+01
   9.635213e+00   5.180958e+01
  -3.505229e+01   2.542202e+01
  -5.627937e+01  -2.379736e+01
  -2.327441e+01  -5.225929e+01
   4.151292e+01  -4.100536e+01
   7.878088e+01  -3.217112e+00
   4.853677e+01   3.044099e+01
  -1.688264e+01   4.151556e+01
  -5.069157e+01   2.867842e+01
  -1.860723e+01   3.888583e+00
   3.448798e+01  -8.155045e+00
   3.702714e+01   7.982384e+00
  -2.005322e+01   3.626995e+01
  -7.534534e+01   3.586114e+01
