
 $NMID
 id='ANONYMOUS ', fmtdat='(2E16.6)'
 volume=1.0
 tramp=1.0
 $END
  -3.835471e+03  -3.372710e+00
  -2.322153e+03  -2.473208e+03
   7.268858e+02  -2.635989e+03
   2.009232e+03  -9.978315e+02
   9.827635e+02   4.738489e+02
  -4.505394e+02   5.393991e+02
  -7.699533e+02  -2.683282e+02
  -3.219842e+01  -8.998258e+02
   6.918600e+02  -7.576216e+02
   8.524341e+02   7.594454e+00
   5.292684e+02   7.249892e+02
  -1.332536e+02   8.480737e+02
  -5.409239e+02   1.728571e+02
  -3.827835e+02  -5.918632e+02
   2.258578e+02  -7.561115e+02
   5.474259e+02  -4.175952e+01
   3.073530e+02   6.150244e+02
  -2.564409e+02   6.439698e+02
  -5.650320e+02   1.782662e+02
  -4.422432e+02  -2.943438e+02
  -6.643761e+01  -4.166536e+02
   2.174603e+02  -2.907183e+02
   1.966207e+02  -5.941343e+01
  -1.122284e+02   4.724659e+01
  -3.642187e+02  -1.356502e+02
  -1.622676e+02  -3.866267e+02
   4.460569e+02  -3.570225e+02
   7.946825e+02   8.100786e+01
   4.113413e+02   4.811085e+02
  -3.427285e+02   4.390644e+02
  -6.848858e+02  -4.642986e+00
  -3.383366e+02  -4.272024e+02
   2.402709e+02  -4.953210e+02
   5.218833e+02  -2.152870e+02
   4.049283e+02   1.939788e+02
   1.090127e+02   4.199702e+02
  -1.331193e+02   2.523879e+02
  -1.112538e+02  -1.632204e+02
   1.368249e+02  -3.560268e+02
   3.585508e+02   3.447645e+01
   1.926784e+02   6.093644e+02
  -2.716271e+02   6.338181e+02
  -5.227598e+02   2.405453e+01
  -2.445785e+02  -4.829867e+02
   2.320571e+02  -2.849173e+02
   3.375255e+02   3.018397e+02
  -5.092991e+01   5.145971e+02
  -5.291300e+02   1.369390e+02
  -5.740110e+02  -3.677298e+02
  -1.861271e+02  -5.358263e+02
   3.344116e+02  -3.303628e+02
   5.734199e+02   3.804055e+01
   3.696909e+02   2.977166e+02
  -9.321169e+01   3.034510e+02
  -3.727516e+02   8.915726e+01
  -2.365373e+02  -1.210317e+02
   7.855009e+01  -8.385795e+01
   1.224535e+02   1.180191e+02
  -1.446176e+02   1.610038e+02
  -3.238858e+02  -6.543204e+01
  -1.480282e+02  -2.776690e+02
   1.867869e+02  -2.615423e+02
   3.407581e+02  -8.956465e+01
   2.146520e+02   8.284954e+01
  -1.484197e+01   2.371960e+02
  -2.094629e+02   3.256259e+02
  -3.071883e+02   2.169051e+02
  -2.657759e+02  -1.170828e+02
  -1.081689e+02  -3.927552e+02
   6.260850e+01  -3.638940e+02
   8.730307e+01  -1.414675e+02
   3.664303e+01  -2.485346e+01
   6.737776e+01  -8.846888e+01
   2.017107e+02  -1.108678e+02
   2.625998e+02   5.942752e+01
   1.473433e+02   2.544472e+02
  -6.921904e+01   2.389790e+02
  -2.134469e+02   1.239740e+00
  -1.911249e+02  -2.334215e+02
   8.283745e+00  -2.734262e+02
   2.516264e+02  -1.014237e+02
   3.397414e+02   1.544713e+02
   1.853283e+02   3.130569e+02
  -7.058352e+01   2.881319e+02
  -2.015158e+02   1.444787e+02
  -1.565497e+02   3.595320e+01
  -1.167932e+02   5.039751e+01
  -2.392177e+02   5.812430e+01
  -4.043654e+02  -4.806589e+01
  -3.490335e+02  -2.678699e+02
  -2.895078e+01  -4.401296e+02
   3.445137e+02  -4.340532e+02
   4.923724e+02  -2.302746e+02
   3.282099e+02   7.764670e+01
   5.486545e+01   2.725803e+02
  -1.131541e+02   2.346600e+02
  -5.589692e+01   4.009748e+01
   1.176558e+02  -8.763076e+01
   1.848451e+02   6.762667e+00
   5.111376e+01   1.712151e+02
  -1.450564e+02   1.662014e+02
  -1.587004e+02  -4.892624e+01
  -8.873377e-01  -1.720919e+02
   1.773999e+02  -3.077458e+01
   1.740742e+02   2.375694e+02
  -9.758686e+00   3.455614e+02
  -2.225698e+02   1.982970e+02
  -3.292418e+02  -4.953206e+01
  -2.701227e+02  -2.297757e+02
  -9.319065e+01  -2.510323e+02
   1.011635e+02  -1.527309e+02
   1.570225e+02  -2.649836e+01
   5.472612e+01   2.029114e+01
  -5.810667e+01  -3.777617e+01
  -2.037350e+01  -1.092651e+02
   1.133330e+02  -8.908180e+01
   1.618338e+02   5.305766e+00
   5.267216e+01   6.061044e+01
  -7.414268e+01   8.661387e+00
  -5.066600e+01  -7.938028e+01
   1.223196e+02  -9.408497e+01
   2.767047e+02  -2.447776e-01
   2.613239e+02   1.353851e+02
   6.359415e+01   2.466180e+02
  -1.681873e+02   2.482599e+02
  -2.568049e+02   1.202746e+02
  -1.598445e+02  -4.300628e+01
   1.418591e+01  -9.678152e+01
   7.477514e+01  -1.135297e+01
  -3.054788e+01   8.844046e+01
  -1.724484e+02   5.865170e+01
  -1.924922e+02  -8.352597e+01
  -7.163912e+01  -1.871784e+02
   7.793545e+01  -1.494568e+02
   1.289568e+02  -3.581590e+01
   6.520072e+01   3.227214e+01
  -2.547834e+01  -9.821835e-01
  -3.214717e+01  -8.360667e+01
   7.338037e+01  -1.115502e+02
   1.926682e+02  -3.448525e+01
   1.889124e+02   1.144754e+02
   2.948202e+01   2.084508e+02
  -1.466121e+02   1.661341e+02
  -1.846475e+02   1.817217e+01
  -6.778296e+01  -9.895092e+01
   5.750541e+01  -1.020168e+02
   7.554646e+01  -2.871075e+01
   1.306247e+01   2.690441e+01
  -2.462413e+01   1.357700e+01
   1.001470e+01  -1.615701e+01
   7.316777e+01   2.703494e+00
   9.340491e+01   8.244778e+01
   2.033943e+01   1.618133e+02
  -1.245130e+02   1.531469e+02
  -2.288599e+02   2.561142e+01
  -1.997956e+02  -1.423882e+02
  -4.489956e+01  -2.276033e+02
   9.695668e+01  -1.672812e+02
   1.287710e+02  -3.244044e+01
   7.170847e+01   4.575954e+01
   2.892920e+01   2.678492e+01
   5.407504e+01  -1.797631e+01
   8.401264e+01  -7.087267e+00
   5.032651e+01   5.113682e+01
  -3.066522e+01   9.117611e+01
  -1.050970e+02   5.701234e+01
  -8.858267e+01  -3.582389e+01
   1.347896e+01  -1.138012e+02
   1.406857e+02  -8.625869e+01
   1.924944e+02   4.611973e+01
   1.006509e+02   1.901811e+02
  -9.509793e+01   2.189006e+02
  -2.698199e+02   1.035012e+02
  -2.488437e+02  -7.061912e+01
  -1.129425e+02  -1.639014e+02
   2.616330e+01  -1.440404e+02
   8.521929e+01  -8.701561e+01
   7.239668e+01  -7.974426e+01
   6.392373e+01  -9.775658e+01
   9.118433e+01  -7.289068e+01
   1.262338e+02   2.261201e+01
   1.133645e+02   1.492352e+02
   2.900686e+01   2.188009e+02
  -9.072247e+01   1.631526e+02
  -1.690253e+02   1.885778e+01
  -1.341242e+02  -1.151032e+02
  -2.148256e+01  -1.538155e+02
   6.445221e+01  -9.051004e+01
   5.834820e+01  -7.297313e-01
   2.678709e+00   4.248929e+01
  -1.103782e+01   3.308617e+01
   3.699950e+01   1.480069e+01
   7.839240e+01   2.164248e+01
   4.310212e+01   3.975749e+01
  -6.531477e+01   4.047862e+01
  -1.580237e+02   5.374136e+00
  -1.402208e+02  -5.188669e+01
  -1.220463e+01  -8.880892e+01
   1.190996e+02  -7.545528e+01
   1.418518e+02  -1.567007e+01
   4.680451e+01   4.133357e+01
  -5.834273e+01   4.090435e+01
  -7.631053e+01  -2.188345e+01
  -1.103838e+01  -6.879501e+01
   5.214358e+01  -6.005829e+01
   6.437617e+01   6.569358e-01
   4.771110e+01   5.116389e+01
   4.130472e+01   4.006181e+01
   5.587075e+01   7.229029e-01
   6.426685e+01  -1.190191e+00
   3.811602e+01   6.869021e+01
  -2.898973e+01   1.492751e+02
  -1.115228e+02   1.411612e+02
  -1.636802e+02   3.333565e+01
  -1.242010e+02  -8.763983e+01
  -7.838765e+00  -1.228869e+02
   8.204115e+01  -6.113303e+01
   5.686718e+01   1.164447e+01
  -6.075084e+01   1.730835e+01
  -1.320681e+02  -3.933442e+01
  -7.412892e+01  -1.011489e+02
   7.354290e+01  -1.108271e+02
   1.795157e+02  -5.566897e+01
   1.540140e+02   2.233010e+01
   4.020421e+01   7.628463e+01
  -4.938828e+01   6.682476e+01
  -4.202782e+01   8.576244e+00
   3.957658e+01  -2.538521e+01
   8.940168e+01   2.245908e+01
   3.396765e+01   1.168649e+02
  -8.411395e+01   1.535149e+02
  -1.582577e+02   6.358402e+01
  -1.275321e+02  -9.508507e+01
  -1.709917e+01  -1.922123e+02
   7.530908e+01  -1.375873e+02
   9.837954e+01   5.553256e+00
   6.388048e+01   1.105829e+02
   2.254680e+00   9.787107e+01
  -4.212511e+01   1.961066e+01
  -4.947490e+01  -2.601323e+01
  -2.203466e+01  -3.478430e+00
  -4.303993e+00   2.106158e+01
  -2.618697e+01  -1.678376e+01
  -6.073136e+01  -8.759765e+01
  -3.853817e+01  -1.034000e+02
   4.837329e+01  -4.400801e+01
   1.402534e+02   3.246908e+01
   1.275113e+02   6.390294e+01
   1.911063e+01   5.000185e+01
  -8.235128e+01   3.000238e+01
  -8.317932e+01   1.210589e+01
  -1.236301e+01  -6.220779e+00
   3.402541e+01  -2.144285e+01
   1.095398e+01  -1.658149e+01
  -2.242735e+01   2.759474e+00
   2.698267e+00   5.622497e+00
   7.140644e+01  -3.428041e+00
   9.187220e+01   1.953224e+01
   1.366247e+01   7.686038e+01
  -1.093757e+02   1.107078e+02
  -1.747030e+02   6.039790e+01
  -1.350663e+02  -5.450086e+01
  -3.029195e+01  -1.469851e+02
   6.563498e+01  -1.442898e+02
   1.021271e+02  -6.249822e+01
   7.518182e+01   1.676236e+01
   2.620243e+01   3.268875e+01
   8.726932e-01   7.106886e+00
   1.106149e+01   2.794086e+00
   2.896411e+01   4.413951e+01
   2.149114e+01   8.820397e+01
  -2.461323e+01   6.856727e+01
  -7.474052e+01  -1.592061e+01
  -7.380658e+01  -9.883701e+01
  -9.865243e+00  -1.031704e+02
   7.497973e+01  -2.634094e+01
   1.009071e+02   6.595789e+01
   3.885482e+01   9.754074e+01
  -6.108896e+01   5.894963e+01
  -9.681090e+01  -5.737513e+00
  -4.093024e+01  -4.814885e+01
   3.165126e+01  -5.356899e+01
   3.343537e+01  -2.782831e+01
  -3.310909e+01   1.776838e+00
  -6.698862e+01   8.644652e+00
  -1.390310e+01  -2.565830e+01
   7.519961e+01  -6.646411e+01
   1.157323e+02  -5.826863e+01
   6.610677e+01   1.070439e+01
  -1.079645e+01   8.244342e+01
  -4.948716e+01   7.859429e+01
  -3.964144e+01   9.376820e+00
  -7.384184e+00  -5.453353e+01
   2.263751e+01  -4.581792e+01
   3.793788e+01   1.303835e+01
   3.089779e+01   4.987180e+01
  -6.810197e-01   3.209152e+01
  -3.131386e+01  -6.500450e+00
  -3.819966e+01  -1.818740e+01
  -1.991496e+01   1.028124e+00
   9.884414e-01   1.532638e+01
   7.313409e+00  -8.512225e-02
   3.636619e+00  -3.415399e+01
   1.116165e+01  -4.355696e+01
   2.823236e+01  -1.108510e+01
   3.201988e+01   4.015527e+01
   3.486967e+00   5.779259e+01
  -4.074182e+01   2.239547e+01
  -5.677880e+01  -3.407761e+01
  -1.724148e+01  -5.836978e+01
   5.208249e+01  -3.362433e+01
   8.431213e+01   1.092002e+01
   4.643987e+01   4.014793e+01
  -2.763000e+01   4.033881e+01
  -6.012346e+01   2.272132e+01
  -2.341830e+01   4.887964e+00
   3.217336e+01  -2.451134e-01
   3.352056e+01   1.147260e+01
  -2.730321e+01   2.937770e+01
  -8.357836e+01   2.311098e+01
