
 $NMID
 id='ANONYMOUS ', fmtdat='(2E16.6)'
 volume=1.0
 tramp=1.0
 $END
   4.197279e+03  -7.950969e+01
   2.285653e+03   2.687345e+03
  -1.006227e+03   2.728133e+03
  -2.268015e+03   7.433413e+02
  -8.525362e+02  -8.557048e+02
   7.958129e+02  -6.789453e+02
   9.808010e+02   4.296427e+02
   2.383200e-01   1.109449e+03
  -8.515858e+02   8.295052e+02
  -9.500029e+02  -9.726279e+01
  -4.816857e+02  -8.453806e+02
   2.450568e+02  -9.191828e+02
   6.573769e+02  -1.210706e+02
   4.076409e+02   7.254471e+02
  -3.104703e+02   8.253409e+02
  -6.294524e+02  -8.535040e+00
  -2.852370e+02  -6.955845e+02
   3.380647e+02  -6.455194e+02
   5.960440e+02  -9.411254e+01
   4.059633e+02   3.534567e+02
   1.135500e+01   4.522902e+02
  -2.628088e+02   2.850348e+02
  -2.617267e+02   1.708009e+01
   9.484896e+01  -1.366446e+02
   4.311656e+02   7.257402e+01
   2.530831e+02   4.326929e+02
  -4.473223e+02   4.629022e+02
  -9.047646e+02  -4.622647e+01
  -4.801042e+02  -5.713601e+02
   3.900542e+02  -5.474703e+02
   7.783218e+02  -1.311676e+01
   3.943612e+02   4.795568e+02
  -2.605654e+02   5.563502e+02
  -5.720542e+02   2.318766e+02
  -4.363903e+02  -2.223236e+02
  -8.593172e+01  -4.814704e+02
   2.117780e+02  -2.888094e+02
   2.035315e+02   2.361924e+02
  -1.438038e+02   4.654780e+02
  -4.810835e+02   1.624596e+01
  -2.960113e+02  -6.764780e+02
   2.958561e+02  -7.324048e+02
   6.284956e+02  -3.104583e+01
   2.769537e+02   5.690523e+02
  -2.988488e+02   3.452165e+02
  -4.126263e+02  -3.326441e+02
   5.895177e+01  -5.866360e+02
   5.929691e+02  -1.643477e+02
   6.254930e+02   3.890369e+02
   1.839437e+02   5.855774e+02
  -3.783957e+02   3.606886e+02
  -6.244327e+02  -6.002809e+01
  -3.886538e+02  -3.704510e+02
   1.559670e+02  -3.727880e+02
   4.457536e+02  -6.525440e+01
   2.433099e+02   1.902835e+02
  -1.361761e+02   1.096088e+02
  -1.600358e+02  -1.690526e+02
   1.753400e+02  -2.094286e+02
   3.683067e+02   7.731291e+01
   1.485527e+02   3.199569e+02
  -1.993127e+02   2.631331e+02
  -3.203875e+02   7.253253e+01
  -1.816045e+02  -6.335535e+01
   8.811722e+00  -2.030071e+02
   1.760071e+02  -3.131122e+02
   3.119662e+02  -2.393581e+02
   2.989217e+02   1.134061e+02
   9.589366e+01   4.199320e+02
  -1.234794e+02   3.726706e+02
  -1.338360e+02   9.848223e+01
  -1.769763e+01  -2.789785e+01
  -1.710597e+01   8.023208e+01
  -1.733118e+02   1.448787e+02
  -2.783414e+02  -2.450191e+01
  -1.808677e+02  -2.528624e+02
   5.444331e+01  -2.663669e+02
   2.275772e+02  -3.396134e+01
   2.222791e+02   2.262833e+02
   1.479212e+01   2.972648e+02
  -2.616418e+02   1.366541e+02
  -3.708632e+02  -1.447826e+02
  -1.912468e+02  -3.327696e+02
   9.153809e+01  -3.029897e+02
   2.242029e+02  -1.218288e+02
   1.426314e+02  -2.736015e+00
   8.127088e+01  -3.899312e+01
   2.029965e+02  -7.805605e+01
   3.888586e+02   2.631219e+01
   3.555565e+02   2.484378e+02
   5.513218e+01   4.257634e+02
  -3.080629e+02   4.451726e+02
  -4.809597e+02   2.498638e+02
  -3.504372e+02  -6.104700e+01
  -7.790284e+01  -2.845024e+02
   1.185983e+02  -2.496572e+02
   8.014956e+01  -2.619483e+01
  -1.111552e+02   1.182240e+02
  -2.115207e+02   3.493590e+00
  -6.442758e+01  -2.009362e+02
   1.708572e+02  -2.001591e+02
   1.917137e+02   5.243828e+01
   6.297499e+00   1.930700e+02
  -1.916453e+02   4.421823e+01
  -1.714383e+02  -2.354396e+02
   1.123252e+01  -3.421080e+02
   2.064365e+02  -1.905867e+02
   3.084437e+02   4.221409e+01
   2.694528e+02   2.075114e+02
   1.151214e+02   2.376630e+02
  -9.261667e+01   1.584830e+02
  -1.676631e+02   3.129524e+01
  -5.907056e+01  -2.941645e+01
   7.647981e+01   2.947941e+01
   4.296061e+01   1.210433e+02
  -1.130826e+02   1.104203e+02
  -1.803773e+02   1.370057e+00
  -6.838342e+01  -7.383030e+01
   7.146021e+01  -3.021973e+01
   6.086603e+01   5.992456e+01
  -1.026126e+02   8.839104e+01
  -2.611863e+02   1.477576e+01
  -2.633397e+02  -1.132679e+02
  -7.975908e+01  -2.410504e+02
   1.553237e+02  -2.660509e+02
   2.623051e+02  -1.336356e+02
   1.724146e+02   4.977722e+01
  -1.535773e+01   1.186757e+02
  -9.178788e+01   1.880510e+01
   1.646786e+01  -1.032324e+02
   1.779242e+02  -7.524590e+01
   2.043193e+02   7.740283e+01
   8.042344e+01   1.949956e+02
  -7.972795e+01   1.619573e+02
  -1.405482e+02   4.146107e+01
  -7.934306e+01  -3.851542e+01
   2.212225e+01  -1.732411e+01
   4.402587e+01   6.600942e+01
  -5.295883e+01   1.097627e+02
  -1.831101e+02   4.827002e+01
  -1.928306e+02  -1.042392e+02
  -3.745457e+01  -2.103856e+02
   1.493587e+02  -1.667234e+02
   1.914204e+02  -1.135837e+01
   7.162250e+01   1.077328e+02
  -5.808181e+01   1.061199e+02
  -8.247328e+01   2.872469e+01
  -2.337440e+01  -2.729363e+01
   1.749637e+01  -1.954269e+01
  -7.341171e+00   8.251867e+00
  -6.326810e+01  -3.946787e+00
  -8.763989e+01  -7.173000e+01
  -2.876189e+01  -1.514534e+02
   1.073229e+02  -1.563536e+02
   2.211118e+02  -4.016115e+01
   2.078737e+02   1.300563e+02
   5.580915e+01   2.253079e+02
  -9.284341e+01   1.696508e+02
  -1.280591e+02   2.880453e+01
  -6.949076e+01  -5.062160e+01
  -2.704089e+01  -2.928889e+01
  -5.195049e+01   1.898840e+01
  -7.685733e+01   9.627024e+00
  -4.303543e+01  -4.353450e+01
   2.725457e+01  -7.838598e+01
   9.002095e+01  -5.428831e+01
   7.574072e+01   2.344190e+01
  -6.386187e+00   9.942783e+01
  -1.208704e+02   8.463040e+01
  -1.818265e+02  -3.616235e+01
  -1.050354e+02  -1.796639e+02
   8.290648e+01  -2.140081e+02
   2.616220e+02  -1.063720e+02
   2.507160e+02   6.721509e+01
   1.170727e+02   1.632785e+02
  -2.581734e+01   1.452664e+02
  -9.002810e+01   9.155288e+01
  -8.153887e+01   7.394437e+01
  -6.770958e+01   8.870377e+01
  -8.274167e+01   6.732562e+01
  -1.155183e+02  -2.052358e+01
  -1.103827e+02  -1.347217e+02
  -3.907705e+01  -2.068799e+02
   7.802774e+01  -1.634320e+02
   1.608669e+02  -2.814271e+01
   1.357081e+02   1.046241e+02
   3.046990e+01   1.486318e+02
  -5.554458e+01   9.591998e+01
  -5.628563e+01   1.208005e+01
  -8.091172e+00  -3.739040e+01
   3.389974e+00  -3.524322e+01
  -3.864781e+01  -1.717967e+01
  -7.570558e+01  -1.585889e+01
  -4.220924e+01  -3.185228e+01
   5.773803e+01  -3.588693e+01
   1.478602e+02  -1.069030e+01
   1.369315e+02   3.637534e+01
   2.133536e+01   7.838667e+01
  -1.085044e+02   7.582187e+01
  -1.370411e+02   2.463902e+01
  -4.703733e+01  -3.319156e+01
   5.521608e+01  -3.790272e+01
   7.578722e+01   2.429051e+01
   7.983327e+00   6.391569e+01
  -5.088247e+01   5.463609e+01
  -5.721215e+01  -1.956692e+00
  -4.032037e+01  -4.576197e+01
  -4.132992e+01  -3.609611e+01
  -5.576737e+01  -5.038868e-01
  -5.771957e+01   1.155740e+00
  -2.911382e+01  -6.000513e+01
   2.857424e+01  -1.346473e+02
   1.009300e+02  -1.309299e+02
   1.471426e+02  -3.788230e+01
   1.176978e+02   7.765709e+01
   1.302369e+01   1.130490e+02
  -7.304204e+01   5.869568e+01
  -5.242554e+01  -9.409913e+00
   5.958867e+01  -1.447399e+01
   1.295489e+02   3.887811e+01
   7.367808e+01   1.015826e+02
  -7.352670e+01   1.132254e+02
  -1.802339e+02   5.945192e+01
  -1.585444e+02  -2.160841e+01
  -4.395572e+01  -7.860380e+01
   4.938798e+01  -7.139025e+01
   4.432911e+01  -1.105249e+01
  -3.728889e+01   2.476714e+01
  -8.740970e+01  -2.209924e+01
  -3.318210e+01  -1.160088e+02
   8.511902e+01  -1.516746e+02
   1.596647e+02  -5.936821e+01
   1.259356e+02   9.734070e+01
   1.525383e+01   1.898815e+02
  -7.300479e+01   1.349368e+02
  -9.388450e+01  -2.183532e+00
  -6.347900e+01  -1.040755e+02
  -5.240731e+00  -9.639318e+01
   3.885532e+01  -2.286401e+01
   4.994343e+01   2.534794e+01
   2.401032e+01   5.073579e+00
   3.492369e+00  -1.973499e+01
   2.132882e+01   1.550498e+01
   5.785188e+01   8.285360e+01
   4.185088e+01   9.960774e+01
  -4.354555e+01   4.375406e+01
  -1.346175e+02  -3.179238e+01
  -1.235893e+02  -6.341450e+01
  -1.884474e+01  -4.699084e+01
   8.181192e+01  -2.676128e+01
   8.023061e+01  -9.598123e+00
   9.012397e+00   5.198290e+00
  -3.442416e+01   2.025428e+01
  -9.379441e+00   1.776249e+01
   2.232408e+01  -9.014278e-02
  -5.106816e+00  -5.095406e+00
  -7.080846e+01  -1.434359e+00
  -8.645607e+01  -2.196752e+01
  -1.082226e+01  -7.345022e+01
   1.024326e+02  -1.030561e+02
   1.593476e+02  -5.391304e+01
   1.228161e+02   5.274680e+01
   2.490171e+01   1.393757e+02
  -6.501726e+01   1.321533e+02
  -9.766593e+01   5.453302e+01
  -7.011018e+01  -1.799194e+01
  -2.299552e+01  -3.204223e+01
   1.417627e+00  -6.625367e+00
  -8.897310e+00  -8.186068e-01
  -2.846025e+01  -4.224042e+01
  -2.417911e+01  -8.386481e+01
   2.387759e+01  -6.732009e+01
   7.422980e+01   1.610398e+01
   7.084398e+01   9.675557e+01
   4.265790e+00   1.015594e+02
  -7.587471e+01   2.264790e+01
  -9.520870e+01  -6.808758e+01
  -3.277901e+01  -9.516846e+01
   6.044281e+01  -5.327336e+01
   9.076910e+01   5.387082e+00
   3.826992e+01   4.134123e+01
  -2.702357e+01   4.589137e+01
  -2.765907e+01   2.588395e+01
   3.144896e+01   1.508663e+00
   6.262020e+01  -6.934276e+00
   1.557591e+01   2.262449e+01
  -6.856087e+01   6.095049e+01
  -1.039620e+02   5.968059e+01
  -6.005416e+01  -6.189488e+00
   1.021492e+01  -7.513919e+01
   4.533677e+01  -7.465930e+01
   3.498439e+01  -8.513736e+00
   4.243461e+00   5.209303e+01
  -2.223606e+01   4.099383e+01
  -3.406778e+01  -1.571573e+01
  -2.819031e+01  -4.866725e+01
  -3.622134e-01  -2.828579e+01
   2.935014e+01   7.651306e+00
   3.711330e+01   1.649964e+01
   2.053615e+01  -1.459618e+00
   7.084825e-02  -1.220421e+01
  -7.606434e+00   5.903413e+00
  -9.386193e+00   3.551840e+01
  -1.653027e+01   3.806279e+01
  -2.925627e+01   2.735803e+00
  -2.741447e+01  -4.290410e+01
   2.372709e+00  -5.509446e+01
   4.130341e+01  -1.855612e+01
   5.343258e+01   3.343221e+01
   1.570200e+01   5.662674e+01
  -4.973583e+01   3.227789e+01
  -8.082388e+01  -9.631861e+00
  -4.575877e+01  -3.647108e+01
   2.636320e+01  -3.689607e+01
   5.740110e+01  -1.984287e+01
   1.945124e+01  -3.918656e+00
  -3.712029e+01  -1.644414e+00
  -3.499993e+01  -1.553046e+01
   2.937441e+01  -3.214207e+01
   8.478405e+01  -2.269699e+01
