
 $NMID
 id='ANONYMOUS ', fmtdat='(2E16.6)'
 volume=1.0
 tramp=1.0
 $END
   3.124640e+03   2.259475e+02
   1.848605e+03   1.873584e+03
  -4.553042e+02   1.883315e+03
  -1.526774e+03   7.347782e+02
  -6.884824e+02  -3.315085e+02
   4.608442e+02  -2.956396e+02
   5.966505e+02   3.544875e+02
  -8.752792e+01   7.953413e+02
  -6.996857e+02   5.832663e+02
  -7.169702e+02  -8.828092e+01
  -3.185811e+02  -6.423234e+02
   1.903032e+02  -6.945070e+02
   4.636919e+02  -8.429276e+01
   2.564270e+02   5.473236e+02
  -2.684316e+02   6.326240e+02
  -4.597441e+02  -4.672391e+00
  -2.118565e+02  -5.448390e+02
   2.493582e+02  -5.276923e+02
   4.719187e+02  -1.004271e+02
   3.233614e+02   2.713942e+02
   1.958249e+01   3.766067e+02
  -2.020699e+02   2.169919e+02
  -1.669098e+02   1.974839e+01
   1.211366e+02  -5.076888e+01
   3.191776e+02   1.478541e+02
   1.094571e+02   3.619114e+02
  -4.075441e+02   2.719497e+02
  -6.748646e+02  -1.352962e+02
  -2.944390e+02  -4.606188e+02
   3.395017e+02  -3.178646e+02
   5.840508e+02   9.925265e+01
   2.422247e+02   4.051329e+02
  -2.664491e+02   4.002242e+02
  -4.792161e+02   1.599095e+02
  -3.518831e+02  -1.884274e+02
  -7.579847e+01  -3.834929e+02
   1.196672e+02  -2.515325e+02
   9.710529e+01   1.360368e+02
  -1.537934e+02   3.023545e+02
  -3.270166e+02  -5.883991e+01
  -1.343002e+02  -5.607389e+02
   2.947193e+02  -5.605826e+02
   4.704523e+02   3.759892e+00
   1.757367e+02   4.324496e+02
  -2.327349e+02   2.257450e+02
  -2.615650e+02  -2.822370e+02
   1.086443e+02  -4.337893e+02
   4.800080e+02  -6.653322e+01
   4.797030e+02   3.801777e+02
   1.122543e+02   4.928701e+02
  -3.250087e+02   2.604096e+02
  -4.968583e+02  -8.888061e+01
  -3.067892e+02  -3.197353e+02
   1.196616e+02  -2.866620e+02
   3.659869e+02  -2.362208e+01
   2.136050e+02   1.524167e+02
  -6.584100e+01   7.335699e+01
  -9.561595e+01  -1.020789e+02
   1.270403e+02  -1.183110e+02
   2.636607e+02   7.232738e+01
   9.162856e+01   2.416163e+02
  -1.764722e+02   2.190257e+02
  -2.832695e+02   7.409620e+01
  -1.853639e+02  -8.238434e+01
   2.549763e+01  -2.212994e+02
   2.174044e+02  -2.931232e+02
   3.118966e+02  -1.691658e+02
   2.420393e+02   1.237458e+02
   5.422218e+01   3.497492e+02
  -7.978636e+01   3.070594e+02
  -6.877295e+01   1.229385e+02
  -2.035128e+01   4.236949e+01
  -7.503561e+01   9.258279e+01
  -2.061171e+02   8.390569e+01
  -2.370555e+02  -7.957024e+01
  -1.102554e+02  -2.453764e+02
   7.976457e+01  -2.042262e+02
   1.870961e+02   1.018960e+01
   1.448583e+02   2.205220e+02
  -2.565280e+01   2.477237e+02
  -2.282565e+02   7.717714e+01
  -2.952412e+02  -1.577214e+02
  -1.480292e+02  -2.891310e+02
   7.703473e+01  -2.546247e+02
   1.837969e+02  -1.090092e+02
   1.254734e+02  -1.755336e+01
   9.737349e+01  -3.151607e+01
   2.019128e+02  -4.478853e+01
   3.419852e+02   5.980686e+01
   2.793763e+02   2.467176e+02
  -8.710887e+00   3.698414e+02
  -3.369248e+02   3.457976e+02
  -4.435848e+02   1.625199e+02
  -2.797739e+02  -9.079636e+01
  -2.729272e+01  -2.489886e+02
   1.099289e+02  -2.001787e+02
   4.975986e+01  -2.699077e+01
  -1.014349e+02   7.469638e+01
  -1.528422e+02  -1.540746e+01
  -2.348527e+01  -1.514306e+02
   1.495744e+02  -1.377102e+02
   1.336803e+02   5.406113e+01
  -2.700061e+01   1.432233e+02
  -1.612873e+02   1.190572e+01
  -1.281629e+02  -2.166438e+02
   3.434852e+01  -3.039236e+02
   2.010280e+02  -1.669347e+02
   2.898473e+02   5.617347e+01
   2.397290e+02   2.139917e+02
   7.293690e+01   2.390169e+02
  -1.062966e+02   1.370410e+02
  -1.571001e+02   1.295566e+01
  -4.725287e+01  -2.517656e+01
   5.959973e+01   4.080570e+01
   1.739416e+01   1.078042e+02
  -1.122060e+02   7.719470e+01
  -1.516718e+02  -1.876095e+01
  -4.260118e+01  -5.987385e+01
   7.152623e+01  -7.541029e+00
   4.535669e+01   6.913016e+01
  -1.140540e+02   7.515448e+01
  -2.571324e+02  -1.207552e+01
  -2.327508e+02  -1.396835e+02
  -3.540144e+01  -2.337614e+02
   1.806678e+02  -2.202646e+02
   2.531986e+02  -8.868965e+01
   1.387081e+02   5.853206e+01
  -2.534103e+01   9.217513e+01
  -7.584354e+01   1.571455e+00
   3.488505e+01  -8.216381e+01
   1.703327e+02  -3.309503e+01
   1.736726e+02   1.023046e+02
   4.305896e+01   1.827193e+02
  -9.420962e+01   1.302778e+02
  -1.287045e+02   1.626264e+01
  -5.560646e+01  -4.060810e+01
   3.056863e+01   1.652935e+00
   2.971595e+01   7.651220e+01
  -7.210171e+01   9.514806e+01
  -1.804623e+02   1.306953e+01
  -1.608037e+02  -1.186615e+02
  -9.761161e+00  -1.917409e+02
   1.481075e+02  -1.357744e+02
   1.664499e+02  -3.782496e+00
   5.242401e+01   9.341338e+01
  -5.661381e+01   8.499091e+01
  -6.726808e+01   2.003237e+01
  -1.009631e+01  -2.281663e+01
   2.490205e+01  -9.772553e+00
  -6.463352e+00   1.510634e+01
  -6.587933e+01  -3.636563e+00
  -8.000292e+01  -7.486626e+01
  -8.637504e+00  -1.444267e+02
   1.160207e+02  -1.297916e+02
   1.980307e+02  -1.157760e+01
   1.659869e+02   1.354728e+02
   3.130022e+01   1.957423e+02
  -9.137582e+01   1.396881e+02
  -1.121431e+02   2.306962e+01
  -6.173047e+01  -4.549244e+01
  -2.936863e+01  -3.083216e+01
  -5.346421e+01   7.995916e+00
  -7.196371e+01   8.854842e-01
  -3.988715e+01  -4.734795e+01
   3.417836e+01  -7.688603e+01
   9.593077e+01  -4.804455e+01
   7.833053e+01   3.223558e+01
  -1.399181e+01   9.641099e+01
  -1.216896e+02   7.060966e+01
  -1.621860e+02  -5.009551e+01
  -7.921066e+01  -1.732856e+02
   9.318044e+01  -1.830405e+02
   2.467542e+02  -7.226080e+01
   2.184663e+02   7.649286e+01
   9.407743e+01   1.514513e+02
  -3.237711e+01   1.250240e+02
  -8.339225e+01   7.690814e+01
  -7.932917e+01   6.440464e+01
  -6.544172e+01   7.818370e+01
  -7.883484e+01   5.755718e+01
  -1.067615e+02  -2.443716e+01
  -9.160797e+01  -1.302715e+02
  -1.565041e+01  -1.867026e+02
   8.628014e+01  -1.415386e+02
   1.470042e+02  -1.175879e+01
   1.142886e+02   1.090753e+02
   1.295222e+01   1.392650e+02
  -6.124333e+01   7.682522e+01
  -5.377891e+01  -2.147018e+00
  -1.769162e+00  -3.780389e+01
   1.302591e+01  -3.083414e+01
  -3.114378e+01  -1.838028e+01
  -6.789572e+01  -2.140623e+01
  -3.576434e+01  -3.243444e+01
   5.818324e+01  -2.935385e+01
   1.351117e+02   2.720183e+00
   1.180027e+02   5.042955e+01
   6.036215e+00   7.714330e+01
  -1.105186e+02   6.042786e+01
  -1.271835e+02   7.664398e+00
  -3.869269e+01  -3.981439e+01
   5.377366e+01  -3.458014e+01
   7.729369e+01   2.177815e+01
   9.302137e+00   6.047777e+01
  -4.411063e+01   5.087469e+01
  -5.375149e+01  -1.300108e+00
  -4.017248e+01  -4.397021e+01
  -3.751164e+01  -3.676753e+01
  -5.195944e+01  -3.043108e+00
  -5.425177e+01  -1.018749e+00
  -2.878718e+01  -5.726205e+01
   2.691512e+01  -1.238820e+02
   1.001602e+02  -1.197639e+02
   1.442957e+02  -3.062676e+01
   1.084882e+02   7.894187e+01
   4.937103e+00   1.092228e+02
  -7.730160e+01   5.493349e+01
  -5.252836e+01  -1.160159e+01
   4.958694e+01  -1.575102e+01
   1.120253e+02   4.021978e+01
   5.646963e+01   9.422606e+01
  -7.709232e+01   9.220458e+01
  -1.667938e+02   3.435288e+01
  -1.406608e+02  -3.823466e+01
  -2.914879e+01  -7.887262e+01
   5.828284e+01  -5.887169e+01
   4.570040e+01  -2.770369e+00
  -3.130129e+01   2.333050e+01
  -7.429529e+01  -1.875432e+01
  -2.499279e+01  -9.982895e+01
   7.880714e+01  -1.311187e+02
   1.384634e+02  -4.640551e+01
   1.053849e+02   9.141531e+01
   4.039101e+00   1.710891e+02
  -7.938062e+01   1.206091e+02
  -9.005546e+01  -1.115326e+01
  -4.889528e+01  -1.053504e+02
   8.754257e+00  -9.096369e+01
   4.147405e+01  -1.749799e+01
   4.324756e+01   2.706031e+01
   2.059074e+01   7.147960e+00
   5.004870e+00  -1.483294e+01
   1.703614e+01   1.759001e+01
   4.269386e+01   7.774592e+01
   2.581543e+01   9.153068e+01
  -4.584974e+01   3.242270e+01
  -1.154335e+02  -4.389402e+01
  -1.014880e+02  -6.690040e+01
  -8.892382e+00  -3.886632e+01
   7.295945e+01  -1.354758e+01
   7.211043e+01  -1.358304e+00
   1.126523e+01   6.972923e+00
  -3.211482e+01   1.634744e+01
  -1.301951e+01   1.537338e+01
   1.629348e+01  -1.387417e-01
  -4.564143e+00  -4.129957e+00
  -6.254305e+01  -6.693003e+00
  -7.827215e+01  -2.621228e+01
  -7.719313e+00  -7.098074e+01
   1.023231e+02  -9.242109e+01
   1.572675e+02  -4.012256e+01
   1.178011e+02   6.183733e+01
   1.432788e+01   1.339302e+02
  -7.351576e+01   1.202722e+02
  -9.650969e+01   4.333439e+01
  -6.431704e+01  -2.030503e+01
  -2.091593e+01  -3.064586e+01
   2.239814e-02  -8.226806e+00
  -9.283226e+00  -2.241089e+00
  -2.636735e+01  -4.127201e+01
  -1.556412e+01  -7.529576e+01
   2.468591e+01  -6.100428e+01
   6.509792e+01   1.472975e+01
   5.998320e+01   8.803431e+01
   2.466187e+00   9.501034e+01
  -6.939896e+01   1.991144e+01
  -8.470667e+01  -6.325265e+01
  -2.692980e+01  -8.943170e+01
   5.795020e+01  -4.899976e+01
   8.467214e+01   1.062666e+01
   3.516519e+01   4.584169e+01
  -2.747358e+01   4.488892e+01
  -2.935677e+01   2.075444e+01
   2.399625e+01  -1.406515e+00
   5.598862e+01  -3.720184e+00
   1.484004e+01   2.175230e+01
  -6.193849e+01   5.131369e+01
  -9.502213e+01   4.403996e+01
  -5.596747e+01  -1.049478e+01
   1.553081e+01  -6.733101e+01
   4.964281e+01  -6.567091e+01
   3.598598e+01  -7.596856e+00
   2.530603e+00   4.570243e+01
  -2.110974e+01   3.818160e+01
  -2.910883e+01  -1.175263e+01
  -2.356441e+01  -4.541137e+01
   1.653544e-01  -3.200346e+01
   2.675999e+01   5.664703e+00
   3.696387e+01   2.069468e+01
   2.169590e+01   5.156923e+00
   5.898720e-01  -1.166302e+01
  -7.867854e+00   3.031574e-01
  -6.314474e+00   2.943636e+01
  -1.005222e+01   4.038336e+01
  -2.380193e+01   1.104128e+01
  -2.657571e+01  -3.498205e+01
  -2.083581e+00  -5.091906e+01
   3.541914e+01  -1.770574e+01
   4.634378e+01   3.099846e+01
   1.242729e+01   5.061187e+01
  -4.789270e+01   2.591685e+01
  -7.529839e+01  -1.460091e+01
  -3.890342e+01  -3.622591e+01
   2.652019e+01  -3.428608e+01
   5.532886e+01  -2.008856e+01
   2.236967e+01  -7.143698e+00
  -2.797745e+01  -1.485300e+00
  -2.979114e+01  -1.013547e+01
   2.376383e+01  -2.194611e+01
   7.269491e+01  -1.516790e+01
