
 $NMID
 id='ANONYMOUS ', fmtdat='(2E16.6)'
 volume=1.0
 tramp=1.0
 $END
  -3.070341e+03   2.111920e+01
  -2.067117e+03  -1.311361e+03
  -2.009983e+02  -1.935002e+03
   1.073585e+03  -1.344269e+03
   9.273404e+02  -2.369379e+02
   9.625963e+01   2.219084e+02
  -3.399450e+02  -6.130770e+00
  -1.082426e+02  -4.760483e+02
   3.727609e+02  -5.607790e+02
   6.013710e+02  -1.180987e+02
   4.166289e+02   4.721022e+02
   3.405715e+01   6.150323e+02
  -3.002945e+02   2.312891e+02
  -2.756749e+02  -3.623547e+02
   8.571406e+01  -5.752636e+02
   3.763662e+02  -1.254845e+02
   3.250818e+02   4.143229e+02
  -5.891653e+01   5.977733e+02
  -4.094289e+02   2.903526e+02
  -4.026776e+02  -1.349128e+02
  -1.183616e+02  -3.271489e+02
   1.140239e+02  -2.182379e+02
   7.822751e+01  -3.779687e+01
  -1.783917e+02  -3.554213e+01
  -2.839604e+02  -2.172026e+02
  -4.212948e+01  -3.283401e+02
   4.054038e+02  -1.890791e+02
   5.583329e+02   1.015047e+02
   2.248647e+02   3.054650e+02
  -2.827110e+02   2.194263e+02
  -4.714630e+02  -7.362758e+01
  -2.115416e+02  -3.184855e+02
   2.075983e+02  -3.451966e+02
   4.087486e+02  -1.650093e+02
   3.092501e+02   1.289395e+02
   9.096332e+01   2.876909e+02
  -4.149437e+01   1.778310e+02
  -8.895805e+00  -9.615197e+01
   1.477763e+02  -1.885277e+02
   2.248232e+02   8.915393e+01
   1.042957e+02   4.677983e+02
  -1.799569e+02   4.393417e+02
  -3.205584e+02   5.289498e+01
  -1.608711e+02  -2.751077e+02
   1.182432e+02  -1.589221e+02
   1.846228e+02   2.006069e+02
  -5.754373e+01   3.694899e+02
  -3.858771e+02   1.155898e+02
  -4.722888e+02  -2.728936e+02
  -2.088773e+02  -4.375273e+02
   2.422457e+02  -2.918134e+02
   4.771298e+02  -5.549451e+00
   3.301481e+02   1.971830e+02
  -1.625814e+01   2.296601e+02
  -2.378628e+02   9.844532e+01
  -1.841042e+02  -7.608535e+00
   3.968444e+00  -2.009345e+01
   7.329169e+01   5.005499e+01
  -6.787563e+01   8.655805e+01
  -2.267966e+02  -1.190990e+01
  -1.508676e+02  -1.643433e+02
   1.150678e+02  -2.459632e+02
   3.054024e+02  -1.534367e+02
   2.537776e+02   7.376221e+01
   1.113333e+01   3.060695e+02
  -2.300187e+02   3.436022e+02
  -2.981183e+02   1.677025e+02
  -2.181118e+02  -1.215976e+02
  -8.394220e+01  -3.053128e+02
  -2.317110e+01  -2.842297e+02
   2.057533e+00  -1.667614e+02
   3.192790e+01  -1.033750e+02
   1.149720e+02  -1.143752e+02
   2.130356e+02  -7.459978e+01
   2.234353e+02   8.305689e+01
   1.075126e+02   2.205188e+02
  -6.813730e+01   1.817639e+02
  -1.775607e+02  -1.830282e+01
  -1.398405e+02  -2.037315e+02
   2.030963e+01  -2.300367e+02
   2.154890e+02  -8.308066e+01
   3.007527e+02   1.237388e+02
   1.916344e+02   2.538680e+02
  -2.382415e+01   2.505620e+02
  -1.461861e+02   1.572976e+02
  -1.328988e+02   8.103355e+01
  -1.224018e+02   6.367573e+01
  -2.263136e+02   5.290477e+01
  -3.463266e+02  -5.155881e+01
  -2.879254e+02  -2.355094e+02
  -1.251976e+01  -3.771206e+02
   3.084516e+02  -3.639683e+02
   4.206055e+02  -1.818093e+02
   2.681938e+02   7.576060e+01
   4.203316e+01   2.259066e+02
  -6.647465e+01   1.934318e+02
  -1.571664e+01   3.118378e+01
   9.508602e+01  -5.169677e+01
   1.228040e+02   1.706436e+01
   3.306571e+01   1.276950e+02
  -1.072117e+02   1.139174e+02
  -1.091096e+02  -3.666415e+01
   1.463968e+01  -1.255385e+02
   1.474692e+02  -2.152642e+01
   1.612462e+02   1.967725e+02
   1.420147e+01   3.110677e+02
  -2.022965e+02   2.114819e+02
  -3.278899e+02  -2.019628e+01
  -2.761080e+02  -2.071073e+02
  -7.370115e+01  -2.405393e+02
   1.087390e+02  -1.383307e+02
   1.339256e+02  -1.398318e+01
   2.846250e+01   1.762382e+01
  -5.799550e+01  -4.833806e+01
  -7.228920e+00  -1.048315e+02
   1.049978e+02  -7.542567e+01
   1.339554e+02   1.080913e+01
   3.577660e+01   4.785680e+01
  -7.446831e+01  -1.924631e+00
  -4.387874e+01  -7.683246e+01
   1.183247e+02  -9.284358e+01
   2.660747e+02  -1.104820e+01
   2.452317e+02   1.297434e+02
   4.816240e+01   2.399167e+02
  -1.688110e+02   2.286025e+02
  -2.398451e+02   9.479781e+01
  -1.270085e+02  -4.566139e+01
   2.324226e+01  -7.849422e+01
   6.268601e+01   9.083695e-01
  -3.808002e+01   8.174539e+01
  -1.550796e+02   5.083587e+01
  -1.755765e+02  -7.237294e+01
  -6.675704e+01  -1.647434e+02
   6.187098e+01  -1.323290e+02
   1.046474e+02  -2.779329e+01
   4.322214e+01   2.961953e+01
  -3.770850e+01  -1.299584e+01
  -3.374077e+01  -9.902396e+01
   7.834499e+01  -1.212057e+02
   1.902654e+02  -3.423071e+01
   1.785270e+02   1.082411e+02
   2.929522e+01   1.907218e+02
  -1.272456e+02   1.470595e+02
  -1.608994e+02   2.331627e+01
  -6.163801e+01  -8.256241e+01
   4.602825e+01  -9.136588e+01
   6.454742e+01  -2.619439e+01
   9.067751e+00   2.836408e+01
  -3.076816e+01   1.295655e+01
   2.467408e+00  -2.492448e+01
   7.607083e+01  -1.062950e+01
   9.924136e+01   7.403683e+01
   2.253858e+01   1.591819e+02
  -1.180028e+02   1.542926e+02
  -2.150675e+02   2.954360e+01
  -1.903608e+02  -1.326720e+02
  -5.902122e+01  -2.098200e+02
   7.979271e+01  -1.560829e+02
   1.212922e+02  -4.120017e+01
   7.296238e+01   3.645530e+01
   2.770187e+01   2.651047e+01
   4.694308e+01  -1.744614e+01
   7.853871e+01  -1.471614e+01
   5.823854e+01   4.894771e+01
  -3.023023e+01   1.007951e+02
  -1.066494e+02   6.999450e+01
  -1.059922e+02  -3.514206e+01
   2.264221e+00  -1.220817e+02
   1.390702e+02  -1.004333e+02
   1.920269e+02   3.515462e+01
   9.780890e+01   1.823050e+02
  -8.241286e+01   2.146634e+02
  -2.449757e+02   1.019304e+02
  -2.264964e+02  -6.301645e+01
  -1.031264e+02  -1.461596e+02
   2.578436e+01  -1.278549e+02
   7.255064e+01  -7.979686e+01
   5.683276e+01  -6.673244e+01
   4.370691e+01  -9.078446e+01
   7.548597e+01  -8.382918e+01
   1.255549e+02  -7.778954e-01
   1.340364e+02   1.294922e+02
   5.064810e+01   2.122469e+02
  -7.830153e+01   1.678745e+02
  -1.619878e+02   3.010945e+01
  -1.288561e+02  -1.079223e+02
  -2.012215e+01  -1.427259e+02
   6.550775e+01  -7.879662e+01
   6.039557e+01   1.363010e+01
   1.136187e-01   4.866734e+01
  -2.440344e+01   3.156320e+01
   2.470216e+01   3.856067e+00
   7.590447e+01   7.094533e+00
   4.927353e+01   3.443080e+01
  -5.930374e+01   4.851213e+01
  -1.542790e+02   1.490533e+01
  -1.334297e+02  -4.863521e+01
  -7.233472e+00  -9.202572e+01
   1.178863e+02  -7.662256e+01
   1.317078e+02  -1.146600e+01
   4.182025e+01   4.625809e+01
  -5.194006e+01   4.816370e+01
  -7.635301e+01  -1.587358e+01
  -2.317102e+01  -6.833786e+01
   3.691489e+01  -6.550034e+01
   6.449047e+01  -7.081388e+00
   6.060642e+01   4.434302e+01
   4.652178e+01   3.990312e+01
   4.567618e+01   1.605644e+00
   5.256589e+01  -2.754098e+00
   4.135478e+01   5.833574e+01
  -1.428593e+01   1.389052e+02
  -1.028497e+02   1.395981e+02
  -1.635616e+02   4.572122e+01
  -1.287674e+02  -7.689129e+01
  -1.556574e+01  -1.222238e+02
   7.886389e+01  -7.074837e+01
   6.107781e+01   4.712696e+00
  -4.451388e+01   2.732199e+01
  -1.192379e+02  -1.871921e+01
  -7.626457e+01  -8.660253e+01
   5.675156e+01  -1.084579e+02
   1.603489e+02  -5.982155e+01
   1.465270e+02   2.632393e+01
   3.736926e+01   7.829652e+01
  -5.334497e+01   5.948911e+01
  -4.680403e+01  -3.020411e+00
   3.395539e+01  -3.314791e+01
   8.726940e+01   1.011896e+01
   4.699098e+01   1.054040e+02
  -6.149601e+01   1.512613e+02
  -1.425797e+02   7.750311e+01
  -1.257410e+02  -7.321055e+01
  -3.119401e+01  -1.732624e+02
   6.230737e+01  -1.312557e+02
   9.411427e+01   4.808668e+00
   5.688230e+01   1.066285e+02
  -7.109533e+00   9.249084e+01
  -4.868771e+01   1.224969e+01
  -4.334708e+01  -3.136328e+01
  -1.266816e+01  -7.567789e+00
  -1.326826e+00   1.781699e+01
  -2.811682e+01  -1.322283e+01
  -6.015203e+01  -7.274307e+01
  -3.943289e+01  -9.224537e+01
   4.554369e+01  -4.716309e+01
   1.280430e+02   1.730093e+01
   1.203941e+02   5.205442e+01
   2.625340e+01   5.121592e+01
  -6.772409e+01   3.793931e+01
  -7.871539e+01   1.633887e+01
  -2.015404e+01  -9.139355e+00
   2.711014e+01  -2.191090e+01
   1.912020e+01  -1.390489e+01
  -1.092418e+01   4.278432e+00
   1.251954e+00   2.164502e+00
   5.625710e+01  -6.097350e+00
   8.381715e+01   1.427201e+01
   2.696106e+01   7.551677e+01
  -8.677823e+01   1.133785e+02
  -1.626436e+02   7.453045e+01
  -1.407271e+02  -3.712055e+01
  -4.462899e+01  -1.360886e+02
   5.576730e+01  -1.437509e+02
   9.618004e+01  -6.899956e+01
   7.324244e+01   9.910791e+00
   3.064927e+01   3.410505e+01
   4.855891e+00   1.232287e+01
   1.211099e+01   5.763159e+00
   2.704415e+01   4.111916e+01
   2.302442e+01   8.042676e+01
  -1.962243e+01   6.928558e+01
  -7.282957e+01  -5.965292e+00
  -8.269048e+01  -8.205575e+01
  -2.192776e+01  -9.836572e+01
   6.635797e+01  -3.826528e+01
   1.054771e+02   4.635996e+01
   4.850401e+01   9.260419e+01
  -5.231800e+01   6.905224e+01
  -9.735439e+01   5.336161e+00
  -4.915465e+01  -4.893263e+01
   2.555537e+01  -5.986530e+01
   3.426605e+01  -2.839069e+01
  -2.206081e+01   7.398559e+00
  -6.032837e+01   9.804882e+00
  -2.235062e+01  -2.437278e+01
   6.058814e+01  -6.286559e+01
   1.023616e+02  -5.477936e+01
   6.948068e+01   1.104159e+01
  -9.715773e-01   7.661493e+01
  -4.603896e+01   7.822378e+01
  -4.324478e+01   1.607954e+01
  -1.399795e+01  -4.728926e+01
   1.924755e+01  -4.602881e+01
   3.669793e+01   6.651079e+00
   3.065404e+01   4.808819e+01
  -2.327988e+00   3.835503e+01
  -3.312179e+01  -2.178332e+00
  -4.010425e+01  -2.166415e+01
  -1.767215e+01  -3.876134e+00
   4.931790e+00   1.900472e+01
   4.537689e+00   1.029771e+01
  -9.354910e+00  -2.775754e+01
  -5.076289e+00  -5.043282e+01
   2.221445e+01  -2.646289e+01
   4.332697e+01   2.589572e+01
   2.050018e+01   5.551304e+01
  -3.413259e+01   3.158327e+01
  -6.253379e+01  -1.876391e+01
  -2.712025e+01  -5.271193e+01
   4.653019e+01  -4.291405e+01
   8.523909e+01  -5.080616e+00
   5.095263e+01   3.271279e+01
  -2.081714e+01   4.664124e+01
  -5.505914e+01   3.311627e+01
  -2.811042e+01   7.720016e+00
   2.063525e+01  -9.188203e+00
   2.830882e+01   6.194729e-01
  -1.717362e+01   2.543944e+01
  -6.690010e+01   2.497987e+01
