
 $NMID
 id='ANONYMOUS ', fmtdat='(2E16.6)'
 volume=1.0
 tramp=1.0
 $END
  -2.768487e+03   3.874676e+02
  -1.882064e+03  -1.181937e+03
  -7.539522e+01  -1.759641e+03
   1.117386e+03  -1.028472e+03
   8.906151e+02  -2.525306e+01
  -3.195828e+00   3.203828e+02
  -4.416107e+02   1.072492e+01
  -1.743525e+02  -4.735783e+02
   3.032136e+02  -5.670089e+02
   5.792276e+02  -1.301266e+02
   4.570298e+02   4.430027e+02
   5.094696e+01   5.856697e+02
  -2.970728e+02   2.261575e+02
  -2.943559e+02  -3.257681e+02
   7.187196e+01  -5.585426e+02
   3.588475e+02  -1.087319e+02
   2.994753e+02   4.031419e+02
  -8.025409e+01   5.362984e+02
  -3.918946e+02   2.374711e+02
  -3.919892e+02  -1.529520e+02
  -1.185979e+02  -3.208457e+02
   9.427426e+01  -2.149652e+02
   8.107705e+01  -7.820712e+01
  -1.262112e+02  -6.455742e+01
  -2.379872e+02  -1.812477e+02
  -4.495083e+01  -2.669738e+02
   3.515184e+02  -1.721813e+02
   5.200977e+02   1.014160e+02
   2.304350e+02   2.812660e+02
  -2.428896e+02   2.293591e+02
  -4.423612e+02  -3.621756e+01
  -2.160147e+02  -2.826525e+02
   1.692229e+02  -3.227199e+02
   3.645574e+02  -1.505347e+02
   2.890537e+02   1.076435e+02
   9.004964e+01   2.660109e+02
  -2.410839e+01   1.789278e+02
  -7.704968e+00  -7.246052e+01
   1.099914e+02  -1.821461e+02
   1.940093e+02   6.844283e+01
   1.051203e+02   4.238855e+02
  -1.504440e+02   4.229983e+02
  -3.163904e+02   6.768465e+01
  -1.715039e+02  -2.617398e+02
   1.121484e+02  -1.768752e+02
   1.905223e+02   1.702983e+02
  -4.262365e+01   3.345212e+02
  -3.599064e+02   1.120296e+02
  -4.361733e+02  -2.528234e+02
  -1.934602e+02  -4.168045e+02
   2.289117e+02  -2.773695e+02
   4.668333e+02  -1.021284e+01
   3.281757e+02   1.943751e+02
  -1.013843e+01   2.250452e+02
  -2.480923e+02   1.025705e+02
  -1.924665e+02  -3.004990e+01
   6.082085e+00  -4.369197e+01
   7.951033e+01   4.738156e+01
  -6.250935e+01   8.739731e+01
  -2.114059e+02  -5.056932e+00
  -1.410564e+02  -1.509913e+02
   1.097788e+02  -2.178215e+02
   2.838465e+02  -1.276971e+02
   2.176809e+02   6.979985e+01
  -1.656816e+01   2.608960e+02
  -2.100332e+02   3.074368e+02
  -2.833731e+02   1.625231e+02
  -2.177240e+02  -1.005917e+02
  -9.484549e+01  -2.994187e+02
  -2.572740e+00  -3.135180e+02
   3.219435e+01  -1.586263e+02
   5.389804e+01  -7.286808e+01
   1.040636e+02  -8.303276e+01
   1.846683e+02  -6.134643e+01
   1.969104e+02   6.965285e+01
   1.040441e+02   1.921753e+02
  -4.708554e+01   1.643767e+02
  -1.586787e+02  -9.148099e+00
  -1.396160e+02  -1.799594e+02
   7.069960e+00  -2.106662e+02
   1.962796e+02  -8.154003e+01
   2.834353e+02   1.184449e+02
   1.783455e+02   2.466157e+02
  -2.573601e+01   2.441139e+02
  -1.444692e+02   1.483289e+02
  -1.335811e+02   6.775438e+01
  -1.188137e+02   4.763885e+01
  -2.086895e+02   3.548066e+01
  -3.027321e+02  -4.686937e+01
  -2.485895e+02  -2.028854e+02
  -1.314835e+01  -3.356766e+02
   2.604471e+02  -3.296096e+02
   3.645413e+02  -1.727959e+02
   2.402259e+02   6.048185e+01
   4.259698e+01   2.054779e+02
  -6.525324e+01   1.898611e+02
  -1.777271e+01   4.113974e+01
   7.783774e+01  -4.581489e+01
   1.026936e+02   1.235571e+01
   2.054176e+01   1.157813e+02
  -1.077844e+02   1.063391e+02
  -1.020337e+02  -3.572059e+01
   1.369631e+01  -1.243475e+02
   1.288907e+02  -1.941339e+01
   1.335482e+02   1.735941e+02
   1.520677e+00   2.805311e+02
  -1.834495e+02   1.864635e+02
  -2.957930e+02  -2.753009e+01
  -2.494009e+02  -1.937361e+02
  -7.537401e+01  -2.176949e+02
   8.777256e+01  -1.252697e+02
   1.188206e+02  -2.052675e+01
   3.032386e+01   6.542198e+00
  -4.372307e+01  -4.510697e+01
  -6.766907e+00  -9.508487e+01
   9.666770e+01  -7.050660e+01
   1.214962e+02   7.041635e+00
   3.571885e+01   4.606522e+01
  -6.276618e+01   8.025596e-01
  -4.009334e+01  -6.942985e+01
   1.077813e+02  -8.696257e+01
   2.418671e+02  -1.001198e+01
   2.187535e+02   1.200852e+02
   4.025792e+01   2.151431e+02
  -1.502708e+02   2.083891e+02
  -2.062007e+02   8.932110e+01
  -1.104025e+02  -3.529354e+01
   2.078656e+01  -6.741125e+01
   5.438647e+01   1.850099e+00
  -3.494228e+01   7.595521e+01
  -1.466820e+02   4.497147e+01
  -1.625412e+02  -6.855015e+01
  -6.147462e+01  -1.508045e+02
   5.970497e+01  -1.202543e+02
   1.018787e+02  -2.646454e+01
   4.355408e+01   2.548819e+01
  -3.116302e+01  -1.191152e+01
  -2.553796e+01  -8.556183e+01
   7.187795e+01  -1.003732e+02
   1.680036e+02  -1.885350e+01
   1.517289e+02   1.050197e+02
   1.977413e+01   1.730433e+02
  -1.181782e+02   1.302930e+02
  -1.464966e+02   1.714303e+01
  -5.763369e+01  -7.654914e+01
   3.987853e+01  -8.659356e+01
   5.830260e+01  -2.795411e+01
   9.706330e+00   2.480372e+01
  -2.851339e+01   1.046941e+01
   1.768087e+00  -2.203208e+01
   6.749376e+01  -8.357766e+00
   9.068586e+01   6.634439e+01
   2.150489e+01   1.409818e+02
  -1.060104e+02   1.364520e+02
  -1.937383e+02   2.664858e+01
  -1.667555e+02  -1.192285e+02
  -4.843696e+01  -1.930255e+02
   7.140791e+01  -1.413026e+02
   1.067576e+02  -3.449859e+01
   6.633381e+01   3.534550e+01
   2.859337e+01   2.482390e+01
   4.882609e+01  -1.547275e+01
   7.596111e+01  -1.143145e+01
   5.135559e+01   4.805201e+01
  -3.238428e+01   9.952793e+01
  -9.883801e+01   6.344148e+01
  -9.302823e+01  -3.420996e+01
   5.171445e+00  -1.116248e+02
   1.297545e+02  -8.577708e+01
   1.763539e+02   3.953937e+01
   8.332519e+01   1.690716e+02
  -8.692137e+01   1.939595e+02
  -2.335528e+02   8.848139e+01
  -2.040794e+02  -6.318904e+01
  -8.839207e+01  -1.328116e+02
   2.725124e+01  -1.100071e+02
   6.820331e+01  -6.704973e+01
   4.537945e+01  -5.978160e+01
   3.682869e+01  -8.579996e+01
   7.210804e+01  -7.839210e+01
   1.153112e+02   4.306236e+00
   1.151861e+02   1.247860e+02
   3.948976e+01   1.923584e+02
  -7.311423e+01   1.476390e+02
  -1.448676e+02   2.232105e+01
  -1.142001e+02  -9.762106e+01
  -2.153798e+01  -1.297574e+02
   5.566480e+01  -7.265700e+01
   5.073204e+01   8.089969e+00
  -3.548776e-01   4.208514e+01
  -1.983084e+01   2.624346e+01
   2.429548e+01   4.414726e+00
   7.052786e+01   9.073528e+00
   4.287786e+01   2.983151e+01
  -5.633164e+01   3.761562e+01
  -1.394776e+02   8.048230e+00
  -1.214373e+02  -4.233099e+01
  -8.664156e+00  -8.186595e+01
   1.036869e+02  -6.986139e+01
   1.205539e+02  -1.651091e+01
   4.115695e+01   3.894310e+01
  -4.865088e+01   4.199592e+01
  -7.397788e+01  -1.351977e+01
  -1.951358e+01  -6.067001e+01
   3.541056e+01  -5.773795e+01
   5.760730e+01  -5.007756e+00
   5.229779e+01   4.083874e+01
   3.933786e+01   3.248190e+01
   4.254419e+01  -3.265837e+00
   4.845330e+01  -6.118240e+00
   3.907194e+01   5.228830e+01
  -1.154334e+01   1.250733e+02
  -8.723481e+01   1.248993e+02
  -1.451774e+02   4.206400e+01
  -1.148454e+02  -6.923522e+01
  -1.177155e+01  -1.130537e+02
   7.282994e+01  -6.542367e+01
   5.208627e+01   4.576170e+00
  -4.809031e+01   2.184981e+01
  -1.098497e+02  -2.294586e+01
  -6.100913e+01  -7.937785e+01
   5.954458e+01  -9.261519e+01
   1.483124e+02  -4.870304e+01
   1.280799e+02   2.131419e+01
   2.920103e+01   6.712733e+01
  -4.888456e+01   5.435422e+01
  -3.829131e+01   1.855841e-01
   3.151642e+01  -2.971267e+01
   7.849503e+01   1.035931e+01
   4.105590e+01   9.469386e+01
  -5.486375e+01   1.315946e+02
  -1.240957e+02   6.573254e+01
  -1.077187e+02  -6.541844e+01
  -2.167707e+01  -1.505263e+02
   5.632750e+01  -1.099044e+02
   8.334215e+01   6.476171e+00
   5.149836e+01   8.991083e+01
  -5.880107e+00   7.709686e+01
  -4.072616e+01   1.269856e+01
  -3.725993e+01  -2.275771e+01
  -1.197655e+01  -2.596442e+00
  -2.338267e+00   1.602472e+01
  -2.455277e+01  -1.354579e+01
  -5.465642e+01  -6.986296e+01
  -3.544949e+01  -8.648311e+01
   4.222796e+01  -4.235090e+01
   1.199260e+02   1.915769e+01
   1.070762e+02   5.018380e+01
   1.792303e+01   4.623929e+01
  -6.448560e+01   3.139784e+01
  -6.970258e+01   1.327096e+01
  -1.379333e+01  -7.985034e+00
   2.472643e+01  -1.983882e+01
   1.311651e+01  -1.232452e+01
  -1.170296e+01   3.848242e+00
   3.588252e+00   1.419788e+00
   5.325396e+01  -4.962805e+00
   7.445367e+01   1.465348e+01
   2.317699e+01   7.147923e+01
  -7.751355e+01   1.061412e+02
  -1.479687e+02   6.845561e+01
  -1.293607e+02  -3.777610e+01
  -4.312735e+01  -1.255118e+02
   4.825427e+01  -1.294716e+02
   8.876408e+01  -6.215359e+01
   6.873655e+01   8.301106e+00
   2.644601e+01   3.129705e+01
   2.727879e+00   1.142746e+01
   1.135855e+01   5.293258e+00
   2.814976e+01   3.901158e+01
   1.892209e+01   7.468156e+01
  -2.110096e+01   6.335159e+01
  -6.998802e+01  -5.550644e+00
  -7.730909e+01  -7.887464e+01
  -1.870266e+01  -9.245154e+01
   6.133054e+01  -3.571559e+01
   9.560771e+01   4.538998e+01
   4.100591e+01   8.349582e+01
  -4.969098e+01   5.934865e+01
  -8.805599e+01   4.546630e-01
  -4.154904e+01  -4.616816e+01
   2.385278e+01  -5.451201e+01
   3.012071e+01  -2.532514e+01
  -2.218617e+01   6.299446e+00
  -5.192746e+01   6.929866e+00
  -1.751376e+01  -2.523472e+01
   5.678251e+01  -5.836527e+01
   9.446576e+01  -4.642152e+01
   6.134011e+01   9.219388e+00
  -2.573215e+00   7.067814e+01
  -4.156803e+01   7.010702e+01
  -3.886996e+01   1.225070e+01
  -1.140324e+01  -4.310813e+01
   1.784525e+01  -3.913614e+01
   3.309206e+01   7.083773e+00
   2.704259e+01   4.183787e+01
  -2.515613e+00   3.266528e+01
  -2.982153e+01  -2.397461e+00
  -3.607464e+01  -1.855362e+01
  -1.519086e+01  -2.930542e+00
   4.676830e+00   1.547557e+01
   4.617485e+00   5.426484e+00
  -5.007421e+00  -2.698983e+01
   5.219504e-01  -4.294024e+01
   2.268523e+01  -1.842216e+01
   3.760267e+01   2.820567e+01
   1.388173e+01   5.084424e+01
  -3.156792e+01   2.545193e+01
  -5.572895e+01  -2.275284e+01
  -2.238197e+01  -4.888387e+01
   4.388212e+01  -3.476132e+01
   7.896947e+01   1.632533e+00
   4.560803e+01   3.304908e+01
  -2.181515e+01   4.169216e+01
  -5.253225e+01   2.839512e+01
  -2.303356e+01   6.400313e+00
   2.482742e+01  -8.052709e+00
   2.981316e+01   9.571062e-01
  -1.646640e+01   2.336412e+01
  -6.241686e+01   2.418518e+01
