
 $NMID
 id='ANONYMOUS ', fmtdat='(2E16.6)'
 volume=1.0
 tramp=1.0
 $END
   3.290729e+03  -3.210140e+02
   1.967315e+03   1.686820e+03
  -3.878287e+02   2.010801e+03
  -1.576766e+03   7.470494e+02
  -8.416020e+02  -4.856624e+02
   3.951892e+02  -5.242280e+02
   6.618585e+02   2.223255e+02
   7.425534e+01   7.684873e+02
  -5.633178e+02   6.578852e+02
  -7.487800e+02  -1.243164e+01
  -4.240679e+02  -6.877804e+02
   1.477921e+02  -7.197089e+02
   5.022436e+02  -1.449303e+02
   3.363848e+02   5.413297e+02
  -2.300100e+02   6.729124e+02
  -4.999026e+02   2.274004e+01
  -2.724595e+02  -5.418465e+02
   2.386816e+02  -5.523551e+02
   4.914578e+02  -1.165751e+02
   3.642881e+02   2.761927e+02
   4.001693e+01   3.718798e+02
  -1.874320e+02   2.184904e+02
  -1.625773e+02   3.432016e+01
   8.719425e+01  -4.652850e+01
   3.148882e+02   1.056113e+02
   1.543461e+02   3.209286e+02
  -3.464438e+02   2.995532e+02
  -6.739958e+02  -6.335420e+01
  -3.522338e+02  -4.041144e+02
   2.836555e+02  -3.775573e+02
   5.787721e+02   1.203434e+01
   2.818600e+02   3.708986e+02
  -2.052043e+02   4.128880e+02
  -4.479684e+02   1.656744e+02
  -3.466931e+02  -1.764189e+02
  -6.739265e+01  -3.763035e+02
   1.339146e+02  -2.375063e+02
   1.166585e+02   1.412280e+02
  -1.265393e+02   3.232190e+02
  -3.355994e+02  -2.434074e+01
  -1.966539e+02  -5.470372e+02
   2.472867e+02  -5.646685e+02
   4.957803e+02  -3.290130e+01
   2.313494e+02   4.254101e+02
  -2.091365e+02   2.764058e+02
  -3.073982e+02  -2.249808e+02
   4.413748e+01  -4.373494e+02
   4.462051e+02  -1.267820e+02
   4.724513e+02   3.203605e+02
   1.511468e+02   4.964894e+02
  -3.034823e+02   2.978809e+02
  -5.202737e+02  -4.513606e+01
  -3.161068e+02  -3.017985e+02
   1.060964e+02  -2.899642e+02
   3.416208e+02  -5.190230e+01
   1.890029e+02   1.521477e+02
  -8.538189e+01   9.363286e+01
  -1.292819e+02  -1.098386e+02
   1.037666e+02  -1.541273e+02
   2.691985e+02   2.557487e+01
   1.338691e+02   2.124887e+02
  -1.459801e+02   2.177197e+02
  -2.672835e+02   8.247274e+01
  -1.669121e+02  -6.964691e+01
   2.343064e+01  -2.000864e+02
   1.795445e+02  -2.676947e+02
   2.793265e+02  -1.737731e+02
   2.471178e+02   1.031808e+02
   7.179421e+01   3.502529e+02
  -9.530702e+01   3.361728e+02
  -1.105017e+02   1.107759e+02
  -4.448068e+01   3.296215e+00
  -4.805573e+01   6.731779e+01
  -1.588899e+02   9.824392e+01
  -2.182986e+02  -4.340776e+01
  -1.326782e+02  -2.146028e+02
   4.751538e+01  -2.033144e+02
   1.803262e+02  -9.614590e+00
   1.589862e+02   1.861467e+02
  -3.636612e+00   2.313214e+02
  -2.068043e+02   9.483992e+01
  -2.933196e+02  -1.332417e+02
  -1.669282e+02  -2.860103e+02
   6.549147e+01  -2.653995e+02
   1.851499e+02  -1.196436e+02
   1.312052e+02  -1.738284e+01
   8.367857e+01  -2.556231e+01
   1.845668e+02  -4.268605e+01
   3.100298e+02   3.891547e+01
   2.650342e+02   2.148067e+02
   1.145795e+01   3.437258e+02
  -2.722831e+02   3.265851e+02
  -3.884417e+02   1.682115e+02
  -2.697809e+02  -7.089685e+01
  -5.197809e+01  -2.314033e+02
   9.709337e+01  -2.170343e+02
   6.528660e+01  -3.812632e+01
  -7.349916e+01   7.768659e+01
  -1.445870e+02  -6.624482e+00
  -3.747655e+01  -1.565957e+02
   1.401891e+02  -1.427241e+02
   1.405695e+02   5.024891e+01
  -1.540833e+01   1.650365e+02
  -1.553881e+02   2.648800e+01
  -1.311969e+02  -1.978101e+02
   2.648236e+01  -2.917108e+02
   1.973848e+02  -1.623512e+02
   2.769578e+02   5.480886e+01
   2.272609e+02   2.022578e+02
   6.822926e+01   2.151478e+02
  -9.808154e+01   1.302653e+02
  -1.407974e+02   1.769200e+01
  -4.063165e+01  -2.361425e+01
   5.539472e+01   3.096880e+01
   2.074435e+01   9.940946e+01
  -1.030033e+02   8.177983e+01
  -1.407465e+02  -9.723264e+00
  -4.692148e+01  -6.072022e+01
   6.776820e+01  -1.176638e+01
   4.554258e+01   6.471344e+01
  -9.939632e+01   8.026621e+01
  -2.228187e+02   2.568991e+00
  -2.049571e+02  -1.154682e+02
  -4.770148e+01  -2.058245e+02
   1.392988e+02  -2.047448e+02
   2.158991e+02  -9.570336e+01
   1.315053e+02   4.325071e+01
  -1.589182e+01   8.410016e+01
  -6.975331e+01   4.697926e+00
   2.564275e+01  -8.458852e+01
   1.569549e+02  -4.699182e+01
   1.707931e+02   8.799336e+01
   5.505098e+01   1.692336e+02
  -7.736167e+01   1.271473e+02
  -1.164791e+02   1.996328e+01
  -5.260648e+01  -3.504864e+01
   2.435936e+01  -7.322047e-01
   2.834933e+01   7.044822e+01
  -5.910155e+01   9.036569e+01
  -1.593048e+02   2.194619e+01
  -1.529134e+02  -1.023719e+02
  -1.881468e+01  -1.787858e+02
   1.318722e+02  -1.321815e+02
   1.581595e+02  -3.998383e+00
   5.534356e+01   9.229437e+01
  -4.972978e+01   8.990340e+01
  -6.666624e+01   2.556042e+01
  -1.578661e+01  -2.474966e+01
   2.042060e+01  -1.339433e+01
  -3.526831e+00   1.101739e+01
  -5.675346e+01  -3.657214e+00
  -7.507650e+01  -6.584325e+01
  -1.620577e+01  -1.273712e+02
   1.019994e+02  -1.260471e+02
   1.916745e+02  -2.475082e+01
   1.650345e+02   1.209080e+02
   3.605913e+01   1.978252e+02
  -8.819169e+01   1.402716e+02
  -1.146063e+02   2.242256e+01
  -6.191943e+01  -4.867352e+01
  -2.220217e+01  -3.277891e+01
  -4.462780e+01   8.646825e+00
  -6.676554e+01   5.112227e+00
  -3.722626e+01  -4.414011e+01
   3.873728e+01  -8.299504e+01
   8.801319e+01  -4.739019e+01
   7.484279e+01   3.453456e+01
  -1.018243e+01   9.581675e+01
  -1.194480e+02   6.826757e+01
  -1.664969e+02  -4.580186e+01
  -8.028947e+01  -1.717225e+02
   9.591660e+01  -1.924429e+02
   2.470688e+02  -7.832212e+01
   2.112371e+02   7.531719e+01
   8.550378e+01   1.453604e+02
  -3.543817e+01   1.131060e+02
  -7.493593e+01   6.576253e+01
  -5.415204e+01   5.821172e+01
  -4.797831e+01   7.760998e+01
  -7.817847e+01   6.792749e+01
  -1.119445e+02  -1.357381e+01
  -1.008807e+02  -1.243970e+02
  -2.434984e+01  -1.853143e+02
   8.242520e+01  -1.430920e+02
   1.493436e+02  -2.039973e+01
   1.134052e+02   1.014564e+02
   1.589691e+01   1.357965e+02
  -5.568892e+01   7.469045e+01
  -4.785528e+01  -2.920320e+00
  -1.881483e+00  -3.482276e+01
   1.237613e+01  -2.198771e+01
  -2.990146e+01  -1.022974e+01
  -6.545227e+01  -2.019839e+01
  -3.799120e+01  -3.395751e+01
   5.293795e+01  -3.181450e+01
   1.277077e+02  -3.009197e+00
   1.171425e+02   4.079750e+01
   1.415260e+01   7.519869e+01
  -9.961368e+01   6.376991e+01
  -1.210098e+02   1.204807e+01
  -3.981829e+01  -3.614681e+01
   5.032064e+01  -3.491540e+01
   7.184315e+01   1.872052e+01
   9.674443e+00   5.877866e+01
  -4.371339e+01   4.934137e+01
  -5.344699e+01  -1.970747e+00
  -3.848651e+01  -4.459013e+01
  -3.053339e+01  -3.314893e+01
  -3.964752e+01   4.724130e+00
  -5.025708e+01   5.686793e+00
  -3.555903e+01  -5.326584e+01
   1.729658e+01  -1.235879e+02
   9.036838e+01  -1.176562e+02
   1.404892e+02  -2.667068e+01
   1.060126e+02   7.682355e+01
   6.362632e+00   1.064222e+02
  -7.192740e+01   5.201384e+01
  -4.936137e+01  -1.133338e+01
   4.637710e+01  -1.715666e+01
   1.043557e+02   3.071547e+01
   5.959069e+01   8.295714e+01
  -6.139995e+01   8.855274e+01
  -1.506791e+02   3.949880e+01
  -1.292939e+02  -2.577644e+01
  -2.765012e+01  -6.903979e+01
   5.043014e+01  -5.482660e+01
   3.729188e+01  -3.481144e+00
  -3.395912e+01   2.484141e+01
  -7.727046e+01  -1.795749e+01
  -3.058412e+01  -9.991269e+01
   7.168331e+01  -1.284890e+02
   1.368422e+02  -5.341004e+01
   1.093233e+02   8.008470e+01
   1.247720e+01   1.615116e+02
  -6.756535e+01   1.164612e+02
  -8.703193e+01  -5.381939e+00
  -5.315843e+01  -9.348363e+01
   1.818331e+00  -8.512924e+01
   3.752512e+01  -1.463275e+01
   3.823892e+01   2.531846e+01
   1.560883e+01   4.211208e+00
   2.723716e+00  -1.891392e+01
   1.791468e+01   1.157052e+01
   4.701048e+01   7.079849e+01
   3.189860e+01   8.711552e+01
  -4.044412e+01   3.585223e+01
  -1.138933e+02  -3.263744e+01
  -1.046753e+02  -5.738175e+01
  -1.139479e+01  -4.222980e+01
   6.967521e+01  -2.106996e+01
   7.213265e+01  -6.146836e+00
   1.109618e+01   8.148335e+00
  -2.804064e+01   2.020809e+01
  -1.088593e+01   1.381195e+01
   1.460534e+01  -2.178855e+00
  -4.709524e+00  -3.782306e+00
  -5.721794e+01  -1.077641e+00
  -7.226198e+01  -2.049239e+01
  -9.623173e+00  -6.729913e+01
   8.951359e+01  -8.936801e+01
   1.473005e+02  -4.622568e+01
   1.132689e+02   5.339017e+01
   2.274983e+01   1.245865e+02
  -5.926703e+01   1.128161e+02
  -8.995053e+01   4.342520e+01
  -6.564608e+01  -1.698736e+01
  -2.156078e+01  -3.073899e+01
   2.073241e+00  -7.128342e+00
  -6.413565e+00  -1.760212e+00
  -2.861556e+01  -3.551758e+01
  -1.778963e+01  -7.315354e+01
   2.407713e+01  -6.057902e+01
   6.799214e+01   1.263340e+01
   6.474849e+01   8.938001e+01
   3.255005e+00   9.256035e+01
  -6.703043e+01   2.294713e+01
  -8.443607e+01  -5.992920e+01
  -2.640474e+01  -8.560862e+01
   5.622937e+01  -4.885090e+01
   8.139006e+01   8.103045e+00
   3.198056e+01   4.456679e+01
  -2.819433e+01   4.484007e+01
  -2.797913e+01   2.154142e+01
   2.514914e+01  -2.181357e+00
   5.222831e+01  -2.967300e+00
   1.455337e+01   2.547289e+01
  -5.831293e+01   5.224730e+01
  -9.177423e+01   4.212664e+01
  -5.429722e+01  -1.044200e+01
   1.082036e+01  -6.389707e+01
   4.345876e+01  -5.751638e+01
   3.274908e+01  -2.845274e+00
   3.024426e+00   4.561286e+01
  -2.175715e+01   3.326542e+01
  -3.110713e+01  -1.424582e+01
  -2.260809e+01  -4.429146e+01
   2.721500e+00  -2.835242e+01
   2.718241e+01   5.387377e+00
   3.158241e+01   1.895872e+01
   1.423198e+01   2.631841e+00
  -7.111367e-01  -1.285927e+01
  -3.168835e+00  -3.330949e-01
  -2.861627e+00   2.989435e+01
  -1.303304e+01   3.777036e+01
  -2.748630e+01   7.105538e+00
  -2.700546e+01  -3.766503e+01
   1.307134e+00  -5.025980e+01
   3.667262e+01  -1.714979e+01
   4.941383e+01   3.046341e+01
   1.335165e+01   5.049456e+01
  -4.440899e+01   2.794246e+01
  -7.226132e+01  -1.139892e+01
  -3.937531e+01  -3.732606e+01
   2.395853e+01  -3.585044e+01
   5.219352e+01  -1.902990e+01
   1.950548e+01  -2.251203e+00
  -2.853895e+01   1.474238e+00
  -2.927874e+01  -1.019593e+01
   2.214188e+01  -2.527818e+01
   7.110509e+01  -1.710617e+01
