
 $NMID
 id='ANONYMOUS ', fmtdat='(2E16.6)'
 volume=1.0
 tramp=1.0
 $END
  -3.974052e+03   3.378968e+02
  -2.318914e+03  -2.249365e+03
   5.823239e+02  -2.373747e+03
   1.864445e+03  -7.482833e+02
   8.970920e+02   7.134246e+02
  -5.979218e+02   6.412428e+02
  -8.344124e+02  -3.553327e+02
  -4.087277e+01  -9.804268e+02
   7.470457e+02  -7.266407e+02
   8.717092e+02   9.853338e+01
   4.244578e+02   8.493982e+02
  -2.665183e+02   8.205253e+02
  -6.428738e+02   1.185425e+02
  -3.681500e+02  -6.618143e+02
   3.152981e+02  -7.652567e+02
   5.871999e+02  -1.820849e+00
   2.621028e+02   6.217751e+02
  -3.209997e+02   5.836926e+02
  -5.428431e+02   6.620476e+01
  -3.436693e+02  -3.259353e+02
   2.614932e+00  -4.016040e+02
   2.430585e+02  -2.322746e+02
   2.144317e+02  -1.745514e+01
  -5.295801e+01   8.051900e+01
  -3.343719e+02  -7.584060e+01
  -1.989455e+02  -3.320193e+02
   3.426011e+02  -3.465830e+02
   7.400488e+02   2.769377e+01
   4.044230e+02   4.549441e+02
  -2.965826e+02   4.471128e+02
  -6.413395e+02   1.194173e+01
  -3.313176e+02  -4.127494e+02
   2.046259e+02  -4.591891e+02
   4.750371e+02  -1.879499e+02
   3.707001e+02   1.951516e+02
   6.436457e+01   4.275083e+02
  -1.963922e+02   2.739420e+02
  -1.943208e+02  -1.875558e+02
   1.132805e+02  -4.100317e+02
   3.970278e+02  -3.542001e+01
   2.530633e+02   5.656083e+02
  -2.578791e+02   6.193567e+02
  -5.612408e+02   3.741875e+01
  -2.694247e+02  -4.711099e+02
   2.526739e+02  -3.163240e+02
   3.696893e+02   2.449095e+02
  -3.444359e+01   4.881614e+02
  -4.921133e+02   1.432512e+02
  -5.061591e+02  -3.494214e+02
  -1.344415e+02  -5.420159e+02
   3.375082e+02  -3.127540e+02
   5.506176e+02   7.891468e+01
   3.262778e+02   3.563877e+02
  -1.506279e+02   3.366782e+02
  -3.854642e+02   3.458326e+01
  -2.043566e+02  -2.077704e+02
   1.131093e+02  -1.247010e+02
   1.540654e+02   1.374112e+02
  -1.219408e+02   1.903314e+02
  -3.100566e+02  -4.577915e+01
  -1.377486e+02  -2.616073e+02
   1.750572e+02  -2.255553e+02
   2.896458e+02  -5.488384e+01
   1.580093e+02   8.062555e+01
  -3.707535e+01   1.774996e+02
  -1.839343e+02   2.516966e+02
  -2.960640e+02   1.748749e+02
  -2.635853e+02  -1.006931e+02
  -6.916139e+01  -3.676205e+02
   1.325178e+02  -3.621348e+02
   1.389073e+02  -1.021938e+02
   4.279979e+01   3.617809e+01
   1.604552e+01  -4.512818e+01
   1.308282e+02  -1.104470e+02
   2.189741e+02   1.896496e+01
   1.529623e+02   2.142849e+02
  -3.390211e+01   2.264412e+02
  -1.890914e+02   3.196053e+01
  -1.781502e+02  -1.832713e+02
  -8.090181e+00  -2.505191e+02
   2.147247e+02  -1.177385e+02
   3.116867e+02   1.354876e+02
   1.679355e+02   3.093575e+02
  -8.857727e+01   2.840666e+02
  -2.145679e+02   1.081902e+02
  -1.437930e+02  -8.536960e+00
  -7.134419e+01   8.663014e+00
  -1.667878e+02   4.172292e+01
  -3.034528e+02  -4.010146e+01
  -2.686918e+02  -2.151529e+02
  -1.001899e+01  -3.464011e+02
   2.810305e+02  -3.304588e+02
   4.027238e+02  -1.656460e+02
   2.867785e+02   7.313628e+01
   6.153849e+01   2.480742e+02
  -1.112811e+02   2.401605e+02
  -8.422432e+01   4.573884e+01
   7.608220e+01  -9.448583e+01
   1.672072e+02  -5.109855e+00
   5.080572e+01   1.712752e+02
  -1.531594e+02   1.710546e+02
  -1.658112e+02  -4.693370e+01
   5.575269e+00  -1.839722e+02
   1.666637e+02  -4.081407e+01
   1.408376e+02   2.030267e+02
  -3.449114e+01   3.002677e+02
  -2.046189e+02   1.564464e+02
  -2.692949e+02  -6.908822e+01
  -2.159016e+02  -2.140055e+02
  -7.215531e+01  -2.182468e+02
   9.663069e+01  -1.300669e+02
   1.478349e+02  -1.391052e+01
   5.110213e+01   2.873300e+01
  -5.863209e+01  -2.748453e+01
  -2.848355e+01  -1.035571e+02
   1.034843e+02  -8.724653e+01
   1.516618e+02   7.027364e+00
   5.794081e+01   6.428795e+01
  -6.371443e+01   1.987453e+01
  -5.022651e+01  -5.652640e+01
   8.900338e+01  -7.356650e+01
   2.193034e+02  -5.723853e-01
   2.112914e+02   1.119051e+02
   5.593326e+01   2.058920e+02
  -1.430404e+02   2.146369e+02
  -2.310472e+02   1.045257e+02
  -1.458669e+02  -4.495248e+01
   1.640642e+01  -9.481517e+01
   7.998198e+01  -1.011658e+01
  -2.230047e+01   8.701870e+01
  -1.621703e+02   5.080411e+01
  -1.791555e+02  -9.399304e+01
  -5.787599e+01  -1.807407e+02
   8.229843e+01  -1.360333e+02
   1.242675e+02  -2.417615e+01
   6.337047e+01   3.364337e+01
  -1.613399e+01   3.964824e+00
  -2.715864e+01  -6.258548e+01
   5.534482e+01  -8.401480e+01
   1.547811e+02  -1.947398e+01
   1.523799e+02   1.021838e+02
   1.600020e+01   1.798270e+02
  -1.374326e+02   1.311406e+02
  -1.660465e+02   4.071236e-01
  -5.790342e+01  -1.002611e+02
   5.732279e+01  -9.658092e+01
   7.635169e+01  -2.677564e+01
   2.224147e+01   2.585244e+01
  -1.547613e+01   1.667245e+01
   4.648404e+00  -4.739659e+00
   5.129608e+01   8.323557e+00
   6.604098e+01   6.581382e+01
   1.076480e+01   1.247689e+02
  -1.039443e+02   1.218017e+02
  -1.937888e+02   2.115754e+01
  -1.673665e+02  -1.267984e+02
  -3.169100e+01  -2.067397e+02
   9.591224e+01  -1.447659e+02
   1.190944e+02  -1.955122e+01
   6.126345e+01   5.311532e+01
   1.994496e+01   3.714933e+01
   4.398610e+01  -1.835797e+00
   6.272224e+01   1.266520e+00
   2.925290e+01   4.012171e+01
  -4.177847e+01   6.880570e+01
  -8.371957e+01   3.461140e+01
  -6.585596e+01  -3.518127e+01
   1.324695e+01  -8.535727e+01
   1.146649e+02  -6.031239e+01
   1.596099e+02   4.845053e+01
   7.442724e+01   1.647357e+02
  -9.609403e+01   1.813665e+02
  -2.383861e+02   6.710967e+01
  -2.022291e+02  -7.640941e+01
  -8.412321e+01  -1.412589e+02
   3.130079e+01  -1.095554e+02
   7.330371e+01  -6.645395e+01
   6.190548e+01  -5.607297e+01
   6.136298e+01  -7.208893e+01
   8.219041e+01  -5.858155e+01
   1.084556e+02   2.030128e+01
   8.831695e+01   1.283899e+02
   1.262992e+01   1.870785e+02
  -9.067139e+01   1.404772e+02
  -1.494301e+02   1.510032e+01
  -1.094442e+02  -1.032851e+02
  -1.238812e+01  -1.344700e+02
   5.493862e+01  -7.384676e+01
   4.532716e+01   6.736683e-01
   1.378476e+00   3.116575e+01
  -9.491446e+00   2.233418e+01
   2.845764e+01   1.478809e+01
   6.161753e+01   2.408714e+01
   3.612114e+01   3.371292e+01
  -4.845169e+01   2.633597e+01
  -1.216334e+02  -5.903465e+00
  -1.130465e+02  -4.606375e+01
  -1.291260e+01  -7.060478e+01
   9.981697e+01  -5.581477e+01
   1.212243e+02  -7.679092e+00
   3.875247e+01   3.362976e+01
  -5.119619e+01   3.056078e+01
  -7.172492e+01  -2.101255e+01
  -3.710258e+00  -5.844067e+01
   4.982656e+01  -4.530251e+01
   5.223074e+01   7.097534e+00
   3.109126e+01   4.798446e+01
   2.661131e+01   3.697932e+01
   4.158157e+01  -9.855675e-01
   5.120579e+01  -4.115574e+00
   2.924829e+01   5.501320e+01
  -2.692482e+01   1.204805e+02
  -9.630643e+01   1.092106e+02
  -1.366453e+02   1.669513e+01
  -9.927604e+01  -8.237913e+01
  -5.302595e-01  -1.041374e+02
   7.460678e+01  -4.623502e+01
   5.043653e+01   1.747595e+01
  -4.971328e+01   1.681424e+01
  -1.108274e+02  -3.819222e+01
  -6.005185e+01  -9.000306e+01
   6.414625e+01  -8.858629e+01
   1.517446e+02  -3.912349e+01
   1.300977e+02   2.884211e+01
   2.823469e+01   6.991506e+01
  -5.148489e+01   5.531467e+01
  -3.742711e+01   3.676100e+00
   3.588904e+01  -2.208666e+01
   7.645940e+01   2.219056e+01
   2.435897e+01   1.033890e+02
  -8.291889e+01   1.279547e+02
  -1.448794e+02   4.457673e+01
  -1.057419e+02  -8.927607e+01
  -5.134318e+00  -1.646454e+02
   7.390117e+01  -1.135414e+02
   8.280611e+01   9.181681e+00
   4.678257e+01   9.454539e+01
  -3.068409e+00   8.154715e+01
  -3.512708e+01   1.285148e+01
  -3.974769e+01  -2.617050e+01
  -1.980192e+01  -4.726010e+00
  -2.925475e+00   1.890396e+01
  -1.404153e+01  -1.269027e+01
  -4.276096e+01  -7.213345e+01
  -3.134376e+01  -9.139932e+01
   3.981126e+01  -3.474509e+01
   1.128506e+02   3.892818e+01
   1.056486e+02   6.426865e+01
   1.113532e+01   4.266800e+01
  -7.321302e+01   1.614832e+01
  -7.286942e+01   1.411819e+00
  -5.325001e+00  -8.911711e+00
   3.273466e+01  -1.828744e+01
   1.047629e+01  -1.219177e+01
  -1.815819e+01   3.619164e+00
   7.281833e+00   5.655306e+00
   6.002274e+01   4.119324e+00
   7.042516e+01   2.504237e+01
   5.906184e-01   7.001076e+01
  -9.941896e+01   8.530686e+01
  -1.493992e+02   3.189588e+01
  -1.080285e+02  -6.683682e+01
  -1.318561e+01  -1.302018e+02
   6.905107e+01  -1.069030e+02
   9.590978e+01  -3.417811e+01
   6.561558e+01   2.318469e+01
   1.811466e+01   3.064670e+01
  -6.513745e+00   5.145122e+00
   5.336243e+00   8.129904e-01
   2.870553e+01   3.487122e+01
   1.679438e+01   7.194256e+01
  -2.785806e+01   5.771539e+01
  -6.735193e+01  -1.914005e+01
  -5.629255e+01  -9.537538e+01
   8.048045e+00  -9.262305e+01
   7.325330e+01  -1.590180e+01
   8.030897e+01   7.037735e+01
   1.807965e+01   8.778614e+01
  -6.067397e+01   4.292715e+01
  -7.840601e+01  -1.375983e+01
  -2.622387e+01  -4.368309e+01
   3.068178e+01  -3.973253e+01
   2.561906e+01  -1.817464e+01
  -2.924132e+01  -4.018358e-02
  -5.439000e+01   7.513233e-02
  -1.137239e+01  -2.683840e+01
   6.524942e+01  -5.156898e+01
   9.380099e+01  -4.301443e+01
   5.393554e+01   1.573586e+01
  -1.574761e+01   6.478153e+01
  -4.764381e+01   5.585696e+01
  -3.169431e+01  -1.757361e+00
   2.315511e+00  -4.760148e+01
   2.530707e+01  -3.028009e+01
   3.030492e+01   1.979099e+01
   1.836224e+01   4.765621e+01
  -6.710826e+00   2.513194e+01
  -2.687211e+01  -9.416541e+00
  -2.894715e+01  -1.892910e+01
  -1.488063e+01  -8.007109e-01
  -2.414769e+00   1.263454e+01
   2.127088e+00  -2.928150e+00
   6.112874e+00  -3.358478e+01
   2.055311e+01  -3.904020e+01
   3.107929e+01  -2.692623e+00
   2.351310e+01   4.375077e+01
  -8.066609e+00   5.264143e+01
  -4.040726e+01   1.343945e+01
  -4.575406e+01  -3.620368e+01
  -8.299947e+00  -5.356515e+01
   4.779490e+01  -2.541296e+01
   7.161151e+01   1.757651e+01
   3.622885e+01   3.917017e+01
  -2.686389e+01   3.082513e+01
  -5.232650e+01   1.189755e+01
  -1.588124e+01  -9.871965e-02
   3.418739e+01   3.582192e+00
   3.158785e+01   1.672770e+01
  -2.611475e+01   2.788129e+01
  -7.772266e+01   1.492009e+01
