
 $NMID
 id='ANONYMOUS ', fmtdat='(2E16.6)'
 volume=1.0
 tramp=1.0
 $END
  -4.152167e+03  -4.790991e+02
  -2.301455e+03  -2.393428e+03
   6.350161e+02  -2.309013e+03
   1.830782e+03  -8.032802e+02
   8.629304e+02   3.894497e+02
  -4.634927e+02   3.124289e+02
  -6.670851e+02  -3.723669e+02
   5.730756e+01  -8.426673e+02
   7.420011e+02  -6.114950e+02
   8.254523e+02   1.407776e+02
   3.794390e+02   7.805523e+02
  -2.753339e+02   7.629132e+02
  -5.582024e+02   4.521669e+01
  -2.508345e+02  -6.840504e+02
   2.899482e+02  -7.013552e+02
   5.519236e+02   7.198821e+01
   2.028854e+02   6.786348e+02
  -3.306326e+02   6.114784e+02
  -5.589974e+02   7.826938e+01
  -3.518813e+02  -3.425855e+02
  -1.946991e+00  -3.883161e+02
   2.082792e+02  -1.950819e+02
   1.210674e+02   3.000471e+01
  -1.942954e+02   1.437906e+01
  -3.601672e+02  -2.467623e+02
  -5.394728e+01  -4.534292e+02
   5.204502e+02  -2.668901e+02
   7.517616e+02   2.265121e+02
   2.584694e+02   5.299834e+02
  -4.313981e+02   3.161645e+02
  -6.443260e+02  -1.794673e+02
  -2.192311e+02  -4.890441e+02
   3.490796e+02  -4.273764e+02
   5.663872e+02  -1.072607e+02
   3.579132e+02   2.671359e+02
   6.028053e+00   4.261164e+02
  -1.989399e+02   2.072673e+02
  -6.992042e+01  -2.072946e+02
   2.484936e+02  -3.103349e+02
   3.661880e+02   1.317385e+02
   7.891766e+01   6.702470e+02
  -3.964616e+02   5.747075e+02
  -5.178413e+02  -8.169611e+01
  -1.378318e+02  -5.082209e+02
   2.965219e+02  -2.213528e+02
   2.797066e+02   3.352059e+02
  -1.606991e+02   4.893342e+02
  -5.332446e+02   5.020543e+01
  -5.075920e+02  -4.568315e+02
  -8.448966e+01  -5.906827e+02
   4.133836e+02  -2.836814e+02
   5.863693e+02   1.474885e+02
   3.050212e+02   3.786313e+02
  -1.579625e+02   2.985113e+02
  -3.743914e+02   8.757781e+00
  -1.880800e+02  -1.592156e+02
   8.620342e+01  -5.178819e+01
   9.397194e+01   1.410755e+02
  -1.514195e+02   1.311010e+02
  -2.882419e+02  -9.479084e+01
  -1.040934e+02  -2.599771e+02
   2.166386e+02  -2.310918e+02
   3.499056e+02  -6.008736e+01
   2.096869e+02   1.259283e+02
  -5.051526e+01   2.778142e+02
  -2.953200e+02   3.130637e+02
  -3.847464e+02   1.408927e+02
  -2.636283e+02  -1.897259e+02
  -1.088649e+01  -4.201901e+02
   1.314607e+02  -3.532514e+02
   9.131811e+01  -1.307370e+02
   3.071442e+01  -3.137576e+01
   9.867220e+01  -9.367825e+01
   2.397498e+02  -7.511887e+01
   2.651417e+02   1.144827e+02
   1.025251e+02   2.876512e+02
  -1.143736e+02   2.242769e+02
  -2.229155e+02  -3.624726e+01
  -1.466916e+02  -2.656190e+02
   6.258478e+01  -2.819533e+02
   2.771050e+02  -6.938935e+01
   3.291314e+02   2.168601e+02
   1.487730e+02   3.692862e+02
  -1.211612e+02   2.874697e+02
  -2.243346e+02   1.109874e+02
  -1.530646e+02   1.966238e+01
  -1.140103e+02   3.197296e+01
  -2.491294e+02   3.243123e+01
  -4.009569e+02  -1.018272e+02
  -3.062651e+02  -3.214801e+02
   5.666725e+01  -4.469955e+02
   4.181789e+02  -3.719600e+02
   5.169417e+02  -1.334723e+02
   3.121814e+02   1.390401e+02
  -2.720467e-01   2.935377e+02
  -1.526380e+02   2.225191e+02
  -6.048582e+01   1.452037e+01
   1.271105e+02  -7.534042e+01
   1.691296e+02   4.494555e+01
   1.413582e+01   1.879107e+02
  -1.614625e+02   1.441472e+02
  -1.424243e+02  -8.734640e+01
   4.431741e+01  -1.648263e+02
   1.939141e+02   1.035335e+01
   1.276876e+02   2.722430e+02
  -7.270102e+01   3.464026e+02
  -2.665764e+02   1.741804e+02
  -3.363393e+02  -9.891128e+01
  -2.561486e+02  -2.789234e+02
  -4.548616e+01  -2.793866e+02
   1.451333e+02  -1.377671e+02
   1.631334e+02   8.627063e+00
   3.880361e+01   2.960267e+01
  -5.778936e+01  -5.942499e+01
   2.471273e+00  -1.269390e+02
   1.366945e+02  -7.195090e+01
   1.575162e+02   3.873257e+01
   3.569743e+01   6.983003e+01
  -8.616970e+01  -6.654640e+00
  -3.681687e+01  -8.979010e+01
   1.494811e+02  -7.629034e+01
   2.865458e+02   3.759205e+01
   2.352669e+02   1.855894e+02
   1.018684e+01   2.688962e+02
  -2.269291e+02   2.255934e+02
  -2.878316e+02   7.065541e+01
  -1.450088e+02  -7.433148e+01
   4.363807e+01  -9.441407e+01
   8.306451e+01   1.305554e+01
  -5.413166e+01   9.247012e+01
  -1.992940e+02   3.184720e+01
  -1.974060e+02  -1.250849e+02
  -4.187806e+01  -2.085498e+02
   1.096739e+02  -1.419388e+02
   1.345075e+02  -7.096074e+00
   4.590709e+01   4.606466e+01
  -3.668791e+01  -1.156979e+01
  -2.107314e+01  -1.033931e+02
   1.024451e+02  -1.111165e+02
   2.111127e+02   2.039721e+00
   1.718615e+02   1.551390e+02
  -1.445762e+01   2.202042e+02
  -1.845514e+02   1.387385e+02
  -1.886860e+02  -1.914843e+01
  -4.709781e+01  -1.190852e+02
   7.894843e+01  -1.013577e+02
   8.328104e+01  -1.505535e+01
   1.191005e+01   3.333866e+01
  -3.121050e+01   1.271142e+01
   7.898161e+00  -1.865075e+01
   7.768128e+01   8.414352e+00
   8.642388e+01   9.580356e+01
  -6.256733e+00   1.661009e+02
  -1.529093e+02   1.358732e+02
  -2.351526e+02  -1.100218e+01
  -1.746410e+02  -1.791466e+02
  -9.313357e+00  -2.376048e+02
   1.235377e+02  -1.500533e+02
   1.349601e+02  -1.214878e+01
   6.497005e+01   5.806029e+01
   2.409413e+01   3.510026e+01
   5.430211e+01  -1.166124e+01
   8.433450e+01   2.635884e+00
   4.330331e+01   5.985223e+01
  -4.484373e+01   9.671420e+01
  -1.139800e+02   5.131346e+01
  -9.094475e+01  -5.199716e+01
   2.882022e+01  -1.186329e+02
   1.593865e+02  -7.204274e+01
   1.936409e+02   8.387632e+01
   6.490602e+01   2.210982e+02
  -1.435908e+02   2.137326e+02
  -2.821141e+02   7.501394e+01
  -2.416407e+02  -1.289926e+02
  -7.879672e+01  -1.881297e+02
   5.753924e+01  -1.376191e+02
   9.751886e+01  -6.904847e+01
   7.894961e+01  -5.954673e+01
   7.259491e+01  -8.161200e+01
   1.031190e+02  -6.337753e+01
   1.286728e+02   3.557025e+01
   1.018522e+02   1.669709e+02
   2.566543e+00   2.265112e+02
  -1.253919e+02   1.506836e+02
  -1.791150e+02  -6.976297e+00
  -1.131005e+02  -1.425686e+02
   1.234517e+01  -1.562193e+02
   8.441582e+01  -7.337205e+01
   5.995352e+01   1.870828e+01
  -4.875065e+00   4.936404e+01
  -2.152631e+01   3.160345e+01
   3.024843e+01   1.754896e+01
   7.497950e+01   2.911132e+01
   3.713735e+01   4.317905e+01
  -7.354852e+01   3.237698e+01
  -1.587004e+02  -1.306187e+01
  -1.329039e+02  -7.084403e+01
   4.407508e+00  -9.888411e+01
   1.358555e+02  -6.114049e+01
   1.441042e+02   9.241654e+00
   3.870974e+01   5.479753e+01
  -6.767636e+01   3.521942e+01
  -7.873174e+01  -2.370672e+01
  -3.942780e+00  -7.351616e+01
   6.035121e+01  -5.522798e+01
   6.711972e+01   7.977568e+00
   4.499500e+01   5.333016e+01
   4.107759e+01   4.334890e+01
   5.915778e+01   7.840074e+00
   6.561902e+01   8.240568e+00
   3.200993e+01   7.552881e+01
  -4.833436e+01   1.450276e+02
  -1.366119e+02   1.301024e+02
  -1.754046e+02   1.598560e+01
  -1.160315e+02  -1.069905e+02
   1.015224e+01  -1.336823e+02
   9.574751e+01  -5.694839e+01
   6.165927e+01   2.243001e+01
  -5.367006e+01   1.882694e+01
  -1.225399e+02  -5.363057e+01
  -5.646307e+01  -1.132967e+02
   9.299761e+01  -9.664500e+01
   1.914719e+02  -1.951628e+01
   1.486477e+02   5.720059e+01
   2.191793e+01   8.717084e+01
  -6.867712e+01   5.469419e+01
  -4.741612e+01  -4.258333e+00
   4.429834e+01  -2.320324e+01
   9.105940e+01   3.288441e+01
   2.603749e+01   1.227328e+02
  -1.015601e+02   1.455612e+02
  -1.717495e+02   5.063334e+01
  -1.157982e+02  -1.093032e+02
   9.061473e+00  -1.934947e+02
   9.825441e+01  -1.284983e+02
   1.020041e+02   2.546977e+01
   4.371405e+01   1.281173e+02
  -1.849255e+01   1.021267e+02
  -5.025994e+01   1.161835e+01
  -4.321377e+01  -3.813931e+01
  -1.787929e+01  -9.685563e+00
  -8.945363e+00   1.968911e+01
  -2.865180e+01  -1.749152e+01
  -4.906898e+01  -9.517548e+01
  -2.239253e+01  -1.134613e+02
   6.184292e+01  -4.108748e+01
   1.342850e+02   5.652322e+01
   1.116776e+02   9.181208e+01
   2.489198e+00   5.663364e+01
  -9.116046e+01   1.616501e+01
  -8.584382e+01  -5.005662e+00
  -1.038284e+01  -1.311984e+01
   3.667296e+01  -2.065983e+01
   1.967885e+01  -1.561105e+01
  -1.588076e+01   1.322070e+00
   8.608930e+00   8.485654e+00
   7.065981e+01   7.691930e+00
   8.697387e+01   3.179887e+01
   5.335062e+00   8.664075e+01
  -1.247843e+02   1.122684e+02
  -1.973273e+02   5.029953e+01
  -1.430899e+02  -7.564884e+01
  -1.734024e+01  -1.669020e+02
   9.263951e+01  -1.484094e+02
   1.214950e+02  -5.400815e+01
   7.639159e+01   2.833785e+01
   2.203844e+01   4.044745e+01
  -4.779839e-01   1.104901e+01
   1.339634e+01   6.720514e+00
   2.795098e+01   4.646040e+01
   1.121606e+01   9.027385e+01
  -3.907778e+01   6.990872e+01
  -8.109865e+01  -2.496714e+01
  -7.085716e+01  -1.112742e+02
   5.447181e+00  -1.124706e+02
   8.521435e+01  -1.703204e+01
   9.577528e+01   8.365420e+01
   1.779221e+01   1.080956e+02
  -7.495001e+01   5.022141e+01
  -9.783773e+01  -2.267803e+01
  -3.264010e+01  -5.885152e+01
   4.052849e+01  -5.143948e+01
   3.378874e+01  -2.380013e+01
  -3.170774e+01   4.486290e-01
  -6.631510e+01  -4.769085e-01
  -1.122891e+01  -3.024622e+01
   8.259277e+01  -5.828460e+01
   1.153121e+02  -4.226965e+01
   6.049670e+01   2.416880e+01
  -2.366366e+01   7.942842e+01
  -6.182894e+01   6.765219e+01
  -3.882994e+01  -4.181954e-01
   4.628348e+00  -5.441780e+01
   2.953284e+01  -3.813653e+01
   3.233350e+01   2.038718e+01
   1.863136e+01   5.560438e+01
  -7.095895e+00   3.313658e+01
  -3.103660e+01  -1.241163e+01
  -3.591100e+01  -2.898925e+01
  -1.915707e+01  -4.492324e+00
  -1.527676e-01   1.786153e+01
   5.050166e+00   4.337692e+00
   4.064099e+00  -3.477257e+01
   1.459591e+01  -4.901300e+01
   3.122667e+01  -1.165071e+01
   3.127383e+01   4.455942e+01
  -2.218514e+00   6.038474e+01
  -4.666373e+01   1.671102e+01
  -5.550465e+01  -4.453515e+01
  -8.512099e+00  -6.575989e+01
   6.373852e+01  -2.997413e+01
   9.302467e+01   2.315598e+01
   4.495665e+01   5.070938e+01
  -3.366007e+01   4.280480e+01
  -6.729945e+01   2.070361e+01
  -2.701200e+01   2.809917e+00
   3.207062e+01  -6.267288e-01
   3.445146e+01   1.331253e+01
  -2.843159e+01   2.593658e+01
  -8.437057e+01   1.157886e+01
