
 $NMID
 id='ANONYMOUS ', fmtdat='(2E16.6)'
 volume=1.0
 tramp=1.0
 $END
   3.930453e+03   8.062425e+01
   2.149908e+03   2.354551e+03
  -5.755649e+02   2.171021e+03
  -1.801797e+03   8.122265e+02
  -9.338708e+02  -3.176386e+02
   3.401050e+02  -4.343466e+02
   6.826538e+02   2.499656e+02
   7.716743e+01   7.877636e+02
  -6.752932e+02   6.764366e+02
  -8.277469e+02  -1.847362e+01
  -4.088589e+02  -7.208183e+02
   1.551839e+02  -7.760134e+02
   5.197692e+02  -1.256290e+02
   3.081657e+02   5.944753e+02
  -2.121439e+02   7.059443e+02
  -5.410246e+02  -1.208145e+01
  -2.745525e+02  -6.352052e+02
   2.655843e+02  -6.624232e+02
   5.634850e+02  -1.641553e+02
   4.192884e+02   2.847694e+02
   6.477127e+01   4.212512e+02
  -2.047776e+02   2.330954e+02
  -1.313532e+02   3.437918e+01
   1.566329e+02   1.999525e+00
   3.269478e+02   1.968981e+02
   6.842292e+01   4.028746e+02
  -4.605523e+02   2.961520e+02
  -7.227014e+02  -1.419631e+02
  -2.988616e+02  -4.742688e+02
   3.813729e+02  -3.359901e+02
   6.288401e+02   1.111635e+02
   2.446649e+02   4.508971e+02
  -3.017777e+02   4.320324e+02
  -5.326285e+02   1.364650e+02
  -3.718931e+02  -2.233581e+02
  -6.527684e+01  -3.978557e+02
   1.322931e+02  -2.227137e+02
   7.516838e+01   1.607181e+02
  -1.786806e+02   2.739172e+02
  -3.091628e+02  -1.032730e+02
  -8.651806e+01  -5.923658e+02
   3.169320e+02  -5.378780e+02
   4.630747e+02   3.502574e+01
   1.738602e+02   4.444365e+02
  -2.364337e+02   2.199119e+02
  -2.775705e+02  -3.019254e+02
   1.171446e+02  -4.761335e+02
   5.356329e+02  -7.956755e+01
   5.250730e+02   4.095043e+02
   1.237409e+02   5.653993e+02
  -3.623959e+02   2.948185e+02
  -5.717626e+02  -8.861234e+01
  -3.461225e+02  -3.266532e+02
   1.191010e+02  -3.034828e+02
   3.713992e+02  -6.162749e+01
   2.178694e+02   1.247481e+02
  -7.639922e+01   6.986366e+01
  -1.073583e+02  -1.126585e+02
   1.412143e+02  -1.433218e+02
   2.990013e+02   5.471997e+01
   1.401512e+02   2.606729e+02
  -1.918589e+02   2.589416e+02
  -3.567945e+02   8.915862e+01
  -2.218363e+02  -1.231759e+02
   6.288333e+01  -2.815016e+02
   2.713382e+02  -3.097966e+02
   3.359802e+02  -1.331158e+02
   2.421521e+02   1.830155e+02
   4.496228e+01   3.874405e+02
  -1.028143e+02   3.317443e+02
  -8.615941e+01   1.334576e+02
  -3.813607e+01   3.846948e+01
  -9.409064e+01   9.314129e+01
  -2.264061e+02   8.593200e+01
  -2.591041e+02  -9.406782e+01
  -1.211721e+02  -2.743283e+02
   9.263635e+01  -2.286618e+02
   2.187225e+02   3.376655e+01
   1.624574e+02   2.627575e+02
  -5.094523e+01   2.759113e+02
  -2.734301e+02   6.851466e+01
  -3.363226e+02  -2.020035e+02
  -1.595960e+02  -3.420565e+02
   1.077870e+02  -2.880134e+02
   2.257757e+02  -1.267990e+02
   1.666830e+02  -2.618571e+01
   1.226767e+02  -4.052088e+01
   2.426500e+02  -4.949702e+01
   4.026491e+02   9.081666e+01
   3.327675e+02   3.186263e+02
  -2.545823e+01   4.673603e+02
  -4.043718e+02   4.181633e+02
  -5.232242e+02   1.598349e+02
  -3.163079e+02  -1.292487e+02
  -2.616211e+01  -2.895494e+02
   1.219559e+02  -2.180590e+02
   4.774091e+01  -3.307989e+01
  -1.131474e+02   6.220487e+01
  -1.586989e+02  -3.293411e+01
  -2.045404e+01  -1.711780e+02
   1.402159e+02  -1.602346e+02
   1.491064e+02   6.128411e+01
  -2.823841e+01   1.546647e+02
  -1.795765e+02   1.003542e+01
  -1.504845e+02  -2.438710e+02
   4.466026e+01  -3.380707e+02
   2.566886e+02  -1.817844e+02
   3.423020e+02   8.774369e+01
   2.538073e+02   2.709043e+02
   5.754870e+01   2.697382e+02
  -1.302417e+02   1.412691e+02
  -1.605554e+02   7.008037e+00
  -4.266015e+01  -2.284072e+01
   5.675012e+01   5.434171e+01
   4.285182e+00   1.165662e+02
  -1.303534e+02   7.232657e+01
  -1.579233e+02  -2.815667e+01
  -3.458844e+01  -6.943168e+01
   8.263423e+01   4.953915e+00
   4.062848e+01   9.349283e+01
  -1.507612e+02   9.163567e+01
  -2.980716e+02  -2.164352e+01
  -2.481228e+02  -1.734221e+02
  -2.353462e+01  -2.663523e+02
   2.111459e+02  -2.416469e+02
   2.789921e+02  -1.023840e+02
   1.473931e+02   5.877699e+01
  -3.184310e+01   9.457745e+01
  -7.641011e+01   2.334965e-01
   4.847122e+01  -8.929043e+01
   1.884579e+02  -4.172513e+01
   1.921363e+02   1.099562e+02
   4.949073e+01   2.002807e+02
  -9.897056e+01   1.395139e+02
  -1.320827e+02   1.097200e+01
  -5.146935e+01  -4.352301e+01
   3.667365e+01   1.236972e+01
   2.364508e+01   1.014632e+02
  -9.186543e+01   1.093554e+02
  -2.045611e+02   8.504963e+00
  -1.782394e+02  -1.404979e+02
  -6.711042e+00  -2.177529e+02
   1.667064e+02  -1.529981e+02
   1.875248e+02   2.942385e+00
   5.620584e+01   1.134920e+02
  -7.077243e+01   1.020163e+02
  -7.913191e+01   2.068226e+01
  -7.966844e+00  -3.055583e+01
   3.262158e+01  -1.228023e+01
  -9.553121e+00   2.330468e+01
  -8.090910e+01  -2.857036e+00
  -9.250327e+01  -9.164481e+01
  -1.612890e+00  -1.674300e+02
   1.431584e+02  -1.414564e+02
   2.368467e+02  -1.371291e+00
   1.856423e+02   1.684142e+02
   1.711364e+01   2.401047e+02
  -1.226027e+02   1.601831e+02
  -1.389119e+02   1.775472e+01
  -6.883372e+01  -5.433107e+01
  -2.619172e+01  -3.143281e+01
  -5.531847e+01   1.660308e+01
  -8.271436e+01  -3.798035e+00
  -4.487756e+01  -6.142791e+01
   4.940677e+01  -8.845651e+01
   1.182859e+02  -5.103390e+01
   9.078274e+01   4.982517e+01
  -2.613650e+01   1.197606e+02
  -1.553646e+02   7.796183e+01
  -1.907653e+02  -7.031619e+01
  -7.317863e+01  -2.074031e+02
   1.286811e+02  -2.127539e+02
   2.711651e+02  -9.423826e+01
   2.365757e+02   1.008768e+02
   9.295564e+01   1.798586e+02
  -4.662037e+01   1.410793e+02
  -9.745191e+01   7.826814e+01
  -8.069750e+01   6.717561e+01
  -6.970056e+01   8.990717e+01
  -9.693553e+01   7.120988e+01
  -1.304993e+02  -2.673353e+01
  -1.097500e+02  -1.589586e+02
  -1.668088e+01  -2.248864e+02
   1.061003e+02  -1.615062e+02
   1.740843e+02  -5.042329e+00
   1.266559e+02   1.308887e+02
   6.220997e+00   1.560784e+02
  -7.677404e+01   7.945715e+01
  -5.949318e+01  -1.350808e+01
   3.446552e+00  -4.782083e+01
   1.972578e+01  -3.121377e+01
  -3.292177e+01  -1.462901e+01
  -7.955681e+01  -2.604199e+01
  -4.136877e+01  -3.883905e+01
   7.546508e+01  -3.499522e+01
   1.648508e+02   7.854625e+00
   1.337567e+02   6.627453e+01
  -5.682231e+00   9.818149e+01
  -1.371844e+02   7.025101e+01
  -1.501149e+02  -4.232368e+00
  -4.069423e+01  -5.437068e+01
   6.562305e+01  -4.076744e+01
   8.499875e+01   2.018693e+01
   8.236210e+00   7.517107e+01
  -5.584465e+01   5.777950e+01
  -6.768245e+01  -6.504312e+00
  -4.741142e+01  -5.370735e+01
  -4.090280e+01  -3.723254e+01
  -5.328279e+01   1.218684e+00
  -6.522220e+01  -2.480331e+00
  -3.969255e+01  -7.608909e+01
   3.967870e+01  -1.523556e+02
   1.333082e+02  -1.326198e+02
   1.770887e+02  -1.190485e+01
   1.191795e+02   1.064182e+02
  -9.924682e+00   1.320118e+02
  -9.878324e+01   6.097071e+01
  -6.162200e+01  -2.046119e+01
   5.686492e+01  -2.445359e+01
   1.302281e+02   3.727494e+01
   6.592251e+01   1.062900e+02
  -8.696530e+01   1.088978e+02
  -1.881511e+02   3.873072e+01
  -1.526781e+02  -4.820366e+01
  -2.839612e+01  -8.950003e+01
   6.463965e+01  -6.333638e+01
   4.437986e+01  -8.997359e-01
  -4.336740e+01   2.672693e+01
  -8.925734e+01  -2.637980e+01
  -2.832729e+01  -1.200699e+02
   9.355296e+01  -1.508770e+02
   1.631822e+02  -5.585170e+01
   1.217662e+02   1.043660e+02
   6.374068e+00   1.920862e+02
  -8.508086e+01   1.362347e+02
  -9.918718e+01  -1.504591e+01
  -5.196725e+01  -1.186451e+02
   7.742786e+00  -9.755520e+01
   4.610469e+01  -1.503464e+01
   4.584137e+01   2.972193e+01
   2.066392e+01   3.678665e+00
   1.009360e+01  -1.766696e+01
   2.909418e+01   2.584556e+01
   5.288151e+01   9.616756e+01
   2.367969e+01   1.077310e+02
  -6.185344e+01   4.089378e+01
  -1.358291e+02  -4.626089e+01
  -1.209975e+02  -7.799066e+01
  -1.086342e+01  -5.707802e+01
   8.953077e+01  -2.388591e+01
   8.907465e+01  -8.827389e-01
   1.252843e+01   1.134698e+01
  -3.749813e+01   1.901817e+01
  -1.550691e+01   1.176309e+01
   2.068215e+01  -2.567818e+00
  -3.950073e+00  -2.689345e+00
  -7.187119e+01   1.450475e+00
  -8.903081e+01  -2.502829e+01
  -1.187479e+01  -8.308023e+01
   1.102367e+02  -1.136963e+02
   1.834017e+02  -5.614245e+01
   1.436889e+02   6.309664e+01
   2.533687e+01   1.547728e+02
  -8.071876e+01   1.443695e+02
  -1.100168e+02   5.529991e+01
  -7.241763e+01  -2.507863e+01
  -2.090373e+01  -3.860164e+01
  -1.522179e+00  -1.189317e+01
  -1.306398e+01  -6.567346e+00
  -3.172213e+01  -5.123777e+01
  -1.383719e+01  -8.931569e+01
   3.547376e+01  -6.768398e+01
   8.019659e+01   2.367859e+01
   7.279391e+01   1.088960e+02
   2.534540e+00   1.086096e+02
  -8.253632e+01   2.305703e+01
  -1.005908e+02  -7.567243e+01
  -2.720550e+01  -1.053545e+02
   7.299509e+01  -5.567295e+01
   1.016664e+02   1.711205e+01
   3.869859e+01   6.008344e+01
  -3.900233e+01   5.608047e+01
  -3.883230e+01   2.354322e+01
   2.863737e+01  -4.166673e+00
   6.228744e+01  -5.256804e+00
   1.161958e+01   2.870863e+01
  -7.979627e+01   6.125721e+01
  -1.171889e+02   4.538204e+01
  -6.636845e+01  -2.382809e+01
   1.913428e+01  -8.438171e+01
   5.854025e+01  -7.519157e+01
   4.131368e+01  -4.184778e+00
   1.967715e-01   5.381167e+01
  -2.693027e+01   4.324330e+01
  -3.552131e+01  -1.541936e+01
  -2.464457e+01  -5.321085e+01
   2.986897e+00  -3.298677e+01
   3.030393e+01   8.660167e+00
   3.639365e+01   2.103748e+01
   1.863279e+01  -2.014731e+00
  -7.152260e-01  -2.031826e+01
  -2.618162e+00  -3.663754e+00
   2.381129e+00   3.679537e+01
  -6.562750e+00   5.112825e+01
  -3.080670e+01   1.486925e+01
  -3.778753e+01  -4.296489e+01
  -6.037927e+00  -6.127754e+01
   4.379700e+01  -2.137693e+01
   5.885874e+01   3.819228e+01
   1.197267e+01   6.165570e+01
  -5.979573e+01   3.134936e+01
  -9.020865e+01  -1.674335e+01
  -4.381004e+01  -4.519472e+01
   3.575662e+01  -4.353181e+01
   6.748686e+01  -2.097891e+01
   2.526435e+01  -1.101409e+00
  -3.525817e+01   3.141930e+00
  -3.530131e+01  -1.190064e+01
   2.858286e+01  -2.871081e+01
   8.361733e+01  -1.722314e+01
