
 $NMID
 id='ANONYMOUS ', fmtdat='(2E16.6)'
 volume=1.0
 tramp=1.0
 $END
  -1.664629e+03  -6.625010e+02
  -9.698763e+02  -9.257125e+02
   7.570003e+00  -9.874687e+02
   5.699236e+02  -7.799419e+02
   5.459411e+02  -3.361856e+02
   1.701426e+02  -6.372195e+01
  -4.112801e+01  -3.592230e+01
   3.681619e+01  -1.580785e+02
   2.531180e+02  -2.107400e+02
   3.225892e+02  -3.244741e+01
   2.512879e+02   2.907672e+02
   5.614647e+00   3.388087e+02
  -1.306676e+02   1.019917e+02
  -8.612571e+01  -2.344802e+02
   6.185620e+01  -3.635742e+02
   2.347905e+02  -5.185293e+01
   1.730950e+02   2.915180e+02
  -6.151341e+01   3.860040e+02
  -2.717506e+02   2.019663e+02
  -2.677932e+02  -1.035370e+02
  -7.628915e+01  -2.412867e+02
   6.502021e+01  -1.299815e+02
   1.142829e+01  -1.581262e+01
  -1.504610e+02  -9.033654e+01
  -1.554508e+02  -2.522734e+02
   9.072504e+01  -2.533898e+02
   3.341222e+02  -1.235165e+01
   3.227831e+02   2.372973e+02
   3.517376e+01   2.360460e+02
  -2.502285e+02   1.318233e+01
  -2.734859e+02  -2.159623e+02
  -4.546103e+01  -2.584907e+02
   2.181327e+02  -1.610747e+02
   3.051319e+02  -1.402504e+01
   1.897322e+02   1.233476e+02
   1.960369e+01   1.615116e+02
  -2.726658e+00   7.074874e+01
   9.314002e+01  -3.591482e+01
   1.579761e+02  -1.276308e+01
   7.443293e+01   1.676682e+02
  -1.120493e+02   2.929309e+02
  -2.160238e+02   1.770333e+02
  -1.324426e+02  -4.896413e+01
   2.381997e+01  -1.515156e+02
   1.001936e+02  -8.822825e+00
   1.602650e+01   2.101312e+02
  -1.539560e+02   2.153724e+02
  -2.863019e+02  -2.231442e+01
  -2.680412e+02  -2.755215e+02
  -6.154894e+01  -3.236767e+02
   2.038548e+02  -1.360244e+02
   3.081161e+02   7.475511e+01
   1.836495e+02   1.576038e+02
  -1.722639e+01   1.041243e+02
  -1.407599e+02   4.198925e+01
  -1.276115e+02   1.977668e+01
  -4.570889e+01   2.655229e+01
  -1.739223e+01   1.528465e+01
  -6.891965e+01  -2.773137e+01
  -1.024449e+02  -6.265754e+01
  -4.853103e+01  -1.061474e+02
   1.048184e+02  -1.381734e+02
   2.363516e+02  -8.352394e+01
   2.073176e+02   8.903814e+01
  -2.108000e+01   2.584016e+02
  -2.592115e+02   2.534459e+02
  -2.932995e+02   5.811787e+01
  -1.379279e+02  -1.544445e+02
   2.033022e+01  -2.267378e+02
   3.362953e+01  -1.766742e+02
  -6.782844e+00  -1.111807e+02
   2.196499e+01  -1.079049e+02
   1.301401e+02  -9.039755e+01
   2.000600e+02   1.295468e+00
   1.506251e+02   1.315674e+02
   1.320279e+01   1.869320e+02
  -9.730236e+01   1.042179e+02
  -1.190421e+02  -5.790653e+01
  -4.894147e+01  -1.865192e+02
   6.826427e+01  -1.604796e+02
   1.685695e+02  -9.002106e+00
   1.744209e+02   1.393195e+02
   8.539583e+01   1.899853e+02
  -3.349406e+01   1.542784e+02
  -8.433970e+01   9.395776e+01
  -8.342585e+01   6.947742e+01
  -1.183354e+02   5.362657e+01
  -2.101137e+02   5.758760e+00
  -2.706383e+02  -1.024751e+02
  -1.797102e+02  -2.228473e+02
   5.123755e+01  -2.768066e+02
   2.746268e+02  -2.199874e+02
   3.309543e+02  -6.145409e+01
   1.730506e+02   9.469690e+01
  -2.072331e+01   1.617706e+02
  -7.686606e+01   1.076780e+02
   2.284598e+00   2.107227e+01
   8.501047e+01   2.935726e+00
   6.955613e+01   5.486306e+01
  -1.855311e+01   8.317064e+01
  -7.529266e+01   5.694187e+01
  -4.607853e+01  -4.601040e+01
   3.810907e+01  -7.580604e+01
   9.716967e+01   2.431867e+01
   7.399335e+01   1.661110e+02
  -3.726629e+01   2.272856e+02
  -1.790326e+02   1.331284e+02
  -2.531066e+02  -5.888326e+01
  -1.822419e+02  -1.983905e+02
  -1.614312e+01  -2.013547e+02
   1.047273e+02  -8.793711e+01
   9.457452e+01   9.747227e+00
   1.265888e+01   1.279497e+01
  -2.995596e+01  -5.177500e+01
   2.021088e+01  -7.814590e+01
   9.380851e+01  -3.066505e+01
   9.411001e+01   3.370785e+01
   9.481882e+00   3.723653e+01
  -5.582768e+01  -1.903739e+01
  -1.821081e+01  -6.910459e+01
   1.076703e+02  -5.006759e+01
   2.031488e+02   4.333455e+01
   1.611768e+02   1.464316e+02
  -1.456138e+01   1.862745e+02
  -1.746010e+02   1.330390e+02
  -1.904251e+02   2.584368e+01
  -7.669903e+01  -4.886031e+01
   3.419039e+01  -4.581670e+01
   4.021242e+01   1.379987e+01
  -4.857803e+01   4.570441e+01
  -1.218736e+02   3.683034e+00
  -1.128899e+02  -7.758976e+01
  -2.418335e+01  -1.206615e+02
   6.400655e+01  -7.954673e+01
   8.152281e+01  -1.063429e+00
   2.456378e+01   2.952157e+01
  -3.519952e+01  -2.205061e+01
  -1.280269e+01  -8.715868e+01
   8.399312e+01  -8.166304e+01
   1.553999e+02   9.523659e+00
   1.144360e+02   1.120770e+02
  -1.372188e+01   1.451521e+02
  -1.139261e+02   8.865488e+01
  -1.096184e+02  -7.086742e+00
  -2.498749e+01  -6.451355e+01
   4.408762e+01  -5.213284e+01
   4.032243e+01  -5.560813e+00
  -4.345396e+00   2.087142e+01
  -3.175042e+01   2.829746e+00
   6.240908e+00  -2.454082e+01
   6.548562e+01  -4.149151e+00
   7.140706e+01   6.913581e+01
  -7.500348e+00   1.289593e+02
  -1.192819e+02   9.586727e+01
  -1.716537e+02  -1.934153e+01
  -1.182614e+02  -1.319756e+02
  -3.854629e+00  -1.571152e+02
   8.217472e+01  -9.545395e+01
   8.646558e+01  -1.101629e+01
   4.423633e+01   2.979033e+01
   2.261624e+01   1.865119e+01
   4.328408e+01  -8.960737e+00
   6.192017e+01   5.146842e+00
   3.965592e+01   4.763837e+01
  -3.175970e+01   8.111896e+01
  -9.342878e+01   4.392971e+01
  -8.263301e+01  -3.915500e+01
   1.698540e+01  -9.505315e+01
   1.235637e+02  -6.051063e+01
   1.446864e+02   5.638073e+01
   4.679636e+01   1.576206e+02
  -1.000720e+02   1.499915e+02
  -1.950262e+02   5.672097e+01
  -1.516392e+02  -8.660536e+01
  -4.121408e+01  -1.224590e+02
   4.114801e+01  -8.533246e+01
   6.023242e+01  -3.778946e+01
   4.262380e+01  -3.821692e+01
   4.320539e+01  -6.280141e+01
   6.961265e+01  -5.101960e+01
   9.019382e+01   1.954249e+01
   7.147217e+01   1.139406e+02
  -3.657305e+00   1.558350e+02
  -8.582698e+01   1.040823e+02
  -1.165376e+02  -1.131321e+01
  -7.121357e+01  -1.040541e+02
   1.270244e+01  -1.091309e+02
   6.624183e+01  -4.459317e+01
   4.749225e+01   2.356985e+01
  -6.688179e+00   4.373071e+01
  -2.914076e+01   2.762484e+01
   1.028429e+01   9.756731e+00
   5.517624e+01   1.432589e+01
   2.966553e+01   3.070132e+01
  -5.808187e+01   2.354985e+01
  -1.249590e+02  -1.713848e+01
  -9.306689e+01  -6.458694e+01
   1.232670e+01  -7.458635e+01
   1.003126e+02  -3.819823e+01
   1.001669e+02   1.186243e+01
   2.678967e+01   4.064699e+01
  -4.331181e+01   2.872894e+01
  -6.110628e+01  -1.351361e+01
  -1.366593e+01  -5.154881e+01
   3.317421e+01  -4.297562e+01
   4.956664e+01   2.182366e-01
   3.970071e+01   3.695163e+01
   2.823594e+01   3.539719e+01
   2.986549e+01   1.009782e+01
   3.932560e+01   5.673866e+00
   2.756963e+01   4.975706e+01
  -2.998004e+01   9.753798e+01
  -9.898085e+01   9.015218e+01
  -1.294096e+02   1.294907e+01
  -8.230319e+01  -7.293465e+01
   9.462001e+00  -9.300218e+01
   6.875347e+01  -4.364642e+01
   3.946938e+01   9.552914e+00
  -4.095159e+01   9.084991e+00
  -8.683232e+01  -3.501698e+01
  -3.731473e+01  -7.573772e+01
   6.461753e+01  -6.772879e+01
   1.265400e+02  -1.421881e+01
   9.937377e+01   4.405345e+01
   1.294889e+01   6.124127e+01
  -5.028836e+01   3.306803e+01
  -3.625638e+01  -1.260005e+01
   2.689248e+01  -2.220736e+01
   6.114977e+01   1.778938e+01
   2.203684e+01   7.806357e+01
  -5.911163e+01   9.786998e+01
  -1.032718e+02   3.692714e+01
  -7.816097e+01  -6.886656e+01
   1.125902e+00  -1.284540e+02
   6.487581e+01  -8.667246e+01
   7.208135e+01   1.774589e+01
   2.375854e+01   8.758529e+01
  -2.347067e+01   6.813866e+01
  -3.952897e+01   5.048646e+00
  -2.523494e+01  -2.783609e+01
  -5.910231e+00  -7.310396e+00
  -6.456224e+00   1.121414e+01
  -2.290256e+01  -1.453860e+01
  -3.382136e+01  -6.378111e+01
  -9.139045e+00  -7.009443e+01
   4.174874e+01  -2.682454e+01
   8.361698e+01   3.430773e+01
   7.563833e+01   5.707571e+01
   1.252085e+01   4.256631e+01
  -5.144207e+01   1.476324e+01
  -5.957690e+01  -2.097773e+00
  -1.781801e+01  -1.071082e+01
   2.184014e+01  -1.074157e+01
   1.971356e+01  -6.121265e+00
  -5.637316e+00   1.049739e+00
  -1.711070e+00   4.986436e-01
   3.757655e+01  -7.979887e-01
   5.934636e+01   1.764394e+01
   1.832141e+01   5.246539e+01
  -6.308837e+01   7.311506e+01
  -1.216338e+02   4.770739e+01
  -1.023743e+02  -3.020678e+01
  -2.189413e+01  -9.862332e+01
   5.450354e+01  -1.042673e+02
   7.696112e+01  -4.652624e+01
   5.134967e+01   1.589392e+01
   1.717173e+01   3.089568e+01
   3.071935e+00   1.339869e+01
   8.667019e+00   6.242244e+00
   1.361656e+01   3.659379e+01
   2.592353e+00   6.004352e+01
  -2.300975e+01   4.901551e+01
  -5.115564e+01  -1.061844e+01
  -5.420145e+01  -6.817098e+01
  -1.394020e+01  -7.615603e+01
   4.828479e+01  -2.563340e+01
   7.084576e+01   4.087069e+01
   2.827111e+01   7.340568e+01
  -4.371743e+01   4.653115e+01
  -7.222332e+01  -7.683305e+00
  -3.434967e+01  -4.578083e+01
   2.278826e+01  -4.553814e+01
   2.898087e+01  -2.033519e+01
  -1.256688e+01   2.522653e+00
  -4.260863e+01   1.535254e+00
  -1.128345e+01  -2.264493e+01
   5.465028e+01  -4.133374e+01
   8.745710e+01  -2.513186e+01
   5.183566e+01   1.803061e+01
  -1.257980e+01   5.929822e+01
  -4.519856e+01   5.489401e+01
  -3.475334e+01   6.047639e+00
  -2.308101e+00  -3.702414e+01
   2.166886e+01  -3.385250e+01
   2.584895e+01   7.496814e+00
   1.561793e+01   4.130623e+01
  -4.456639e+00   3.131330e+01
  -2.369861e+01  -4.718050e+00
  -2.846002e+01  -2.462965e+01
  -1.266067e+01  -9.226615e+00
   4.756814e+00   1.414659e+01
   5.587511e+00   1.329703e+01
  -5.045557e+00  -1.444020e+01
  -4.982670e+00  -3.490236e+01
   1.408520e+01  -1.948916e+01
   2.734438e+01   1.772692e+01
   1.120966e+01   3.780212e+01
  -2.630800e+01   1.848133e+01
  -4.367516e+01  -2.209103e+01
  -1.528462e+01  -4.185242e+01
   3.861748e+01  -2.539584e+01
   6.401829e+01   7.518231e+00
   3.641555e+01   3.015683e+01
  -1.730610e+01   3.158818e+01
  -4.257708e+01   2.030766e+01
  -2.036526e+01   5.131394e+00
   1.537363e+01  -1.642734e+00
   1.990356e+01   3.218141e+00
  -1.396074e+01   1.483413e+01
  -4.865562e+01   1.115815e+01
