
 $NMID
 id='ANONYMOUS ', fmtdat='(2E16.6)'
 volume=1.0
 tramp=1.0
 $END
   2.082705e+03   5.294326e+02
   1.168666e+03   1.188112e+03
  -1.010074e+02   1.272202e+03
  -7.549265e+02   8.079278e+02
  -6.719506e+02   2.166499e+02
  -1.520574e+02  -3.760012e+01
   1.381597e+02   4.948672e+01
  -2.095751e+01   2.809547e+02
  -3.560877e+02   3.154928e+02
  -4.357834e+02   1.305519e+01
  -3.011171e+02  -3.860167e+02
   4.639350e+01  -4.374755e+02
   2.187573e+02  -1.000875e+02
   1.163738e+02   3.055949e+02
  -1.194468e+02   4.266382e+02
  -3.076331e+02   2.556695e+01
  -1.861340e+02  -3.834148e+02
   1.450823e+02  -4.603191e+02
   3.671607e+02  -1.972294e+02
   3.242316e+02   1.617970e+02
   7.770218e+01   3.054695e+02
  -1.060777e+02   1.567373e+02
  -3.182050e+01   1.274198e+01
   1.585815e+02   9.799354e+01
   1.746011e+02   2.981917e+02
  -9.683153e+01   3.035348e+02
  -3.907531e+02   3.949357e+01
  -3.938614e+02  -2.639826e+02
  -8.033072e+01  -3.022931e+02
   2.729504e+02  -6.259867e+01
   3.324155e+02   2.076756e+02
   7.090106e+01   3.096510e+02
  -2.587982e+02   2.065430e+02
  -3.704200e+02   1.166006e+01
  -2.205428e+02  -1.748674e+02
  -1.207399e+01  -2.221127e+02
   3.807770e+01  -1.099685e+02
  -8.040012e+01   5.677272e+01
  -1.791781e+02   4.662924e+01
  -1.103998e+02  -1.765077e+02
   1.051981e+02  -3.663336e+02
   2.577883e+02  -2.424975e+02
   2.096323e+02   6.307877e+01
   6.207579e+00   2.074185e+02
  -1.206872e+02   4.716466e+01
  -6.119950e+01  -2.322872e+02
   1.491726e+02  -2.559430e+02
   3.356326e+02   2.712201e+01
   3.084961e+02   3.303547e+02
   6.460365e+01   3.957675e+02
  -2.512624e+02   1.676456e+02
  -3.661729e+02  -9.610760e+01
  -2.202058e+02  -2.153047e+02
   4.321576e+01  -1.420241e+02
   1.867489e+02  -3.797470e+01
   1.489426e+02   8.212734e+00
   3.044317e+01  -1.078063e+01
  -1.915763e+00  -3.455342e+01
   8.436711e+01   5.129417e-01
   1.552631e+02   6.793875e+01
   7.465057e+01   1.418733e+02
  -1.322949e+02   1.737828e+02
  -2.925350e+02   7.928196e+01
  -2.391318e+02  -1.160880e+02
   3.488947e+01  -2.830275e+02
   2.982713e+02  -2.719173e+02
   3.397054e+02  -6.315910e+01
   1.615544e+02   1.693591e+02
  -2.741459e+01   2.681792e+02
  -5.942473e+01   2.205743e+02
  -1.257909e+01   1.380671e+02
  -3.810235e+01   1.095156e+02
  -1.355247e+02   8.502375e+01
  -2.161393e+02  -2.046187e+00
  -1.698233e+02  -1.408463e+02
  -2.404515e+01  -2.162138e+02
   1.116781e+02  -1.338485e+02
   1.433311e+02   6.147384e+01
   6.360629e+01   2.174455e+02
  -7.603928e+01   1.943631e+02
  -2.012661e+02   1.152751e+01
  -2.115817e+02  -1.747047e+02
  -9.679514e+01  -2.376004e+02
   5.406249e+01  -1.860776e+02
   1.220033e+02  -1.011279e+02
   1.093677e+02  -6.141256e+01
   1.278822e+02  -4.932314e+01
   2.219571e+02  -5.241252e+00
   3.063973e+02   1.180661e+02
   2.163622e+02   2.677878e+02
  -5.611537e+01   3.385906e+02
  -3.289776e+02   2.585635e+02
  -3.978720e+02   6.607874e+01
  -2.136009e+02  -1.228337e+02
   2.373202e+01  -1.965255e+02
   9.967295e+01  -1.353152e+02
   1.095366e+01  -3.148816e+01
  -9.801803e+01   2.050460e+00
  -8.551949e+01  -5.924091e+01
   1.744979e+01  -1.017793e+02
   9.912840e+01  -7.150259e+01
   6.613357e+01   5.440868e+01
  -3.698327e+01   9.923772e+01
  -1.213128e+02  -1.694807e+01
  -9.218734e+01  -1.988979e+02
   5.126208e+01  -2.753915e+02
   2.184932e+02  -1.521551e+02
   2.892488e+02   8.352444e+01
   2.022508e+02   2.433993e+02
   1.280658e+01   2.345577e+02
  -1.248180e+02   9.716372e+01
  -1.179107e+02  -1.243806e+01
  -2.163094e+01  -1.610255e+01
   3.125851e+01   5.974219e+01
  -2.367612e+01   9.346563e+01
  -1.113937e+02   3.528886e+01
  -1.107423e+02  -4.388940e+01
  -1.086111e+01  -4.940078e+01
   6.973862e+01   1.889973e+01
   2.016252e+01   8.158817e+01
  -1.302357e+02   5.401365e+01
  -2.361633e+02  -5.951941e+01
  -1.819697e+02  -1.745696e+02
   1.826942e+01  -2.144121e+02
   1.995589e+02  -1.528908e+02
   2.195193e+02  -2.614892e+01
   9.220178e+01   6.308377e+01
  -4.028105e+01   5.521011e+01
  -5.111187e+01  -2.006179e+01
   5.433194e+01  -5.884336e+01
   1.407690e+02  -1.649591e+00
   1.295537e+02   1.021584e+02
   1.915330e+01   1.491276e+02
  -8.080220e+01   9.014156e+01
  -9.452798e+01  -7.121140e+00
  -2.558203e+01  -4.021887e+01
   3.813605e+01   2.301629e+01
   1.288842e+01   9.862232e+01
  -9.402093e+01   9.280801e+01
  -1.748419e+02  -1.031762e+01
  -1.311093e+02  -1.291756e+02
   1.874680e+01  -1.680319e+02
   1.377032e+02  -9.989577e+01
   1.347661e+02   1.346367e+01
   2.995424e+01   7.764215e+01
  -5.877798e+01   6.271881e+01
  -5.614257e+01   6.387929e+00
   1.075831e+00  -2.418676e+01
   3.551763e+01  -1.391396e+00
  -6.821747e+00   2.518860e+01
  -7.415556e+01  -2.934813e+00
  -7.950095e+01  -8.688749e+01
   1.128262e+01  -1.486761e+02
   1.397209e+02  -1.088119e+02
   1.985698e+02   2.487678e+01
   1.358132e+02   1.571471e+02
   2.072009e+00   1.881523e+02
  -1.015883e+02   1.128365e+02
  -1.039334e+02   1.066002e+01
  -5.178137e+01  -3.872933e+01
  -2.249277e+01  -2.457315e+01
  -4.990182e+01   7.557877e+00
  -7.282812e+01  -7.479557e+00
  -4.361076e+01  -5.487978e+01
   3.724990e+01  -9.219696e+01
   1.084210e+02  -4.668303e+01
   9.322669e+01   4.668682e+01
  -2.233942e+01   1.069490e+02
  -1.427854e+02   6.221288e+01
  -1.642444e+02  -7.283147e+01
  -4.620771e+01  -1.871188e+02
   1.256760e+02  -1.697267e+02
   2.299020e+02  -5.327231e+01
   1.814270e+02   1.055469e+02
   4.957145e+01   1.449157e+02
  -5.042326e+01   1.005491e+02
  -7.534076e+01   4.587704e+01
  -5.994613e+01   4.463608e+01
  -5.722741e+01   6.631137e+01
  -8.285543e+01   5.528557e+01
  -1.042170e+02  -2.548649e+01
  -8.233649e+01  -1.345742e+02
   4.884712e+00  -1.854078e+02
   1.055642e+02  -1.271337e+02
   1.447639e+02   1.165445e+01
   8.684223e+01   1.265036e+02
  -1.754328e+01   1.346759e+02
  -8.120173e+01   5.554301e+01
  -5.697860e+01  -2.587298e+01
   8.881140e+00  -4.834144e+01
   3.239278e+01  -2.971300e+01
  -1.529553e+01  -1.370399e+01
  -6.484974e+01  -2.514175e+01
  -3.485184e+01  -4.040985e+01
   6.481292e+01  -2.784475e+01
   1.405828e+02   2.310137e+01
   1.075520e+02   7.619583e+01
  -1.334114e+01   8.687805e+01
  -1.171059e+02   4.227535e+01
  -1.185117e+02  -1.835399e+01
  -3.413935e+01  -5.080567e+01
   5.077191e+01  -3.182880e+01
   6.929675e+01   1.742013e+01
   1.213026e+01   6.134908e+01
  -4.133359e+01   5.059036e+01
  -5.785149e+01  -1.579699e+00
  -4.522637e+01  -4.760008e+01
  -3.046674e+01  -4.534915e+01
  -3.301446e+01  -1.288051e+01
  -4.459962e+01  -7.602746e+00
  -3.264992e+01  -5.705286e+01
   3.378412e+01  -1.146008e+02
   1.163808e+02  -1.062944e+02
   1.550698e+02  -1.069381e+01
   9.872371e+01   8.944111e+01
  -1.209690e+01   1.094895e+02
  -8.280218e+01   4.838318e+01
  -4.980991e+01  -1.249558e+01
   4.512833e+01  -6.252460e+00
   9.699055e+01   4.866377e+01
   4.039514e+01   9.083326e+01
  -7.973200e+01   7.655950e+01
  -1.545789e+02   1.143740e+01
  -1.172784e+02  -5.662856e+01
  -1.381674e+01  -7.509532e+01
   5.984114e+01  -3.984070e+01
   3.975175e+01   1.147094e+01
  -3.367689e+01   2.287957e+01
  -7.052083e+01  -2.361196e+01
  -1.968223e+01  -9.441263e+01
   7.787560e+01  -1.147485e+02
   1.296712e+02  -4.160299e+01
   9.320088e+01   8.676363e+01
  -4.777393e+00   1.550236e+02
  -8.147193e+01   1.038383e+02
  -8.443524e+01  -2.133197e+01
  -2.865875e+01  -1.029401e+02
   2.687213e+01  -7.825305e+01
   4.542713e+01  -3.187805e+00
   2.876129e+01   3.460491e+01
   8.548408e+00   9.464618e+00
   7.597241e+00  -1.337941e+01
   2.384812e+01   1.599574e+01
   3.535030e+01   7.549164e+01
   9.868979e+00   8.689297e+01
  -4.923403e+01   3.260431e+01
  -1.015541e+02  -4.313904e+01
  -9.302773e+01  -7.130133e+01
  -1.536555e+01  -5.290919e+01
   6.290077e+01  -1.776962e+01
   7.160839e+01   2.851985e+00
   2.037662e+01   1.146793e+01
  -2.478833e+01   1.378386e+01
  -2.100970e+01   9.426826e+00
   7.469511e+00   4.111963e-01
  -2.991040e-01  -2.685069e+00
  -4.652966e+01  -2.874821e+00
  -6.896397e+01  -2.215241e+01
  -1.706647e+01  -6.133511e+01
   8.028443e+01  -8.084923e+01
   1.476222e+02  -4.648941e+01
   1.209970e+02   4.609772e+01
   2.192358e+01   1.189421e+02
  -6.836412e+01   1.181464e+02
  -9.377629e+01   4.833232e+01
  -6.084442e+01  -2.080629e+01
  -1.991784e+01  -3.596807e+01
  -3.146710e+00  -1.308592e+01
  -1.051409e+01  -7.189003e+00
  -1.483376e+01  -4.072741e+01
  -4.457581e-01  -7.186235e+01
   2.894709e+01  -5.524224e+01
   5.703088e+01   1.516178e+01
   5.588581e+01   8.233197e+01
   9.153630e+00   8.935611e+01
  -6.000067e+01   2.521133e+01
  -8.276492e+01  -5.498643e+01
  -2.706182e+01  -8.848840e+01
   5.512971e+01  -5.082847e+01
   8.526987e+01   1.354556e+01
   3.559834e+01   5.302546e+01
  -3.205922e+01   5.013688e+01
  -3.543409e+01   2.074343e+01
   1.902225e+01  -1.850910e+00
   5.261810e+01  -4.350252e-01
   1.299778e+01   2.415298e+01
  -6.480169e+01   4.328763e+01
  -1.018657e+02   2.825102e+01
  -5.898004e+01  -2.108771e+01
   1.576635e+01  -6.808514e+01
   5.516431e+01  -6.158763e+01
   4.112921e+01  -7.192369e+00
   2.196604e+00   4.303388e+01
  -2.575681e+01   3.740878e+01
  -2.958313e+01  -1.079575e+01
  -1.701991e+01  -4.825658e+01
   6.271637e+00  -3.380589e+01
   2.810085e+01   6.902022e+00
   3.292098e+01   2.800677e+01
   1.465730e+01   1.016206e+01
  -3.890404e+00  -1.565188e+01
  -5.707821e+00  -1.110947e+01
   4.049231e+00   2.061461e+01
   9.569381e-01   4.257147e+01
  -1.990925e+01   2.102830e+01
  -3.213608e+01  -2.568115e+01
  -1.087367e+01  -4.745917e+01
   3.180546e+01  -2.115883e+01
   4.992919e+01   2.769701e+01
   1.418136e+01   4.938512e+01
  -4.608125e+01   2.691560e+01
  -7.270044e+01  -1.398313e+01
  -3.898172e+01  -3.846643e+01
   2.385989e+01  -3.667684e+01
   5.300235e+01  -2.027539e+01
   2.419253e+01  -3.761588e+00
  -1.764498e+01   3.360774e-01
  -2.312784e+01  -6.064254e+00
   1.797913e+01  -1.646451e+01
   5.998222e+01  -9.335028e+00
