
 $NMID
 id='ANONYMOUS ', fmtdat='(2E16.6)'
 volume=1.0
 tramp=1.0
 $END
   3.817040e+03   2.540336e+02
   2.300239e+03   2.158040e+03
  -4.913960e+02   2.418485e+03
  -1.766134e+03   9.126998e+02
  -9.388313e+02  -3.803535e+02
   3.946678e+02  -3.990177e+02
   6.183481e+02   3.201922e+02
  -6.779548e+01   8.103394e+02
  -7.234526e+02   5.719197e+02
  -7.879163e+02  -1.466245e+02
  -3.535453e+02  -7.440199e+02
   2.595206e+02  -7.156418e+02
   5.253096e+02  -5.916150e+01
   2.502542e+02   6.252615e+02
  -2.771154e+02   6.828374e+02
  -5.404006e+02  -3.859344e+01
  -2.045169e+02  -6.377248e+02
   3.379401e+02  -6.001958e+02
   5.579280e+02  -9.225393e+01
   3.556267e+02   3.405498e+02
  -9.791839e-01   4.087112e+02
  -2.361829e+02   1.912105e+02
  -1.340048e+02  -3.426198e+01
   1.621673e+02  -6.536349e+00
   3.171475e+02   2.360795e+02
   4.246206e+01   4.131668e+02
  -4.865328e+02   2.380730e+02
  -6.892804e+02  -2.295264e+02
  -2.419983e+02  -4.961746e+02
   4.052102e+02  -3.026967e+02
   6.085536e+02   1.694796e+02
   2.053508e+02   4.678582e+02
  -3.402874e+02   3.920850e+02
  -5.487600e+02   7.059534e+01
  -3.294403e+02  -2.758157e+02
   1.155330e+01  -4.039008e+02
   1.859544e+02  -1.903759e+02
   5.567960e+01   1.904608e+02
  -2.219444e+02   2.656070e+02
  -3.232605e+02  -1.389821e+02
  -4.137408e+01  -6.089211e+02
   3.772106e+02  -5.147056e+02
   4.835189e+02   7.627506e+01
   1.245234e+02   4.595357e+02
  -2.606263e+02   2.101739e+02
  -2.429450e+02  -3.004461e+02
   1.495461e+02  -4.440901e+02
   4.967436e+02  -4.805786e+01
   4.636099e+02   4.379517e+02
   7.977549e+01   5.677436e+02
  -3.936065e+02   2.685469e+02
  -5.581728e+02  -1.394568e+02
  -3.034724e+02  -3.708156e+02
   1.512968e+02  -3.006854e+02
   3.602704e+02  -2.436281e+01
   1.977963e+02   1.465453e+02
  -7.026912e+01   6.920847e+01
  -9.400623e+01  -1.114772e+02
   1.293234e+02  -1.057895e+02
   2.687468e+02   8.081944e+01
   1.057595e+02   2.343585e+02
  -2.035600e+02   2.189804e+02
  -3.460502e+02   5.120849e+01
  -2.093315e+02  -1.308732e+02
   6.544718e+01  -2.671270e+02
   3.151448e+02  -2.812737e+02
   3.802793e+02  -1.088004e+02
   2.414081e+02   1.943725e+02
  -9.137653e+00   4.068799e+02
  -1.448371e+02   3.418679e+02
  -9.663650e+01   1.293290e+02
  -4.602811e+01   2.742415e+01
  -1.059061e+02   7.481228e+01
  -2.303801e+02   5.504274e+01
  -2.393534e+02  -1.155851e+02
  -8.688495e+01  -2.714276e+02
   1.109401e+02  -2.117338e+02
   1.989744e+02   3.331432e+01
   1.254210e+02   2.497292e+02
  -6.436305e+01   2.673941e+02
  -2.620274e+02   5.449760e+01
  -3.094590e+02  -2.294471e+02
  -1.322250e+02  -3.609263e+02
   1.238070e+02  -2.756509e+02
   2.277990e+02  -9.747268e+01
   1.580076e+02  -1.132303e+01
   1.155779e+02  -2.313595e+01
   2.289516e+02  -1.136060e+01
   3.545189e+02   1.184237e+02
   2.641473e+02   3.105638e+02
  -6.674080e+01   4.156099e+02
  -3.945138e+02   3.291863e+02
  -4.808608e+02   1.050652e+02
  -2.855178e+02  -1.366834e+02
   2.940314e+00  -2.695362e+02
   1.475605e+02  -2.056987e+02
   5.640639e+01  -1.863679e+01
  -1.183908e+02   5.851007e+01
  -1.572337e+02  -5.057390e+01
  -1.069998e+01  -1.736855e+02
   1.554605e+02  -1.368647e+02
   1.369240e+02   7.625200e+01
  -3.484047e+01   1.542070e+02
  -1.741986e+02  -6.515901e+00
  -1.157691e+02  -2.559095e+02
   7.691892e+01  -3.302217e+02
   2.601240e+02  -1.621203e+02
   3.227382e+02   1.088644e+02
   2.370612e+02   2.788894e+02
   3.125935e+01   2.695168e+02
  -1.469762e+02   1.254742e+02
  -1.576180e+02  -1.700343e+01
  -3.477430e+01  -3.432863e+01
   5.510560e+01   5.786377e+01
  -5.321983e+00   1.220963e+02
  -1.331018e+02   6.522580e+01
  -1.515226e+02  -4.176743e+01
  -3.349663e+01  -7.177697e+01
   8.480752e+01   5.149705e+00
   3.756023e+01   8.628717e+01
  -1.442335e+02   7.406548e+01
  -2.782554e+02  -4.103847e+01
  -2.262064e+02  -1.839374e+02
  -4.747549e+00  -2.579612e+02
   2.266537e+02  -2.159874e+02
   2.793734e+02  -6.192273e+01
   1.359364e+02   7.703762e+01
  -4.448144e+01   8.972344e+01
  -7.713129e+01  -1.358296e+01
   5.659237e+01  -8.784291e+01
   1.876889e+02  -2.102881e+01
   1.740328e+02   1.262796e+02
   2.828067e+01   1.975045e+02
  -1.057212e+02   1.284681e+02
  -1.271955e+02   1.419635e+00
  -4.499097e+01  -4.963887e+01
   3.323967e+01   8.538810e+00
   1.637458e+01   9.782290e+01
  -9.797573e+01   1.031039e+02
  -1.972009e+02  -7.610028e+00
  -1.549451e+02  -1.525172e+02
   2.025046e+01  -2.104830e+02
   1.759089e+02  -1.278842e+02
   1.780220e+02   2.170942e+01
   4.397694e+01   1.126765e+02
  -7.498237e+01   9.420120e+01
  -7.835541e+01   1.396405e+01
  -1.038032e+01  -3.044960e+01
   3.024392e+01  -1.158110e+01
  -9.726596e+00   1.579309e+01
  -7.350143e+01  -1.219127e+01
  -7.728118e+01  -9.721729e+01
   1.710067e+01  -1.613526e+02
   1.564498e+02  -1.233295e+02
   2.251135e+02   2.197367e+01
   1.613410e+02   1.802595e+02
   4.291542e+00   2.301478e+02
  -1.244705e+02   1.426729e+02
  -1.325108e+02   9.955923e+00
  -6.401556e+01  -5.772668e+01
  -2.493425e+01  -3.694213e+01
  -5.480142e+01   4.339575e+00
  -8.048843e+01  -9.166186e+00
  -3.865901e+01  -5.967648e+01
   4.913241e+01  -8.922350e+01
   1.152427e+02  -4.101698e+01
   8.653686e+01   5.303877e+01
  -3.186194e+01   1.100542e+02
  -1.558089e+02   6.057848e+01
  -1.819591e+02  -8.695699e+01
  -5.517166e+01  -2.158490e+02
   1.454478e+02  -2.003781e+02
   2.755463e+02  -6.164214e+01
   2.317434e+02   1.323288e+02
   7.219892e+01   1.842058e+02
  -6.206092e+01   1.313480e+02
  -1.030326e+02   6.424544e+01
  -7.963791e+01   5.445239e+01
  -7.276869e+01   7.671683e+01
  -1.008626e+02   5.882212e+01
  -1.247442e+02  -3.845930e+01
  -9.535020e+01  -1.661053e+02
   7.009131e+00  -2.214242e+02
   1.264136e+02  -1.470783e+02
   1.715230e+02   1.029397e+01
   1.025034e+02   1.426669e+02
  -1.689047e+01   1.559108e+02
  -8.317433e+01   7.042404e+01
  -5.701954e+01  -2.026051e+01
   7.110182e+00  -4.779566e+01
   2.163515e+01  -2.969704e+01
  -2.949546e+01  -1.849288e+01
  -7.424113e+01  -3.095725e+01
  -3.562562e+01  -4.277086e+01
   7.290488e+01  -2.734188e+01
   1.561252e+02   2.112448e+01
   1.266779e+02   7.325463e+01
  -7.776069e+00   9.020379e+01
  -1.337162e+02   5.356438e+01
  -1.405482e+02  -1.352389e+01
  -3.780255e+01  -5.363649e+01
   6.340159e+01  -3.258186e+01
   7.555351e+01   2.497320e+01
   3.162492e+00   7.131181e+01
  -5.815730e+01   5.196900e+01
  -6.368392e+01  -1.101072e+01
  -4.256814e+01  -5.634243e+01
  -3.893295e+01  -4.681499e+01
  -5.411613e+01  -1.063915e+01
  -5.888831e+01  -7.637442e+00
  -2.913976e+01  -6.849042e+01
   4.870604e+01  -1.361507e+02
   1.333488e+02  -1.199974e+02
   1.709953e+02  -8.464104e+00
   1.071329e+02   1.074856e+02
  -1.544330e+01   1.256101e+02
  -9.537434e+01   5.107282e+01
  -5.792371e+01  -2.199573e+01
   5.496924e+01  -1.249913e+01
   1.178062e+02   5.688000e+01
   5.104827e+01   1.139150e+02
  -9.684372e+01   9.495942e+01
  -1.905396e+02   1.435801e+01
  -1.447283e+02  -6.602485e+01
  -1.747187e+01  -8.887584e+01
   7.211706e+01  -5.189453e+01
   4.770852e+01   6.541541e+00
  -4.259276e+01   2.331860e+01
  -8.623891e+01  -3.215879e+01
  -2.095244e+01  -1.181558e+02
   1.025219e+02  -1.372295e+02
   1.661044e+02  -4.472065e+01
   1.098141e+02   1.093593e+02
  -1.141744e+01   1.853481e+02
  -9.892486e+01   1.200982e+02
  -1.001378e+02  -2.886724e+01
  -3.816836e+01  -1.261713e+02
   2.637609e+01  -9.614545e+01
   5.274649e+01  -8.604273e+00
   4.344123e+01   3.862067e+01
   1.847571e+01   1.163396e+01
   7.640691e+00  -1.617903e+01
   2.124440e+01   2.019457e+01
   4.046558e+01   9.301324e+01
   1.729163e+01   1.081737e+02
  -5.718924e+01   3.720618e+01
  -1.253435e+02  -5.757400e+01
  -1.096820e+02  -9.167882e+01
  -7.349583e+00  -5.814573e+01
   8.569525e+01  -1.456397e+01
   8.447139e+01   7.574064e+00
   1.157480e+01   1.438556e+01
  -3.737475e+01   1.609145e+01
  -1.906250e+01   9.053594e+00
   1.692768e+01  -3.024262e+00
  -3.535448e+00  -7.036407e+00
  -6.366069e+01  -4.890696e+00
  -8.198976e+01  -3.051655e+01
  -5.205244e+00  -8.101616e+01
   1.214347e+02  -1.021474e+02
   1.866773e+02  -4.163243e+01
   1.338638e+02   7.675753e+01
   1.217276e+01   1.603736e+02
  -9.348054e+01   1.403167e+02
  -1.194526e+02   4.915835e+01
  -7.508945e+01  -3.010770e+01
  -2.010991e+01  -4.114968e+01
   7.347471e-01  -1.124745e+01
  -1.347834e+01  -5.835820e+00
  -2.718317e+01  -4.624923e+01
  -9.009003e+00  -9.030324e+01
   3.879689e+01  -6.748215e+01
   7.625111e+01   2.593064e+01
   6.313182e+01   1.085977e+02
  -7.336623e+00   1.062119e+02
  -8.170913e+01   1.577030e+01
  -9.199584e+01  -8.244003e+01
  -1.740554e+01  -1.075762e+02
   7.363345e+01  -4.890226e+01
   9.782613e+01   2.469181e+01
   3.294983e+01   6.088822e+01
  -4.052935e+01   5.046429e+01
  -3.582809e+01   2.133586e+01
   2.850843e+01  -2.529246e-01
   6.323625e+01   2.209787e+00
   1.012063e+01   2.830666e+01
  -7.999972e+01   4.992340e+01
  -1.126679e+02   3.507632e+01
  -6.066889e+01  -2.527838e+01
   2.385631e+01  -7.702618e+01
   6.392039e+01  -6.678503e+01
   4.132858e+01  -1.799692e+00
  -4.581130e+00   5.098018e+01
  -3.042874e+01   3.639944e+01
  -3.075274e+01  -2.074773e+01
  -1.389001e+01  -5.621568e+01
   1.076501e+01  -3.256319e+01
   3.059044e+01   1.337073e+01
   3.524534e+01   3.007908e+01
   1.861376e+01   5.990954e+00
  -1.511449e-02  -1.789533e+01
  -6.125866e+00  -4.551975e+00
  -4.769173e+00   3.425559e+01
  -1.480242e+01   4.808277e+01
  -3.044840e+01   1.167033e+01
  -2.935135e+01  -4.342464e+01
   2.185042e+00  -5.853006e+01
   4.423235e+01  -1.670080e+01
   5.344820e+01   4.111090e+01
   6.638891e+00   6.251146e+01
  -6.124073e+01   2.666467e+01
  -8.587609e+01  -2.535443e+01
  -4.063242e+01  -4.978755e+01
   3.517105e+01  -3.999842e+01
   6.596240e+01  -1.768780e+01
   2.718550e+01  -2.014695e-01
  -3.057529e+01  -6.176470e-01
  -3.281139e+01  -1.425154e+01
   2.750074e+01  -2.305555e+01
   8.128253e+01  -6.366172e+00
