
 $NMID
 id='ANONYMOUS ', fmtdat='(2E16.6)'
 volume=1.0
 tramp=1.0
 $END
   2.961187e+03   2.021678e+02
   1.922366e+03   1.612692e+03
  -1.335706e+01   1.796564e+03
  -1.149527e+03   1.057175e+03
  -8.209546e+02   2.035223e+02
  -5.898248e+01  -8.380561e+01
   2.581986e+02   1.359764e+02
  -1.634051e+00   4.678831e+02
  -4.273257e+02   4.733652e+02
  -5.663687e+02   3.171757e+01
  -3.235939e+02  -4.293649e+02
   3.116767e+01  -5.646046e+02
   2.608652e+02  -1.236630e+02
   1.615343e+02   3.845620e+02
  -7.115612e+01   4.242191e+02
  -3.637959e+02   2.688562e+01
  -2.311988e+02  -4.548428e+02
   1.433613e+02  -5.658322e+02
   4.374333e+02  -2.355968e+02
   3.801369e+02   1.759488e+02
   8.262275e+01   3.154079e+02
  -1.082998e+02   1.915331e+02
  -2.397741e+01   5.374104e+01
   2.001621e+02   1.117766e+02
   2.481321e+02   2.975514e+02
  -5.612635e+01   3.618558e+02
  -4.590167e+02   1.197027e+02
  -5.454116e+02  -2.242646e+02
  -1.733416e+02  -3.490704e+02
   3.219326e+02  -1.661159e+02
   4.489682e+02   1.822442e+02
   1.298009e+02   3.627912e+02
  -2.896088e+02   2.981950e+02
  -4.393800e+02   6.524510e+01
  -2.716857e+02  -1.865175e+02
  -3.326668e+01  -2.920356e+02
   5.728681e+01  -1.456979e+02
  -4.876401e+01   1.069043e+02
  -2.072807e+02   1.356884e+02
  -1.895804e+02  -1.752479e+02
   4.547114e+01  -4.750633e+02
   2.794094e+02  -3.758048e+02
   2.872900e+02   5.885822e+01
   5.288978e+01   3.034146e+02
  -1.547982e+02   8.421599e+01
  -1.155575e+02  -2.928376e+02
   1.777536e+02  -3.508405e+02
   4.189821e+02  -8.912902e+00
   4.191383e+02   3.986670e+02
   9.233637e+01   4.828224e+02
  -3.139131e+02   2.318508e+02
  -4.884210e+02  -8.243480e+01
  -2.965006e+02  -2.613240e+02
   5.147893e+01  -2.063501e+02
   2.616663e+02  -5.587314e+01
   1.854106e+02   3.188673e+01
   3.140297e+00  -6.690205e+00
  -2.839174e+01  -6.594452e+01
   1.100694e+02  -3.960778e+01
   2.052494e+02   8.440814e+01
   8.864972e+01   2.027049e+02
  -1.721914e+02   2.193944e+02
  -3.236935e+02   1.038949e+02
  -2.442767e+02  -1.100999e+02
   2.760668e+01  -3.093408e+02
   2.865909e+02  -3.249191e+02
   3.527427e+02  -1.246695e+02
   2.096790e+02   1.705683e+02
   1.898263e+01   3.252484e+02
  -5.930237e+01   2.699959e+02
  -2.910379e+01   1.456348e+02
  -2.192427e+01   1.043769e+02
  -1.309714e+02   1.209899e+02
  -2.425207e+02   4.084764e+01
  -2.231400e+02  -1.400333e+02
  -6.073990e+01  -2.570533e+02
   1.190968e+02  -1.733980e+02
   1.843162e+02   6.445550e+01
   9.772706e+01   2.553841e+02
  -7.770272e+01   2.422879e+02
  -2.483326e+02   3.654812e+01
  -2.807205e+02  -1.995129e+02
  -1.379725e+02  -3.032468e+02
   6.763701e+01  -2.450990e+02
   1.620014e+02  -1.333445e+02
   1.389823e+02  -7.258825e+01
   1.472583e+02  -6.743388e+01
   2.761520e+02  -3.072709e+01
   3.988385e+02   1.149826e+02
   3.018308e+02   3.193227e+02
  -4.259186e+01   4.350133e+02
  -3.906662e+02   3.672392e+02
  -4.669580e+02   1.259370e+02
  -2.715395e+02  -1.254327e+02
   2.225389e+00  -2.385173e+02
   1.017180e+02  -1.667192e+02
   7.159756e+00  -2.114419e+01
  -1.155631e+02   2.086721e+01
  -1.145253e+02  -5.603329e+01
   7.092877e+00  -1.309210e+02
   1.005431e+02  -8.107418e+01
   9.636381e+01   7.028108e+01
  -3.929245e+01   1.176054e+02
  -1.578094e+02  -1.054398e+01
  -1.225599e+02  -2.321203e+02
   4.363778e+01  -3.280733e+02
   2.417887e+02  -1.940585e+02
   3.421971e+02   7.319331e+01
   2.627225e+02   2.623348e+02
   4.566150e+01   2.710875e+02
  -1.301903e+02   1.279386e+02
  -1.445822e+02  -2.901960e+00
  -3.048939e+01  -2.062146e+01
   4.622017e+01   6.546221e+01
  -1.558826e+01   1.095703e+02
  -1.255649e+02   5.232617e+01
  -1.359442e+02  -4.589852e+01
  -1.890151e+01  -5.779416e+01
   8.405406e+01   2.032084e+01
   2.829438e+01   9.488957e+01
  -1.548413e+02   7.556653e+01
  -2.891853e+02  -4.205637e+01
  -2.329749e+02  -1.859656e+02
  -2.025881e+00  -2.629729e+02
   2.216307e+02  -2.144873e+02
   2.638332e+02  -6.605714e+01
   1.171781e+02   6.419213e+01
  -4.062050e+01   7.349462e+01
  -5.841717e+01  -1.793141e+01
   5.931949e+01  -7.694302e+01
   1.780438e+02  -1.554488e+01
   1.656080e+02   1.112563e+02
   3.319385e+01   1.792280e+02
  -9.075044e+01   1.187465e+02
  -1.113287e+02   4.103250e+00
  -3.028533e+01  -4.021445e+01
   4.418279e+01   2.524792e+01
   1.811005e+01   1.154041e+02
  -1.070354e+02   1.118312e+02
  -2.076380e+02  -5.889440e+00
  -1.618215e+02  -1.472948e+02
   7.654769e+00  -2.021200e+02
   1.617605e+02  -1.303544e+02
   1.684534e+02   5.090351e+00
   4.674573e+01   9.256632e+01
  -6.348036e+01   8.358336e+01
  -6.642177e+01   1.753419e+01
   1.375793e+00  -1.956963e+01
   3.819538e+01  -2.803164e+00
  -1.355315e+01   2.602320e+01
  -9.207595e+01  -3.561552e+00
  -1.013195e+02  -9.585346e+01
   1.203498e+00  -1.717289e+02
   1.499576e+02  -1.392975e+02
   2.296859e+02   4.442406e+00
   1.710971e+02   1.627899e+02
   2.344610e+01   2.169348e+02
  -1.038893e+02   1.436481e+02
  -1.217902e+02   2.468794e+01
  -6.649398e+01  -4.419756e+01
  -2.865225e+01  -2.829362e+01
  -5.175844e+01   1.562774e+01
  -8.391334e+01   3.252828e+00
  -5.495028e+01  -5.871891e+01
   3.631596e+01  -9.985459e+01
   1.220629e+02  -6.159704e+01
   1.044229e+02   5.066504e+01
  -2.300111e+01   1.271193e+02
  -1.657388e+02   7.753434e+01
  -1.915201e+02  -8.246733e+01
  -6.082695e+01  -2.189896e+02
   1.380007e+02  -2.063401e+02
   2.491079e+02  -6.798068e+01
   2.279801e+02   1.116132e+02
   7.790910e+01   1.723911e+02
  -5.422861e+01   1.311190e+02
  -9.387280e+01   6.927636e+01
  -7.469878e+01   5.428267e+01
  -5.870011e+01   7.945904e+01
  -8.460604e+01   6.917177e+01
  -1.216219e+02  -2.116735e+01
  -1.055712e+02  -1.494080e+02
  -7.233538e+00  -2.133198e+02
   1.123009e+02  -1.466267e+02
   1.634742e+02   3.717557e+00
   1.062276e+02   1.340553e+02
  -8.547394e+00   1.524751e+02
  -8.307344e+01   7.144383e+01
  -6.251204e+01  -2.183891e+01
   6.791248e+00  -5.601849e+01
   3.483670e+01  -3.555385e+01
  -1.781552e+01  -7.359888e+00
  -7.822822e+01  -1.126745e+01
  -4.942266e+01  -3.964558e+01
   6.815229e+01  -3.856784e+01
   1.641580e+02   8.913964e+00
   1.331874e+02   7.242359e+01
  -5.339493e+00   9.876197e+01
  -1.342798e+02   6.030989e+01
  -1.404459e+02  -8.558109e+00
  -4.085833e+01  -5.522025e+01
   6.020017e+01  -3.871976e+01
   7.050058e+01   1.943801e+01
   1.427780e+01   7.225235e+01
  -4.736554e+01   6.137842e+01
  -6.687004e+01  -1.772318e+00
  -5.358802e+01  -5.161438e+01
  -4.397740e+01  -4.423764e+01
  -5.120249e+01  -5.172021e+00
  -6.121469e+01  -6.072160e+00
  -3.774806e+01  -7.122277e+01
   3.431842e+01  -1.408700e+02
   1.297965e+02  -1.289033e+02
   1.745404e+02  -2.207671e+01
   1.194653e+02   9.979461e+01
  -3.918921e+00   1.289662e+02
  -9.189704e+01   6.048895e+01
  -6.078478e+01  -1.473415e+01
   5.172667e+01  -1.487585e+01
   1.210055e+02   4.753082e+01
   5.733665e+01   1.061027e+02
  -8.740883e+01   9.513051e+01
  -1.792532e+02   2.141424e+01
  -1.421445e+02  -5.759682e+01
  -1.912631e+01  -8.491034e+01
   6.852863e+01  -5.010495e+01
   4.813456e+01   8.778009e+00
  -3.931178e+01   2.864424e+01
  -8.803709e+01  -2.225513e+01
  -3.292963e+01  -1.090300e+02
   8.298532e+01  -1.400923e+02
   1.514328e+02  -5.978970e+01
   1.130515e+02   9.226599e+01
   4.025483e+00   1.811704e+02
  -8.740305e+01   1.246877e+02
  -9.532907e+01  -2.119251e+01
  -3.643555e+01  -1.176220e+02
   2.597006e+01  -9.310018e+01
   5.240988e+01  -5.505802e+00
   3.791733e+01   3.942768e+01
   1.389673e+01   1.224806e+01
   5.890490e+00  -1.506106e+01
   2.580266e+01   1.796448e+01
   4.338585e+01   8.499062e+01
   1.743751e+01   1.034690e+02
  -5.870055e+01   4.303143e+01
  -1.253843e+02  -4.133984e+01
  -1.104805e+02  -8.085008e+01
  -1.524525e+01  -6.104296e+01
   7.595466e+01  -2.347301e+01
   8.142969e+01   1.894367e-01
   1.816570e+01   1.471395e+01
  -3.187881e+01   1.869621e+01
  -2.127218e+01   1.084563e+01
   1.284479e+01  -6.671495e-01
  -6.861741e-01  -3.448674e+00
  -6.323660e+01  -1.915264e+00
  -9.034458e+01  -2.603909e+01
  -2.335507e+01  -7.824130e+01
   1.034394e+02  -1.105398e+02
   1.839919e+02  -6.203464e+01
   1.473724e+02   5.822446e+01
   2.772607e+01   1.516475e+02
  -8.204850e+01   1.464775e+02
  -1.135981e+02   6.013213e+01
  -7.618825e+01  -1.925838e+01
  -2.591897e+01  -3.728004e+01
  -3.505382e+00  -1.262741e+01
  -1.357030e+01  -7.682622e+00
  -2.197936e+01  -4.622465e+01
  -1.222827e+01  -8.626456e+01
   3.180439e+01  -6.908011e+01
   7.307170e+01   1.622464e+01
   7.150058e+01   9.739591e+01
   6.442333e+00   1.051636e+02
  -7.287782e+01   2.660097e+01
  -9.798664e+01  -6.558195e+01
  -3.132086e+01  -1.005356e+02
   6.206023e+01  -6.037304e+01
   9.817130e+01   1.001581e+01
   4.360690e+01   5.774754e+01
  -3.255540e+01   5.861298e+01
  -3.926635e+01   2.764697e+01
   2.013795e+01  -4.190532e+00
   6.370903e+01  -4.245739e+00
   1.837553e+01   2.489074e+01
  -7.548468e+01   5.588925e+01
  -1.147941e+02   4.072729e+01
  -6.750880e+01  -2.138100e+01
   1.746240e+01  -8.021376e+01
   6.301995e+01  -7.565082e+01
   4.715103e+01  -9.037159e+00
   4.708949e+00   5.139875e+01
  -2.490592e+01   4.747563e+01
  -3.536501e+01  -9.981812e+00
  -2.470791e+01  -5.306227e+01
   2.102307e+00  -4.112385e+01
   3.168066e+01   6.226810e+00
   3.734929e+01   3.014294e+01
   1.786195e+01   8.543893e+00
  -5.265341e+00  -2.114140e+01
  -6.213810e+00  -1.367289e+01
   3.563540e+00   2.780085e+01
  -1.391351e-01   4.977761e+01
  -2.415326e+01   2.130066e+01
  -3.763352e+01  -3.117511e+01
  -1.192399e+01  -5.665604e+01
   3.714304e+01  -2.409475e+01
   5.820576e+01   3.100810e+01
   1.812091e+01   5.594514e+01
  -5.329368e+01   3.222687e+01
  -8.826273e+01  -1.183861e+01
  -4.869320e+01  -4.220510e+01
   2.603735e+01  -4.358577e+01
   6.188699e+01  -2.755522e+01
   3.102444e+01  -7.347510e+00
  -2.183462e+01   2.778428e+00
  -2.794727e+01  -5.974758e+00
   2.211585e+01  -2.074835e+01
   7.072694e+01  -1.338842e+01
